0.01367416 0.00230354 0.00064534 0.00448790 0.00649347 0.01092103 0.00267648 0.00399421 0.00122572 0.01260396 0.00141679 0.00256130 0.00287732 0.00332169 0.00456919 0.00130186 
0.01378011 0.00236598 0.00067966 0.00443398 0.00644489 0.01083361 0.00261847 0.00392459 0.00123793 0.01262326 0.00140579 0.00259178 0.00287281 0.00334372 0.00454999 0.00132776 
0.01391358 0.00242845 0.00071763 0.00438315 0.00638641 0.01074427 0.00255971 0.00385387 0.00127244 0.01262780 0.00139376 0.00262029 0.00286830 0.00336869 0.00453449 0.00135378 
0.01407421 0.00249074 0.00075901 0.00433501 0.00631821 0.01065331 0.00250052 0.00378233 0.00132875 0.01261746 0.00138075 0.00264668 0.00286383 0.00339635 0.00452297 0.00137982 
0.01426148 0.00255267 0.00080355 0.00428916 0.00624053 0.01056105 0.00244124 0.00371027 0.00140631 0.01259222 0.00136681 0.00267082 0.00285942 0.00342641 0.00451569 0.00140577 
0.01447474 0.00261406 0.00085096 0.00424520 0.00615368 0.01046777 0.00238216 0.00363795 0.00150451 0.01255213 0.00135199 0.00269258 0.00285509 0.00345859 0.00451290 0.00143153 
0.01471317 0.00267478 0.00090094 0.00420276 0.00605800 0.01037375 0.00232362 0.00356566 0.00162272 0.01249731 0.00133637 0.00271186 0.00285087 0.00349257 0.00451485 0.00145701 
0.01497585 0.00273467 0.00095317 0.00416148 0.00595388 0.01027925 0.00226590 0.00349369 0.00176027 0.01242796 0.00131999 0.00272855 0.00284677 0.00352804 0.00452176 0.00148211 
0.01526169 0.00279361 0.00100730 0.00412100 0.00584176 0.01018450 0.00220931 0.00342231 0.00191647 0.01234433 0.00130293 0.00274256 0.00284280 0.00356467 0.00453387 0.00150672 
0.01556945 0.00285152 0.00106298 0.00408103 0.00572214 0.01008970 0.00215412 0.00335178 0.00209060 0.01224675 0.00128525 0.00275384 0.00283899 0.00360211 0.00455137 0.00153076 
0.01589778 0.00290829 0.00111981 0.00404125 0.00559553 0.00999505 0.00210060 0.00328238 0.00228191 0.01213561 0.00126702 0.00276232 0.00283534 0.00364003 0.00457444 0.00155413 
0.01624518 0.00296385 0.00117741 0.00400141 0.00546249 0.00990072 0.00204902 0.00321434 0.00248965 0.01201135 0.00124831 0.00276796 0.00283187 0.00367806 0.00460324 0.00157674 
0.01661002 0.00301814 0.00123536 0.00396126 0.00532360 0.00980685 0.00199961 0.00314792 0.00271305 0.01187447 0.00122919 0.00277074 0.00282858 0.00371587 0.00463792 0.00159851 
0.01699056 0.00307113 0.00129325 0.00392059 0.00517948 0.00971356 0.00195259 0.00308334 0.00295133 0.01172553 0.00120973 0.00277064 0.00282547 0.00375309 0.00467860 0.00161935 
0.01738492 0.00312276 0.00135064 0.00387923 0.00503078 0.00962095 0.00190817 0.00302081 0.00320371 0.01156512 0.00119002 0.00276768 0.00282256 0.00378938 0.00472536 0.00163919 
0.01779115 0.00317303 0.00140710 0.00383703 0.00487814 0.00952909 0.00186653 0.00296054 0.00346940 0.01139390 0.00117011 0.00276187 0.00281983 0.00382440 0.00477827 0.00165797 
0.01820715 0.00322192 0.00146219 0.00379387 0.00472223 0.00943803 0.00182784 0.00290271 0.00374762 0.01121254 0.00115010 0.00275326 0.00281729 0.00385782 0.00483736 0.00167560 
0.01863078 0.00326943 0.00151547 0.00374967 0.00456375 0.00934781 0.00179224 0.00284748 0.00403759 0.01102176 0.00113005 0.00274190 0.00281493 0.00388930 0.00490265 0.00169203 
0.01905980 0.00331558 0.00156650 0.00370437 0.00440336 0.00925843 0.00175985 0.00279501 0.00433854 0.01082232 0.00111005 0.00272785 0.00281275 0.00391853 0.00497411 0.00170722 
0.01949189 0.00336037 0.00161484 0.00365797 0.00424178 0.00916989 0.00173079 0.00274543 0.00464969 0.01061498 0.00109015 0.00271121 0.00281074 0.00394522 0.00505168 0.00172111 
0.01992470 0.00340383 0.00166007 0.00361046 0.00407967 0.00908216 0.00170512 0.00269885 0.00497028 0.01040055 0.00107045 0.00269207 0.00280888 0.00396908 0.00513528 0.00173366 
0.02035583 0.00344600 0.00170177 0.00356189 0.00391772 0.00899518 0.00168291 0.00265536 0.00529957 0.01017983 0.00105101 0.00267054 0.00280716 0.00398983 0.00522478 0.00174484 
0.02078286 0.00348689 0.00173954 0.00351233 0.00375659 0.00890890 0.00166418 0.00261502 0.00563682 0.00995365 0.00103190 0.00264676 0.00280557 0.00400723 0.00532004 0.00175462 
0.02120334 0.00352655 0.00177299 0.00346187 0.00359695 0.00882324 0.00164896 0.00257790 0.00598130 0.00972285 0.00101319 0.00262087 0.00280409 0.00402105 0.00542087 0.00176298 
0.02161485 0.00356501 0.00180175 0.00341063 0.00343942 0.00873811 0.00163722 0.00254403 0.00633230 0.00948825 0.00099496 0.00259301 0.00280270 0.00403107 0.00552705 0.00176992 
0.02201496 0.00360232 0.00182549 0.00335876 0.00328463 0.00865341 0.00162895 0.00251340 0.00668912 0.00925070 0.00097728 0.00256336 0.00280138 0.00403711 0.00563833 0.00177543 
0.02240129 0.00363850 0.00184389 0.00330642 0.00313315 0.00856904 0.00162408 0.00248602 0.00705108 0.00901103 0.00096019 0.00253207 0.00280010 0.00403900 0.00575443 0.00177950 
0.02277151 0.00367359 0.00185665 0.00325380 0.00298555 0.00848488 0.00162255 0.00246184 0.00741750 0.00877005 0.00094378 0.00249934 0.00279885 0.00403661 0.00587502 0.00178216 
0.02312335 0.00370762 0.00186352 0.00320109 0.00284235 0.00840080 0.00162426 0.00244082 0.00778773 0.00852857 0.00092809 0.00246536 0.00279760 0.00402981 0.00599977 0.00178342 
0.02345464 0.00374062 0.00186429 0.00314850 0.00270406 0.00831668 0.00162911 0.00242290 0.00816112 0.00828737 0.00091318 0.00243032 0.00279631 0.00401852 0.00612830 0.00178329 
0.02376329 0.00377260 0.00185877 0.00309627 0.00257112 0.00823239 0.00163696 0.00240797 0.00853703 0.00804722 0.00089912 0.00239443 0.00279497 0.00400267 0.00626020 0.00178182 
0.02404732 0.00380360 0.00184682 0.00304462 0.00244396 0.00814781 0.00164766 0.00239593 0.00891484 0.00780886 0.00088594 0.00235788 0.00279353 0.00398222 0.00639504 0.00177903 
0.02430491 0.00383361 0.00182834 0.00299379 0.00232296 0.00806280 0.00166106 0.00238666 0.00929395 0.00757301 0.00087369 0.00232089 0.00279198 0.00395716 0.00653237 0.00177497 
0.02453434 0.00386263 0.00180329 0.00294403 0.00220845 0.00797725 0.00167698 0.00238003 0.00967375 0.00734033 0.00086242 0.00228367 0.00279029 0.00392750 0.00667171 0.00176969 
0.02473410 0.00389066 0.00177167 0.00289557 0.00210072 0.00789104 0.00169524 0.00237587 0.01005364 0.00711148 0.00085217 0.00224643 0.00278841 0.00389327 0.00681255 0.00176323 
0.02490280 0.00391769 0.00173351 0.00284866 0.00200003 0.00780404 0.00171563 0.00237401 0.01043305 0.00688706 0.00084296 0.00220937 0.00278632 0.00385455 0.00695438 0.00175566 
0.02503929 0.00394368 0.00168893 0.00280353 0.00190658 0.00771616 0.00173795 0.00237429 0.01081140 0.00666763 0.00083484 0.00217270 0.00278399 0.00381141 0.00709666 0.00174705 
0.02514256 0.00396861 0.00163807 0.00276040 0.00182053 0.00762731 0.00176198 0.00237650 0.01118813 0.00645373 0.00082781 0.00213662 0.00278139 0.00376397 0.00723883 0.00173744 
0.02521187 0.00399243 0.00158116 0.00271949 0.00174199 0.00753738 0.00178749 0.00238045 0.01156265 0.00624582 0.00082191 0.00210133 0.00277849 0.00371237 0.00738033 0.00172692 
0.02524664 0.00401509 0.00151844 0.00268102 0.00167102 0.00744631 0.00181426 0.00238593 0.01193443 0.00604436 0.00081715 0.00206701 0.00277525 0.00365675 0.00752059 0.00171556 
0.02524656 0.00403652 0.00145026 0.00264516 0.00160766 0.00735403 0.00184206 0.00239272 0.01230289 0.00584971 0.00081354 0.00203384 0.00277165 0.00359731 0.00765902 0.00170343 
0.02521154 0.00405666 0.00137698 0.00261209 0.00155187 0.00726049 0.00187065 0.00240061 0.01266751 0.00566224 0.00081108 0.00200199 0.00276766 0.00353424 0.00779505 0.00169060 
0.02514173 0.00407542 0.00129905 0.00258197 0.00150359 0.00716564 0.00189980 0.00240936 0.01302771 0.00548221 0.00080977 0.00197163 0.00276326 0.00346775 0.00792808 0.00167717 
0.02503751 0.00409272 0.00121696 0.00255493 0.00146271 0.00706947 0.00192928 0.00241876 0.01338297 0.00530988 0.00080961 0.00194289 0.00275841 0.00339809 0.00805755 0.00166320 
0.02489954 0.00410845 0.00113127 0.00253108 0.00142909 0.00697195 0.00195887 0.00242858 0.01373273 0.00514544 0.00081058 0.00191592 0.00275309 0.00332551 0.00818286 0.00164877 
0.02472871 0.00412251 0.00104258 0.00251053 0.00140254 0.00687309 0.00198833 0.00243860 0.01407647 0.00498904 0.00081266 0.00189083 0.00274728 0.00325027 0.00830345 0.00163398 
0.02452617 0.00413480 0.00095156 0.00249334 0.00138283 0.00677290 0.00201746 0.00244859 0.01441363 0.00484076 0.00081584 0.00186772 0.00274096 0.00317265 0.00841876 0.00161888 
0.02429331 0.00414520 0.00085893 0.00247954 0.00136970 0.00667141 0.00204605 0.00245834 0.01474370 0.00470066 0.00082008 0.00184669 0.00273411 0.00309295 0.00852825 0.00160357 
0.02403176 0.00415358 0.00076543 0.00246917 0.00136287 0.00656867 0.00207390 0.00246764 0.01506613 0.00456874 0.00082535 0.00182781 0.00272672 0.00301147 0.00863139 0.00158812 
0.02374341 0.00415983 0.00067190 0.00246222 0.00136200 0.00646472 0.00210082 0.00247629 0.01538041 0.00444495 0.00083161 0.00181114 0.00271876 0.00292852 0.00872768 0.00157260 
0.02343037 0.00416381 0.00057919 0.00245866 0.00136676 0.00635964 0.00212664 0.00248409 0.01568600 0.00432921 0.00083882 0.00179671 0.00271023 0.00284442 0.00881662 0.00155710 
0.02309497 0.00416541 0.00048820 0.00245842 0.00137675 0.00625350 0.00215120 0.00249086 0.01598239 0.00422138 0.00084691 0.00178455 0.00270112 0.00275949 0.00889777 0.00154167 
0.02273978 0.00416449 0.00039986 0.00246144 0.00139160 0.00614640 0.00217436 0.00249644 0.01626907 0.00412129 0.00085585 0.00177465 0.00269142 0.00267406 0.00897069 0.00152638 
0.02236755 0.00416094 0.00031516 0.00246761 0.00141088 0.00603843 0.00219598 0.00250065 0.01654554 0.00402874 0.00086556 0.00176700 0.00268113 0.00258846 0.00903499 0.00151131 
0.02198123 0.00415463 0.00023508 0.00247680 0.00143417 0.00592972 0.00221597 0.00250336 0.01681130 0.00394348 0.00087599 0.00176158 0.00267024 0.00250301 0.00909029 0.00149650 
0.02158395 0.00414546 0.00016067 0.00248887 0.00146100 0.00582037 0.00223421 0.00250445 0.01706586 0.00386524 0.00088705 0.00175832 0.00265875 0.00241804 0.00913627 0.00148203 
0.02117900 0.00413331 0.00009296 0.00250364 0.00149095 0.00571053 0.00225064 0.00250378 0.01730876 0.00379370 0.00089869 0.00175716 0.00264667 0.00233387 0.00917264 0.00146792 
0.02076982 0.00411809 0.00003301 0.00252093 0.00152353 0.00560032 0.00226520 0.00250128 0.01753954 0.00372854 0.00091081 0.00175801 0.00263401 0.00225081 0.00919913 0.00145425 
0.02035995 0.00409970 0.00001810 0.00254053 0.00155828 0.00548990 0.00227785 0.00249685 0.01775775 0.00366939 0.00092335 0.00176077 0.00262077 0.00216918 0.00921553 0.00144105 
0.01995308 0.00407807 0.00005930 0.00256221 0.00159475 0.00537941 0.00228858 0.00249045 0.01796297 0.00361588 0.00093620 0.00176532 0.00260696 0.00208927 0.00922167 0.00142836 
0.01955294 0.00405313 0.00008952 0.00258575 0.00163245 0.00526900 0.00229739 0.00248202 0.01815480 0.00356760 0.00094930 0.00177153 0.00259260 0.00201138 0.00921743 0.00141621 
0.01916336 0.00402485 0.00010771 0.00261090 0.00167094 0.00515884 0.00230431 0.00247155 0.01833284 0.00352415 0.00096254 0.00177924 0.00257770 0.00193578 0.00920272 0.00140463 
0.01878820 0.00399317 0.00011281 0.00263739 0.00170977 0.00504908 0.00230939 0.00245903 0.01849674 0.00348510 0.00097583 0.00178829 0.00256229 0.00186273 0.00917750 0.00139366 
0.01843132 0.00395809 0.00010381 0.00266496 0.00174849 0.00493987 0.00231268 0.00244447 0.01864618 0.00345001 0.00098910 0.00179852 0.00254637 0.00179249 0.00914178 0.00138330 
0.01809661 0.00391960 0.00007971 0.00269333 0.00178667 0.00483140 0.00231427 0.00242792 0.01878083 0.00341846 0.00100223 0.00180972 0.00252998 0.00172528 0.00909560 0.00137358 
0.01778792 0.00387773 0.00003955 0.00272225 0.00182390 0.00472380 0.00231427 0.00240942 0.01890044 0.00338999 0.00101514 0.00182171 0.00251314 0.00166134 0.00903908 0.00136451 
0.01750902 0.00383253 0.00001757 0.00275142 0.00185979 0.00461725 0.00231279 0.00238905 0.01900476 0.00336417 0.00102773 0.00183428 0.00249587 0.00160084 0.00897235 0.00135609 
0.01726365 0.00378405 0.00009253 0.00278057 0.00189396 0.00451190 0.00230999 0.00236690 0.01909359 0.00334057 0.00103991 0.00184721 0.00247820 0.00154398 0.00889561 0.00134833 
0.01705541 0.00373238 0.00018614 0.00280944 0.00192607 0.00440791 0.00230602 0.00234308 0.01916676 0.00331875 0.00105160 0.00186030 0.00246017 0.00149090 0.00880908 0.00134123 
0.01688781 0.00367764 0.00029913 0.00283776 0.00195577 0.00430541 0.00230106 0.00231772 0.01922415 0.00329830 0.00106270 0.00187332 0.00244179 0.00144176 0.00871305 0.00133477 
0.01676419 0.00361996 0.00043219 0.00286527 0.00198278 0.00420457 0.00229529 0.00229095 0.01926568 0.00327882 0.00107314 0.00188604 0.00242312 0.00139666 0.00860784 0.00132896 
0.01668772 0.00355949 0.00058593 0.00289173 0.00200681 0.00410552 0.00228892 0.00226295 0.01929130 0.00325991 0.00108281 0.00189824 0.00240416 0.00135570 0.00849381 0.00132377 
0.01666139 0.00349643 0.00076086 0.00291691 0.00202762 0.00400839 0.00228216 0.00223389 0.01930104 0.00324121 0.00109166 0.00190969 0.00238497 0.00131895 0.00837136 0.00131919 
0.01668797 0.00343097 0.00095742 0.00294059 0.00204499 0.00391331 0.00227525 0.00220395 0.01929494 0.00322236 0.00109960 0.00192019 0.00236557 0.00128646 0.00824094 0.00131521 
0.01677000 0.00336335 0.00117595 0.00296256 0.00205872 0.00382041 0.00226843 0.00217333 0.01927312 0.00320303 0.00110658 0.00192949 0.00234601 0.00125825 0.00810301 0.00131179 
0.01690976 0.00329383 0.00141671 0.00298265 0.00206867 0.00372979 0.00226193 0.00214225 0.01923573 0.00318291 0.00111252 0.00193741 0.00232630 0.00123434 0.00795809 0.00130893 
0.01710926 0.00322268 0.00167983 0.00300069 0.00207470 0.00364156 0.00225601 0.00211094 0.01918300 0.00316173 0.00111737 0.00194373 0.00230650 0.00121470 0.00780671 0.00130658 
0.01737024 0.00315021 0.00196536 0.00301653 0.00207672 0.00355582 0.00225094 0.00207962 0.01911518 0.00313923 0.00112109 0.00194826 0.00228664 0.00119929 0.00764944 0.00130472 
0.01769412 0.00307673 0.00227322 0.00303006 0.00207467 0.00347266 0.00224696 0.00204854 0.01903260 0.00311517 0.00112363 0.00195083 0.00226676 0.00118805 0.00748688 0.00130333 
0.01808200 0.00300259 0.00260325 0.00304118 0.00206851 0.00339216 0.00224435 0.00201794 0.01893564 0.00308938 0.00112496 0.00195125 0.00224688 0.00118090 0.00731963 0.00130236 
0.01853466 0.00292815 0.00295514 0.00304981 0.00205824 0.00331439 0.00224336 0.00198807 0.01882475 0.00306167 0.00112506 0.00194938 0.00222705 0.00117773 0.00714834 0.00130180 
0.01905257 0.00285380 0.00332848 0.00305590 0.00204388 0.00323941 0.00224426 0.00195919 0.01870040 0.00303191 0.00112391 0.00194509 0.00220731 0.00117841 0.00697365 0.00130160 
0.01963580 0.00277992 0.00372276 0.00305944 0.00202551 0.00316729 0.00224729 0.00193154 0.01856316 0.00299999 0.00112152 0.00193824 0.00218769 0.00118280 0.00679623 0.00130173 
0.02028413 0.00270693 0.00413731 0.00306042 0.00200319 0.00309805 0.00225270 0.00190540 0.01841363 0.00296584 0.00111787 0.00192874 0.00216822 0.00119073 0.00661675 0.00130216 
0.02099694 0.00263524 0.00457138 0.00305888 0.00197705 0.00303176 0.00226073 0.00188100 0.01825248 0.00292940 0.00111299 0.00191651 0.00214895 0.00120204 0.00643589 0.00130286 
0.02177327 0.00256528 0.00502409 0.00305485 0.00194722 0.00296842 0.00227162 0.00185861 0.01808041 0.00289067 0.00110690 0.00190149 0.00212991 0.00121652 0.00625434 0.00130378 
0.02261182 0.00249750 0.00549444 0.00304842 0.00191387 0.00290806 0.00228558 0.00183846 0.01789820 0.00284964 0.00109964 0.00188364 0.00211114 0.00123397 0.00607277 0.00130491 
0.02351091 0.00243233 0.00598132 0.00303969 0.00187719 0.00285070 0.00230280 0.00182079 0.01770668 0.00280638 0.00109126 0.00186294 0.00209267 0.00125416 0.00589186 0.00130621 
0.02446853 0.00237022 0.00648351 0.00302878 0.00183737 0.00279634 0.00232349 0.00180583 0.01750671 0.00276093 0.00108180 0.00183941 0.00207454 0.00127685 0.00571229 0.00130764 
0.02548233 0.00231160 0.00699969 0.00301584 0.00179466 0.00274498 0.00234781 0.00179381 0.01729922 0.00271340 0.00107133 0.00181309 0.00205678 0.00130181 0.00553471 0.00130918 
0.02654961 0.00225692 0.00752843 0.00300103 0.00174929 0.00269659 0.00237590 0.00178493 0.01708516 0.00266391 0.00105994 0.00178402 0.00203944 0.00132877 0.00535978 0.00131081 
0.02766738 0.00220660 0.00806819 0.00298453 0.00170153 0.00265117 0.00240790 0.00177939 0.01686553 0.00261260 0.00104772 0.00175230 0.00202256 0.00135748 0.00518812 0.00131249 
0.02883232 0.00216107 0.00861735 0.00296656 0.00165165 0.00260869 0.00244393 0.00177737 0.01664139 0.00255963 0.00103475 0.00171805 0.00200616 0.00138767 0.00502034 0.00131419 
0.03004081 0.00212074 0.00917423 0.00294733 0.00159994 0.00256911 0.00248406 0.00177903 0.01641381 0.00250519 0.00102115 0.00168138 0.00199028 0.00141907 0.00485703 0.00131591 
0.03128897 0.00208600 0.00973701 0.00292708 0.00154671 0.00253240 0.00252835 0.00178454 0.01618388 0.00244947 0.00100703 0.00164248 0.00197498 0.00145141 0.00469875 0.00131760 
0.03257267 0.00205722 0.01030386 0.00290605 0.00149224 0.00249851 0.00257685 0.00179402 0.01595273 0.00239271 0.00099252 0.00160152 0.00196028 0.00148440 0.00454603 0.00131927 
0.03388753 0.00203475 0.01087286 0.00288449 0.00143686 0.00246739 0.00262956 0.00180759 0.01572152 0.00233513 0.00097776 0.00155873 0.00194622 0.00151779 0.00439937 0.00132088 
0.03522894 0.00201892 0.01144202 0.00286268 0.00138088 0.00243899 0.00268647 0.00182534 0.01549141 0.00227698 0.00096289 0.00151433 0.00193285 0.00155130 0.00425924 0.00132243 
0.03659214 0.00201004 0.01200933 0.00284088 0.00132462 0.00241323 0.00274753 0.00184734 0.01526357 0.00221852 0.00094805 0.00146859 0.00192022 0.00158466 0.00412607 0.00132389 
0.03797218 0.00200837 0.01257274 0.00281937 0.00126838 0.00239005 0.00281268 0.00187365 0.01503917 0.00216000 0.00093341 0.00142179 0.00190836 0.00161762 0.00400026 0.00132527 
0.03936396 0.00201414 0.01313016 0.00279841 0.00121248 0.00236939 0.00288180 0.00190430 0.01481939 0.00210169 0.00091913 0.00137424 0.00189732 0.00164991 0.00388217 0.00132654 
0.04076230 0.00202756 0.01367950 0.00277830 0.00115723 0.00235116 0.00295479 0.00193929 0.01460539 0.00204387 0.00090537 0.00132625 0.00188716 0.00168130 0.00377211 0.00132770 
0.04216191 0.00204880 0.01421865 0.00275929 0.00110293 0.00233529 0.00303147 0.00197862 0.01439832 0.00198681 0.00089230 0.00127817 0.00187790 0.00171156 0.00367034 0.00132874 
0.04355746 0.00207797 0.01474552 0.00274165 0.00104987 0.00232169 0.00311167 0.00202223 0.01419931 0.00193078 0.00088011 0.00123036 0.00186962 0.00174044 0.00357712 0.00132966 
0.04494358 0.00211516 0.01525803 0.00272565 0.00099833 0.00231027 0.00319519 0.00207008 0.01400947 0.00187605 0.00086897 0.00118319 0.00186236 0.00176776 0.00349261 0.00133045 
0.04631492 0.00216041 0.01575413 0.00271151 0.00094857 0.00230094 0.00328178 0.00212207 0.01382985 0.00182289 0.00085905 0.00113705 0.00185616 0.00179330 0.00341697 0.00133111 
0.04766617 0.00221372 0.01623180 0.00269949 0.00090087 0.00229361 0.00337119 0.00217810 0.01366149 0.00177154 0.00085054 0.00109232 0.00185110 0.00181689 0.00335030 0.00133165 
0.04899207 0.00227503 0.01668908 0.00268979 0.00085545 0.00228818 0.00346313 0.00223803 0.01350537 0.00172226 0.00084362 0.00104942 0.00184723 0.00183836 0.00329264 0.00133206 
0.05028746 0.00234425 0.01712407 0.00268263 0.00081254 0.00228456 0.00355731 0.00230171 0.01336241 0.00167528 0.00083845 0.00100875 0.00184459 0.00185756 0.00324401 0.00133234 
0.05154733 0.00242124 0.01753494 0.00267818 0.00077236 0.00228263 0.00365338 0.00236897 0.01323349 0.00163083 0.00083522 0.00097072 0.00184327 0.00187435 0.00320438 0.00133249 
0.05276680 0.00250580 0.01791994 0.00267662 0.00073508 0.00228231 0.00375102 0.00243959 0.01311940 0.00158912 0.00083410 0.00093574 0.00184330 0.00188861 0.00317366 0.00133251 
0.05394118 0.00259771 0.01827741 0.00267808 0.00070088 0.00228348 0.00384985 0.00251338 0.01302087 0.00155033 0.00083524 0.00090424 0.00184477 0.00190026 0.00315174 0.00133242 
0.05506600 0.00269668 0.01860580 0.00268268 0.00066991 0.00228605 0.00394950 0.00259007 0.01293858 0.00151466 0.00083881 0.00087660 0.00184773 0.00190919 0.00313845 0.00133221 
0.05613704 0.00280238 0.01890367 0.00269053 0.00064230 0.00228990 0.00404957 0.00266943 0.01287307 0.00148226 0.00084495 0.00085324 0.00185226 0.00191536 0.00313360 0.00133188 
0.05715035 0.00291445 0.01916970 0.00270169 0.00061815 0.00229492 0.00414967 0.00275116 0.01282486 0.00145326 0.00085381 0.00083453 0.00185840 0.00191872 0.00313695 0.00133143 
0.05810224 0.00303247 0.01940268 0.00271621 0.00059755 0.00230102 0.00424938 0.00283498 0.01279432 0.00142780 0.00086553 0.00082085 0.00186624 0.00191925 0.00314821 0.00133088 
0.05898938 0.00315599 0.01960157 0.00273411 0.00058057 0.00230807 0.00434829 0.00292058 0.01278178 0.00140597 0.00088022 0.00081256 0.00187584 0.00191693 0.00316708 0.00133021 
0.05980875 0.00328451 0.01976545 0.00275537 0.00056724 0.00231598 0.00444597 0.00300764 0.01278743 0.00138784 0.00089800 0.00080999 0.00188726 0.00191178 0.00319321 0.00132944 
0.06055771 0.00341753 0.01989356 0.00277997 0.00055759 0.00232464 0.00454202 0.00309582 0.01281138 0.00137349 0.00091896 0.00081347 0.00190057 0.00190382 0.00322623 0.00132857 
0.06123399 0.00355447 0.01998529 0.00280785 0.00055161 0.00233394 0.00463599 0.00318479 0.01285364 0.00136293 0.00094320 0.00082328 0.00191585 0.00189310 0.00326572 0.00132758 
0.06183570 0.00369476 0.02004019 0.00283890 0.00054929 0.00234378 0.00472750 0.00327418 0.01291410 0.00135620 0.00097078 0.00083969 0.00193314 0.00187968 0.00331127 0.00132649 
0.06236139 0.00383777 0.02005797 0.00287302 0.00055058 0.00235405 0.00481612 0.00336363 0.01299257 0.00135327 0.00100177 0.00086294 0.00195252 0.00186364 0.00336242 0.00132529 
0.06281000 0.00398289 0.02003851 0.00291007 0.00055542 0.00236465 0.00490147 0.00345279 0.01308873 0.00135412 0.00103621 0.00089324 0.00197405 0.00184507 0.00341868 0.00132398 
0.06318092 0.00412946 0.01998187 0.00294987 0.00056371 0.00237548 0.00498316 0.00354129 0.01320218 0.00135871 0.00107413 0.00093074 0.00199778 0.00182407 0.00347957 0.00132255 
0.06347399 0.00427681 0.01988826 0.00299224 0.00057538 0.00238644 0.00506083 0.00362875 0.01333239 0.00136695 0.00111554 0.00097558 0.00202377 0.00180077 0.00354458 0.00132101 
0.06368947 0.00442429 0.01975808 0.00303696 0.00059028 0.00239744 0.00513413 0.00371482 0.01347875 0.00137876 0.00116043 0.00102786 0.00205208 0.00177530 0.00361319 0.00131933 
0.06382809 0.00457121 0.01959187 0.00308381 0.00060829 0.00240839 0.00520275 0.00379912 0.01364055 0.00139403 0.00120880 0.00108764 0.00208275 0.00174779 0.00368486 0.00131753 
0.06389100 0.00471690 0.01939036 0.00313251 0.00062925 0.00241920 0.00526638 0.00388131 0.01381698 0.00141262 0.00126059 0.00115492 0.00211583 0.00171840 0.00375906 0.00131558 
0.06387983 0.00486071 0.01915444 0.00318280 0.00065301 0.00242978 0.00532474 0.00396103 0.01400713 0.00143440 0.00131577 0.00122969 0.00215135 0.00168729 0.00383524 0.00131348 
0.06379663 0.00500198 0.01888516 0.00323440 0.00067937 0.00244005 0.00537761 0.00403794 0.01421001 0.00145920 0.00137425 0.00131185 0.00218936 0.00165463 0.00391286 0.00131122 
0.06364389 0.00514007 0.01858371 0.00328699 0.00070816 0.00244994 0.00542477 0.00411172 0.01442456 0.00148684 0.00143596 0.00140131 0.00222988 0.00162058 0.00399138 0.00130878 
0.06342453 0.00527437 0.01825146 0.00334026 0.00073916 0.00245938 0.00546603 0.00418205 0.01464963 0.00151714 0.00150079 0.00149790 0.00227294 0.00158534 0.00407025 0.00130616 
0.06314187 0.00540429 0.01788989 0.00339389 0.00077217 0.00246830 0.00550127 0.00424864 0.01488401 0.00154989 0.00156862 0.00160141 0.00231855 0.00154908 0.00414896 0.00130334 
0.06279964 0.00552930 0.01750065 0.00344754 0.00080696 0.00247663 0.00553038 0.00431120 0.01512643 0.00158487 0.00163933 0.00171159 0.00236672 0.00151198 0.00422696 0.00130032 
0.06240193 0.00564886 0.01708547 0.00350087 0.00084332 0.00248434 0.00555329 0.00436949 0.01537556 0.00162187 0.00171276 0.00182814 0.00241746 0.00147423 0.00430377 0.00129706 
0.06195321 0.00576251 0.01664626 0.00355354 0.00088101 0.00249135 0.00556998 0.00442325 0.01563003 0.00166065 0.00178876 0.00195073 0.00247076 0.00143602 0.00437888 0.00129357 
0.06145828 0.00586983 0.01618498 0.00360521 0.00091981 0.00249764 0.00558048 0.00447229 0.01588843 0.00170098 0.00186714 0.00207898 0.00252660 0.00139754 0.00445181 0.00128983 
0.06092226 0.00597044 0.01570374 0.00365554 0.00095947 0.00250317 0.00558483 0.00451641 0.01614933 0.00174261 0.00194773 0.00221245 0.00258497 0.00135895 0.00452210 0.00128582 
0.06035054 0.00606403 0.01520469 0.00370419 0.00099977 0.00250790 0.00558315 0.00455546 0.01641128 0.00178531 0.00203033 0.00235069 0.00264584 0.00132046 0.00458932 0.00128152 
0.05974879 0.00615035 0.01469009 0.00375083 0.00104046 0.00251182 0.00557559 0.00458930 0.01667282 0.00182882 0.00211473 0.00249319 0.00270916 0.00128222 0.00465306 0.00127694 
0.05912288 0.00622919 0.01416225 0.00379515 0.00108132 0.00251491 0.00556232 0.00461783 0.01693249 0.00187291 0.00220071 0.00263942 0.00277489 0.00124440 0.00471292 0.00127205 
0.05847892 0.00630044 0.01362353 0.00383682 0.00112211 0.00251716 0.00554359 0.00464099 0.01718886 0.00191732 0.00228806 0.00278881 0.00284297 0.00120718 0.00476855 0.00126684 
0.05782314 0.00636404 0.01307634 0.00387557 0.00116263 0.00251856 0.00551968 0.00465873 0.01744050 0.00196183 0.00237652 0.00294076 0.00291334 0.00117070 0.00481960 0.00126130 
0.05716192 0.00642001 0.01252312 0.00391111 0.00120264 0.00251913 0.00549089 0.00467104 0.01768604 0.00200619 0.00246588 0.00309464 0.00298592 0.00113512 0.00486577 0.00125543 
0.05650173 0.00646844 0.01196629 0.00394317 0.00124194 0.00251888 0.00545760 0.00467796 0.01792412 0.00205018 0.00255590 0.00324981 0.00306062 0.00110057 0.00490679 0.00124921 
0.05584909 0.00650948 0.01140831 0.00397152 0.00128034 0.00251783 0.00542019 0.00467954 0.01815347 0.00209357 0.00264631 0.00340559 0.00313736 0.00106718 0.00494242 0.00124264 
0.05521054 0.00654339 0.01085160 0.00399593 0.00131763 0.00251600 0.00537911 0.00467587 0.01837286 0.00213617 0.00273690 0.00356130 0.00321603 0.00103507 0.00497244 0.00123571 
0.05459259 0.00657048 0.01029857 0.00401620 0.00135364 0.00251344 0.00533483 0.00466709 0.01858116 0.00217777 0.00282740 0.00371624 0.00329652 0.00100436 0.00499668 0.00122844 
0.05400172 0.00659114 0.00975158 0.00403216 0.00138820 0.00251017 0.00528785 0.00465336 0.01877729 0.00221817 0.00291757 0.00386971 0.00337870 0.00097514 0.00501498 0.00122080 
0.05344426 0.00660584 0.00921294 0.00404367 0.00142115 0.00250626 0.00523871 0.00463486 0.01896030 0.00225722 0.00300719 0.00402099 0.00346246 0.00094750 0.00502725 0.00121282 
0.05292644 0.00661512 0.00868489 0.00405059 0.00145235 0.00250176 0.00518797 0.00461182 0.01912930 0.00229473 0.00309600 0.00416939 0.00354765 0.00092152 0.00503339 0.00120449 
0.05245429 0.00661960 0.00816961 0.00405282 0.00148167 0.00249672 0.00513624 0.00458451 0.01928355 0.00233057 0.00318379 0.00431420 0.00363414 0.00089726 0.00503338 0.00119582 
0.05203365 0.00661994 0.00766918 0.00405032 0.00150900 0.00249121 0.00508412 0.00455320 0.01942241 0.00236461 0.00327032 0.00445473 0.00372176 0.00087479 0.00502718 0.00118682 
0.05167008 0.00661691 0.00718557 0.00404302 0.00153422 0.00248531 0.00503224 0.00451821 0.01954535 0.00239673 0.00335539 0.00459030 0.00381037 0.00085415 0.00501484 0.00117752 
0.05136886 0.00661131 0.00672066 0.00403092 0.00155725 0.00247908 0.00498126 0.00447989 0.01965199 0.00242683 0.00343878 0.00472027 0.00389979 0.00083536 0.00499639 0.00116792 
0.05113493 0.00660401 0.00627620 0.00401404 0.00157803 0.00247262 0.00493185 0.00443860 0.01974208 0.00245483 0.00352031 0.00484401 0.00398987 0.00081846 0.00497193 0.00115805 
0.05097291 0.00659592 0.00585381 0.00399242 0.00159649 0.00246601 0.00488466 0.00439475 0.01981550 0.00248066 0.00359979 0.00496091 0.00408042 0.00080345 0.00494156 0.00114794 
0.05088698 0.00658802 0.00545497 0.00396613 0.00161259 0.00245932 0.00484037 0.00434874 0.01987229 0.00250428 0.00367705 0.00507042 0.00417127 0.00079035 0.00490544 0.00113760 
0.05088093 0.00658130 0.00508103 0.00393528 0.00162630 0.00245267 0.00479967 0.00430101 0.01991261 0.00252566 0.00375194 0.00517201 0.00426223 0.00077914 0.00486373 0.00112707 
0.05095809 0.00657681 0.00473316 0.00389998 0.00163761 0.00244612 0.00476321 0.00425201 0.01993678 0.00254479 0.00382431 0.00526521 0.00435313 0.00076981 0.00481663 0.00111638 
0.05112133 0.00657563 0.00441240 0.00386039 0.00164653 0.00243979 0.00473167 0.00420221 0.01994528 0.00256167 0.00389403 0.00534958 0.00444377 0.00076234 0.00476438 0.00110557 
0.05137299 0.00657884 0.00411961 0.00381668 0.00165306 0.00243377 0.00470570 0.00415209 0.01993872 0.00257633 0.00396100 0.00542474 0.00453397 0.00075669 0.00470721 0.00109468 
0.05171492 0.00658754 0.00385550 0.00376906 0.00165725 0.00242814 0.00468593 0.00410214 0.01991784 0.00258880 0.00402511 0.00549038 0.00462353 0.00075282 0.00464540 0.00108375 
0.05214843 0.00660286 0.00362059 0.00371773 0.00165912 0.00242301 0.00467298 0.00405286 0.01988357 0.00259914 0.00408630 0.00554622 0.00471227 0.00075070 0.00457923 0.00107282 
0.05267428 0.00662590 0.00341525 0.00366294 0.00165875 0.00241847 0.00466744 0.00400474 0.01983692 0.00260741 0.00414449 0.00559207 0.00480000 0.00075026 0.00450902 0.00106195 
0.05329267 0.00665776 0.00323966 0.00360495 0.00165619 0.00241460 0.00466986 0.00395829 0.01977909 0.00261372 0.00419964 0.00562780 0.00488653 0.00075145 0.00443510 0.00105117 
0.05400322 0.00669951 0.00309385 0.00354402 0.00165153 0.00241150 0.00468079 0.00391399 0.01971136 0.00261815 0.00425173 0.00565334 0.00497168 0.00075422 0.00435781 0.00104054 
0.05480501 0.00675222 0.00297766 0.00348045 0.00164485 0.00240924 0.00470072 0.00387236 0.01963517 0.00262082 0.00430074 0.00566869 0.00505527 0.00075849 0.00427749 0.00103011 
0.05569652 0.00681689 0.00289076 0.00341454 0.00163627 0.00240792 0.00473009 0.00383387 0.01955206 0.00262185 0.00434667 0.00567395 0.00513712 0.00076419 0.00419453 0.00101994 
0.05667567 0.00689451 0.00283268 0.00334660 0.00162588 0.00240760 0.00476932 0.00379899 0.01946366 0.00262138 0.00438955 0.00566925 0.00521705 0.00077126 0.00410928 0.00101008 
0.05773984 0.00698599 0.00280277 0.00327694 0.00161380 0.00240835 0.00481878 0.00376818 0.01937173 0.00261956 0.00442941 0.00565482 0.00529491 0.00077963 0.00402214 0.00100059 
0.05888583 0.00709220 0.00280023 0.00320588 0.00160017 0.00241025 0.00487878 0.00374188 0.01927809 0.00261653 0.00446629 0.00563097 0.00537053 0.00078921 0.00393350 0.00099152 
0.06010993 0.00721392 0.00282412 0.00313377 0.00158510 0.00241334 0.00494959 0.00372052 0.01918465 0.00261247 0.00450027 0.00559808 0.00544375 0.00079994 0.00384373 0.00098293 
0.06140790 0.00735187 0.00287333 0.00306093 0.00156875 0.00241767 0.00503141 0.00370449 0.01909338 0.00260754 0.00453142 0.00555659 0.00551443 0.00081174 0.00375324 0.00097488 
0.06277501 0.00750669 0.00294665 0.00298768 0.00155124 0.00242329 0.00512439 0.00369417 0.01900631 0.00260192 0.00455983 0.00550704 0.00558244 0.00082454 0.00366242 0.00096741 
0.06420606 0.00767892 0.00304274 0.00291436 0.00153272 0.00243024 0.00522864 0.00368988 0.01892551 0.00259578 0.00458560 0.00545003 0.00564763 0.00083826 0.00357164 0.00096059 
0.06569540 0.00786901 0.00316012 0.00284128 0.00151335 0.00243853 0.00534418 0.00369196 0.01885306 0.00258930 0.00460884 0.00538621 0.00570989 0.00085285 0.00348131 0.00095446 
0.06723698 0.00807730 0.00329723 0.00276878 0.00149326 0.00244819 0.00547099 0.00370067 0.01879108 0.00258266 0.00462967 0.00531634 0.00576910 0.00086822 0.00339179 0.00094908 
0.06882438 0.00830403 0.00345242 0.00269715 0.00147261 0.00245923 0.00560898 0.00371627 0.01874166 0.00257605 0.00464820 0.00524121 0.00582517 0.00088432 0.00330345 0.00094450 
0.07045082 0.00854933 0.00362394 0.00262670 0.00145154 0.00247163 0.00575800 0.00373894 0.01870692 0.00256965 0.00466458 0.00516169 0.00587800 0.00090108 0.00321665 0.00094076 
0.07210925 0.00881320 0.00380997 0.00255771 0.00143021 0.00248541 0.00591784 0.00376888 0.01868892 0.00256363 0.00467894 0.00507870 0.00592751 0.00091844 0.00313174 0.00093791 
0.07379235 0.00909554 0.00400864 0.00249046 0.00140876 0.00250053 0.00608822 0.00380619 0.01868968 0.00255816 0.00469142 0.00499321 0.00597363 0.00093636 0.00304906 0.00093598 
0.07549258 0.00939612 0.00421804 0.00242522 0.00138732 0.00251697 0.00626881 0.00385096 0.01871118 0.00255342 0.00470216 0.00490625 0.00601630 0.00095478 0.00296892 0.00093502 
0.07720226 0.00971459 0.00443622 0.00236222 0.00136604 0.00253468 0.00645920 0.00390325 0.01875534 0.00254957 0.00471129 0.00481890 0.00605548 0.00097366 0.00289163 0.00093505 
0.07891358 0.01005045 0.00466121 0.00230170 0.00134504 0.00255363 0.00665896 0.00396304 0.01882396 0.00254675 0.00471897 0.00473224 0.00609113 0.00099296 0.00281748 0.00093610 
0.08061865 0.01040312 0.00489104 0.00224387 0.00132447 0.00257376 0.00686756 0.00403030 0.01891879 0.00254512 0.00472532 0.00464743 0.00612322 0.00101264 0.00274673 0.00093821 
0.08230959 0.01077186 0.00512374 0.00218892 0.00130443 0.00259500 0.00708444 0.00410493 0.01904145 0.00254481 0.00473048 0.00456562 0.00615174 0.00103266 0.00267965 0.00094138 
0.08397853 0.01115583 0.00535736 0.00213703 0.00128504 0.00261729 0.00730898 0.00418680 0.01919345 0.00254595 0.00473458 0.00448800 0.00617669 0.00105300 0.00261644 0.00094563 
0.08561770 0.01155405 0.00559000 0.00208836 0.00126641 0.00264053 0.00754052 0.00427573 0.01937616 0.00254865 0.00473774 0.00441577 0.00619809 0.00107365 0.00255734 0.00095098 
0.08721944 0.01196545 0.00581979 0.00204304 0.00124863 0.00266466 0.00777835 0.00437151 0.01959083 0.00255302 0.00474007 0.00435013 0.00621595 0.00109457 0.00250252 0.00095742 
0.08877630 0.01238883 0.00604494 0.00200120 0.00123181 0.00268956 0.00802170 0.00447387 0.01983854 0.00255914 0.00474168 0.00429227 0.00623031 0.00111576 0.00245215 0.00096496 
0.09028105 0.01282288 0.00626369 0.00196291 0.00121601 0.00271514 0.00826979 0.00458250 0.02012022 0.00256709 0.00474265 0.00424340 0.00624122 0.00113721 0.00240636 0.00097359 
0.09172673 0.01326620 0.00647441 0.00192828 0.00120131 0.00274130 0.00852179 0.00469708 0.02043663 0.00257693 0.00474309 0.00420469 0.00624873 0.00115890 0.00236529 0.00098329 
0.09310672 0.01371730 0.00667555 0.00189734 0.00118778 0.00276793 0.00877685 0.00481720 0.02078837 0.00258873 0.00474305 0.00417729 0.00625290 0.00118085 0.00232903 0.00099405 
0.09441476 0.01417458 0.00686564 0.00187015 0.00117546 0.00279490 0.00903407 0.00494246 0.02117584 0.00260249 0.00474260 0.00416233 0.00625383 0.00120304 0.00229764 0.00100585 
0.09564501 0.01463638 0.00704337 0.00184672 0.00116441 0.00282211 0.00929256 0.00507240 0.02159927 0.00261826 0.00474178 0.00416089 0.00625159 0.00122548 0.00227118 0.00101865 
0.09679207 0.01510097 0.00720751 0.00182706 0.00115465 0.00284943 0.00955140 0.00520655 0.02205870 0.00263603 0.00474063 0.00417402 0.00624629 0.00124818 0.00224968 0.00103243 
0.09785102 0.01556655 0.00735700 0.00181115 0.00114620 0.00287673 0.00980966 0.00534437 0.02255396 0.00265580 0.00473917 0.00420270 0.00623802 0.00127114 0.00223312 0.00104714 
0.09881747 0.01603127 0.00749089 0.00179896 0.00113909 0.00290390 0.01006640 0.00548534 0.02308472 0.00267753 0.00473740 0.00424786 0.00622691 0.00129438 0.00222150 0.00106274 
0.09968757 0.01649324 0.00760840 0.00179045 0.00113331 0.00293080 0.01032069 0.00562889 0.02365043 0.00270119 0.00473532 0.00431038 0.00621309 0.00131791 0.00221476 0.00107918 
0.10045805 0.01695055 0.00770889 0.00178557 0.00112885 0.00295732 0.01057159 0.00577443 0.02425035 0.00272673 0.00473290 0.00439104 0.00619667 0.00134173 0.00221285 0.00109641 
0.10112623 0.01740126 0.00779187 0.00178422 0.00112571 0.00298332 0.01081820 0.00592136 0.02488357 0.00275408 0.00473011 0.00449056 0.00617781 0.00136587 0.00221567 0.00111436 
0.10169003 0.01784342 0.00785704 0.00178634 0.00112386 0.00300869 0.01105959 0.00606907 0.02554896 0.00278316 0.00472690 0.00460958 0.00615664 0.00139034 0.00222311 0.00113298 
0.10214801 0.01827510 0.00790423 0.00179183 0.00112326 0.00303331 0.01129490 0.00621692 0.02624522 0.00281387 0.00472321 0.00474864 0.00613331 0.00141514 0.00223504 0.00115219 
0.10249935 0.01869437 0.00793345 0.00180057 0.00112388 0.00305706 0.01152326 0.00636428 0.02697089 0.00284611 0.00471898 0.00490820 0.00610799 0.00144030 0.00225132 0.00117194 
0.10274389 0.01909934 0.00794488 0.00181247 0.00112565 0.00307982 0.01174384 0.00651052 0.02772429 0.00287976 0.00471411 0.00508862 0.00608083 0.00146582 0.00227177 0.00119213 
0.10288208 0.01948814 0.00793886 0.00182738 0.00112853 0.00310150 0.01195585 0.00665498 0.02850363 0.00291469 0.00470851 0.00529014 0.00605199 0.00149171 0.00229622 0.00121271 
0.10291502 0.01985898 0.00791589 0.00184519 0.00113245 0.00312199 0.01215854 0.00679704 0.02930691 0.00295076 0.00470208 0.00551294 0.00602164 0.00151798 0.00232445 0.00123358 
0.10284442 0.02021012 0.00787663 0.00186576 0.00113734 0.00314118 0.01235120 0.00693606 0.03013202 0.00298782 0.00469472 0.00575705 0.00598995 0.00154464 0.00235626 0.00125468 
0.10267262 0.02053988 0.00782190 0.00188895 0.00114312 0.00315899 0.01253317 0.00707143 0.03097668 0.00302571 0.00468630 0.00602241 0.00595708 0.00157170 0.00239141 0.00127591 
0.10240253 0.02084669 0.00775267 0.00191462 0.00114970 0.00317534 0.01270385 0.00720254 0.03183851 0.00306426 0.00467670 0.00630886 0.00592320 0.00159914 0.00242965 0.00129720 
0.10203764 0.02112906 0.00767006 0.00194262 0.00115701 0.00319015 0.01286268 0.00732879 0.03271499 0.00310330 0.00466581 0.00661612 0.00588848 0.00162698 0.00247074 0.00131847 
0.10158198 0.02138561 0.00757531 0.00197282 0.00116494 0.00320334 0.01300917 0.00744964 0.03360350 0.00314265 0.00465348 0.00694380 0.00585308 0.00165520 0.00251440 0.00133962 
0.10104010 0.02161508 0.00746983 0.00200506 0.00117340 0.00321486 0.01314289 0.00756451 0.03450133 0.00318212 0.00463960 0.00729141 0.00581717 0.00168380 0.00256037 0.00136058 
0.10041702 0.02181632 0.00735510 0.00203920 0.00118230 0.00322465 0.01326348 0.00767291 0.03540569 0.00322153 0.00462403 0.00765834 0.00578090 0.00171277 0.00260835 0.00138126 
0.09971820 0.02198833 0.00723276 0.00207509 0.00119154 0.00323267 0.01337064 0.00777433 0.03631373 0.00326068 0.00460664 0.00804389 0.00574443 0.00174209 0.00265806 0.00140159 
0.09894951 0.02213024 0.00710452 0.00211260 0.00120100 0.00323887 0.01346414 0.00786833 0.03722253 0.00329938 0.00458733 0.00844724 0.00570790 0.00177175 0.00270921 0.00142149 
0.09811718 0.02224131 0.00697218 0.00215157 0.00121059 0.00324323 0.01354382 0.00795448 0.03812914 0.00333743 0.00456596 0.00886749 0.00567145 0.00180172 0.00276150 0.00144087 
0.09722773 0.02232098 0.00683765 0.00219188 0.00122021 0.00324572 0.01360959 0.00803238 0.03903059 0.00337464 0.00454244 0.00930363 0.00563523 0.00183197 0.00281463 0.00145967 
0.09628796 0.02236884 0.00670288 0.00223338 0.00122975 0.00324634 0.01366142 0.00810170 0.03992389 0.00341080 0.00451665 0.00975456 0.00559935 0.00186248 0.00286831 0.00147781 
0.09530490 0.02238461 0.00656986 0.00227596 0.00123911 0.00324507 0.01369938 0.00816212 0.04080606 0.00344574 0.00448851 0.01021911 0.00556394 0.00189322 0.00292222 0.00149523 
0.09428571 0.02236820 0.00644067 0.00231946 0.00124819 0.00324193 0.01372359 0.00821338 0.04167415 0.00347925 0.00445794 0.01069602 0.00552909 0.00192415 0.00297609 0.00151186 
0.09323768 0.02231968 0.00631736 0.00236379 0.00125690 0.00323691 0.01373424 0.00825524 0.04252522 0.00351116 0.00442487 0.01118395 0.00549492 0.00195522 0.00302961 0.00152764 
0.09216817 0.02223927 0.00620203 0.00240880 0.00126513 0.00323004 0.01373159 0.00828754 0.04335638 0.00354127 0.00438925 0.01168151 0.00546149 0.00198641 0.00308251 0.00154252 
0.09108451 0.02212738 0.00609676 0.00245440 0.00127279 0.00322135 0.01371598 0.00831013 0.04416481 0.00356942 0.00435103 0.01218724 0.00542890 0.00201766 0.00313449 0.00155644 
0.08999402 0.02198455 0.00600361 0.00250046 0.00127980 0.00321086 0.01368778 0.00832292 0.04494776 0.00359544 0.00431020 0.01269964 0.00539720 0.00204894 0.00318529 0.00156936 
0.08890389 0.02181149 0.00592464 0.00254688 0.00128608 0.00319861 0.01364748 0.00832586 0.04570256 0.00361915 0.00426674 0.01321714 0.00536643 0.00208018 0.00323464 0.00158124 
0.08782120 0.02160908 0.00586183 0.00259356 0.00129154 0.00318465 0.01359557 0.00831895 0.04642663 0.00364042 0.00422066 0.01373817 0.00533664 0.00211135 0.00328230 0.00159205 
0.08675278 0.02137833 0.00581712 0.00264038 0.00129611 0.00316903 0.01353263 0.00830224 0.04711752 0.00365909 0.00417200 0.01426112 0.00530785 0.00214238 0.00332801 0.00160174 
0.08570524 0.02112041 0.00579236 0.00268727 0.00129972 0.00315180 0.01345928 0.00827579 0.04777289 0.00367502 0.00412080 0.01478436 0.00528007 0.00217323 0.00337155 0.00161031 
0.08468491 0.02083663 0.00578934 0.00273411 0.00130230 0.00313303 0.01337621 0.00823975 0.04839050 0.00368810 0.00406712 0.01530624 0.00525329 0.00220385 0.00341270 0.00161772 
0.08369774 0.02052840 0.00580973 0.00278083 0.00130381 0.00311278 0.01328412 0.00819427 0.04896830 0.00369820 0.00401104 0.01582515 0.00522749 0.00223418 0.00345126 0.00162397 
0.08274934 0.02019730 0.00585509 0.00282733 0.00130419 0.00309111 0.01318377 0.00813957 0.04950435 0.00370523 0.00395268 0.01633944 0.00520265 0.00226417 0.00348704 0.00162904 
0.08184489 0.01984499 0.00592688 0.00287352 0.00130339 0.00306810 0.01307597 0.00807589 0.04999688 0.00370908 0.00389214 0.01684753 0.00517870 0.00229377 0.00351988 0.00163294 
0.08098912 0.01947324 0.00602640 0.00291932 0.00130138 0.00304383 0.01296153 0.00800352 0.05044427 0.00370969 0.00382957 0.01734782 0.00515561 0.00232293 0.00354961 0.00163567 
0.08018629 0.01908391 0.00615481 0.00296465 0.00129813 0.00301837 0.01284129 0.00792277 0.05084507 0.00370698 0.00376512 0.01783880 0.00513328 0.00235161 0.00357611 0.00163724 
0.07944013 0.01867897 0.00631312 0.00300941 0.00129361 0.00299180 0.01271614 0.00783399 0.05119803 0.00370091 0.00369896 0.01831895 0.00511163 0.00237974 0.00359924 0.00163766 
0.07875385 0.01826041 0.00650217 0.00305355 0.00128780 0.00296420 0.01258694 0.00773756 0.05150203 0.00369142 0.00363129 0.01878685 0.00509058 0.00240730 0.00361892 0.00163695 
0.07813014 0.01783033 0.00672265 0.00309696 0.00128070 0.00293566 0.01245460 0.00763388 0.05175616 0.00367849 0.00356230 0.01924112 0.00507000 0.00243424 0.00363505 0.00163514 
0.07757108 0.01739083 0.00697505 0.00313957 0.00127230 0.00290625 0.01232000 0.00752339 0.05195970 0.00366211 0.00349222 0.01968046 0.00504977 0.00246052 0.00364758 0.00163225 
0.07707821 0.01694408 0.00725968 0.00318130 0.00126260 0.00287607 0.01218404 0.00740655 0.05211209 0.00364227 0.00342126 0.02010365 0.00502977 0.00248612 0.00365647 0.00162832 
0.07665249 0.01649223 0.00757668 0.00322207 0.00125161 0.00284518 0.01204759 0.00728381 0.05221297 0.00361899 0.00334969 0.02050954 0.00500985 0.00251099 0.00366168 0.00162339 
0.07629427 0.01603749 0.00792597 0.00326180 0.00123935 0.00281368 0.01191153 0.00715568 0.05226215 0.00359229 0.00327773 0.02089708 0.00498988 0.00253512 0.00366322 0.00161750 
0.07600337 0.01558200 0.00830730 0.00330040 0.00122584 0.00278165 0.01177671 0.00702266 0.05225965 0.00356221 0.00320566 0.02126533 0.00496968 0.00255848 0.00366110 0.00161069 
0.07577900 0.01512794 0.00872022 0.00333780 0.00121111 0.00274916 0.01164395 0.00688526 0.05220565 0.00352881 0.00313374 0.02161344 0.00494910 0.00258107 0.00365534 0.00160302 
0.07561983 0.01467741 0.00916408 0.00337392 0.00119519 0.00271630 0.01151404 0.00674400 0.05210050 0.00349215 0.00306223 0.02194065 0.00492799 0.00260286 0.00364601 0.00159453 
0.07552400 0.01423250 0.00963804 0.00340867 0.00117811 0.00268314 0.01138775 0.00659942 0.05194477 0.00345231 0.00299142 0.02224635 0.00490616 0.00262386 0.00363318 0.00158529 
0.07548910 0.01379522 0.01014106 0.00344198 0.00115993 0.00264976 0.01126580 0.00645204 0.05173914 0.00340938 0.00292158 0.02253000 0.00488345 0.00264406 0.00361693 0.00157534 
0.07551224 0.01336752 0.01067194 0.00347375 0.00114070 0.00261624 0.01114887 0.00630240 0.05148451 0.00336345 0.00285297 0.02279121 0.00485969 0.00266347 0.00359738 0.00156476 
0.07559006 0.01295128 0.01122925 0.00350391 0.00112046 0.00258263 0.01103757 0.00615102 0.05118191 0.00331465 0.00278588 0.02302968 0.00483471 0.00268210 0.00357464 0.00155359 
0.07571875 0.01254826 0.01181144 0.00353239 0.00109927 0.00254901 0.01093249 0.00599843 0.05083253 0.00326310 0.00272056 0.02324524 0.00480834 0.00269997 0.00354886 0.00154191 
0.07589409 0.01216016 0.01241675 0.00355909 0.00107721 0.00251545 0.01083416 0.00584514 0.05043773 0.00320893 0.00265729 0.02343784 0.00478043 0.00271708 0.00352018 0.00152978 
0.07611150 0.01178853 0.01304327 0.00358395 0.00105433 0.00248201 0.01074302 0.00569166 0.04999899 0.00315229 0.00259630 0.02360755 0.00475082 0.00273348 0.00348879 0.00151725 
0.07636604 0.01143483 0.01368893 0.00360687 0.00103070 0.00244875 0.01065948 0.00553848 0.04951793 0.00309334 0.00253784 0.02375453 0.00471935 0.00274918 0.00345487 0.00150440 
0.07665250 0.01110038 0.01435154 0.00362781 0.00100639 0.00241573 0.01058388 0.00538608 0.04899629 0.00303222 0.00248215 0.02387907 0.00468590 0.00276423 0.00341861 0.00149128 
0.07696540 0.01078638 0.01502877 0.00364666 0.00098148 0.00238300 0.01051649 0.00523493 0.04843595 0.00296913 0.00242942 0.02398158 0.00465033 0.00277865 0.00338023 0.00147797 
0.07729908 0.01049388 0.01571815 0.00366339 0.00095606 0.00235061 0.01045750 0.00508546 0.04783888 0.00290422 0.00237988 0.02406255 0.00461252 0.00279249 0.00333994 0.00146452 
0.07764769 0.01022378 0.01641712 0.00367790 0.00093018 0.00231861 0.01040706 0.00493811 0.04720715 0.00283770 0.00233370 0.02412257 0.00457237 0.00280580 0.00329797 0.00145100 
0.07800526 0.00997686 0.01712303 0.00369016 0.00090395 0.00228705 0.01036523 0.00479329 0.04654295 0.00276974 0.00229104 0.02416236 0.00452979 0.00281861 0.00325456 0.00143746 
0.07836576 0.00975372 0.01783315 0.00370009 0.00087743 0.00225597 0.01033200 0.00465137 0.04584851 0.00270054 0.00225205 0.02418268 0.00448470 0.00283098 0.00320996 0.00142397 
0.07872313 0.00955484 0.01854468 0.00370765 0.00085071 0.00222541 0.01030731 0.00451272 0.04512616 0.00263030 0.00221686 0.02418439 0.00443705 0.00284295 0.00316442 0.00141058 
0.07907133 0.00938053 0.01925477 0.00371280 0.00082387 0.00219541 0.01029101 0.00437767 0.04437831 0.00255922 0.00218557 0.02416845 0.00438681 0.00285458 0.00311819 0.00139734 
0.07940438 0.00923094 0.01996054 0.00371550 0.00079700 0.00216600 0.01028289 0.00424653 0.04360739 0.00248750 0.00215826 0.02413584 0.00433393 0.00286590 0.00307154 0.00138431 
0.07971639 0.00910610 0.02065909 0.00371571 0.00077018 0.00213721 0.01028268 0.00411960 0.04281589 0.00241535 0.00213498 0.02408762 0.00427844 0.00287697 0.00302472 0.00137153 
0.08000166 0.00900586 0.02134751 0.00371342 0.00074349 0.00210907 0.01029005 0.00399712 0.04200635 0.00234297 0.00211578 0.02402491 0.00422034 0.00288784 0.00297799 0.00135906 
0.08025464 0.00892995 0.02202291 0.00370861 0.00071701 0.00208161 0.01030460 0.00387934 0.04118132 0.00227057 0.00210066 0.02394886 0.00415967 0.00289854 0.00293162 0.00134693 
0.08047003 0.00887796 0.02268244 0.00370127 0.00069083 0.00205485 0.01032588 0.00376646 0.04034337 0.00219834 0.00208960 0.02386064 0.00409650 0.00290912 0.00288587 0.00133518 
0.08064279 0.00884934 0.02332328 0.00369141 0.00066503 0.00202881 0.01035337 0.00365867 0.03949508 0.00212650 0.00208257 0.02376146 0.00403091 0.00291961 0.00284099 0.00132385 
0.08076819 0.00884342 0.02394267 0.00367903 0.00063968 0.00200352 0.01038653 0.00355612 0.03863904 0.00205524 0.00207950 0.02365253 0.00396299 0.00293004 0.00279722 0.00131298 
0.08084180 0.00885939 0.02453793 0.00366415 0.00061486 0.00197898 0.01042475 0.00345894 0.03777780 0.00198475 0.00208030 0.02353507 0.00389287 0.00294045 0.00275482 0.00130259 
0.08085959 0.00889637 0.02510648 0.00364681 0.00059064 0.00195521 0.01046737 0.00336723 0.03691392 0.00191523 0.00208485 0.02341029 0.00382070 0.00295084 0.00271402 0.00129272 
0.08081790 0.00895333 0.02564583 0.00362704 0.00056710 0.00193223 0.01051372 0.00328109 0.03604993 0.00184685 0.00209303 0.02327938 0.00374664 0.00296124 0.00267505 0.00128337 
0.08071348 0.00902919 0.02615361 0.00360490 0.00054431 0.00191004 0.01056308 0.00320055 0.03518831 0.00177980 0.00210468 0.02314351 0.00367087 0.00297164 0.00263812 0.00127457 
0.08054351 0.00912276 0.02662759 0.00358044 0.00052233 0.00188865 0.01061471 0.00312566 0.03433150 0.00171425 0.00211961 0.02300383 0.00359359 0.00298205 0.00260345 0.00126634 
0.08030561 0.00923278 0.02706569 0.00355373 0.00050124 0.00186807 0.01066783 0.00305642 0.03348189 0.00165036 0.00213763 0.02286141 0.00351503 0.00299246 0.00257122 0.00125869 
0.07999787 0.00935795 0.02746597 0.00352485 0.00048109 0.00184829 0.01072167 0.00299283 0.03264182 0.00158829 0.00215852 0.02271732 0.00343542 0.00300284 0.00254162 0.00125163 
0.07961885 0.00949689 0.02782667 0.00349389 0.00046194 0.00182932 0.01077542 0.00293484 0.03181354 0.00152819 0.00218204 0.02257253 0.00335501 0.00301317 0.00251481 0.00124516 
0.07916756 0.00964820 0.02814620 0.00346094 0.00044386 0.00181117 0.01082829 0.00288242 0.03099924 0.00147019 0.00220794 0.02242797 0.00327407 0.00302340 0.00249094 0.00123928 
0.07864353 0.00981046 0.02842315 0.00342611 0.00042688 0.00179381 0.01087947 0.00283547 0.03020102 0.00141443 0.00223595 0.02228449 0.00319288 0.00303350 0.00247015 0.00123399 
0.07804673 0.00998221 0.02865633 0.00338952 0.00041107 0.00177726 0.01092816 0.00279393 0.02942091 0.00136101 0.00226580 0.02214285 0.00311172 0.00304340 0.00245256 0.00122930 
0.07737762 0.01016200 0.02884472 0.00335128 0.00039647 0.00176149 0.01097357 0.00275767 0.02866083 0.00131006 0.00229720 0.02200376 0.00303089 0.00305304 0.00243826 0.00122518 
0.07663712 0.01034840 0.02898752 0.00331152 0.00038313 0.00174651 0.01101493 0.00272659 0.02792258 0.00126167 0.00232984 0.02186782 0.00295070 0.00306233 0.00242734 0.00122164 
0.07582662 0.01053998 0.02908413 0.00327038 0.00037108 0.00173230 0.01105149 0.00270054 0.02720790 0.00121592 0.00236343 0.02173554 0.00287145 0.00307120 0.00241986 0.00121865 
0.07494794 0.01073536 0.02913418 0.00322799 0.00036035 0.00171885 0.01108251 0.00267936 0.02651837 0.00117289 0.00239764 0.02160735 0.00279346 0.00307954 0.00241586 0.00121620 
0.07400332 0.01093318 0.02913749 0.00318451 0.00035100 0.00170613 0.01110731 0.00266292 0.02585548 0.00113264 0.00243217 0.02148358 0.00271703 0.00308725 0.00241537 0.00121429 
0.07299544 0.01113214 0.02909412 0.00314009 0.00034303 0.00169414 0.01112521 0.00265101 0.02522060 0.00109522 0.00246670 0.02136445 0.00264248 0.00309423 0.00241840 0.00121288 
0.07192733 0.01133101 0.02900434 0.00309487 0.00033649 0.00168285 0.01113559 0.00264348 0.02461497 0.00106068 0.00250091 0.02125010 0.00257011 0.00310034 0.00242493 0.00121195 
0.07080242 0.01152862 0.02886862 0.00304901 0.00033138 0.00167223 0.01113788 0.00264012 0.02403968 0.00102904 0.00253450 0.02114057 0.00250022 0.00310547 0.00243491 0.00121149 
0.06962446 0.01172389 0.02868764 0.00300268 0.00032773 0.00166227 0.01113153 0.00264073 0.02349571 0.00100032 0.00256716 0.02103581 0.00243311 0.00310948 0.00244831 0.00121146 
0.06839751 0.01191582 0.02846230 0.00295603 0.00032555 0.00165294 0.01111607 0.00264510 0.02298390 0.00097452 0.00259859 0.02093568 0.00236906 0.00311223 0.00246505 0.00121185 
0.06712594 0.01210350 0.02819370 0.00290921 0.00032486 0.00164420 0.01109106 0.00265303 0.02250494 0.00095163 0.00262850 0.02083993 0.00230833 0.00311358 0.00248503 0.00121263 
0.06581435 0.01228613 0.02788312 0.00286239 0.00032565 0.00163603 0.01105612 0.00266430 0.02205940 0.00093165 0.00265661 0.02074825 0.00225119 0.00311339 0.00250814 0.00121376 
0.06446757 0.01246301 0.02753204 0.00281572 0.00032794 0.00162839 0.01101095 0.00267867 0.02164769 0.00091454 0.00268265 0.02066023 0.00219786 0.00311151 0.00253426 0.00121523 
0.06309062 0.01263355 0.02714210 0.00276935 0.00033172 0.00162124 0.01095528 0.00269593 0.02127007 0.00090026 0.00270638 0.02057540 0.00214857 0.00310781 0.00256324 0.00121700 
0.06168871 0.01279727 0.02671513 0.00272343 0.00033698 0.00161456 0.01088892 0.00271585 0.02092669 0.00088876 0.00272755 0.02049321 0.00210352 0.00310213 0.00259492 0.00121904 
0.06026712 0.01295382 0.02625310 0.00267811 0.00034372 0.00160829 0.01081174 0.00273820 0.02061752 0.00087999 0.00274594 0.02041305 0.00206288 0.00309433 0.00262911 0.00122133 
0.05883128 0.01310294 0.02575814 0.00263353 0.00035192 0.00160240 0.01072366 0.00276274 0.02034241 0.00087387 0.00276136 0.02033426 0.00202680 0.00308429 0.00266564 0.00122384 
0.05738664 0.01324451 0.02523250 0.00258981 0.00036157 0.00159684 0.01062467 0.00278925 0.02010105 0.00087033 0.00277362 0.02025612 0.00199543 0.00307186 0.00270429 0.00122654 
0.05593871 0.01337853 0.02467856 0.00254709 0.00037265 0.00159157 0.01051483 0.00281749 0.01989300 0.00086928 0.00278256 0.02017787 0.00196884 0.00305694 0.00274485 0.00122939 
0.05449296 0.01350510 0.02409881 0.00250549 0.00038512 0.00158654 0.01039425 0.00284723 0.01971769 0.00087062 0.00278804 0.02009874 0.00194713 0.00303941 0.00278708 0.00123239 
0.05305487 0.01362444 0.02349582 0.00246511 0.00039898 0.00158170 0.01026312 0.00287824 0.01957439 0.00087426 0.00278994 0.02001792 0.00193034 0.00301917 0.00283075 0.00123549 
0.05162980 0.01373689 0.02287226 0.00242606 0.00041417 0.00157701 0.01012168 0.00291031 0.01946227 0.00088009 0.00278817 0.01993458 0.00191849 0.00299613 0.00287561 0.00123868 
0.05022306 0.01384287 0.02223085 0.00238844 0.00043067 0.00157241 0.00997020 0.00294319 0.01938035 0.00088799 0.00278265 0.01984789 0.00191156 0.00297022 0.00292142 0.00124193 
0.04883982 0.01394293 0.02157436 0.00235232 0.00044844 0.00156784 0.00980905 0.00297668 0.01932752 0.00089784 0.00277334 0.01975703 0.00190952 0.00294138 0.00296791 0.00124521 
0.04748507 0.01403769 0.02090558 0.00231779 0.00046743 0.00156327 0.00963864 0.00301055 0.01930259 0.00090952 0.00276021 0.01966120 0.00191230 0.00290958 0.00301481 0.00124851 
0.04616367 0.01412788 0.02022736 0.00228491 0.00048759 0.00155864 0.00945940 0.00304459 0.01930420 0.00092291 0.00274327 0.01955960 0.00191979 0.00287480 0.00306187 0.00125180 
0.04488024 0.01421428 0.01954251 0.00225374 0.00050888 0.00155388 0.00927185 0.00307860 0.01933094 0.00093786 0.00272252 0.01945148 0.00193187 0.00283704 0.00310882 0.00125506 
0.04363921 0.01429779 0.01885384 0.00222432 0.00053124 0.00154896 0.00907652 0.00311236 0.01938127 0.00095424 0.00269801 0.01933613 0.00194839 0.00279633 0.00315540 0.00125828 
0.04244472 0.01437931 0.01816415 0.00219669 0.00055461 0.00154381 0.00887401 0.00314568 0.01945357 0.00097192 0.00266982 0.01921288 0.00196915 0.00275271 0.00320134 0.00126144 
0.04130070 0.01445986 0.01747618 0.00217088 0.00057893 0.00153839 0.00866492 0.00317837 0.01954611 0.00099075 0.00263802 0.01908112 0.00199396 0.00270626 0.00324639 0.00126453 
0.04021077 0.01454045 0.01679262 0.00214691 0.00060414 0.00153265 0.00844993 0.00321023 0.01965712 0.00101061 0.00260273 0.01894032 0.00202257 0.00265708 0.00329031 0.00126753 
0.03917825 0.01462215 0.01611607 0.00212479 0.00063017 0.00152653 0.00822970 0.00324110 0.01978475 0.00103134 0.00256407 0.01879000 0.00205473 0.00260530 0.00333284 0.00127043 
0.03820619 0.01470606 0.01544909 0.00210451 0.00065694 0.00151998 0.00800493 0.00327079 0.01992708 0.00105281 0.00252219 0.01862977 0.00209015 0.00255106 0.00337375 0.00127322 
0.03729729 0.01479328 0.01479409 0.00208607 0.00068439 0.00151297 0.00777636 0.00329915 0.02008215 0.00107488 0.00247726 0.01845932 0.00212855 0.00249455 0.00341282 0.00127589 
0.03645394 0.01488492 0.01415342 0.00206946 0.00071244 0.00150545 0.00754473 0.00332600 0.02024796 0.00109742 0.00242944 0.01827845 0.00216959 0.00243598 0.00344985 0.00127844 
0.03567821 0.01498206 0.01352926 0.00205464 0.00074101 0.00149737 0.00731077 0.00335120 0.02042248 0.00112029 0.00237894 0.01808704 0.00221296 0.00237558 0.00348463 0.00128086 
0.03497183 0.01508579 0.01292371 0.00204159 0.00077001 0.00148870 0.00707526 0.00337461 0.02060367 0.00114336 0.00232597 0.01788506 0.00225829 0.00231363 0.00351698 0.00128314 
0.03433618 0.01519717 0.01233870 0.00203028 0.00079936 0.00147940 0.00683893 0.00339609 0.02078947 0.00116650 0.00227073 0.01767260 0.00230523 0.00225042 0.00354675 0.00128528 
0.03377234 0.01531719 0.01177600 0.00202066 0.00082898 0.00146944 0.00660256 0.00341552 0.02097783 0.00118959 0.00221347 0.01744985 0.00235342 0.00218627 0.00357377 0.00128728 
0.03328104 0.01544682 0.01123726 0.00201268 0.00085877 0.00145880 0.00636687 0.00343278 0.02116671 0.00121252 0.00215442 0.01721710 0.00240248 0.00212153 0.00359793 0.00128914 
0.03286267 0.01558695 0.01072392 0.00200630 0.00088866 0.00144744 0.00613262 0.00344776 0.02135410 0.00123517 0.00209383 0.01697477 0.00245204 0.00205657 0.00361912 0.00129086 
0.03251733 0.01573841 0.01023730 0.00200145 0.00091854 0.00143535 0.00590051 0.00346037 0.02153800 0.00125742 0.00203194 0.01672337 0.00250173 0.00199180 0.00363725 0.00129245 
0.03224478 0.01590196 0.00977851 0.00199809 0.00094832 0.00142251 0.00567126 0.00347052 0.02171650 0.00127919 0.00196901 0.01646351 0.00255116 0.00192764 0.00365224 0.00129390 
0.03204449 0.01607826 0.00934849 0.00199615 0.00097791 0.00140892 0.00544553 0.00347814 0.02188769 0.00130037 0.00190530 0.01619593 0.00259997 0.00186454 0.00366407 0.00129521 
0.03191564 0.01626787 0.00894801 0.00199557 0.00100722 0.00139457 0.00522398 0.00348315 0.02204978 0.00132087 0.00184106 0.01592145 0.00264781 0.00180296 0.00367271 0.00129640 
0.03185713 0.01647127 0.00857765 0.00199628 0.00103616 0.00137946 0.00500723 0.00348550 0.02220103 0.00134061 0.00177654 0.01564101 0.00269432 0.00174338 0.00367815 0.00129747 
0.03186758 0.01668881 0.00823782 0.00199824 0.00106462 0.00136360 0.00479586 0.00348514 0.02233977 0.00135951 0.00171200 0.01535563 0.00273917 0.00168632 0.00368043 0.00129842 
0.03194537 0.01692074 0.00792874 0.00200136 0.00109252 0.00134700 0.00459044 0.00348205 0.02246445 0.00137752 0.00164770 0.01506644 0.00278204 0.00163228 0.00367960 0.00129926 
0.03208866 0.01716720 0.00765044 0.00200560 0.00111975 0.00132967 0.00439147 0.00347620 0.02257362 0.00139455 0.00158385 0.01477463 0.00282263 0.00158179 0.00367572 0.00130000 
0.03229536 0.01742820 0.00740281 0.00201089 0.00114624 0.00131165 0.00419943 0.00346758 0.02266592 0.00141057 0.00152072 0.01448150 0.00286067 0.00153538 0.00366890 0.00130065 
0.03256321 0.01770360 0.00718554 0.00201718 0.00117189 0.00129295 0.00401476 0.00345620 0.02274014 0.00142552 0.00145851 0.01418840 0.00289590 0.00149360 0.00365925 0.00130120 
0.03288976 0.01799319 0.00699816 0.00202440 0.00119661 0.00127363 0.00383783 0.00344206 0.02279518 0.00143937 0.00139745 0.01389676 0.00292809 0.00145699 0.00364692 0.00130167 
0.03327238 0.01829658 0.00684004 0.00203252 0.00122031 0.00125371 0.00366900 0.00342518 0.02283007 0.00145208 0.00133775 0.01360805 0.00295704 0.00142609 0.00363207 0.00130207 
0.03370833 0.01861329 0.00671042 0.00204147 0.00124290 0.00123324 0.00350856 0.00340561 0.02284399 0.00146364 0.00127959 0.01332380 0.00298259 0.00140143 0.00361488 0.00130240 
0.03419473 0.01894269 0.00660836 0.00205121 0.00126432 0.00121228 0.00335677 0.00338340 0.02283624 0.00147403 0.00122317 0.01304560 0.00300459 0.00138355 0.00359558 0.00130267 
0.03472859 0.01928404 0.00653280 0.00206169 0.00128447 0.00119089 0.00321382 0.00335859 0.02280630 0.00148323 0.00116864 0.01277504 0.00302294 0.00137297 0.00357437 0.00130288 
0.03530684 0.01963647 0.00648258 0.00207289 0.00130328 0.00116913 0.00307987 0.00333127 0.02275378 0.00149126 0.00111616 0.01251374 0.00303756 0.00137020 0.00355151 0.00130306 
0.03592637 0.01999900 0.00645637 0.00208476 0.00132069 0.00114706 0.00295504 0.00330151 0.02267844 0.00149811 0.00106588 0.01226335 0.00304842 0.00137572 0.00352726 0.00130319 
0.03658401 0.02037053 0.00645278 0.00209727 0.00133661 0.00112477 0.00283938 0.00326941 0.02258022 0.00150380 0.00101791 0.01202549 0.00305553 0.00139001 0.00350190 0.00130328 
0.03727655 0.02074986 0.00647030 0.00211040 0.00135100 0.00110232 0.00273291 0.00323506 0.02245918 0.00150835 0.00097237 0.01180181 0.00305890 0.00141349 0.00347572 0.00130335 
0.03800081 0.02113568 0.00650735 0.00212411 0.00136379 0.00107981 0.00263561 0.00319859 0.02231556 0.00151179 0.00092935 0.01159391 0.00305862 0.00144660 0.00344904 0.00130339 
0.03875361 0.02152660 0.00656229 0.00213839 0.00137493 0.00105732 0.00254740 0.00316011 0.02214975 0.00151415 0.00088892 0.01140338 0.00305480 0.00148972 0.00342216 0.00130341 
0.03953180 0.02192113 0.00663339 0.00215322 0.00138437 0.00103493 0.00246818 0.00311976 0.02196229 0.00151546 0.00085114 0.01123177 0.00304757 0.00154319 0.00339543 0.00130342 
0.04033228 0.02231771 0.00671889 0.00216858 0.00139206 0.00101274 0.00239779 0.00307768 0.02175387 0.00151578 0.00081607 0.01108058 0.00303711 0.00160733 0.00336917 0.00130342 
0.04115202 0.02271470 0.00681702 0.00218446 0.00139798 0.00099084 0.00233605 0.00303402 0.02152533 0.00151515 0.00078373 0.01095124 0.00302364 0.00168241 0.00334372 0.00130340 
0.04198808 0.02311042 0.00692594 0.00220084 0.00140209 0.00096933 0.00228273 0.00298893 0.02127762 0.00151362 0.00075414 0.01084514 0.00300740 0.00176867 0.00331944 0.00130338 
0.04283761 0.02350314 0.00704385 0.00221773 0.00140437 0.00094830 0.00223757 0.00294259 0.02101188 0.00151126 0.00072729 0.01076358 0.00298867 0.00186627 0.00329668 0.00130335 
0.04369788 0.02389106 0.00716893 0.00223511 0.00140479 0.00092785 0.00220029 0.00289516 0.02072933 0.00150812 0.00070317 0.01070778 0.00296776 0.00197537 0.00327578 0.00130331 
0.04456626 0.02427240 0.00729939 0.00225298 0.00140336 0.00090808 0.00217057 0.00284682 0.02043133 0.00150427 0.00068176 0.01067886 0.00294500 0.00209604 0.00325709 0.00130327 
0.04544030 0.02464534 0.00743344 0.00227132 0.00140005 0.00088908 0.00214807 0.00279776 0.02011934 0.00149978 0.00066300 0.01067784 0.00292076 0.00222832 0.00324095 0.00130323 
0.04631766 0.02500804 0.00756936 0.00229014 0.00139488 0.00087095 0.00213244 0.00274814 0.01979496 0.00149472 0.00064685 0.01070566 0.00289542 0.00237219 0.00322771 0.00130317 
0.04719617 0.02535871 0.00770547 0.00230942 0.00138786 0.00085377 0.00212329 0.00269818 0.01945984 0.00148916 0.00063324 0.01076311 0.00286938 0.00252757 0.00321769 0.00130311 
0.04807384 0.02569553 0.00784016 0.00232915 0.00137899 0.00083765 0.00212023 0.00264805 0.01911574 0.00148317 0.00062209 0.01085090 0.00284308 0.00269434 0.00321121 0.00130304 
0.04894883 0.02601675 0.00797189 0.00234933 0.00136830 0.00082267 0.00212284 0.00259796 0.01876448 0.00147685 0.00061331 0.01096959 0.00281694 0.00287230 0.00320858 0.00130295 
0.04981950 0.02632064 0.00809919 0.00236994 0.00135583 0.00080891 0.00213072 0.00254808 0.01840796 0.00147024 0.00060682 0.01111961 0.00279143 0.00306121 0.00321010 0.00130286 
0.05068437 0.02660554 0.00822069 0.00239097 0.00134160 0.00079644 0.00214344 0.00249863 0.01804811 0.00146345 0.00060250 0.01130129 0.00276700 0.00326078 0.00321604 0.00130274 
0.05154218 0.02686982 0.00833512 0.00241239 0.00132566 0.00078535 0.00216057 0.00244978 0.01768691 0.00145653 0.00060024 0.01151480 0.00274413 0.00347063 0.00322666 0.00130260 
0.05239184 0.02711198 0.00844132 0.00243420 0.00130807 0.00077569 0.00218169 0.00240173 0.01732638 0.00144958 0.00059994 0.01176017 0.00272328 0.00369037 0.00324221 0.00130244 
0.05323244 0.02733055 0.00853824 0.00245635 0.00128886 0.00076754 0.00220637 0.00235467 0.01696853 0.00144265 0.00060146 0.01203732 0.00270492 0.00391951 0.00326290 0.00130225 
0.05406328 0.02752418 0.00862494 0.00247883 0.00126812 0.00076094 0.00223420 0.00230877 0.01661539 0.00143582 0.00060467 0.01234601 0.00268952 0.00415754 0.00328893 0.00130203 
0.05488385 0.02769162 0.00870061 0.00250159 0.00124590 0.00075593 0.00226476 0.00226422 0.01626897 0.00142917 0.00060946 0.01268586 0.00267754 0.00440389 0.00332048 0.00130178 
0.05569381 0.02783174 0.00876457 0.00252461 0.00122228 0.00075257 0.00229766 0.00222118 0.01593126 0.00142276 0.00061568 0.01305639 0.00266943 0.00465792 0.00335769 0.00130149 
0.05649303 0.02794352 0.00881626 0.00254782 0.00119733 0.00075087 0.00233252 0.00217982 0.01560423 0.00141666 0.00062321 0.01345693 0.00266561 0.00491897 0.00340069 0.00130116 
0.05728151 0.02802606 0.00885528 0.00257120 0.00117115 0.00075087 0.00236895 0.00214030 0.01528978 0.00141093 0.00063192 0.01388673 0.00266651 0.00518632 0.00344956 0.00130078 
0.05805948 0.02807861 0.00888134 0.00259467 0.00114383 0.00075257 0.00240662 0.00210277 0.01498977 0.00140562 0.00064166 0.01434487 0.00267251 0.00545921 0.00350438 0.00130036 
0.05882728 0.02810055 0.00889427 0.00261819 0.00111545 0.00075598 0.00244519 0.00206736 0.01470598 0.00140079 0.00065231 0.01483033 0.00268400 0.00573685 0.00356519 0.00129988 
0.05958545 0.02809139 0.00889407 0.00264169 0.00108611 0.00076109 0.00248435 0.00203420 0.01444011 0.00139650 0.00066375 0.01534197 0.00270131 0.00601839 0.00363198 0.00129936 
0.06033464 0.02805080 0.00888085 0.00266509 0.00105592 0.00076789 0.00252381 0.00200342 0.01419378 0.00139279 0.00067584 0.01587853 0.00272475 0.00630298 0.00370475 0.00129878 
0.06107564 0.02797861 0.00885485 0.00268833 0.00102499 0.00077636 0.00256332 0.00197513 0.01396849 0.00138970 0.00068847 0.01643862 0.00275462 0.00658973 0.00378342 0.00129815 
0.06180939 0.02787477 0.00881644 0.00271133 0.00099341 0.00078645 0.00260263 0.00194941 0.01376565 0.00138726 0.00070152 0.01702078 0.00279116 0.00687772 0.00386793 0.00129746 
0.06253691 0.02773941 0.00876610 0.00273399 0.00096131 0.00079813 0.00264154 0.00192636 0.01358655 0.00138552 0.00071488 0.01762343 0.00283457 0.00716603 0.00395816 0.00129672 
0.06325932 0.02757279 0.00870446 0.00275624 0.00092880 0.00081135 0.00267987 0.00190605 0.01343233 0.00138449 0.00072845 0.01824491 0.00288504 0.00745369 0.00405395 0.00129593 
0.06397783 0.02737533 0.00863221 0.00277799 0.00089599 0.00082603 0.00271746 0.00188854 0.01330403 0.00138420 0.00074211 0.01888349 0.00294269 0.00773976 0.00415515 0.00129508 
0.06469373 0.02714760 0.00855019 0.00279913 0.00086299 0.00084212 0.00275418 0.00187387 0.01320253 0.00138466 0.00075579 0.01953734 0.00300761 0.00802327 0.00426155 0.00129418 
0.06540832 0.02689031 0.00845932 0.00281958 0.00082993 0.00085953 0.00278993 0.00186208 0.01312857 0.00138589 0.00076940 0.02020458 0.00307985 0.00830327 0.00437291 0.00129324 
0.06612298 0.02660432 0.00836060 0.00283923 0.00079692 0.00087816 0.00282465 0.00185318 0.01308273 0.00138789 0.00078285 0.02088327 0.00315941 0.00857879 0.00448898 0.00129225 
0.06683909 0.02629062 0.00825513 0.00285798 0.00076408 0.00089794 0.00285828 0.00184719 0.01306547 0.00139066 0.00079608 0.02157143 0.00324625 0.00884890 0.00460949 0.00129121 
0.06755801 0.02595032 0.00814406 0.00287574 0.00073153 0.00091875 0.00289082 0.00184410 0.01307707 0.00139420 0.00080902 0.02226703 0.00334028 0.00911266 0.00473411 0.00129015 
0.06828111 0.02558467 0.00802863 0.00289239 0.00069937 0.00094048 0.00292226 0.00184390 0.01311765 0.00139850 0.00082162 0.02296802 0.00344136 0.00936916 0.00486252 0.00128905 
0.06900972 0.02519503 0.00791012 0.00290785 0.00066773 0.00096301 0.00295265 0.00184654 0.01318718 0.00140353 0.00083383 0.02367231 0.00354932 0.00961752 0.00499437 0.00128792 
0.06974512 0.02478288 0.00778984 0.00292201 0.00063671 0.00098623 0.00298203 0.00185199 0.01328548 0.00140929 0.00084561 0.02437783 0.00366393 0.00985687 0.00512928 0.00128678 
0.07048850 0.02434979 0.00766917 0.00293478 0.00060643 0.00101001 0.00301049 0.00186018 0.01341221 0.00141574 0.00085693 0.02508247 0.00378494 0.01008640 0.00526686 0.00128563 
0.07124097 0.02389742 0.00754948 0.00294605 0.00057699 0.00103421 0.00303813 0.00187106 0.01356686 0.00142286 0.00086775 0.02578416 0.00391202 0.01030532 0.00540671 0.00128447 
0.07200356 0.02342753 0.00743217 0.00295574 0.00054848 0.00105870 0.00306505 0.00188453 0.01374881 0.00143060 0.00087806 0.02648081 0.00404482 0.01051289 0.00554840 0.00128332 
0.07277714 0.02294193 0.00731865 0.00296376 0.00052102 0.00108335 0.00309140 0.00190052 0.01395724 0.00143894 0.00088786 0.02717040 0.00418297 0.01070840 0.00569151 0.00128218 
0.07356247 0.02244251 0.00721029 0.00297003 0.00049468 0.00110800 0.00311732 0.00191891 0.01419124 0.00144784 0.00089712 0.02785090 0.00432603 0.01089123 0.00583558 0.00128106 
0.07436013 0.02193121 0.00710849 0.00297448 0.00046957 0.00113254 0.00314297 0.00193961 0.01444972 0.00145723 0.00090586 0.02852033 0.00447353 0.01106076 0.00598017 0.00127998 
0.07517055 0.02140999 0.00701458 0.00297703 0.00044576 0.00115680 0.00316853 0.00196248 0.01473149 0.00146709 0.00091408 0.02917677 0.00462498 0.01121646 0.00612483 0.00127893 
0.07599397 0.02088088 0.00692989 0.00297762 0.00042334 0.00118067 0.00319417 0.00198741 0.01503521 0.00147734 0.00092179 0.02981836 0.00477986 0.01135786 0.00626910 0.00127794 
0.07683042 0.02034589 0.00685568 0.00297619 0.00040237 0.00120398 0.00322008 0.00201427 0.01535946 0.00148795 0.00092902 0.03044328 0.00493761 0.01148454 0.00641251 0.00127702 
0.07767974 0.01980705 0.00679317 0.00297271 0.00038292 0.00122662 0.00324646 0.00204290 0.01570268 0.00149884 0.00093577 0.03104979 0.00509765 0.01159615 0.00655461 0.00127616 
0.07854154 0.01926640 0.00674349 0.00296713 0.00036506 0.00124845 0.00327349 0.00207317 0.01606323 0.00150997 0.00094207 0.03163624 0.00525937 0.01169239 0.00669495 0.00127539 
0.07941520 0.01872595 0.00670774 0.00295942 0.00034883 0.00126934 0.00330136 0.00210493 0.01643937 0.00152127 0.00094795 0.03220105 0.00542217 0.01177306 0.00683309 0.00127471 
0.08029987 0.01818768 0.00668691 0.00294958 0.00033427 0.00128917 0.00333026 0.00213802 0.01682929 0.00153268 0.00095345 0.03274272 0.00558540 0.01183799 0.00696859 0.00127413 
0.08119445 0.01765356 0.00668191 0.00293759 0.00032144 0.00130782 0.00336039 0.00217229 0.01723109 0.00154413 0.00095858 0.03325986 0.00574841 0.01188711 0.00710103 0.00127367 
0.08209759 0.01712548 0.00669356 0.00292345 0.00031037 0.00132518 0.00339190 0.00220759 0.01764285 0.00155557 0.00096340 0.03375117 0.00591056 0.01192039 0.00723000 0.00127332 
0.08300770 0.01660531 0.00672260 0.00290718 0.00030107 0.00134115 0.00342497 0.00224374 0.01806256 0.00156693 0.00096793 0.03421545 0.00607118 0.01193790 0.00735509 0.00127311 
0.08392293 0.01609482 0.00676963 0.00288881 0.00029356 0.00135564 0.00345975 0.00228059 0.01848819 0.00157814 0.00097221 0.03465161 0.00622962 0.01193974 0.00747595 0.00127304 
0.08484121 0.01559573 0.00683518 0.00286837 0.00028786 0.00136855 0.00349638 0.00231800 0.01891769 0.00158915 0.00097627 0.03505866 0.00638522 0.01192612 0.00759221 0.00127312 
0.08576018 0.01510967 0.00691965 0.00284591 0.00028397 0.00137980 0.00353499 0.00235579 0.01934898 0.00159989 0.00098014 0.03543574 0.00653732 0.01189729 0.00770353 0.00127335 
0.08667728 0.01463817 0.00702333 0.00282150 0.00028188 0.00138934 0.00357570 0.00239383 0.01978000 0.00161030 0.00098388 0.03578208 0.00668528 0.01185356 0.00780962 0.00127375 
0.08758971 0.01418269 0.00714639 0.00279520 0.00028158 0.00139710 0.00361858 0.00243196 0.02020866 0.00162033 0.00098750 0.03609705 0.00682848 0.01179531 0.00791018 0.00127431 
0.08849443 0.01374455 0.00728890 0.00276710 0.00028305 0.00140303 0.00366372 0.00247004 0.02063291 0.00162991 0.00099103 0.03638012 0.00696630 0.01172299 0.00800495 0.00127505 
0.08938823 0.01332500 0.00745081 0.00273730 0.00028627 0.00140711 0.00371117 0.00250793 0.02105074 0.00163900 0.00099451 0.03663089 0.00709816 0.01163710 0.00809371 0.00127596 
0.09026767 0.01292515 0.00763193 0.00270589 0.00029120 0.00140929 0.00376095 0.00254550 0.02146014 0.00164754 0.00099796 0.03684908 0.00722347 0.01153818 0.00817626 0.00127706 
0.09112917 0.01254600 0.00783198 0.00267299 0.00029781 0.00140957 0.00381308 0.00258262 0.02185918 0.00165548 0.00100140 0.03703451 0.00734171 0.01142685 0.00825242 0.00127834 
0.09196896 0.01218843 0.00805057 0.00263873 0.00030603 0.00140793 0.00386754 0.00261917 0.02224598 0.00166279 0.00100485 0.03718713 0.00745234 0.01130374 0.00832206 0.00127980 
0.09278316 0.01185320 0.00828719 0.00260325 0.00031583 0.00140440 0.00392429 0.00265506 0.02261873 0.00166941 0.00100834 0.03730703 0.00755490 0.01116956 0.00838506 0.00128146 
0.09356777 0.01154093 0.00854121 0.00256667 0.00032715 0.00139899 0.00398327 0.00269016 0.02297568 0.00167531 0.00101186 0.03739438 0.00764892 0.01102503 0.00844136 0.00128329 
0.09431869 0.01125214 0.00881192 0.00252916 0.00033991 0.00139173 0.00404440 0.00272441 0.02331518 0.00168045 0.00101543 0.03744949 0.00773400 0.01087094 0.00849090 0.00128531 
0.09503178 0.01098720 0.00909850 0.00249087 0.00035405 0.00138265 0.00410756 0.00275770 0.02363567 0.00168481 0.00101906 0.03747277 0.00780975 0.01070807 0.00853367 0.00128752 
0.09570285 0.01074637 0.00940004 0.00245197 0.00036949 0.00137181 0.00417263 0.00278996 0.02393569 0.00168836 0.00102274 0.03746475 0.00787585 0.01053726 0.00856971 0.00128989 
0.09632772 0.01052979 0.00971554 0.00241262 0.00038616 0.00135927 0.00423946 0.00282115 0.02421388 0.00169109 0.00102647 0.03742608 0.00793198 0.01035937 0.00859904 0.00129244 
0.09690223 0.01033746 0.01004393 0.00237301 0.00040397 0.00134511 0.00430786 0.00285119 0.02446901 0.00169296 0.00103024 0.03735748 0.00797791 0.01017524 0.00862177 0.00129516 
0.09742228 0.01016928 0.01038407 0.00233329 0.00042283 0.00132939 0.00437764 0.00288005 0.02469993 0.00169397 0.00103404 0.03725982 0.00801341 0.00998577 0.00863801 0.00129803 
0.09788386 0.01002503 0.01073472 0.00229367 0.00044265 0.00131222 0.00444859 0.00290770 0.02490566 0.00169411 0.00103785 0.03713404 0.00803833 0.00979185 0.00864788 0.00130105 
0.09828308 0.00990439 0.01109462 0.00225431 0.00046334 0.00129369 0.00452047 0.00293411 0.02508532 0.00169339 0.00104166 0.03698118 0.00805253 0.00959437 0.00865158 0.00130421 
0.09861623 0.00980692 0.01146244 0.00221540 0.00048480 0.00127390 0.00459304 0.00295927 0.02523816 0.00169179 0.00104545 0.03680239 0.00805595 0.00939421 0.00864929 0.00130750 
0.09887977 0.00973209 0.01183682 0.00217711 0.00050693 0.00125297 0.00466603 0.00298318 0.02536357 0.00168933 0.00104918 0.03659888 0.00804855 0.00919227 0.00864123 0.00131091 
0.09907039 0.00967927 0.01221635 0.00213964 0.00052964 0.00123101 0.00473915 0.00300584 0.02546109 0.00168601 0.00105282 0.03637197 0.00803035 0.00898942 0.00862767 0.00131442 
0.09918504 0.00964777 0.01259962 0.00210315 0.00055282 0.00120815 0.00481212 0.00302728 0.02553037 0.00168186 0.00105636 0.03612306 0.00800141 0.00878651 0.00860885 0.00131802 
0.09922097 0.00963680 0.01298519 0.00206781 0.00057638 0.00118452 0.00488465 0.00304752 0.02557121 0.00167689 0.00105974 0.03585361 0.00796182 0.00858440 0.00858509 0.00132170 
0.09917573 0.00964549 0.01337161 0.00203379 0.00060021 0.00116025 0.00495641 0.00306659 0.02558355 0.00167112 0.00106294 0.03556517 0.00791174 0.00838389 0.00855667 0.00132544 
0.09904723 0.00967294 0.01375744 0.00200126 0.00062421 0.00113548 0.00502710 0.00308453 0.02556747 0.00166458 0.00106592 0.03525933 0.00785136 0.00818577 0.00852393 0.00132921 
0.09883376 0.00971816 0.01414124 0.00197036 0.00064828 0.00111034 0.00509640 0.00310140 0.02552318 0.00165731 0.00106864 0.03493778 0.00778090 0.00799081 0.00848720 0.00133302 
0.09853402 0.00978015 0.01452162 0.00194125 0.00067233 0.00108499 0.00516400 0.00311725 0.02545103 0.00164934 0.00107107 0.03460224 0.00770064 0.00779972 0.00844684 0.00133683 
0.09814714 0.00985785 0.01489717 0.00191404 0.00069625 0.00105955 0.00522957 0.00313215 0.02535149 0.00164070 0.00107316 0.03425448 0.00761089 0.00761320 0.00840319 0.00134064 
0.09767269 0.00995017 0.01526657 0.00188887 0.00071996 0.00103416 0.00529280 0.00314615 0.02522518 0.00163144 0.00107487 0.03389635 0.00751198 0.00743189 0.00835663 0.00134441 
0.09711071 0.01005601 0.01562851 0.00186586 0.00074337 0.00100898 0.00535339 0.00315934 0.02507282 0.00162160 0.00107617 0.03352969 0.00740431 0.00725638 0.00830753 0.00134814 
0.09646175 0.01017426 0.01598173 0.00184510 0.00076639 0.00098413 0.00541103 0.00317180 0.02489528 0.00161124 0.00107703 0.03315643 0.00728829 0.00708724 0.00825624 0.00135180 
0.09572682 0.01030380 0.01632507 0.00182669 0.00078892 0.00095976 0.00546544 0.00318360 0.02469352 0.00160039 0.00107740 0.03277849 0.00716435 0.00692497 0.00820315 0.00135537 
0.09490748 0.01044354 0.01665738 0.00181069 0.00081090 0.00093599 0.00551633 0.00319482 0.02446863 0.00158912 0.00107726 0.03239784 0.00703298 0.00677003 0.00814861 0.00135883 
0.09400579 0.01059236 0.01697762 0.00179717 0.00083225 0.00091296 0.00556345 0.00320555 0.02422180 0.00157748 0.00107658 0.03201645 0.00689467 0.00662281 0.00809299 0.00136217 
0.09302432 0.01074920 0.01728483 0.00178617 0.00085290 0.00089079 0.00560653 0.00321589 0.02395431 0.00156552 0.00107533 0.03163632 0.00674996 0.00648368 0.00803663 0.00136535 
0.09196618 0.01091303 0.01757812 0.00177773 0.00087277 0.00086960 0.00564536 0.00322590 0.02366756 0.00155330 0.00107349 0.03125946 0.00659937 0.00635293 0.00797987 0.00136837 
0.09083498 0.01108284 0.01785669 0.00177187 0.00089182 0.00084950 0.00567972 0.00323569 0.02336302 0.00154088 0.00107104 0.03088786 0.00644349 0.00623081 0.00792304 0.00137120 
0.08963483 0.01125767 0.01811984 0.00176858 0.00090998 0.00083060 0.00570942 0.00324532 0.02304222 0.00152833 0.00106797 0.03052354 0.00628288 0.00611750 0.00786645 0.00137382 
0.08837036 0.01143663 0.01836696 0.00176785 0.00092720 0.00081299 0.00573429 0.00325490 0.02270681 0.00151569 0.00106428 0.03016849 0.00611815 0.00601313 0.00781039 0.00137622 
0.08704666 0.01161885 0.01859753 0.00176964 0.00094344 0.00079679 0.00575419 0.00326448 0.02235846 0.00150303 0.00105995 0.02982468 0.00594991 0.00591781 0.00775513 0.00137837 
0.08566927 0.01180357 0.01881115 0.00177391 0.00095865 0.00078206 0.00576901 0.00327416 0.02199893 0.00149041 0.00105500 0.02949407 0.00577877 0.00583154 0.00770092 0.00138025 
0.08424418 0.01199006 0.01900752 0.00178061 0.00097282 0.00076889 0.00577864 0.00328400 0.02163002 0.00147790 0.00104942 0.02917860 0.00560535 0.00575431 0.00764798 0.00138186 
0.08277778 0.01217769 0.01918642 0.00178964 0.00098590 0.00075735 0.00578303 0.00329407 0.02125355 0.00146554 0.00104324 0.02888016 0.00543028 0.00568606 0.00759652 0.00138317 
0.08127684 0.01236589 0.01934776 0.00180091 0.00099789 0.00074750 0.00578214 0.00330443 0.02087140 0.00145340 0.00103648 0.02860061 0.00525419 0.00562665 0.00754671 0.00138417 
0.07974846 0.01255417 0.01949154 0.00181433 0.00100875 0.00073939 0.00577596 0.00331514 0.02048547 0.00144153 0.00102915 0.02834177 0.00507770 0.00557592 0.00749870 0.00138484 
0.07820005 0.01274214 0.01961785 0.00182976 0.00101849 0.00073307 0.00576450 0.00332625 0.02009767 0.00143000 0.00102131 0.02810539 0.00490144 0.00553366 0.00745260 0.00138518 
0.07663929 0.01292947 0.01972690 0.00184708 0.00102710 0.00072857 0.00574782 0.00333780 0.01970992 0.00141885 0.00101297 0.02789318 0.00472602 0.00549963 0.00740851 0.00138517 
0.07507406 0.01311593 0.01981898 0.00186612 0.00103458 0.00072592 0.00572599 0.00334982 0.01932414 0.00140814 0.00100420 0.02770679 0.00455206 0.00547353 0.00736647 0.00138479 
0.07351242 0.01330139 0.01989447 0.00188675 0.00104094 0.00072513 0.00569911 0.00336235 0.01894224 0.00139791 0.00099505 0.02754778 0.00438014 0.00545503 0.00732652 0.00138405 
0.07196256 0.01348577 0.01995384 0.00190877 0.00104619 0.00072622 0.00566732 0.00337541 0.01856610 0.00138822 0.00098556 0.02741765 0.00421086 0.00544379 0.00728865 0.00138293 
0.07043272 0.01366911 0.01999766 0.00193202 0.00105035 0.00072918 0.00563077 0.00338901 0.01819761 0.00137910 0.00097581 0.02731782 0.00404478 0.00543941 0.00725284 0.00138143 
0.06893119 0.01385151 0.02002655 0.00195630 0.00105345 0.00073402 0.00558965 0.00340317 0.01783858 0.00137061 0.00096586 0.02724960 0.00388244 0.00544149 0.00721900 0.00137954 
0.06746621 0.01403318 0.02004122 0.00198141 0.00105550 0.00074071 0.00554417 0.00341787 0.01749082 0.00136278 0.00095580 0.02721424 0.00372440 0.00544960 0.00718706 0.00137726 
0.06604592 0.01421437 0.02004245 0.00200716 0.00105654 0.00074923 0.00549456 0.00343311 0.01715605 0.00135564 0.00094569 0.02721287 0.00357114 0.00546328 0.00715688 0.00137460 
0.06467833 0.01439545 0.02003106 0.00203333 0.00105662 0.00075956 0.00544107 0.00344887 0.01683597 0.00134924 0.00093563 0.02724652 0.00342317 0.00548208 0.00712832 0.00137154 
0.06337127 0.01457683 0.02000794 0.00205970 0.00105575 0.00077165 0.00538398 0.00346514 0.01653218 0.00134359 0.00092569 0.02731610 0.00328094 0.00550551 0.00710120 0.00136810 
0.06213228 0.01475900 0.01997401 0.00208607 0.00105400 0.00078546 0.00532360 0.00348188 0.01624623 0.00133873 0.00091598 0.02742242 0.00314488 0.00553311 0.00707530 0.00136428 
0.06096862 0.01494252 0.01993023 0.00211220 0.00105139 0.00080094 0.00526022 0.00349906 0.01597958 0.00133467 0.00090659 0.02756616 0.00301541 0.00556440 0.00705041 0.00136009 
0.05988718 0.01512800 0.01987762 0.00213788 0.00104799 0.00081804 0.00519419 0.00351663 0.01573361 0.00133144 0.00089761 0.02774788 0.00289291 0.00559888 0.00702628 0.00135553 
0.05889446 0.01531610 0.01981717 0.00216290 0.00104384 0.00083669 0.00512584 0.00353455 0.01550960 0.00132904 0.00088914 0.02796800 0.00277772 0.00563609 0.00700263 0.00135062 
0.05799647 0.01550753 0.01974991 0.00218704 0.00103900 0.00085683 0.00505553 0.00355276 0.01530873 0.00132750 0.00088128 0.02822682 0.00267015 0.00567556 0.00697917 0.00134537 
0.05719873 0.01570305 0.01967689 0.00221008 0.00103351 0.00087838 0.00498363 0.00357120 0.01513208 0.00132682 0.00087413 0.02852449 0.00257049 0.00571685 0.00695561 0.00133979 
0.05650623 0.01590344 0.01959913 0.00223181 0.00102743 0.00090128 0.00491051 0.00358981 0.01498062 0.00132700 0.00086779 0.02886103 0.00247900 0.00575950 0.00693163 0.00133390 
0.05592332 0.01610951 0.01951765 0.00225205 0.00102082 0.00092544 0.00483654 0.00360853 0.01485519 0.00132803 0.00086236 0.02923630 0.00239587 0.00580311 0.00690691 0.00132773 
0.05545378 0.01632210 0.01943345 0.00227058 0.00101373 0.00095077 0.00476211 0.00362729 0.01475652 0.00132992 0.00085793 0.02965003 0.00232130 0.00584727 0.00688109 0.00132128 
0.05510069 0.01654204 0.01934751 0.00228724 0.00100622 0.00097721 0.00468760 0.00364602 0.01468522 0.00133266 0.00085459 0.03010178 0.00225543 0.00589162 0.00685386 0.00131459 
0.05486644 0.01677019 0.01926076 0.00230183 0.00099834 0.00100466 0.00461339 0.00366464 0.01464176 0.00133623 0.00085244 0.03059099 0.00219836 0.00593580 0.00682486 0.00130767 
0.05475272 0.01700740 0.01917411 0.00231421 0.00099015 0.00103302 0.00453986 0.00368308 0.01462649 0.00134062 0.00085156 0.03111693 0.00215017 0.00597950 0.00679376 0.00130055 
0.05476048 0.01725450 0.01908841 0.00232421 0.00098170 0.00106222 0.00446737 0.00370127 0.01463962 0.00134581 0.00085203 0.03167870 0.00211089 0.00602244 0.00676022 0.00129326 
0.05488991 0.01751231 0.01900445 0.00233170 0.00097305 0.00109217 0.00439630 0.00371913 0.01468122 0.00135178 0.00085392 0.03227528 0.00208052 0.00606435 0.00672391 0.00128583 
0.05514044 0.01778162 0.01892297 0.00233656 0.00096423 0.00112276 0.00432698 0.00373660 0.01475123 0.00135849 0.00085730 0.03290548 0.00205902 0.00610503 0.00668451 0.00127829 
0.05551072 0.01806320 0.01884464 0.00233867 0.00095531 0.00115391 0.00425977 0.00375360 0.01484945 0.00136593 0.00086224 0.03356797 0.00204632 0.00614429 0.00664172 0.00127067 
0.05599865 0.01835777 0.01877006 0.00233795 0.00094633 0.00118554 0.00419498 0.00377006 0.01497553 0.00137405 0.00086878 0.03426127 0.00204232 0.00618197 0.00659523 0.00126299 
0.05660134 0.01866600 0.01869975 0.00233431 0.00093733 0.00121754 0.00413293 0.00378593 0.01512900 0.00138282 0.00087697 0.03498376 0.00204686 0.00621798 0.00654479 0.00125531 
0.05731516 0.01898853 0.01863418 0.00232770 0.00092835 0.00124984 0.00407390 0.00380114 0.01530922 0.00139220 0.00088685 0.03573368 0.00205978 0.00625222 0.00649014 0.00124764 
0.05813574 0.01932592 0.01857369 0.00231807 0.00091944 0.00128234 0.00401817 0.00381564 0.01551546 0.00140215 0.00089843 0.03650912 0.00208085 0.00628467 0.00643106 0.00124002 
0.05905798 0.01967866 0.01851858 0.00230540 0.00091063 0.00131495 0.00396599 0.00382937 0.01574681 0.00141263 0.00091174 0.03730806 0.00210984 0.00631531 0.00636733 0.00123249 
0.06007610 0.02004719 0.01846904 0.00228968 0.00090195 0.00134760 0.00391758 0.00384229 0.01600226 0.00142358 0.00092677 0.03812834 0.00214647 0.00634418 0.00629880 0.00122508 
0.06118363 0.02043187 0.01842518 0.00227093 0.00089343 0.00138019 0.00387314 0.00385436 0.01628065 0.00143497 0.00094353 0.03896771 0.00219044 0.00637134 0.00622533 0.00121784 
0.06237349 0.02083296 0.01838704 0.00224917 0.00088510 0.00141266 0.00383285 0.00386554 0.01658071 0.00144674 0.00096199 0.03982377 0.00224142 0.00639689 0.00614681 0.00121078 
0.06363802 0.02125066 0.01835454 0.00222446 0.00087699 0.00144492 0.00379687 0.00387581 0.01690104 0.00145885 0.00098212 0.04069406 0.00229903 0.00642096 0.00606316 0.00120396 
0.06496898 0.02168506 0.01832756 0.00219687 0.00086912 0.00147689 0.00376531 0.00388516 0.01724014 0.00147123 0.00100389 0.04157600 0.00236291 0.00644369 0.00597436 0.00119740 
0.06635766 0.02213617 0.01830585 0.00216647 0.00086150 0.00150851 0.00373828 0.00389355 0.01759639 0.00148384 0.00102723 0.04246695 0.00243263 0.00646528 0.00588041 0.00119114 
0.06779489 0.02260391 0.01828912 0.00213339 0.00085415 0.00153970 0.00371583 0.00390099 0.01796806 0.00149662 0.00105209 0.04336418 0.00250777 0.00648592 0.00578135 0.00118521 
0.06927113 0.02308807 0.01827698 0.00209773 0.00084710 0.00157039 0.00369802 0.00390748 0.01835335 0.00150951 0.00107838 0.04426491 0.00258787 0.00650583 0.00567728 0.00117964 
0.07077649 0.02358838 0.01826897 0.00205964 0.00084033 0.00160053 0.00368484 0.00391303 0.01875036 0.00152246 0.00110603 0.04516630 0.00267247 0.00652527 0.00556832 0.00117447 
0.07230082 0.02410443 0.01826457 0.00201928 0.00083387 0.00163005 0.00367629 0.00391764 0.01915709 0.00153542 0.00113492 0.04606551 0.00276108 0.00654449 0.00545464 0.00116972 
0.07383374 0.02463575 0.01826319 0.00197681 0.00082773 0.00165889 0.00367232 0.00392135 0.01957152 0.00154833 0.00116495 0.04695962 0.00285320 0.00656376 0.00533644 0.00116543 
0.07536475 0.02518173 0.01826417 0.00193242 0.00082190 0.00168700 0.00367285 0.00392418 0.01999152 0.00156114 0.00119599 0.04784575 0.00294831 0.00658335 0.00521400 0.00116161 
0.07688328 0.02574167 0.01826682 0.00188631 0.00081639 0.00171432 0.00367779 0.00392616 0.02041494 0.00157379 0.00122792 0.04872099 0.00304591 0.00660356 0.00508759 0.00115830 
0.07837871 0.02631477 0.01827039 0.00183870 0.00081119 0.00174081 0.00368700 0.00392734 0.02083958 0.00158623 0.00126059 0.04958246 0.00314546 0.00662467 0.00495755 0.00115551 
0.07984053 0.02690013 0.01827409 0.00178982 0.00080632 0.00176642 0.00370034 0.00392776 0.02126322 0.00159841 0.00129385 0.05042730 0.00324643 0.00664696 0.00482427 0.00115326 
0.08125833 0.02749674 0.01827710 0.00173988 0.00080177 0.00179110 0.00371762 0.00392748 0.02168360 0.00161028 0.00132755 0.05125271 0.00334830 0.00667071 0.00468816 0.00115158 
0.08262188 0.02810350 0.01827858 0.00168916 0.00079753 0.00181483 0.00373865 0.00392655 0.02209849 0.00162179 0.00136151 0.05205594 0.00345053 0.00669619 0.00454966 0.00115048 
0.08392122 0.02871921 0.01827765 0.00163788 0.00079361 0.00183755 0.00376320 0.00392503 0.02250562 0.00163289 0.00139557 0.05283430 0.00355260 0.00672367 0.00440928 0.00114997 
0.08514673 0.02934260 0.01827344 0.00158633 0.00078999 0.00185923 0.00379103 0.00392299 0.02290278 0.00164355 0.00142955 0.05358518 0.00365399 0.00675338 0.00426752 0.00115006 
0.08628916 0.02997228 0.01826507 0.00153476 0.00078668 0.00187985 0.00382189 0.00392050 0.02328777 0.00165372 0.00146327 0.05430610 0.00375418 0.00678555 0.00412495 0.00115076 
0.08733969 0.03060681 0.01825167 0.00148344 0.00078368 0.00189938 0.00385548 0.00391763 0.02365842 0.00166337 0.00149653 0.05499464 0.00385269 0.00682040 0.00398213 0.00115206 
0.08829004 0.03124464 0.01823236 0.00143266 0.00078099 0.00191778 0.00389152 0.00391445 0.02401263 0.00167246 0.00152916 0.05564855 0.00394902 0.00685810 0.00383970 0.00115399 
0.08913244 0.03188417 0.01820630 0.00138267 0.00077859 0.00193504 0.00392971 0.00391104 0.02434837 0.00168095 0.00156097 0.05626567 0.00404272 0.00689882 0.00369826 0.00115652 
0.08985977 0.03252373 0.01817267 0.00133376 0.00077649 0.00195113 0.00396971 0.00390747 0.02466368 0.00168882 0.00159176 0.05684402 0.00413332 0.00694267 0.00355847 0.00115967 
0.09046555 0.03316158 0.01813067 0.00128620 0.00077470 0.00196604 0.00401122 0.00390383 0.02495668 0.00169605 0.00162135 0.05738174 0.00422042 0.00698977 0.00342101 0.00116341 
0.09094398 0.03379592 0.01807955 0.00124025 0.00077321 0.00197976 0.00405389 0.00390017 0.02522561 0.00170260 0.00164956 0.05787716 0.00430359 0.00704017 0.00328655 0.00116775 
0.09129001 0.03442493 0.01801860 0.00119619 0.00077203 0.00199227 0.00409738 0.00389659 0.02546881 0.00170847 0.00167620 0.05832877 0.00438248 0.00709392 0.00315577 0.00117266 
0.09149935 0.03504672 0.01794716 0.00115426 0.00077115 0.00200356 0.00414136 0.00389315 0.02568475 0.00171365 0.00170111 0.05873523 0.00445674 0.00715101 0.00302939 0.00117813 
0.09156851 0.03565938 0.01786464 0.00111472 0.00077060 0.00201362 0.00418548 0.00388992 0.02587204 0.00171811 0.00172412 0.05909540 0.00452604 0.00721141 0.00290808 0.00118414 
0.09149482 0.03626098 0.01777049 0.00107781 0.00077038 0.00202245 0.00422941 0.00388697 0.02602942 0.00172186 0.00174505 0.05940833 0.00459011 0.00727504 0.00279256 0.00119068 
0.09127642 0.03684957 0.01766423 0.00104376 0.00077049 0.00203005 0.00427281 0.00388437 0.02615579 0.00172489 0.00176378 0.05967326 0.00464869 0.00734181 0.00268350 0.00119771 
0.09091232 0.03742317 0.01754546 0.00101278 0.00077095 0.00203643 0.00431535 0.00388217 0.02625023 0.00172720 0.00178015 0.05988961 0.00470158 0.00741156 0.00258159 0.00120521 
0.09040237 0.03797984 0.01741384 0.00098508 0.00077178 0.00204157 0.00435671 0.00388042 0.02631196 0.00172881 0.00179405 0.06005703 0.00474860 0.00748411 0.00248749 0.00121316 
0.08974728 0.03851761 0.01726911 0.00096085 0.00077298 0.00204550 0.00439660 0.00387918 0.02634040 0.00172972 0.00180534 0.06017535 0.00478960 0.00755926 0.00240185 0.00122151 
0.08894859 0.03903457 0.01711108 0.00094026 0.00077459 0.00204821 0.00443470 0.00387850 0.02633514 0.00172995 0.00181395 0.06024461 0.00482450 0.00763675 0.00232530 0.00123025 
0.08800869 0.03952879 0.01693965 0.00092347 0.00077661 0.00204973 0.00447074 0.00387841 0.02629598 0.00172952 0.00181977 0.06026505 0.00485322 0.00771631 0.00225842 0.00123932 
0.08693078 0.03999842 0.01675479 0.00091062 0.00077907 0.00205006 0.00450445 0.00387894 0.02622289 0.00172845 0.00182275 0.06023709 0.00487577 0.00779762 0.00220180 0.00124871 
0.08571886 0.04044163 0.01655656 0.00090183 0.00078199 0.00204923 0.00453560 0.00388012 0.02611605 0.00172677 0.00182283 0.06016135 0.00489214 0.00788034 0.00215597 0.00125836 
0.08437771 0.04085666 0.01634508 0.00089720 0.00078539 0.00204725 0.00456395 0.00388197 0.02597585 0.00172451 0.00181998 0.06003865 0.00490242 0.00796411 0.00212143 0.00126825 
0.08291282 0.04124179 0.01612056 0.00089681 0.00078931 0.00204415 0.00458930 0.00388450 0.02580285 0.00172171 0.00181418 0.05986996 0.00490669 0.00804854 0.00209864 0.00127832 
0.08133041 0.04159541 0.01588330 0.00090073 0.00079376 0.00203995 0.00461148 0.00388771 0.02559785 0.00171840 0.00180545 0.05965644 0.00490511 0.00813322 0.00208802 0.00128855 
0.07963736 0.04191595 0.01563365 0.00090898 0.00079877 0.00203469 0.00463032 0.00389162 0.02536181 0.00171463 0.00179379 0.05939943 0.00489786 0.00821771 0.00208993 0.00129889 
0.07784115 0.04220198 0.01537205 0.00092160 0.00080437 0.00202839 0.00464569 0.00389620 0.02509592 0.00171045 0.00177928 0.05910040 0.00488516 0.00830157 0.00210470 0.00130929 
0.07594982 0.04245214 0.01509900 0.00093857 0.00081058 0.00202108 0.00465750 0.00390145 0.02480155 0.00170590 0.00176195 0.05876097 0.00486727 0.00838435 0.00213260 0.00131972 
0.07397196 0.04266518 0.01481507 0.00095986 0.00081742 0.00201281 0.00466567 0.00390734 0.02448025 0.00170103 0.00174192 0.05838290 0.00484448 0.00846557 0.00217385 0.00133013 
0.07191658 0.04283997 0.01452090 0.00098544 0.00082494 0.00200362 0.00467015 0.00391384 0.02413377 0.00169591 0.00171927 0.05796808 0.00481711 0.00854477 0.00222860 0.00134049 
0.06979312 0.04297551 0.01421716 0.00101524 0.00083313 0.00199354 0.00467091 0.00392093 0.02376402 0.00169059 0.00169415 0.05751849 0.00478554 0.00862148 0.00229697 0.00135074 
0.06761134 0.04307094 0.01390462 0.00104915 0.00084204 0.00198263 0.00466798 0.00392855 0.02337310 0.00168513 0.00166670 0.05703624 0.00475015 0.00869522 0.00237899 0.00136087 
0.06538129 0.04312551 0.01358404 0.00108708 0.00085167 0.00197093 0.00466138 0.00393666 0.02296323 0.00167960 0.00163709 0.05652350 0.00471135 0.00876554 0.00247466 0.00137081 
0.06311322 0.04313866 0.01325628 0.00112888 0.00086204 0.00195848 0.00465120 0.00394521 0.02253681 0.00167405 0.00160550 0.05598252 0.00466960 0.00883198 0.00258390 0.00138054 
0.06081755 0.04310995 0.01292220 0.00117442 0.00087318 0.00194535 0.00463751 0.00395415 0.02209635 0.00166856 0.00157216 0.05541561 0.00462535 0.00889409 0.00270658 0.00139002 
0.05850476 0.04303909 0.01258270 0.00122351 0.00088509 0.00193159 0.00462046 0.00396340 0.02164451 0.00166320 0.00153728 0.05482515 0.00457909 0.00895146 0.00284251 0.00139921 
0.05618537 0.04292599 0.01223872 0.00127596 0.00089779 0.00191725 0.00460019 0.00397291 0.02118402 0.00165802 0.00150111 0.05421351 0.00453132 0.00900369 0.00299142 0.00140808 
0.05386983 0.04277070 0.01189120 0.00133158 0.00091126 0.00190240 0.00457687 0.00398261 0.02071774 0.00165310 0.00146391 0.05358313 0.00448255 0.00905039 0.00315300 0.00141660 
0.05156851 0.04257343 0.01154112 0.00139015 0.00092553 0.00188709 0.00455073 0.00399242 0.02024858 0.00164852 0.00142595 0.05293641 0.00443332 0.00909121 0.00332689 0.00142474 
0.04929157 0.04233460 0.01118944 0.00145141 0.00094058 0.00187138 0.00452198 0.00400227 0.01977951 0.00164433 0.00138753 0.05227578 0.00438414 0.00912584 0.00351265 0.00143248 
0.04704897 0.04205477 0.01083715 0.00151514 0.00095641 0.00185535 0.00449088 0.00401208 0.01931355 0.00164061 0.00134893 0.05160365 0.00433555 0.00915398 0.00370978 0.00143978 
0.04485035 0.04173470 0.01048522 0.00158106 0.00097300 0.00183904 0.00445771 0.00402177 0.01885376 0.00163742 0.00131049 0.05092239 0.00428808 0.00917538 0.00391776 0.00144662 
0.04270500 0.04137530 0.01013462 0.00164890 0.00099034 0.00182254 0.00442277 0.00403126 0.01840319 0.00163484 0.00127251 0.05023434 0.00424226 0.00918983 0.00413599 0.00145299 
0.04062182 0.04097768 0.00978631 0.00171838 0.00100840 0.00180589 0.00438636 0.00404048 0.01796486 0.00163293 0.00123533 0.04954178 0.00419861 0.00919716 0.00436383 0.00145886 
0.03860924 0.04054312 0.00944122 0.00178922 0.00102716 0.00178918 0.00434883 0.00404933 0.01754180 0.00163176 0.00119928 0.04884696 0.00415763 0.00919723 0.00460058 0.00146422 
0.03667519 0.04007307 0.00910026 0.00186111 0.00104658 0.00177246 0.00431052 0.00405774 0.01713696 0.00163137 0.00116470 0.04815204 0.00411982 0.00918995 0.00484551 0.00146905 
0.03482705 0.03956914 0.00876433 0.00193376 0.00106662 0.00175581 0.00427179 0.00406564 0.01675322 0.00163185 0.00113193 0.04745911 0.00408565 0.00917529 0.00509786 0.00147335 
0.03307160 0.03903311 0.00843428 0.00200687 0.00108725 0.00173928 0.00423301 0.00407295 0.01639340 0.00163323 0.00110131 0.04677018 0.00405558 0.00915325 0.00535681 0.00147711 
0.03141502 0.03846694 0.00811093 0.00208015 0.00110840 0.00172295 0.00419457 0.00407958 0.01606019 0.00163558 0.00107317 0.04608718 0.00403003 0.00912387 0.00562152 0.00148032 
0.02986281 0.03787271 0.00779505 0.00215328 0.00113003 0.00170687 0.00415684 0.00408548 0.01575615 0.00163894 0.00104786 0.04541194 0.00400939 0.00908726 0.00589112 0.00148298 
0.02841980 0.03725269 0.00748738 0.00222597 0.00115208 0.00169111 0.00412021 0.00409057 0.01548373 0.00164336 0.00102570 0.04474619 0.00399404 0.00904355 0.00616471 0.00148508 
0.02709011 0.03660924 0.00718862 0.00229793 0.00117447 0.00167573 0.00408508 0.00409478 0.01524518 0.00164888 0.00100701 0.04409158 0.00398430 0.00899295 0.00644137 0.00148664 
0.02587714 0.03594490 0.00689939 0.00236887 0.00119715 0.00166079 0.00405182 0.00409807 0.01504261 0.00165554 0.00099209 0.04344962 0.00398047 0.00893567 0.00672017 0.00148765 
0.02478356 0.03526231 0.00662030 0.00243853 0.00122004 0.00164634 0.00402083 0.00410036 0.01487793 0.00166337 0.00098124 0.04282177 0.00398282 0.00887202 0.00700016 0.00148812 
0.02381128 0.03456421 0.00635187 0.00250661 0.00124305 0.00163245 0.00399248 0.00410162 0.01475282 0.00167239 0.00097475 0.04220934 0.00399154 0.00880230 0.00728039 0.00148806 
0.02296149 0.03385348 0.00609458 0.00257289 0.00126612 0.00161915 0.00396714 0.00410179 0.01466878 0.00168263 0.00097287 0.04161355 0.00400682 0.00872690 0.00755991 0.00148748 
0.02223462 0.03313306 0.00584888 0.00263710 0.00128915 0.00160649 0.00394515 0.00410084 0.01462705 0.00169410 0.00097585 0.04103553 0.00402878 0.00864620 0.00783775 0.00148639 
0.02163037 0.03240597 0.00561512 0.00269902 0.00131205 0.00159453 0.00392687 0.00409873 0.01462866 0.00170681 0.00098391 0.04047630 0.00405751 0.00856066 0.00811297 0.00148481 
0.02114771 0.03167532 0.00539362 0.00275843 0.00133474 0.00158331 0.00391260 0.00409544 0.01467435 0.00172076 0.00099727 0.03993678 0.00409303 0.00847076 0.00838463 0.00148275 
0.02078492 0.03094424 0.00518463 0.00281515 0.00135713 0.00157285 0.00390265 0.00409093 0.01476464 0.00173596 0.00101608 0.03941778 0.00413534 0.00837700 0.00865182 0.00148024 
0.02053957 0.03021594 0.00498836 0.00286899 0.00137912 0.00156320 0.00389731 0.00408520 0.01489976 0.00175238 0.00104051 0.03892005 0.00418436 0.00827993 0.00891362 0.00147728 
0.02040859 0.02949363 0.00480495 0.00291979 0.00140062 0.00155439 0.00389683 0.00407824 0.01507969 0.00177002 0.00107069 0.03844423 0.00424000 0.00818011 0.00916916 0.00147391 
0.02038826 0.02878052 0.00463450 0.00296742 0.00142154 0.00154643 0.00390144 0.00407004 0.01530413 0.00178884 0.00110670 0.03799088 0.00430210 0.00807813 0.00941759 0.00147015 
0.02047427 0.02807985 0.00447702 0.00301176 0.00144178 0.00153935 0.00391133 0.00406061 0.01557250 0.00180882 0.00114862 0.03756048 0.00437045 0.00797461 0.00965809 0.00146601 
0.02066175 0.02739481 0.00433252 0.00305270 0.00146126 0.00153317 0.00392669 0.00404996 0.01588397 0.00182992 0.00119647 0.03715343 0.00444479 0.00787015 0.00988988 0.00146152 
0.02094530 0.02672858 0.00420092 0.00309019 0.00147987 0.00152789 0.00394765 0.00403810 0.01623742 0.00185210 0.00125028 0.03677009 0.00452484 0.00776541 0.01011223 0.00145671 
0.02131904 0.02608427 0.00408211 0.00312416 0.00149755 0.00152353 0.00397431 0.00402507 0.01663147 0.00187531 0.00131000 0.03641071 0.00461026 0.00766101 0.01032442 0.00145161 
0.02177667 0.02546495 0.00397592 0.00315458 0.00151421 0.00152008 0.00400674 0.00401089 0.01706449 0.00189948 0.00137558 0.03607552 0.00470066 0.00755760 0.01052582 0.00144623 
0.02231147 0.02487359 0.00388215 0.00318146 0.00152976 0.00151755 0.00404499 0.00399559 0.01753458 0.00192455 0.00144692 0.03576467 0.00479562 0.00745583 0.01071581 0.00144060 
0.02291641 0.02431308 0.00380055 0.00320481 0.00154413 0.00151592 0.00408904 0.00397922 0.01803962 0.00195045 0.00152391 0.03547829 0.00489470 0.00735633 0.01089386 0.00143476 
0.02358416 0.02378620 0.00373084 0.00322466 0.00155726 0.00151519 0.00413886 0.00396184 0.01857724 0.00197711 0.00160637 0.03521642 0.00499739 0.00725974 0.01105945 0.00142872 
0.02430718 0.02329560 0.00367268 0.00324109 0.00156908 0.00151533 0.00419438 0.00394348 0.01914486 0.00200444 0.00169412 0.03497911 0.00510317 0.00716667 0.01121216 0.00142252 
0.02507770 0.02284379 0.00362573 0.00325417 0.00157954 0.00151633 0.00425546 0.00392422 0.01973969 0.00203235 0.00178694 0.03476634 0.00521150 0.00707773 0.01135160 0.00141617 
0.02588788 0.02243315 0.00358960 0.00326400 0.00158858 0.00151816 0.00432197 0.00390412 0.02035875 0.00206074 0.00188456 0.03457807 0.00532180 0.00699348 0.01147745 0.00140972 
0.02672977 0.02206588 0.00356387 0.00327072 0.00159617 0.00152080 0.00439370 0.00388325 0.02099891 0.00208953 0.00198671 0.03441423 0.00543348 0.00691447 0.01158945 0.00140317 
0.02759540 0.02174400 0.00354810 0.00327447 0.00160226 0.00152419 0.00447043 0.00386168 0.02165684 0.00211859 0.00209306 0.03427471 0.00554592 0.00684125 0.01168741 0.00139656 
0.02847686 0.02146936 0.00354182 0.00327540 0.00160685 0.00152832 0.00455190 0.00383949 0.02232912 0.00214784 0.00220328 0.03415940 0.00565849 0.00677428 0.01177117 0.00138991 
0.02936631 0.02124360 0.00354457 0.00327370 0.00160990 0.00153314 0.00463779 0.00381678 0.02301220 0.00217715 0.00231698 0.03406813 0.00577057 0.00671404 0.01184068 0.00138324 
0.03025604 0.02106815 0.00355585 0.00326957 0.00161142 0.00153860 0.00472777 0.00379362 0.02370241 0.00220641 0.00243378 0.03400076 0.00588152 0.00666093 0.01189591 0.00137658 
0.03113855 0.02094423 0.00357513 0.00326320 0.00161140 0.00154465 0.00482147 0.00377010 0.02439605 0.00223551 0.00255325 0.03395707 0.00599069 0.00661534 0.01193691 0.00136995 
0.03200655 0.02087284 0.00360191 0.00325483 0.00160986 0.00155125 0.00491849 0.00374633 0.02508933 0.00226433 0.00267496 0.03393685 0.00609744 0.00657758 0.01196379 0.00136337 
0.03285305 0.02085473 0.00363566 0.00324469 0.00160682 0.00155834 0.00501840 0.00372239 0.02577848 0.00229275 0.00279844 0.03393986 0.00620116 0.00654794 0.01197672 0.00135685 
0.03367137 0.02089042 0.00367585 0.00323302 0.00160230 0.00156588 0.00512074 0.00369840 0.02645968 0.00232065 0.00292322 0.03396585 0.00630121 0.00652667 0.01197593 0.00135042 
0.03445519 0.02098018 0.00372194 0.00322006 0.00159636 0.00157379 0.00522503 0.00367444 0.02712915 0.00234791 0.00304880 0.03401451 0.00639701 0.00651392 0.01196169 0.00134409 
0.03519861 0.02112406 0.00377340 0.00320609 0.00158905 0.00158202 0.00533076 0.00365062 0.02778315 0.00237442 0.00317469 0.03408553 0.00648796 0.00650985 0.01193434 0.00133788 
0.03589615 0.02132181 0.00382970 0.00319135 0.00158042 0.00159052 0.00543740 0.00362705 0.02841802 0.00240005 0.00330037 0.03417856 0.00657352 0.00651452 0.01189428 0.00133181 
0.03654279 0.02157297 0.00389031 0.00317611 0.00157054 0.00159921 0.00554443 0.00360383 0.02903016 0.00242470 0.00342531 0.03429322 0.00665316 0.00652796 0.01184193 0.00132588 
0.03713401 0.02187680 0.00395472 0.00316063 0.00155950 0.00160805 0.00565127 0.00358107 0.02961610 0.00244826 0.00354901 0.03442908 0.00672637 0.00655013 0.01177778 0.00132012 
0.03766580 0.02223233 0.00402242 0.00314518 0.00154738 0.00161697 0.00575738 0.00355887 0.03017250 0.00247063 0.00367092 0.03458568 0.00679270 0.00658094 0.01170237 0.00131452 
0.03813468 0.02263833 0.00409291 0.00313001 0.00153427 0.00162591 0.00586218 0.00353734 0.03069616 0.00249169 0.00379054 0.03476251 0.00685172 0.00662025 0.01161625 0.00130911 
0.03853774 0.02309332 0.00416571 0.00311537 0.00152030 0.00163481 0.00596509 0.00351659 0.03118406 0.00251136 0.00390734 0.03495901 0.00690306 0.00666787 0.01152003 0.00130388 
0.03887261 0.02359558 0.00424034 0.00310152 0.00150556 0.00164360 0.00606555 0.00349672 0.03163338 0.00252956 0.00402082 0.03517458 0.00694637 0.00672353 0.01141436 0.00129885 
0.03913748 0.02414317 0.00431636 0.00308868 0.00149017 0.00165225 0.00616298 0.00347783 0.03204149 0.00254619 0.00413048 0.03540856 0.00698136 0.00678694 0.01129991 0.00129402 
0.03933113 0.02473390 0.00439332 0.00307710 0.00147427 0.00166067 0.00625683 0.00346003 0.03240599 0.00256118 0.00423583 0.03566020 0.00700779 0.00685774 0.01117738 0.00128939 
0.03945291 0.02536538 0.00447081 0.00306697 0.00145798 0.00166884 0.00634655 0.00344342 0.03272473 0.00257448 0.00433641 0.03592873 0.00702548 0.00693553 0.01104748 0.00128498 
0.03950272 0.02603500 0.00454843 0.00305850 0.00144143 0.00167668 0.00643160 0.00342809 0.03299580 0.00258602 0.00443176 0.03621329 0.00703427 0.00701986 0.01091097 0.00128077 
0.03948103 0.02673995 0.00462580 0.00305189 0.00142477 0.00168416 0.00651148 0.00341413 0.03321755 0.00259575 0.00452147 0.03651295 0.00703409 0.00711023 0.01076859 0.00127678 
0.03938885 0.02747724 0.00470257 0.00304729 0.00140814 0.00169123 0.00658569 0.00340165 0.03338861 0.00260365 0.00460512 0.03682672 0.00702490 0.00720611 0.01062113 0.00127301 
0.03922772 0.02824371 0.00477841 0.00304485 0.00139168 0.00169784 0.00665377 0.00339072 0.03350789 0.00260968 0.00468234 0.03715353 0.00700672 0.00730693 0.01046936 0.00126945 
0.03899968 0.02903604 0.00485299 0.00304472 0.00137555 0.00170396 0.00671529 0.00338144 0.03357458 0.00261382 0.00475279 0.03749223 0.00697964 0.00741208 0.01031406 0.00126609 
0.03870727 0.02985077 0.00492605 0.00304700 0.00135987 0.00170955 0.00676985 0.00337388 0.03358817 0.00261609 0.00481615 0.03784161 0.00694379 0.00752092 0.01015604 0.00126295 
0.03835349 0.03068430 0.00499731 0.00305179 0.00134481 0.00171459 0.00681708 0.00336812 0.03354844 0.00261647 0.00487214 0.03820038 0.00689935 0.00763279 0.00999607 0.00126001 
0.03794175 0.03153295 0.00506653 0.00305916 0.00133050 0.00171903 0.00685667 0.00336423 0.03345547 0.00261498 0.00492052 0.03856717 0.00684656 0.00774701 0.00983494 0.00125728 
0.03747588 0.03239292 0.00513350 0.00306916 0.00131709 0.00172288 0.00688833 0.00336228 0.03330961 0.00261167 0.00496106 0.03894056 0.00678572 0.00786286 0.00967342 0.00125474 
0.03696008 0.03326035 0.00519803 0.00308180 0.00130471 0.00172610 0.00691183 0.00336232 0.03311152 0.00260657 0.00499361 0.03931905 0.00671716 0.00797963 0.00951228 0.00125239 
0.03639884 0.03413132 0.00525995 0.00309711 0.00129350 0.00172868 0.00692699 0.00336442 0.03286215 0.00259972 0.00501803 0.03970107 0.00664128 0.00809660 0.00935226 0.00125023 
0.03579700 0.03500191 0.00531912 0.00311505 0.00128358 0.00173061 0.00693367 0.00336863 0.03256271 0.00259120 0.00503423 0.04008501 0.00655852 0.00821302 0.00919411 0.00124825 
0.03515960 0.03586814 0.00537541 0.00313559 0.00127509 0.00173190 0.00693178 0.00337497 0.03221468 0.00258108 0.00504215 0.04046921 0.00646935 0.00832817 0.00903852 0.00124645 
0.03449192 0.03672607 0.00542874 0.00315866 0.00126813 0.00173253 0.00692129 0.00338351 0.03181981 0.00256944 0.00504179 0.04085197 0.00637429 0.00844132 0.00888620 0.00124481 
0.03379939 0.03757177 0.00547902 0.00318418 0.00126281 0.00173253 0.00690223 0.00339425 0.03138010 0.00255639 0.00503318 0.04123154 0.00627390 0.00855176 0.00873782 0.00124333 
0.03308759 0.03840139 0.00552621 0.00321203 0.00125922 0.00173189 0.00687469 0.00340723 0.03089776 0.00254202 0.00501639 0.04160616 0.00616877 0.00865878 0.00859402 0.00124200 
0.03236215 0.03921110 0.00557028 0.00324210 0.00125747 0.00173064 0.00683879 0.00342245 0.03037525 0.00252646 0.00499153 0.04197406 0.00605953 0.00876170 0.00845541 0.00124082 
0.03162878 0.03999722 0.00561121 0.00327422 0.00125763 0.00172880 0.00679474 0.00343994 0.02981522 0.00250982 0.00495876 0.04233346 0.00594681 0.00885986 0.00832258 0.00123978 
0.03089315 0.04075613 0.00564901 0.00330824 0.00125976 0.00172639 0.00674278 0.00345968 0.02922049 0.00249224 0.00491827 0.04268261 0.00583130 0.00895262 0.00819609 0.00123886 
0.03016090 0.04148436 0.00568372 0.00334396 0.00126392 0.00172343 0.00668323 0.00348167 0.02859407 0.00247386 0.00487031 0.04301977 0.00571368 0.00903939 0.00807647 0.00123807 
0.02943759 0.04217860 0.00571538 0.00338118 0.00127016 0.00171997 0.00661645 0.00350590 0.02793912 0.00245482 0.00481513 0.04334325 0.00559465 0.00911961 0.00796420 0.00123740 
0.02872865 0.04283570 0.00574406 0.00341968 0.00127851 0.00171604 0.00654285 0.00353234 0.02725892 0.00243528 0.00475305 0.04365140 0.00547492 0.00919276 0.00785975 0.00123683 
0.02803934 0.04345270 0.00576983 0.00345922 0.00128898 0.00171169 0.00646293 0.00356096 0.02655686 0.00241539 0.00468441 0.04394266 0.00535522 0.00925835 0.00776353 0.00123636 
0.02737472 0.04402682 0.00579280 0.00349957 0.00130159 0.00170695 0.00637719 0.00359171 0.02583643 0.00239532 0.00460959 0.04421556 0.00523625 0.00931596 0.00767596 0.00123600 
0.02673962 0.04455554 0.00581306 0.00354045 0.00131633 0.00170188 0.00628622 0.00362456 0.02510117 0.00237522 0.00452898 0.04446873 0.00511874 0.00936521 0.00759737 0.00123572 
0.02613859 0.04503653 0.00583075 0.00358160 0.00133317 0.00169653 0.00619064 0.00365944 0.02435469 0.00235526 0.00444303 0.04470091 0.00500339 0.00940577 0.00752810 0.00123552 
0.02557588 0.04546774 0.00584599 0.00362275 0.00135208 0.00169096 0.00609111 0.00369629 0.02360060 0.00233561 0.00435220 0.04491099 0.00489090 0.00943738 0.00746843 0.00123540 
0.02505541 0.04584737 0.00585893 0.00366361 0.00137302 0.00168522 0.00598836 0.00373503 0.02284254 0.00231642 0.00425696 0.04509802 0.00478194 0.00945983 0.00741862 0.00123535 
0.02458077 0.04617389 0.00586972 0.00370390 0.00139593 0.00167937 0.00588312 0.00377559 0.02208411 0.00229788 0.00415782 0.04526122 0.00467717 0.00947296 0.00737890 0.00123537 
0.02415513 0.04644603 0.00587852 0.00374332 0.00142072 0.00167347 0.00577619 0.00381788 0.02132890 0.00228013 0.00405531 0.04540000 0.00457721 0.00947668 0.00734944 0.00123545 
0.02378132 0.04666285 0.00588550 0.00378159 0.00144732 0.00166760 0.00566837 0.00386179 0.02058042 0.00226334 0.00394995 0.04551398 0.00448268 0.00947097 0.00733041 0.00123559 
0.02346170 0.04682365 0.00589082 0.00381842 0.00147562 0.00166181 0.00556051 0.00390723 0.01984210 0.00224765 0.00384230 0.04560298 0.00439413 0.00945586 0.00732194 0.00123578 
0.02319825 0.04692808 0.00589465 0.00385353 0.00150552 0.00165616 0.00545347 0.00395408 0.01911731 0.00223322 0.00373291 0.04566708 0.00431211 0.00943146 0.00732411 0.00123603 
0.02299250 0.04697605 0.00589719 0.00388662 0.00153689 0.00165074 0.00534813 0.00400224 0.01840927 0.00222019 0.00362235 0.04570661 0.00423711 0.00939792 0.00733701 0.00123632 
0.02284555 0.04696780 0.00589860 0.00391744 0.00156960 0.00164560 0.00524540 0.00405156 0.01772109 0.00220869 0.00351117 0.04572213 0.00416958 0.00935547 0.00736065 0.00123666 
0.02275803 0.04690386 0.00589906 0.00394572 0.00160350 0.00164081 0.00514616 0.00410192 0.01705573 0.00219885 0.00339995 0.04571451 0.00410992 0.00930440 0.00739507 0.00123705 
0.02273016 0.04678505 0.00589875 0.00397120 0.00163845 0.00163645 0.00505134 0.00415320 0.01641599 0.00219077 0.00328923 0.04568488 0.00405850 0.00924505 0.00744023 0.00123748 
0.02276170 0.04661250 0.00589785 0.00399364 0.00167428 0.00163257 0.00496183 0.00420524 0.01580450 0.00218457 0.00317958 0.04563467 0.00401563 0.00917784 0.00749610 0.00123795 
0.02285200 0.04638762 0.00589652 0.00401282 0.00171081 0.00162924 0.00487853 0.00425790 0.01522370 0.00218035 0.00307154 0.04556558 0.00398157 0.00910321 0.00756262 0.00123847 
0.02299997 0.04611211 0.00589494 0.00402853 0.00174788 0.00162653 0.00480234 0.00431103 0.01467583 0.00217818 0.00296563 0.04547963 0.00395652 0.00902169 0.00763969 0.00123903 
0.02320411 0.04578793 0.00589326 0.00404057 0.00178531 0.00162451 0.00473412 0.00436448 0.01416294 0.00217813 0.00286237 0.04537915 0.00394064 0.00893384 0.00772722 0.00123963 
0.02346254 0.04541731 0.00589164 0.00404877 0.00182290 0.00162323 0.00467472 0.00441810 0.01368686 0.00218026 0.00276224 0.04526675 0.00393402 0.00884027 0.00782506 0.00124027 
0.02377301 0.04500272 0.00589023 0.00405298 0.00186047 0.00162276 0.00462496 0.00447172 0.01324919 0.00218463 0.00266573 0.04514533 0.00393673 0.00874165 0.00793306 0.00124096 
0.02413290 0.04454688 0.00588917 0.00405305 0.00189782 0.00162315 0.00458563 0.00452518 0.01285131 0.00219125 0.00257328 0.04501811 0.00394873 0.00863866 0.00805106 0.00124170 
0.02453928 0.04405272 0.00588860 0.00404888 0.00193476 0.00162445 0.00455748 0.00457834 0.01249438 0.00220015 0.00248531 0.04488858 0.00396998 0.00853205 0.00817888 0.00124248 
0.02498890 0.04352337 0.00588863 0.00404039 0.00197109 0.00162674 0.00454122 0.00463102 0.01217930 0.00221132 0.00240223 0.04476050 0.00400035 0.00842258 0.00831629 0.00124332 
0.02547824 0.04296214 0.00588938 0.00402750 0.00200662 0.00163004 0.00453752 0.00468306 0.01190677 0.00222477 0.00232438 0.04463790 0.00403967 0.00831104 0.00846308 0.00124420 
0.02600356 0.04237253 0.00589096 0.00401017 0.00204116 0.00163442 0.00454699 0.00473431 0.01167725 0.00224046 0.00225210 0.04452505 0.00408773 0.00819825 0.00861902 0.00124514 
0.02656087 0.04175816 0.00589346 0.00398839 0.00207452 0.00163991 0.00457018 0.00478462 0.01149095 0.00225836 0.00218569 0.04442647 0.00414425 0.00808504 0.00878384 0.00124614 
0.02714601 0.04112279 0.00589696 0.00396217 0.00210651 0.00164657 0.00460761 0.00483382 0.01134786 0.00227841 0.00212541 0.04434686 0.00420892 0.00797227 0.00895729 0.00124720 
0.02775469 0.04047028 0.00590154 0.00393154 0.00213695 0.00165442 0.00465969 0.00488176 0.01124777 0.00230055 0.00207149 0.04429113 0.00428137 0.00786077 0.00913906 0.00124832 
0.02838248 0.03980458 0.00590727 0.00389657 0.00216566 0.00166349 0.00472682 0.00492830 0.01119021 0.00232470 0.00202412 0.04426434 0.00436120 0.00775141 0.00932887 0.00124950 
0.02902490 0.03912967 0.00591419 0.00385734 0.00219249 0.00167383 0.00480929 0.00497330 0.01117454 0.00235077 0.00198344 0.04427172 0.00444796 0.00764504 0.00952639 0.00125076 
0.02967741 0.03844961 0.00592235 0.00381397 0.00221728 0.00168546 0.00490734 0.00501662 0.01119989 0.00237865 0.00194957 0.04431855 0.00454116 0.00754251 0.00973131 0.00125208 
0.03033545 0.03776844 0.00593178 0.00376658 0.00223987 0.00169841 0.00502113 0.00505812 0.01126520 0.00240824 0.00192258 0.04441024 0.00464029 0.00744464 0.00994327 0.00125348 
0.03099450 0.03709020 0.00594251 0.00371534 0.00226012 0.00171268 0.00515074 0.00509768 0.01136922 0.00243940 0.00190251 0.04455222 0.00474480 0.00735226 0.01016192 0.00125496 
0.03165011 0.03641890 0.00595455 0.00366043 0.00227792 0.00172830 0.00529618 0.00513518 0.01151054 0.00247201 0.00188936 0.04474993 0.00485411 0.00726614 0.01038689 0.00125652 
0.03229791 0.03575851 0.00596792 0.00360205 0.00229315 0.00174528 0.00545740 0.00517052 0.01168757 0.00250591 0.00188308 0.04500878 0.00496763 0.00718706 0.01061779 0.00125815 
0.03293366 0.03511288 0.00598259 0.00354044 0.00230570 0.00176362 0.00563423 0.00520358 0.01189857 0.00254096 0.00188360 0.04533414 0.00508472 0.00711573 0.01085421 0.00125988 
0.03355328 0.03448580 0.00599858 0.00347583 0.00231548 0.00178334 0.00582647 0.00523427 0.01214168 0.00257700 0.00189081 0.04573124 0.00520475 0.00705285 0.01109575 0.00126169 
0.03415286 0.03388092 0.00601587 0.00340849 0.00232243 0.00180442 0.00603380 0.00526251 0.01241488 0.00261386 0.00190456 0.04620521 0.00532708 0.00699906 0.01134196 0.00126358 
0.03472875 0.03330177 0.00603443 0.00333871 0.00232648 0.00182687 0.00625585 0.00528822 0.01271605 0.00265137 0.00192466 0.04676096 0.00545104 0.00695497 0.01159241 0.00126557 
0.03527750 0.03275170 0.00605423 0.00326678 0.00232759 0.00185067 0.00649217 0.00531132 0.01304298 0.00268936 0.00195090 0.04740322 0.00557597 0.00692112 0.01184662 0.00126765 
0.03579594 0.03223388 0.00607526 0.00319302 0.00232573 0.00187581 0.00674222 0.00533177 0.01339337 0.00272765 0.00198305 0.04813642 0.00570120 0.00689802 0.01210412 0.00126982 
0.03628120 0.03175131 0.00609747 0.00311774 0.00232088 0.00190227 0.00700542 0.00534951 0.01376483 0.00276607 0.00202082 0.04896471 0.00582607 0.00688609 0.01236441 0.00127208 
0.03673070 0.03130675 0.00612083 0.00304128 0.00231305 0.00193003 0.00728107 0.00536451 0.01415493 0.00280443 0.00206392 0.04989190 0.00594992 0.00688571 0.01262699 0.00127443 
0.03714222 0.03090276 0.00614532 0.00296399 0.00230225 0.00195907 0.00756846 0.00537672 0.01456118 0.00284255 0.00211203 0.05092142 0.00607210 0.00689721 0.01289133 0.00127688 
0.03751386 0.03054165 0.00617088 0.00288621 0.00228852 0.00198935 0.00786677 0.00538614 0.01498108 0.00288026 0.00216480 0.05205629 0.00619197 0.00692082 0.01315688 0.00127942 
0.03784407 0.03022547 0.00619748 0.00280829 0.00227192 0.00202083 0.00817514 0.00539275 0.01541210 0.00291738 0.00222187 0.05329907 0.00630892 0.00695674 0.01342309 0.00128204 
0.03813168 0.02995604 0.00622510 0.00273059 0.00225249 0.00205349 0.00849265 0.00539655 0.01585171 0.00295375 0.00228286 0.05465184 0.00642234 0.00700506 0.01368939 0.00128476 
0.03837589 0.02973489 0.00625370 0.00265347 0.00223033 0.00208727 0.00881833 0.00539755 0.01629737 0.00298919 0.00234737 0.05611616 0.00653165 0.00706584 0.01395520 0.00128756 
0.03857628 0.02956330 0.00628325 0.00257728 0.00220553 0.00212213 0.00915115 0.00539577 0.01674660 0.00302355 0.00241499 0.05769306 0.00663631 0.00713904 0.01421991 0.00129044 
0.03873282 0.02944223 0.00631372 0.00250237 0.00217820 0.00215801 0.00949005 0.00539123 0.01719692 0.00305667 0.00248531 0.05938298 0.00673578 0.00722456 0.01448292 0.00129340 
0.03884584 0.02937241 0.00634511 0.00242908 0.00214847 0.00219486 0.00983393 0.00538396 0.01764592 0.00308842 0.00255791 0.06118576 0.00682956 0.00732224 0.01474360 0.00129644 
0.03891605 0.02935427 0.00637739 0.00235774 0.00211647 0.00223262 0.01018166 0.00537402 0.01809124 0.00311864 0.00263235 0.06310065 0.00691719 0.00743182 0.01500132 0.00129955 
0.03894456 0.02938793 0.00641057 0.00228869 0.00208235 0.00227123 0.01053206 0.00536145 0.01853058 0.00314722 0.00270822 0.06512623 0.00699824 0.00755300 0.01525544 0.00130273 
0.03893282 0.02947329 0.00644463 0.00222224 0.00204628 0.00231062 0.01088396 0.00534631 0.01896173 0.00317404 0.00278509 0.06726047 0.00707231 0.00768540 0.01550531 0.00130597 
0.03888262 0.02960991 0.00647960 0.00215869 0.00200842 0.00235071 0.01123616 0.00532866 0.01938256 0.00319900 0.00286252 0.06950064 0.00713904 0.00782856 0.01575028 0.00130927 
0.03879613 0.02979715 0.00651547 0.00209831 0.00196896 0.00239142 0.01158744 0.00530858 0.01979106 0.00322199 0.00294012 0.07184337 0.00719811 0.00798198 0.01598969 0.00131262 
0.03867580 0.03003405 0.00655229 0.00204138 0.00192809 0.00243269 0.01193659 0.00528614 0.02018529 0.00324295 0.00301746 0.07428464 0.00724923 0.00814508 0.01622288 0.00131601 
0.03852442 0.03031943 0.00659008 0.00198815 0.00188601 0.00247442 0.01228241 0.00526143 0.02056346 0.00326179 0.00309417 0.07681973 0.00729217 0.00831722 0.01644920 0.00131944 
0.03834506 0.03065185 0.00662888 0.00193883 0.00184292 0.00251653 0.01262368 0.00523454 0.02092387 0.00327847 0.00316985 0.07944329 0.00732672 0.00849772 0.01666798 0.00132290 
0.03814105 0.03102967 0.00666874 0.00189365 0.00179905 0.00255893 0.01295922 0.00520555 0.02126497 0.00329294 0.00324415 0.08214932 0.00735271 0.00868584 0.01687859 0.00132638 
0.03791597 0.03145101 0.00670972 0.00185277 0.00175460 0.00260153 0.01328787 0.00517457 0.02158533 0.00330518 0.00331671 0.08493120 0.00737003 0.00888079 0.01708039 0.00132987 
0.03767363 0.03191378 0.00675188 0.00181637 0.00170980 0.00264422 0.01360848 0.00514168 0.02188366 0.00331516 0.00338721 0.08778168 0.00737859 0.00908172 0.01727275 0.00133337 
0.03741801 0.03241571 0.00679530 0.00178457 0.00166487 0.00268691 0.01391994 0.00510700 0.02215881 0.00332289 0.00345535 0.09069294 0.00737836 0.00928777 0.01745506 0.00133686 
0.03715329 0.03295438 0.00684005 0.00175749 0.00162003 0.00272950 0.01422118 0.00507062 0.02240978 0.00332838 0.00352084 0.09365663 0.00736932 0.00949804 0.01762672 0.00134034 
0.03688377 0.03352719 0.00688623 0.00173521 0.00157550 0.00277189 0.01451119 0.00503266 0.02263572 0.00333167 0.00358343 0.09666385 0.00735152 0.00971157 0.01778717 0.00134380 
0.03661386 0.03413140 0.00693391 0.00171779 0.00153151 0.00281396 0.01478897 0.00499321 0.02283592 0.00333277 0.00364289 0.09970524 0.00732503 0.00992742 0.01793587 0.00134722 
0.03634807 0.03476419 0.00698320 0.00170525 0.00148828 0.00285561 0.01505361 0.00495239 0.02300982 0.00333177 0.00369902 0.10277100 0.00728997 0.01014460 0.01807230 0.00135060 
