0.05308956 0.01957077 0.01562523 0.00125492 0.00235987 0.00153310 0.00735101 0.00351698 0.01978652 0.00233626 0.00229714 0.03522101 0.00354998 0.00462216 0.00559891 0.00135241 
0.05405016 0.02018889 0.01560191 0.00128257 0.00233282 0.00150882 0.00729845 0.00357293 0.01959659 0.00236149 0.00230831 0.03614168 0.00355258 0.00466271 0.00563137 0.00135123 
0.05495965 0.02084621 0.01556871 0.00131122 0.00230363 0.00148497 0.00724235 0.00363144 0.01943488 0.00238504 0.00231919 0.03707790 0.00355235 0.00470165 0.00566312 0.00134997 
0.05581296 0.02154052 0.01552547 0.00134074 0.00227244 0.00146161 0.00718256 0.00369219 0.01930209 0.00240678 0.00232961 0.03802631 0.00354927 0.00473860 0.00569372 0.00134865 
0.05660537 0.02226936 0.01547209 0.00137101 0.00223941 0.00143883 0.00711899 0.00375486 0.01919886 0.00242662 0.00233937 0.03898340 0.00354337 0.00477321 0.00572274 0.00134726 
0.05733252 0.02303004 0.01540850 0.00140192 0.00220470 0.00141672 0.00705155 0.00381912 0.01912575 0.00244449 0.00234833 0.03994554 0.00353469 0.00480512 0.00574971 0.00134583 
0.05799045 0.02381965 0.01533467 0.00143335 0.00216847 0.00139535 0.00698018 0.00388463 0.01908323 0.00246030 0.00235630 0.04090897 0.00352330 0.00483395 0.00577419 0.00134435 
0.05857562 0.02463506 0.01525060 0.00146515 0.00213090 0.00137481 0.00690485 0.00395105 0.01907168 0.00247398 0.00236313 0.04186987 0.00350928 0.00485937 0.00579574 0.00134284 
0.05908498 0.02547297 0.01515632 0.00149721 0.00209215 0.00135516 0.00682557 0.00401804 0.01909139 0.00248550 0.00236869 0.04282434 0.00349275 0.00488101 0.00581392 0.00134129 
0.05951590 0.02632990 0.01505192 0.00152939 0.00205240 0.00133647 0.00674238 0.00408526 0.01914256 0.00249480 0.00237283 0.04376844 0.00347384 0.00489855 0.00582830 0.00133974 
0.05986629 0.02720221 0.01493751 0.00156156 0.00201183 0.00131881 0.00665531 0.00415237 0.01922526 0.00250185 0.00237542 0.04469822 0.00345271 0.00491167 0.00583846 0.00133817 
0.06013455 0.02808615 0.01481325 0.00159359 0.00197060 0.00130224 0.00656447 0.00421904 0.01933947 0.00250664 0.00237636 0.04560972 0.00342953 0.00492005 0.00584403 0.00133660 
0.06031962 0.02897783 0.01467933 0.00162535 0.00192890 0.00128681 0.00646998 0.00428493 0.01948503 0.00250916 0.00237555 0.04649905 0.00340450 0.00492341 0.00584463 0.00133504 
0.06042095 0.02987330 0.01453601 0.00165671 0.00188688 0.00127258 0.00637196 0.00434973 0.01966167 0.00250943 0.00237289 0.04736233 0.00337781 0.00492148 0.00583992 0.00133350 
0.06043855 0.03076852 0.01438355 0.00168753 0.00184472 0.00125959 0.00627059 0.00441313 0.01986899 0.00250745 0.00236832 0.04819582 0.00334971 0.00491402 0.00582958 0.00133198 
0.06037297 0.03165940 0.01422227 0.00171770 0.00180259 0.00124788 0.00616607 0.00447483 0.02010647 0.00250327 0.00236178 0.04899584 0.00332042 0.00490082 0.00581333 0.00133050 
0.06022530 0.03254186 0.01405254 0.00174708 0.00176063 0.00123750 0.00605862 0.00453455 0.02037345 0.00249692 0.00235321 0.04975887 0.00329019 0.00488167 0.00579093 0.00132906 
0.05999717 0.03341179 0.01387475 0.00177556 0.00171900 0.00122848 0.00594847 0.00459202 0.02066912 0.00248846 0.00234260 0.05048154 0.00325928 0.00485643 0.00576218 0.00132768 
0.05969072 0.03426512 0.01368932 0.00180302 0.00167785 0.00122084 0.00583590 0.00464698 0.02099257 0.00247795 0.00232992 0.05116069 0.00322796 0.00482496 0.00572690 0.00132635 
0.05930862 0.03509782 0.01349674 0.00182936 0.00163732 0.00121460 0.00572118 0.00469920 0.02134272 0.00246548 0.00231518 0.05179333 0.00319651 0.00478718 0.00568499 0.00132509 
0.05885404 0.03590594 0.01329751 0.00185445 0.00159754 0.00120979 0.00560463 0.00474845 0.02171838 0.00245113 0.00229839 0.05237673 0.00316519 0.00474302 0.00563636 0.00132391 
0.05833062 0.03668563 0.01309215 0.00187822 0.00155864 0.00120641 0.00548656 0.00479454 0.02211823 0.00243499 0.00227957 0.05290839 0.00313428 0.00469246 0.00558099 0.00132280 
0.05774245 0.03743313 0.01288124 0.00190056 0.00152072 0.00120447 0.00536732 0.00483729 0.02254079 0.00241717 0.00225878 0.05338611 0.00310407 0.00463552 0.00551890 0.00132177 
0.05709408 0.03814485 0.01266537 0.00192138 0.00148390 0.00120398 0.00524723 0.00487653 0.02298448 0.00239778 0.00223607 0.05380795 0.00307483 0.00457226 0.00545017 0.00132083 
0.05639043 0.03881735 0.01244517 0.00194062 0.00144828 0.00120492 0.00512668 0.00491212 0.02344760 0.00237695 0.00221151 0.05417231 0.00304682 0.00450279 0.00537493 0.00131999 
0.05563680 0.03944736 0.01222126 0.00195819 0.00141393 0.00120730 0.00500602 0.00494395 0.02392832 0.00235480 0.00218517 0.05447787 0.00302032 0.00442722 0.00529336 0.00131923 
0.05483883 0.04003182 0.01199432 0.00197405 0.00138094 0.00121109 0.00488563 0.00497192 0.02442471 0.00233146 0.00215716 0.05472368 0.00299557 0.00434576 0.00520570 0.00131857 
0.05400246 0.04056788 0.01176503 0.00198814 0.00134937 0.00121628 0.00476588 0.00499595 0.02493473 0.00230707 0.00212758 0.05490914 0.00297281 0.00425863 0.00511224 0.00131801 
0.05313386 0.04105293 0.01153408 0.00200042 0.00131928 0.00122284 0.00464717 0.00501598 0.02545625 0.00228178 0.00209655 0.05503399 0.00295229 0.00416608 0.00501331 0.00131755 
0.05223945 0.04148462 0.01130218 0.00201086 0.00129071 0.00123075 0.00452986 0.00503197 0.02598706 0.00225573 0.00206419 0.05509832 0.00293421 0.00406843 0.00490933 0.00131717 
0.05132583 0.04186084 0.01107004 0.00201944 0.00126370 0.00123997 0.00441433 0.00504391 0.02652488 0.00222906 0.00203064 0.05510262 0.00291878 0.00396603 0.00480074 0.00131689 
0.05039970 0.04217977 0.01083837 0.00202615 0.00123826 0.00125047 0.00430096 0.00505180 0.02706735 0.00220192 0.00199604 0.05504773 0.00290617 0.00385926 0.00468803 0.00131670 
0.04946787 0.04243987 0.01060789 0.00203099 0.00121441 0.00126219 0.00419011 0.00505565 0.02761207 0.00217447 0.00196054 0.05493487 0.00289655 0.00374856 0.00457177 0.00131660 
0.04853718 0.04263991 0.01037933 0.00203396 0.00119216 0.00127511 0.00408214 0.00505551 0.02815658 0.00214685 0.00192429 0.05476560 0.00289006 0.00363440 0.00445254 0.00131657 
0.04761449 0.04277895 0.01015337 0.00203510 0.00117149 0.00128915 0.00397739 0.00505142 0.02869843 0.00211921 0.00188746 0.05454186 0.00288682 0.00351728 0.00433100 0.00131662 
0.04670657 0.04285636 0.00993073 0.00203444 0.00115238 0.00130428 0.00387620 0.00504347 0.02923512 0.00209168 0.00185020 0.05426594 0.00288693 0.00339774 0.00420782 0.00131673 
0.04582014 0.04287182 0.00971209 0.00203202 0.00113481 0.00132043 0.00377888 0.00503173 0.02976416 0.00206442 0.00181269 0.05394048 0.00289045 0.00327636 0.00408373 0.00131690 
0.04496175 0.04282533 0.00949811 0.00202790 0.00111874 0.00133754 0.00368574 0.00501630 0.03028308 0.00203755 0.00177510 0.05356841 0.00289744 0.00315374 0.00395950 0.00131713 
0.04413777 0.04271721 0.00928944 0.00202214 0.00110412 0.00135554 0.00359705 0.00499729 0.03078943 0.00201121 0.00173759 0.05315302 0.00290791 0.00303051 0.00383591 0.00131739 
0.04335436 0.04254807 0.00908670 0.00201482 0.00109090 0.00137437 0.00351309 0.00497483 0.03128079 0.00198552 0.00170033 0.05269785 0.00292187 0.00290734 0.00371378 0.00131768 
0.04261739 0.04231885 0.00889048 0.00200603 0.00107901 0.00139396 0.00343409 0.00494905 0.03175481 0.00196061 0.00166350 0.05220675 0.00293927 0.00278491 0.00359397 0.00131799 
0.04193245 0.04203078 0.00870136 0.00199586 0.00106839 0.00141423 0.00336027 0.00492009 0.03220920 0.00193657 0.00162725 0.05168378 0.00296007 0.00266392 0.00347734 0.00131831 
0.04130477 0.04168539 0.00851987 0.00198442 0.00105896 0.00143511 0.00329183 0.00488811 0.03264175 0.00191353 0.00159176 0.05113326 0.00298419 0.00254508 0.00336476 0.00131863 
0.04073920 0.04128449 0.00834649 0.00197183 0.00105064 0.00145652 0.00322894 0.00485325 0.03305034 0.00189156 0.00155718 0.05055970 0.00301151 0.00242914 0.00325713 0.00131893 
0.04024019 0.04083018 0.00818169 0.00195820 0.00104334 0.00147837 0.00317176 0.00481568 0.03343297 0.00187077 0.00152366 0.04996777 0.00304190 0.00231682 0.00315535 0.00131920 
0.03981175 0.04032480 0.00802589 0.00194367 0.00103696 0.00150059 0.00312040 0.00477557 0.03378775 0.00185122 0.00149136 0.04936228 0.00307521 0.00220889 0.00306029 0.00131942 
0.03945742 0.03977095 0.00787946 0.00192837 0.00103142 0.00152310 0.00307496 0.00473308 0.03411292 0.00183298 0.00146042 0.04874818 0.00311125 0.00210608 0.00297287 0.00131960 
0.03918025 0.03917147 0.00774274 0.00191245 0.00102661 0.00154581 0.00303553 0.00468840 0.03440686 0.00181612 0.00143097 0.04813046 0.00314983 0.00200914 0.00289394 0.00131970 
0.03898278 0.03852940 0.00761600 0.00189607 0.00102244 0.00156864 0.00300214 0.00464170 0.03466811 0.00180068 0.00140314 0.04751418 0.00319071 0.00191881 0.00282438 0.00131973 
0.03886704 0.03784798 0.00749948 0.00187937 0.00101880 0.00159150 0.00297481 0.00459316 0.03489536 0.00178670 0.00137707 0.04690439 0.00323366 0.00183581 0.00276502 0.00131967 
0.03883450 0.03713065 0.00739339 0.00186252 0.00101558 0.00161431 0.00295354 0.00454294 0.03508747 0.00177420 0.00135284 0.04630615 0.00327842 0.00176087 0.00271666 0.00131950 
0.03888611 0.03638097 0.00729785 0.00184568 0.00101269 0.00163698 0.00293831 0.00449123 0.03524348 0.00176321 0.00133058 0.04572443 0.00332469 0.00169466 0.00268009 0.00131921 
0.03902225 0.03560268 0.00721296 0.00182901 0.00101002 0.00165944 0.00292906 0.00443820 0.03536261 0.00175373 0.00131038 0.04516413 0.00337220 0.00163787 0.00265605 0.00131881 
0.03924274 0.03479960 0.00713877 0.00181269 0.00100747 0.00168159 0.00292571 0.00438403 0.03544426 0.00174576 0.00129232 0.04463002 0.00342064 0.00159112 0.00264521 0.00131826 
0.03954688 0.03397566 0.00707527 0.00179688 0.00100494 0.00170336 0.00292816 0.00432888 0.03548804 0.00173928 0.00127647 0.04412670 0.00346969 0.00155504 0.00264823 0.00131757 
0.03993338 0.03313485 0.00702241 0.00178175 0.00100234 0.00172467 0.00293630 0.00427292 0.03549372 0.00173428 0.00126290 0.04365859 0.00351902 0.00153018 0.00266570 0.00131673 
0.04040045 0.03228124 0.00698009 0.00176747 0.00099957 0.00174543 0.00294998 0.00421632 0.03546130 0.00173073 0.00125167 0.04322989 0.00356830 0.00151709 0.00269814 0.00131573 
0.04094576 0.03141887 0.00694817 0.00175421 0.00099654 0.00176558 0.00296904 0.00415924 0.03539093 0.00172858 0.00124282 0.04284454 0.00361720 0.00151625 0.00274602 0.00131456 
0.04156649 0.03055184 0.00692645 0.00174212 0.00099317 0.00178504 0.00299331 0.00410183 0.03528299 0.00172779 0.00123638 0.04250619 0.00366537 0.00152810 0.00280974 0.00131322 
0.04225930 0.02968418 0.00691470 0.00173137 0.00098938 0.00180373 0.00302258 0.00404426 0.03513804 0.00172830 0.00123239 0.04221822 0.00371249 0.00155302 0.00288961 0.00131171 
0.04302040 0.02881991 0.00691266 0.00172211 0.00098510 0.00182160 0.00305664 0.00398668 0.03495680 0.00173005 0.00123085 0.04198362 0.00375821 0.00159135 0.00298590 0.00131003 
0.04384558 0.02796296 0.00692000 0.00171450 0.00098027 0.00183857 0.00309528 0.00392923 0.03474022 0.00173297 0.00123177 0.04180507 0.00380221 0.00164337 0.00309876 0.00130816 
0.04473020 0.02711719 0.00693639 0.00170867 0.00097481 0.00185459 0.00313825 0.00387205 0.03448938 0.00173699 0.00123515 0.04168484 0.00384415 0.00170928 0.00322830 0.00130613 
0.04566922 0.02628635 0.00696145 0.00170477 0.00096869 0.00186960 0.00318531 0.00381529 0.03420554 0.00174203 0.00124097 0.04162484 0.00388374 0.00178925 0.00337450 0.00130392 
0.04665730 0.02547406 0.00699477 0.00170291 0.00096185 0.00188355 0.00323620 0.00375910 0.03389013 0.00174800 0.00124920 0.04162654 0.00392065 0.00188336 0.00353731 0.00130154 
0.04768873 0.02468378 0.00703592 0.00170322 0.00095426 0.00189638 0.00329066 0.00370360 0.03354473 0.00175482 0.00125982 0.04169100 0.00395462 0.00199163 0.00371654 0.00129900 
0.04875757 0.02391883 0.00708443 0.00170582 0.00094589 0.00190806 0.00334841 0.00364892 0.03317105 0.00176239 0.00127279 0.04181884 0.00398536 0.00211401 0.00391194 0.00129631 
0.04985762 0.02318234 0.00713983 0.00171079 0.00093672 0.00191855 0.00340918 0.00359521 0.03277092 0.00177062 0.00128805 0.04201025 0.00401261 0.00225038 0.00412318 0.00129347 
0.05098249 0.02247724 0.00720162 0.00171823 0.00092673 0.00192781 0.00347270 0.00354258 0.03234632 0.00177941 0.00130555 0.04226497 0.00403615 0.00240055 0.00434981 0.00129049 
0.05212562 0.02180625 0.00726931 0.00172822 0.00091593 0.00193581 0.00353868 0.00349116 0.03189931 0.00178867 0.00132523 0.04258230 0.00405575 0.00256427 0.00459134 0.00128740 
0.05328034 0.02117187 0.00734238 0.00174081 0.00090431 0.00194254 0.00360686 0.00344109 0.03143205 0.00179830 0.00134701 0.04296111 0.00407123 0.00274122 0.00484714 0.00128419 
0.05443990 0.02057638 0.00742030 0.00175607 0.00089189 0.00194797 0.00367694 0.00339248 0.03094678 0.00180821 0.00137082 0.04339982 0.00408241 0.00293098 0.00511654 0.00128089 
0.05559752 0.02002180 0.00750257 0.00177403 0.00087870 0.00195210 0.00374867 0.00334546 0.03044580 0.00181831 0.00139657 0.04389642 0.00408917 0.00313309 0.00539876 0.00127752 
0.05674642 0.01950992 0.00758865 0.00179472 0.00086476 0.00195491 0.00382177 0.00330015 0.02993149 0.00182849 0.00142418 0.04444851 0.00409137 0.00334702 0.00569297 0.00127408 
0.05787987 0.01904225 0.00767805 0.00181815 0.00085010 0.00195641 0.00389598 0.00325667 0.02940623 0.00183867 0.00145355 0.04505328 0.00408893 0.00357217 0.00599823 0.00127061 
0.05899122 0.01862007 0.00777026 0.00184432 0.00083478 0.00195660 0.00397104 0.00321514 0.02887245 0.00184877 0.00148459 0.04570753 0.00408179 0.00380787 0.00631357 0.00126712 
0.06007395 0.01824437 0.00786480 0.00187321 0.00081885 0.00195549 0.00404671 0.00317567 0.02833260 0.00185870 0.00151718 0.04640771 0.00406991 0.00405340 0.00663792 0.00126362 
0.06112169 0.01791591 0.00796120 0.00190479 0.00080237 0.00195311 0.00412276 0.00313839 0.02778909 0.00186838 0.00155123 0.04714995 0.00405331 0.00430799 0.00697015 0.00126015 
0.06212829 0.01763515 0.00805902 0.00193901 0.00078540 0.00194948 0.00419894 0.00310342 0.02724435 0.00187773 0.00158662 0.04793005 0.00403200 0.00457078 0.00730911 0.00125673 
0.06308781 0.01740233 0.00815782 0.00197582 0.00076802 0.00194461 0.00427505 0.00307086 0.02670078 0.00188670 0.00162324 0.04874353 0.00400604 0.00484089 0.00765355 0.00125338 
0.06399457 0.01721741 0.00825722 0.00201514 0.00075031 0.00193856 0.00435089 0.00304084 0.02616071 0.00189522 0.00166098 0.04958567 0.00397551 0.00511740 0.00800221 0.00125012 
0.06484320 0.01708009 0.00835684 0.00205688 0.00073235 0.00193137 0.00442625 0.00301346 0.02562645 0.00190323 0.00169972 0.05045152 0.00394053 0.00539933 0.00835379 0.00124698 
0.06562864 0.01698987 0.00845636 0.00210093 0.00071424 0.00192306 0.00450096 0.00298883 0.02510022 0.00191068 0.00173934 0.05133598 0.00390124 0.00568566 0.00870695 0.00124398 
0.06634616 0.01694597 0.00855548 0.00214718 0.00069606 0.00191371 0.00457484 0.00296707 0.02458419 0.00191753 0.00177973 0.05223376 0.00385781 0.00597535 0.00906032 0.00124115 
0.06699142 0.01694742 0.00865392 0.00219551 0.00067792 0.00190336 0.00464776 0.00294828 0.02408042 0.00192375 0.00182075 0.05313949 0.00381044 0.00626734 0.00941254 0.00123850 
0.06756044 0.01699300 0.00875148 0.00224575 0.00065991 0.00189208 0.00471956 0.00293256 0.02359089 0.00192929 0.00186230 0.05404771 0.00375935 0.00656052 0.00976222 0.00123607 
0.06804968 0.01708133 0.00884795 0.00229776 0.00064214 0.00187993 0.00479013 0.00292001 0.02311747 0.00193415 0.00190425 0.05495294 0.00370479 0.00685381 0.01010797 0.00123387 
0.06845597 0.01721081 0.00894320 0.00235137 0.00062472 0.00186698 0.00485934 0.00291072 0.02266192 0.00193830 0.00194648 0.05584972 0.00364702 0.00714608 0.01044843 0.00123193 
0.06877661 0.01737968 0.00903712 0.00240640 0.00060775 0.00185331 0.00492710 0.00290478 0.02222588 0.00194174 0.00198887 0.05673259 0.00358633 0.00743621 0.01078224 0.00123026 
0.06900930 0.01758602 0.00912966 0.00246266 0.00059133 0.00183899 0.00499332 0.00290226 0.02181087 0.00194446 0.00203130 0.05759622 0.00352303 0.00772310 0.01110805 0.00122889 
0.06915220 0.01782775 0.00922078 0.00251994 0.00057558 0.00182411 0.00505794 0.00290325 0.02141828 0.00194648 0.00207365 0.05843538 0.00345746 0.00800564 0.01142458 0.00122783 
0.06920391 0.01810269 0.00931052 0.00257804 0.00056060 0.00180875 0.00512089 0.00290781 0.02104936 0.00194780 0.00211581 0.05924501 0.00338995 0.00828273 0.01173054 0.00122710 
0.06916347 0.01840851 0.00939893 0.00263674 0.00054649 0.00179300 0.00518213 0.00291600 0.02070522 0.00194844 0.00215767 0.06002025 0.00332086 0.00855333 0.01202474 0.00122671 
0.06903037 0.01874283 0.00948611 0.00269581 0.00053336 0.00177694 0.00524162 0.00292787 0.02038684 0.00194842 0.00219910 0.06075646 0.00325056 0.00881637 0.01230601 0.00122668 
0.06880451 0.01910316 0.00957222 0.00275502 0.00052129 0.00176067 0.00529934 0.00294346 0.02009505 0.00194779 0.00224001 0.06144928 0.00317943 0.00907088 0.01257325 0.00122701 
0.06848625 0.01948695 0.00965741 0.00281413 0.00051040 0.00174428 0.00535526 0.00296279 0.01983054 0.00194656 0.00228027 0.06209464 0.00310786 0.00931587 0.01282542 0.00122771 
0.06807634 0.01989162 0.00974191 0.00287291 0.00050075 0.00172785 0.00540940 0.00298588 0.01959387 0.00194480 0.00231979 0.06268880 0.00303623 0.00955043 0.01306159 0.00122879 
0.06757594 0.02031456 0.00982596 0.00293110 0.00049245 0.00171148 0.00546176 0.00301275 0.01938543 0.00194253 0.00235846 0.06322839 0.00296495 0.00977370 0.01328087 0.00123025 
0.06698661 0.02075315 0.00990983 0.00298847 0.00048557 0.00169527 0.00551235 0.00304337 0.01920549 0.00193980 0.00239618 0.06371040 0.00289441 0.00998486 0.01348247 0.00123208 
0.06631027 0.02120476 0.00999382 0.00304476 0.00048018 0.00167931 0.00556118 0.00307773 0.01905417 0.00193668 0.00243286 0.06413224 0.00282500 0.01018316 0.01366571 0.00123430 
0.06554920 0.02166681 0.01007826 0.00309973 0.00047635 0.00166367 0.00560829 0.00311579 0.01893147 0.00193322 0.00246839 0.06449172 0.00275711 0.01036791 0.01382999 0.00123688 
0.06470603 0.02213673 0.01016349 0.00315313 0.00047414 0.00164847 0.00565372 0.00315749 0.01883724 0.00192948 0.00250269 0.06478712 0.00269114 0.01053851 0.01397481 0.00123982 
0.06378369 0.02261202 0.01024987 0.00320472 0.00047359 0.00163376 0.00569749 0.00320279 0.01877121 0.00192551 0.00253567 0.06501714 0.00262745 0.01069440 0.01409978 0.00124311 
0.06278540 0.02309023 0.01033778 0.00325427 0.00047476 0.00161966 0.00573965 0.00325158 0.01873299 0.00192139 0.00256724 0.06518095 0.00256641 0.01083511 0.01420462 0.00124674 
0.06171467 0.02356900 0.01042760 0.00330154 0.00047766 0.00160622 0.00578024 0.00330378 0.01872205 0.00191716 0.00259732 0.06527821 0.00250839 0.01096027 0.01428914 0.00125068 
0.06057526 0.02404606 0.01051972 0.00334630 0.00048234 0.00159353 0.00581931 0.00335927 0.01873778 0.00191290 0.00262584 0.06530902 0.00245371 0.01106955 0.01435328 0.00125491 
0.05937113 0.02451922 0.01061453 0.00338835 0.00048879 0.00158167 0.00585691 0.00341791 0.01877943 0.00190867 0.00265272 0.06527396 0.00240271 0.01116274 0.01439710 0.00125941 
0.05810648 0.02498643 0.01071241 0.00342745 0.00049704 0.00157068 0.00589307 0.00347958 0.01884617 0.00190453 0.00267788 0.06517407 0.00235570 0.01123969 0.01442073 0.00126416 
0.05678566 0.02544573 0.01081373 0.00346343 0.00050707 0.00156065 0.00592784 0.00354409 0.01893706 0.00190054 0.00270126 0.06501085 0.00231296 0.01130034 0.01442446 0.00126912 
0.05541318 0.02589531 0.01091887 0.00349608 0.00051887 0.00155163 0.00596126 0.00361128 0.01905108 0.00189676 0.00272280 0.06478624 0.00227476 0.01134471 0.01440866 0.00127427 
0.05399371 0.02633349 0.01102816 0.00352524 0.00053241 0.00154367 0.00599338 0.00368094 0.01918712 0.00189325 0.00274244 0.06450263 0.00224136 0.01137292 0.01437380 0.00127955 
0.05253201 0.02675871 0.01114194 0.00355074 0.00054767 0.00153680 0.00602422 0.00375288 0.01934400 0.00189005 0.00276011 0.06416280 0.00221296 0.01138515 0.01432047 0.00128495 
0.05103291 0.02716958 0.01126050 0.00357243 0.00056460 0.00153108 0.00605382 0.00382687 0.01952048 0.00188722 0.00277578 0.06376994 0.00218979 0.01138168 0.01424937 0.00129041 
0.04950135 0.02756482 0.01138411 0.00359018 0.00058314 0.00152654 0.00608219 0.00390267 0.01971524 0.00188480 0.00278938 0.06332761 0.00217200 0.01136286 0.01416127 0.00129590 
0.04794229 0.02794334 0.01151301 0.00360387 0.00060322 0.00152319 0.00610937 0.00398004 0.01992691 0.00188283 0.00280088 0.06283969 0.00215975 0.01132911 0.01405705 0.00130137 
0.04636071 0.02830416 0.01164741 0.00361339 0.00062479 0.00152106 0.00613535 0.00405870 0.02015410 0.00188135 0.00281023 0.06231041 0.00215317 0.01128094 0.01393766 0.00130678 
0.04476164 0.02864648 0.01178746 0.00361866 0.00064774 0.00152015 0.00616016 0.00413840 0.02039534 0.00188040 0.00281740 0.06174426 0.00215235 0.01121891 0.01380416 0.00131207 
0.04315005 0.02896961 0.01193327 0.00361962 0.00067200 0.00152048 0.00618377 0.00421884 0.02064915 0.00187998 0.00282235 0.06114599 0.00215735 0.01114367 0.01365764 0.00131721 
0.04153094 0.02927304 0.01208491 0.00361622 0.00069746 0.00152203 0.00620619 0.00429974 0.02091403 0.00188014 0.00282505 0.06052058 0.00216824 0.01105591 0.01349931 0.00132214 
0.03990923 0.02955637 0.01224240 0.00360842 0.00072401 0.00152480 0.00622739 0.00438080 0.02118845 0.00188087 0.00282549 0.05987317 0.00218501 0.01095638 0.01333038 0.00132681 
0.03828981 0.02981936 0.01240571 0.00359622 0.00075154 0.00152876 0.00624734 0.00446171 0.02147086 0.00188219 0.00282363 0.05920905 0.00220766 0.01084588 0.01315216 0.00133117 
0.03667752 0.03006188 0.01257474 0.00357962 0.00077992 0.00153389 0.00626602 0.00454216 0.02175974 0.00188411 0.00281947 0.05853364 0.00223616 0.01072528 0.01296599 0.00133517 
0.03507709 0.03028394 0.01274936 0.00355865 0.00080903 0.00154016 0.00628337 0.00462185 0.02205353 0.00188661 0.00281299 0.05785238 0.00227043 0.01059546 0.01277323 0.00133877 
0.03349319 0.03048564 0.01292937 0.00353336 0.00083872 0.00154753 0.00629936 0.00470046 0.02235071 0.00188969 0.00280419 0.05717079 0.00231040 0.01045734 0.01257528 0.00134191 
0.03193040 0.03066723 0.01311449 0.00350381 0.00086887 0.00155594 0.00631390 0.00477768 0.02264976 0.00189333 0.00279305 0.05649435 0.00235594 0.01031189 0.01237356 0.00134455 
0.03039321 0.03082902 0.01330443 0.00347008 0.00089933 0.00156535 0.00632695 0.00485319 0.02294919 0.00189750 0.00277958 0.05582849 0.00240693 0.01016007 0.01216949 0.00134664 
0.02888596 0.03097144 0.01349879 0.00343228 0.00092995 0.00157569 0.00633843 0.00492669 0.02324753 0.00190219 0.00276379 0.05517857 0.00246320 0.01000288 0.01196450 0.00134813 
0.02741293 0.03109499 0.01369716 0.00339053 0.00096057 0.00158690 0.00634825 0.00499789 0.02354334 0.00190736 0.00274569 0.05454982 0.00252458 0.00984132 0.01176000 0.00134899 
0.02597827 0.03120025 0.01389904 0.00334496 0.00099106 0.00159891 0.00635632 0.00506647 0.02383524 0.00191297 0.00272529 0.05394728 0.00259085 0.00967640 0.01155739 0.00134917 
0.02458598 0.03128786 0.01410388 0.00329574 0.00102125 0.00161164 0.00636257 0.00513217 0.02412188 0.00191897 0.00270262 0.05337584 0.00266180 0.00950912 0.01135804 0.00134864 
0.02323998 0.03135851 0.01431109 0.00324304 0.00105100 0.00162501 0.00636689 0.00519469 0.02440195 0.00192532 0.00267769 0.05284013 0.00273720 0.00934046 0.01116330 0.00134737 
0.02194403 0.03141295 0.01452002 0.00318704 0.00108015 0.00163893 0.00636918 0.00525379 0.02467421 0.00193197 0.00265055 0.05234454 0.00281678 0.00917141 0.01097446 0.00134532 
0.02070179 0.03145194 0.01472997 0.00312794 0.00110855 0.00165332 0.00636934 0.00530920 0.02493748 0.00193885 0.00262121 0.05189314 0.00290027 0.00900291 0.01079276 0.00134246 
0.01951678 0.03147630 0.01494020 0.00306597 0.00113606 0.00166808 0.00636727 0.00536069 0.02519064 0.00194592 0.00258974 0.05148971 0.00298739 0.00883591 0.01061940 0.00133879 
0.01839238 0.03148684 0.01514992 0.00300134 0.00116255 0.00168312 0.00636286 0.00540805 0.02543264 0.00195309 0.00255617 0.05113767 0.00307784 0.00867129 0.01045549 0.00133427 
0.01733184 0.03148437 0.01535831 0.00293431 0.00118786 0.00169835 0.00635601 0.00545107 0.02566250 0.00196032 0.00252055 0.05084010 0.00317132 0.00850990 0.01030209 0.00132889 
0.01633828 0.03146972 0.01556451 0.00286512 0.00121186 0.00171366 0.00634663 0.00548958 0.02587932 0.00196753 0.00248295 0.05059968 0.00326750 0.00835258 0.01016017 0.00132265 
0.01541469 0.03144369 0.01576763 0.00279404 0.00123445 0.00172896 0.00633461 0.00552340 0.02608227 0.00197465 0.00244342 0.05041869 0.00336608 0.00820007 0.01003062 0.00131554 
0.01456390 0.03140708 0.01596676 0.00272133 0.00125549 0.00174416 0.00631986 0.00555240 0.02627062 0.00198161 0.00240204 0.05029899 0.00346670 0.00805310 0.00991424 0.00130757 
0.01378863 0.03136064 0.01616097 0.00264727 0.00127487 0.00175915 0.00630229 0.00557647 0.02644371 0.00198835 0.00235889 0.05024203 0.00356904 0.00791233 0.00981175 0.00129874 
0.01309142 0.03130511 0.01634930 0.00257213 0.00129251 0.00177384 0.00628183 0.00559550 0.02660098 0.00199480 0.00231405 0.05024883 0.00367277 0.00777837 0.00972376 0.00128906 
0.01247469 0.03124116 0.01653082 0.00249621 0.00130830 0.00178814 0.00625841 0.00560944 0.02674193 0.00200088 0.00226760 0.05031996 0.00377753 0.00765175 0.00965078 0.00127855 
0.01194070 0.03116945 0.01670454 0.00241980 0.00132218 0.00180195 0.00623197 0.00561822 0.02686620 0.00200652 0.00221965 0.05045556 0.00388300 0.00753296 0.00959322 0.00126725 
0.01149156 0.03109056 0.01686952 0.00234317 0.00133407 0.00181520 0.00620245 0.00562183 0.02697348 0.00201168 0.00217030 0.05065533 0.00398884 0.00742241 0.00955139 0.00125516 
0.01112922 0.03100502 0.01702480 0.00226663 0.00134392 0.00182779 0.00616982 0.00562027 0.02706356 0.00201627 0.00211965 0.05091855 0.00409470 0.00732045 0.00952550 0.00124234 
0.01085544 0.03091332 0.01716944 0.00219045 0.00135169 0.00183966 0.00613405 0.00561358 0.02713634 0.00202026 0.00206782 0.05124405 0.00420026 0.00722736 0.00951564 0.00122882 
0.01067186 0.03081586 0.01730253 0.00211493 0.00135734 0.00185072 0.00609515 0.00560180 0.02719180 0.00202357 0.00201493 0.05163028 0.00430519 0.00714335 0.00952181 0.00121465 
0.01057989 0.03071299 0.01742318 0.00204034 0.00136087 0.00186090 0.00605311 0.00558501 0.02723000 0.00202616 0.00196112 0.05207524 0.00440917 0.00706857 0.00954388 0.00119988 
0.01058078 0.03060500 0.01753051 0.00196696 0.00136226 0.00187015 0.00600796 0.00556331 0.02725112 0.00202799 0.00190652 0.05257660 0.00451189 0.00700309 0.00958166 0.00118456 
0.01067559 0.03049211 0.01762369 0.00189505 0.00136154 0.00187842 0.00595975 0.00553684 0.02725539 0.00202901 0.00185127 0.05313161 0.00461305 0.00694694 0.00963483 0.00116875 
0.01086518 0.03037445 0.01770196 0.00182488 0.00135872 0.00188564 0.00590853 0.00550573 0.02724316 0.00202919 0.00179552 0.05373720 0.00471234 0.00690004 0.00970296 0.00115253 
0.01115018 0.03025213 0.01776455 0.00175670 0.00135386 0.00189179 0.00585438 0.00547017 0.02721485 0.00202851 0.00173942 0.05438995 0.00480948 0.00686230 0.00978556 0.00113596 
0.01153102 0.03012516 0.01781078 0.00169074 0.00134700 0.00189683 0.00579740 0.00543035 0.02717095 0.00202694 0.00168314 0.05508616 0.00490421 0.00683353 0.00988203 0.00111912 
0.01200789 0.02999350 0.01784003 0.00162724 0.00133821 0.00190073 0.00573771 0.00538647 0.02711205 0.00202447 0.00162685 0.05582183 0.00499625 0.00681349 0.00999168 0.00110208 
0.01258077 0.02985706 0.01785170 0.00156641 0.00132757 0.00190347 0.00567545 0.00533878 0.02703879 0.00202108 0.00157071 0.05659271 0.00508535 0.00680191 0.01011375 0.00108492 
0.01324936 0.02971567 0.01784530 0.00150845 0.00131519 0.00190505 0.00561079 0.00528752 0.02695189 0.00201679 0.00151490 0.05739433 0.00517129 0.00679843 0.01024740 0.00106773 
0.01401312 0.02956913 0.01782039 0.00145356 0.00130116 0.00190546 0.00554389 0.00523297 0.02685213 0.00201159 0.00145960 0.05822203 0.00525383 0.00680266 0.01039172 0.00105060 
0.01487125 0.02941719 0.01777658 0.00140190 0.00128562 0.00190472 0.00547497 0.00517540 0.02674036 0.00200550 0.00140501 0.05907097 0.00533277 0.00681418 0.01054574 0.00103360 
0.01582267 0.02925956 0.01771359 0.00135364 0.00126870 0.00190283 0.00540424 0.00511511 0.02661746 0.00199854 0.00135131 0.05993617 0.00540790 0.00683251 0.01070843 0.00101684 
0.01686602 0.02909590 0.01763119 0.00130891 0.00125054 0.00189982 0.00533194 0.00505240 0.02648439 0.00199074 0.00129869 0.06081258 0.00547905 0.00685713 0.01087871 0.00100040 
0.01799965 0.02892585 0.01752924 0.00126783 0.00123129 0.00189572 0.00525833 0.00498760 0.02634210 0.00198214 0.00124735 0.06169504 0.00554605 0.00688751 0.01105545 0.00098437 
0.01922162 0.02874903 0.01740768 0.00123053 0.00121114 0.00189057 0.00518369 0.00492103 0.02619164 0.00197278 0.00119749 0.06257836 0.00560875 0.00692308 0.01123749 0.00096884 
0.02052969 0.02856503 0.01726652 0.00119707 0.00119024 0.00188442 0.00510831 0.00485302 0.02603402 0.00196270 0.00114931 0.06345735 0.00566701 0.00696325 0.01142366 0.00095391 
0.02192130 0.02837345 0.01710587 0.00116754 0.00116878 0.00187732 0.00503250 0.00478389 0.02587033 0.00195198 0.00110301 0.06432683 0.00572071 0.00700742 0.01161274 0.00093965 
0.02339361 0.02817386 0.01692591 0.00114199 0.00114695 0.00186932 0.00495658 0.00471400 0.02570163 0.00194066 0.00105878 0.06518168 0.00576973 0.00705495 0.01180350 0.00092616 
0.02494345 0.02796586 0.01672691 0.00112046 0.00112494 0.00186051 0.00488090 0.00464367 0.02552902 0.00192883 0.00101683 0.06601685 0.00581399 0.00710524 0.01199473 0.00091352 
0.02656733 0.02774903 0.01650921 0.00110295 0.00110296 0.00185094 0.00480579 0.00457324 0.02535357 0.00191655 0.00097736 0.06682741 0.00585341 0.00715763 0.01218519 0.00090182 
0.02826147 0.02752300 0.01627325 0.00108948 0.00108120 0.00184071 0.00473162 0.00450304 0.02517636 0.00190390 0.00094055 0.06760857 0.00588793 0.00721152 0.01237368 0.00089112 
0.03002178 0.02728739 0.01601952 0.00108002 0.00105986 0.00182988 0.00465876 0.00443340 0.02499845 0.00189097 0.00090660 0.06835569 0.00591749 0.00726627 0.01255899 0.00088150 
0.03184385 0.02704190 0.01574862 0.00107453 0.00103916 0.00181855 0.00458758 0.00436462 0.02482088 0.00187784 0.00087569 0.06906433 0.00594206 0.00732127 0.01273994 0.00087303 
0.03372299 0.02678622 0.01546119 0.00107297 0.00101929 0.00180681 0.00451845 0.00429702 0.02464466 0.00186462 0.00084800 0.06973028 0.00596162 0.00737593 0.01291539 0.00086577 
0.03565422 0.02652012 0.01515799 0.00107526 0.00100046 0.00179475 0.00445176 0.00423090 0.02447077 0.00185139 0.00082372 0.07034956 0.00597617 0.00742967 0.01308423 0.00085979 
0.03763226 0.02624340 0.01483980 0.00108132 0.00098285 0.00178247 0.00438789 0.00416653 0.02430013 0.00183825 0.00080299 0.07091843 0.00598571 0.00748192 0.01324539 0.00085513 
0.03965160 0.02595594 0.01450750 0.00109106 0.00096667 0.00177006 0.00432722 0.00410419 0.02413364 0.00182530 0.00078599 0.07143347 0.00599027 0.00753218 0.01339785 0.00085184 
0.04170645 0.02565768 0.01416202 0.00110435 0.00095209 0.00175763 0.00427012 0.00404412 0.02397213 0.00181265 0.00077286 0.07189152 0.00598987 0.00757992 0.01354065 0.00084995 
0.04379078 0.02534862 0.01380435 0.00112107 0.00093929 0.00174527 0.00421695 0.00398656 0.02381635 0.00180039 0.00076373 0.07228976 0.00598457 0.00762469 0.01367289 0.00084951 
0.04589837 0.02502885 0.01343553 0.00114108 0.00092844 0.00173308 0.00416808 0.00393173 0.02366703 0.00178862 0.00075873 0.07262570 0.00597443 0.00766604 0.01379373 0.00085052 
0.04802276 0.02469854 0.01305667 0.00116423 0.00091970 0.00172116 0.00412386 0.00387982 0.02352479 0.00177744 0.00075798 0.07289717 0.00595953 0.00770359 0.01390239 0.00085302 
0.05015736 0.02435794 0.01266890 0.00119035 0.00091321 0.00170961 0.00408461 0.00383101 0.02339020 0.00176695 0.00076156 0.07310239 0.00593994 0.00773698 0.01399819 0.00085701 
0.05229537 0.02400740 0.01227340 0.00121927 0.00090910 0.00169852 0.00405066 0.00378544 0.02326374 0.00175725 0.00076958 0.07323992 0.00591578 0.00776589 0.01408049 0.00086248 
0.05442992 0.02364736 0.01187141 0.00125080 0.00090749 0.00168797 0.00402232 0.00374325 0.02314581 0.00174843 0.00078210 0.07330870 0.00588714 0.00779004 0.01414875 0.00086943 
0.05655398 0.02327835 0.01146416 0.00128476 0.00090848 0.00167806 0.00399985 0.00370454 0.02303673 0.00174057 0.00079917 0.07330803 0.00585416 0.00780921 0.01420251 0.00087785 
0.05866049 0.02290101 0.01105293 0.00132095 0.00091216 0.00166887 0.00398353 0.00366940 0.02293673 0.00173378 0.00082083 0.07323761 0.00581696 0.00782320 0.01424139 0.00088771 
0.06074233 0.02251609 0.01063902 0.00135916 0.00091860 0.00166047 0.00397358 0.00363789 0.02284596 0.00172811 0.00084710 0.07309751 0.00577571 0.00783188 0.01426510 0.00089898 
0.06279234 0.02212444 0.01022374 0.00139919 0.00092785 0.00165294 0.00397021 0.00361004 0.02276447 0.00172366 0.00087798 0.07288820 0.00573054 0.00783513 0.01427341 0.00091163 
0.06480341 0.02172699 0.00980842 0.00144082 0.00093994 0.00164635 0.00397362 0.00358586 0.02269223 0.00172049 0.00091346 0.07261052 0.00568165 0.00783292 0.01426622 0.00092559 
0.06676847 0.02132480 0.00939438 0.00148383 0.00095489 0.00164075 0.00398394 0.00356533 0.02262913 0.00171866 0.00095349 0.07226566 0.00562920 0.00782522 0.01424346 0.00094082 
0.06868051 0.02091904 0.00898294 0.00152802 0.00097270 0.00163620 0.00400131 0.00354843 0.02257494 0.00171823 0.00099802 0.07185523 0.00557339 0.00781205 0.01420520 0.00095725 
0.07053265 0.02051096 0.00857543 0.00157317 0.00099333 0.00163275 0.00402582 0.00353509 0.02252939 0.00171926 0.00104699 0.07138117 0.00551443 0.00779350 0.01415155 0.00097482 
0.07231816 0.02010193 0.00817315 0.00161905 0.00101676 0.00163043 0.00405752 0.00352523 0.02249208 0.00172178 0.00110028 0.07084577 0.00545252 0.00776966 0.01408273 0.00099344 
0.07403048 0.01969342 0.00777739 0.00166546 0.00104290 0.00162928 0.00409643 0.00351876 0.02246257 0.00172582 0.00115780 0.07025170 0.00538789 0.00774069 0.01399901 0.00101304 
0.07566325 0.01928697 0.00738944 0.00171218 0.00107169 0.00162933 0.00414254 0.00351553 0.02244032 0.00173143 0.00121940 0.06960192 0.00532078 0.00770676 0.01390077 0.00103353 
0.07721038 0.01888424 0.00701052 0.00175900 0.00110302 0.00163059 0.00419582 0.00351542 0.02242472 0.00173861 0.00128492 0.06889974 0.00525143 0.00766808 0.01378843 0.00105482 
0.07866603 0.01848697 0.00664185 0.00180572 0.00113676 0.00163308 0.00425616 0.00351826 0.02241509 0.00174738 0.00135420 0.06814876 0.00518010 0.00762490 0.01366252 0.00107679 
0.08002468 0.01809698 0.00628461 0.00185215 0.00117278 0.00163678 0.00432347 0.00352387 0.02241071 0.00175774 0.00142705 0.06735287 0.00510704 0.00757749 0.01352360 0.00109937 
0.08128114 0.01771618 0.00593993 0.00189809 0.00121093 0.00164171 0.00439757 0.00353206 0.02241077 0.00176968 0.00150324 0.06651622 0.00503254 0.00752615 0.01337232 0.00112243 
0.08243057 0.01734652 0.00560890 0.00194335 0.00125102 0.00164784 0.00447828 0.00354263 0.02241443 0.00178319 0.00158256 0.06564323 0.00495688 0.00747119 0.01320936 0.00114587 
0.08346853 0.01699005 0.00529257 0.00198777 0.00129287 0.00165516 0.00456537 0.00355535 0.02242080 0.00179826 0.00166474 0.06473854 0.00488033 0.00741296 0.01303549 0.00116958 
0.08439099 0.01664886 0.00499193 0.00203116 0.00133627 0.00166363 0.00465858 0.00356999 0.02242896 0.00181484 0.00174954 0.06380699 0.00480321 0.00735180 0.01285150 0.00119345 
0.08519436 0.01632508 0.00470790 0.00207338 0.00138101 0.00167323 0.00475761 0.00358632 0.02243795 0.00183290 0.00183667 0.06285362 0.00472581 0.00728809 0.01265824 0.00121736 
0.08587548 0.01602089 0.00444137 0.00211428 0.00142685 0.00168391 0.00486214 0.00360409 0.02244681 0.00185239 0.00192584 0.06188364 0.00464845 0.00722221 0.01245659 0.00124121 
0.08643169 0.01573851 0.00419313 0.00215372 0.00147355 0.00169563 0.00497180 0.00362305 0.02245454 0.00187327 0.00201674 0.06090238 0.00457144 0.00715453 0.01224747 0.00126487 
0.08686081 0.01548016 0.00396395 0.00219156 0.00152087 0.00170833 0.00508621 0.00364295 0.02246015 0.00189546 0.00210905 0.05991531 0.00449511 0.00708546 0.01203183 0.00128824 
0.08716114 0.01524809 0.00375448 0.00222771 0.00156854 0.00172195 0.00520493 0.00366353 0.02246267 0.00191892 0.00220245 0.05892796 0.00441978 0.00701538 0.01181065 0.00131121 
0.08733152 0.01504454 0.00356533 0.00226205 0.00161630 0.00173643 0.00532754 0.00368454 0.02246112 0.00194355 0.00229659 0.05794595 0.00434578 0.00694469 0.01158492 0.00133368 
0.08737129 0.01487173 0.00339704 0.00229449 0.00166387 0.00175170 0.00545354 0.00370573 0.02245455 0.00196928 0.00239112 0.05697493 0.00427345 0.00687376 0.01135563 0.00135553 
0.08728032 0.01473188 0.00325006 0.00232496 0.00171098 0.00176769 0.00558245 0.00372685 0.02244205 0.00199604 0.00248570 0.05602056 0.00420311 0.00680299 0.01112381 0.00137668 
0.08705899 0.01462716 0.00312478 0.00235339 0.00175737 0.00178432 0.00571376 0.00374767 0.02242274 0.00202372 0.00257997 0.05508849 0.00413511 0.00673274 0.01089047 0.00139702 
0.08670822 0.01455972 0.00302148 0.00237973 0.00180275 0.00180152 0.00584692 0.00376796 0.02239579 0.00205223 0.00267356 0.05418433 0.00406978 0.00666337 0.01065662 0.00141648 
0.08622944 0.01453161 0.00294040 0.00240394 0.00184685 0.00181920 0.00598139 0.00378748 0.02236044 0.00208149 0.00276611 0.05331362 0.00400744 0.00659523 0.01042327 0.00143496 
0.08562459 0.01454485 0.00288168 0.00242600 0.00188940 0.00183727 0.00611661 0.00380605 0.02231598 0.00211138 0.00285726 0.05248179 0.00394843 0.00652865 0.01019141 0.00145238 
0.08489612 0.01460136 0.00284537 0.00244588 0.00193016 0.00185566 0.00625201 0.00382345 0.02226177 0.00214180 0.00294666 0.05169417 0.00389308 0.00646394 0.00996203 0.00146869 
0.08404698 0.01470298 0.00283147 0.00246359 0.00196885 0.00187428 0.00638700 0.00383951 0.02219729 0.00217265 0.00303395 0.05095594 0.00384169 0.00640141 0.00973607 0.00148381 
0.08308056 0.01485142 0.00283987 0.00247915 0.00200525 0.00189304 0.00652100 0.00385406 0.02212205 0.00220382 0.00311877 0.05027211 0.00379460 0.00634131 0.00951448 0.00149769 
0.08200074 0.01504831 0.00287039 0.00249257 0.00203912 0.00191185 0.00665343 0.00386697 0.02203571 0.00223521 0.00320079 0.04964746 0.00375208 0.00628392 0.00929815 0.00151029 
0.08081183 0.01529511 0.00292279 0.00250389 0.00207024 0.00193064 0.00678370 0.00387809 0.02193799 0.00226670 0.00327967 0.04908660 0.00371445 0.00622945 0.00908796 0.00152156 
0.07951854 0.01559317 0.00299672 0.00251316 0.00209840 0.00194931 0.00691124 0.00388733 0.02182875 0.00229819 0.00335510 0.04859387 0.00368199 0.00617813 0.00888474 0.00153147 
0.07812599 0.01594369 0.00309177 0.00252045 0.00212343 0.00196778 0.00703548 0.00389460 0.02170793 0.00232958 0.00342676 0.04817333 0.00365495 0.00613014 0.00868929 0.00154000 
0.07663966 0.01634767 0.00320747 0.00252581 0.00214516 0.00198598 0.00715585 0.00389983 0.02157562 0.00236075 0.00349437 0.04782878 0.00363359 0.00608564 0.00850237 0.00154715 
0.07506535 0.01680599 0.00334325 0.00252934 0.00216342 0.00200382 0.00727181 0.00390297 0.02143199 0.00239161 0.00355764 0.04756369 0.00361816 0.00604477 0.00832468 0.00155289 
0.07340917 0.01731930 0.00349848 0.00253112 0.00217811 0.00202123 0.00738284 0.00390402 0.02127737 0.00242206 0.00361632 0.04738123 0.00360887 0.00600766 0.00815690 0.00155724 
0.07167753 0.01788809 0.00367248 0.00253126 0.00218909 0.00203815 0.00748842 0.00390296 0.02111219 0.00245199 0.00367017 0.04728421 0.00360592 0.00597439 0.00799964 0.00156020 
0.06987704 0.01851264 0.00386447 0.00252986 0.00219630 0.00205449 0.00758806 0.00389983 0.02093702 0.00248133 0.00371896 0.04727509 0.00360949 0.00594504 0.00785346 0.00156181 
0.06801455 0.01919303 0.00407365 0.00252704 0.00219967 0.00207021 0.00768132 0.00389467 0.02075253 0.00250998 0.00376250 0.04735595 0.00361974 0.00591966 0.00771890 0.00156207 
0.06609706 0.01992909 0.00429912 0.00252293 0.00219916 0.00208523 0.00776774 0.00388755 0.02055955 0.00253786 0.00380061 0.04752849 0.00363680 0.00589828 0.00759640 0.00156105 
0.06413173 0.02072048 0.00453996 0.00251765 0.00219476 0.00209951 0.00784694 0.00387857 0.02035900 0.00256489 0.00383314 0.04779403 0.00366078 0.00588092 0.00748639 0.00155877 
0.06212579 0.02156661 0.00479517 0.00251135 0.00218647 0.00211299 0.00791853 0.00386783 0.02015194 0.00259101 0.00385997 0.04815348 0.00369177 0.00586756 0.00738923 0.00155528 
0.06008658 0.02246665 0.00506374 0.00250417 0.00217434 0.00212563 0.00798219 0.00385546 0.01993954 0.00261613 0.00388098 0.04860734 0.00372982 0.00585819 0.00730523 0.00155065 
0.05802143 0.02341955 0.00534458 0.00249625 0.00215842 0.00213738 0.00803762 0.00384164 0.01972308 0.00264021 0.00389612 0.04915571 0.00377495 0.00585276 0.00723463 0.00154494 
0.05593769 0.02442402 0.00563659 0.00248775 0.00213879 0.00214822 0.00808455 0.00382651 0.01950393 0.00266319 0.00390532 0.04979827 0.00382717 0.00585121 0.00717766 0.00153822 
0.05384268 0.02547854 0.00593863 0.00247882 0.00211558 0.00215812 0.00812277 0.00381028 0.01928361 0.00268503 0.00390857 0.05053429 0.00388644 0.00585349 0.00713445 0.00153056 
0.05174361 0.02658135 0.00624951 0.00246962 0.00208891 0.00216703 0.00815209 0.00379315 0.01906367 0.00270568 0.00390586 0.05136264 0.00395269 0.00585952 0.00710511 0.00152205 
0.04964762 0.02773046 0.00656806 0.00246030 0.00205894 0.00217496 0.00817238 0.00377534 0.01884579 0.00272512 0.00389724 0.05228178 0.00402584 0.00586921 0.00708969 0.00151276 
0.04756171 0.02892364 0.00689305 0.00245103 0.00202584 0.00218188 0.00818355 0.00375709 0.01863170 0.00274332 0.00388276 0.05328976 0.00410575 0.00588246 0.00708820 0.00150279 
0.04549269 0.03015844 0.00722328 0.00244195 0.00198983 0.00218777 0.00818555 0.00373863 0.01842323 0.00276027 0.00386250 0.05438427 0.00419227 0.00589917 0.00710059 0.00149222 
0.04344721 0.03143220 0.00755750 0.00243322 0.00195111 0.00219265 0.00817838 0.00372023 0.01822222 0.00277595 0.00383657 0.05556260 0.00428521 0.00591923 0.00712678 0.00148115 
0.04143167 0.03274201 0.00789450 0.00242501 0.00190994 0.00219650 0.00816208 0.00370214 0.01803060 0.00279036 0.00380513 0.05682170 0.00438435 0.00594254 0.00716664 0.00146966 
0.03945222 0.03408479 0.00823305 0.00241745 0.00186657 0.00219933 0.00813674 0.00368464 0.01785030 0.00280351 0.00376831 0.05815815 0.00448942 0.00596899 0.00721999 0.00145785 
0.03751476 0.03545724 0.00857193 0.00241071 0.00182126 0.00220114 0.00810250 0.00366799 0.01768330 0.00281541 0.00372632 0.05956821 0.00460015 0.00599847 0.00728663 0.00144582 
0.03562487 0.03685588 0.00890995 0.00240492 0.00177433 0.00220196 0.00805952 0.00365248 0.01753158 0.00282608 0.00367935 0.06104784 0.00471622 0.00603085 0.00736630 0.00143366 
0.03378785 0.03827707 0.00924593 0.00240021 0.00172605 0.00220180 0.00800804 0.00363837 0.01739710 0.00283555 0.00362765 0.06259269 0.00483729 0.00606605 0.00745872 0.00142145 
0.03200864 0.03971698 0.00957873 0.00239673 0.00167676 0.00220067 0.00794832 0.00362595 0.01728183 0.00284385 0.00357146 0.06419817 0.00496298 0.00610395 0.00756357 0.00140930 
0.03029184 0.04117164 0.00990721 0.00239460 0.00162677 0.00219861 0.00788068 0.00361546 0.01718770 0.00285102 0.00351106 0.06585943 0.00509289 0.00614445 0.00768051 0.00139727 
0.02864169 0.04263697 0.01023030 0.00239394 0.00157640 0.00219563 0.00780545 0.00360718 0.01711660 0.00285710 0.00344673 0.06757141 0.00522659 0.00618747 0.00780915 0.00138546 
0.02706209 0.04410874 0.01054696 0.00239486 0.00152600 0.00219178 0.00772303 0.00360137 0.01707036 0.00286215 0.00337879 0.06932886 0.00536365 0.00623291 0.00794910 0.00137395 
0.02555651 0.04558264 0.01085620 0.00239747 0.00147590 0.00218708 0.00763385 0.00359826 0.01705075 0.00286623 0.00330755 0.07112637 0.00550357 0.00628070 0.00809994 0.00136281 
0.02412808 0.04705429 0.01115708 0.00240185 0.00142644 0.00218157 0.00753836 0.00359808 0.01705944 0.00286939 0.00323334 0.07295840 0.00564587 0.00633077 0.00826120 0.00135211 
0.02277951 0.04851922 0.01144870 0.00240809 0.00137796 0.00217529 0.00743708 0.00360105 0.01709803 0.00287171 0.00315653 0.07481931 0.00579004 0.00638305 0.00843244 0.00134190 
0.02151316 0.04997294 0.01173024 0.00241628 0.00133078 0.00216828 0.00733053 0.00360738 0.01716799 0.00287326 0.00307745 0.07670337 0.00593554 0.00643749 0.00861315 0.00133226 
0.02033095 0.05141094 0.01200093 0.00242646 0.00128524 0.00216057 0.00721926 0.00361724 0.01727069 0.00287411 0.00299649 0.07860484 0.00608184 0.00649405 0.00880285 0.00132323 
0.01923444 0.05282869 0.01226008 0.00243871 0.00124166 0.00215223 0.00710386 0.00363081 0.01740734 0.00287433 0.00291400 0.08051795 0.00622839 0.00655269 0.00900103 0.00131486 
0.01822481 0.05422170 0.01250704 0.00245305 0.00120034 0.00214328 0.00698495 0.00364822 0.01757903 0.00287402 0.00283036 0.08243695 0.00637462 0.00661339 0.00920717 0.00130717 
0.01730286 0.05558553 0.01274127 0.00246953 0.00116159 0.00213378 0.00686315 0.00366961 0.01778668 0.00287326 0.00274596 0.08435614 0.00651996 0.00667613 0.00942074 0.00130021 
0.01646901 0.05691578 0.01296228 0.00248816 0.00112568 0.00212377 0.00673911 0.00369508 0.01803107 0.00287212 0.00266116 0.08626991 0.00666384 0.00674090 0.00964121 0.00129400 
0.01572332 0.05820815 0.01316964 0.00250895 0.00109289 0.00211331 0.00661349 0.00372470 0.01831278 0.00287070 0.00257635 0.08817275 0.00680569 0.00680771 0.00986804 0.00128855 
0.01506552 0.05945847 0.01336303 0.00253190 0.00106347 0.00210243 0.00648696 0.00375852 0.01863223 0.00286908 0.00249190 0.09005928 0.00694494 0.00687657 0.01010069 0.00128386 
0.01449499 0.06066267 0.01354219 0.00255698 0.00103765 0.00209120 0.00636022 0.00379659 0.01898963 0.00286735 0.00240818 0.09192429 0.00708102 0.00694748 0.01033864 0.00127994 
0.01401077 0.06181684 0.01370693 0.00258418 0.00101564 0.00207965 0.00623395 0.00383889 0.01938503 0.00286560 0.00232554 0.09376278 0.00721338 0.00702048 0.01058135 0.00127678 
0.01361163 0.06291727 0.01385715 0.00261345 0.00099762 0.00206784 0.00610884 0.00388542 0.01981824 0.00286391 0.00224435 0.09556994 0.00734147 0.00709560 0.01082828 0.00127436 
0.01329602 0.06396040 0.01399283 0.00264474 0.00098377 0.00205581 0.00598557 0.00393613 0.02028889 0.00286237 0.00216494 0.09734121 0.00746476 0.00717286 0.01107892 0.00127266 
0.01306213 0.06494292 0.01411399 0.00267799 0.00097421 0.00204362 0.00586484 0.00399093 0.02079642 0.00286106 0.00208764 0.09907227 0.00758272 0.00725230 0.01133276 0.00127166 
0.01290787 0.06586173 0.01422078 0.00271311 0.00096908 0.00203131 0.00574730 0.00404975 0.02134002 0.00286006 0.00201278 0.10075911 0.00769487 0.00733397 0.01158928 0.00127130 
0.01283094 0.06671400 0.01431337 0.00275002 0.00096844 0.00201892 0.00563364 0.00411244 0.02191872 0.00285945 0.00194065 0.10239799 0.00780072 0.00741791 0.01184800 0.00127156 
0.01282880 0.06749714 0.01439203 0.00278862 0.00097238 0.00200650 0.00552448 0.00417888 0.02253132 0.00285929 0.00187154 0.10398548 0.00789982 0.00750416 0.01210843 0.00127238 
0.01289871 0.06820885 0.01445708 0.00282881 0.00098091 0.00199411 0.00542047 0.00424889 0.02317640 0.00285966 0.00180571 0.10551850 0.00799173 0.00759276 0.01237012 0.00127371 
0.01303775 0.06884714 0.01450892 0.00287045 0.00099404 0.00198177 0.00532220 0.00432227 0.02385238 0.00286062 0.00174342 0.10699428 0.00807607 0.00768376 0.01263260 0.00127548 
0.01324284 0.06941029 0.01454800 0.00291341 0.00101174 0.00196954 0.00523026 0.00439883 0.02455746 0.00286224 0.00168490 0.10841041 0.00815245 0.00777718 0.01289545 0.00127764 
0.01351075 0.06989694 0.01457482 0.00295756 0.00103398 0.00195745 0.00514519 0.00447831 0.02528966 0.00286456 0.00163035 0.10976481 0.00822055 0.00787307 0.01315825 0.00128010 
0.01383812 0.07030601 0.01458994 0.00300274 0.00106065 0.00194554 0.00506752 0.00456048 0.02604680 0.00286763 0.00157997 0.11105577 0.00828004 0.00797145 0.01342061 0.00128281 
0.01422148 0.07063678 0.01459397 0.00304879 0.00109167 0.00193386 0.00499774 0.00464506 0.02682656 0.00287151 0.00153391 0.11228193 0.00833066 0.00807234 0.01368215 0.00128568 
0.01465730 0.07088886 0.01458755 0.00309554 0.00112689 0.00192244 0.00493629 0.00473177 0.02762644 0.00287621 0.00149232 0.11344229 0.00837217 0.00817576 0.01394251 0.00128864 
0.01514195 0.07106218 0.01457136 0.00314282 0.00116615 0.00191131 0.00488358 0.00482032 0.02844379 0.00288178 0.00145531 0.11453620 0.00840438 0.00828170 0.01420136 0.00129161 
0.01567175 0.07115705 0.01454613 0.00319045 0.00120926 0.00190051 0.00483998 0.00491038 0.02927582 0.00288824 0.00142299 0.11556336 0.00842711 0.00839016 0.01445839 0.00129450 
0.01624298 0.07117406 0.01451258 0.00323823 0.00125602 0.00189007 0.00480582 0.00500165 0.03011961 0.00289560 0.00139542 0.11652380 0.00844024 0.00850112 0.01471330 0.00129724 
0.01685193 0.07111419 0.01447149 0.00328598 0.00130620 0.00188002 0.00478138 0.00509380 0.03097215 0.00290387 0.00137265 0.11741788 0.00844369 0.00861456 0.01496583 0.00129975 
0.01749485 0.07097872 0.01442363 0.00333349 0.00135952 0.00187039 0.00476688 0.00518648 0.03183030 0.00291306 0.00135470 0.11824629 0.00843739 0.00873041 0.01521574 0.00130195 
0.01816801 0.07076926 0.01436978 0.00338057 0.00141573 0.00186120 0.00476250 0.00527937 0.03269088 0.00292316 0.00134157 0.11901003 0.00842135 0.00884863 0.01546280 0.00130376 
0.01886772 0.07048773 0.01431073 0.00342701 0.00147452 0.00185248 0.00476839 0.00537212 0.03355061 0.00293415 0.00133323 0.11971037 0.00839558 0.00896915 0.01570681 0.00130510 
0.01959031 0.07013634 0.01424727 0.00347260 0.00153559 0.00184425 0.00478462 0.00546440 0.03440617 0.00294602 0.00132965 0.12034887 0.00836015 0.00909186 0.01594760 0.00130590 
0.02033216 0.06971763 0.01418019 0.00351715 0.00159861 0.00183652 0.00481121 0.00555585 0.03525424 0.00295874 0.00133074 0.12092735 0.00831514 0.00921666 0.01618500 0.00130611 
0.02108972 0.06923436 0.01411023 0.00356043 0.00166325 0.00182933 0.00484815 0.00564616 0.03609144 0.00297228 0.00133642 0.12144787 0.00826070 0.00934343 0.01641890 0.00130564 
0.02185951 0.06868959 0.01403816 0.00360226 0.00172914 0.00182267 0.00489536 0.00573499 0.03691444 0.00298660 0.00134656 0.12191268 0.00819698 0.00947202 0.01664916 0.00130446 
0.02263812 0.06808660 0.01396469 0.00364244 0.00179595 0.00181657 0.00495271 0.00582203 0.03771991 0.00300166 0.00136104 0.12232425 0.00812419 0.00960227 0.01687571 0.00130249 
0.02342224 0.06742889 0.01389052 0.00368075 0.00186329 0.00181104 0.00502002 0.00590695 0.03850457 0.00301739 0.00137970 0.12268524 0.00804255 0.00973401 0.01709846 0.00129969 
0.02420867 0.06672017 0.01381630 0.00371702 0.00193082 0.00180608 0.00509706 0.00598946 0.03926520 0.00303374 0.00140237 0.12299843 0.00795232 0.00986704 0.01731736 0.00129603 
0.02499430 0.06596433 0.01374266 0.00375105 0.00199815 0.00180170 0.00518353 0.00606928 0.03999866 0.00305064 0.00142886 0.12326674 0.00785379 0.01000113 0.01753236 0.00129147 
0.02577613 0.06516539 0.01367018 0.00378266 0.00206491 0.00179792 0.00527912 0.00614613 0.04070191 0.00306803 0.00145896 0.12349321 0.00774725 0.01013607 0.01774345 0.00128599 
0.02655130 0.06432753 0.01359940 0.00381169 0.00213075 0.00179472 0.00538343 0.00621976 0.04137203 0.00308584 0.00149244 0.12368094 0.00763305 0.01027159 0.01795061 0.00127955 
0.02731705 0.06345501 0.01353079 0.00383797 0.00219530 0.00179210 0.00549605 0.00628993 0.04200621 0.00310397 0.00152908 0.12383310 0.00751154 0.01040743 0.01815383 0.00127216 
0.02807076 0.06255220 0.01346479 0.00386135 0.00225820 0.00179008 0.00561649 0.00635642 0.04260180 0.00312235 0.00156862 0.12395292 0.00738309 0.01054330 0.01835314 0.00126381 
0.02880994 0.06162351 0.01340178 0.00388168 0.00231911 0.00178863 0.00574424 0.00641903 0.04315633 0.00314089 0.00161080 0.12404360 0.00724809 0.01067890 0.01854855 0.00125451 
0.02953223 0.06067336 0.01334209 0.00389884 0.00237770 0.00178777 0.00587876 0.00647758 0.04366748 0.00315950 0.00165536 0.12410836 0.00710695 0.01081392 0.01874008 0.00124426 
0.03023543 0.05970622 0.01328596 0.00391271 0.00243364 0.00178746 0.00601944 0.00653191 0.04413313 0.00317809 0.00170201 0.12415040 0.00696009 0.01094803 0.01892777 0.00123309 
0.03091744 0.05872650 0.01323362 0.00392317 0.00248664 0.00178771 0.00616566 0.00658188 0.04455136 0.00319656 0.00175047 0.12417285 0.00680793 0.01108089 0.01911164 0.00122103 
0.03157633 0.05773858 0.01318521 0.00393015 0.00253641 0.00178851 0.00631678 0.00662737 0.04492047 0.00321481 0.00180046 0.12417878 0.00665092 0.01121213 0.01929175 0.00120812 
0.03221031 0.05674678 0.01314080 0.00393357 0.00258267 0.00178983 0.00647209 0.00666830 0.04523899 0.00323275 0.00185167 0.12417117 0.00648950 0.01134141 0.01946812 0.00119440 
0.03281772 0.05575530 0.01310043 0.00393337 0.00262517 0.00179166 0.00663090 0.00670459 0.04550566 0.00325027 0.00190381 0.12415292 0.00632411 0.01146834 0.01964078 0.00117993 
0.03339705 0.05476824 0.01306406 0.00392950 0.00266370 0.00179398 0.00679247 0.00673619 0.04571947 0.00326728 0.00195659 0.12412678 0.00615522 0.01159255 0.01980977 0.00116476 
0.03394694 0.05378957 0.01303160 0.00392193 0.00269805 0.00179676 0.00695606 0.00676308 0.04587968 0.00328368 0.00200970 0.12409539 0.00598327 0.01171366 0.01997511 0.00114896 
0.03446615 0.05282309 0.01300290 0.00391066 0.00272804 0.00180000 0.00712091 0.00678524 0.04598575 0.00329937 0.00206286 0.12406123 0.00580872 0.01183127 0.02013681 0.00113262 
0.03495361 0.05187242 0.01297776 0.00389569 0.00275352 0.00180366 0.00728626 0.00680270 0.04603743 0.00331425 0.00211578 0.12402664 0.00563203 0.01194501 0.02029488 0.00111580 
0.03540837 0.05094099 0.01295592 0.00387705 0.00277435 0.00180771 0.00745132 0.00681548 0.04603472 0.00332822 0.00216818 0.12399377 0.00545363 0.01205448 0.02044933 0.00109860 
0.03582962 0.05003201 0.01293708 0.00385477 0.00279045 0.00181213 0.00761534 0.00682365 0.04597787 0.00334120 0.00221977 0.12396463 0.00527398 0.01215931 0.02060013 0.00108111 
0.03621669 0.04914849 0.01292090 0.00382892 0.00280174 0.00181689 0.00777753 0.00682728 0.04586736 0.00335309 0.00227028 0.12394103 0.00509350 0.01225912 0.02074727 0.00106342 
0.03656905 0.04829317 0.01290698 0.00379957 0.00280816 0.00182196 0.00793715 0.00682645 0.04570395 0.00336381 0.00231947 0.12392458 0.00491264 0.01235353 0.02089069 0.00104563 
0.03688629 0.04746856 0.01289490 0.00376681 0.00280971 0.00182731 0.00809342 0.00682127 0.04548864 0.00337328 0.00236707 0.12391674 0.00473180 0.01244219 0.02103036 0.00102785 
0.03716815 0.04667690 0.01288420 0.00373076 0.00280640 0.00183291 0.00824564 0.00681186 0.04522265 0.00338140 0.00241285 0.12391874 0.00455142 0.01252476 0.02116621 0.00101019 
0.03741447 0.04592018 0.01287440 0.00369153 0.00279826 0.00183872 0.00839307 0.00679836 0.04490744 0.00338812 0.00245659 0.12393166 0.00437189 0.01260090 0.02129815 0.00099274 
0.03762524 0.04520012 0.01286497 0.00364927 0.00278536 0.00184471 0.00853503 0.00678092 0.04454470 0.00339335 0.00249808 0.12395636 0.00419360 0.01267030 0.02142608 0.00097562 
0.03780056 0.04451815 0.01285539 0.00360413 0.00276779 0.00185085 0.00867085 0.00675970 0.04413633 0.00339704 0.00253711 0.12399353 0.00401695 0.01273267 0.02154990 0.00095894 
0.03794067 0.04387544 0.01284511 0.00355629 0.00274566 0.00185710 0.00879992 0.00673485 0.04368441 0.00339912 0.00257352 0.12404367 0.00384231 0.01278773 0.02166948 0.00094281 
0.03804589 0.04327290 0.01283357 0.00350593 0.00271913 0.00186342 0.00892162 0.00670656 0.04319123 0.00339954 0.00260715 0.12410711 0.00367003 0.01283524 0.02178468 0.00092733 
0.03811668 0.04271115 0.01282023 0.00345324 0.00268835 0.00186979 0.00903541 0.00667501 0.04265925 0.00339824 0.00263783 0.12418402 0.00350048 0.01287498 0.02189535 0.00091262 
0.03815361 0.04219055 0.01280451 0.00339844 0.00265351 0.00187617 0.00914076 0.00664039 0.04209109 0.00339519 0.00266546 0.12427438 0.00333399 0.01290675 0.02200133 0.00089877 
0.03815734 0.04171122 0.01278589 0.00334173 0.00261483 0.00188252 0.00923720 0.00660289 0.04148952 0.00339036 0.00268992 0.12437805 0.00317090 0.01293039 0.02210245 0.00088588 
0.03812864 0.04127301 0.01276380 0.00328336 0.00257254 0.00188881 0.00932432 0.00656269 0.04085743 0.00338370 0.00271112 0.12449472 0.00301152 0.01294578 0.02219851 0.00087405 
0.03806839 0.04087555 0.01273774 0.00322354 0.00252688 0.00189501 0.00940173 0.00651999 0.04019782 0.00337520 0.00272900 0.12462396 0.00285618 0.01295281 0.02228933 0.00086338 
0.03797755 0.04051823 0.01270721 0.00316253 0.00247812 0.00190108 0.00946911 0.00647499 0.03951381 0.00336484 0.00274350 0.12476521 0.00270516 0.01295143 0.02237471 0.00085394 
0.03785716 0.04020022 0.01267173 0.00310057 0.00242655 0.00190700 0.00952619 0.00642787 0.03880858 0.00335261 0.00275460 0.12491780 0.00255876 0.01294161 0.02245445 0.00084582 
0.03770837 0.03992051 0.01263087 0.00303791 0.00237246 0.00191273 0.00957276 0.00637882 0.03808537 0.00333851 0.00276229 0.12508097 0.00241727 0.01292337 0.02252835 0.00083908 
0.03753239 0.03967788 0.01258423 0.00297481 0.00231615 0.00191824 0.00960866 0.00632802 0.03734748 0.00332253 0.00276657 0.12525384 0.00228094 0.01289676 0.02259620 0.00083380 
0.03733052 0.03947097 0.01253142 0.00291152 0.00225795 0.00192351 0.00963378 0.00627566 0.03659823 0.00330470 0.00276748 0.12543549 0.00215006 0.01286187 0.02265781 0.00083004 
0.03710412 0.03929823 0.01247215 0.00284830 0.00219817 0.00192852 0.00964808 0.00622189 0.03584094 0.00328502 0.00276507 0.12562491 0.00202486 0.01281883 0.02271296 0.00082784 
0.03685460 0.03915801 0.01240613 0.00278539 0.00213716 0.00193323 0.00965158 0.00616688 0.03507894 0.00326352 0.00275940 0.12582104 0.00190560 0.01276782 0.02276149 0.00082724 
0.03658347 0.03904852 0.01233313 0.00272306 0.00207524 0.00193762 0.00964435 0.00611080 0.03431552 0.00324024 0.00275058 0.12602279 0.00179251 0.01270904 0.02280320 0.00082828 
0.03629225 0.03896789 0.01225299 0.00266153 0.00201274 0.00194169 0.00962652 0.00605377 0.03355394 0.00321520 0.00273870 0.12622903 0.00168583 0.01264275 0.02283793 0.00083098 
0.03598253 0.03891415 0.01216559 0.00260106 0.00195002 0.00194540 0.00959827 0.00599595 0.03279740 0.00318845 0.00272388 0.12643859 0.00158578 0.01256924 0.02286552 0.00083536 
0.03565594 0.03888528 0.01207086 0.00254187 0.00188740 0.00194875 0.00955985 0.00593746 0.03204903 0.00316004 0.00270628 0.12665033 0.00149256 0.01248882 0.02288584 0.00084141 
0.03531414 0.03887921 0.01196881 0.00248419 0.00182521 0.00195172 0.00951155 0.00587842 0.03131188 0.00313003 0.00268604 0.12686308 0.00140639 0.01240188 0.02289877 0.00084915 
0.03495880 0.03889386 0.01185949 0.00242823 0.00176378 0.00195430 0.00945371 0.00581894 0.03058888 0.00309848 0.00266334 0.12707568 0.00132747 0.01230881 0.02290421 0.00085855 
0.03459165 0.03892713 0.01174302 0.00237418 0.00170343 0.00195649 0.00938674 0.00575911 0.02988288 0.00306546 0.00263837 0.12728699 0.00125598 0.01221003 0.02290208 0.00086958 
0.03421441 0.03897691 0.01161958 0.00232225 0.00164446 0.00195828 0.00931108 0.00569903 0.02919657 0.00303104 0.00261132 0.12749591 0.00119210 0.01210602 0.02289234 0.00088222 
0.03382880 0.03904116 0.01148938 0.00227260 0.00158719 0.00195968 0.00922722 0.00563879 0.02853253 0.00299529 0.00258242 0.12770134 0.00113601 0.01199726 0.02287497 0.00089643 
0.03343656 0.03911784 0.01135274 0.00222540 0.00153189 0.00196068 0.00913569 0.00557844 0.02789320 0.00295831 0.00255187 0.12790224 0.00108787 0.01188429 0.02284996 0.00091216 
0.03303941 0.03920500 0.01121000 0.00218080 0.00147883 0.00196129 0.00903706 0.00551806 0.02728084 0.00292019 0.00251993 0.12809759 0.00104784 0.01176764 0.02281735 0.00092934 
0.03263908 0.03930072 0.01106156 0.00213892 0.00142828 0.00196152 0.00893193 0.00545769 0.02669758 0.00288101 0.00248682 0.12828644 0.00101604 0.01164788 0.02277721 0.00094791 
0.03223724 0.03940320 0.01090788 0.00209988 0.00138048 0.00196138 0.00882094 0.00539740 0.02614536 0.00284089 0.00245280 0.12846787 0.00099263 0.01152560 0.02272963 0.00096779 
0.03183557 0.03951070 0.01074948 0.00206378 0.00133565 0.00196089 0.00870475 0.00533722 0.02562597 0.00279991 0.00241812 0.12864101 0.00097770 0.01140140 0.02267475 0.00098890 
0.03143570 0.03962161 0.01058690 0.00203070 0.00129399 0.00196006 0.00858405 0.00527718 0.02514099 0.00275818 0.00238304 0.12880506 0.00097138 0.01127589 0.02261273 0.00101116 
0.03103922 0.03973442 0.01042075 0.00200071 0.00125571 0.00195892 0.00845953 0.00521733 0.02469186 0.00271583 0.00234782 0.12895925 0.00097374 0.01114968 0.02254376 0.00103447 
0.03064767 0.03984773 0.01025167 0.00197384 0.00122096 0.00195750 0.00833193 0.00515768 0.02427981 0.00267295 0.00231272 0.12910288 0.00098488 0.01102341 0.02246806 0.00105873 
0.03026255 0.03996028 0.01008034 0.00195012 0.00118989 0.00195582 0.00820197 0.00509827 0.02390589 0.00262967 0.00227801 0.12923529 0.00100484 0.01089771 0.02238591 0.00108382 
0.02988529 0.04007094 0.00990747 0.00192958 0.00116263 0.00195391 0.00807038 0.00503911 0.02357099 0.00258611 0.00224395 0.12935588 0.00103367 0.01077318 0.02229759 0.00110965 
0.02951724 0.04017868 0.00973380 0.00191219 0.00113928 0.00195181 0.00793789 0.00498023 0.02327580 0.00254239 0.00221079 0.12946411 0.00107140 0.01065046 0.02220343 0.00113610 
0.02915971 0.04028266 0.00956009 0.00189793 0.00111993 0.00194956 0.00780525 0.00492165 0.02302082 0.00249863 0.00217879 0.12955946 0.00111804 0.01053015 0.02210378 0.00116304 
0.02881392 0.04038212 0.00938714 0.00188677 0.00110464 0.00194719 0.00767317 0.00486340 0.02280641 0.00245495 0.00214819 0.12964148 0.00117356 0.01041283 0.02199903 0.00119038 
0.02848099 0.04047648 0.00921572 0.00187864 0.00109344 0.00194476 0.00754237 0.00480550 0.02263271 0.00241149 0.00211924 0.12970974 0.00123794 0.01029910 0.02188959 0.00121797 
0.02816198 0.04056526 0.00904666 0.00187347 0.00108636 0.00194230 0.00741353 0.00474798 0.02249974 0.00236836 0.00209216 0.12976388 0.00131111 0.01018949 0.02177588 0.00124570 
0.02785784 0.04064813 0.00888075 0.00187118 0.00108339 0.00193986 0.00728734 0.00469088 0.02240733 0.00232570 0.00206717 0.12980354 0.00139300 0.01008455 0.02165838 0.00127345 
0.02756945 0.04072487 0.00871879 0.00187166 0.00108451 0.00193750 0.00716444 0.00463423 0.02235515 0.00228363 0.00204448 0.12982841 0.00148350 0.00998477 0.02153756 0.00130111 
0.02729756 0.04079539 0.00856160 0.00187480 0.00108968 0.00193526 0.00704545 0.00457807 0.02234273 0.00224227 0.00202428 0.12983821 0.00158248 0.00989062 0.02141392 0.00132854 
0.02704283 0.04085971 0.00840995 0.00188047 0.00109882 0.00193319 0.00693096 0.00452247 0.02236946 0.00220175 0.00200676 0.12983269 0.00168978 0.00980254 0.02128797 0.00135563 
0.02680584 0.04091797 0.00826461 0.00188853 0.00111186 0.00193136 0.00682152 0.00446746 0.02243459 0.00216220 0.00199209 0.12981161 0.00180522 0.00972093 0.02116025 0.00138227 
0.02658703 0.04097040 0.00812631 0.00189884 0.00112869 0.00192981 0.00671764 0.00441313 0.02253724 0.00212373 0.00198040 0.12977474 0.00192859 0.00964615 0.02103128 0.00140834 
0.02638676 0.04101731 0.00799578 0.00191124 0.00114920 0.00192860 0.00661979 0.00435954 0.02267640 0.00208646 0.00197183 0.12972190 0.00205965 0.00957853 0.02090162 0.00143374 
0.02620527 0.04105911 0.00787370 0.00192557 0.00117324 0.00192778 0.00652840 0.00430677 0.02285096 0.00205050 0.00196649 0.12965288 0.00219813 0.00951833 0.02077181 0.00145836 
0.02604270 0.04109629 0.00776070 0.00194165 0.00120067 0.00192740 0.00644384 0.00425492 0.02305972 0.00201598 0.00196448 0.12956753 0.00234374 0.00946578 0.02064240 0.00148211 
0.02589906 0.04112938 0.00765738 0.00195932 0.00123131 0.00192753 0.00636645 0.00420408 0.02330136 0.00198298 0.00196588 0.12946566 0.00249616 0.00942107 0.02051395 0.00150489 
0.02577428 0.04115899 0.00756430 0.00197839 0.00126499 0.00192822 0.00629651 0.00415437 0.02357447 0.00195162 0.00197072 0.12934714 0.00265503 0.00938434 0.02038698 0.00152662 
0.02566818 0.04118575 0.00748195 0.00199868 0.00130151 0.00192950 0.00623424 0.00410589 0.02387759 0.00192200 0.00197906 0.12921181 0.00281999 0.00935567 0.02026204 0.00154720 
0.02558046 0.04121036 0.00741076 0.00202001 0.00134066 0.00193144 0.00617982 0.00405878 0.02420917 0.00189420 0.00199089 0.12905954 0.00299061 0.00933509 0.02013964 0.00156658 
0.02551074 0.04123350 0.00735114 0.00204221 0.00138223 0.00193408 0.00613336 0.00401318 0.02456759 0.00186831 0.00200622 0.12889020 0.00316647 0.00932260 0.02002029 0.00158467 
0.02545853 0.04125590 0.00730339 0.00206508 0.00142600 0.00193745 0.00609495 0.00396921 0.02495119 0.00184441 0.00202500 0.12870367 0.00334712 0.00931813 0.01990446 0.00160143 
0.02542324 0.04127830 0.00726778 0.00208845 0.00147172 0.00194161 0.00606460 0.00392704 0.02535825 0.00182258 0.00204719 0.12849987 0.00353206 0.00932157 0.01979263 0.00161679 
0.02540421 0.04130142 0.00724448 0.00211215 0.00151917 0.00194659 0.00604227 0.00388682 0.02578704 0.00180288 0.00207271 0.12827869 0.00372080 0.00933277 0.01968523 0.00163072 
0.02540066 0.04132598 0.00723362 0.00213601 0.00156810 0.00195242 0.00602787 0.00384871 0.02623576 0.00178536 0.00210146 0.12804009 0.00391281 0.00935150 0.01958267 0.00164316 
0.02541176 0.04135269 0.00723525 0.00215986 0.00161826 0.00195913 0.00602127 0.00381289 0.02670261 0.00177009 0.00213334 0.12778400 0.00410754 0.00937753 0.01948533 0.00165410 
0.02543659 0.04138221 0.00724934 0.00218354 0.00166939 0.00196673 0.00602228 0.00377951 0.02718575 0.00175709 0.00216820 0.12751042 0.00430442 0.00941055 0.01939356 0.00166350 
0.02547417 0.04141521 0.00727579 0.00220691 0.00172125 0.00197526 0.00603067 0.00374876 0.02768334 0.00174641 0.00220589 0.12721937 0.00450288 0.00945023 0.01930766 0.00167136 
0.02552343 0.04145229 0.00731444 0.00222982 0.00177358 0.00198471 0.00604616 0.00372082 0.02819354 0.00173807 0.00224624 0.12691088 0.00470231 0.00949619 0.01922790 0.00167767 
0.02558326 0.04149403 0.00736504 0.00225214 0.00182612 0.00199511 0.00606845 0.00369586 0.02871449 0.00173209 0.00228905 0.12658507 0.00490212 0.00954801 0.01915453 0.00168242 
0.02565250 0.04154095 0.00742726 0.00227376 0.00187864 0.00200644 0.00609717 0.00367406 0.02924434 0.00172846 0.00233412 0.12624206 0.00510168 0.00960523 0.01908773 0.00168562 
0.02572995 0.04159355 0.00750073 0.00229454 0.00193087 0.00201870 0.00613193 0.00365559 0.02978126 0.00172719 0.00238121 0.12588205 0.00530037 0.00966738 0.01902765 0.00168729 
0.02581434 0.04165224 0.00758499 0.00231441 0.00198257 0.00203188 0.00617232 0.00364063 0.03032342 0.00172827 0.00243010 0.12550530 0.00549756 0.00973394 0.01897439 0.00168745 
0.02590441 0.04171742 0.00767951 0.00233325 0.00203351 0.00204595 0.00621789 0.00362934 0.03086901 0.00173167 0.00248053 0.12511213 0.00569264 0.00980438 0.01892802 0.00168612 
0.02599886 0.04178941 0.00778371 0.00235100 0.00208345 0.00206090 0.00626815 0.00362189 0.03141623 0.00173736 0.00253223 0.12470293 0.00588496 0.00987813 0.01888856 0.00168333 
0.02609635 0.04186849 0.00789692 0.00236758 0.00213216 0.00207669 0.00632262 0.00361843 0.03196333 0.00174530 0.00258494 0.12427817 0.00607392 0.00995462 0.01885596 0.00167913 
0.02619558 0.04195488 0.00801845 0.00238294 0.00217943 0.00209328 0.00638079 0.00361910 0.03250856 0.00175544 0.00263836 0.12383840 0.00625889 0.01003325 0.01883017 0.00167356 
0.02629521 0.04204875 0.00814752 0.00239704 0.00222504 0.00211063 0.00644213 0.00362404 0.03305022 0.00176772 0.00269221 0.12338428 0.00643929 0.01011343 0.01881105 0.00166667 
0.02639391 0.04215024 0.00828332 0.00240983 0.00226880 0.00212867 0.00650611 0.00363337 0.03358665 0.00178208 0.00274620 0.12291653 0.00661451 0.01019454 0.01879845 0.00165852 
0.02649040 0.04225943 0.00842499 0.00242129 0.00231051 0.00214736 0.00657220 0.00364719 0.03411621 0.00179843 0.00280002 0.12243601 0.00678400 0.01027596 0.01879216 0.00164915 
0.02658337 0.04237635 0.00857162 0.00243142 0.00234999 0.00216663 0.00663987 0.00366561 0.03463731 0.00181668 0.00285337 0.12194366 0.00694721 0.01035708 0.01879193 0.00163865 
0.02667158 0.04250101 0.00872226 0.00244022 0.00238707 0.00218639 0.00670859 0.00368869 0.03514840 0.00183676 0.00290596 0.12144052 0.00710360 0.01043730 0.01879747 0.00162706 
0.02675379 0.04263337 0.00887595 0.00244768 0.00242161 0.00220659 0.00677784 0.00371651 0.03564800 0.00185854 0.00295748 0.12092777 0.00725269 0.01051600 0.01880845 0.00161446 
0.02682884 0.04277338 0.00903168 0.00245382 0.00245344 0.00222713 0.00684712 0.00374909 0.03613464 0.00188192 0.00300764 0.12040668 0.00739401 0.01059261 0.01882451 0.00160093 
0.02689560 0.04292093 0.00918844 0.00245869 0.00248244 0.00224793 0.00691593 0.00378646 0.03660695 0.00190679 0.00305615 0.11987865 0.00752712 0.01066655 0.01884526 0.00158653 
0.02695298 0.04307592 0.00934520 0.00246230 0.00250850 0.00226890 0.00698381 0.00382863 0.03706357 0.00193303 0.00310272 0.11934519 0.00765162 0.01073727 0.01887026 0.00157134 
0.02699997 0.04323824 0.00950090 0.00246470 0.00253149 0.00228993 0.00705032 0.00387557 0.03750324 0.00196050 0.00314708 0.11880791 0.00776714 0.01080422 0.01889906 0.00155544 
0.02703563 0.04340773 0.00965451 0.00246594 0.00255134 0.00231094 0.00711504 0.00392725 0.03792475 0.00198908 0.00318896 0.11826855 0.00787338 0.01086690 0.01893117 0.00153890 
0.02705907 0.04358427 0.00980499 0.00246608 0.00256797 0.00233182 0.00717758 0.00398359 0.03832693 0.00201861 0.00322812 0.11772897 0.00797003 0.01092484 0.01896610 0.00152181 
0.02706950 0.04376770 0.00995132 0.00246517 0.00258131 0.00235247 0.00723760 0.00404451 0.03870873 0.00204898 0.00326432 0.11719111 0.00805688 0.01097758 0.01900331 0.00150424 
0.02706620 0.04395791 0.01009247 0.00246329 0.00259131 0.00237278 0.00729478 0.00410990 0.03906913 0.00208002 0.00329733 0.11665702 0.00813371 0.01102472 0.01904229 0.00148627 
0.02704852 0.04415474 0.01022746 0.00246050 0.00259793 0.00239265 0.00734884 0.00417963 0.03940721 0.00211159 0.00332695 0.11612886 0.00820040 0.01106587 0.01908247 0.00146797 
0.02701592 0.04435810 0.01035534 0.00245688 0.00260116 0.00241197 0.00739955 0.00425353 0.03972212 0.00214355 0.00335299 0.11560887 0.00825684 0.01110068 0.01912329 0.00144943 
0.02696795 0.04456787 0.01047517 0.00245250 0.00260099 0.00243064 0.00744673 0.00433142 0.04001309 0.00217574 0.00337529 0.11509935 0.00830299 0.01112887 0.01916422 0.00143071 
0.02690422 0.04478399 0.01058608 0.00244744 0.00259742 0.00244856 0.00749021 0.00441310 0.04027945 0.00220802 0.00339369 0.11460268 0.00833884 0.01115017 0.01920467 0.00141189 
0.02682448 0.04500639 0.01068723 0.00244177 0.00259048 0.00246563 0.00752989 0.00449835 0.04052062 0.00224023 0.00340806 0.11412132 0.00836444 0.01116437 0.01924410 0.00139304 
0.02672855 0.04523504 0.01077783 0.00243558 0.00258020 0.00248176 0.00756571 0.00458690 0.04073610 0.00227224 0.00341831 0.11365774 0.00837990 0.01117128 0.01928197 0.00137423 
0.02661635 0.04546993 0.01085717 0.00242893 0.00256663 0.00249684 0.00759766 0.00467850 0.04092550 0.00230389 0.00342435 0.11321447 0.00838537 0.01117078 0.01931774 0.00135553 
0.02648788 0.04571110 0.01092457 0.00242191 0.00254983 0.00251080 0.00762577 0.00477285 0.04108852 0.00233505 0.00342613 0.11279402 0.00838103 0.01116279 0.01935088 0.00133700 
0.02634328 0.04595860 0.01097944 0.00241459 0.00252988 0.00252355 0.00765010 0.00486964 0.04122498 0.00236557 0.00342361 0.11239895 0.00836713 0.01114727 0.01938090 0.00131869 
0.02618275 0.04621251 0.01102126 0.00240704 0.00250686 0.00253503 0.00767078 0.00496855 0.04133477 0.00239533 0.00341677 0.11203178 0.00834398 0.01112421 0.01940733 0.00130067 
0.02600658 0.04647294 0.01104956 0.00239933 0.00248088 0.00254515 0.00768796 0.00506922 0.04141794 0.00242420 0.00340565 0.11169499 0.00831189 0.01109366 0.01942971 0.00128299 
0.02581519 0.04674004 0.01106397 0.00239151 0.00245205 0.00255387 0.00770183 0.00517131 0.04147461 0.00245206 0.00339026 0.11139103 0.00827125 0.01105572 0.01944762 0.00126570 
0.02560906 0.04701398 0.01106420 0.00238366 0.00242049 0.00256114 0.00771264 0.00527443 0.04150503 0.00247879 0.00337069 0.11112227 0.00822247 0.01101052 0.01946067 0.00124885 
0.02538877 0.04729495 0.01105005 0.00237583 0.00238634 0.00256690 0.00772065 0.00537822 0.04150956 0.00250428 0.00334700 0.11089101 0.00816602 0.01095823 0.01946850 0.00123249 
0.02515498 0.04758318 0.01102138 0.00236807 0.00234973 0.00257114 0.00772616 0.00548227 0.04148867 0.00252844 0.00331932 0.11069944 0.00810238 0.01089906 0.01947080 0.00121664 
0.02490842 0.04787891 0.01097815 0.00236043 0.00231084 0.00257382 0.00772951 0.00558619 0.04144296 0.00255117 0.00328778 0.11054961 0.00803208 0.01083327 0.01946729 0.00120136 
0.02464994 0.04818240 0.01092042 0.00235294 0.00226982 0.00257494 0.00773106 0.00568958 0.04137313 0.00257239 0.00325252 0.11044347 0.00795567 0.01076113 0.01945773 0.00118666 
0.02438041 0.04849393 0.01084833 0.00234565 0.00222685 0.00257450 0.00773118 0.00579202 0.04127999 0.00259203 0.00321373 0.11038277 0.00787372 0.01068298 0.01944193 0.00117259 
0.02410080 0.04881378 0.01076209 0.00233859 0.00218211 0.00257250 0.00773028 0.00589312 0.04116449 0.00261002 0.00317159 0.11036912 0.00778685 0.01059915 0.01941973 0.00115916 
0.02381216 0.04914225 0.01066203 0.00233178 0.00213579 0.00256898 0.00772878 0.00599247 0.04102767 0.00262631 0.00312632 0.11040390 0.00769566 0.01051002 0.01939104 0.00114640 
0.02351555 0.04947964 0.01054855 0.00232525 0.00208809 0.00256396 0.00772709 0.00608966 0.04087068 0.00264084 0.00307816 0.11048832 0.00760080 0.01041601 0.01935580 0.00113432 
0.02321213 0.04982625 0.01042213 0.00231900 0.00203921 0.00255749 0.00772566 0.00618431 0.04069478 0.00265360 0.00302734 0.11062334 0.00750291 0.01031753 0.01931400 0.00112294 
0.02290309 0.05018238 0.01028335 0.00231307 0.00198936 0.00254962 0.00772492 0.00627602 0.04050134 0.00266455 0.00297412 0.11080968 0.00740265 0.01021503 0.01926568 0.00111228 
0.02258967 0.05054830 0.01013286 0.00230744 0.00193875 0.00254043 0.00772531 0.00636444 0.04029181 0.00267367 0.00291878 0.11104782 0.00730066 0.01010899 0.01921092 0.00110233 
0.02227313 0.05092429 0.00997139 0.00230213 0.00188760 0.00253000 0.00772725 0.00644919 0.04006774 0.00268096 0.00286159 0.11133798 0.00719761 0.00999987 0.01914985 0.00109310 
0.02195479 0.05131060 0.00979975 0.00229713 0.00183613 0.00251840 0.00773117 0.00652994 0.03983078 0.00268643 0.00280286 0.11168009 0.00709414 0.00988817 0.01908265 0.00108459 
0.02163597 0.05170748 0.00961882 0.00229244 0.00178457 0.00250575 0.00773747 0.00660637 0.03958262 0.00269008 0.00274287 0.11207381 0.00699090 0.00977439 0.01900955 0.00107681 
0.02131804 0.05211511 0.00942954 0.00228806 0.00173314 0.00249215 0.00774654 0.00667815 0.03932507 0.00269195 0.00268193 0.11251851 0.00688851 0.00965904 0.01893082 0.00106973 
0.02100235 0.05253370 0.00923292 0.00228398 0.00168206 0.00247772 0.00775874 0.00674502 0.03905997 0.00269206 0.00262035 0.11301328 0.00678758 0.00954261 0.01884677 0.00106337 
0.02069029 0.05296337 0.00903002 0.00228017 0.00163157 0.00246258 0.00777440 0.00680672 0.03878922 0.00269046 0.00255844 0.11355690 0.00668872 0.00942563 0.01875775 0.00105770 
0.02038323 0.05340425 0.00882197 0.00227664 0.00158188 0.00244688 0.00779384 0.00686302 0.03851478 0.00268719 0.00249649 0.11414785 0.00659247 0.00930859 0.01866416 0.00105272 
0.02008255 0.05385640 0.00860993 0.00227336 0.00153321 0.00243075 0.00781733 0.00691370 0.03823862 0.00268230 0.00243482 0.11478434 0.00649939 0.00919199 0.01856642 0.00104841 
0.01978963 0.05431988 0.00839510 0.00227033 0.00148580 0.00241433 0.00784511 0.00695860 0.03796276 0.00267587 0.00237373 0.11546427 0.00640999 0.00907632 0.01846502 0.00104475 
0.01950583 0.05479466 0.00817873 0.00226752 0.00143985 0.00239779 0.00787738 0.00699756 0.03768920 0.00266796 0.00231350 0.11618527 0.00632473 0.00896207 0.01836044 0.00104172 
0.01923250 0.05528070 0.00796208 0.00226493 0.00139557 0.00238128 0.00791428 0.00703049 0.03741998 0.00265864 0.00225443 0.11694469 0.00624407 0.00884970 0.01825323 0.00103930 
0.01897094 0.05577791 0.00774643 0.00226254 0.00135318 0.00236495 0.00795593 0.00705728 0.03715710 0.00264800 0.00219678 0.11773963 0.00616841 0.00873966 0.01814394 0.00103747 
0.01872247 0.05628615 0.00753310 0.00226034 0.00131287 0.00234897 0.00800240 0.00707789 0.03690254 0.00263611 0.00214082 0.11856692 0.00609811 0.00863240 0.01803317 0.00103620 
0.01848836 0.05680524 0.00732339 0.00225832 0.00127485 0.00233350 0.00805370 0.00709231 0.03665827 0.00262307 0.00208680 0.11942317 0.00603349 0.00852831 0.01792151 0.00103548 
0.01826982 0.05733495 0.00711860 0.00225647 0.00123928 0.00231870 0.00810979 0.00710056 0.03642617 0.00260897 0.00203496 0.12030478 0.00597483 0.00842782 0.01780960 0.00103526 
0.01806807 0.05787501 0.00692005 0.00225479 0.00120636 0.00230472 0.00817060 0.00710267 0.03620810 0.00259390 0.00198550 0.12120792 0.00592237 0.00833128 0.01769810 0.00103554 
0.01788425 0.05842512 0.00672902 0.00225328 0.00117625 0.00229173 0.00823599 0.00709873 0.03600581 0.00257795 0.00193864 0.12212862 0.00587630 0.00823905 0.01758765 0.00103627 
0.01771949 0.05898493 0.00654678 0.00225193 0.00114911 0.00227987 0.00830578 0.00708886 0.03582100 0.00256121 0.00189455 0.12306274 0.00583675 0.00815146 0.01747894 0.00103744 
0.01757485 0.05955403 0.00637455 0.00225077 0.00112508 0.00226930 0.00837973 0.00707320 0.03565523 0.00254379 0.00185339 0.12400601 0.00580382 0.00806881 0.01737264 0.00103901 
0.01745135 0.06013201 0.00621355 0.00224980 0.00110430 0.00226014 0.00845755 0.00705192 0.03551000 0.00252578 0.00181531 0.12495406 0.00577757 0.00799139 0.01726944 0.00104096 
0.01734995 0.06071841 0.00606492 0.00224903 0.00108690 0.00225254 0.00853893 0.00702524 0.03538664 0.00250726 0.00178042 0.12590244 0.00575800 0.00791944 0.01717002 0.00104325 
0.01727159 0.06131272 0.00592978 0.00224848 0.00107299 0.00224662 0.00862347 0.00699338 0.03528638 0.00248833 0.00174882 0.12684666 0.00574508 0.00785319 0.01707507 0.00104587 
0.01721711 0.06191442 0.00580917 0.00224818 0.00106265 0.00224249 0.00871076 0.00695660 0.03521029 0.00246906 0.00172060 0.12778220 0.00573872 0.00779284 0.01698528 0.00104877 
0.01718733 0.06252297 0.00570408 0.00224817 0.00105599 0.00224025 0.00880033 0.00691520 0.03515929 0.00244956 0.00169579 0.12870456 0.00573879 0.00773857 0.01690131 0.00105195 
0.01718300 0.06313778 0.00561542 0.00224846 0.00105305 0.00223999 0.00889169 0.00686946 0.03513414 0.00242989 0.00167443 0.12960927 0.00574514 0.00769052 0.01682382 0.00105536 
0.01720481 0.06375827 0.00554404 0.00224912 0.00105391 0.00224180 0.00898429 0.00681973 0.03513543 0.00241012 0.00165653 0.13049195 0.00575757 0.00764883 0.01675347 0.00105899 
0.01725340 0.06438381 0.00549069 0.00225016 0.00105860 0.00224574 0.00907757 0.00676635 0.03516356 0.00239034 0.00164207 0.13134830 0.00577583 0.00761358 0.01669088 0.00106281 
0.01732934 0.06501378 0.00545605 0.00225166 0.00106713 0.00225185 0.00917092 0.00670967 0.03521878 0.00237059 0.00163101 0.13217416 0.00579965 0.00758485 0.01663667 0.00106680 
0.01743315 0.06564753 0.00544069 0.00225366 0.00107953 0.00226018 0.00926373 0.00665008 0.03530111 0.00235094 0.00162330 0.13296553 0.00582873 0.00756270 0.01659141 0.00107094 
0.01756529 0.06628440 0.00544510 0.00225621 0.00109578 0.00227074 0.00935535 0.00658795 0.03541041 0.00233145 0.00161885 0.13371861 0.00586274 0.00754714 0.01655569 0.00107521 
0.01772615 0.06692372 0.00546967 0.00225938 0.00111586 0.00228354 0.00944513 0.00652368 0.03554632 0.00231214 0.00161756 0.13442979 0.00590133 0.00753818 0.01653001 0.00107959 
0.01791607 0.06756481 0.00551468 0.00226324 0.00113972 0.00229857 0.00953240 0.00645767 0.03570831 0.00229308 0.00161931 0.13509573 0.00594411 0.00753581 0.01651490 0.00108406 
0.01813531 0.06820699 0.00558030 0.00226785 0.00116732 0.00231580 0.00961648 0.00639033 0.03589563 0.00227428 0.00162397 0.13571335 0.00599070 0.00753999 0.01651082 0.00108861 
0.01838409 0.06884956 0.00566661 0.00227328 0.00119857 0.00233518 0.00969671 0.00632205 0.03610736 0.00225577 0.00163139 0.13627985 0.00604068 0.00755066 0.01651818 0.00109322 
0.01866257 0.06949183 0.00577355 0.00227960 0.00123339 0.00235666 0.00977241 0.00625323 0.03634236 0.00223758 0.00164138 0.13679275 0.00609362 0.00756775 0.01653740 0.00109788 
0.01897082 0.07013309 0.00590097 0.00228690 0.00127168 0.00238017 0.00984293 0.00618428 0.03659933 0.00221971 0.00165377 0.13724992 0.00614910 0.00759117 0.01656882 0.00110259 
0.01930886 0.07077262 0.00604861 0.00229523 0.00131333 0.00240560 0.00990762 0.00611558 0.03687676 0.00220218 0.00166837 0.13764954 0.00620668 0.00762080 0.01661273 0.00110733 
0.01967665 0.07140971 0.00621608 0.00230469 0.00135818 0.00243285 0.00996587 0.00604750 0.03717300 0.00218498 0.00168497 0.13799019 0.00626593 0.00765652 0.01666941 0.00111209 
0.02007410 0.07204360 0.00640289 0.00231534 0.00140610 0.00246181 0.01001708 0.00598042 0.03748621 0.00216812 0.00170334 0.13827081 0.00632639 0.00769819 0.01673906 0.00111687 
0.02050101 0.07267356 0.00660843 0.00232727 0.00145693 0.00249233 0.01006068 0.00591469 0.03781438 0.00215158 0.00172327 0.13849072 0.00638766 0.00774566 0.01682184 0.00112167 
0.02095715 0.07329883 0.00683201 0.00234053 0.00151049 0.00252426 0.01009615 0.00585064 0.03815540 0.00213534 0.00174454 0.13864966 0.00644929 0.00779876 0.01691786 0.00112649 
0.02144221 0.07391863 0.00707278 0.00235521 0.00156660 0.00255745 0.01012300 0.00578859 0.03850698 0.00211940 0.00176690 0.13874773 0.00651088 0.00785732 0.01702717 0.00113131 
0.02195581 0.07453215 0.00732984 0.00237138 0.00162504 0.00259171 0.01014078 0.00572884 0.03886673 0.00210373 0.00179013 0.13878545 0.00657204 0.00792113 0.01714978 0.00113615 
0.02249749 0.07513858 0.00760215 0.00238910 0.00168563 0.00262687 0.01014910 0.00567167 0.03923216 0.00208831 0.00181399 0.13876374 0.00663238 0.00798999 0.01728562 0.00114101 
0.02306673 0.07573705 0.00788861 0.00240842 0.00174812 0.00266273 0.01014763 0.00561734 0.03960068 0.00207311 0.00183826 0.13868389 0.00669155 0.00806370 0.01743457 0.00114587 
0.02366292 0.07632670 0.00818799 0.00242942 0.00181230 0.00269909 0.01013608 0.00556606 0.03996963 0.00205810 0.00186270 0.13854759 0.00674920 0.00814202 0.01759647 0.00115077 
0.02428540 0.07690660 0.00849900 0.00245214 0.00187793 0.00273574 0.01011422 0.00551807 0.04033630 0.00204325 0.00188710 0.13835690 0.00680502 0.00822473 0.01777107 0.00115568 
0.02493339 0.07747580 0.00882027 0.00247664 0.00194477 0.00277247 0.01008191 0.00547352 0.04069792 0.00202854 0.00191124 0.13811423 0.00685872 0.00831157 0.01795808 0.00116062 
0.02560606 0.07803329 0.00915034 0.00250294 0.00201255 0.00280906 0.01003905 0.00543260 0.04105173 0.00201393 0.00193492 0.13782235 0.00691005 0.00840230 0.01815715 0.00116560 
0.02630249 0.07857805 0.00948771 0.00253109 0.00208103 0.00284528 0.00998562 0.00539542 0.04139495 0.00199940 0.00195795 0.13748432 0.00695878 0.00849665 0.01836785 0.00117062 
0.02702167 0.07910897 0.00983079 0.00256111 0.00214995 0.00288093 0.00992167 0.00536209 0.04172482 0.00198493 0.00198014 0.13710354 0.00700469 0.00859434 0.01858971 0.00117569 
0.02776249 0.07962491 0.01017797 0.00259303 0.00221904 0.00291576 0.00984732 0.00533271 0.04203861 0.00197048 0.00200133 0.13668367 0.00704764 0.00869511 0.01882218 0.00118081 
0.02852378 0.08012468 0.01052758 0.00262686 0.00228804 0.00294958 0.00976277 0.00530731 0.04233368 0.00195604 0.00202138 0.13622861 0.00708748 0.00879865 0.01906468 0.00118599 
0.02930425 0.08060702 0.01087792 0.00266260 0.00235669 0.00298216 0.00966827 0.00528596 0.04260742 0.00194160 0.00204014 0.13574250 0.00712410 0.00890466 0.01931655 0.00119123 
0.03010254 0.08107063 0.01122726 0.00270025 0.00242472 0.00301329 0.00956418 0.00526864 0.04285735 0.00192713 0.00205750 0.13522966 0.00715744 0.00901285 0.01957707 0.00119654 
0.03091718 0.08151413 0.01157386 0.00273979 0.00249188 0.00304276 0.00945091 0.00525536 0.04308109 0.00191264 0.00207337 0.13469458 0.00718746 0.00912288 0.01984548 0.00120192 
0.03174661 0.08193612 0.01191597 0.00278122 0.00255790 0.00307040 0.00932894 0.00524608 0.04327639 0.00189813 0.00208766 0.13414187 0.00721415 0.00923444 0.02012096 0.00120737 
0.03258918 0.08233510 0.01225187 0.00282450 0.00262254 0.00309600 0.00919883 0.00524076 0.04344117 0.00188358 0.00210032 0.13357622 0.00723755 0.00934719 0.02040262 0.00121290 
0.03344313 0.08270956 0.01257980 0.00286960 0.00268554 0.00311939 0.00906121 0.00523932 0.04357348 0.00186903 0.00211132 0.13300241 0.00725770 0.00946079 0.02068956 0.00121851 
0.03430663 0.08305792 0.01289808 0.00291647 0.00274667 0.00314042 0.00891677 0.00524170 0.04367158 0.00185449 0.00212064 0.13242520 0.00727469 0.00957488 0.02098081 0.00122419 
0.03517771 0.08337854 0.01320501 0.00296505 0.00280569 0.00315893 0.00876627 0.00524778 0.04373393 0.00183997 0.00212828 0.13184936 0.00728865 0.00968911 0.02127536 0.00122995 
0.03605436 0.08366979 0.01349899 0.00301530 0.00286239 0.00317480 0.00861053 0.00525747 0.04375917 0.00182552 0.00213427 0.13127961 0.00729971 0.00980311 0.02157216 0.00123577 
0.03693444 0.08392995 0.01377841 0.00306713 0.00291654 0.00318790 0.00845042 0.00527064 0.04374618 0.00181117 0.00213866 0.13072056 0.00730804 0.00991651 0.02187014 0.00124166 
0.03781574 0.08415732 0.01404178 0.00312048 0.00296796 0.00319814 0.00828686 0.00528717 0.04369409 0.00179697 0.00214153 0.13017673 0.00731383 0.01002892 0.02216818 0.00124760 
0.03869597 0.08435017 0.01428763 0.00317527 0.00301644 0.00320543 0.00812084 0.00530691 0.04360223 0.00178297 0.00214297 0.12965245 0.00731729 0.01013996 0.02246515 0.00125358 
0.03957273 0.08450677 0.01451461 0.00323139 0.00306182 0.00320972 0.00795337 0.00532974 0.04347021 0.00176924 0.00214307 0.12915188 0.00731867 0.01024924 0.02275989 0.00125959 
0.04044358 0.08462540 0.01472144 0.00328877 0.00310393 0.00321095 0.00778552 0.00535551 0.04329788 0.00175584 0.00214199 0.12867896 0.00731820 0.01035637 0.02305124 0.00126562 
0.04130599 0.08470435 0.01490692 0.00334730 0.00314263 0.00320910 0.00761837 0.00538407 0.04308535 0.00174285 0.00213986 0.12823737 0.00731615 0.01046095 0.02333801 0.00127164 
0.04215737 0.08474197 0.01506998 0.00340688 0.00317779 0.00320417 0.00745304 0.00541528 0.04283300 0.00173035 0.00213684 0.12783050 0.00731281 0.01056258 0.02361901 0.00127764 
0.04299508 0.08473662 0.01520965 0.00346739 0.00320928 0.00319618 0.00729068 0.00544899 0.04254146 0.00171844 0.00213314 0.12746147 0.00730846 0.01066086 0.02389308 0.00128360 
0.04381643 0.08468677 0.01532508 0.00352872 0.00323702 0.00318516 0.00713244 0.00548508 0.04221161 0.00170720 0.00212893 0.12713305 0.00730340 0.01075541 0.02415903 0.00128949 
0.04461870 0.08459096 0.01541554 0.00359077 0.00326092 0.00317117 0.00697950 0.00552340 0.04184460 0.00169673 0.00212443 0.12684766 0.00729792 0.01084581 0.02441571 0.00129529 
0.04539914 0.08444780 0.01548042 0.00365340 0.00328091 0.00315429 0.00683301 0.00556381 0.04144182 0.00168714 0.00211986 0.12660736 0.00729235 0.01093169 0.02466198 0.00130097 
0.04615497 0.08425607 0.01551925 0.00371651 0.00329694 0.00313461 0.00669415 0.00560621 0.04100491 0.00167854 0.00211545 0.12641385 0.00728697 0.01101267 0.02489672 0.00130649 
0.04688343 0.08401463 0.01553170 0.00377997 0.00330900 0.00311225 0.00656409 0.00565047 0.04053575 0.00167103 0.00211145 0.12626843 0.00728210 0.01108837 0.02511887 0.00131182 
0.04758175 0.08372255 0.01551758 0.00384367 0.00331707 0.00308736 0.00644395 0.00569648 0.04003642 0.00166473 0.00210810 0.12617200 0.00727805 0.01115844 0.02532738 0.00131693 
0.04824721 0.08337903 0.01547683 0.00390747 0.00332115 0.00306007 0.00633486 0.00574415 0.03950924 0.00165975 0.00210565 0.12612506 0.00727509 0.01122252 0.02552127 0.00132179 
0.04887710 0.08298349 0.01540954 0.00397128 0.00332127 0.00303057 0.00623791 0.00579337 0.03895670 0.00165622 0.00210435 0.12612773 0.00727354 0.01128029 0.02569961 0.00132635 
0.04946877 0.08253553 0.01531594 0.00403496 0.00331747 0.00299904 0.00615416 0.00584407 0.03838149 0.00165423 0.00210446 0.12617971 0.00727365 0.01133144 0.02586152 0.00133058 
0.05001963 0.08203501 0.01519642 0.00409841 0.00330980 0.00296568 0.00608462 0.00589617 0.03778645 0.00165391 0.00210623 0.12628033 0.00727570 0.01137567 0.02600620 0.00133444 
0.05052720 0.08148202 0.01505149 0.00416152 0.00329836 0.00293071 0.00603026 0.00594961 0.03717459 0.00165537 0.00210992 0.12642852 0.00727995 0.01141272 0.02613291 0.00133788 
0.05098907 0.08087690 0.01488180 0.00422418 0.00328323 0.00289436 0.00599200 0.00600431 0.03654904 0.00165871 0.00211575 0.12662287 0.00728663 0.01144234 0.02624099 0.00134087 
0.05140295 0.08022028 0.01468816 0.00428629 0.00326451 0.00285687 0.00597070 0.00606023 0.03591301 0.00166405 0.00212398 0.12686160 0.00729597 0.01146433 0.02632988 0.00134337 
0.05176669 0.07951306 0.01447149 0.00434776 0.00324233 0.00281849 0.00596714 0.00611731 0.03526985 0.00167146 0.00213483 0.12714260 0.00730817 0.01147850 0.02639909 0.00134532 
0.05207827 0.07875648 0.01423285 0.00440850 0.00321684 0.00277947 0.00598205 0.00617552 0.03462292 0.00168106 0.00214850 0.12746346 0.00732342 0.01148470 0.02644823 0.00134670 
0.05233584 0.07795204 0.01397343 0.00446841 0.00318818 0.00274009 0.00601610 0.00623482 0.03397568 0.00169292 0.00216522 0.12782150 0.00734189 0.01148282 0.02647701 0.00134747 
0.05253775 0.07710159 0.01369454 0.00452743 0.00315651 0.00270061 0.00606984 0.00629515 0.03333156 0.00170712 0.00218516 0.12821374 0.00736373 0.01147278 0.02648525 0.00134757 
0.05268249 0.07620731 0.01339757 0.00458548 0.00312203 0.00266131 0.00614378 0.00635649 0.03269402 0.00172373 0.00220849 0.12863703 0.00738907 0.01145455 0.02647284 0.00134699 
0.05276881 0.07527169 0.01308407 0.00464249 0.00308491 0.00262246 0.00623833 0.00641880 0.03206650 0.00174281 0.00223537 0.12908798 0.00741801 0.01142812 0.02643982 0.00134567 
0.05279565 0.07429758 0.01275564 0.00469842 0.00304535 0.00258432 0.00635381 0.00648204 0.03145237 0.00176440 0.00226594 0.12956307 0.00745065 0.01139355 0.02638632 0.00134359 
0.05276219 0.07328814 0.01241398 0.00475320 0.00300357 0.00254719 0.00649046 0.00654616 0.03085494 0.00178854 0.00230030 0.13005862 0.00748705 0.01135092 0.02631258 0.00134071 
0.05266785 0.07224687 0.01206089 0.00480680 0.00295979 0.00251131 0.00664841 0.00661111 0.03027746 0.00181526 0.00233854 0.13057089 0.00752725 0.01130037 0.02621895 0.00133702 
0.05251231 0.07117760 0.01169822 0.00485917 0.00291423 0.00247696 0.00682771 0.00667685 0.02972301 0.00184458 0.00238074 0.13109606 0.00757128 0.01124209 0.02610590 0.00133247 
0.05229551 0.07008447 0.01132789 0.00491029 0.00286711 0.00244439 0.00702831 0.00674330 0.02919461 0.00187648 0.00242694 0.13163030 0.00761913 0.01117629 0.02597400 0.00132706 
0.05201767 0.06897192 0.01095185 0.00496014 0.00281868 0.00241384 0.00725008 0.00681038 0.02869506 0.00191096 0.00247715 0.13216980 0.00767080 0.01110326 0.02582393 0.00132075 
0.05167929 0.06784470 0.01057212 0.00500870 0.00276918 0.00238555 0.00749276 0.00687803 0.02822704 0.00194798 0.00253137 0.13271079 0.00772625 0.01102331 0.02565649 0.00131354 
0.05128113 0.06670784 0.01019073 0.00505595 0.00271886 0.00235975 0.00775604 0.00694614 0.02779302 0.00198752 0.00258958 0.13324959 0.00778542 0.01093680 0.02547257 0.00130543 
0.05082426 0.06556660 0.00980973 0.00510190 0.00266795 0.00233663 0.00803947 0.00701460 0.02739528 0.00202951 0.00265170 0.13378264 0.00784823 0.01084416 0.02527317 0.00129639 
0.05031004 0.06442651 0.00943117 0.00514655 0.00261670 0.00231640 0.00834254 0.00708329 0.02703587 0.00207389 0.00271766 0.13430653 0.00791460 0.01074584 0.02505937 0.00128643 
0.04974009 0.06329329 0.00905710 0.00518989 0.00256537 0.00229924 0.00866464 0.00715207 0.02671663 0.00212057 0.00278734 0.13481804 0.00798441 0.01064233 0.02483235 0.00127557 
0.04911636 0.06217287 0.00868957 0.00523195 0.00251419 0.00228530 0.00900504 0.00722078 0.02643915 0.00216946 0.00286062 0.13531416 0.00805753 0.01053417 0.02459338 0.00126379 
0.04844103 0.06107130 0.00833057 0.00527273 0.00246340 0.00227472 0.00936298 0.00728927 0.02620475 0.00222045 0.00293733 0.13579212 0.00813384 0.01042195 0.02434380 0.00125113 
0.04771660 0.05999480 0.00798208 0.00531225 0.00241326 0.00226763 0.00973756 0.00735733 0.02601453 0.00227341 0.00301729 0.13624941 0.00821318 0.01030626 0.02408502 0.00123760 
0.04694580 0.05894966 0.00764601 0.00535053 0.00236398 0.00226413 0.01012784 0.00742478 0.02586929 0.00232822 0.00310029 0.13668381 0.00829537 0.01018777 0.02381853 0.00122323 
0.04613164 0.05794222 0.00732422 0.00538759 0.00231580 0.00226430 0.01053279 0.00749140 0.02576959 0.00238472 0.00318611 0.13709339 0.00838024 0.01006714 0.02354584 0.00120805 
0.04527739 0.05697887 0.00701851 0.00542345 0.00226894 0.00226820 0.01095129 0.00755694 0.02571571 0.00244275 0.00327448 0.13747656 0.00846760 0.00994508 0.02326854 0.00119209 
0.04438650 0.05606596 0.00673058 0.00545814 0.00222362 0.00227587 0.01138218 0.00762117 0.02570764 0.00250215 0.00336515 0.13783206 0.00855725 0.00982231 0.02298822 0.00117540 
0.04346270 0.05520978 0.00646205 0.00549167 0.00218004 0.00228731 0.01182422 0.00768383 0.02574512 0.00256273 0.00345781 0.13815897 0.00864897 0.00969958 0.02270654 0.00115803 
0.04250987 0.05441656 0.00621444 0.00552407 0.00213840 0.00230253 0.01227612 0.00774465 0.02582762 0.00262432 0.00355216 0.13845671 0.00874255 0.00957765 0.02242515 0.00114003 
0.04153210 0.05369236 0.00598916 0.00555536 0.00209889 0.00232149 0.01273653 0.00780334 0.02595435 0.00268670 0.00364789 0.13872507 0.00883776 0.00945729 0.02214569 0.00112145 
0.04053362 0.05304306 0.00578752 0.00558555 0.00206169 0.00234414 0.01320406 0.00785961 0.02612424 0.00274969 0.00374465 0.13896419 0.00893436 0.00933927 0.02186983 0.00110237 
0.03951882 0.05247433 0.00561070 0.00561466 0.00202696 0.00237039 0.01367729 0.00791316 0.02633601 0.00281306 0.00384210 0.13917455 0.00903212 0.00922437 0.02159919 0.00108285 
0.03849219 0.05199159 0.00545973 0.00564270 0.00199486 0.00240016 0.01415475 0.00796369 0.02658811 0.00287661 0.00393988 0.13935698 0.00913079 0.00911336 0.02133540 0.00106296 
0.03745832 0.05159995 0.00533555 0.00566966 0.00196553 0.00243333 0.01463494 0.00801090 0.02687879 0.00294012 0.00403762 0.13951265 0.00923012 0.00900700 0.02108002 0.00104278 
0.03642188 0.05130416 0.00523893 0.00569556 0.00193910 0.00246975 0.01511636 0.00805447 0.02720604 0.00300336 0.00413497 0.13964304 0.00932986 0.00890606 0.02083459 0.00102239 
0.03538754 0.05110861 0.00517050 0.00572040 0.00191569 0.00250927 0.01559747 0.00809410 0.02756771 0.00306613 0.00423154 0.13974994 0.00942975 0.00881125 0.02060055 0.00100187 
0.03436004 0.05101727 0.00513075 0.00574415 0.00189540 0.00255171 0.01607674 0.00812950 0.02796142 0.00312818 0.00432696 0.13983545 0.00952954 0.00872328 0.02037933 0.00098131 
0.03334406 0.05103364 0.00512003 0.00576680 0.00187832 0.00259687 0.01655264 0.00816036 0.02838463 0.00318932 0.00442085 0.13990190 0.00962895 0.00864285 0.02017222 0.00096080 
0.03234428 0.05116075 0.00513851 0.00578834 0.00186453 0.00264454 0.01702363 0.00818641 0.02883465 0.00324931 0.00451286 0.13995189 0.00972773 0.00857059 0.01998047 0.00094043 
0.03136528 0.05140110 0.00518625 0.00580873 0.00185409 0.00269450 0.01748819 0.00820737 0.02930867 0.00330795 0.00460261 0.13998825 0.00982561 0.00850712 0.01980520 0.00092029 
0.03041158 0.05175665 0.00526312 0.00582793 0.00184705 0.00274649 0.01794484 0.00822300 0.02980374 0.00336502 0.00468975 0.14001398 0.00992233 0.00845300 0.01964745 0.00090048 
0.02948756 0.05222878 0.00536887 0.00584592 0.00184343 0.00280026 0.01839210 0.00823307 0.03031683 0.00342033 0.00477393 0.14003226 0.01001762 0.00840877 0.01950814 0.00088109 
0.02859746 0.05281825 0.00550307 0.00586263 0.00184326 0.00285555 0.01882853 0.00823734 0.03084483 0.00347368 0.00485482 0.14004640 0.01011123 0.00837489 0.01938805 0.00086221 
0.02774534 0.05352526 0.00566517 0.00587802 0.00184654 0.00291209 0.01925273 0.00823565 0.03138457 0.00352488 0.00493210 0.14005983 0.01020288 0.00835179 0.01928787 0.00084394 
0.02693509 0.05434931 0.00585447 0.00589203 0.00185327 0.00296958 0.01966335 0.00822783 0.03193284 0.00357376 0.00500545 0.14007605 0.01029232 0.00833983 0.01920813 0.00082636 
0.02617035 0.05528929 0.00607012 0.00590458 0.00186341 0.00302774 0.02005908 0.00821375 0.03248642 0.00362015 0.00507461 0.14009860 0.01037928 0.00833933 0.01914923 0.00080957 
0.02545455 0.05634344 0.00631114 0.00591561 0.00187692 0.00308628 0.02043868 0.00819330 0.03304209 0.00366389 0.00513928 0.14013104 0.01046351 0.00835053 0.01911144 0.00079365 
0.02479083 0.05750932 0.00657643 0.00592504 0.00189376 0.00314490 0.02080097 0.00816642 0.03359666 0.00370485 0.00519924 0.14017691 0.01054475 0.00837361 0.01909487 0.00077869 
0.02418207 0.05878384 0.00686476 0.00593279 0.00191386 0.00320329 0.02114483 0.00813309 0.03414697 0.00374290 0.00525425 0.14023969 0.01062277 0.00840869 0.01909951 0.00076476 
0.02363085 0.06016324 0.00717478 0.00593877 0.00193713 0.00326117 0.02146923 0.00809331 0.03468994 0.00377791 0.00530411 0.14032279 0.01069730 0.00845583 0.01912519 0.00075193 
0.02313942 0.06164312 0.00750503 0.00594290 0.00196349 0.00331825 0.02177320 0.00804713 0.03522256 0.00380980 0.00534864 0.14042952 0.01076811 0.00851500 0.01917160 0.00074029 
0.02270972 0.06321845 0.00785396 0.00594509 0.00199283 0.00337422 0.02205586 0.00799463 0.03574191 0.00383846 0.00538770 0.14056305 0.01083496 0.00858614 0.01923828 0.00072989 
0.02234335 0.06488355 0.00821993 0.00594524 0.00202503 0.00342882 0.02231642 0.00793595 0.03624520 0.00386384 0.00542115 0.14072636 0.01089763 0.00866908 0.01932465 0.00072078 
0.02204156 0.06663216 0.00860120 0.00594327 0.00205997 0.00348176 0.02255419 0.00787124 0.03672977 0.00388588 0.00544890 0.14092228 0.01095589 0.00876362 0.01942995 0.00071303 
0.02180526 0.06845743 0.00899596 0.00593907 0.00209751 0.00353278 0.02276854 0.00780073 0.03719310 0.00390453 0.00547088 0.14115340 0.01100953 0.00886948 0.01955335 0.00070667 
0.02163498 0.07035197 0.00940235 0.00593257 0.00213749 0.00358163 0.02295898 0.00772467 0.03763283 0.00391978 0.00548705 0.14142208 0.01105834 0.00898631 0.01969383 0.00070174 
0.02153090 0.07230786 0.00981844 0.00592367 0.00217976 0.00362806 0.02312509 0.00764336 0.03804677 0.00393162 0.00549740 0.14173043 0.01110213 0.00911370 0.01985030 0.00069827 
0.02149285 0.07431668 0.01024227 0.00591228 0.00222414 0.00367186 0.02326656 0.00755712 0.03843295 0.00394006 0.00550193 0.14208029 0.01114072 0.00925119 0.02002152 0.00069627 
0.02152028 0.07636961 0.01067184 0.00589833 0.00227046 0.00371281 0.02338320 0.00746633 0.03878954 0.00394512 0.00550069 0.14247321 0.01117392 0.00939826 0.02020617 0.00069576 
0.02161232 0.07845738 0.01110512 0.00588175 0.00231854 0.00375072 0.02347489 0.00737140 0.03911496 0.00394684 0.00549375 0.14291045 0.01120158 0.00955433 0.02040281 0.00069675 
0.02176772 0.08057039 0.01154008 0.00586245 0.00236817 0.00378541 0.02354165 0.00727279 0.03940783 0.00394528 0.00548122 0.14339295 0.01122355 0.00971877 0.02060993 0.00069922 
0.02198494 0.08269873 0.01197469 0.00584038 0.00241917 0.00381674 0.02358358 0.00717097 0.03966698 0.00394050 0.00546320 0.14392133 0.01123970 0.00989091 0.02082594 0.00070316 
0.02226206 0.08483221 0.01240691 0.00581548 0.00247133 0.00384456 0.02360091 0.00706647 0.03989149 0.00393259 0.00543986 0.14449591 0.01124990 0.01007002 0.02104919 0.00070854 
0.02259691 0.08696046 0.01283475 0.00578771 0.00252443 0.00386877 0.02359396 0.00695981 0.04008063 0.00392165 0.00541138 0.14511666 0.01125406 0.01025536 0.02127796 0.00071532 
0.02298699 0.08907295 0.01325622 0.00575704 0.00257826 0.00388927 0.02356316 0.00685157 0.04023394 0.00390778 0.00537794 0.14578325 0.01125209 0.01044614 0.02151050 0.00072348 
0.02342953 0.09115906 0.01366939 0.00572343 0.00263261 0.00390601 0.02350903 0.00674235 0.04035118 0.00389111 0.00533977 0.14649501 0.01124391 0.01064154 0.02174503 0.00073294 
0.02392152 0.09320811 0.01407237 0.00568688 0.00268726 0.00391893 0.02343220 0.00663275 0.04043234 0.00387176 0.00529711 0.14725096 0.01122949 0.01084071 0.02197974 0.00074366 
0.02445970 0.09520948 0.01446332 0.00564739 0.00274198 0.00392801 0.02333341 0.00652339 0.04047764 0.00384987 0.00525023 0.14804983 0.01120879 0.01104281 0.02221283 0.00075555 
0.02504061 0.09715260 0.01484050 0.00560497 0.00279655 0.00393326 0.02321349 0.00641493 0.04048753 0.00382561 0.00519941 0.14889001 0.01118181 0.01124695 0.02244251 0.00076855 
0.02566060 0.09902707 0.01520222 0.00555963 0.00285075 0.00393471 0.02307333 0.00630799 0.04046268 0.00379911 0.00514495 0.14976963 0.01114855 0.01145225 0.02266699 0.00078256 
0.02631585 0.10082266 0.01554686 0.00551143 0.00290435 0.00393241 0.02291396 0.00620323 0.04040400 0.00377056 0.00508716 0.15068655 0.01110904 0.01165783 0.02288454 0.00079748 
0.02700241 0.10252941 0.01587294 0.00546042 0.00295715 0.00392643 0.02273645 0.00610130 0.04031257 0.00374011 0.00502636 0.15163834 0.01106335 0.01186281 0.02309346 0.00081322 
0.02771622 0.10413770 0.01617902 0.00540665 0.00300891 0.00391687 0.02254197 0.00600284 0.04018972 0.00370795 0.00496289 0.15262235 0.01101155 0.01206632 0.02329210 0.00082967 
0.02845313 0.10563823 0.01646381 0.00535022 0.00305943 0.00390385 0.02233176 0.00590848 0.04003693 0.00367425 0.00489710 0.15363571 0.01095373 0.01226749 0.02347891 0.00084671 
0.02920895 0.10702219 0.01672612 0.00529122 0.00310849 0.00388751 0.02210712 0.00581884 0.03985591 0.00363919 0.00482934 0.15467532 0.01089003 0.01246548 0.02365239 0.00086423 
0.02997946 0.10828120 0.01696485 0.00522976 0.00315590 0.00386803 0.02186942 0.00573452 0.03964850 0.00360296 0.00475998 0.15573791 0.01082058 0.01265948 0.02381116 0.00088209 
0.03076041 0.10940743 0.01717905 0.00516596 0.00320145 0.00384558 0.02162009 0.00565610 0.03941673 0.00356573 0.00468936 0.15682005 0.01074556 0.01284869 0.02395391 0.00090016 
0.03154760 0.11039364 0.01736787 0.00509996 0.00324495 0.00382037 0.02136058 0.00558413 0.03916277 0.00352769 0.00461787 0.15791816 0.01066516 0.01303235 0.02407947 0.00091832 
0.03233689 0.11123320 0.01753060 0.00503192 0.00328621 0.00379262 0.02109242 0.00551913 0.03888892 0.00348901 0.00454585 0.15902854 0.01057958 0.01320975 0.02418678 0.00093643 
0.03312419 0.11192013 0.01766665 0.00496199 0.00332506 0.00376256 0.02081715 0.00546159 0.03859761 0.00344987 0.00447367 0.16014740 0.01048907 0.01338019 0.02427491 0.00095435 
0.03390554 0.11244918 0.01777557 0.00489035 0.00336133 0.00373047 0.02053632 0.00541197 0.03829136 0.00341045 0.00440169 0.16127088 0.01039387 0.01354304 0.02434306 0.00097194 
0.03467708 0.11281582 0.01785701 0.00481719 0.00339486 0.00369659 0.02025154 0.00537065 0.03797279 0.00337091 0.00433024 0.16239505 0.01029427 0.01369772 0.02439057 0.00098907 
0.03543512 0.11301630 0.01791079 0.00474271 0.00342550 0.00366121 0.01996440 0.00533802 0.03764459 0.00333141 0.00425968 0.16351599 0.01019056 0.01384368 0.02441694 0.00100559 
0.03617612 0.11304765 0.01793681 0.00466710 0.00345311 0.00362463 0.01967649 0.00531438 0.03730951 0.00329211 0.00419034 0.16462975 0.01008305 0.01398043 0.02442181 0.00102137 
0.03689673 0.11290772 0.01793515 0.00459060 0.00347757 0.00358714 0.01938940 0.00530000 0.03697034 0.00325316 0.00412252 0.16573241 0.00997207 0.01410755 0.02440496 0.00103627 
0.03759382 0.11259519 0.01790597 0.00451340 0.00349877 0.00354905 0.01910472 0.00529510 0.03662989 0.00321469 0.00405654 0.16682008 0.00985797 0.01422466 0.02436634 0.00105018 
0.03826446 0.11210959 0.01784956 0.00443576 0.00351659 0.00351067 0.01882399 0.00529983 0.03629098 0.00317684 0.00399269 0.16788895 0.00974111 0.01433145 0.02430605 0.00106295 
0.03890598 0.11145131 0.01776635 0.00435789 0.00353095 0.00347233 0.01854873 0.00531431 0.03595641 0.00313974 0.00393124 0.16893528 0.00962186 0.01442765 0.02422435 0.00107446 
0.03951593 0.11062157 0.01765687 0.00428003 0.00354178 0.00343433 0.01828042 0.00533857 0.03562897 0.00310349 0.00387244 0.16995543 0.00950061 0.01451308 0.02412163 0.00108461 
0.04009213 0.10962248 0.01752175 0.00420243 0.00354900 0.00339700 0.01802049 0.00537261 0.03531139 0.00306820 0.00381653 0.17094590 0.00937775 0.01458761 0.02399845 0.00109327 
0.04063266 0.10845697 0.01736173 0.00412531 0.00355258 0.00336065 0.01777031 0.00541636 0.03500634 0.00303397 0.00376374 0.17190330 0.00925369 0.01465115 0.02385551 0.00110036 
0.04113587 0.10712883 0.01717766 0.00404892 0.00355246 0.00332559 0.01753119 0.00546970 0.03471642 0.00300087 0.00371425 0.17282441 0.00912884 0.01470370 0.02369364 0.00110577 
0.04160039 0.10564267 0.01697047 0.00397350 0.00354864 0.00329213 0.01730435 0.00553244 0.03444413 0.00296900 0.00366823 0.17370618 0.00900360 0.01474530 0.02351381 0.00110941 
0.04202512 0.10400388 0.01674117 0.00389927 0.00354111 0.00326056 0.01709097 0.00560434 0.03419188 0.00293840 0.00362585 0.17454571 0.00887840 0.01477606 0.02331712 0.00111122 
0.04240922 0.10221867 0.01649086 0.00382646 0.00352986 0.00323117 0.01689211 0.00568511 0.03396194 0.00290913 0.00358724 0.17534032 0.00875365 0.01479612 0.02310478 0.00111112 
0.04275215 0.10029396 0.01622072 0.00375529 0.00351493 0.00320424 0.01670874 0.00577440 0.03375643 0.00288125 0.00355248 0.17608753 0.00862976 0.01480572 0.02287812 0.00110906 
0.04305360 0.09823743 0.01593198 0.00368598 0.00349635 0.00318002 0.01654174 0.00587181 0.03357736 0.00285478 0.00352168 0.17678506 0.00850715 0.01480510 0.02263855 0.00110499 
0.04331356 0.09605740 0.01562593 0.00361872 0.00347416 0.00315877 0.01639189 0.00597688 0.03342655 0.00282974 0.00349489 0.17743085 0.00838622 0.01479459 0.02238760 0.00109888 
0.04353223 0.09376287 0.01530391 0.00355372 0.00344843 0.00314071 0.01625985 0.00608913 0.03330566 0.00280617 0.00347215 0.17802306 0.00826737 0.01477454 0.02212684 0.00109070 
0.04371009 0.09136341 0.01496731 0.00349116 0.00341924 0.00312606 0.01614617 0.00620799 0.03321614 0.00278405 0.00345347 0.17856008 0.00815099 0.01474536 0.02185794 0.00108044 
0.04384782 0.08886916 0.01461755 0.00343120 0.00338668 0.00311501 0.01605130 0.00633290 0.03315929 0.00276340 0.00343884 0.17904053 0.00803746 0.01470749 0.02158261 0.00106810 
0.04394634 0.08629077 0.01425607 0.00337400 0.00335084 0.00310773 0.01597555 0.00646323 0.03313617 0.00274421 0.00342822 0.17946324 0.00792715 0.01466140 0.02130259 0.00105370 
0.04400675 0.08363930 0.01388433 0.00331970 0.00331185 0.00310438 0.01591912 0.00659832 0.03314765 0.00272645 0.00342157 0.17982730 0.00782040 0.01460761 0.02101968 0.00103725 
0.04403034 0.08092627 0.01350382 0.00326843 0.00326983 0.00310508 0.01588208 0.00673748 0.03319439 0.00271010 0.00341882 0.18013201 0.00771756 0.01454664 0.02073566 0.00101880 
0.04401860 0.07816348 0.01311601 0.00322030 0.00322492 0.00310994 0.01586438 0.00688001 0.03327682 0.00269514 0.00341986 0.18037689 0.00761894 0.01447907 0.02045235 0.00099838 
0.04397312 0.07536305 0.01272238 0.00317540 0.00317727 0.00311903 0.01586584 0.00702517 0.03339515 0.00268154 0.00342458 0.18056167 0.00752484 0.01440546 0.02017152 0.00097607 
0.04389568 0.07253732 0.01232440 0.00313380 0.00312703 0.00313241 0.01588619 0.00717221 0.03354937 0.00266925 0.00343286 0.18068633 0.00743555 0.01432642 0.01989495 0.00095192 
0.04378813 0.06969877 0.01192351 0.00309557 0.00307439 0.00315012 0.01592499 0.00732037 0.03373924 0.00265823 0.00344454 0.18075102 0.00735133 0.01424254 0.01962437 0.00092603 
0.04365244 0.06686001 0.01152115 0.00306075 0.00301952 0.00317215 0.01598172 0.00746887 0.03396429 0.00264843 0.00345947 0.18075610 0.00727242 0.01415445 0.01936147 0.00089849 
0.04349065 0.06403368 0.01111871 0.00302935 0.00296260 0.00319848 0.01605573 0.00761694 0.03422383 0.00263981 0.00347746 0.18070211 0.00719902 0.01406275 0.01910786 0.00086939 
0.04330487 0.06123240 0.01071755 0.00300138 0.00290383 0.00322906 0.01614626 0.00776381 0.03451696 0.00263230 0.00349833 0.18058979 0.00713135 0.01396806 0.01886510 0.00083886 
0.04309723 0.05846871 0.01031900 0.00297683 0.00284342 0.00326383 0.01625245 0.00790871 0.03484255 0.00262587 0.00352187 0.18042002 0.00706957 0.01387099 0.01863466 0.00080702 
0.04286990 0.05575501 0.00992432 0.00295566 0.00278156 0.00330268 0.01637334 0.00805088 0.03519926 0.00262045 0.00354789 0.18019385 0.00701382 0.01377213 0.01841791 0.00077399 
0.04262503 0.05310351 0.00953475 0.00293782 0.00271847 0.00334549 0.01650788 0.00818958 0.03558555 0.00261598 0.00357615 0.17991245 0.00696424 0.01367207 0.01821614 0.00073991 
0.04236478 0.05052615 0.00915146 0.00292324 0.00265437 0.00339210 0.01665491 0.00832409 0.03599968 0.00261242 0.00360644 0.17957716 0.00692092 0.01357137 0.01803049 0.00070494 
0.04209127 0.04803457 0.00877556 0.00291185 0.00258948 0.00344236 0.01681322 0.00845372 0.03643974 0.00260970 0.00363854 0.17918938 0.00688393 0.01347059 0.01786201 0.00066923 
0.04180655 0.04564004 0.00840811 0.00290353 0.00252402 0.00349605 0.01698152 0.00857778 0.03690361 0.00260779 0.00367220 0.17875066 0.00685334 0.01337024 0.01771161 0.00063292 
0.04151264 0.04335339 0.00805008 0.00289817 0.00245822 0.00355297 0.01715845 0.00869565 0.03738903 0.00260661 0.00370721 0.17826259 0.00682917 0.01327082 0.01758008 0.00059620 
0.04121147 0.04118503 0.00770241 0.00289565 0.00239230 0.00361288 0.01734260 0.00880672 0.03789359 0.00260613 0.00374332 0.17772685 0.00681144 0.01317281 0.01746806 0.00055922 
0.04090487 0.03914480 0.00736594 0.00289581 0.00232649 0.00367552 0.01753253 0.00891043 0.03841474 0.00260630 0.00378031 0.17714518 0.00680012 0.01307663 0.01737604 0.00052216 
0.04059458 0.03724203 0.00704146 0.00289851 0.00226101 0.00374062 0.01772676 0.00900626 0.03894978 0.00260707 0.00381797 0.17651934 0.00679518 0.01298269 0.01730438 0.00048518 
0.04028223 0.03548541 0.00672969 0.00290357 0.00219608 0.00380788 0.01792377 0.00909372 0.03949594 0.00260841 0.00385606 0.17585113 0.00679658 0.01289137 0.01725329 0.00044847 
0.03996934 0.03388302 0.00643126 0.00291081 0.00213194 0.00387700 0.01812205 0.00917240 0.04005033 0.00261028 0.00389439 0.17514234 0.00680424 0.01280298 0.01722281 0.00041220 
0.03965727 0.03244226 0.00614675 0.00292006 0.00206879 0.00394765 0.01832008 0.00924191 0.04060999 0.00261264 0.00393274 0.17439476 0.00681806 0.01271784 0.01721286 0.00037654 
0.03934729 0.03116982 0.00587665 0.00293110 0.00200685 0.00401952 0.01851634 0.00930192 0.04117191 0.00261547 0.00397093 0.17361016 0.00683794 0.01263619 0.01722319 0.00034166 
0.03904051 0.03007167 0.00562140 0.00294375 0.00194633 0.00409225 0.01870936 0.00935217 0.04173303 0.00261874 0.00400877 0.17279028 0.00686377 0.01255825 0.01725341 0.00030774 
0.03873789 0.02915301 0.00538135 0.00295779 0.00188744 0.00416550 0.01889767 0.00939243 0.04229026 0.00262243 0.00404611 0.17193678 0.00689539 0.01248420 0.01730299 0.00027493 
0.03844028 0.02841827 0.00515681 0.00297303 0.00183037 0.00423891 0.01907984 0.00942254 0.04284052 0.00262652 0.00408277 0.17105131 0.00693267 0.01241418 0.01737126 0.00024341 
0.03814836 0.02787110 0.00494798 0.00298923 0.00177531 0.00431212 0.01925452 0.00944239 0.04338073 0.00263101 0.00411863 0.17013539 0.00697544 0.01234829 0.01745742 0.00021333 
0.03786269 0.02751435 0.00475505 0.00300620 0.00172246 0.00438477 0.01942039 0.00945192 0.04390784 0.00263588 0.00415356 0.16919050 0.00702354 0.01228661 0.01756052 0.00018484 
0.03758368 0.02735003 0.00457809 0.00302372 0.00167199 0.00445650 0.01957623 0.00945115 0.04441887 0.00264113 0.00418745 0.16821800 0.00707677 0.01222915 0.01767952 0.00015809 
0.03731162 0.02737935 0.00441716 0.00304159 0.00162406 0.00452696 0.01972086 0.00944013 0.04491088 0.00264676 0.00422021 0.16721915 0.00713496 0.01217591 0.01781324 0.00013320 
0.03704666 0.02760271 0.00427224 0.00305958 0.00157885 0.00459577 0.01985324 0.00941898 0.04538103 0.00265277 0.00425176 0.16619512 0.00719792 0.01212685 0.01796042 0.00011032 
0.03678883 0.02801968 0.00414325 0.00307751 0.00153650 0.00466260 0.01997238 0.00938786 0.04582658 0.00265917 0.00428205 0.16514694 0.00726544 0.01208190 0.01811968 0.00008955 
0.03653805 0.02862903 0.00403007 0.00309517 0.00149715 0.00472710 0.02007742 0.00934698 0.04624490 0.00266598 0.00431105 0.16407553 0.00733732 0.01204096 0.01828956 0.00007101 
0.03629414 0.02942871 0.00393253 0.00311239 0.00146094 0.00478894 0.02016760 0.00929663 0.04663352 0.00267319 0.00433872 0.16298169 0.00741335 0.01200391 0.01846854 0.00005479 
0.03605681 0.03041591 0.00385042 0.00312897 0.00142800 0.00484779 0.02024229 0.00923712 0.04699008 0.00268084 0.00436508 0.16186610 0.00749334 0.01197059 0.01865501 0.00004099 
0.03582569 0.03158703 0.00378346 0.00314475 0.00139843 0.00490335 0.02030095 0.00916880 0.04731243 0.00268893 0.00439012 0.16072930 0.00757707 0.01194082 0.01884733 0.00002967 
0.03560033 0.03293771 0.00373137 0.00315956 0.00137234 0.00495533 0.02034320 0.00909209 0.04759857 0.00269749 0.00441390 0.15957172 0.00766434 0.01191442 0.01904380 0.00002090 
0.03538020 0.03446290 0.00369381 0.00317327 0.00134982 0.00500343 0.02036876 0.00900742 0.04784669 0.00270653 0.00443645 0.15839367 0.00775493 0.01189119 0.01924270 0.00001474 
0.03516474 0.03615680 0.00367041 0.00318572 0.00133096 0.00504741 0.02037751 0.00891528 0.04805519 0.00271609 0.00445784 0.15719535 0.00784865 0.01187089 0.01944227 0.00001123 
0.03495333 0.03801296 0.00366078 0.00319680 0.00131582 0.00508703 0.02036944 0.00881618 0.04822270 0.00272618 0.00447815 0.15597686 0.00794529 0.01185330 0.01964077 0.00001038 
0.03474532 0.04002428 0.00366449 0.00320640 0.00130447 0.00512205 0.02034467 0.00871068 0.04834803 0.00273683 0.00449748 0.15473818 0.00804465 0.01183818 0.01983645 0.00001222 
0.03454003 0.04218306 0.00368111 0.00321443 0.00129696 0.00515229 0.02030346 0.00859934 0.04843026 0.00274806 0.00451593 0.15347924 0.00814653 0.01182529 0.02002758 0.00001674 
0.03433678 0.04448100 0.00371017 0.00322079 0.00129332 0.00517757 0.02024621 0.00848275 0.04846869 0.00275990 0.00453364 0.15219985 0.00825073 0.01181439 0.02021246 0.00002393 
0.03413488 0.04690928 0.00375118 0.00322543 0.00129358 0.00519773 0.02017342 0.00836154 0.04846286 0.00277237 0.00455072 0.15089980 0.00835707 0.01180524 0.02038942 0.00003377 
0.03393366 0.04945859 0.00380364 0.00322829 0.00129777 0.00521265 0.02008574 0.00823633 0.04841255 0.00278549 0.00456732 0.14957882 0.00846535 0.01179761 0.02055685 0.00004621 
0.03373248 0.05211914 0.00386705 0.00322934 0.00130589 0.00522223 0.01998393 0.00810777 0.04831782 0.00279928 0.00458360 0.14823659 0.00857539 0.01179127 0.02071320 0.00006121 
0.03353071 0.05488075 0.00394089 0.00322856 0.00131794 0.00522638 0.01986885 0.00797651 0.04817893 0.00281376 0.00459971 0.14687280 0.00868699 0.01178601 0.02085699 0.00007870 
0.03332778 0.05773285 0.00402462 0.00322594 0.00133390 0.00522506 0.01974149 0.00784320 0.04799643 0.00282895 0.00461581 0.14548715 0.00879998 0.01178163 0.02098683 0.00009861 
0.03312316 0.06066455 0.00411771 0.00322149 0.00135376 0.00521824 0.01960293 0.00770849 0.04777109 0.00284485 0.00463207 0.14407933 0.00891417 0.01177794 0.02110140 0.00012085 
0.03291638 0.06366470 0.00421963 0.00321525 0.00137746 0.00520592 0.01945434 0.00757305 0.04750394 0.00286150 0.00464866 0.14264911 0.00902939 0.01177479 0.02119950 0.00014532 
0.03270704 0.06672190 0.00432983 0.00320724 0.00140499 0.00518813 0.01929698 0.00743751 0.04719625 0.00287888 0.00466576 0.14119630 0.00914544 0.01177203 0.02128003 0.00017190 
0.03249481 0.06982458 0.00444777 0.00319753 0.00143627 0.00516492 0.01913216 0.00730252 0.04684951 0.00289701 0.00468353 0.13972082 0.00926215 0.01176955 0.02134200 0.00020049 
0.03227945 0.07296101 0.00457291 0.00318617 0.00147125 0.00513637 0.01896130 0.00716869 0.04646544 0.00291588 0.00470213 0.13822266 0.00937933 0.01176724 0.02138455 0.00023094 
0.03206079 0.07611942 0.00470471 0.00317325 0.00150985 0.00510260 0.01878583 0.00703663 0.04604600 0.00293551 0.00472173 0.13670196 0.00949680 0.01176504 0.02140693 0.00026313 
0.03183875 0.07928796 0.00484262 0.00315887 0.00155200 0.00506372 0.01860726 0.00690693 0.04559332 0.00295588 0.00474249 0.13515900 0.00961437 0.01176291 0.02140854 0.00029689 
0.03161335 0.08245481 0.00498611 0.00314312 0.00159760 0.00501989 0.01842709 0.00678016 0.04510977 0.00297698 0.00476456 0.13359423 0.00973185 0.01176084 0.02138891 0.00033209 
0.03138469 0.08560821 0.00513464 0.00312612 0.00164655 0.00497128 0.01824689 0.00665684 0.04459787 0.00299881 0.00478807 0.13200827 0.00984903 0.01175885 0.02134770 0.00036856 
0.03115300 0.08873649 0.00528770 0.00310798 0.00169874 0.00491810 0.01806819 0.00653750 0.04406034 0.00302134 0.00481316 0.13040196 0.00996571 0.01175697 0.02128472 0.00040612 
0.03091856 0.09182816 0.00544474 0.00308886 0.00175406 0.00486057 0.01789255 0.00642261 0.04350005 0.00304455 0.00483994 0.12877636 0.01008169 0.01175530 0.02119991 0.00044462 
0.03068179 0.09487190 0.00560525 0.00306887 0.00181239 0.00479892 0.01772151 0.00631262 0.04292002 0.00306843 0.00486851 0.12713274 0.01019675 0.01175392 0.02109335 0.00048386 
0.03044318 0.09785666 0.00576871 0.00304817 0.00187358 0.00473341 0.01755656 0.00620796 0.04232341 0.00309295 0.00489898 0.12547264 0.01031067 0.01175299 0.02096529 0.00052368 
0.03020333 0.10077167 0.00593461 0.00302691 0.00193749 0.00466432 0.01739919 0.00610900 0.04171347 0.00311807 0.00493140 0.12379786 0.01042321 0.01175266 0.02081608 0.00056390 
0.02996293 0.10360647 0.00610243 0.00300525 0.00200398 0.00459193 0.01725082 0.00601608 0.04109358 0.00314376 0.00496584 0.12211045 0.01053415 0.01175312 0.02064624 0.00060432 
0.02972276 0.10635101 0.00627169 0.00298334 0.00207289 0.00451656 0.01711279 0.00592952 0.04046719 0.00316999 0.00500235 0.12041276 0.01064322 0.01175459 0.02045641 0.00064477 
0.02948367 0.10899563 0.00644186 0.00296134 0.00214405 0.00443852 0.01698640 0.00584959 0.03983782 0.00319670 0.00504094 0.11870742 0.01075018 0.01175731 0.02024735 0.00068506 
0.02924663 0.11153111 0.00661245 0.00293943 0.00221730 0.00435813 0.01687287 0.00577652 0.03920905 0.00322387 0.00508161 0.11699732 0.01085476 0.01176154 0.02001997 0.00072502 
0.02901266 0.11394875 0.00678298 0.00291776 0.00229244 0.00427574 0.01677329 0.00571050 0.03858448 0.00325144 0.00512436 0.11528565 0.01095668 0.01176757 0.01977528 0.00076446 
0.02878286 0.11624033 0.00695294 0.00289649 0.00236931 0.00419169 0.01668870 0.00565169 0.03796774 0.00327937 0.00516914 0.11357590 0.01105568 0.01177569 0.01951443 0.00080321 
0.02855840 0.11839820 0.00712186 0.00287579 0.00244770 0.00410632 0.01662000 0.00560021 0.03736245 0.00330761 0.00521590 0.11187180 0.01115147 0.01178622 0.01923864 0.00084110 
0.02834050 0.12041530 0.00728924 0.00285581 0.00252741 0.00402000 0.01656797 0.00555614 0.03677223 0.00333609 0.00526457 0.11017737 0.01124374 0.01179950 0.01894926 0.00087797 
0.02813047 0.12228516 0.00745459 0.00283671 0.00260825 0.00393307 0.01653330 0.00551952 0.03620064 0.00336478 0.00531505 0.10849688 0.01133221 0.01181585 0.01864773 0.00091365 
0.02792962 0.12400196 0.00761745 0.00281863 0.00269000 0.00384589 0.01651653 0.00549035 0.03565121 0.00339361 0.00536722 0.10683484 0.01141657 0.01183562 0.01833555 0.00094800 
0.02773934 0.12556052 0.00777733 0.00280173 0.00277245 0.00375882 0.01651807 0.00546861 0.03512741 0.00342253 0.00542096 0.10519597 0.01149651 0.01185917 0.01801433 0.00098087 
0.02756105 0.12695633 0.00793375 0.00278614 0.00285537 0.00367221 0.01653818 0.00545424 0.03463261 0.00345149 0.00547612 0.10358522 0.01157173 0.01188682 0.01768572 0.00101212 
0.02739617 0.12818559 0.00808625 0.00277199 0.00293854 0.00358639 0.01657702 0.00544715 0.03417010 0.00348042 0.00553252 0.10200770 0.01164193 0.01191893 0.01735143 0.00104163 
0.02724617 0.12924519 0.00823435 0.00275941 0.00302174 0.00350172 0.01663457 0.00544720 0.03374305 0.00350927 0.00558998 0.10046866 0.01170679 0.01195584 0.01701322 0.00106927 
0.02711252 0.13013273 0.00837758 0.00274850 0.00310472 0.00341851 0.01671070 0.00545425 0.03335451 0.00353799 0.00564829 0.09897351 0.01176603 0.01199786 0.01667289 0.00109495 
0.02699672 0.13084654 0.00851549 0.00273939 0.00318726 0.00333710 0.01680510 0.00546813 0.03300740 0.00356652 0.00570725 0.09752773 0.01181934 0.01204530 0.01633225 0.00111857 
0.02690023 0.13138568 0.00864761 0.00273217 0.00326911 0.00325777 0.01691736 0.00548862 0.03270447 0.00359480 0.00576662 0.09613686 0.01186645 0.01209846 0.01599314 0.00114004 
