0.04739629 0.01661687 0.01046825 0.00205832 0.00079402 0.00225508 0.00457891 0.00411240 0.01378511 0.00183776 0.00176401 0.03236813 0.01010926 0.00211568 0.00422999 0.00124391 
0.04685636 0.01687229 0.01019264 0.00198542 0.00079245 0.00227263 0.00447763 0.00409971 0.01374201 0.00185370 0.00175543 0.03226622 0.00975890 0.00211232 0.00416872 0.00124344 
0.04629574 0.01716052 0.00992726 0.00191369 0.00079220 0.00228993 0.00438039 0.00408667 0.01372786 0.00186841 0.00174667 0.03219581 0.00940880 0.00212191 0.00411530 0.00124317 
0.04571714 0.01748119 0.00967247 0.00184348 0.00079326 0.00230697 0.00428763 0.00407336 0.01374243 0.00188187 0.00173774 0.03215800 0.00906051 0.00214470 0.00407003 0.00124313 
0.04512340 0.01783378 0.00942859 0.00177511 0.00079565 0.00232370 0.00419980 0.00405987 0.01378537 0.00189405 0.00172864 0.03215377 0.00871557 0.00218088 0.00403318 0.00124331 
0.04451751 0.01821760 0.00919586 0.00170892 0.00079935 0.00234010 0.00411733 0.00404626 0.01385618 0.00190497 0.00171939 0.03218397 0.00837552 0.00223060 0.00400499 0.00124371 
0.04390258 0.01863183 0.00897446 0.00164524 0.00080434 0.00235614 0.00404063 0.00403262 0.01395426 0.00191463 0.00170998 0.03224930 0.00804187 0.00229391 0.00398562 0.00124433 
0.04328179 0.01907550 0.00876450 0.00158437 0.00081062 0.00237179 0.00397011 0.00401902 0.01407890 0.00192305 0.00170043 0.03235032 0.00771611 0.00237083 0.00397520 0.00124518 
0.04265841 0.01954749 0.00856606 0.00152659 0.00081816 0.00238703 0.00390614 0.00400555 0.01422925 0.00193025 0.00169073 0.03248746 0.00739970 0.00246130 0.00397381 0.00124626 
0.04203573 0.02004654 0.00837914 0.00147220 0.00082693 0.00240184 0.00384909 0.00399229 0.01440435 0.00193627 0.00168089 0.03266097 0.00709405 0.00256520 0.00398147 0.00124755 
0.04141710 0.02057125 0.00820372 0.00142145 0.00083690 0.00241617 0.00379930 0.00397931 0.01460314 0.00194116 0.00167091 0.03287096 0.00680053 0.00268233 0.00399814 0.00124907 
0.04080586 0.02112010 0.00803971 0.00137458 0.00084805 0.00243002 0.00375708 0.00396668 0.01482446 0.00194496 0.00166079 0.03311738 0.00652044 0.00281244 0.00402374 0.00125081 
0.04020534 0.02169147 0.00788699 0.00133181 0.00086033 0.00244335 0.00372272 0.00395448 0.01506704 0.00194773 0.00165054 0.03340003 0.00625504 0.00295520 0.00405813 0.00125275 
0.03961883 0.02228359 0.00774541 0.00129335 0.00087370 0.00245615 0.00369647 0.00394279 0.01532952 0.00194955 0.00164017 0.03371854 0.00600549 0.00311022 0.00410112 0.00125490 
0.03904955 0.02289461 0.00761479 0.00125938 0.00088811 0.00246838 0.00367856 0.00393165 0.01561043 0.00195049 0.00162966 0.03407238 0.00577291 0.00327704 0.00415248 0.00125725 
0.03850067 0.02352259 0.00749490 0.00123004 0.00090352 0.00248003 0.00366919 0.00392114 0.01590827 0.00195061 0.00161904 0.03446087 0.00555829 0.00345512 0.00421190 0.00125979 
0.03797525 0.02416550 0.00738552 0.00120548 0.00091987 0.00249107 0.00366853 0.00391130 0.01622140 0.00195002 0.00160828 0.03488315 0.00536259 0.00364388 0.00427905 0.00126251 
0.03747622 0.02482123 0.00728638 0.00118579 0.00093711 0.00250149 0.00367670 0.00390220 0.01654818 0.00194880 0.00159741 0.03533821 0.00518663 0.00384268 0.00435354 0.00126540 
0.03700640 0.02548761 0.00719721 0.00117107 0.00095518 0.00251127 0.00369380 0.00389387 0.01688684 0.00194704 0.00158643 0.03582490 0.00503115 0.00405079 0.00443493 0.00126845 
0.03656844 0.02616245 0.00711774 0.00116137 0.00097401 0.00252038 0.00371988 0.00388637 0.01723563 0.00194483 0.00157533 0.03634190 0.00489681 0.00426745 0.00452275 0.00127165 
0.03616484 0.02684348 0.00704767 0.00115672 0.00099353 0.00252883 0.00375496 0.00387971 0.01759270 0.00194229 0.00156412 0.03688773 0.00478414 0.00449183 0.00461648 0.00127499 
0.03579790 0.02752843 0.00698672 0.00115712 0.00101369 0.00253658 0.00379904 0.00387393 0.01795620 0.00193950 0.00155281 0.03746079 0.00469358 0.00472307 0.00471556 0.00127845 
0.03546974 0.02821501 0.00693457 0.00116257 0.00103440 0.00254364 0.00385206 0.00386906 0.01832425 0.00193657 0.00154140 0.03805932 0.00462544 0.00496025 0.00481942 0.00128203 
0.03518227 0.02890094 0.00689095 0.00117301 0.00105561 0.00254998 0.00391392 0.00386510 0.01869493 0.00193360 0.00152989 0.03868143 0.00457995 0.00520240 0.00492743 0.00128570 
0.03493717 0.02958392 0.00685556 0.00118837 0.00107722 0.00255562 0.00398450 0.00386208 0.01906635 0.00193069 0.00151829 0.03932510 0.00455722 0.00544852 0.00503894 0.00128946 
0.03473591 0.03026172 0.00682813 0.00120855 0.00109918 0.00256053 0.00406364 0.00385999 0.01943660 0.00192795 0.00150662 0.03998819 0.00455724 0.00569760 0.00515328 0.00129329 
0.03457972 0.03093211 0.00680837 0.00123345 0.00112140 0.00256471 0.00415113 0.00385883 0.01980380 0.00192546 0.00149487 0.04066844 0.00457990 0.00594855 0.00526977 0.00129717 
0.03446957 0.03159293 0.00679604 0.00126291 0.00114380 0.00256817 0.00424673 0.00385861 0.02016607 0.00192333 0.00148306 0.04136349 0.00462499 0.00620032 0.00538770 0.00130108 
0.03440621 0.03224206 0.00679088 0.00129677 0.00116631 0.00257092 0.00435018 0.00385931 0.02052158 0.00192163 0.00147119 0.04207089 0.00469216 0.00645179 0.00550636 0.00130503 
0.03439013 0.03287747 0.00679266 0.00133484 0.00118885 0.00257295 0.00446117 0.00386091 0.02086855 0.00192047 0.00145928 0.04278810 0.00478100 0.00670186 0.00562503 0.00130898 
0.03442155 0.03349720 0.00680115 0.00137691 0.00121134 0.00257427 0.00457936 0.00386340 0.02120522 0.00191992 0.00144734 0.04351248 0.00489097 0.00694942 0.00574297 0.00131292 
0.03450046 0.03409937 0.00681615 0.00142276 0.00123371 0.00257489 0.00470437 0.00386675 0.02152991 0.00192005 0.00143538 0.04424137 0.00502144 0.00719335 0.00585948 0.00131684 
0.03462659 0.03468223 0.00683747 0.00147214 0.00125589 0.00257484 0.00483581 0.00387094 0.02184102 0.00192094 0.00142341 0.04497202 0.00517169 0.00743255 0.00597382 0.00132072 
0.03479941 0.03524411 0.00686493 0.00152480 0.00127778 0.00257411 0.00497325 0.00387594 0.02213700 0.00192264 0.00141146 0.04570165 0.00534090 0.00766593 0.00608531 0.00132455 
0.03501817 0.03578346 0.00689837 0.00158044 0.00129934 0.00257275 0.00511623 0.00388172 0.02241641 0.00192521 0.00139955 0.04642745 0.00552818 0.00789243 0.00619325 0.00132831 
0.03528185 0.03629886 0.00693763 0.00163878 0.00132047 0.00257075 0.00526428 0.00388825 0.02267789 0.00192870 0.00138767 0.04714660 0.00573254 0.00811098 0.00629696 0.00133199 
0.03558922 0.03678903 0.00698257 0.00169952 0.00134113 0.00256816 0.00541689 0.00389549 0.02292019 0.00193315 0.00137587 0.04785628 0.00595294 0.00832059 0.00639581 0.00133557 
0.03593880 0.03725278 0.00703308 0.00176234 0.00136123 0.00256499 0.00557354 0.00390341 0.02314215 0.00193857 0.00136416 0.04855367 0.00618826 0.00852027 0.00648917 0.00133905 
0.03632892 0.03768911 0.00708902 0.00182691 0.00138072 0.00256128 0.00573368 0.00391197 0.02334274 0.00194500 0.00135255 0.04923598 0.00643732 0.00870910 0.00657645 0.00134240 
0.03675768 0.03809711 0.00715029 0.00189291 0.00139955 0.00255706 0.00589678 0.00392115 0.02352105 0.00195244 0.00134108 0.04990046 0.00669889 0.00888619 0.00665712 0.00134563 
0.03722299 0.03847605 0.00721677 0.00196001 0.00141765 0.00255236 0.00606224 0.00393091 0.02367629 0.00196090 0.00132977 0.05054440 0.00697169 0.00905073 0.00673064 0.00134871 
0.03772257 0.03882532 0.00728837 0.00202786 0.00143497 0.00254722 0.00622950 0.00394122 0.02380780 0.00197036 0.00131864 0.05116516 0.00725440 0.00920194 0.00679655 0.00135163 
0.03825399 0.03914447 0.00736499 0.00209612 0.00145148 0.00254167 0.00639797 0.00395205 0.02391504 0.00198081 0.00130772 0.05176020 0.00754568 0.00933912 0.00685443 0.00135439 
0.03881464 0.03943317 0.00744651 0.00216445 0.00146712 0.00253575 0.00656705 0.00396337 0.02399763 0.00199221 0.00129704 0.05232705 0.00784414 0.00946164 0.00690389 0.00135698 
0.03940176 0.03969123 0.00753284 0.00223251 0.00148186 0.00252950 0.00673615 0.00397516 0.02405532 0.00200454 0.00128663 0.05286334 0.00814840 0.00956895 0.00694461 0.00135939 
0.04001249 0.03991863 0.00762387 0.00229998 0.00149567 0.00252296 0.00690468 0.00398739 0.02408798 0.00201775 0.00127651 0.05336684 0.00845706 0.00966057 0.00697631 0.00136162 
0.04064384 0.04011544 0.00771946 0.00236651 0.00150853 0.00251618 0.00707202 0.00400005 0.02409566 0.00203177 0.00126672 0.05383543 0.00876871 0.00973610 0.00699877 0.00136365 
0.04129271 0.04028188 0.00781950 0.00243179 0.00152041 0.00250919 0.00723761 0.00401311 0.02407851 0.00204655 0.00125728 0.05426714 0.00908195 0.00979521 0.00701181 0.00136548 
0.04195593 0.04041830 0.00792385 0.00249551 0.00153129 0.00250204 0.00740084 0.00402656 0.02403686 0.00206201 0.00124822 0.05466014 0.00939541 0.00983769 0.00701533 0.00136711 
0.04263028 0.04052515 0.00803235 0.00255737 0.00154118 0.00249477 0.00756116 0.00404040 0.02397115 0.00207807 0.00123958 0.05501278 0.00970771 0.00986338 0.00700927 0.00136854 
0.04331247 0.04060300 0.00814482 0.00261708 0.00155006 0.00248741 0.00771800 0.00405460 0.02388197 0.00209464 0.00123139 0.05532355 0.01001752 0.00987224 0.00699363 0.00136977 
0.04399917 0.04065252 0.00826108 0.00267435 0.00155794 0.00248002 0.00787081 0.00406917 0.02377006 0.00211163 0.00122367 0.05559116 0.01032353 0.00986430 0.00696848 0.00137078 
0.04468707 0.04067449 0.00838093 0.00272895 0.00156483 0.00247262 0.00801906 0.00408410 0.02363626 0.00212892 0.00121646 0.05581446 0.01062448 0.00983968 0.00693393 0.00137160 
0.04537283 0.04066976 0.00850414 0.00278061 0.00157074 0.00246527 0.00816223 0.00409939 0.02348156 0.00214642 0.00120979 0.05599252 0.01091915 0.00979860 0.00689015 0.00137220 
0.04605313 0.04063926 0.00863045 0.00282913 0.00157569 0.00245799 0.00829985 0.00411503 0.02330707 0.00216401 0.00120369 0.05612460 0.01120638 0.00974137 0.00683737 0.00137261 
0.04672469 0.04058402 0.00875960 0.00287429 0.00157972 0.00245082 0.00843144 0.00413103 0.02311401 0.00218156 0.00119818 0.05621015 0.01148505 0.00966837 0.00677588 0.00137282 
0.04738428 0.04050511 0.00889129 0.00291591 0.00158284 0.00244379 0.00855655 0.00414738 0.02290372 0.00219896 0.00119329 0.05624882 0.01175411 0.00958008 0.00670599 0.00137283 
0.04802872 0.04040366 0.00902521 0.00295383 0.00158511 0.00243694 0.00867478 0.00416409 0.02267764 0.00221609 0.00118905 0.05624048 0.01201258 0.00947705 0.00662810 0.00137265 
0.04865492 0.04028084 0.00916102 0.00298792 0.00158656 0.00243030 0.00878572 0.00418116 0.02243731 0.00223281 0.00118549 0.05618520 0.01225956 0.00935993 0.00654264 0.00137229 
0.04925988 0.04013788 0.00929835 0.00301805 0.00158725 0.00242388 0.00888901 0.00419857 0.02218436 0.00224900 0.00118263 0.05608323 0.01249419 0.00922942 0.00645008 0.00137175 
0.04984070 0.03997603 0.00943683 0.00304413 0.00158722 0.00241772 0.00898433 0.00421634 0.02192050 0.00226452 0.00118048 0.05593504 0.01271571 0.00908630 0.00635092 0.00137104 
0.05039460 0.03979656 0.00957605 0.00306610 0.00158654 0.00241183 0.00907138 0.00423444 0.02164752 0.00227925 0.00117907 0.05574130 0.01292345 0.00893144 0.00624573 0.00137017 
0.05091891 0.03960075 0.00971559 0.00308391 0.00158527 0.00240624 0.00914988 0.00425287 0.02136726 0.00229306 0.00117842 0.05550285 0.01311678 0.00876573 0.00613509 0.00136915 
0.05141114 0.03938991 0.00985500 0.00309755 0.00158347 0.00240096 0.00921960 0.00427162 0.02108163 0.00230583 0.00117854 0.05522073 0.01329520 0.00859015 0.00601961 0.00136799 
0.05186891 0.03916533 0.00999383 0.00310702 0.00158122 0.00239599 0.00928033 0.00429065 0.02079257 0.00231743 0.00117944 0.05489617 0.01345825 0.00840572 0.00589994 0.00136669 
0.05229002 0.03892833 0.01013160 0.00311235 0.00157859 0.00239135 0.00933192 0.00430996 0.02050207 0.00232774 0.00118114 0.05453054 0.01360559 0.00821350 0.00577674 0.00136528 
0.05267243 0.03868019 0.01026783 0.00311361 0.00157565 0.00238705 0.00937422 0.00432949 0.02021214 0.00233665 0.00118363 0.05412541 0.01373692 0.00801460 0.00565070 0.00136375 
0.05301428 0.03842219 0.01040202 0.00311087 0.00157249 0.00238308 0.00940714 0.00434921 0.01992481 0.00234406 0.00118693 0.05368246 0.01385206 0.00781014 0.00552250 0.00136213 
0.05331389 0.03815560 0.01053368 0.00310424 0.00156919 0.00237944 0.00943061 0.00436907 0.01964210 0.00234985 0.00119103 0.05320355 0.01395089 0.00760129 0.00539286 0.00136042 
0.05356976 0.03788166 0.01066229 0.00309384 0.00156582 0.00237613 0.00944459 0.00438902 0.01936604 0.00235394 0.00119594 0.05269065 0.01403338 0.00738923 0.00526249 0.00135863 
0.05378058 0.03760159 0.01078736 0.00307985 0.00156247 0.00237315 0.00944909 0.00440899 0.01909865 0.00235623 0.00120164 0.05214584 0.01409956 0.00717513 0.00513209 0.00135678 
0.05394526 0.03731660 0.01090838 0.00306241 0.00155923 0.00237048 0.00944414 0.00442890 0.01884190 0.00235665 0.00120813 0.05157133 0.01414955 0.00696020 0.00500237 0.00135489 
0.05406286 0.03702785 0.01102485 0.00304174 0.00155617 0.00236810 0.00942981 0.00444867 0.01859776 0.00235512 0.00121539 0.05096939 0.01418354 0.00674561 0.00487402 0.00135295 
0.05413269 0.03673650 0.01113629 0.00301805 0.00155338 0.00236601 0.00940620 0.00446821 0.01836812 0.00235159 0.00122341 0.05034240 0.01420179 0.00653253 0.00474773 0.00135099 
0.05415422 0.03644368 0.01124223 0.00299157 0.00155093 0.00236418 0.00937343 0.00448741 0.01815484 0.00234600 0.00123217 0.04969279 0.01420460 0.00632214 0.00462416 0.00134902 
0.05412714 0.03615047 0.01134221 0.00296255 0.00154891 0.00236259 0.00933167 0.00450615 0.01795970 0.00233832 0.00124165 0.04902303 0.01419236 0.00611554 0.00450396 0.00134705 
0.05405132 0.03585796 0.01143579 0.00293126 0.00154738 0.00236122 0.00928110 0.00452432 0.01778442 0.00232851 0.00125181 0.04833564 0.01416550 0.00591385 0.00438774 0.00134509 
0.05392684 0.03556720 0.01152256 0.00289799 0.00154642 0.00236004 0.00922193 0.00454178 0.01763064 0.00231656 0.00126263 0.04763316 0.01412452 0.00571812 0.00427608 0.00134315 
0.05375398 0.03527923 0.01160214 0.00286303 0.00154610 0.00235903 0.00915441 0.00455839 0.01749990 0.00230246 0.00127407 0.04691813 0.01406995 0.00552937 0.00416955 0.00134125 
0.05353318 0.03499506 0.01167417 0.00282669 0.00154648 0.00235815 0.00907880 0.00457400 0.01739365 0.00228621 0.00128610 0.04619310 0.01400238 0.00534854 0.00406865 0.00133940 
0.05326508 0.03471570 0.01173834 0.00278927 0.00154762 0.00235738 0.00899539 0.00458845 0.01731323 0.00226784 0.00129867 0.04546058 0.01392242 0.00517655 0.00397387 0.00133760 
0.05295051 0.03444214 0.01179436 0.00275112 0.00154957 0.00235669 0.00890449 0.00460158 0.01725988 0.00224736 0.00131175 0.04472306 0.01383072 0.00501424 0.00388564 0.00133587 
0.05259044 0.03417536 0.01184198 0.00271255 0.00155237 0.00235604 0.00880644 0.00461322 0.01723471 0.00222483 0.00132528 0.04398299 0.01372798 0.00486238 0.00380434 0.00133422 
0.05218604 0.03391634 0.01188102 0.00267389 0.00155608 0.00235540 0.00870157 0.00462320 0.01723872 0.00220029 0.00133922 0.04324275 0.01361490 0.00472167 0.00373033 0.00133265 
0.05173861 0.03366606 0.01191132 0.00263550 0.00156071 0.00235474 0.00859026 0.00463134 0.01727276 0.00217381 0.00135351 0.04250467 0.01349220 0.00459272 0.00366388 0.00133117 
0.05124962 0.03342551 0.01193276 0.00259769 0.00156630 0.00235402 0.00847289 0.00463745 0.01733758 0.00214546 0.00136809 0.04177097 0.01336065 0.00447609 0.00360526 0.00132980 
0.05072067 0.03319565 0.01194530 0.00256080 0.00157286 0.00235321 0.00834984 0.00464136 0.01743378 0.00211534 0.00138292 0.04104381 0.01322099 0.00437224 0.00355463 0.00132854 
0.05015350 0.03297748 0.01194892 0.00252517 0.00158041 0.00235228 0.00822155 0.00464289 0.01756179 0.00208353 0.00139794 0.04032524 0.01307399 0.00428153 0.00351215 0.00132738 
0.04954996 0.03277199 0.01194367 0.00249111 0.00158895 0.00235120 0.00808840 0.00464186 0.01772196 0.00205015 0.00141307 0.03961721 0.01292041 0.00420425 0.00347789 0.00132635 
0.04891202 0.03258020 0.01192966 0.00245894 0.00159847 0.00234993 0.00795085 0.00463810 0.01791444 0.00201531 0.00142827 0.03892154 0.01276104 0.00414060 0.00345188 0.00132544 
0.04824178 0.03240312 0.01190702 0.00242897 0.00160896 0.00234845 0.00780931 0.00463145 0.01813927 0.00197915 0.00144346 0.03823995 0.01259663 0.00409069 0.00343410 0.00132466 
0.04754139 0.03224178 0.01187597 0.00240149 0.00162039 0.00234673 0.00766423 0.00462175 0.01839632 0.00194179 0.00145859 0.03757403 0.01242794 0.00405453 0.00342447 0.00132401 
0.04681312 0.03209724 0.01183677 0.00237678 0.00163273 0.00234474 0.00751605 0.00460885 0.01868535 0.00190339 0.00147359 0.03692522 0.01225571 0.00403206 0.00342287 0.00132349 
0.04605929 0.03197053 0.01178972 0.00235510 0.00164594 0.00234245 0.00736522 0.00459262 0.01900594 0.00186409 0.00148839 0.03629486 0.01208069 0.00402310 0.00342912 0.00132310 
0.04528231 0.03186273 0.01173519 0.00233670 0.00165997 0.00233985 0.00721218 0.00457294 0.01935754 0.00182406 0.00150294 0.03568412 0.01190358 0.00402742 0.00344299 0.00132284 
0.04448463 0.03177491 0.01167360 0.00232181 0.00167477 0.00233691 0.00705739 0.00454970 0.01973947 0.00178346 0.00151716 0.03509407 0.01172509 0.00404468 0.00346421 0.00132272 
0.04366874 0.03170816 0.01160540 0.00231065 0.00169027 0.00233361 0.00690129 0.00452281 0.02015091 0.00174246 0.00153100 0.03452561 0.01154590 0.00407446 0.00349246 0.00132273 
0.04283717 0.03166354 0.01153110 0.00230339 0.00170638 0.00232994 0.00674432 0.00449222 0.02059090 0.00170123 0.00154439 0.03397952 0.01136666 0.00411628 0.00352737 0.00132286 
0.04199248 0.03164214 0.01145126 0.00230020 0.00172304 0.00232589 0.00658691 0.00445788 0.02105835 0.00165995 0.00155727 0.03345645 0.01118801 0.00416957 0.00356856 0.00132312 
0.04113725 0.03164502 0.01136648 0.00230122 0.00174016 0.00232143 0.00642952 0.00441977 0.02155205 0.00161881 0.00156959 0.03295691 0.01101056 0.00423368 0.00361559 0.00132350 
0.04027405 0.03167325 0.01127738 0.00230658 0.00175763 0.00231658 0.00627256 0.00437789 0.02207068 0.00157798 0.00158128 0.03248127 0.01083489 0.00430791 0.00366799 0.00132399 
0.03940547 0.03172785 0.01118463 0.00231636 0.00177536 0.00231131 0.00611645 0.00433227 0.02261279 0.00153765 0.00159230 0.03202980 0.01066155 0.00439150 0.00372527 0.00132459 
0.03853406 0.03180984 0.01108893 0.00233062 0.00179324 0.00230563 0.00596161 0.00428299 0.02317684 0.00149800 0.00160259 0.03160264 0.01049109 0.00448363 0.00378690 0.00132529 
0.03766239 0.03192017 0.01099101 0.00234941 0.00181115 0.00229953 0.00580845 0.00423012 0.02376118 0.00145922 0.00161211 0.03119981 0.01032400 0.00458342 0.00385234 0.00132609 
0.03679297 0.03205977 0.01089162 0.00237273 0.00182898 0.00229303 0.00565736 0.00417379 0.02436406 0.00142149 0.00162081 0.03082124 0.01016076 0.00468995 0.00392104 0.00132698 
0.03592830 0.03222952 0.01079152 0.00240057 0.00184661 0.00228612 0.00550872 0.00411415 0.02498368 0.00138498 0.00162865 0.03046675 0.01000182 0.00480229 0.00399242 0.00132795 
0.03507084 0.03243021 0.01069150 0.00243289 0.00186392 0.00227881 0.00536292 0.00405139 0.02561813 0.00134987 0.00163559 0.03013606 0.00984759 0.00491944 0.00406590 0.00132898 
0.03422298 0.03266259 0.01059235 0.00246960 0.00188078 0.00227111 0.00522031 0.00398572 0.02626546 0.00131633 0.00164161 0.02982883 0.00969849 0.00504040 0.00414090 0.00133008 
0.03338708 0.03292729 0.01049487 0.00251062 0.00189706 0.00226305 0.00508126 0.00391741 0.02692362 0.00128453 0.00164666 0.02954464 0.00955487 0.00516415 0.00421683 0.00133123 
0.03256543 0.03322486 0.01039985 0.00255582 0.00191264 0.00225462 0.00494609 0.00384673 0.02759057 0.00125461 0.00165073 0.02928299 0.00941709 0.00528965 0.00429311 0.00133241 
0.03176027 0.03355576 0.01030809 0.00260505 0.00192738 0.00224586 0.00481514 0.00377401 0.02826419 0.00122675 0.00165381 0.02904334 0.00928547 0.00541587 0.00436917 0.00133363 
0.03097376 0.03392032 0.01022037 0.00265814 0.00194117 0.00223678 0.00468873 0.00369960 0.02894233 0.00120107 0.00165586 0.02882511 0.00916030 0.00554178 0.00444445 0.00133487 
0.03020799 0.03431874 0.01013746 0.00271487 0.00195388 0.00222741 0.00456716 0.00362387 0.02962285 0.00117771 0.00165689 0.02862767 0.00904186 0.00566635 0.00451841 0.00133611 
0.02946496 0.03475109 0.01006011 0.00277504 0.00196540 0.00221776 0.00445072 0.00354726 0.03030357 0.00115681 0.00165689 0.02845038 0.00893040 0.00578859 0.00459052 0.00133735 
0.02874662 0.03521729 0.00998905 0.00283839 0.00197559 0.00220787 0.00433968 0.00347021 0.03098232 0.00113848 0.00165586 0.02829257 0.00882616 0.00590752 0.00466029 0.00133858 
0.02805481 0.03571713 0.00992497 0.00290467 0.00198437 0.00219776 0.00423432 0.00339319 0.03165695 0.00112282 0.00165380 0.02815357 0.00872935 0.00602219 0.00472724 0.00133979 
0.02739129 0.03625020 0.00986853 0.00297358 0.00199162 0.00218747 0.00413488 0.00331670 0.03232531 0.00110994 0.00165074 0.02803273 0.00864017 0.00613170 0.00479095 0.00134095 
0.02675773 0.03681594 0.00982038 0.00304483 0.00199724 0.00217702 0.00404160 0.00324129 0.03298530 0.00109992 0.00164667 0.02792938 0.00855878 0.00623516 0.00485101 0.00134207 
0.02615570 0.03741361 0.00978109 0.00311810 0.00200114 0.00216644 0.00395470 0.00316749 0.03363483 0.00109283 0.00164163 0.02784290 0.00848534 0.00633177 0.00490705 0.00134314 
0.02558668 0.03804229 0.00975120 0.00319306 0.00200326 0.00215577 0.00387439 0.00309588 0.03427189 0.00108874 0.00163564 0.02777269 0.00842000 0.00642076 0.00495876 0.00134413 
0.02505207 0.03870088 0.00973121 0.00326938 0.00200350 0.00214504 0.00380087 0.00302705 0.03489450 0.00108770 0.00162873 0.02771820 0.00836286 0.00650143 0.00500585 0.00134505 
0.02455313 0.03938806 0.00972156 0.00334669 0.00200181 0.00213428 0.00373433 0.00296162 0.03550075 0.00108973 0.00162093 0.02767891 0.00831405 0.00657313 0.00504808 0.00134589 
0.02409106 0.04010234 0.00972264 0.00342464 0.00199814 0.00212352 0.00367492 0.00290020 0.03608882 0.00109488 0.00161229 0.02765437 0.00827364 0.00663529 0.00508528 0.00134662 
0.02366692 0.04084203 0.00973477 0.00350287 0.00199245 0.00211281 0.00362281 0.00284342 0.03665694 0.00110314 0.00160285 0.02764417 0.00824171 0.00668739 0.00511730 0.00134726 
0.02328169 0.04160525 0.00975824 0.00358101 0.00198472 0.00210217 0.00357814 0.00279192 0.03720344 0.00111453 0.00159266 0.02764799 0.00821831 0.00672902 0.00514405 0.00134778 
0.02293625 0.04238992 0.00979325 0.00365870 0.00197492 0.00209164 0.00354103 0.00274633 0.03772676 0.00112902 0.00158177 0.02766556 0.00820348 0.00675980 0.00516549 0.00134818 
0.02263134 0.04319378 0.00983994 0.00373556 0.00196306 0.00208125 0.00351159 0.00270730 0.03822542 0.00114659 0.00157024 0.02769669 0.00819724 0.00677947 0.00518164 0.00134846 
0.02236761 0.04401436 0.00989841 0.00381124 0.00194914 0.00207102 0.00348992 0.00267544 0.03869804 0.00116720 0.00155813 0.02774128 0.00819959 0.00678782 0.00519256 0.00134861 
0.02214562 0.04484905 0.00996866 0.00388538 0.00193319 0.00206100 0.00347612 0.00265140 0.03914337 0.00119080 0.00154550 0.02779930 0.00821052 0.00678473 0.00519836 0.00134863 
0.02196578 0.04569504 0.01005067 0.00395762 0.00191524 0.00205121 0.00347023 0.00263578 0.03956026 0.00121732 0.00153242 0.02787080 0.00823000 0.00677017 0.00519921 0.00134851 
0.02182841 0.04654937 0.01014430 0.00402764 0.00189536 0.00204167 0.00347233 0.00262917 0.03994769 0.00124670 0.00151895 0.02795591 0.00825797 0.00674416 0.00519532 0.00134824 
0.02173372 0.04740893 0.01024940 0.00409511 0.00187360 0.00203242 0.00348244 0.00263215 0.04030474 0.00127884 0.00150517 0.02805486 0.00829437 0.00670684 0.00518695 0.00134783 
0.02168179 0.04827046 0.01036572 0.00415970 0.00185003 0.00202348 0.00350059 0.00264527 0.04063063 0.00131364 0.00149115 0.02816794 0.00833910 0.00665840 0.00517442 0.00134728 
0.02167261 0.04913060 0.01049296 0.00422113 0.00182476 0.00201488 0.00352679 0.00266905 0.04092469 0.00135099 0.00147696 0.02829555 0.00839205 0.00659911 0.00515806 0.00134657 
0.02170602 0.04998585 0.01063076 0.00427912 0.00179789 0.00200662 0.00356103 0.00270398 0.04118639 0.00139077 0.00146268 0.02843813 0.00845309 0.00652932 0.00513827 0.00134573 
0.02178177 0.05083265 0.01077870 0.00433340 0.00176953 0.00199875 0.00360329 0.00275051 0.04141532 0.00143286 0.00144838 0.02859624 0.00852206 0.00644945 0.00511549 0.00134473 
0.02189949 0.05166732 0.01093630 0.00438374 0.00173980 0.00199126 0.00365353 0.00280906 0.04161119 0.00147711 0.00143415 0.02877046 0.00859878 0.00635999 0.00509018 0.00134360 
0.02205869 0.05248617 0.01110303 0.00442992 0.00170886 0.00198418 0.00371168 0.00288001 0.04177382 0.00152338 0.00142005 0.02896148 0.00868304 0.00626148 0.00506284 0.00134233 
0.02225875 0.05328544 0.01127831 0.00447174 0.00167686 0.00197753 0.00377768 0.00296367 0.04190318 0.00157150 0.00140616 0.02917003 0.00877462 0.00615455 0.00503400 0.00134092 
0.02249896 0.05406137 0.01146150 0.00450905 0.00164395 0.00197130 0.00385143 0.00306033 0.04199934 0.00162132 0.00139256 0.02939689 0.00887327 0.00603986 0.00500421 0.00133937 
0.02277847 0.05481019 0.01165194 0.00454169 0.00161030 0.00196552 0.00393283 0.00317020 0.04206247 0.00167266 0.00137931 0.02964291 0.00897870 0.00591812 0.00497406 0.00133771 
0.02309632 0.05552817 0.01184891 0.00456954 0.00157609 0.00196018 0.00402175 0.00329346 0.04209289 0.00172535 0.00136651 0.02990897 0.00909060 0.00579010 0.00494413 0.00133592 
0.02345144 0.05621161 0.01205165 0.00459253 0.00154152 0.00195530 0.00411804 0.00343022 0.04209098 0.00177920 0.00135420 0.03019597 0.00920866 0.00565662 0.00491503 0.00133402 
0.02384263 0.05685690 0.01225938 0.00461057 0.00150676 0.00195087 0.00422154 0.00358053 0.04205725 0.00183404 0.00134247 0.03050485 0.00933250 0.00551851 0.00488737 0.00133202 
0.02426861 0.05746051 0.01247129 0.00462365 0.00147203 0.00194689 0.00433206 0.00374438 0.04199231 0.00188966 0.00133137 0.03083655 0.00946174 0.00537665 0.00486178 0.00132992 
0.02472794 0.05801902 0.01268654 0.00463174 0.00143752 0.00194336 0.00444942 0.00392171 0.04189683 0.00194587 0.00132097 0.03119205 0.00959597 0.00523194 0.00483888 0.00132773 
0.02521911 0.05852916 0.01290427 0.00463488 0.00140343 0.00194028 0.00457338 0.00411237 0.04177159 0.00200249 0.00131134 0.03157230 0.00973476 0.00508528 0.00481928 0.00132546 
0.02574049 0.05898782 0.01312361 0.00463310 0.00136998 0.00193764 0.00470372 0.00431617 0.04161744 0.00205930 0.00130251 0.03197824 0.00987764 0.00493762 0.00480359 0.00132312 
0.02629035 0.05939205 0.01334368 0.00462648 0.00133737 0.00193543 0.00484017 0.00453284 0.04143528 0.00211612 0.00129456 0.03241080 0.01002414 0.00478988 0.00479240 0.00132072 
0.02686684 0.05973912 0.01356358 0.00461511 0.00130581 0.00193364 0.00498245 0.00476204 0.04122610 0.00217275 0.00128752 0.03287087 0.01017373 0.00464299 0.00478629 0.00131827 
0.02746804 0.06002652 0.01378244 0.00459913 0.00127550 0.00193226 0.00513028 0.00500339 0.04099092 0.00222899 0.00128144 0.03335929 0.01032588 0.00449790 0.00478580 0.00131578 
0.02809192 0.06025198 0.01399936 0.00457868 0.00124664 0.00193128 0.00528333 0.00525641 0.04073082 0.00228464 0.00127637 0.03387688 0.01048006 0.00435551 0.00479147 0.00131327 
0.02873638 0.06041348 0.01421347 0.00455393 0.00121944 0.00193067 0.00544128 0.00552059 0.04044693 0.00233952 0.00127233 0.03442436 0.01063568 0.00421672 0.00480378 0.00131073 
0.02939922 0.06050927 0.01442389 0.00452508 0.00119407 0.00193043 0.00560377 0.00579533 0.04014038 0.00239343 0.00126936 0.03500240 0.01079216 0.00408243 0.00482320 0.00130820 
0.03007817 0.06053792 0.01462979 0.00449233 0.00117073 0.00193052 0.00577044 0.00607998 0.03981235 0.00244620 0.00126748 0.03561160 0.01094890 0.00395347 0.00485015 0.00130566 
0.03077091 0.06049826 0.01483032 0.00445593 0.00114958 0.00193094 0.00594090 0.00637384 0.03946402 0.00249763 0.00126671 0.03625243 0.01110528 0.00383066 0.00488500 0.00130314 
0.03147503 0.06038947 0.01502469 0.00441613 0.00113080 0.00193167 0.00611475 0.00667613 0.03909660 0.00254756 0.00126707 0.03692530 0.01126068 0.00371478 0.00492810 0.00130065 
0.03218808 0.06021104 0.01521211 0.00437318 0.00111455 0.00193267 0.00629156 0.00698604 0.03871129 0.00259582 0.00126858 0.03763049 0.01141446 0.00360656 0.00497973 0.00129819 
0.03290757 0.05996279 0.01539185 0.00432737 0.00110095 0.00193394 0.00647090 0.00730270 0.03830928 0.00264225 0.00127123 0.03836817 0.01156599 0.00350670 0.00504013 0.00129579 
0.03363097 0.05964489 0.01556318 0.00427899 0.00109015 0.00193543 0.00665233 0.00762518 0.03789175 0.00268669 0.00127503 0.03913837 0.01171463 0.00341583 0.00510947 0.00129343 
0.03435572 0.05925785 0.01572543 0.00422835 0.00108226 0.00193714 0.00683537 0.00795253 0.03745987 0.00272899 0.00127996 0.03994101 0.01185973 0.00333453 0.00518790 0.00129115 
0.03507923 0.05880251 0.01587797 0.00417575 0.00107738 0.00193904 0.00701956 0.00828374 0.03701479 0.00276902 0.00128604 0.04077583 0.01200067 0.00326333 0.00527547 0.00128893 
0.03579894 0.05828009 0.01602020 0.00412150 0.00107560 0.00194111 0.00720440 0.00861776 0.03655763 0.00280665 0.00129322 0.04164246 0.01213681 0.00320268 0.00537222 0.00128680 
0.03651226 0.05769213 0.01615156 0.00406594 0.00107699 0.00194331 0.00738940 0.00895354 0.03608948 0.00284176 0.00130151 0.04254035 0.01226755 0.00315298 0.00547808 0.00128476 
0.03721662 0.05704051 0.01627157 0.00400939 0.00108161 0.00194564 0.00757405 0.00928996 0.03561137 0.00287423 0.00131087 0.04346880 0.01239228 0.00311456 0.00559296 0.00128282 
0.03790950 0.05632747 0.01637975 0.00395215 0.00108949 0.00194805 0.00775783 0.00962592 0.03512433 0.00290398 0.00132127 0.04442692 0.01251042 0.00308770 0.00571671 0.00128099 
0.03858839 0.05555554 0.01647569 0.00389456 0.00110065 0.00195054 0.00794022 0.00996027 0.03462932 0.00293090 0.00133268 0.04541368 0.01262139 0.00307257 0.00584909 0.00127926 
0.03925084 0.05472761 0.01655904 0.00383694 0.00111509 0.00195308 0.00812070 0.01029186 0.03412728 0.00295492 0.00134506 0.04642785 0.01272467 0.00306930 0.00598983 0.00127765 
0.03989446 0.05384683 0.01662949 0.00377958 0.00113280 0.00195565 0.00829874 0.01061955 0.03361907 0.00297597 0.00135836 0.04746803 0.01281975 0.00307795 0.00613860 0.00127616 
0.04051694 0.05291667 0.01668675 0.00372279 0.00115373 0.00195822 0.00847381 0.01094216 0.03310552 0.00299400 0.00137255 0.04853262 0.01290613 0.00309850 0.00629501 0.00127479 
0.04111605 0.05194087 0.01673063 0.00366687 0.00117784 0.00196078 0.00864537 0.01125855 0.03258743 0.00300895 0.00138756 0.04961987 0.01298337 0.00313086 0.00645861 0.00127354 
0.04168965 0.05092343 0.01676096 0.00361210 0.00120505 0.00196332 0.00881291 0.01156757 0.03206553 0.00302079 0.00140334 0.05072781 0.01305107 0.00317487 0.00662891 0.00127243 
0.04223573 0.04986857 0.01677760 0.00355874 0.00123528 0.00196581 0.00897589 0.01186811 0.03154051 0.00302950 0.00141983 0.05185431 0.01310884 0.00323031 0.00680536 0.00127144 
0.04275239 0.04878076 0.01678050 0.00350705 0.00126841 0.00196823 0.00913381 0.01215904 0.03101302 0.00303506 0.00143698 0.05299703 0.01315637 0.00329687 0.00698738 0.00127057 
0.04323783 0.04766463 0.01676962 0.00345727 0.00130433 0.00197058 0.00928616 0.01243928 0.03048364 0.00303748 0.00145470 0.05415347 0.01319336 0.00337421 0.00717432 0.00126984 
0.04369045 0.04652501 0.01674498 0.00340962 0.00134288 0.00197285 0.00943244 0.01270779 0.02995295 0.00303675 0.00147294 0.05532093 0.01321957 0.00346190 0.00736553 0.00126923 
0.04410876 0.04536687 0.01670664 0.00336430 0.00138391 0.00197501 0.00957216 0.01296355 0.02942146 0.00303291 0.00149162 0.05649655 0.01323481 0.00355945 0.00756029 0.00126875 
0.04449143 0.04419530 0.01665469 0.00332149 0.00142724 0.00197706 0.00970486 0.01320559 0.02888967 0.00302598 0.00151067 0.05767729 0.01323894 0.00366633 0.00775786 0.00126838 
0.04483733 0.04301548 0.01658928 0.00328137 0.00147270 0.00197900 0.00983009 0.01343298 0.02835801 0.00301601 0.00153000 0.05885995 0.01323187 0.00378195 0.00795748 0.00126813 
0.04514548 0.04183266 0.01651057 0.00324407 0.00152007 0.00198081 0.00994741 0.01364484 0.02782692 0.00300304 0.00154955 0.06004116 0.01321356 0.00390567 0.00815835 0.00126800 
0.04541510 0.04065214 0.01641878 0.00320971 0.00156915 0.00198250 0.01005641 0.01384034 0.02729679 0.00298713 0.00156923 0.06121740 0.01318402 0.00403678 0.00835967 0.00126797 
0.04564558 0.03947923 0.01631415 0.00317841 0.00161970 0.00198406 0.01015670 0.01401874 0.02676801 0.00296837 0.00158896 0.06238503 0.01314333 0.00417457 0.00856061 0.00126803 
0.04583653 0.03831923 0.01619694 0.00315024 0.00167149 0.00198549 0.01024791 0.01417932 0.02624094 0.00294682 0.00160866 0.06354026 0.01309160 0.00431826 0.00876035 0.00126819 
0.04598776 0.03717738 0.01606747 0.00312525 0.00172428 0.00198679 0.01032972 0.01432146 0.02571593 0.00292258 0.00162824 0.06467918 0.01302900 0.00446704 0.00895804 0.00126844 
0.04609925 0.03605886 0.01592604 0.00310349 0.00177781 0.00198796 0.01040181 0.01444458 0.02519332 0.00289574 0.00164762 0.06579778 0.01295577 0.00462010 0.00915285 0.00126876 
0.04617122 0.03496875 0.01577302 0.00308497 0.00183181 0.00198901 0.01046390 0.01454820 0.02467346 0.00286642 0.00166671 0.06689196 0.01287219 0.00477656 0.00934395 0.00126916 
0.04620409 0.03391200 0.01560877 0.00306968 0.00188603 0.00198995 0.01051575 0.01463190 0.02415670 0.00283471 0.00168542 0.06795754 0.01277858 0.00493555 0.00953052 0.00126961 
0.04619846 0.03289342 0.01543367 0.00305761 0.00194020 0.00199078 0.01055714 0.01469533 0.02364338 0.00280076 0.00170368 0.06899028 0.01267532 0.00509620 0.00971175 0.00127012 
0.04615515 0.03191761 0.01524813 0.00304871 0.00199404 0.00199152 0.01058791 0.01473825 0.02313386 0.00276467 0.00172140 0.06998591 0.01256284 0.00525759 0.00988686 0.00127066 
0.04607519 0.03098900 0.01505258 0.00304292 0.00204728 0.00199216 0.01060790 0.01476046 0.02262853 0.00272658 0.00173850 0.07094011 0.01244162 0.00541883 0.01005508 0.00127124 
0.04595978 0.03011178 0.01484743 0.00304015 0.00209964 0.00199274 0.01061702 0.01476187 0.02212776 0.00268664 0.00175489 0.07184859 0.01231216 0.00557901 0.01021569 0.00127184 
0.04581032 0.02928987 0.01463314 0.00304031 0.00215086 0.00199325 0.01061519 0.01474245 0.02163198 0.00264498 0.00177050 0.07270706 0.01217502 0.00573726 0.01036797 0.00127246 
0.04562840 0.02852694 0.01441016 0.00304329 0.00220066 0.00199372 0.01060240 0.01470227 0.02114162 0.00260176 0.00178524 0.07351126 0.01203079 0.00589267 0.01051127 0.00127308 
0.04541577 0.02782635 0.01417895 0.00304897 0.00224879 0.00199415 0.01057866 0.01464147 0.02065713 0.00255712 0.00179904 0.07425702 0.01188011 0.00604440 0.01064496 0.00127369 
0.04517436 0.02719117 0.01393997 0.00305719 0.00229498 0.00199458 0.01054402 0.01456027 0.02017901 0.00251123 0.00181183 0.07494024 0.01172362 0.00619160 0.01076847 0.00127428 
0.04490622 0.02662412 0.01369370 0.00306783 0.00233899 0.00199501 0.01049857 0.01445898 0.01970777 0.00246423 0.00182354 0.07555693 0.01156202 0.00633344 0.01088125 0.00127485 
0.04461358 0.02612757 0.01344062 0.00308070 0.00238057 0.00199546 0.01044245 0.01433797 0.01924396 0.00241629 0.00183410 0.07610324 0.01139602 0.00646916 0.01098284 0.00127538 
0.04429878 0.02570356 0.01318119 0.00309565 0.00241950 0.00199596 0.01037584 0.01419770 0.01878814 0.00236758 0.00184344 0.07657548 0.01122635 0.00659800 0.01107280 0.00127587 
0.04396427 0.02535374 0.01291591 0.00311250 0.00245555 0.00199653 0.01029894 0.01403869 0.01834092 0.00231824 0.00185151 0.07697015 0.01105375 0.00671924 0.01115075 0.00127631 
0.04361261 0.02507938 0.01264525 0.00313107 0.00248852 0.00199717 0.01021202 0.01386154 0.01790294 0.00226846 0.00185825 0.07728396 0.01087899 0.00683224 0.01121639 0.00127669 
0.04324644 0.02488138 0.01236969 0.00315118 0.00251821 0.00199793 0.01011536 0.01366692 0.01747484 0.00221838 0.00186360 0.07751385 0.01070283 0.00693636 0.01126946 0.00127701 
0.04286848 0.02476023 0.01208973 0.00317263 0.00254444 0.00199881 0.01000930 0.01345555 0.01705732 0.00216818 0.00186753 0.07765703 0.01052605 0.00703104 0.01130976 0.00127725 
0.04248147 0.02471604 0.01180584 0.00319524 0.00256704 0.00199983 0.00989419 0.01322822 0.01665108 0.00211801 0.00186999 0.07771101 0.01034941 0.00711578 0.01133716 0.00127741 
0.04208823 0.02474850 0.01151851 0.00321881 0.00258588 0.00200103 0.00977044 0.01298578 0.01625685 0.00206804 0.00187095 0.07767359 0.01017370 0.00719012 0.01135159 0.00127749 
0.04169156 0.02485693 0.01122821 0.00324317 0.00260081 0.00200241 0.00963848 0.01272911 0.01587536 0.00201841 0.00187038 0.07754291 0.00999966 0.00725366 0.01135304 0.00127748 
0.04129427 0.02504024 0.01093544 0.00326813 0.00261173 0.00200400 0.00949877 0.01245917 0.01550737 0.00196930 0.00186824 0.07731750 0.00982805 0.00730608 0.01134157 0.00127738 
0.04089917 0.02529696 0.01064067 0.00329351 0.00261854 0.00200582 0.00935182 0.01217694 0.01515365 0.00192083 0.00186453 0.07699622 0.00965961 0.00734711 0.01131730 0.00127720 
0.04050901 0.02562523 0.01034438 0.00331913 0.00262116 0.00200789 0.00919812 0.01188343 0.01481497 0.00187317 0.00185923 0.07657836 0.00949505 0.00737654 0.01128041 0.00127691 
0.04012649 0.02602282 0.01004706 0.00334483 0.00261953 0.00201022 0.00903825 0.01157970 0.01449208 0.00182645 0.00185234 0.07606364 0.00933506 0.00739425 0.01123115 0.00127653 
0.03975426 0.02648714 0.00974918 0.00337045 0.00261363 0.00201283 0.00887274 0.01126684 0.01418576 0.00178082 0.00184386 0.07545218 0.00918031 0.00740017 0.01116980 0.00127606 
0.03939486 0.02701525 0.00945122 0.00339584 0.00260342 0.00201573 0.00870221 0.01094594 0.01389674 0.00173640 0.00183380 0.07474457 0.00903144 0.00739429 0.01109674 0.00127550 
0.03905075 0.02760388 0.00915366 0.00342085 0.00258892 0.00201895 0.00852724 0.01061814 0.01362575 0.00169332 0.00182217 0.07394185 0.00888905 0.00737670 0.01101238 0.00127485 
0.03872423 0.02824944 0.00885699 0.00344535 0.00257013 0.00202249 0.00834845 0.01028455 0.01337351 0.00165170 0.00180901 0.07304556 0.00875371 0.00734752 0.01091720 0.00127411 
0.03841751 0.02894804 0.00856168 0.00346923 0.00254711 0.00202636 0.00816648 0.00994631 0.01314070 0.00161166 0.00179432 0.07205768 0.00862595 0.00730697 0.01081172 0.00127329 
0.03813263 0.02969550 0.00826821 0.00349236 0.00251992 0.00203057 0.00798196 0.00960458 0.01292795 0.00157330 0.00177817 0.07098070 0.00850626 0.00725532 0.01069651 0.00127240 
0.03787147 0.03048741 0.00797707 0.00351464 0.00248862 0.00203513 0.00779552 0.00926047 0.01273586 0.00153672 0.00176059 0.06981758 0.00839510 0.00719291 0.01057219 0.00127143 
0.03763574 0.03131909 0.00768872 0.00353600 0.00245333 0.00204005 0.00760782 0.00891512 0.01256501 0.00150201 0.00174163 0.06857178 0.00829287 0.00712013 0.01043943 0.00127041 
0.03742697 0.03218569 0.00740366 0.00355634 0.00241415 0.00204533 0.00741948 0.00856963 0.01241588 0.00146926 0.00172136 0.06724723 0.00819992 0.00703745 0.01029894 0.00126934 
0.03724648 0.03308214 0.00712236 0.00357561 0.00237123 0.00205096 0.00723116 0.00822511 0.01228893 0.00143855 0.00169983 0.06584833 0.00811658 0.00694538 0.01015146 0.00126822 
0.03709542 0.03400323 0.00684530 0.00359374 0.00232471 0.00205695 0.00704347 0.00788261 0.01218454 0.00140994 0.00167714 0.06437995 0.00804309 0.00684451 0.00999776 0.00126707 
0.03697469 0.03494361 0.00657295 0.00361069 0.00227475 0.00206330 0.00685704 0.00754318 0.01210303 0.00138349 0.00165335 0.06284741 0.00797969 0.00673545 0.00983865 0.00126589 
0.03688502 0.03589783 0.00630580 0.00362643 0.00222155 0.00207000 0.00667247 0.00720783 0.01204465 0.00135926 0.00162856 0.06125646 0.00792652 0.00661889 0.00967497 0.00126471 
0.03682688 0.03686038 0.00604432 0.00364094 0.00216530 0.00207704 0.00649035 0.00687754 0.01200956 0.00133729 0.00160285 0.05961327 0.00788372 0.00649555 0.00950758 0.00126353 
0.03680055 0.03782569 0.00578898 0.00365419 0.00210621 0.00208441 0.00631125 0.00655323 0.01199786 0.00131760 0.00157634 0.05792438 0.00785134 0.00636618 0.00933734 0.00126236 
0.03680607 0.03878819 0.00554025 0.00366619 0.00204451 0.00209210 0.00613571 0.00623581 0.01200956 0.00130024 0.00154912 0.05619673 0.00782940 0.00623159 0.00916515 0.00126122 
0.03684328 0.03974230 0.00529858 0.00367693 0.00198043 0.00210009 0.00596426 0.00592611 0.01204458 0.00128521 0.00152131 0.05443755 0.00781787 0.00609261 0.00899192 0.00126012 
0.03691178 0.04068252 0.00506444 0.00368642 0.00191422 0.00210836 0.00579740 0.00562493 0.01210276 0.00127252 0.00149301 0.05265441 0.00781667 0.00595010 0.00881854 0.00125908 
0.03701096 0.04160341 0.00483827 0.00369469 0.00184613 0.00211691 0.00563559 0.00533303 0.01218386 0.00126217 0.00146437 0.05085512 0.00782568 0.00580494 0.00864594 0.00125810 
0.03714000 0.04249964 0.00462051 0.00370176 0.00177644 0.00212569 0.00547928 0.00505110 0.01228754 0.00125416 0.00143549 0.04904775 0.00784472 0.00565803 0.00847502 0.00125721 
0.03729788 0.04336600 0.00441161 0.00370766 0.00170540 0.00213469 0.00532885 0.00477978 0.01241337 0.00124847 0.00140651 0.04724053 0.00787357 0.00551029 0.00830669 0.00125640 
0.03748336 0.04419748 0.00421197 0.00371241 0.00163331 0.00214389 0.00518469 0.00451966 0.01256085 0.00124507 0.00137755 0.04544187 0.00791198 0.00536263 0.00814184 0.00125571 
0.03769505 0.04498923 0.00402200 0.00371606 0.00156045 0.00215325 0.00504712 0.00427126 0.01272936 0.00124392 0.00134876 0.04366025 0.00795966 0.00521598 0.00798137 0.00125514 
0.03793134 0.04573663 0.00384210 0.00371864 0.00148710 0.00216274 0.00491644 0.00403506 0.01291823 0.00124500 0.00132026 0.04190423 0.00801625 0.00507127 0.00782614 0.00125470 
0.03819048 0.04643532 0.00367265 0.00372020 0.00141355 0.00217233 0.00479292 0.00381147 0.01312668 0.00124825 0.00129220 0.04018239 0.00808140 0.00492941 0.00767699 0.00125440 
0.03847055 0.04708120 0.00351400 0.00372078 0.00134010 0.00218200 0.00467677 0.00360085 0.01335388 0.00125362 0.00126470 0.03850325 0.00815469 0.00479129 0.00753475 0.00125427 
0.03876948 0.04767047 0.00336649 0.00372042 0.00126703 0.00219169 0.00456817 0.00340349 0.01359889 0.00126104 0.00123790 0.03687527 0.00823569 0.00465782 0.00740022 0.00125429 
0.03908508 0.04819963 0.00323044 0.00371916 0.00119465 0.00220139 0.00446727 0.00321965 0.01386073 0.00127046 0.00121194 0.03530676 0.00832394 0.00452984 0.00727415 0.00125449 
0.03941505 0.04866555 0.00310614 0.00371704 0.00112323 0.00221105 0.00437416 0.00304950 0.01413831 0.00128179 0.00118695 0.03380584 0.00841893 0.00440821 0.00715729 0.00125488 
0.03975697 0.04906543 0.00299387 0.00371411 0.00105307 0.00222063 0.00428893 0.00289318 0.01443053 0.00129495 0.00116307 0.03238041 0.00852017 0.00429371 0.00705033 0.00125545 
0.04010835 0.04939685 0.00289387 0.00371040 0.00098444 0.00223010 0.00421158 0.00275077 0.01473620 0.00130988 0.00114041 0.03103808 0.00862711 0.00418711 0.00695391 0.00125622 
0.04046663 0.04965779 0.00280634 0.00370594 0.00091762 0.00223942 0.00414212 0.00262228 0.01505408 0.00132646 0.00111910 0.02978613 0.00873920 0.00408916 0.00686864 0.00125719 
0.04082919 0.04984663 0.00273148 0.00370077 0.00085289 0.00224856 0.00408050 0.00250770 0.01538289 0.00134462 0.00109926 0.02863146 0.00885589 0.00400052 0.00679510 0.00125837 
0.04119336 0.04996214 0.00266943 0.00369489 0.00079050 0.00225747 0.00402663 0.00240695 0.01572132 0.00136426 0.00108100 0.02758054 0.00897660 0.00392183 0.00673379 0.00125974 
0.04155648 0.05000354 0.00262032 0.00368835 0.00073071 0.00226613 0.00398040 0.00231991 0.01606801 0.00138528 0.00106443 0.02663938 0.00910074 0.00385369 0.00668517 0.00126132 
0.04191585 0.04997045 0.00258421 0.00368115 0.00067376 0.00227449 0.00394168 0.00224642 0.01642160 0.00140757 0.00104965 0.02581347 0.00922773 0.00379660 0.00664966 0.00126310 
0.04226881 0.04986295 0.00256116 0.00367330 0.00061989 0.00228253 0.00391027 0.00218627 0.01678068 0.00143104 0.00103675 0.02510775 0.00935699 0.00375106 0.00662761 0.00126507 
0.04261271 0.04968153 0.00255118 0.00366481 0.00056932 0.00229022 0.00388599 0.00213922 0.01714386 0.00145558 0.00102582 0.02452658 0.00948792 0.00371746 0.00661930 0.00126724 
0.04294494 0.04942712 0.00255422 0.00365568 0.00052226 0.00229752 0.00386860 0.00210499 0.01750973 0.00148109 0.00101693 0.02407368 0.00961994 0.00369617 0.00662498 0.00126959 
0.04326296 0.04910106 0.00257021 0.00364591 0.00047890 0.00230441 0.00385785 0.00208327 0.01787690 0.00150745 0.00101015 0.02375215 0.00975248 0.00368745 0.00664483 0.00127211 
0.04356428 0.04870514 0.00259904 0.00363549 0.00043944 0.00231087 0.00385347 0.00207370 0.01824397 0.00153456 0.00100553 0.02356438 0.00988497 0.00369154 0.00667895 0.00127479 
0.04384652 0.04824153 0.00264055 0.00362439 0.00040404 0.00231688 0.00385517 0.00207592 0.01860956 0.00156232 0.00100313 0.02351208 0.01001685 0.00370858 0.00672740 0.00127762 
0.04410737 0.04771283 0.00269454 0.00361261 0.00037286 0.00232242 0.00386265 0.00208953 0.01897234 0.00159062 0.00100298 0.02359622 0.01014759 0.00373867 0.00679017 0.00128059 
0.04434464 0.04712201 0.00276076 0.00360011 0.00034604 0.00232749 0.00387558 0.00211410 0.01933099 0.00161937 0.00100511 0.02381705 0.01027667 0.00378182 0.00686717 0.00128367 
0.04455627 0.04647241 0.00283892 0.00358687 0.00032371 0.00233206 0.00389365 0.00214920 0.01968422 0.00164845 0.00100954 0.02417408 0.01040357 0.00383798 0.00695827 0.00128684 
0.04474032 0.04576773 0.00292869 0.00357285 0.00030596 0.00233614 0.00391652 0.00219436 0.02003080 0.00167777 0.00101627 0.02466604 0.01052783 0.00390705 0.00706327 0.00129010 
0.04489499 0.04501199 0.00302969 0.00355802 0.00029290 0.00233973 0.00394385 0.00224912 0.02036956 0.00170724 0.00102529 0.02529092 0.01064898 0.00398883 0.00718189 0.00129341 
0.04501862 0.04420954 0.00314150 0.00354235 0.00028459 0.00234283 0.00397529 0.00231299 0.02069934 0.00173677 0.00103659 0.02604599 0.01076658 0.00408309 0.00731380 0.00129675 
0.04510972 0.04336501 0.00326367 0.00352578 0.00028110 0.00234546 0.00401052 0.00238547 0.02101908 0.00176626 0.00105014 0.02692772 0.01088023 0.00418951 0.00745862 0.00130009 
0.04516695 0.04248327 0.00339568 0.00350828 0.00028247 0.00234762 0.00404920 0.00246606 0.02132777 0.00179563 0.00106590 0.02793190 0.01098956 0.00430773 0.00761589 0.00130342 
0.04518913 0.04156945 0.00353699 0.00348980 0.00028871 0.00234934 0.00409099 0.00255425 0.02162445 0.00182481 0.00108382 0.02905359 0.01109421 0.00443731 0.00778509 0.00130669 
0.04517527 0.04062885 0.00368701 0.00347030 0.00029983 0.00235065 0.00413559 0.00264955 0.02190825 0.00185371 0.00110385 0.03028716 0.01119387 0.00457778 0.00796565 0.00130989 
0.04512452 0.03966697 0.00384512 0.00344972 0.00031581 0.00235156 0.00418267 0.00275142 0.02217837 0.00188227 0.00112590 0.03162630 0.01128824 0.00472860 0.00815696 0.00131299 
0.04503624 0.03868944 0.00401067 0.00342803 0.00033663 0.00235213 0.00423195 0.00285937 0.02243406 0.00191042 0.00114990 0.03306410 0.01137707 0.00488918 0.00835833 0.00131595 
0.04490994 0.03770197 0.00418295 0.00340518 0.00036224 0.00235238 0.00428315 0.00297289 0.02267468 0.00193811 0.00117577 0.03459304 0.01146014 0.00505889 0.00856905 0.00131874 
0.04474530 0.03671039 0.00436124 0.00338113 0.00039256 0.00235236 0.00433599 0.00309147 0.02289962 0.00196528 0.00120339 0.03620502 0.01153725 0.00523705 0.00878833 0.00132133 
0.04454220 0.03572052 0.00454478 0.00335583 0.00042752 0.00235213 0.00439025 0.00321462 0.02310840 0.00199187 0.00123266 0.03789146 0.01160825 0.00542296 0.00901535 0.00132369 
0.04430066 0.03473820 0.00473278 0.00332925 0.00046701 0.00235173 0.00444569 0.00334184 0.02330056 0.00201785 0.00126347 0.03964330 0.01167301 0.00561585 0.00924928 0.00132580 
0.04402089 0.03376925 0.00492445 0.00330136 0.00051091 0.00235122 0.00450210 0.00347266 0.02347576 0.00204319 0.00129570 0.04145105 0.01173144 0.00581496 0.00948920 0.00132761 
0.04370325 0.03281940 0.00511894 0.00327211 0.00055909 0.00235067 0.00455932 0.00360659 0.02363372 0.00206783 0.00132921 0.04330486 0.01178348 0.00601947 0.00973420 0.00132910 
0.04334827 0.03189428 0.00531541 0.00324150 0.00061140 0.00235013 0.00461718 0.00374319 0.02377420 0.00209177 0.00136387 0.04519460 0.01182909 0.00622857 0.00998334 0.00133024 
0.04295661 0.03099938 0.00551298 0.00320949 0.00066766 0.00234969 0.00467554 0.00388199 0.02389708 0.00211499 0.00139954 0.04710985 0.01186829 0.00644142 0.01023563 0.00133100 
0.04252910 0.03014003 0.00571079 0.00317607 0.00072770 0.00234941 0.00473430 0.00402255 0.02400228 0.00213745 0.00143607 0.04904004 0.01190110 0.00665716 0.01049008 0.00133135 
0.04206671 0.02932135 0.00590795 0.00314123 0.00079131 0.00234936 0.00479337 0.00416445 0.02408978 0.00215916 0.00147332 0.05097443 0.01192758 0.00687494 0.01074571 0.00133127 
0.04157052 0.02854821 0.00610356 0.00310496 0.00085830 0.00234963 0.00485268 0.00430726 0.02415964 0.00218010 0.00151114 0.05290226 0.01194783 0.00709390 0.01100148 0.00133073 
0.04104176 0.02782523 0.00629673 0.00306727 0.00092843 0.00235028 0.00491220 0.00445059 0.02421196 0.00220029 0.00154937 0.05481274 0.01196195 0.00731317 0.01125640 0.00132970 
0.04048176 0.02715671 0.00648657 0.00302816 0.00100146 0.00235139 0.00497191 0.00459404 0.02424690 0.00221971 0.00158787 0.05669517 0.01197009 0.00753191 0.01150944 0.00132818 
0.03989197 0.02654665 0.00667221 0.00298765 0.00107715 0.00235304 0.00503182 0.00473723 0.02426469 0.00223838 0.00162648 0.05853896 0.01197241 0.00774929 0.01175961 0.00132614 
0.03927393 0.02599869 0.00685277 0.00294575 0.00115524 0.00235531 0.00509194 0.00487980 0.02426557 0.00225631 0.00166505 0.06033373 0.01196909 0.00796448 0.01200592 0.00132356 
0.03862927 0.02551610 0.00702740 0.00290251 0.00123546 0.00235828 0.00515232 0.00502139 0.02424985 0.00227351 0.00170344 0.06206936 0.01196036 0.00817668 0.01224740 0.00132043 
0.03795971 0.02510174 0.00719525 0.00285796 0.00131752 0.00236202 0.00521302 0.00516166 0.02421787 0.00229000 0.00174148 0.06373603 0.01194642 0.00838512 0.01248310 0.00131674 
0.03726705 0.02475808 0.00735552 0.00281213 0.00140115 0.00236659 0.00527412 0.00530030 0.02417001 0.00230581 0.00177905 0.06532433 0.01192753 0.00858906 0.01271210 0.00131248 
0.03655311 0.02448716 0.00750741 0.00276508 0.00148605 0.00237208 0.00533572 0.00543697 0.02410668 0.00232095 0.00181601 0.06682527 0.01190394 0.00878777 0.01293353 0.00130766 
0.03581983 0.02429056 0.00765018 0.00271687 0.00157192 0.00237854 0.00539790 0.00557140 0.02402831 0.00233545 0.00185222 0.06823036 0.01187592 0.00898059 0.01314654 0.00130226 
0.03506913 0.02416943 0.00778311 0.00266757 0.00165845 0.00238605 0.00546080 0.00570328 0.02393536 0.00234934 0.00188755 0.06953168 0.01184376 0.00916687 0.01335033 0.00129629 
0.03430302 0.02412443 0.00790551 0.00261724 0.00174534 0.00239464 0.00552452 0.00583233 0.02382830 0.00236264 0.00192188 0.07072188 0.01180775 0.00934602 0.01354415 0.00128975 
0.03352350 0.02415580 0.00801676 0.00256596 0.00183227 0.00240438 0.00558919 0.00595831 0.02370765 0.00237539 0.00195511 0.07179426 0.01176819 0.00951749 0.01372731 0.00128266 
0.03273261 0.02426327 0.00811625 0.00251382 0.00191894 0.00241531 0.00565494 0.00608095 0.02357389 0.00238761 0.00198712 0.07274283 0.01172538 0.00968076 0.01389916 0.00127503 
0.03193240 0.02444612 0.00820346 0.00246092 0.00200503 0.00242747 0.00572189 0.00620001 0.02342756 0.00239933 0.00201782 0.07356230 0.01167964 0.00983539 0.01405912 0.00126687 
0.03112492 0.02470319 0.00827789 0.00240734 0.00209022 0.00244089 0.00579018 0.00631528 0.02326918 0.00241057 0.00204712 0.07424816 0.01163128 0.00998097 0.01420669 0.00125820 
0.03031221 0.02503282 0.00833912 0.00235320 0.00217422 0.00245560 0.00585992 0.00642653 0.02309929 0.00242138 0.00207494 0.07479668 0.01158060 0.01011713 0.01434140 0.00124906 
0.02949631 0.02543296 0.00838677 0.00229860 0.00225670 0.00247162 0.00593122 0.00653356 0.02291842 0.00243177 0.00210121 0.07520493 0.01152792 0.01024358 0.01446288 0.00123946 
0.02867924 0.02590110 0.00842055 0.00224365 0.00233738 0.00248894 0.00600418 0.00663618 0.02272713 0.00244176 0.00212587 0.07547083 0.01147353 0.01036006 0.01457082 0.00122944 
0.02786301 0.02643431 0.00844021 0.00218848 0.00241596 0.00250758 0.00607889 0.00673422 0.02252595 0.00245140 0.00214887 0.07559314 0.01141775 0.01046637 0.01466498 0.00121903 
0.02704958 0.02702927 0.00844557 0.00213320 0.00249215 0.00252752 0.00615543 0.00682750 0.02231543 0.00246068 0.00217017 0.07557147 0.01136086 0.01056237 0.01474521 0.00120827 
0.02624089 0.02768231 0.00843653 0.00207795 0.00256566 0.00254874 0.00623384 0.00691587 0.02209612 0.00246964 0.00218975 0.07540629 0.01130315 0.01064795 0.01481140 0.00119720 
0.02543885 0.02838937 0.00841304 0.00202285 0.00263624 0.00257123 0.00631417 0.00699919 0.02186855 0.00247829 0.00220757 0.07509891 0.01124488 0.01072306 0.01486355 0.00118587 
0.02464529 0.02914611 0.00837516 0.00196804 0.00270361 0.00259494 0.00639643 0.00707733 0.02163328 0.00248664 0.00222363 0.07465151 0.01118632 0.01078772 0.01490172 0.00117432 
0.02386205 0.02994785 0.00832297 0.00191365 0.00276754 0.00261982 0.00648061 0.00715016 0.02139086 0.00249471 0.00223793 0.07406708 0.01112772 0.01084197 0.01492604 0.00116261 
0.02309088 0.03078967 0.00825666 0.00185982 0.00282779 0.00264583 0.00656666 0.00721760 0.02114182 0.00250250 0.00225049 0.07334943 0.01106930 0.01088591 0.01493672 0.00115078 
0.02233348 0.03166644 0.00817649 0.00180669 0.00288413 0.00267290 0.00665454 0.00727954 0.02088672 0.00251002 0.00226130 0.07250316 0.01101129 0.01091967 0.01493403 0.00113889 
0.02159152 0.03257278 0.00808277 0.00175439 0.00293637 0.00270095 0.00674414 0.00733591 0.02062612 0.00251728 0.00227041 0.07153363 0.01095388 0.01094344 0.01491832 0.00112700 
0.02086658 0.03350320 0.00797590 0.00170308 0.00298430 0.00272990 0.00683536 0.00738665 0.02036056 0.00252426 0.00227785 0.07044694 0.01089725 0.01095743 0.01488999 0.00111516 
0.02016020 0.03445205 0.00785635 0.00165288 0.00302777 0.00275967 0.00692804 0.00743170 0.02009062 0.00253096 0.00228366 0.06924985 0.01084156 0.01096191 0.01484951 0.00110344 
0.01947386 0.03541361 0.00772464 0.00160395 0.00306661 0.00279016 0.00702199 0.00747102 0.01981685 0.00253738 0.00228789 0.06794978 0.01078696 0.01095715 0.01479741 0.00109189 
0.01880895 0.03638209 0.00758138 0.00155641 0.00310069 0.00282125 0.00711702 0.00750460 0.01953985 0.00254350 0.00229059 0.06655477 0.01073357 0.01094348 0.01473427 0.00108059 
0.01816684 0.03735172 0.00742723 0.00151040 0.00312989 0.00285284 0.00721288 0.00753242 0.01926020 0.00254932 0.00229184 0.06507337 0.01068148 0.01092125 0.01466072 0.00106958 
0.01754879 0.03831673 0.00726292 0.00146607 0.00315410 0.00288480 0.00730930 0.00755450 0.01897850 0.00255481 0.00229170 0.06351465 0.01063078 0.01089081 0.01457743 0.00105894 
0.01695602 0.03927143 0.00708924 0.00142354 0.00317326 0.00291701 0.00740598 0.00757085 0.01869538 0.00255995 0.00229024 0.06188813 0.01058153 0.01085257 0.01448511 0.00104872 
0.01638967 0.04021024 0.00690701 0.00138295 0.00318729 0.00294934 0.00750259 0.00758152 0.01841146 0.00256472 0.00228753 0.06020367 0.01053376 0.01080693 0.01438451 0.00103898 
0.01585083 0.04112770 0.00671715 0.00134441 0.00319618 0.00298165 0.00759879 0.00758654 0.01812740 0.00256910 0.00228367 0.05847149 0.01048749 0.01075431 0.01427640 0.00102979 
0.01534050 0.04201855 0.00652057 0.00130806 0.00319988 0.00301379 0.00769418 0.00758599 0.01784386 0.00257305 0.00227872 0.05670204 0.01044270 0.01069513 0.01416158 0.00102120 
0.01485962 0.04287773 0.00631827 0.00127402 0.00319842 0.00304563 0.00778838 0.00757995 0.01756155 0.00257655 0.00227279 0.05490596 0.01039939 0.01062985 0.01404086 0.00101327 
0.01440908 0.04370044 0.00611126 0.00124239 0.00319182 0.00307701 0.00788095 0.00756850 0.01728117 0.00257957 0.00226594 0.05309404 0.01035749 0.01055890 0.01391506 0.00100605 
0.01398966 0.04448214 0.00590059 0.00121329 0.00318011 0.00310779 0.00797145 0.00755177 0.01700345 0.00258207 0.00225827 0.05127710 0.01031694 0.01048272 0.01378500 0.00099960 
0.01360212 0.04521862 0.00568733 0.00118682 0.00316337 0.00313782 0.00805943 0.00752987 0.01672915 0.00258402 0.00224987 0.04946596 0.01027766 0.01040177 0.01365152 0.00099397 
0.01324712 0.04590601 0.00547260 0.00116308 0.00314169 0.00316694 0.00814440 0.00750293 0.01645906 0.00258539 0.00224081 0.04767139 0.01023954 0.01031647 0.01351541 0.00098919 
0.01292526 0.04654077 0.00525750 0.00114216 0.00311516 0.00319500 0.00822590 0.00747111 0.01619397 0.00258613 0.00223118 0.04590400 0.01020246 0.01022725 0.01337749 0.00098531 
0.01263706 0.04711979 0.00504316 0.00112415 0.00308391 0.00322187 0.00830343 0.00743457 0.01593471 0.00258623 0.00222107 0.04417421 0.01016629 0.01013455 0.01323854 0.00098238 
0.01238298 0.04764034 0.00483071 0.00110913 0.00304810 0.00324738 0.00837650 0.00739349 0.01568212 0.00258563 0.00221053 0.04249217 0.01013087 0.01003877 0.01309932 0.00098042 
0.01216342 0.04810012 0.00462127 0.00109716 0.00300787 0.00327141 0.00844462 0.00734803 0.01543708 0.00258430 0.00219966 0.04086772 0.01009606 0.00994030 0.01296054 0.00097946 
0.01197869 0.04849727 0.00441596 0.00108832 0.00296342 0.00329381 0.00850730 0.00729841 0.01520048 0.00258222 0.00218852 0.03931031 0.01006166 0.00983953 0.01282291 0.00097954 
0.01182905 0.04883039 0.00421588 0.00108265 0.00291493 0.00331444 0.00856407 0.00724482 0.01497320 0.00257934 0.00217717 0.03782897 0.01002750 0.00973683 0.01268707 0.00098066 
0.01171466 0.04909853 0.00402212 0.00108021 0.00286262 0.00333319 0.00861447 0.00718747 0.01475618 0.00257565 0.00216567 0.03643225 0.00999339 0.00963253 0.01255364 0.00098284 
0.01163563 0.04930120 0.00383573 0.00108103 0.00280672 0.00334993 0.00865803 0.00712659 0.01455035 0.00257110 0.00215408 0.03512815 0.00995914 0.00952698 0.01242317 0.00098610 
0.01159199 0.04943838 0.00365772 0.00108515 0.00274746 0.00336455 0.00869434 0.00706240 0.01435663 0.00256568 0.00214244 0.03392411 0.00992453 0.00942048 0.01229617 0.00099043 
0.01158371 0.04951052 0.00348908 0.00109259 0.00268510 0.00337694 0.00872299 0.00699514 0.01417598 0.00255935 0.00213079 0.03282695 0.00988937 0.00931332 0.01217310 0.00099584 
0.01161067 0.04951853 0.00333075 0.00110337 0.00261990 0.00338700 0.00874361 0.00692503 0.01400935 0.00255210 0.00211918 0.03184284 0.00985346 0.00920577 0.01205437 0.00100232 
0.01167268 0.04946375 0.00318359 0.00111748 0.00255213 0.00339466 0.00875585 0.00685231 0.01385768 0.00254391 0.00210763 0.03097727 0.00981659 0.00909807 0.01194031 0.00100986 
0.01176946 0.04934798 0.00304845 0.00113492 0.00248208 0.00339983 0.00875941 0.00677722 0.01372190 0.00253477 0.00209616 0.03023503 0.00977857 0.00899047 0.01183122 0.00101843 
0.01190069 0.04917345 0.00292609 0.00115569 0.00241004 0.00340246 0.00875402 0.00670001 0.01360295 0.00252466 0.00208479 0.02962016 0.00973921 0.00888315 0.01172731 0.00102802 
0.01206593 0.04894279 0.00281721 0.00117974 0.00233629 0.00340247 0.00873946 0.00662090 0.01350173 0.00251358 0.00207353 0.02913597 0.00969832 0.00877633 0.01162875 0.00103860 
0.01226469 0.04865900 0.00272243 0.00120705 0.00226115 0.00339984 0.00871556 0.00654014 0.01341913 0.00250153 0.00206238 0.02878501 0.00965574 0.00867016 0.01153565 0.00105012 
0.01249638 0.04832548 0.00264231 0.00123758 0.00218491 0.00339453 0.00868218 0.00645794 0.01335601 0.00248850 0.00205134 0.02856904 0.00961130 0.00856480 0.01144806 0.00106256 
0.01276036 0.04794593 0.00257732 0.00127126 0.00210787 0.00338653 0.00863926 0.00637455 0.01331320 0.00247451 0.00204040 0.02848909 0.00956486 0.00846039 0.01136597 0.00107587 
0.01305589 0.04752440 0.00252786 0.00130804 0.00203035 0.00337582 0.00858677 0.00629017 0.01329149 0.00245956 0.00202955 0.02854539 0.00951629 0.00835706 0.01128933 0.00109000 
0.01338213 0.04706520 0.00249423 0.00134784 0.00195265 0.00336243 0.00852476 0.00620503 0.01329163 0.00244368 0.00201877 0.02873743 0.00946548 0.00825490 0.01121801 0.00110489 
0.01373819 0.04657288 0.00247667 0.00139058 0.00187507 0.00334636 0.00845331 0.00611931 0.01331431 0.00242688 0.00200803 0.02906394 0.00941233 0.00815403 0.01115185 0.00112050 
0.01412310 0.04605223 0.00247531 0.00143615 0.00179790 0.00332765 0.00837260 0.00603322 0.01336018 0.00240919 0.00199731 0.02952292 0.00935678 0.00805452 0.01109065 0.00113674 
0.01453577 0.04550818 0.00249018 0.00148446 0.00172145 0.00330635 0.00828283 0.00594693 0.01342981 0.00239064 0.00198658 0.03011167 0.00929877 0.00795644 0.01103417 0.00115357 
0.01497506 0.04494586 0.00252126 0.00153539 0.00164600 0.00328252 0.00818429 0.00586062 0.01352371 0.00237128 0.00197580 0.03082680 0.00923829 0.00785988 0.01098210 0.00117091 
0.01543976 0.04437044 0.00256840 0.00158881 0.00157183 0.00325623 0.00807732 0.00577444 0.01364232 0.00235113 0.00196493 0.03166425 0.00917532 0.00776490 0.01093413 0.00118868 
0.01592854 0.04378722 0.00263138 0.00164459 0.00149921 0.00322757 0.00796232 0.00568854 0.01378602 0.00233025 0.00195393 0.03261935 0.00910991 0.00767154 0.01088993 0.00120683 
0.01644002 0.04320148 0.00270989 0.00170259 0.00142840 0.00319664 0.00783976 0.00560305 0.01395507 0.00230870 0.00194277 0.03368684 0.00904209 0.00757987 0.01084911 0.00122526 
0.01697274 0.04261851 0.00280354 0.00176265 0.00135966 0.00316355 0.00771016 0.00551807 0.01414967 0.00228652 0.00193140 0.03486090 0.00897196 0.00748994 0.01081129 0.00124390 
0.01752515 0.04204355 0.00291184 0.00182460 0.00129322 0.00312841 0.00757410 0.00543373 0.01436992 0.00226378 0.00191978 0.03613523 0.00889962 0.00740180 0.01077608 0.00126267 
0.01809565 0.04148176 0.00303422 0.00188829 0.00122931 0.00309137 0.00743222 0.00535009 0.01461583 0.00224055 0.00190788 0.03750303 0.00882521 0.00731551 0.01074306 0.00128149 
0.01868254 0.04093817 0.00317006 0.00195352 0.00116814 0.00305257 0.00728522 0.00526724 0.01488729 0.00221689 0.00189564 0.03895712 0.00874890 0.00723113 0.01071184 0.00130029 
0.01928408 0.04041763 0.00331862 0.00202011 0.00110992 0.00301216 0.00713384 0.00518523 0.01518412 0.00219289 0.00188303 0.04048993 0.00867087 0.00714872 0.01068202 0.00131898 
0.01989843 0.03992483 0.00347912 0.00208787 0.00105482 0.00297031 0.00697886 0.00510411 0.01550601 0.00216862 0.00187002 0.04209359 0.00859137 0.00706834 0.01065321 0.00133747 
0.02052373 0.03946421 0.00365071 0.00215659 0.00100301 0.00292720 0.00682113 0.00502390 0.01585255 0.00214417 0.00185658 0.04375996 0.00851063 0.00699006 0.01062502 0.00135570 
0.02115804 0.03903994 0.00383248 0.00222607 0.00095465 0.00288300 0.00666151 0.00494464 0.01622321 0.00211963 0.00184268 0.04548069 0.00842893 0.00691396 0.01059712 0.00137358 
0.02179937 0.03865592 0.00402345 0.00229609 0.00090987 0.00283791 0.00650092 0.00486631 0.01661737 0.00209507 0.00182830 0.04724727 0.00834659 0.00684012 0.01056917 0.00139105 
0.02244568 0.03831571 0.00422261 0.00236644 0.00086879 0.00279212 0.00634030 0.00478892 0.01703429 0.00207061 0.00181342 0.04905109 0.00826393 0.00676863 0.01054089 0.00140802 
0.02309490 0.03802254 0.00442890 0.00243688 0.00083151 0.00274584 0.00618061 0.00471246 0.01747311 0.00204633 0.00179803 0.05088349 0.00818129 0.00669958 0.01051201 0.00142442 
0.02374491 0.03777927 0.00464121 0.00250721 0.00079811 0.00269927 0.00602283 0.00463689 0.01793286 0.00202232 0.00178212 0.05273581 0.00809907 0.00663309 0.01048230 0.00144019 
0.02439359 0.03758837 0.00485842 0.00257718 0.00076867 0.00265263 0.00586797 0.00456220 0.01841248 0.00199870 0.00176569 0.05459943 0.00801766 0.00656926 0.01045161 0.00145527 
0.02503875 0.03745189 0.00507939 0.00264657 0.00074322 0.00260613 0.00571704 0.00448834 0.01891079 0.00197556 0.00174875 0.05646586 0.00793747 0.00650820 0.01041979 0.00146959 
0.02567824 0.03737148 0.00530294 0.00271514 0.00072180 0.00255999 0.00557104 0.00441528 0.01942649 0.00195300 0.00173132 0.05832676 0.00785894 0.00645004 0.01038677 0.00148310 
0.02630987 0.03734834 0.00552790 0.00278268 0.00070443 0.00251443 0.00543099 0.00434297 0.01995821 0.00193112 0.00171342 0.06017396 0.00778252 0.00639490 0.01035251 0.00149575 
0.02693146 0.03738324 0.00575309 0.00284894 0.00069110 0.00246968 0.00529788 0.00427138 0.02050446 0.00191004 0.00169507 0.06199959 0.00770866 0.00634292 0.01031705 0.00150748 
0.02754084 0.03747651 0.00597736 0.00291370 0.00068179 0.00242594 0.00517269 0.00420046 0.02106366 0.00188983 0.00167633 0.06379603 0.00763785 0.00629422 0.01028046 0.00151826 
0.02813584 0.03762802 0.00619954 0.00297674 0.00067647 0.00238345 0.00505640 0.00413018 0.02163415 0.00187062 0.00165722 0.06555600 0.00757055 0.00624895 0.01024287 0.00152804 
0.02871436 0.03783720 0.00641849 0.00303783 0.00067508 0.00234241 0.00494992 0.00406051 0.02221418 0.00185250 0.00163782 0.06727261 0.00750724 0.00620723 0.01020448 0.00153681 
0.02927430 0.03810302 0.00663312 0.00309678 0.00067756 0.00230305 0.00485416 0.00399142 0.02280193 0.00183556 0.00161817 0.06893936 0.00744843 0.00616922 0.01016553 0.00154452 
0.02981361 0.03842404 0.00684236 0.00315336 0.00068382 0.00226556 0.00476998 0.00392291 0.02339549 0.00181990 0.00159835 0.07055019 0.00739458 0.00613503 0.01012632 0.00155116 
0.03033031 0.03879838 0.00704516 0.00320739 0.00069377 0.00223015 0.00469818 0.00385498 0.02399293 0.00180561 0.00157843 0.07209950 0.00734619 0.00610480 0.01008720 0.00155671 
0.03082247 0.03922375 0.00724056 0.00325868 0.00070729 0.00219702 0.00463954 0.00378763 0.02459222 0.00179279 0.00155849 0.07358221 0.00730371 0.00607865 0.01004857 0.00156116 
0.03128823 0.03969746 0.00742763 0.00330703 0.00072427 0.00216636 0.00459475 0.00372090 0.02519132 0.00178151 0.00153864 0.07499372 0.00726763 0.00605671 0.01001089 0.00156451 
0.03172582 0.04021645 0.00760550 0.00335230 0.00074457 0.00213835 0.00456445 0.00365484 0.02578812 0.00177185 0.00151895 0.07632999 0.00723837 0.00603908 0.00997464 0.00156675 
0.03213357 0.04077732 0.00777336 0.00339432 0.00076804 0.00211316 0.00454922 0.00358950 0.02638051 0.00176390 0.00149954 0.07758751 0.00721639 0.00602587 0.00994036 0.00156790 
0.03250988 0.04137630 0.00793049 0.00343296 0.00079452 0.00209096 0.00454957 0.00352499 0.02696635 0.00175772 0.00148051 0.07876336 0.00720208 0.00601715 0.00990862 0.00156795 
0.03285330 0.04200935 0.00807623 0.00346808 0.00082386 0.00207191 0.00456591 0.00346140 0.02754347 0.00175339 0.00146197 0.07985516 0.00719585 0.00601300 0.00988002 0.00156694 
0.03316245 0.04267214 0.00821000 0.00349958 0.00085588 0.00205613 0.00459860 0.00339887 0.02810974 0.00175095 0.00144404 0.08086111 0.00719805 0.00601348 0.00985519 0.00156488 
0.03343611 0.04336010 0.00833130 0.00352737 0.00089038 0.00204377 0.00464790 0.00333756 0.02866301 0.00175046 0.00142682 0.08177999 0.00720903 0.00601864 0.00983478 0.00156179 
0.03367318 0.04406844 0.00843972 0.00355135 0.00092720 0.00203493 0.00471401 0.00327764 0.02920116 0.00175197 0.00141045 0.08261113 0.00722908 0.00602849 0.00981946 0.00155771 
0.03387269 0.04479220 0.00853494 0.00357149 0.00096613 0.00202973 0.00479700 0.00321934 0.02972210 0.00175552 0.00139504 0.08335446 0.00725848 0.00604305 0.00980990 0.00155268 
0.03403383 0.04552626 0.00861672 0.00358773 0.00100697 0.00202825 0.00489688 0.00316289 0.03022376 0.00176114 0.00138072 0.08401042 0.00729746 0.00606229 0.00980678 0.00154672 
0.03415592 0.04626541 0.00868491 0.00360006 0.00104952 0.00203058 0.00501358 0.00310854 0.03070416 0.00176886 0.00136759 0.08458002 0.00734621 0.00608618 0.00981077 0.00153989 
0.03423846 0.04700436 0.00873945 0.00360847 0.00109357 0.00203676 0.00514690 0.00305658 0.03116135 0.00177868 0.00135579 0.08506477 0.00740489 0.00611467 0.00982255 0.00153224 
0.03428109 0.04773777 0.00878037 0.00361299 0.00113893 0.00204685 0.00529660 0.00300734 0.03159344 0.00179063 0.00134542 0.08546671 0.00747359 0.00614766 0.00984275 0.00152381 
0.03428361 0.04846031 0.00880781 0.00361365 0.00118538 0.00206089 0.00546231 0.00296116 0.03199866 0.00180471 0.00133659 0.08578834 0.00755238 0.00618505 0.00987201 0.00151466 
0.03424601 0.04916671 0.00882195 0.00361052 0.00123271 0.00207887 0.00564358 0.00291839 0.03237528 0.00182090 0.00132942 0.08603261 0.00764127 0.00622670 0.00991093 0.00150484 
0.03416844 0.04985173 0.00882311 0.00360367 0.00128071 0.00210082 0.00583989 0.00287943 0.03272169 0.00183918 0.00132400 0.08620293 0.00774023 0.00627248 0.00996006 0.00149442 
0.03405119 0.05051029 0.00881165 0.00359321 0.00132919 0.00212670 0.00605060 0.00284469 0.03303640 0.00185955 0.00132044 0.08630307 0.00784916 0.00632218 0.01001992 0.00148345 
0.03389475 0.05113741 0.00878804 0.00357925 0.00137793 0.00215648 0.00627503 0.00281461 0.03331799 0.00188196 0.00131880 0.08633719 0.00796793 0.00637561 0.01009098 0.00147199 
0.03369978 0.05172834 0.00875280 0.00356195 0.00142675 0.00219012 0.00651237 0.00278962 0.03356520 0.00190637 0.00131918 0.08630978 0.00809634 0.00643255 0.01017365 0.00146012 
0.03346708 0.05227849 0.00870653 0.00354145 0.00147544 0.00222756 0.00676179 0.00277021 0.03377688 0.00193273 0.00132163 0.08622561 0.00823415 0.00649273 0.01026830 0.00144789 
0.03319765 0.05278356 0.00864993 0.00351794 0.00152382 0.00226871 0.00702233 0.00275684 0.03395201 0.00196099 0.00132623 0.08608973 0.00838105 0.00655590 0.01037522 0.00143538 
0.03289261 0.05323951 0.00858370 0.00349162 0.00157170 0.00231347 0.00729301 0.00275001 0.03408971 0.00199108 0.00133301 0.08590741 0.00853670 0.00662174 0.01049461 0.00142264 
0.03255327 0.05364260 0.00850866 0.00346271 0.00161890 0.00236175 0.00757277 0.00275021 0.03418926 0.00202292 0.00134200 0.08568409 0.00870069 0.00668995 0.01062664 0.00140975 
0.03218107 0.05398942 0.00842563 0.00343143 0.00166526 0.00241340 0.00786048 0.00275795 0.03425005 0.00205644 0.00135323 0.08542536 0.00887256 0.00676018 0.01077136 0.00139677 
0.03177761 0.05427692 0.00833551 0.00339802 0.00171061 0.00246829 0.00815497 0.00277373 0.03427166 0.00209153 0.00136670 0.08513693 0.00905181 0.00683210 0.01092877 0.00138376 
0.03134462 0.05450242 0.00823922 0.00336276 0.00175479 0.00252627 0.00845503 0.00279805 0.03425381 0.00212812 0.00138241 0.08482456 0.00923787 0.00690533 0.01109876 0.00137080 
0.03088396 0.05466364 0.00813771 0.00332591 0.00179766 0.00258716 0.00875940 0.00283140 0.03419638 0.00216608 0.00140034 0.08449404 0.00943015 0.00697949 0.01128115 0.00135794 
0.03039761 0.05475868 0.00803197 0.00328776 0.00183909 0.00265079 0.00906680 0.00287426 0.03409938 0.00220531 0.00142045 0.08415115 0.00962799 0.00705418 0.01147567 0.00134524 
0.02988766 0.05478612 0.00792299 0.00324859 0.00187894 0.00271696 0.00937592 0.00292710 0.03396303 0.00224570 0.00144268 0.08380162 0.00983071 0.00712901 0.01168196 0.00133277 
0.02935631 0.05474491 0.00781179 0.00320872 0.00191709 0.00278547 0.00968542 0.00299037 0.03378766 0.00228711 0.00146696 0.08345108 0.01003756 0.00720357 0.01189958 0.00132058 
0.02880585 0.05463449 0.00769937 0.00316844 0.00195343 0.00285610 0.00999396 0.00306449 0.03357379 0.00232943 0.00149322 0.08310507 0.01024777 0.00727743 0.01212797 0.00130873 
0.02823865 0.05445473 0.00758674 0.00312807 0.00198788 0.00292863 0.01030020 0.00314986 0.03332207 0.00237251 0.00152136 0.08276893 0.01046054 0.00735019 0.01236653 0.00129727 
0.02765714 0.05420592 0.00747491 0.00308793 0.00202033 0.00300281 0.01060280 0.00324684 0.03303333 0.00241621 0.00155125 0.08244783 0.01067504 0.00742142 0.01261453 0.00128626 
0.02706380 0.05388885 0.00736485 0.00304833 0.00205071 0.00307841 0.01090043 0.00335578 0.03270853 0.00246040 0.00158276 0.08214672 0.01089039 0.00749071 0.01287119 0.00127573 
0.02646118 0.05350470 0.00725753 0.00300958 0.00207894 0.00315518 0.01119177 0.00347695 0.03234878 0.00250492 0.00161576 0.08187029 0.01110571 0.00755765 0.01313564 0.00126573 
0.02585184 0.05305511 0.00715386 0.00297200 0.00210498 0.00323286 0.01147555 0.00361061 0.03195533 0.00254962 0.00165008 0.08162295 0.01132010 0.00762185 0.01340693 0.00125630 
0.02523836 0.05254215 0.00705474 0.00293590 0.00212877 0.00331119 0.01175049 0.00375695 0.03152958 0.00259437 0.00168554 0.08140883 0.01153263 0.00768290 0.01368404 0.00124749 
0.02462332 0.05196828 0.00696102 0.00290156 0.00215027 0.00338989 0.01201540 0.00391613 0.03107305 0.00263899 0.00172195 0.08123170 0.01174239 0.00774043 0.01396588 0.00123932 
0.02400931 0.05133638 0.00687351 0.00286930 0.00216946 0.00346871 0.01226909 0.00408824 0.03058736 0.00268333 0.00175912 0.08109499 0.01194842 0.00779407 0.01425133 0.00123182 
0.02339887 0.05064969 0.00679294 0.00283938 0.00218631 0.00354736 0.01251046 0.00427332 0.03007430 0.00272724 0.00179682 0.08100180 0.01214981 0.00784349 0.01453917 0.00122503 
0.02279452 0.04991181 0.00672001 0.00281208 0.00220082 0.00362558 0.01273843 0.00447135 0.02953572 0.00277057 0.00183485 0.08095482 0.01234562 0.00788836 0.01482816 0.00121895 
0.02219873 0.04912669 0.00665536 0.00278766 0.00221299 0.00370309 0.01295202 0.00468224 0.02897360 0.00281316 0.00187295 0.08095635 0.01253494 0.00792837 0.01511703 0.00121361 
0.02161390 0.04829855 0.00659955 0.00276635 0.00222283 0.00377962 0.01315030 0.00490584 0.02839000 0.00285485 0.00191089 0.08100832 0.01271686 0.00796324 0.01540447 0.00120903 
0.02104236 0.04743194 0.00655308 0.00274839 0.00223035 0.00385490 0.01333240 0.00514195 0.02778705 0.00289550 0.00194843 0.08111222 0.01289050 0.00799274 0.01568912 0.00120522 
0.02048636 0.04653164 0.00651637 0.00273397 0.00223558 0.00392867 0.01349756 0.00539026 0.02716698 0.00293495 0.00198530 0.08126916 0.01305501 0.00801662 0.01596966 0.00120217 
0.01994803 0.04560263 0.00648980 0.00272329 0.00223855 0.00400066 0.01364508 0.00565044 0.02653208 0.00297307 0.00202124 0.08147983 0.01320957 0.00803471 0.01624471 0.00119989 
0.01942942 0.04465012 0.00647363 0.00271651 0.00223931 0.00407062 0.01377436 0.00592206 0.02588467 0.00300971 0.00205600 0.08174452 0.01335338 0.00804683 0.01651292 0.00119839 
0.01893244 0.04367944 0.00646808 0.00271377 0.00223790 0.00413829 0.01388486 0.00620462 0.02522713 0.00304474 0.00208932 0.08206313 0.01348570 0.00805287 0.01677296 0.00119765 
0.01845886 0.04269608 0.00647329 0.00271521 0.00223437 0.00420345 0.01397616 0.00649757 0.02456188 0.00307803 0.00212092 0.08243513 0.01360584 0.00805273 0.01702351 0.00119767 
0.01801035 0.04170558 0.00648931 0.00272090 0.00222879 0.00426584 0.01404792 0.00680028 0.02389136 0.00310945 0.00215056 0.08285965 0.01371315 0.00804636 0.01726328 0.00119843 
0.01758839 0.04071355 0.00651614 0.00273094 0.00222123 0.00432527 0.01409989 0.00711205 0.02321800 0.00313889 0.00217797 0.08333543 0.01380702 0.00803372 0.01749102 0.00119992 
0.01719432 0.03972562 0.00655370 0.00274536 0.00221175 0.00438150 0.01413192 0.00743213 0.02254427 0.00316624 0.00220291 0.08386086 0.01388694 0.00801484 0.01770555 0.00120211 
0.01682933 0.03874738 0.00660182 0.00276420 0.00220043 0.00443435 0.01414397 0.00775967 0.02187260 0.00319141 0.00222514 0.08443399 0.01395244 0.00798976 0.01790572 0.00120498 
0.01649444 0.03778439 0.00666030 0.00278746 0.00218736 0.00448362 0.01413605 0.00809381 0.02120541 0.00321429 0.00224444 0.08505257 0.01400310 0.00795858 0.01809046 0.00120851 
0.01619048 0.03684209 0.00672885 0.00281510 0.00217261 0.00452914 0.01410830 0.00843360 0.02054510 0.00323481 0.00226058 0.08571401 0.01403862 0.00792143 0.01825879 0.00121266 
0.01591813 0.03592582 0.00680713 0.00284708 0.00215627 0.00457076 0.01406095 0.00877805 0.01989401 0.00325290 0.00227336 0.08641550 0.01405872 0.00787846 0.01840979 0.00121740 
0.01567787 0.03504075 0.00689475 0.00288332 0.00213844 0.00460833 0.01399430 0.00912611 0.01925445 0.00326849 0.00228259 0.08715394 0.01406323 0.00782987 0.01854266 0.00122269 
0.01547002 0.03419185 0.00699124 0.00292373 0.00211921 0.00464172 0.01390876 0.00947669 0.01862867 0.00328153 0.00228811 0.08792603 0.01405207 0.00777590 0.01865668 0.00122850 
0.01529470 0.03338388 0.00709613 0.00296818 0.00209866 0.00467082 0.01380479 0.00982866 0.01801883 0.00329198 0.00228976 0.08872826 0.01402520 0.00771681 0.01875124 0.00123478 
0.01515187 0.03262134 0.00720886 0.00301652 0.00207691 0.00469554 0.01368297 0.01018087 0.01742705 0.00329982 0.00228742 0.08955695 0.01398270 0.00765292 0.01882584 0.00124149 
0.01504131 0.03190845 0.00732887 0.00306860 0.00205403 0.00471580 0.01354394 0.01053212 0.01685531 0.00330503 0.00228099 0.09040830 0.01392473 0.00758454 0.01888011 0.00124857 
0.01496261 0.03124912 0.00745556 0.00312421 0.00203015 0.00473153 0.01338839 0.01088119 0.01630555 0.00330760 0.00227037 0.09127837 0.01385151 0.00751206 0.01891380 0.00125600 
0.01491519 0.03064694 0.00758829 0.00318315 0.00200534 0.00474271 0.01321712 0.01122687 0.01577958 0.00330755 0.00225552 0.09216316 0.01376337 0.00743586 0.01892677 0.00126370 
0.01489833 0.03010513 0.00772642 0.00324521 0.00197971 0.00474929 0.01303097 0.01156790 0.01527911 0.00330489 0.00223640 0.09305860 0.01366072 0.00735637 0.01891903 0.00127164 
0.01491112 0.02962655 0.00786929 0.00331013 0.00195336 0.00475129 0.01283083 0.01190304 0.01480571 0.00329965 0.00221303 0.09396060 0.01354405 0.00727402 0.01889071 0.00127976 
0.01495250 0.02921368 0.00801623 0.00337765 0.00192639 0.00474872 0.01261765 0.01223107 0.01436086 0.00329189 0.00218542 0.09486508 0.01341393 0.00718930 0.01884208 0.00128800 
0.01502127 0.02886858 0.00816659 0.00344751 0.00189889 0.00474160 0.01239243 0.01255074 0.01394590 0.00328166 0.00215364 0.09576798 0.01327103 0.00710269 0.01877355 0.00129631 
0.01511609 0.02859291 0.00831970 0.00351942 0.00187095 0.00472999 0.01215622 0.01286084 0.01356203 0.00326903 0.00211779 0.09666533 0.01311607 0.00701469 0.01868564 0.00130464 
0.01523548 0.02838789 0.00847490 0.00359309 0.00184268 0.00471395 0.01191007 0.01316020 0.01321031 0.00325409 0.00207798 0.09755321 0.01294987 0.00692584 0.01857904 0.00131293 
0.01537784 0.02825434 0.00863159 0.00366822 0.00181416 0.00469359 0.01165509 0.01344765 0.01289168 0.00323692 0.00203437 0.09842783 0.01277331 0.00683667 0.01845453 0.00132113 
0.01554148 0.02819262 0.00878913 0.00374450 0.00178548 0.00466899 0.01139240 0.01372208 0.01260691 0.00321765 0.00198714 0.09928553 0.01258735 0.00674773 0.01831306 0.00132917 
0.01572460 0.02820268 0.00894696 0.00382161 0.00175674 0.00464029 0.01112314 0.01398242 0.01235663 0.00319638 0.00193653 0.10012282 0.01239300 0.00665957 0.01815566 0.00133701 
0.01592529 0.02828403 0.00910454 0.00389925 0.00172802 0.00460761 0.01084845 0.01422765 0.01214132 0.00317324 0.00188277 0.10093637 0.01219135 0.00657276 0.01798351 0.00134458 
0.01614158 0.02843576 0.00926134 0.00397708 0.00169940 0.00457113 0.01056948 0.01445681 0.01196132 0.00314839 0.00182617 0.10172305 0.01198353 0.00648785 0.01779789 0.00135184 
0.01637146 0.02865654 0.00941692 0.00405481 0.00167097 0.00453100 0.01028738 0.01466901 0.01181680 0.00312195 0.00176702 0.10247997 0.01177073 0.00640540 0.01760019 0.00135874 
0.01661283 0.02894467 0.00957084 0.00413212 0.00164281 0.00448741 0.01000329 0.01486341 0.01170779 0.00309411 0.00170567 0.10320444 0.01155418 0.00632598 0.01739190 0.00136521 
0.01686359 0.02929801 0.00972274 0.00420869 0.00161498 0.00444057 0.00971832 0.01503928 0.01163416 0.00306501 0.00164251 0.10389403 0.01133514 0.00625012 0.01717459 0.00137122 
0.01712157 0.02971408 0.00987230 0.00428424 0.00158758 0.00439067 0.00943359 0.01519592 0.01159563 0.00303484 0.00157793 0.10454655 0.01111492 0.00617837 0.01694992 0.00137671 
0.01738464 0.03019005 0.01001926 0.00435846 0.00156066 0.00433796 0.00915016 0.01533277 0.01159177 0.00300379 0.00151236 0.10516010 0.01089485 0.00611126 0.01671962 0.00138165 
0.01765063 0.03072273 0.01016341 0.00443108 0.00153430 0.00428265 0.00886907 0.01544932 0.01162202 0.00297203 0.00144626 0.10573302 0.01067625 0.00604929 0.01648548 0.00138597 
0.01791741 0.03130866 0.01030460 0.00450183 0.00150857 0.00422501 0.00859135 0.01554516 0.01168566 0.00293976 0.00138009 0.10626394 0.01046050 0.00599295 0.01624933 0.00138965 
0.01818288 0.03194407 0.01044273 0.00457044 0.00148352 0.00416527 0.00831795 0.01561999 0.01178182 0.00290719 0.00131437 0.10675176 0.01024894 0.00594271 0.01601306 0.00139265 
0.01844497 0.03262492 0.01057778 0.00463668 0.00145922 0.00410370 0.00804980 0.01567358 0.01190952 0.00287450 0.00124959 0.10719566 0.01004293 0.00589902 0.01577858 0.00139493 
0.01870167 0.03334698 0.01070977 0.00470033 0.00143573 0.00404056 0.00778778 0.01570582 0.01206763 0.00284191 0.00118631 0.10759509 0.00984381 0.00586229 0.01554779 0.00139646 
0.01895104 0.03410580 0.01083878 0.00476116 0.00141310 0.00397613 0.00753271 0.01571670 0.01225490 0.00280962 0.00112505 0.10794978 0.00965289 0.00583290 0.01532261 0.00139721 
0.01919122 0.03489676 0.01096494 0.00481899 0.00139139 0.00391069 0.00728535 0.01570628 0.01246996 0.00277783 0.00106637 0.10825970 0.00947148 0.00581122 0.01510496 0.00139716 
0.01942044 0.03571511 0.01108844 0.00487364 0.00137065 0.00384451 0.00704642 0.01567476 0.01271133 0.00274674 0.00101084 0.10852509 0.00930084 0.00579757 0.01489671 0.00139628 
0.01963703 0.03655601 0.01120952 0.00492497 0.00135091 0.00377786 0.00681657 0.01562242 0.01297740 0.00271656 0.00095903 0.10874642 0.00914217 0.00579222 0.01469972 0.00139456 
0.01983944 0.03741454 0.01132847 0.00497283 0.00133223 0.00371104 0.00659637 0.01554961 0.01326650 0.00268748 0.00091149 0.10892441 0.00899664 0.00579542 0.01451577 0.00139198 
0.02002623 0.03828574 0.01144561 0.00501711 0.00131466 0.00364431 0.00638636 0.01545682 0.01357683 0.00265969 0.00086881 0.10905998 0.00886536 0.00580737 0.01434660 0.00138853 
0.02019611 0.03916466 0.01156131 0.00505773 0.00129822 0.00357794 0.00618700 0.01534461 0.01390654 0.00263339 0.00083153 0.10915426 0.00874938 0.00582824 0.01419386 0.00138422 
0.02034791 0.04004639 0.01167596 0.00509461 0.00128295 0.00351221 0.00599867 0.01521362 0.01425367 0.00260874 0.00080021 0.10920856 0.00864966 0.00585815 0.01405912 0.00137903 
0.02048063 0.04092607 0.01179000 0.00512771 0.00126889 0.00344739 0.00582169 0.01506458 0.01461622 0.00258592 0.00077540 0.10922435 0.00856710 0.00589717 0.01394386 0.00137297 
0.02059342 0.04179894 0.01190387 0.00515698 0.00125608 0.00338371 0.00565634 0.01489830 0.01499212 0.00256509 0.00075761 0.10920326 0.00850252 0.00594533 0.01384943 0.00136605 
0.02068558 0.04266040 0.01201805 0.00518244 0.00124453 0.00332144 0.00550279 0.01471566 0.01537927 0.00254640 0.00074734 0.10914703 0.00845662 0.00600261 0.01377706 0.00135829 
0.02075657 0.04350597 0.01213303 0.00520408 0.00123427 0.00326081 0.00536117 0.01451762 0.01577550 0.00253000 0.00074509 0.10905753 0.00843004 0.00606895 0.01372787 0.00134969 
0.02080605 0.04433139 0.01224927 0.00522195 0.00122533 0.00320205 0.00523156 0.01430519 0.01617864 0.00251600 0.00075130 0.10893670 0.00842331 0.00614423 0.01370282 0.00134028 
0.02083383 0.04513261 0.01236728 0.00523610 0.00121773 0.00314537 0.00511394 0.01407944 0.01658649 0.00250453 0.00076641 0.10878655 0.00843684 0.00622829 0.01370273 0.00133009 
0.02083990 0.04590582 0.01248752 0.00524659 0.00121148 0.00309098 0.00500826 0.01384149 0.01699685 0.00249568 0.00079079 0.10860912 0.00847095 0.00632093 0.01372826 0.00131914 
0.02082443 0.04664748 0.01261047 0.00525352 0.00120660 0.00303907 0.00491439 0.01359250 0.01740751 0.00248954 0.00082483 0.10840650 0.00852585 0.00642190 0.01377991 0.00130748 
0.02078775 0.04735436 0.01273657 0.00525700 0.00120309 0.00298980 0.00483215 0.01333365 0.01781630 0.00248618 0.00086882 0.10818075 0.00860163 0.00653089 0.01385801 0.00129514 
0.02073039 0.04802351 0.01286623 0.00525715 0.00120098 0.00294334 0.00476132 0.01306618 0.01822103 0.00248566 0.00092305 0.10793394 0.00869825 0.00664756 0.01396272 0.00128215 
0.02065303 0.04865232 0.01299985 0.00525411 0.00120027 0.00289982 0.00470160 0.01279132 0.01861960 0.00248800 0.00098775 0.10766809 0.00881559 0.00677152 0.01409403 0.00126858 
0.02055654 0.04923855 0.01313777 0.00524802 0.00120095 0.00285938 0.00465267 0.01251034 0.01900991 0.00249324 0.00106311 0.10738515 0.00895339 0.00690235 0.01425173 0.00125448 
0.02044193 0.04978028 0.01328029 0.00523906 0.00120302 0.00282212 0.00461415 0.01222447 0.01938993 0.00250137 0.00114926 0.10708703 0.00911126 0.00703957 0.01443547 0.00123988 
0.02031039 0.05027598 0.01342766 0.00522741 0.00120650 0.00278812 0.00458562 0.01193499 0.01975770 0.00251238 0.00124628 0.10677551 0.00928872 0.00718269 0.01464469 0.00122486 
0.02016326 0.05072447 0.01358009 0.00521323 0.00121136 0.00275745 0.00456661 0.01164313 0.02011133 0.00252624 0.00135422 0.10645231 0.00948516 0.00733114 0.01487867 0.00120948 
0.02000202 0.05112498 0.01373771 0.00519675 0.00121760 0.00273017 0.00455664 0.01135013 0.02044902 0.00254289 0.00147305 0.10611899 0.00969985 0.00748436 0.01513650 0.00119380 
0.01982828 0.05147710 0.01390060 0.00517814 0.00122521 0.00270631 0.00455519 0.01105717 0.02076907 0.00256228 0.00160269 0.10577701 0.00993197 0.00764175 0.01541711 0.00117789 
0.01964380 0.05178080 0.01406876 0.00515763 0.00123417 0.00268587 0.00456170 0.01076544 0.02106987 0.00258431 0.00174300 0.10542768 0.01018059 0.00780266 0.01571928 0.00116181 
0.01945044 0.05203643 0.01424212 0.00513543 0.00124447 0.00266885 0.00457561 0.01047606 0.02134992 0.00260889 0.00189381 0.10507217 0.01044465 0.00796643 0.01604160 0.00114565 
0.01925018 0.05224471 0.01442055 0.00511174 0.00125607 0.00265522 0.00459632 0.01019013 0.02160786 0.00263589 0.00205486 0.10471149 0.01072301 0.00813240 0.01638254 0.00112946 
0.01904509 0.05240671 0.01460385 0.00508680 0.00126897 0.00264494 0.00462322 0.00990868 0.02184243 0.00266519 0.00222585 0.10434650 0.01101445 0.00829985 0.01674039 0.00111334 
0.01883731 0.05252387 0.01479170 0.00506081 0.00128313 0.00263794 0.00465570 0.00963268 0.02205255 0.00269664 0.00240641 0.10397790 0.01131764 0.00846809 0.01711335 0.00109735 
0.01862906 0.05259795 0.01498376 0.00503400 0.00129852 0.00263414 0.00469313 0.00936308 0.02223723 0.00273006 0.00259614 0.10360623 0.01163118 0.00863639 0.01749947 0.00108157 
0.01842264 0.05263103 0.01517956 0.00500657 0.00131510 0.00263343 0.00473489 0.00910073 0.02239566 0.00276530 0.00279456 0.10323187 0.01195358 0.00880402 0.01789670 0.00106608 
0.01822034 0.05262547 0.01537860 0.00497874 0.00133284 0.00263570 0.00478036 0.00884641 0.02252718 0.00280214 0.00300115 0.10285508 0.01228330 0.00897026 0.01830287 0.00105096 
0.01802452 0.05258395 0.01558026 0.00495072 0.00135171 0.00264082 0.00482891 0.00860085 0.02263128 0.00284041 0.00321534 0.10247594 0.01261874 0.00913438 0.01871575 0.00103628 
0.01783753 0.05250937 0.01578388 0.00492270 0.00137165 0.00264864 0.00487992 0.00836470 0.02270762 0.00287988 0.00343649 0.10209440 0.01295823 0.00929567 0.01913303 0.00102212 
0.01766173 0.05240487 0.01598871 0.00489487 0.00139262 0.00265899 0.00493281 0.00813854 0.02275603 0.00292033 0.00366395 0.10171031 0.01330008 0.00945341 0.01955233 0.00100855 
0.01749944 0.05227382 0.01619393 0.00486742 0.00141457 0.00267169 0.00498699 0.00792284 0.02277649 0.00296155 0.00389700 0.10132338 0.01364255 0.00960691 0.01997124 0.00099565 
0.01735296 0.05211973 0.01639868 0.00484053 0.00143745 0.00268656 0.00504189 0.00771805 0.02276916 0.00300329 0.00413488 0.10093322 0.01398388 0.00975550 0.02038732 0.00098349 
0.01722453 0.05194629 0.01660200 0.00481435 0.00146121 0.00270339 0.00509696 0.00752448 0.02273439 0.00304531 0.00437680 0.10053938 0.01432228 0.00989852 0.02079811 0.00097214 
0.01711634 0.05175730 0.01680292 0.00478904 0.00148579 0.00272198 0.00515169 0.00734242 0.02267266 0.00308739 0.00462193 0.10014131 0.01465598 0.01003536 0.02120116 0.00096165 
0.01703046 0.05155664 0.01700038 0.00476475 0.00151113 0.00274210 0.00520558 0.00717203 0.02258465 0.00312926 0.00486943 0.09973844 0.01498319 0.01016540 0.02159403 0.00095210 
0.01696890 0.05134827 0.01719330 0.00474160 0.00153717 0.00276353 0.00525817 0.00701344 0.02247120 0.00317070 0.00511841 0.09933016 0.01530214 0.01028811 0.02197434 0.00094354 
0.01693353 0.05113618 0.01738056 0.00471970 0.00156385 0.00278603 0.00530903 0.00686668 0.02233331 0.00321145 0.00536798 0.09891583 0.01561109 0.01040294 0.02233972 0.00093602 
0.01692611 0.05092436 0.01756101 0.00469916 0.00159110 0.00280937 0.00535777 0.00673172 0.02217216 0.00325128 0.00561720 0.09849483 0.01590832 0.01050943 0.02268790 0.00092961 
0.01694825 0.05071675 0.01773346 0.00468007 0.00161885 0.00283331 0.00540401 0.00660845 0.02198905 0.00328996 0.00586515 0.09806659 0.01619215 0.01060712 0.02301668 0.00092433 
0.01700139 0.05051725 0.01789674 0.00466250 0.00164704 0.00285760 0.00544744 0.00649671 0.02178547 0.00332725 0.00611090 0.09763057 0.01646096 0.01069564 0.02332394 0.00092023 
0.01708681 0.05032968 0.01804965 0.00464651 0.00167558 0.00288200 0.00548777 0.00639626 0.02156304 0.00336294 0.00635350 0.09718629 0.01671318 0.01077464 0.02360770 0.00091735 
0.01720563 0.05015773 0.01819100 0.00463215 0.00170442 0.00290628 0.00552475 0.00630683 0.02132351 0.00339682 0.00659202 0.09673340 0.01694731 0.01084382 0.02386608 0.00091571 
0.01735876 0.05000496 0.01831959 0.00461944 0.00173348 0.00293019 0.00555818 0.00622807 0.02106876 0.00342867 0.00682553 0.09627163 0.01716194 0.01090296 0.02409735 0.00091534 
0.01754689 0.04987475 0.01843427 0.00460841 0.00176268 0.00295351 0.00558789 0.00615960 0.02080081 0.00345833 0.00705311 0.09580086 0.01735574 0.01095188 0.02429991 0.00091626 
0.01777054 0.04977030 0.01853389 0.00459905 0.00179194 0.00297601 0.00561376 0.00610099 0.02052177 0.00348560 0.00727387 0.09532111 0.01752745 0.01099044 0.02447234 0.00091847 
0.01802999 0.04969461 0.01861736 0.00459134 0.00182120 0.00299747 0.00563570 0.00605176 0.02023386 0.00351033 0.00748692 0.09483259 0.01767593 0.01101858 0.02461338 0.00092198 
0.01832529 0.04965042 0.01868361 0.00458527 0.00185037 0.00301768 0.00565368 0.00601143 0.01993937 0.00353237 0.00769143 0.09433567 0.01780016 0.01103630 0.02472194 0.00092679 
0.01865628 0.04964025 0.01873164 0.00458079 0.00187937 0.00303644 0.00566768 0.00597945 0.01964071 0.00355160 0.00788657 0.09383093 0.01789921 0.01104365 0.02479713 0.00093289 
0.01902254 0.04966634 0.01876049 0.00457785 0.00190814 0.00305356 0.00567775 0.00595528 0.01934030 0.00356790 0.00807156 0.09331918 0.01797227 0.01104072 0.02483824 0.00094026 
0.01942345 0.04973066 0.01876929 0.00457638 0.00193659 0.00306887 0.00568397 0.00593835 0.01904066 0.00358118 0.00824568 0.09280144 0.01801868 0.01102770 0.02484478 0.00094888 
0.01985813 0.04983488 0.01875723 0.00457630 0.00196464 0.00308220 0.00568645 0.00592808 0.01874431 0.00359137 0.00840822 0.09227896 0.01803787 0.01100480 0.02481643 0.00095873 
0.02032548 0.04998040 0.01872358 0.00457752 0.00199223 0.00309341 0.00568534 0.00592387 0.01845380 0.00359841 0.00855854 0.09175324 0.01802945 0.01097230 0.02475310 0.00096977 
0.02082414 0.05016829 0.01866771 0.00457994 0.00201926 0.00310237 0.00568082 0.00592515 0.01817171 0.00360227 0.00869607 0.09122603 0.01799311 0.01093055 0.02465490 0.00098196 
0.02135256 0.05039932 0.01858908 0.00458345 0.00204568 0.00310896 0.00567313 0.00593132 0.01790060 0.00360295 0.00882025 0.09069933 0.01792873 0.01087992 0.02452215 0.00099526 
0.02190895 0.05067398 0.01848725 0.00458794 0.00207141 0.00311309 0.00566250 0.00594181 0.01764299 0.00360043 0.00893063 0.09017536 0.01783630 0.01082085 0.02435537 0.00100960 
0.02249128 0.05099241 0.01836188 0.00459326 0.00209637 0.00311468 0.00564923 0.00595605 0.01740138 0.00359476 0.00902679 0.08965662 0.01771595 0.01075385 0.02415529 0.00102494 
0.02309736 0.05135449 0.01821274 0.00459929 0.00212050 0.00311366 0.00563362 0.00597349 0.01717822 0.00358599 0.00910838 0.08914584 0.01756797 0.01067942 0.02392284 0.00104121 
0.02372477 0.05175978 0.01803972 0.00460588 0.00214372 0.00311000 0.00561600 0.00599361 0.01697589 0.00357417 0.00917512 0.08864597 0.01739278 0.01059815 0.02365914 0.00105834 
0.02437091 0.05220756 0.01784282 0.00461288 0.00216597 0.00310368 0.00559673 0.00601590 0.01679667 0.00355941 0.00922681 0.08816019 0.01719093 0.01051066 0.02336551 0.00107625 
0.02503301 0.05269685 0.01762216 0.00462014 0.00218719 0.00309468 0.00557619 0.00603990 0.01664276 0.00354181 0.00926329 0.08769189 0.01696312 0.01041758 0.02304345 0.00109488 
0.02570814 0.05322639 0.01737800 0.00462751 0.00220732 0.00308303 0.00555476 0.00606514 0.01651623 0.00352150 0.00928451 0.08724465 0.01671017 0.01031961 0.02269462 0.00111415 
0.02639323 0.05379467 0.01711068 0.00463483 0.00222629 0.00306877 0.00553287 0.00609123 0.01641903 0.00349862 0.00929046 0.08682221 0.01643305 0.01021744 0.02232086 0.00113395 
0.02708509 0.05439997 0.01682070 0.00464193 0.00224405 0.00305194 0.00551092 0.00611778 0.01635296 0.00347334 0.00928120 0.08642849 0.01613283 0.01011180 0.02192415 0.00115422 
0.02778040 0.05504032 0.01650866 0.00464865 0.00226054 0.00303261 0.00548935 0.00614446 0.01631969 0.00344583 0.00925688 0.08606751 0.01581073 0.01000346 0.02150664 0.00117487 
0.02847579 0.05571360 0.01617529 0.00465483 0.00227572 0.00301089 0.00546860 0.00617097 0.01632068 0.00341629 0.00921770 0.08574341 0.01546806 0.00989316 0.02107057 0.00119579 
0.02916779 0.05641748 0.01582145 0.00466031 0.00228954 0.00298687 0.00544910 0.00619704 0.01635723 0.00338493 0.00916395 0.08546040 0.01510625 0.00978168 0.02061833 0.00121690 
0.02985289 0.05714949 0.01544808 0.00466494 0.00230196 0.00296068 0.00543129 0.00622247 0.01643046 0.00335196 0.00909596 0.08522274 0.01472682 0.00966980 0.02015239 0.00123810 
0.03052755 0.05790704 0.01505627 0.00466856 0.00231293 0.00293246 0.00541561 0.00624705 0.01654126 0.00331762 0.00901413 0.08503472 0.01433140 0.00955831 0.01967531 0.00125930 
0.03118826 0.05868742 0.01464719 0.00467102 0.00232242 0.00290236 0.00540250 0.00627067 0.01669033 0.00328215 0.00891894 0.08490058 0.01392169 0.00944796 0.01918975 0.00128042 
0.03183148 0.05948783 0.01422215 0.00467218 0.00233040 0.00287056 0.00539237 0.00629321 0.01687815 0.00324579 0.00881091 0.08482455 0.01349949 0.00933953 0.01869839 0.00130135 
0.03245375 0.06030542 0.01378252 0.00467189 0.00233683 0.00283722 0.00538564 0.00631461 0.01710494 0.00320879 0.00869062 0.08481076 0.01306663 0.00923377 0.01820397 0.00132200 
0.03305166 0.06113730 0.01332979 0.00467003 0.00234170 0.00280255 0.00538272 0.00633486 0.01737074 0.00317142 0.00855871 0.08486323 0.01262503 0.00913141 0.01770925 0.00134229 
0.03362190 0.06198055 0.01286551 0.00466648 0.00234499 0.00276673 0.00538398 0.00635395 0.01767532 0.00313394 0.00841585 0.08498582 0.01217664 0.00903316 0.01721701 0.00136212 
0.03416126 0.06283228 0.01239135 0.00466111 0.00234668 0.00272999 0.00538979 0.00637193 0.01801821 0.00309660 0.00826277 0.08518221 0.01172347 0.00893971 0.01673001 0.00138142 
0.03466667 0.06368961 0.01190901 0.00465383 0.00234675 0.00269253 0.00540050 0.00638888 0.01839872 0.00305968 0.00810023 0.08545587 0.01126753 0.00885172 0.01625098 0.00140010 
0.03513523 0.06454970 0.01142027 0.00464453 0.00234521 0.00265457 0.00541644 0.00640490 0.01881589 0.00302342 0.00792903 0.08581000 0.01081087 0.00876979 0.01578263 0.00141809 
0.03556420 0.06540981 0.01092699 0.00463314 0.00234205 0.00261634 0.00543789 0.00642013 0.01926856 0.00298808 0.00775001 0.08624752 0.01035552 0.00869451 0.01532761 0.00143531 
0.03595107 0.06626724 0.01043103 0.00461957 0.00233727 0.00257807 0.00546514 0.00643471 0.01975529 0.00295392 0.00756401 0.08677103 0.00990355 0.00862642 0.01488849 0.00145169 
0.03629351 0.06711943 0.00993432 0.00460377 0.00233089 0.00253997 0.00549842 0.00644882 0.02027445 0.00292117 0.00737191 0.08738278 0.00945697 0.00856602 0.01446776 0.00146718 
0.03658947 0.06796392 0.00943881 0.00458568 0.00232291 0.00250228 0.00553796 0.00646264 0.02082415 0.00289007 0.00717460 0.08808466 0.00901779 0.00851375 0.01406782 0.00148170 
0.03683714 0.06879838 0.00894648 0.00456526 0.00231335 0.00246521 0.00558392 0.00647639 0.02140231 0.00286083 0.00697298 0.08887811 0.00858799 0.00847001 0.01369094 0.00149522 
0.03703497 0.06962062 0.00845929 0.00454250 0.00230223 0.00242899 0.00563647 0.00649027 0.02200663 0.00283368 0.00676796 0.08976418 0.00816947 0.00843514 0.01333927 0.00150768 
0.03718174 0.07042862 0.00797923 0.00451736 0.00228959 0.00239383 0.00569571 0.00650451 0.02263460 0.00280880 0.00656044 0.09074347 0.00776412 0.00840944 0.01301483 0.00151904 
0.03727649 0.07122050 0.00750826 0.00448986 0.00227545 0.00235992 0.00576173 0.00651934 0.02328356 0.00278639 0.00635133 0.09181606 0.00737374 0.00839314 0.01271949 0.00152927 
0.03731859 0.07199456 0.00704833 0.00446001 0.00225984 0.00232747 0.00583457 0.00653496 0.02395064 0.00276660 0.00614152 0.09298161 0.00700006 0.00838642 0.01245495 0.00153833 
0.03730776 0.07274927 0.00660135 0.00442782 0.00224282 0.00229667 0.00591425 0.00655162 0.02463284 0.00274959 0.00593188 0.09423922 0.00664472 0.00838940 0.01222276 0.00154621 
0.03724401 0.07348326 0.00616919 0.00439334 0.00222442 0.00226768 0.00600075 0.00656951 0.02532701 0.00273549 0.00572327 0.09558750 0.00630929 0.00840215 0.01202428 0.00155289 
0.03712771 0.07419535 0.00575368 0.00435662 0.00220469 0.00224067 0.00609399 0.00658885 0.02602988 0.00272442 0.00551653 0.09702455 0.00599522 0.00842467 0.01186069 0.00155837 
0.03695958 0.07488452 0.00535658 0.00431771 0.00218370 0.00221578 0.00619388 0.00660983 0.02673807 0.00271647 0.00531245 0.09854793 0.00570387 0.00845692 0.01173298 0.00156263 
0.03674066 0.07554994 0.00497959 0.00427669 0.00216150 0.00219315 0.00630029 0.00663262 0.02744814 0.00271172 0.00511181 0.10015469 0.00543649 0.00849879 0.01164196 0.00156568 
0.03647235 0.07619092 0.00462432 0.00423364 0.00213815 0.00217291 0.00641306 0.00665738 0.02815655 0.00271022 0.00491535 0.10184136 0.00519418 0.00855012 0.01158822 0.00156753 
0.03615638 0.07680695 0.00429230 0.00418867 0.00211372 0.00215514 0.00653198 0.00668426 0.02885974 0.00271201 0.00472377 0.10360396 0.00497796 0.00861071 0.01157217 0.00156820 
0.03579481 0.07739766 0.00398498 0.00414187 0.00208829 0.00213994 0.00665682 0.00671337 0.02955412 0.00271710 0.00453771 0.10543799 0.00478870 0.00868027 0.01159402 0.00156771 
0.03539005 0.07796283 0.00370367 0.00409337 0.00206192 0.00212738 0.00678732 0.00674480 0.03023611 0.00272549 0.00435778 0.10733849 0.00462715 0.00875851 0.01165377 0.00156609 
0.03494480 0.07850235 0.00344962 0.00404328 0.00203471 0.00211751 0.00692317 0.00677863 0.03090215 0.00273715 0.00418454 0.10930004 0.00449390 0.00884506 0.01175122 0.00156336 
0.03446206 0.07901626 0.00322393 0.00399174 0.00200672 0.00211035 0.00706405 0.00681488 0.03154873 0.00275204 0.00401851 0.11131676 0.00438943 0.00893951 0.01188598 0.00155957 
0.03394516 0.07950468 0.00302758 0.00393890 0.00197806 0.00210594 0.00720960 0.00685358 0.03217239 0.00277008 0.00386012 0.11338236 0.00431407 0.00904143 0.01205747 0.00155476 
0.03339765 0.07996785 0.00286144 0.00388491 0.00194879 0.00210426 0.00735945 0.00689471 0.03276978 0.00279120 0.00370979 0.11549016 0.00426802 0.00915034 0.01226492 0.00154898 
0.03282337 0.08040607 0.00272625 0.00382991 0.00191903 0.00210530 0.00751319 0.00693823 0.03333767 0.00281529 0.00356786 0.11763314 0.00425133 0.00926572 0.01250737 0.00154228 
0.03222638 0.08081971 0.00262258 0.00377407 0.00188886 0.00210902 0.00767039 0.00698407 0.03387293 0.00284222 0.00343461 0.11980395 0.00426392 0.00938703 0.01278370 0.00153471 
0.03161097 0.08120919 0.00255090 0.00371755 0.00185838 0.00211537 0.00783060 0.00703211 0.03437263 0.00287187 0.00331028 0.12199496 0.00430557 0.00951370 0.01309262 0.00152633 
0.03098158 0.08157499 0.00251153 0.00366053 0.00182769 0.00212428 0.00799337 0.00708225 0.03483399 0.00290407 0.00319504 0.12419831 0.00437591 0.00964514 0.01343266 0.00151720 
0.03034285 0.08191757 0.00250462 0.00360317 0.00179689 0.00213568 0.00815820 0.00713431 0.03525443 0.00293865 0.00308900 0.12640595 0.00447447 0.00978074 0.01380223 0.00150739 
0.02969953 0.08223744 0.00253022 0.00354566 0.00176608 0.00214946 0.00832460 0.00718813 0.03563159 0.00297543 0.00299223 0.12860967 0.00460063 0.00991990 0.01419958 0.00149697 
0.02905649 0.08253506 0.00258819 0.00348816 0.00173537 0.00216551 0.00849207 0.00724349 0.03596334 0.00301422 0.00290473 0.13080116 0.00475364 0.01006197 0.01462285 0.00148599 
0.02841867 0.08281092 0.00267829 0.00343086 0.00170486 0.00218371 0.00866009 0.00730017 0.03624779 0.00305480 0.00282645 0.13297208 0.00493265 0.01020633 0.01507005 0.00147453 
0.02779106 0.08306542 0.00280010 0.00337393 0.00167466 0.00220393 0.00882814 0.00735792 0.03648331 0.00309696 0.00275728 0.13511406 0.00513668 0.01035235 0.01553909 0.00146266 
0.02717864 0.08329897 0.00295307 0.00331754 0.00164486 0.00222602 0.00899568 0.00741647 0.03666855 0.00314047 0.00269708 0.13721879 0.00536465 0.01049941 0.01602779 0.00145045 
0.02658641 0.08351189 0.00313652 0.00326186 0.00161559 0.00224983 0.00916221 0.00747555 0.03680245 0.00318509 0.00264565 0.13927807 0.00561537 0.01064689 0.01653389 0.00143797 
0.02601930 0.08370445 0.00334964 0.00320707 0.00158694 0.00227520 0.00932718 0.00753485 0.03688422 0.00323059 0.00260273 0.14128384 0.00588757 0.01079418 0.01705507 0.00142528 
0.02548215 0.08387682 0.00359146 0.00315333 0.00155902 0.00230196 0.00949009 0.00759407 0.03691340 0.00327673 0.00256804 0.14322824 0.00617986 0.01094071 0.01758894 0.00141246 
0.02497971 0.08402912 0.00386092 0.00310080 0.00153193 0.00232995 0.00965040 0.00765289 0.03688981 0.00332325 0.00254125 0.14510367 0.00649081 0.01108590 0.01813310 0.00139957 
0.02451655 0.08416136 0.00415681 0.00304963 0.00150578 0.00235899 0.00980762 0.00771100 0.03681358 0.00336992 0.00252199 0.14690281 0.00681889 0.01122922 0.01868511 0.00138668 
0.02409710 0.08427346 0.00447783 0.00299998 0.00148066 0.00238889 0.00996125 0.00776806 0.03668516 0.00341648 0.00250985 0.14861872 0.00716252 0.01137016 0.01924252 0.00137385 
0.02372554 0.08436525 0.00482255 0.00295199 0.00145668 0.00241950 0.01011080 0.00782377 0.03650531 0.00346268 0.00250441 0.15024481 0.00752005 0.01150823 0.01980287 0.00136115 
0.02340585 0.08443644 0.00518945 0.00290579 0.00143393 0.00245062 0.01025581 0.00787778 0.03627507 0.00350829 0.00250521 0.15177495 0.00788979 0.01164299 0.02036374 0.00134863 
0.02314173 0.08448667 0.00557693 0.00286152 0.00141250 0.00248209 0.01039584 0.00792981 0.03599580 0.00355307 0.00251176 0.15320348 0.00827002 0.01177403 0.02092272 0.00133634 
0.02293658 0.08451545 0.00598327 0.00281928 0.00139250 0.00251374 0.01053044 0.00797953 0.03566914 0.00359679 0.00252357 0.15452523 0.00865897 0.01190097 0.02147745 0.00132435 
0.02279348 0.08452221 0.00640671 0.00277920 0.00137400 0.00254539 0.01065921 0.00802666 0.03529703 0.00363922 0.00254012 0.15573559 0.00905487 0.01202348 0.02202562 0.00131270 
0.02271518 0.08450627 0.00684540 0.00274138 0.00135709 0.00257690 0.01078176 0.00807093 0.03488164 0.00368015 0.00256088 0.15683052 0.00945592 0.01214127 0.02256499 0.00130144 
0.02270406 0.08446690 0.00729745 0.00270590 0.00134185 0.00260810 0.01089775 0.00811207 0.03442544 0.00371937 0.00258531 0.15780656 0.00986033 0.01225408 0.02309337 0.00129060 
0.02276213 0.08440323 0.00776090 0.00267286 0.00132836 0.00263885 0.01100683 0.00814984 0.03393112 0.00375669 0.00261289 0.15866089 0.01026630 0.01236171 0.02360869 0.00128024 
0.02289096 0.08431436 0.00823377 0.00264233 0.00131669 0.00266902 0.01110870 0.00818403 0.03340158 0.00379192 0.00264306 0.15939132 0.01067206 0.01246400 0.02410896 0.00127037 
0.02309176 0.08419930 0.00871405 0.00261437 0.00130690 0.00269848 0.01120310 0.00821445 0.03283994 0.00382490 0.00267530 0.15999628 0.01107585 0.01256082 0.02459229 0.00126105 
0.02336528 0.08405703 0.00919968 0.00258904 0.00129907 0.00272711 0.01128977 0.00824093 0.03224951 0.00385547 0.00270907 0.16047490 0.01147594 0.01265209 0.02505691 0.00125228 
0.02371184 0.08388646 0.00968864 0.00256638 0.00129325 0.00275480 0.01136852 0.00826333 0.03163376 0.00388350 0.00274387 0.16082694 0.01187063 0.01273778 0.02550116 0.00124410 
0.02413133 0.08368647 0.01017887 0.00254643 0.00128949 0.00278147 0.01143916 0.00828154 0.03099628 0.00390884 0.00277919 0.16105282 0.01225829 0.01281789 0.02592351 0.00123652 
0.02462319 0.08345593 0.01066835 0.00252922 0.00128783 0.00280703 0.01150154 0.00829549 0.03034079 0.00393139 0.00281455 0.16115362 0.01263732 0.01289245 0.02632256 0.00122956 
0.02518639 0.08319372 0.01115504 0.00251475 0.00128832 0.00283142 0.01155558 0.00830513 0.02967111 0.00395107 0.00284948 0.16113105 0.01300618 0.01296155 0.02669707 0.00122323 
0.02581951 0.08289869 0.01163697 0.00250304 0.00129099 0.00285457 0.01160119 0.00831044 0.02899112 0.00396778 0.00288354 0.16098744 0.01336340 0.01302530 0.02704590 0.00121753 
0.02652065 0.08256975 0.01211218 0.00249408 0.00129586 0.00287644 0.01163833 0.00831144 0.02830473 0.00398147 0.00291632 0.16072573 0.01370758 0.01308383 0.02736808 0.00121248 
0.02728749 0.08220582 0.01257878 0.00248787 0.00130297 0.00289699 0.01166701 0.00830819 0.02761587 0.00399210 0.00294744 0.16034946 0.01403739 0.01313733 0.02766278 0.00120807 
0.02811731 0.08180591 0.01303492 0.00248438 0.00131232 0.00291622 0.01168726 0.00830076 0.02692847 0.00399963 0.00297653 0.15986267 0.01435158 0.01318599 0.02792931 0.00120429 
0.02900698 0.08136906 0.01347880 0.00248358 0.00132392 0.00293411 0.01169914 0.00828928 0.02624639 0.00400406 0.00300329 0.15926996 0.01464900 0.01323003 0.02816715 0.00120115 
0.02995298 0.08089442 0.01390872 0.00248544 0.00133777 0.00295066 0.01170278 0.00827390 0.02557346 0.00400539 0.00302741 0.15857640 0.01492857 0.01326970 0.02837589 0.00119862 
0.03095143 0.08038125 0.01432304 0.00248992 0.00135387 0.00296589 0.01169829 0.00825478 0.02491339 0.00400365 0.00304866 0.15778749 0.01518933 0.01330524 0.02855531 0.00119671 
0.03199810 0.07982890 0.01472020 0.00249696 0.00137220 0.00297983 0.01168587 0.00823215 0.02426981 0.00399887 0.00306680 0.15690913 0.01543038 0.01333693 0.02870530 0.00119539 
0.03308847 0.07923688 0.01509874 0.00250652 0.00139273 0.00299251 0.01166570 0.00820624 0.02364617 0.00399111 0.00308167 0.15594759 0.01565094 0.01336504 0.02882591 0.00119464 
0.03421770 0.07860483 0.01545729 0.00251852 0.00141545 0.00300397 0.01163804 0.00817730 0.02304578 0.00398044 0.00309312 0.15490942 0.01585034 0.01338985 0.02891731 0.00119445 
0.03538072 0.07793255 0.01579457 0.00253290 0.00144032 0.00301428 0.01160314 0.00814564 0.02247177 0.00396693 0.00310105 0.15380143 0.01602799 0.01341166 0.02897983 0.00119479 
0.03657221 0.07722002 0.01610943 0.00254959 0.00146728 0.00302349 0.01156130 0.00811155 0.02192705 0.00395070 0.00310539 0.15263066 0.01618341 0.01343072 0.02901392 0.00119564 
0.03778667 0.07646741 0.01640079 0.00256851 0.00149630 0.00303168 0.01151285 0.00807537 0.02141432 0.00393184 0.00310612 0.15140426 0.01631624 0.01344733 0.02902014 0.00119697 
0.03901845 0.07567509 0.01666770 0.00258958 0.00152730 0.00303891 0.01145813 0.00803745 0.02093602 0.00391049 0.00310325 0.15012951 0.01642620 0.01346173 0.02899918 0.00119876 
0.04026177 0.07484362 0.01690933 0.00261272 0.00156024 0.00304526 0.01139752 0.00799815 0.02049436 0.00388676 0.00309683 0.14881372 0.01651314 0.01347417 0.02895186 0.00120098 
0.04151076 0.07397379 0.01712494 0.00263784 0.00159502 0.00305083 0.01133142 0.00795784 0.02009126 0.00386082 0.00308693 0.14746419 0.01657698 0.01348489 0.02887908 0.00120360 
0.04275953 0.07306661 0.01731393 0.00266484 0.00163159 0.00305570 0.01126024 0.00791691 0.01972836 0.00383281 0.00307367 0.14608818 0.01661777 0.01349410 0.02878185 0.00120659 
0.04400216 0.07212334 0.01747578 0.00269364 0.00166983 0.00305996 0.01118441 0.00787576 0.01940702 0.00380290 0.00305720 0.14469283 0.01663565 0.01350198 0.02866128 0.00120993 
0.04523279 0.07114545 0.01761011 0.00272415 0.00170967 0.00306369 0.01110439 0.00783478 0.01912828 0.00377124 0.00303770 0.14328510 0.01663085 0.01350869 0.02851854 0.00121357 
0.04644562 0.07013467 0.01771665 0.00275627 0.00175101 0.00306700 0.01102063 0.00779436 0.01889289 0.00373803 0.00301537 0.14187179 0.01660370 0.01351438 0.02835491 0.00121750 
0.04763495 0.06909297 0.01779522 0.00278990 0.00179373 0.00306996 0.01093361 0.00775491 0.01870129 0.00370344 0.00299044 0.14045941 0.01655464 0.01351913 0.02817172 0.00122168 
0.04879528 0.06802256 0.01784577 0.00282496 0.00183772 0.00307268 0.01084382 0.00771680 0.01855361 0.00366765 0.00296317 0.13905419 0.01648416 0.01352303 0.02797035 0.00122608 
0.04992125 0.06692589 0.01786834 0.00286134 0.00188286 0.00307524 0.01075173 0.00768043 0.01844967 0.00363085 0.00293385 0.13766203 0.01639288 0.01352611 0.02775225 0.00123068 
0.05100776 0.06580566 0.01786310 0.00289895 0.00192903 0.00307771 0.01065784 0.00764617 0.01838899 0.00359323 0.00290276 0.13628847 0.01628147 0.01352838 0.02751892 0.00123544 
0.05204997 0.06466480 0.01783027 0.00293771 0.00197611 0.00308019 0.01056263 0.00761436 0.01837079 0.00355499 0.00287022 0.13493865 0.01615069 0.01352981 0.02727187 0.00124035 
0.05304333 0.06350649 0.01777021 0.00297751 0.00202394 0.00308275 0.01046661 0.00758536 0.01839400 0.00351631 0.00283655 0.13361727 0.01600136 0.01353035 0.02701266 0.00124536 
0.05398363 0.06233410 0.01768336 0.00301827 0.00207241 0.00308545 0.01037025 0.00755948 0.01845726 0.00347739 0.00280210 0.13232859 0.01583438 0.01352989 0.02674286 0.00125046 
0.05486701 0.06115124 0.01757022 0.00305990 0.00212136 0.00308836 0.01027403 0.00753703 0.01855897 0.00343840 0.00276721 0.13107641 0.01565072 0.01352830 0.02646404 0.00125563 
0.05569001 0.05996171 0.01743142 0.00310231 0.00217064 0.00309154 0.01017842 0.00751827 0.01869725 0.00339954 0.00273222 0.12986404 0.01545139 0.01352543 0.02617780 0.00126084 
0.05644957 0.05876952 0.01726761 0.00314541 0.00222012 0.00309504 0.01008387 0.00750347 0.01886997 0.00336098 0.00269749 0.12869427 0.01523745 0.01352108 0.02588571 0.00126606 
0.05714309 0.05757884 0.01707956 0.00318913 0.00226963 0.00309891 0.00999083 0.00749285 0.01907483 0.00332291 0.00266338 0.12756943 0.01501004 0.01351503 0.02558935 0.00127129 
0.05776840 0.05639400 0.01686809 0.00323339 0.00231903 0.00310318 0.00989971 0.00748661 0.01930926 0.00328548 0.00263022 0.12649133 0.01477030 0.01350704 0.02529025 0.00127650 
0.05832382 0.05521949 0.01663406 0.00327810 0.00236816 0.00310788 0.00981093 0.00748490 0.01957057 0.00324886 0.00259835 0.12546126 0.01451943 0.01349684 0.02498994 0.00128167 
0.05880814 0.05405991 0.01637843 0.00332320 0.00241686 0.00311304 0.00972486 0.00748786 0.01985586 0.00321321 0.00256812 0.12448006 0.01425865 0.01348413 0.02468990 0.00128679 
0.05922067 0.05291999 0.01610216 0.00336861 0.00246499 0.00311866 0.00964186 0.00749559 0.02016213 0.00317868 0.00253983 0.12354804 0.01398921 0.01346862 0.02439159 0.00129185 
0.05956119 0.05180451 0.01580630 0.00341427 0.00251238 0.00312476 0.00956226 0.00750817 0.02048624 0.00314540 0.00251380 0.12266508 0.01371238 0.01344997 0.02409641 0.00129683 
0.05983002 0.05071834 0.01549192 0.00346010 0.00255888 0.00313134 0.00948638 0.00752561 0.02082498 0.00311350 0.00249031 0.12183060 0.01342943 0.01342786 0.02380571 0.00130173 
0.06002794 0.04966639 0.01516013 0.00350605 0.00260435 0.00313838 0.00941448 0.00754793 0.02117505 0.00308312 0.00246963 0.12104360 0.01314164 0.01340195 0.02352077 0.00130652 
0.06015627 0.04865357 0.01481207 0.00355206 0.00264863 0.00314587 0.00934682 0.00757508 0.02153313 0.00305435 0.00245201 0.12030268 0.01285031 0.01337190 0.02324284 0.00131121 
0.06021680 0.04768480 0.01444891 0.00359808 0.00269158 0.00315380 0.00928361 0.00760701 0.02189587 0.00302731 0.00243767 0.11960608 0.01255671 0.01333738 0.02297307 0.00131579 
0.06021180 0.04676493 0.01407185 0.00364404 0.00273306 0.00316212 0.00922502 0.00764360 0.02225995 0.00300208 0.00242683 0.11895169 0.01226211 0.01329806 0.02271256 0.00132024 
0.06014401 0.04589879 0.01368210 0.00368991 0.00277293 0.00317082 0.00917122 0.00768473 0.02262207 0.00297874 0.00241965 0.11833712 0.01196776 0.01325363 0.02246233 0.00132458 
0.06001661 0.04509109 0.01328089 0.00373563 0.00281107 0.00317984 0.00912230 0.00773023 0.02297899 0.00295737 0.00241628 0.11775971 0.01167490 0.01320379 0.02222333 0.00132879 
0.05983321 0.04434643 0.01286947 0.00378117 0.00284734 0.00318916 0.00907836 0.00777991 0.02332756 0.00293803 0.00241686 0.11721656 0.01138473 0.01314826 0.02199641 0.00133287 
0.05959781 0.04366929 0.01244910 0.00382649 0.00288163 0.00319871 0.00903943 0.00783354 0.02366473 0.00292076 0.00242146 0.11670462 0.01109842 0.01308680 0.02178236 0.00133682 
0.05931479 0.04306394 0.01202102 0.00387155 0.00291382 0.00320844 0.00900552 0.00789087 0.02398758 0.00290561 0.00243015 0.11622068 0.01081711 0.01301919 0.02158186 0.00134064 
0.05898885 0.04253448 0.01158653 0.00391632 0.00294382 0.00321831 0.00897660 0.00795164 0.02429335 0.00289260 0.00244297 0.11576142 0.01054191 0.01294524 0.02139554 0.00134432 
0.05862503 0.04208477 0.01114688 0.00396078 0.00297154 0.00322825 0.00895262 0.00801554 0.02457943 0.00288176 0.00245991 0.11532348 0.01027386 0.01286482 0.02122391 0.00134788 
0.05822859 0.04171842 0.01070336 0.00400490 0.00299687 0.00323820 0.00893347 0.00808225 0.02484342 0.00287310 0.00248096 0.11490348 0.01001396 0.01277784 0.02106741 0.00135131 
0.05780506 0.04143878 0.01025725 0.00404866 0.00301976 0.00324812 0.00891904 0.00815144 0.02508313 0.00286661 0.00250606 0.11449807 0.00976317 0.01268424 0.02092639 0.00135462 
0.05736015 0.04124887 0.00980982 0.00409205 0.00304012 0.00325792 0.00890914 0.00822275 0.02529656 0.00286229 0.00253513 0.11410396 0.00952238 0.01258402 0.02080111 0.00135780 
0.05689971 0.04115141 0.00936235 0.00413505 0.00305791 0.00326757 0.00890361 0.00829582 0.02548197 0.00286013 0.00256805 0.11371797 0.00929243 0.01247726 0.02069175 0.00136085 
0.05642969 0.04114876 0.00891612 0.00417767 0.00307309 0.00327699 0.00890220 0.00837027 0.02563787 0.00286010 0.00260467 0.11333707 0.00907409 0.01236406 0.02059840 0.00136379 
0.05595613 0.04124290 0.00847240 0.00421988 0.00308560 0.00328614 0.00890467 0.00844571 0.02576301 0.00286217 0.00264485 0.11295840 0.00886808 0.01224461 0.02052107 0.00136661 
0.05548505 0.04143545 0.00803247 0.00426171 0.00309544 0.00329496 0.00891075 0.00852175 0.02585641 0.00286630 0.00268838 0.11257933 0.00867502 0.01211915 0.02045970 0.00136932 
0.05502245 0.04172759 0.00759761 0.00430315 0.00310258 0.00330340 0.00892014 0.00859800 0.02591737 0.00287244 0.00273505 0.11219745 0.00849550 0.01198799 0.02041413 0.00137191 
0.05457427 0.04212011 0.00716908 0.00434420 0.00310703 0.00331141 0.00893250 0.00867405 0.02594546 0.00288055 0.00278463 0.11181065 0.00833003 0.01185149 0.02038414 0.00137440 
0.05414630 0.04261333 0.00674815 0.00438490 0.00310880 0.00331895 0.00894751 0.00874951 0.02594052 0.00289057 0.00283686 0.11141711 0.00817904 0.01171011 0.02036945 0.00137678 
0.05374419 0.04320715 0.00633610 0.00442524 0.00310790 0.00332599 0.00896479 0.00882399 0.02590267 0.00290243 0.00289146 0.11101532 0.00804288 0.01156435 0.02036969 0.00137905 
0.05337337 0.04390101 0.00593419 0.00446527 0.00310438 0.00333250 0.00898398 0.00889711 0.02583230 0.00291608 0.00294815 0.11060412 0.00792186 0.01141478 0.02038445 0.00138122 
0.05303902 0.04469387 0.00554368 0.00450500 0.00309827 0.00333844 0.00900469 0.00896850 0.02573008 0.00293145 0.00300662 0.11018269 0.00781619 0.01126205 0.02041324 0.00138329 
0.05274602 0.04558422 0.00516585 0.00454446 0.00308962 0.00334381 0.00902652 0.00903779 0.02559692 0.00294847 0.00306656 0.10975061 0.00772602 0.01110685 0.02045553 0.00138525 
0.05249891 0.04657010 0.00480195 0.00458370 0.00307851 0.00334859 0.00904908 0.00910463 0.02543402 0.00296705 0.00312764 0.10930779 0.00765143 0.01094996 0.02051073 0.00138712 
0.05230189 0.04764905 0.00445324 0.00462275 0.00306500 0.00335277 0.00907194 0.00916869 0.02524278 0.00298714 0.00318954 0.10885453 0.00759241 0.01079220 0.02057822 0.00138889 
0.05215873 0.04881818 0.00412098 0.00466167 0.00304918 0.00335636 0.00909472 0.00922965 0.02502487 0.00300864 0.00325190 0.10839152 0.00754892 0.01063446 0.02065733 0.00139055 
0.05207278 0.05007410 0.00380643 0.00470049 0.00303114 0.00335937 0.00911701 0.00928722 0.02478215 0.00303149 0.00331440 0.10791981 0.00752083 0.01047767 0.02074737 0.00139212 
0.05204692 0.05141299 0.00351082 0.00473928 0.00301099 0.00336182 0.00913840 0.00934113 0.02451670 0.00305560 0.00337669 0.10744081 0.00750793 0.01032282 0.02084761 0.00139358 
0.05208353 0.05283059 0.00323541 0.00477809 0.00298884 0.00336373 0.00915851 0.00939111 0.02423078 0.00308091 0.00343844 0.10695629 0.00750998 0.01017095 0.02095729 0.00139494 
0.05218451 0.05432218 0.00298142 0.00481699 0.00296479 0.00336514 0.00917696 0.00943695 0.02392682 0.00310733 0.00349932 0.10646834 0.00752665 0.01002311 0.02107565 0.00139619 
0.05235119 0.05588268 0.00275007 0.00485604 0.00293898 0.00336608 0.00919339 0.00947843 0.02360740 0.00313479 0.00355899 0.10597940 0.00755757 0.00988042 0.02120193 0.00139733 
0.05258440 0.05750658 0.00254257 0.00489530 0.00291153 0.00336661 0.00920744 0.00951538 0.02327522 0.00316320 0.00361713 0.10549217 0.00760231 0.00974401 0.02133532 0.00139836 
0.05288439 0.05918801 0.00236010 0.00493486 0.00288258 0.00336678 0.00921880 0.00954764 0.02293309 0.00319251 0.00367346 0.10500966 0.00766039 0.00961502 0.02147506 0.00139928 
0.05325085 0.06092076 0.00220384 0.00497479 0.00285226 0.00336665 0.00922715 0.00957508 0.02258392 0.00322264 0.00372766 0.10453508 0.00773128 0.00949464 0.02162037 0.00140008 
0.05368292 0.06269831 0.00207491 0.00501516 0.00282073 0.00336629 0.00923222 0.00959760 0.02223066 0.00325352 0.00377945 0.10407188 0.00781441 0.00938404 0.02177047 0.00140076 
0.05417917 0.06451383 0.00197445 0.00505605 0.00278811 0.00336578 0.00923375 0.00961514 0.02187632 0.00328508 0.00382859 0.10362370 0.00790915 0.00928438 0.02192462 0.00140132 
0.05473761 0.06636025 0.00190351 0.00509754 0.00275457 0.00336519 0.00923152 0.00962764 0.02152392 0.00331726 0.00387481 0.10319430 0.00801485 0.00919685 0.02208209 0.00140174 
0.05535571 0.06823025 0.00186316 0.00513971 0.00272024 0.00336461 0.00922533 0.00963508 0.02117647 0.00334999 0.00391790 0.10278757 0.00813082 0.00912260 0.02224216 0.00140204 
0.05603042 0.07011636 0.00185437 0.00518264 0.00268528 0.00336413 0.00921503 0.00963747 0.02083697 0.00338322 0.00395765 0.10240746 0.00825635 0.00906275 0.02240417 0.00140220 
0.05675816 0.07201090 0.00187809 0.00522641 0.00264982 0.00336384 0.00920049 0.00963483 0.02050835 0.00341689 0.00399387 0.10205797 0.00839068 0.00901841 0.02256745 0.00140222 
0.05753487 0.07390612 0.00193522 0.00527109 0.00261402 0.00336383 0.00918162 0.00962723 0.02019346 0.00345094 0.00402640 0.10174306 0.00853305 0.00899065 0.02273140 0.00140209 
0.05835601 0.07579416 0.00202657 0.00531677 0.00257802 0.00336421 0.00915838 0.00961473 0.01989510 0.00348532 0.00405511 0.10146668 0.00868267 0.00898047 0.02289544 0.00140182 
0.05921661 0.07766713 0.00215290 0.00536351 0.00254196 0.00336506 0.00913074 0.00959745 0.01961591 0.00351997 0.00407988 0.10123267 0.00883874 0.00898885 0.02305903 0.00140139 
0.06011129 0.07951714 0.00231490 0.00541138 0.00250597 0.00336649 0.00909874 0.00957550 0.01935842 0.00355485 0.00410063 0.10104476 0.00900044 0.00901667 0.02322168 0.00140082 
0.06103431 0.08133632 0.00251315 0.00546045 0.00247018 0.00336859 0.00906243 0.00954903 0.01912499 0.00358991 0.00411728 0.10090650 0.00916696 0.00906478 0.02338295 0.00140008 
0.06197959 0.08311690 0.00274816 0.00551077 0.00243472 0.00337147 0.00902191 0.00951819 0.01891783 0.00362511 0.00412980 0.10082124 0.00933747 0.00913392 0.02354242 0.00139919 
0.06294074 0.08485122 0.00302035 0.00556239 0.00239971 0.00337521 0.00897734 0.00948317 0.01873896 0.00366039 0.00413817 0.10079210 0.00951115 0.00922477 0.02369973 0.00139814 
0.06391116 0.08653176 0.00333001 0.00561536 0.00236526 0.00337990 0.00892889 0.00944415 0.01859019 0.00369572 0.00414241 0.10082191 0.00968718 0.00933791 0.02385458 0.00139693 
0.06488401 0.08815122 0.00367734 0.00566970 0.00233147 0.00338564 0.00887678 0.00940136 0.01847313 0.00373105 0.00414254 0.10091319 0.00986475 0.00947382 0.02400669 0.00139555 
0.06585231 0.08970251 0.00406242 0.00572545 0.00229846 0.00339250 0.00882126 0.00935501 0.01838914 0.00376633 0.00413863 0.10106813 0.01004305 0.00963288 0.02415585 0.00139402 
0.06680897 0.09117883 0.00448520 0.00578261 0.00226630 0.00340055 0.00876263 0.00930534 0.01833938 0.00380153 0.00413074 0.10128854 0.01022130 0.00981537 0.02430186 0.00139232 
0.06774681 0.09257366 0.00494551 0.00584120 0.00223508 0.00340988 0.00870119 0.00925258 0.01832474 0.00383660 0.00411898 0.10157584 0.01039872 0.01002145 0.02444458 0.00139046 
