0.15162250 0.02620190 0.00659683 0.00160502 0.00087473 0.00181803 0.01185570 0.00566909 0.02492930 0.00350538 0.00479569 0.02729060 0.00450036 0.00316597 0.00557923 0.00128292 
0.15092426 0.02694096 0.00674928 0.00166207 0.00090062 0.00181634 0.01194600 0.00560577 0.02529080 0.00346191 0.00476678 0.02776857 0.00475748 0.00324742 0.00562959 0.00128525 
0.14995823 0.02767453 0.00690692 0.00172068 0.00092690 0.00181355 0.01203305 0.00553728 0.02564657 0.00341649 0.00473452 0.02824427 0.00502279 0.00333308 0.00568225 0.00128751 
0.14872700 0.02839923 0.00706911 0.00178058 0.00095347 0.00180971 0.01211662 0.00546401 0.02599640 0.00336940 0.00469920 0.02871675 0.00529539 0.00342271 0.00573722 0.00128967 
0.14723426 0.02911168 0.00723517 0.00184151 0.00098024 0.00180486 0.01219650 0.00538636 0.02634011 0.00332092 0.00466113 0.02918527 0.00557434 0.00351604 0.00579449 0.00129174 
0.14548483 0.02980852 0.00740442 0.00190320 0.00100710 0.00179906 0.01227247 0.00530473 0.02667758 0.00327133 0.00462062 0.02964930 0.00585867 0.00361282 0.00585407 0.00129367 
0.14348461 0.03048642 0.00757619 0.00196537 0.00103396 0.00179235 0.01234432 0.00521954 0.02700875 0.00322090 0.00457799 0.03010852 0.00614736 0.00371278 0.00591596 0.00129547 
0.14124056 0.03114209 0.00774983 0.00202775 0.00106071 0.00178480 0.01241182 0.00513120 0.02733358 0.00316990 0.00453354 0.03056283 0.00643935 0.00381562 0.00598020 0.00129711 
0.13876067 0.03177235 0.00792468 0.00209007 0.00108723 0.00177647 0.01247479 0.00504015 0.02765205 0.00311860 0.00448760 0.03101234 0.00673354 0.00392108 0.00604679 0.00129859 
0.13605395 0.03237410 0.00810008 0.00215207 0.00111344 0.00176741 0.01253302 0.00494681 0.02796418 0.00306726 0.00444047 0.03145740 0.00702882 0.00402885 0.00611577 0.00129990 
0.13313032 0.03294436 0.00827540 0.00221346 0.00113922 0.00175769 0.01258631 0.00485160 0.02826999 0.00301613 0.00439245 0.03189854 0.00732405 0.00413866 0.00618719 0.00130103 
0.13000064 0.03348029 0.00845002 0.00227400 0.00116448 0.00174737 0.01263448 0.00475493 0.02856950 0.00296546 0.00434385 0.03233652 0.00761809 0.00425020 0.00626108 0.00130197 
0.12667659 0.03397921 0.00862332 0.00233342 0.00118910 0.00173654 0.01267735 0.00465722 0.02886274 0.00291546 0.00429494 0.03277230 0.00790976 0.00436318 0.00633750 0.00130272 
0.12317066 0.03443862 0.00879472 0.00239147 0.00121299 0.00172525 0.01271475 0.00455887 0.02914974 0.00286636 0.00424600 0.03320704 0.00819791 0.00447732 0.00641649 0.00130327 
0.11949609 0.03485620 0.00896364 0.00244792 0.00123605 0.00171358 0.01274652 0.00446028 0.02943049 0.00281837 0.00419729 0.03364207 0.00848136 0.00459233 0.00649812 0.00130363 
0.11566675 0.03522984 0.00912952 0.00250253 0.00125818 0.00170160 0.01277250 0.00436181 0.02970496 0.00277167 0.00414905 0.03407891 0.00875895 0.00470790 0.00658245 0.00130380 
0.11169717 0.03555768 0.00929183 0.00255509 0.00127929 0.00168938 0.01279256 0.00426385 0.02997311 0.00272645 0.00410152 0.03451922 0.00902956 0.00482377 0.00666953 0.00130377 
0.10760237 0.03583806 0.00945006 0.00260538 0.00129930 0.00167700 0.01280657 0.00416672 0.03023485 0.00268284 0.00405489 0.03496483 0.00929204 0.00493966 0.00675943 0.00130355 
0.10339786 0.03606960 0.00960371 0.00265320 0.00131813 0.00166452 0.01281442 0.00407078 0.03049005 0.00264101 0.00400937 0.03541768 0.00954531 0.00505529 0.00685221 0.00130314 
0.09909953 0.03625118 0.00975232 0.00269838 0.00133568 0.00165201 0.01281599 0.00397632 0.03073855 0.00260106 0.00396511 0.03587982 0.00978831 0.00517039 0.00694794 0.00130255 
0.09472359 0.03638194 0.00989544 0.00274075 0.00135189 0.00163956 0.01281120 0.00388365 0.03098012 0.00256311 0.00392227 0.03635342 0.01001999 0.00528471 0.00704666 0.00130179 
0.09028649 0.03646130 0.01003267 0.00278016 0.00136669 0.00162722 0.01279997 0.00379304 0.03121449 0.00252724 0.00388097 0.03684069 0.01023937 0.00539799 0.00714844 0.00130086 
0.08580484 0.03648898 0.01016361 0.00281645 0.00138002 0.00161507 0.01278225 0.00370473 0.03144136 0.00249353 0.00384132 0.03734392 0.01044553 0.00551000 0.00725331 0.00129977 
0.08129535 0.03646499 0.01028790 0.00284952 0.00139182 0.00160317 0.01275798 0.00361896 0.03166035 0.00246201 0.00380340 0.03786540 0.01063757 0.00562049 0.00736133 0.00129854 
0.07677472 0.03638962 0.01040520 0.00287926 0.00140205 0.00159159 0.01272713 0.00353594 0.03187103 0.00243273 0.00376726 0.03840746 0.01081467 0.00572925 0.00747251 0.00129717 
0.07225959 0.03626348 0.01051521 0.00290558 0.00141066 0.00158040 0.01268970 0.00345584 0.03207294 0.00240570 0.00373293 0.03897241 0.01097606 0.00583606 0.00758689 0.00129568 
0.06776646 0.03608746 0.01061764 0.00292841 0.00141762 0.00156965 0.01264567 0.00337883 0.03226555 0.00238090 0.00370044 0.03956249 0.01112107 0.00594072 0.00770447 0.00129407 
0.06331162 0.03586273 0.01071225 0.00294769 0.00142290 0.00155940 0.01259508 0.00330506 0.03244829 0.00235833 0.00366977 0.04017993 0.01124905 0.00604302 0.00782526 0.00129237 
0.05891105 0.03559079 0.01079880 0.00296338 0.00142648 0.00154972 0.01253795 0.00323462 0.03262055 0.00233795 0.00364089 0.04082684 0.01135946 0.00614279 0.00794923 0.00129058 
0.05458039 0.03527338 0.01087711 0.00297548 0.00142835 0.00154064 0.01247433 0.00316763 0.03278169 0.00231969 0.00361375 0.04150524 0.01145184 0.00623986 0.00807636 0.00128871 
0.05033486 0.03491255 0.01094701 0.00298396 0.00142851 0.00153224 0.01240430 0.00310415 0.03293102 0.00230350 0.00358827 0.04221701 0.01152579 0.00633406 0.00820660 0.00128679 
0.04618915 0.03451059 0.01100836 0.00298886 0.00142697 0.00152454 0.01232794 0.00304423 0.03306785 0.00228928 0.00356437 0.04296390 0.01158101 0.00642524 0.00833988 0.00128482 
0.04215744 0.03407007 0.01106105 0.00299019 0.00142373 0.00151761 0.01224535 0.00298792 0.03319144 0.00227695 0.00354193 0.04374746 0.01161727 0.00651326 0.00847613 0.00128282 
0.03825327 0.03359377 0.01110500 0.00298800 0.00141881 0.00151147 0.01215665 0.00293522 0.03330107 0.00226639 0.00352083 0.04456906 0.01163445 0.00659799 0.00861525 0.00128081 
0.03448953 0.03308473 0.01114015 0.00298237 0.00141225 0.00150617 0.01206198 0.00288612 0.03339600 0.00225749 0.00350094 0.04542986 0.01163250 0.00667931 0.00875711 0.00127880 
0.03087836 0.03254619 0.01116649 0.00297335 0.00140408 0.00150175 0.01196150 0.00284062 0.03347549 0.00225012 0.00348210 0.04633080 0.01161145 0.00675711 0.00890158 0.00127680 
0.02743116 0.03198157 0.01118401 0.00296105 0.00139436 0.00149823 0.01185536 0.00279867 0.03353884 0.00224413 0.00346415 0.04727255 0.01157144 0.00683130 0.00904849 0.00127482 
0.02415851 0.03139448 0.01119275 0.00294557 0.00138312 0.00149564 0.01174376 0.00276021 0.03358535 0.00223940 0.00344692 0.04825552 0.01151269 0.00690179 0.00919768 0.00127289 
0.02107014 0.03078868 0.01119276 0.00292703 0.00137043 0.00149401 0.01162690 0.00272519 0.03361436 0.00223576 0.00343022 0.04927987 0.01143550 0.00696849 0.00934893 0.00127101 
0.01817490 0.03016808 0.01118412 0.00290556 0.00135636 0.00149335 0.01150498 0.00269353 0.03362526 0.00223306 0.00341387 0.05034545 0.01134026 0.00703135 0.00950203 0.00126920 
0.01548072 0.02953667 0.01116694 0.00288129 0.00134098 0.00149367 0.01137825 0.00266515 0.03361749 0.00223116 0.00339768 0.05145181 0.01122745 0.00709029 0.00965674 0.00126747 
0.01299459 0.02889856 0.01114135 0.00285439 0.00132437 0.00149500 0.01124693 0.00263994 0.03359056 0.00222987 0.00338146 0.05259822 0.01109761 0.00714528 0.00981280 0.00126583 
0.01072254 0.02825789 0.01110752 0.00282501 0.00130663 0.00149734 0.01111129 0.00261781 0.03354404 0.00222906 0.00336501 0.05378361 0.01095138 0.00719627 0.00996993 0.00126429 
0.00866962 0.02761889 0.01106563 0.00279332 0.00128784 0.00150068 0.01097159 0.00259864 0.03347759 0.00222855 0.00334814 0.05500662 0.01078947 0.00724323 0.01012783 0.00126287 
0.00683991 0.02698575 0.01101587 0.00275950 0.00126810 0.00150504 0.01082811 0.00258232 0.03339094 0.00222820 0.00333067 0.05626556 0.01061266 0.00728613 0.01028619 0.00126157 
0.00523648 0.02636269 0.01095848 0.00272373 0.00124752 0.00151039 0.01068113 0.00256873 0.03328395 0.00222785 0.00331242 0.05755843 0.01042179 0.00732496 0.01044469 0.00126040 
0.00386142 0.02575388 0.01089371 0.00268620 0.00122620 0.00151674 0.01053096 0.00255775 0.03315655 0.00222735 0.00329320 0.05888294 0.01021778 0.00735971 0.01060297 0.00125937 
0.00271580 0.02516342 0.01082182 0.00264710 0.00120426 0.00152407 0.01037788 0.00254925 0.03300880 0.00222657 0.00327285 0.06023647 0.01000159 0.00739038 0.01076068 0.00125849 
0.00179974 0.02459535 0.01074309 0.00260662 0.00118181 0.00153235 0.01022223 0.00254312 0.03284087 0.00222536 0.00325122 0.06161612 0.00977425 0.00741699 0.01091746 0.00125777 
0.00111238 0.02405358 0.01065784 0.00256497 0.00115897 0.00154158 0.01006430 0.00253924 0.03265306 0.00222360 0.00322816 0.06301871 0.00953682 0.00743954 0.01107292 0.00125720 
0.00065188 0.02354188 0.01056639 0.00252235 0.00113587 0.00155170 0.00990443 0.00253747 0.03244577 0.00222118 0.00320355 0.06444078 0.00929043 0.00745806 0.01122669 0.00125681 
0.00041549 0.02306388 0.01046907 0.00247894 0.00111263 0.00156271 0.00974294 0.00253771 0.03221956 0.00221798 0.00317726 0.06587862 0.00903622 0.00747258 0.01137837 0.00125658 
0.00039956 0.02262302 0.01036623 0.00243495 0.00108936 0.00157456 0.00958017 0.00253984 0.03197509 0.00221392 0.00314919 0.06732829 0.00877538 0.00748313 0.01152757 0.00125652 
0.00059953 0.02222253 0.01025824 0.00239057 0.00106621 0.00158721 0.00941643 0.00254376 0.03171316 0.00220890 0.00311926 0.06878562 0.00850912 0.00748977 0.01167389 0.00125663 
0.00101001 0.02186542 0.01014547 0.00234600 0.00104328 0.00160062 0.00925206 0.00254935 0.03143469 0.00220285 0.00308741 0.07024628 0.00823866 0.00749254 0.01181695 0.00125692 
0.00162481 0.02155447 0.01002831 0.00230142 0.00102072 0.00161474 0.00908740 0.00255653 0.03114075 0.00219571 0.00305358 0.07170572 0.00796525 0.00749151 0.01195636 0.00125738 
0.00243693 0.02129218 0.00990716 0.00225701 0.00099863 0.00162952 0.00892277 0.00256519 0.03083249 0.00218744 0.00301776 0.07315927 0.00769015 0.00748673 0.01209172 0.00125802 
0.00343868 0.02108078 0.00978240 0.00221295 0.00097715 0.00164491 0.00875850 0.00257526 0.03051123 0.00217800 0.00297992 0.07460217 0.00741459 0.00747829 0.01222268 0.00125883 
0.00462166 0.02092221 0.00965445 0.00216941 0.00095639 0.00166085 0.00859492 0.00258665 0.03017834 0.00216738 0.00294009 0.07602952 0.00713983 0.00746627 0.01234887 0.00125980 
0.00597683 0.02081808 0.00952373 0.00212656 0.00093648 0.00167728 0.00843235 0.00259930 0.02983536 0.00215556 0.00289828 0.07743640 0.00686710 0.00745074 0.01246993 0.00126094 
0.00749460 0.02076971 0.00939063 0.00208455 0.00091751 0.00169414 0.00827110 0.00261315 0.02948388 0.00214255 0.00285456 0.07881785 0.00659762 0.00743182 0.01258553 0.00126223 
0.00916479 0.02077809 0.00925557 0.00204352 0.00089961 0.00171137 0.00811147 0.00262812 0.02912559 0.00212838 0.00280899 0.08016892 0.00633258 0.00740960 0.01269537 0.00126368 
0.01097678 0.02084384 0.00911897 0.00200361 0.00088288 0.00172889 0.00795379 0.00264419 0.02876227 0.00211307 0.00276167 0.08148468 0.00607315 0.00738421 0.01279914 0.00126527 
0.01291950 0.02096729 0.00898123 0.00196495 0.00086742 0.00174665 0.00779834 0.00266130 0.02839575 0.00209668 0.00271269 0.08276029 0.00582046 0.00735575 0.01289657 0.00126700 
0.01498152 0.02114838 0.00884277 0.00192765 0.00085332 0.00176456 0.00764540 0.00267943 0.02802793 0.00207927 0.00266220 0.08399100 0.00557559 0.00732437 0.01298743 0.00126886 
0.01715111 0.02138673 0.00870398 0.00189183 0.00084066 0.00178257 0.00749526 0.00269854 0.02766075 0.00206092 0.00261033 0.08517220 0.00533961 0.00729020 0.01307147 0.00127084 
0.01941627 0.02168161 0.00856526 0.00185757 0.00082954 0.00180060 0.00734819 0.00271862 0.02729616 0.00204169 0.00255725 0.08629946 0.00511349 0.00725338 0.01314853 0.00127293 
0.02176479 0.02203193 0.00842699 0.00182497 0.00082003 0.00181857 0.00720445 0.00273966 0.02693615 0.00202170 0.00250314 0.08736853 0.00489819 0.00721408 0.01321843 0.00127512 
0.02418436 0.02243628 0.00828955 0.00179409 0.00081218 0.00183642 0.00706429 0.00276164 0.02658270 0.00200105 0.00244819 0.08837540 0.00469459 0.00717247 0.01328105 0.00127740 
0.02666257 0.02289293 0.00815332 0.00176499 0.00080607 0.00185408 0.00692794 0.00278456 0.02623777 0.00197986 0.00239260 0.08931633 0.00450351 0.00712871 0.01333628 0.00127975 
0.02918699 0.02339979 0.00801864 0.00173772 0.00080174 0.00187148 0.00679563 0.00280843 0.02590329 0.00195825 0.00233660 0.09018785 0.00432569 0.00708299 0.01338406 0.00128217 
0.03174523 0.02395450 0.00788586 0.00171233 0.00079924 0.00188855 0.00666759 0.00283325 0.02558116 0.00193635 0.00228042 0.09098683 0.00416184 0.00703551 0.01342437 0.00128465 
0.03432499 0.02455437 0.00775532 0.00168884 0.00079859 0.00190523 0.00654401 0.00285905 0.02527320 0.00191431 0.00222429 0.09171046 0.00401255 0.00698648 0.01345722 0.00128716 
0.03691412 0.02519647 0.00762733 0.00166726 0.00079983 0.00192145 0.00642509 0.00288582 0.02498118 0.00189227 0.00216847 0.09235631 0.00387836 0.00693610 0.01348263 0.00128970 
0.03950068 0.02587757 0.00750220 0.00164761 0.00080297 0.00193715 0.00631100 0.00291360 0.02470675 0.00187038 0.00211321 0.09292233 0.00375974 0.00688459 0.01350069 0.00129226 
0.04207298 0.02659420 0.00738021 0.00162986 0.00080802 0.00195228 0.00620191 0.00294240 0.02445148 0.00184881 0.00205877 0.09340689 0.00365707 0.00683219 0.01351150 0.00129482 
0.04461962 0.02734268 0.00726164 0.00161401 0.00081498 0.00196678 0.00609797 0.00297225 0.02421682 0.00182771 0.00200540 0.09380877 0.00357065 0.00677913 0.01351523 0.00129737 
0.04712958 0.02811912 0.00714674 0.00160003 0.00082383 0.00198060 0.00599934 0.00300316 0.02400408 0.00180723 0.00195338 0.09412718 0.00350069 0.00672567 0.01351203 0.00129989 
0.04959221 0.02891945 0.00703576 0.00158788 0.00083456 0.00199370 0.00590612 0.00303518 0.02381444 0.00178755 0.00190297 0.09436178 0.00344734 0.00667205 0.01350213 0.00130237 
0.05199732 0.02973944 0.00692893 0.00157752 0.00084713 0.00200604 0.00581844 0.00306831 0.02364892 0.00176882 0.00185443 0.09451269 0.00341065 0.00661853 0.01348577 0.00130480 
0.05433519 0.03057473 0.00682645 0.00156888 0.00086152 0.00201757 0.00573639 0.00310259 0.02350838 0.00175120 0.00180802 0.09458049 0.00339059 0.00656539 0.01346323 0.00130717 
0.05659662 0.03142088 0.00672852 0.00156192 0.00087766 0.00202828 0.00566007 0.00313804 0.02339351 0.00173485 0.00176398 0.09456621 0.00338707 0.00651289 0.01343480 0.00130946 
0.05877298 0.03227335 0.00663532 0.00155657 0.00089551 0.00203814 0.00558954 0.00317468 0.02330482 0.00171992 0.00172257 0.09447135 0.00339989 0.00646131 0.01340082 0.00131166 
0.06085619 0.03312756 0.00654700 0.00155273 0.00091501 0.00204713 0.00552487 0.00321253 0.02324263 0.00170656 0.00168402 0.09429784 0.00342880 0.00641093 0.01336163 0.00131376 
0.06283881 0.03397892 0.00646372 0.00155034 0.00093607 0.00205523 0.00546609 0.00325161 0.02320708 0.00169491 0.00164856 0.09404807 0.00347345 0.00636202 0.01331763 0.00131576 
0.06471403 0.03482283 0.00638561 0.00154930 0.00095863 0.00206244 0.00541324 0.00329194 0.02319812 0.00168510 0.00161640 0.09372488 0.00353343 0.00631487 0.01326919 0.00131763 
0.06647569 0.03565476 0.00631279 0.00154953 0.00098259 0.00206876 0.00536634 0.00333352 0.02321548 0.00167727 0.00158774 0.09333150 0.00360826 0.00626977 0.01321673 0.00131937 
0.06811831 0.03647022 0.00624537 0.00155092 0.00100786 0.00207419 0.00532540 0.00337637 0.02325873 0.00167154 0.00156277 0.09287157 0.00369738 0.00622698 0.01316068 0.00132097 
0.06963711 0.03726483 0.00618343 0.00155338 0.00103434 0.00207875 0.00529039 0.00342048 0.02332723 0.00166800 0.00154166 0.09234912 0.00380017 0.00618679 0.01310148 0.00132242 
0.07102799 0.03803433 0.00612705 0.00155682 0.00106193 0.00208246 0.00526130 0.00346586 0.02342014 0.00166677 0.00152456 0.09176853 0.00391596 0.00614947 0.01303956 0.00132372 
0.07228757 0.03877460 0.00607631 0.00156111 0.00109051 0.00208534 0.00523809 0.00351250 0.02353646 0.00166792 0.00151162 0.09113450 0.00404400 0.00611527 0.01297540 0.00132486 
0.07341316 0.03948172 0.00603126 0.00156617 0.00111996 0.00208741 0.00522071 0.00356039 0.02367499 0.00167154 0.00150293 0.09045205 0.00418351 0.00608447 0.01290942 0.00132583 
0.07440282 0.04015194 0.00599194 0.00157189 0.00115017 0.00208873 0.00520909 0.00360951 0.02383438 0.00167769 0.00149861 0.08972646 0.00433365 0.00605731 0.01284210 0.00132662 
0.07525526 0.04078177 0.00595839 0.00157818 0.00118100 0.00208933 0.00520316 0.00365984 0.02401309 0.00168641 0.00149872 0.08896324 0.00449352 0.00603403 0.01277388 0.00132724 
0.07596994 0.04136795 0.00593063 0.00158492 0.00121233 0.00208926 0.00520282 0.00371135 0.02420945 0.00169775 0.00150331 0.08816812 0.00466221 0.00601484 0.01270520 0.00132768 
0.07654695 0.04190749 0.00590869 0.00159202 0.00124403 0.00208857 0.00520798 0.00376402 0.02442165 0.00171172 0.00151243 0.08734698 0.00483875 0.00599997 0.01263649 0.00132794 
0.07698711 0.04239768 0.00589256 0.00159939 0.00127597 0.00208732 0.00521851 0.00381779 0.02464775 0.00172834 0.00152607 0.08650582 0.00502215 0.00598960 0.01256818 0.00132802 
0.07729185 0.04283614 0.00588226 0.00160693 0.00130800 0.00208557 0.00523429 0.00387263 0.02488570 0.00174761 0.00154423 0.08565074 0.00521140 0.00598392 0.01250067 0.00132792 
0.07746326 0.04322079 0.00587776 0.00161457 0.00133999 0.00208338 0.00525518 0.00392848 0.02513336 0.00176949 0.00156687 0.08478789 0.00540545 0.00598308 0.01243434 0.00132764 
0.07750401 0.04354990 0.00587907 0.00162222 0.00137181 0.00208084 0.00528102 0.00398529 0.02538850 0.00179397 0.00159392 0.08392339 0.00560327 0.00598722 0.01236957 0.00132718 
0.07741738 0.04382209 0.00588615 0.00162981 0.00140332 0.00207800 0.00531165 0.00404300 0.02564885 0.00182098 0.00162530 0.08306337 0.00580379 0.00599647 0.01230669 0.00132654 
0.07720719 0.04403631 0.00589898 0.00163726 0.00143438 0.00207495 0.00534690 0.00410152 0.02591208 0.00185046 0.00166092 0.08221385 0.00600595 0.00601090 0.01224603 0.00132573 
0.07687778 0.04419190 0.00591752 0.00164452 0.00146486 0.00207175 0.00538659 0.00416080 0.02617583 0.00188235 0.00170063 0.08138073 0.00620869 0.00603061 0.01218787 0.00132476 
0.07643400 0.04428857 0.00594174 0.00165153 0.00149463 0.00206850 0.00543051 0.00422074 0.02643776 0.00191654 0.00174430 0.08056977 0.00641095 0.00605562 0.01213248 0.00132363 
0.07588110 0.04432638 0.00597158 0.00165824 0.00152357 0.00206526 0.00547848 0.00428125 0.02669551 0.00195293 0.00179175 0.07978650 0.00661169 0.00608596 0.01208010 0.00132235 
0.07522481 0.04430577 0.00600700 0.00166461 0.00155153 0.00206211 0.00553027 0.00434226 0.02694677 0.00199141 0.00184278 0.07903625 0.00680989 0.00612162 0.01203093 0.00132092 
0.07447117 0.04422755 0.00604793 0.00167061 0.00157841 0.00205914 0.00558568 0.00440365 0.02718929 0.00203184 0.00189720 0.07832403 0.00700454 0.00616257 0.01198513 0.00131935 
0.07362660 0.04409289 0.00609430 0.00167622 0.00160409 0.00205641 0.00564447 0.00446532 0.02742088 0.00207409 0.00195476 0.07765458 0.00719467 0.00620874 0.01194285 0.00131767 
0.07269778 0.04390333 0.00614605 0.00168142 0.00162845 0.00205401 0.00570642 0.00452717 0.02763943 0.00211799 0.00201523 0.07703227 0.00737933 0.00626004 0.01190419 0.00131586 
0.07169166 0.04366072 0.00620310 0.00168621 0.00165139 0.00205200 0.00577130 0.00458908 0.02784295 0.00216338 0.00207834 0.07646112 0.00755761 0.00631635 0.01186923 0.00131395 
0.07061538 0.04336728 0.00626535 0.00169057 0.00167280 0.00205045 0.00583886 0.00465093 0.02802957 0.00221009 0.00214382 0.07594472 0.00772865 0.00637753 0.01183800 0.00131195 
0.06947624 0.04302553 0.00633271 0.00169454 0.00169260 0.00204944 0.00590887 0.00471260 0.02819754 0.00225794 0.00221136 0.07548626 0.00789161 0.00644339 0.01181051 0.00130986 
0.06828165 0.04263830 0.00640509 0.00169811 0.00171068 0.00204901 0.00598107 0.00477396 0.02834528 0.00230673 0.00228067 0.07508846 0.00804572 0.00651373 0.01178675 0.00130771 
0.06703911 0.04220869 0.00648237 0.00170132 0.00172698 0.00204922 0.00605524 0.00483488 0.02847138 0.00235627 0.00235144 0.07475360 0.00819026 0.00658832 0.01176664 0.00130550 
0.06575613 0.04174010 0.00656444 0.00170420 0.00174141 0.00205013 0.00613112 0.00489522 0.02857459 0.00240634 0.00242333 0.07448345 0.00832455 0.00666690 0.01175011 0.00130325 
0.06444021 0.04123612 0.00665115 0.00170679 0.00175392 0.00205179 0.00620846 0.00495485 0.02865387 0.00245675 0.00249603 0.07427930 0.00844798 0.00674919 0.01173705 0.00130098 
0.06309879 0.04070061 0.00674239 0.00170913 0.00176443 0.00205421 0.00628705 0.00501363 0.02870837 0.00250727 0.00256918 0.07414193 0.00855998 0.00683486 0.01172732 0.00129868 
0.06173920 0.04013758 0.00683801 0.00171128 0.00177290 0.00205745 0.00636662 0.00507141 0.02873744 0.00255769 0.00264246 0.07407163 0.00866007 0.00692360 0.01172075 0.00129639 
0.06036865 0.03955123 0.00693784 0.00171330 0.00177929 0.00206153 0.00644697 0.00512805 0.02874065 0.00260779 0.00271551 0.07406817 0.00874781 0.00701505 0.01171716 0.00129411 
0.05899416 0.03894589 0.00704173 0.00171525 0.00178355 0.00206645 0.00652785 0.00518340 0.02871778 0.00265735 0.00278799 0.07413081 0.00882283 0.00710882 0.01171634 0.00129186 
0.05762253 0.03832601 0.00714950 0.00171720 0.00178567 0.00207224 0.00660906 0.00523730 0.02866884 0.00270614 0.00285956 0.07425833 0.00888484 0.00720452 0.01171807 0.00128965 
0.05626031 0.03769610 0.00726097 0.00171922 0.00178563 0.00207889 0.00669037 0.00528961 0.02859405 0.00275396 0.00292988 0.07444899 0.00893359 0.00730175 0.01172211 0.00128749 
0.05491378 0.03706073 0.00737593 0.00172139 0.00178340 0.00208639 0.00677160 0.00534018 0.02849385 0.00280058 0.00299861 0.07470063 0.00896892 0.00740008 0.01172821 0.00128541 
0.05358888 0.03642449 0.00749419 0.00172379 0.00177900 0.00209474 0.00685254 0.00538885 0.02836890 0.00284578 0.00306542 0.07501059 0.00899072 0.00749906 0.01173611 0.00128340 
0.05229123 0.03579196 0.00761552 0.00172650 0.00177242 0.00210391 0.00693303 0.00543547 0.02822006 0.00288938 0.00313000 0.07537579 0.00899897 0.00759825 0.01174555 0.00128149 
0.05102608 0.03516767 0.00773971 0.00172960 0.00176368 0.00211386 0.00701288 0.00547990 0.02804840 0.00293115 0.00319202 0.07579276 0.00899368 0.00769720 0.01175625 0.00127968 
0.04979829 0.03455607 0.00786652 0.00173317 0.00175281 0.00212456 0.00709194 0.00552197 0.02785519 0.00297090 0.00325119 0.07625762 0.00897496 0.00779543 0.01176793 0.00127799 
0.04861228 0.03396154 0.00799570 0.00173730 0.00173982 0.00213597 0.00717007 0.00556155 0.02764187 0.00300846 0.00330722 0.07676617 0.00894297 0.00789249 0.01178034 0.00127643 
0.04747209 0.03338828 0.00812700 0.00174207 0.00172477 0.00214802 0.00724715 0.00559848 0.02741007 0.00304363 0.00335984 0.07731388 0.00889792 0.00798790 0.01179321 0.00127501 
0.04638128 0.03284036 0.00826016 0.00174754 0.00170768 0.00216066 0.00732305 0.00563263 0.02716157 0.00307626 0.00340879 0.07789594 0.00884010 0.00808121 0.01180627 0.00127373 
0.04534298 0.03232166 0.00839492 0.00175381 0.00168862 0.00217382 0.00739768 0.00566384 0.02689828 0.00310617 0.00345383 0.07850731 0.00876984 0.00817196 0.01181928 0.00127261 
0.04435983 0.03183583 0.00853098 0.00176094 0.00166765 0.00218742 0.00747094 0.00569200 0.02662228 0.00313323 0.00349474 0.07914275 0.00868755 0.00825970 0.01183201 0.00127166 
0.04343404 0.03138629 0.00866809 0.00176901 0.00164482 0.00220139 0.00754278 0.00571695 0.02633572 0.00315730 0.00353132 0.07979685 0.00859366 0.00834398 0.01184424 0.00127087 
0.04256732 0.03097618 0.00880593 0.00177806 0.00162021 0.00221562 0.00761313 0.00573859 0.02604087 0.00317826 0.00356338 0.08046411 0.00848869 0.00842439 0.01185577 0.00127026 
0.04176092 0.03060839 0.00894424 0.00178817 0.00159389 0.00223004 0.00768197 0.00575677 0.02574005 0.00319600 0.00359077 0.08113894 0.00837317 0.00850050 0.01186641 0.00126982 
0.04101565 0.03028547 0.00908271 0.00179938 0.00156595 0.00224454 0.00774925 0.00577140 0.02543567 0.00321042 0.00361335 0.08181574 0.00824770 0.00857194 0.01187602 0.00126957 
0.04033182 0.03000966 0.00922104 0.00181173 0.00153649 0.00225902 0.00781498 0.00578236 0.02513014 0.00322145 0.00363100 0.08248893 0.00811290 0.00863831 0.01188446 0.00126950 
0.03970934 0.02978287 0.00935895 0.00182527 0.00150558 0.00227338 0.00787916 0.00578955 0.02482591 0.00322903 0.00364364 0.08315300 0.00796945 0.00869928 0.01189162 0.00126962 
0.03914763 0.02960664 0.00949613 0.00184003 0.00147333 0.00228751 0.00794181 0.00579288 0.02452541 0.00323310 0.00365120 0.08380256 0.00781804 0.00875452 0.01189741 0.00126993 
0.03864574 0.02948219 0.00963229 0.00185601 0.00143985 0.00230130 0.00800296 0.00579227 0.02423104 0.00323364 0.00365363 0.08443237 0.00765940 0.00880373 0.01190180 0.00127042 
0.03820230 0.02941031 0.00976715 0.00187324 0.00140524 0.00231464 0.00806266 0.00578764 0.02394517 0.00323062 0.00365093 0.08503740 0.00749431 0.00884664 0.01190475 0.00127109 
0.03781553 0.02939147 0.00990041 0.00189172 0.00136961 0.00232742 0.00812096 0.00577895 0.02367008 0.00322405 0.00364310 0.08561287 0.00732352 0.00888303 0.01190627 0.00127195 
0.03748334 0.02942573 0.01003180 0.00191143 0.00133307 0.00233953 0.00817793 0.00576612 0.02340798 0.00321394 0.00363018 0.08615428 0.00714785 0.00891267 0.01190640 0.00127298 
0.03720325 0.02951279 0.01016104 0.00193237 0.00129575 0.00235087 0.00823365 0.00574914 0.02316096 0.00320033 0.00361223 0.08665748 0.00696810 0.00893541 0.01190521 0.00127418 
0.03697251 0.02965195 0.01028787 0.00195451 0.00125776 0.00236132 0.00828820 0.00572797 0.02293099 0.00318326 0.00358933 0.08711864 0.00678509 0.00895111 0.01190279 0.00127554 
0.03678808 0.02984216 0.01041204 0.00197781 0.00121922 0.00237077 0.00834168 0.00570260 0.02271991 0.00316280 0.00356159 0.08753437 0.00659966 0.00895967 0.01189927 0.00127705 
0.03664663 0.03008201 0.01053330 0.00200222 0.00118027 0.00237914 0.00839418 0.00567305 0.02252939 0.00313903 0.00352914 0.08790170 0.00641264 0.00896103 0.01189481 0.00127872 
0.03654466 0.03036972 0.01065142 0.00202770 0.00114103 0.00238631 0.00844581 0.00563932 0.02236093 0.00311204 0.00349214 0.08821810 0.00622485 0.00895516 0.01188960 0.00128052 
0.03647843 0.03070317 0.01076619 0.00205417 0.00110162 0.00239221 0.00849667 0.00560146 0.02221583 0.00308195 0.00345076 0.08848154 0.00603713 0.00894209 0.01188385 0.00128245 
0.03644407 0.03107992 0.01087741 0.00208156 0.00106219 0.00239673 0.00854687 0.00555952 0.02209523 0.00304888 0.00340522 0.08869049 0.00585030 0.00892187 0.01187778 0.00128449 
0.03643756 0.03149722 0.01098489 0.00210980 0.00102285 0.00239981 0.00859652 0.00551356 0.02200002 0.00301297 0.00335572 0.08884395 0.00566515 0.00889459 0.01187168 0.00128664 
0.03645482 0.03195202 0.01108845 0.00213878 0.00098374 0.00240137 0.00864572 0.00546368 0.02193090 0.00297436 0.00330251 0.08894145 0.00548249 0.00886039 0.01186582 0.00128888 
0.03649166 0.03244103 0.01118795 0.00216842 0.00094500 0.00240135 0.00869458 0.00540999 0.02188835 0.00293323 0.00324585 0.08898306 0.00530308 0.00881944 0.01186050 0.00129119 
0.03654390 0.03296068 0.01128326 0.00219860 0.00090675 0.00239968 0.00874320 0.00535261 0.02187262 0.00288975 0.00318601 0.08896942 0.00512769 0.00877194 0.01185605 0.00129358 
0.03660735 0.03350719 0.01137425 0.00222921 0.00086914 0.00239632 0.00879166 0.00529168 0.02188372 0.00284411 0.00312328 0.08890172 0.00495702 0.00871815 0.01185281 0.00129601 
0.03667786 0.03407661 0.01146083 0.00226014 0.00083228 0.00239123 0.00884007 0.00522738 0.02192144 0.00279650 0.00305797 0.08878170 0.00479180 0.00865835 0.01185112 0.00129847 
0.03675134 0.03466479 0.01154293 0.00229126 0.00079632 0.00238438 0.00888849 0.00515988 0.02198535 0.00274713 0.00299040 0.08861164 0.00463269 0.00859285 0.01185135 0.00130096 
0.03682382 0.03526747 0.01162049 0.00232243 0.00076138 0.00237575 0.00893699 0.00508941 0.02207479 0.00269622 0.00292090 0.08839437 0.00448033 0.00852202 0.01185387 0.00130345 
0.03689143 0.03588026 0.01169347 0.00235354 0.00072760 0.00236534 0.00898563 0.00501617 0.02218889 0.00264398 0.00284980 0.08813324 0.00433533 0.00844622 0.01185906 0.00130594 
0.03695047 0.03649873 0.01176186 0.00238443 0.00069510 0.00235313 0.00903447 0.00494043 0.02232654 0.00259065 0.00277746 0.08783210 0.00419825 0.00836588 0.01186728 0.00130839 
0.03699745 0.03711837 0.01182565 0.00241498 0.00066401 0.00233914 0.00908352 0.00486245 0.02248646 0.00253646 0.00270423 0.08749529 0.00406963 0.00828145 0.01187891 0.00131081 
0.03702905 0.03773468 0.01188487 0.00244504 0.00063446 0.00232340 0.00913282 0.00478252 0.02266718 0.00248164 0.00263046 0.08712759 0.00394997 0.00819339 0.01189434 0.00131318 
0.03704221 0.03834318 0.01193956 0.00247447 0.00060656 0.00230594 0.00918236 0.00470095 0.02286704 0.00242644 0.00255651 0.08673422 0.00383970 0.00810219 0.01191391 0.00131547 
0.03703410 0.03893944 0.01198979 0.00250314 0.00058044 0.00228679 0.00923215 0.00461807 0.02308421 0.00237110 0.00248275 0.08632080 0.00373925 0.00800838 0.01193799 0.00131768 
0.03700219 0.03951911 0.01203562 0.00253091 0.00055622 0.00226602 0.00928215 0.00453423 0.02331674 0.00231586 0.00240954 0.08589328 0.00364898 0.00791249 0.01196693 0.00131980 
0.03694423 0.04007796 0.01207715 0.00255764 0.00053400 0.00224369 0.00933233 0.00444979 0.02356253 0.00226096 0.00233724 0.08545795 0.00356921 0.00781508 0.01200105 0.00132180 
0.03685827 0.04061191 0.01211449 0.00258319 0.00051391 0.00221987 0.00938264 0.00436515 0.02381938 0.00220665 0.00226619 0.08502139 0.00350022 0.00771671 0.01204066 0.00132368 
0.03674268 0.04111705 0.01214776 0.00260746 0.00049604 0.00219464 0.00943301 0.00428070 0.02408499 0.00215316 0.00219674 0.08459039 0.00344224 0.00761798 0.01208607 0.00132543 
0.03659618 0.04158967 0.01217711 0.00263030 0.00048050 0.00216811 0.00948336 0.00419685 0.02435700 0.00210073 0.00212924 0.08417192 0.00339545 0.00751947 0.01213754 0.00132704 
0.03641779 0.04202630 0.01220268 0.00265160 0.00046738 0.00214037 0.00953359 0.00411405 0.02463299 0.00204958 0.00206402 0.08377313 0.00336000 0.00742178 0.01219532 0.00132848 
0.03620690 0.04242371 0.01222464 0.00267126 0.00045678 0.00211153 0.00958360 0.00403274 0.02491054 0.00199995 0.00200138 0.08340122 0.00333598 0.00732552 0.01225964 0.00132977 
0.03596323 0.04277897 0.01224316 0.00268917 0.00044878 0.00208172 0.00963327 0.00395337 0.02518721 0.00195206 0.00194165 0.08306346 0.00332344 0.00723130 0.01233069 0.00133088 
0.03568686 0.04308943 0.01225841 0.00270524 0.00044347 0.00205105 0.00968246 0.00387642 0.02546056 0.00190610 0.00188510 0.08276710 0.00332238 0.00713972 0.01240863 0.00133181 
0.03537820 0.04335277 0.01227060 0.00271938 0.00044092 0.00201968 0.00973104 0.00380235 0.02572823 0.00186229 0.00183202 0.08251932 0.00333276 0.00705138 0.01249362 0.00133255 
0.03503798 0.04356700 0.01227990 0.00273152 0.00044119 0.00198772 0.00977887 0.00373165 0.02598790 0.00182081 0.00178267 0.08232722 0.00335450 0.00696688 0.01258575 0.00133310 
0.03466730 0.04373048 0.01228651 0.00274160 0.00044435 0.00195534 0.00982578 0.00366480 0.02623735 0.00178184 0.00173728 0.08219770 0.00338747 0.00688681 0.01268510 0.00133346 
0.03426755 0.04384194 0.01229064 0.00274956 0.00045045 0.00192268 0.00987162 0.00360230 0.02647446 0.00174557 0.00169609 0.08213748 0.00343150 0.00681174 0.01279171 0.00133362 
0.03384044 0.04390048 0.01229247 0.00275536 0.00045953 0.00188989 0.00991624 0.00354462 0.02669724 0.00171213 0.00165928 0.08215301 0.00348638 0.00674224 0.01290559 0.00133358 
0.03338796 0.04390557 0.01229222 0.00275896 0.00047164 0.00185713 0.00995946 0.00349227 0.02690385 0.00168168 0.00162705 0.08225043 0.00355185 0.00667884 0.01302672 0.00133334 
0.03291241 0.04385706 0.01229006 0.00276036 0.00048678 0.00182457 0.01000114 0.00344571 0.02709263 0.00165435 0.00159955 0.08243555 0.00362763 0.00662208 0.01315506 0.00133291 
0.03241632 0.04375522 0.01228620 0.00275954 0.00050499 0.00179235 0.01004111 0.00340542 0.02726210 0.00163026 0.00157691 0.08271376 0.00371339 0.00657247 0.01329050 0.00133227 
0.03190246 0.04360066 0.01228080 0.00275651 0.00052626 0.00176066 0.01007923 0.00337187 0.02741097 0.00160951 0.00155926 0.08309003 0.00380876 0.00653047 0.01343293 0.00133145 
0.03137385 0.04339439 0.01227405 0.00275129 0.00055061 0.00172963 0.01011537 0.00334550 0.02753819 0.00159218 0.00154668 0.08356886 0.00391335 0.00649656 0.01358220 0.00133043 
0.03083368 0.04313781 0.01226612 0.00274391 0.00057800 0.00169944 0.01014939 0.00332676 0.02764293 0.00157835 0.00153924 0.08415423 0.00402673 0.00647116 0.01373813 0.00132923 
0.03028531 0.04283265 0.01225714 0.00273441 0.00060841 0.00167025 0.01018118 0.00331605 0.02772459 0.00156807 0.00153699 0.08484959 0.00414844 0.00645468 0.01390051 0.00132785 
0.02973226 0.04248102 0.01224727 0.00272284 0.00064181 0.00164220 0.01021064 0.00331379 0.02778283 0.00156138 0.00153993 0.08565784 0.00427800 0.00644747 0.01406910 0.00132631 
0.02917818 0.04208536 0.01223662 0.00270928 0.00067815 0.00161546 0.01023770 0.00332033 0.02781759 0.00155831 0.00154807 0.08658125 0.00441488 0.00644989 0.01424365 0.00132460 
0.02862678 0.04164843 0.01222532 0.00269379 0.00071737 0.00159016 0.01026229 0.00333603 0.02782903 0.00155886 0.00156137 0.08762151 0.00455855 0.00646223 0.01442385 0.00132275 
0.02808186 0.04117330 0.01221344 0.00267648 0.00075938 0.00156645 0.01028438 0.00336122 0.02781761 0.00156302 0.00157979 0.08877968 0.00470845 0.00648477 0.01460940 0.00132075 
0.02754725 0.04066333 0.01220107 0.00265743 0.00080411 0.00154447 0.01030396 0.00339617 0.02778404 0.00157076 0.00160324 0.09005617 0.00486400 0.00651773 0.01479996 0.00131863 
0.02702680 0.04012211 0.01218826 0.00263676 0.00085146 0.00152433 0.01032104 0.00344114 0.02772930 0.00158205 0.00163164 0.09145074 0.00502459 0.00656131 0.01499518 0.00131638 
0.02652433 0.03955352 0.01217504 0.00261459 0.00090130 0.00150617 0.01033568 0.00349636 0.02765463 0.00159682 0.00166486 0.09296250 0.00518963 0.00661568 0.01519468 0.00131404 
0.02604362 0.03896159 0.01216142 0.00259104 0.00095353 0.00149010 0.01034794 0.00356199 0.02756152 0.00161499 0.00170277 0.09458990 0.00535847 0.00668093 0.01539808 0.00131160 
0.02558837 0.03835058 0.01214740 0.00256625 0.00100799 0.00147621 0.01035793 0.00363819 0.02745172 0.00163647 0.00174520 0.09633076 0.00553048 0.00675717 0.01560496 0.00130909 
0.02516217 0.03772489 0.01213293 0.00254036 0.00106454 0.00146460 0.01036580 0.00372504 0.02732721 0.00166116 0.00179197 0.09818225 0.00570501 0.00684441 0.01581491 0.00130651 
0.02476851 0.03708902 0.01211797 0.00251352 0.00112302 0.00145536 0.01037171 0.00382260 0.02719018 0.00168892 0.00184290 0.10014090 0.00588142 0.00694267 0.01602750 0.00130389 
0.02441070 0.03644761 0.01210243 0.00248588 0.00118324 0.00144856 0.01037589 0.00393088 0.02704303 0.00171964 0.00189776 0.10220264 0.00605905 0.00705189 0.01624229 0.00130123 
0.02409187 0.03580533 0.01208621 0.00245760 0.00124502 0.00144425 0.01037856 0.00404983 0.02688838 0.00175314 0.00195633 0.10436282 0.00623725 0.00717201 0.01645883 0.00129855 
0.02381499 0.03516688 0.01206916 0.00242884 0.00130816 0.00144249 0.01038002 0.00417936 0.02672898 0.00178928 0.00201836 0.10661621 0.00641536 0.00730288 0.01667666 0.00129587 
0.02358275 0.03453700 0.01205115 0.00239977 0.00137245 0.00144332 0.01038057 0.00431935 0.02656777 0.00182787 0.00208361 0.10895705 0.00659273 0.00744435 0.01689533 0.00129320 
0.02339764 0.03392034 0.01203197 0.00237054 0.00143766 0.00144676 0.01038056 0.00446959 0.02640780 0.00186871 0.00215181 0.11137906 0.00676873 0.00759623 0.01711438 0.00129055 
0.02326188 0.03332155 0.01201144 0.00234132 0.00150357 0.00145282 0.01038038 0.00462984 0.02625224 0.00191162 0.00222267 0.11387551 0.00694272 0.00775825 0.01733333 0.00128795 
0.02317739 0.03274513 0.01198932 0.00231228 0.00156993 0.00146151 0.01038044 0.00479982 0.02610432 0.00195639 0.00229592 0.11643923 0.00711409 0.00793015 0.01755173 0.00128540 
0.02314583 0.03219550 0.01196536 0.00228358 0.00163649 0.00147282 0.01038119 0.00497917 0.02596735 0.00200278 0.00237127 0.11906263 0.00728222 0.00811161 0.01776910 0.00128292 
0.02316853 0.03167692 0.01193928 0.00225537 0.00170299 0.00148671 0.01038310 0.00516752 0.02584467 0.00205057 0.00244842 0.12173781 0.00744654 0.00830227 0.01798498 0.00128052 
0.02324652 0.03119345 0.01191079 0.00222782 0.00176918 0.00150316 0.01038667 0.00536441 0.02573961 0.00209954 0.00252707 0.12445653 0.00760647 0.00850174 0.01819891 0.00127821 
0.02338048 0.03074897 0.01187958 0.00220107 0.00183478 0.00152212 0.01039243 0.00556934 0.02565548 0.00214943 0.00260692 0.12721030 0.00776147 0.00870959 0.01841042 0.00127602 
0.02357079 0.03034712 0.01184531 0.00217528 0.00189952 0.00154351 0.01040094 0.00578179 0.02559556 0.00220001 0.00268767 0.12999042 0.00791101 0.00892537 0.01861905 0.00127393 
0.02381747 0.02999129 0.01180763 0.00215058 0.00196311 0.00156728 0.01041275 0.00600116 0.02556302 0.00225101 0.00276901 0.13278801 0.00805460 0.00914859 0.01882436 0.00127198 
0.02412021 0.02968459 0.01176617 0.00212710 0.00202529 0.00159333 0.01042846 0.00622682 0.02556093 0.00230219 0.00285066 0.13559409 0.00819178 0.00937873 0.01902589 0.00127016 
0.02447836 0.02942984 0.01172057 0.00210497 0.00208576 0.00162157 0.01044865 0.00645809 0.02559225 0.00235330 0.00293231 0.13839960 0.00832210 0.00961524 0.01922319 0.00126849 
0.02489093 0.02922956 0.01167042 0.00208430 0.00214426 0.00165189 0.01047394 0.00669426 0.02565975 0.00240408 0.00301368 0.14119548 0.00844516 0.00985754 0.01941582 0.00126697 
0.02535659 0.02908593 0.01161534 0.00206520 0.00220050 0.00168417 0.01050493 0.00693458 0.02576602 0.00245427 0.00309449 0.14397267 0.00856059 0.01010503 0.01960335 0.00126562 
0.02587370 0.02900079 0.01155492 0.00204778 0.00225421 0.00171828 0.01054224 0.00717826 0.02591345 0.00250363 0.00317445 0.14672222 0.00866805 0.01035709 0.01978533 0.00126443 
0.02644028 0.02897565 0.01148875 0.00203211 0.00230513 0.00175410 0.01058646 0.00742449 0.02610418 0.00255190 0.00325331 0.14943529 0.00876725 0.01061307 0.01996135 0.00126341 
0.02705405 0.02901166 0.01141644 0.00201828 0.00235298 0.00179147 0.01063819 0.00767242 0.02634010 0.00259885 0.00333082 0.15210322 0.00885791 0.01087231 0.02013099 0.00126256 
0.02771244 0.02910958 0.01133759 0.00200635 0.00239752 0.00183023 0.01069803 0.00792117 0.02662282 0.00264424 0.00340673 0.15471757 0.00893983 0.01113412 0.02029382 0.00126189 
0.02841257 0.02926984 0.01125179 0.00199637 0.00243850 0.00187024 0.01076652 0.00816986 0.02695366 0.00268783 0.00348080 0.15727015 0.00901282 0.01139782 0.02044943 0.00126140 
0.02915132 0.02949249 0.01115868 0.00198840 0.00247569 0.00191131 0.01084422 0.00841759 0.02733362 0.00272940 0.00355283 0.15975308 0.00907673 0.01166269 0.02059742 0.00126108 
0.02992530 0.02977723 0.01105787 0.00198247 0.00250887 0.00195329 0.01093163 0.00866343 0.02776336 0.00276875 0.00362262 0.16215881 0.00913148 0.01192801 0.02073739 0.00126095 
0.03073088 0.03012338 0.01094902 0.00197860 0.00253784 0.00199599 0.01102924 0.00890645 0.02824322 0.00280567 0.00368997 0.16448019 0.00917699 0.01219305 0.02086894 0.00126098 
0.03156424 0.03052994 0.01083180 0.00197680 0.00256241 0.00203923 0.01113750 0.00914574 0.02877318 0.00283997 0.00375471 0.16671043 0.00921327 0.01245709 0.02099168 0.00126119 
0.03242134 0.03099555 0.01070591 0.00197709 0.00258240 0.00208282 0.01125680 0.00938037 0.02935285 0.00287147 0.00381669 0.16884323 0.00924033 0.01271939 0.02110524 0.00126157 
0.03329797 0.03151852 0.01057107 0.00197944 0.00259767 0.00212659 0.01138751 0.00960940 0.02998150 0.00290002 0.00387577 0.17087270 0.00925824 0.01297922 0.02120922 0.00126211 
0.03418978 0.03209686 0.01042705 0.00198385 0.00260807 0.00217035 0.01152992 0.00983194 0.03065800 0.00292545 0.00393184 0.17279347 0.00926711 0.01323583 0.02130328 0.00126280 
0.03509230 0.03272826 0.01027363 0.00199028 0.00261351 0.00221390 0.01168430 0.01004710 0.03138088 0.00294765 0.00398477 0.17460067 0.00926710 0.01348850 0.02138704 0.00126364 
0.03600093 0.03341015 0.01011066 0.00199871 0.00261390 0.00225706 0.01185083 0.01025399 0.03214829 0.00296648 0.00403450 0.17628994 0.00925840 0.01373652 0.02146015 0.00126462 
0.03691100 0.03413968 0.00993802 0.00200910 0.00260916 0.00229965 0.01202964 0.01045176 0.03295804 0.00298186 0.00408095 0.17785746 0.00924123 0.01397916 0.02152228 0.00126573 
0.03781781 0.03491379 0.00975565 0.00202140 0.00259927 0.00234149 0.01222080 0.01063961 0.03380755 0.00299370 0.00412408 0.17929996 0.00921586 0.01421573 0.02157310 0.00126696 
0.03871660 0.03572918 0.00956353 0.00203555 0.00258420 0.00238240 0.01242431 0.01081675 0.03469394 0.00300194 0.00416383 0.18061470 0.00918259 0.01444554 0.02161229 0.00126830 
0.03960261 0.03658236 0.00936170 0.00205149 0.00256397 0.00242221 0.01264009 0.01098244 0.03561397 0.00300653 0.00420021 0.18179950 0.00914175 0.01466792 0.02163955 0.00126974 
0.04047111 0.03746968 0.00915026 0.00206917 0.00253863 0.00246074 0.01286799 0.01113596 0.03656412 0.00300745 0.00423321 0.18285274 0.00909373 0.01488222 0.02165459 0.00127127 
0.04131741 0.03838733 0.00892939 0.00208851 0.00250824 0.00249784 0.01310780 0.01127668 0.03754054 0.00300470 0.00426285 0.18377334 0.00903891 0.01508783 0.02165713 0.00127287 
0.04213688 0.03933143 0.00869930 0.00210945 0.00247290 0.00253336 0.01335921 0.01140397 0.03853912 0.00299828 0.00428917 0.18456073 0.00897772 0.01528412 0.02164695 0.00127454 
0.04292500 0.04029797 0.00846031 0.00213191 0.00243274 0.00256715 0.01362185 0.01151731 0.03955551 0.00298824 0.00431220 0.18521491 0.00891061 0.01547053 0.02162379 0.00127625 
0.04367735 0.04128290 0.00821279 0.00215584 0.00238790 0.00259908 0.01389527 0.01161619 0.04058511 0.00297462 0.00433203 0.18573636 0.00883805 0.01564650 0.02158746 0.00127800 
0.04438964 0.04228213 0.00795718 0.00218115 0.00233857 0.00262901 0.01417895 0.01170018 0.04162313 0.00295751 0.00434872 0.18612609 0.00876054 0.01581152 0.02153778 0.00127978 
0.04505777 0.04329160 0.00769399 0.00220778 0.00228496 0.00265684 0.01447226 0.01176892 0.04266461 0.00293699 0.00436237 0.18638555 0.00867859 0.01596510 0.02147460 0.00128156 
0.04567778 0.04430722 0.00742384 0.00223566 0.00222731 0.00268245 0.01477454 0.01182211 0.04370444 0.00291318 0.00437308 0.18651669 0.00859272 0.01610679 0.02139780 0.00128334 
0.04624594 0.04532499 0.00714739 0.00226474 0.00216588 0.00270576 0.01508504 0.01185952 0.04473739 0.00288621 0.00438098 0.18652186 0.00850346 0.01623617 0.02130729 0.00128510 
0.04675871 0.04634099 0.00686540 0.00229495 0.00210096 0.00272668 0.01540292 0.01188099 0.04575816 0.00285624 0.00438619 0.18640385 0.00841137 0.01635286 0.02120302 0.00128683 
0.04721281 0.04735138 0.00657870 0.00232624 0.00203287 0.00274515 0.01572731 0.01188642 0.04676140 0.00282344 0.00438886 0.18616582 0.00831698 0.01645652 0.02108498 0.00128852 
0.04760521 0.04835246 0.00628819 0.00235857 0.00196195 0.00276111 0.01605723 0.01187579 0.04774174 0.00278798 0.00438913 0.18581131 0.00822085 0.01654686 0.02095320 0.00129015 
0.04793312 0.04934068 0.00599487 0.00239189 0.00188856 0.00277453 0.01639168 0.01184918 0.04869384 0.00275008 0.00438717 0.18534418 0.00812352 0.01662361 0.02080775 0.00129172 
0.04819406 0.05031266 0.00569980 0.00242618 0.00181308 0.00278536 0.01672958 0.01180669 0.04961239 0.00270995 0.00438313 0.18476859 0.00802555 0.01668657 0.02064875 0.00129321 
0.04838583 0.05126521 0.00540410 0.00246141 0.00173591 0.00279360 0.01706981 0.01174854 0.05049220 0.00266783 0.00437720 0.18408900 0.00792745 0.01673555 0.02047637 0.00129460 
0.04850653 0.05219534 0.00510899 0.00249756 0.00165748 0.00279926 0.01741119 0.01167500 0.05132818 0.00262396 0.00436955 0.18331008 0.00782976 0.01677044 0.02029083 0.00129590 
0.04855458 0.05310030 0.00481574 0.00253462 0.00157823 0.00280234 0.01775251 0.01158642 0.05211541 0.00257859 0.00436036 0.18243675 0.00773298 0.01679115 0.02009240 0.00129709 
0.04852874 0.05397758 0.00452568 0.00257260 0.00149859 0.00280287 0.01809252 0.01148321 0.05284915 0.00253201 0.00434982 0.18147412 0.00763762 0.01679765 0.01988141 0.00129817 
0.04842806 0.05482490 0.00424021 0.00261151 0.00141904 0.00280090 0.01842996 0.01136586 0.05352489 0.00248450 0.00433813 0.18042744 0.00754413 0.01678996 0.01965824 0.00129911 
0.04825195 0.05564027 0.00396078 0.00265136 0.00134005 0.00279648 0.01876351 0.01123491 0.05413837 0.00243633 0.00432548 0.17930212 0.00745298 0.01676812 0.01942335 0.00129993 
0.04800018 0.05642194 0.00368889 0.00269217 0.00126209 0.00278968 0.01909186 0.01109099 0.05468562 0.00238780 0.00431205 0.17810364 0.00736459 0.01673225 0.01917723 0.00130061 
0.04767281 0.05716846 0.00342608 0.00273400 0.00118564 0.00278059 0.01941371 0.01093478 0.05516296 0.00233922 0.00429804 0.17683761 0.00727936 0.01668250 0.01892046 0.00130114 
0.04727030 0.05787864 0.00317393 0.00277687 0.00111120 0.00276930 0.01972771 0.01076699 0.05556707 0.00229089 0.00428364 0.17550967 0.00719766 0.01661906 0.01865367 0.00130153 
0.04679342 0.05855156 0.00293406 0.00282085 0.00103923 0.00275591 0.02003256 0.01058844 0.05589498 0.00224312 0.00426904 0.17412548 0.00711983 0.01654218 0.01837756 0.00130177 
0.04624329 0.05918661 0.00270808 0.00286598 0.00097023 0.00274056 0.02032696 0.01039995 0.05614413 0.00219621 0.00425443 0.17269074 0.00704618 0.01645215 0.01809287 0.00130186 
0.04562139 0.05978342 0.00249764 0.00291233 0.00090466 0.00272338 0.02060963 0.01020241 0.05631233 0.00215047 0.00423998 0.17121111 0.00697697 0.01634930 0.01780044 0.00130180 
0.04492951 0.06034189 0.00230440 0.00295999 0.00084299 0.00270449 0.02087932 0.00999676 0.05639784 0.00210620 0.00422587 0.16969224 0.00691245 0.01623400 0.01750115 0.00130158 
0.04416979 0.06086219 0.00213000 0.00300900 0.00078567 0.00268406 0.02113481 0.00978395 0.05639936 0.00206371 0.00421228 0.16813973 0.00685282 0.01610668 0.01719594 0.00130122 
0.04334470 0.06134474 0.00197608 0.00305947 0.00073314 0.00266225 0.02137494 0.00956499 0.05631602 0.00202329 0.00419936 0.16655908 0.00679823 0.01596779 0.01688584 0.00130070 
0.04245702 0.06179018 0.00184424 0.00311146 0.00068582 0.00263922 0.02159858 0.00934091 0.05614743 0.00198522 0.00418728 0.16495576 0.00674882 0.01581783 0.01657190 0.00130005 
0.04150984 0.06219938 0.00173606 0.00316506 0.00064410 0.00261515 0.02180469 0.00911275 0.05589368 0.00194978 0.00417617 0.16333510 0.00670467 0.01565735 0.01625525 0.00129925 
0.04050657 0.06257342 0.00165308 0.00322034 0.00060837 0.00259023 0.02199225 0.00888158 0.05555532 0.00191725 0.00416618 0.16170233 0.00666584 0.01548690 0.01593707 0.00129832 
0.03945088 0.06291357 0.00159679 0.00327740 0.00057898 0.00256463 0.02216035 0.00864850 0.05513336 0.00188786 0.00415744 0.16006255 0.00663233 0.01530711 0.01561859 0.00129726 
0.03834674 0.06322125 0.00156860 0.00333630 0.00055625 0.00253856 0.02230814 0.00841457 0.05462933 0.00186188 0.00415007 0.15842076 0.00660412 0.01511861 0.01530108 0.00129608 
0.03719838 0.06349805 0.00156987 0.00339712 0.00054048 0.00251220 0.02243485 0.00818090 0.05404519 0.00183951 0.00414416 0.15678176 0.00658115 0.01492206 0.01498588 0.00129478 
0.03601028 0.06374569 0.00160186 0.00345992 0.00053193 0.00248575 0.02253980 0.00794857 0.05338339 0.00182097 0.00413983 0.15515024 0.00656333 0.01471816 0.01467434 0.00129338 
0.03478715 0.06396597 0.00166575 0.00352477 0.00053084 0.00245942 0.02262240 0.00771865 0.05264681 0.00180646 0.00413715 0.15353070 0.00655052 0.01450764 0.01436785 0.00129189 
0.03353394 0.06416082 0.00176259 0.00359171 0.00053739 0.00243339 0.02268216 0.00749220 0.05183878 0.00179615 0.00413619 0.15192749 0.00654256 0.01429124 0.01406783 0.00129031 
0.03225578 0.06433220 0.00189336 0.00366078 0.00055175 0.00240786 0.02271869 0.00727028 0.05096308 0.00179019 0.00413701 0.15034478 0.00653926 0.01406972 0.01377574 0.00128865 
0.03095800 0.06448211 0.00205888 0.00373202 0.00057404 0.00238304 0.02273170 0.00705388 0.05002386 0.00178871 0.00413966 0.14878655 0.00654040 0.01384386 0.01349302 0.00128693 
0.02964608 0.06461258 0.00225985 0.00380543 0.00060432 0.00235910 0.02272099 0.00684401 0.04902567 0.00179183 0.00414417 0.14725659 0.00654572 0.01361447 0.01322116 0.00128516 
0.02832566 0.06472563 0.00249683 0.00388102 0.00064264 0.00233624 0.02268649 0.00664160 0.04797343 0.00179964 0.00415055 0.14575851 0.00655495 0.01338233 0.01296162 0.00128335 
0.02700250 0.06482324 0.00277024 0.00395877 0.00068900 0.00231463 0.02262822 0.00644757 0.04687239 0.00181219 0.00415882 0.14429572 0.00656779 0.01314827 0.01271588 0.00128152 
0.02568247 0.06490735 0.00308034 0.00403866 0.00074334 0.00229445 0.02254632 0.00626279 0.04572810 0.00182955 0.00416895 0.14287142 0.00658393 0.01291311 0.01248539 0.00127967 
0.02437152 0.06497983 0.00342721 0.00412063 0.00080559 0.00227586 0.02244103 0.00608806 0.04454640 0.00185171 0.00418093 0.14148861 0.00660302 0.01267766 0.01227159 0.00127782 
0.02307564 0.06504244 0.00381079 0.00420461 0.00087560 0.00225902 0.02231270 0.00592416 0.04333338 0.00187869 0.00419472 0.14015010 0.00662472 0.01244274 0.01207588 0.00127597 
0.02180089 0.06509686 0.00423081 0.00429051 0.00095320 0.00224409 0.02216178 0.00577178 0.04209533 0.00191044 0.00421027 0.13885845 0.00664867 0.01220918 0.01189965 0.00127416 
0.02055332 0.06514462 0.00468687 0.00437823 0.00103818 0.00223118 0.02198883 0.00563158 0.04083873 0.00194691 0.00422750 0.13761603 0.00667448 0.01197777 0.01174421 0.00127237 
0.01933897 0.06518712 0.00517834 0.00446765 0.00113027 0.00222045 0.02179451 0.00550415 0.03957019 0.00198803 0.00424635 0.13642499 0.00670178 0.01174932 0.01161085 0.00127064 
0.01816386 0.06522558 0.00570444 0.00455859 0.00122918 0.00221198 0.02157957 0.00538998 0.03829645 0.00203370 0.00426673 0.13528726 0.00673018 0.01152459 0.01150078 0.00126897 
0.01703393 0.06526108 0.00626418 0.00465091 0.00133456 0.00220590 0.02134487 0.00528954 0.03702428 0.00208378 0.00428852 0.13420453 0.00675930 0.01130437 0.01141514 0.00126737 
0.01595504 0.06529449 0.00685639 0.00474439 0.00144605 0.00220228 0.02109135 0.00520320 0.03576051 0.00213813 0.00431162 0.13317829 0.00678875 0.01108939 0.01135501 0.00126586 
0.01493295 0.06532652 0.00747973 0.00483884 0.00156322 0.00220120 0.02082003 0.00513126 0.03451195 0.00219659 0.00433589 0.13220978 0.00681815 0.01088038 0.01132137 0.00126445 
0.01397327 0.06535766 0.00813266 0.00493401 0.00168562 0.00220273 0.02053202 0.00507396 0.03328534 0.00225894 0.00436120 0.13130002 0.00684712 0.01067803 0.01131511 0.00126314 
0.01308145 0.06538821 0.00881346 0.00502965 0.00181279 0.00220690 0.02022851 0.00503144 0.03208737 0.00232499 0.00438741 0.13044978 0.00687530 0.01048301 0.01133702 0.00126196 
0.01226276 0.06541826 0.00952024 0.00512548 0.00194420 0.00221374 0.01991074 0.00500380 0.03092457 0.00239451 0.00441435 0.12965962 0.00690233 0.01029595 0.01138779 0.00126090 
0.01152225 0.06544772 0.01025092 0.00522122 0.00207931 0.00222329 0.01958003 0.00499103 0.02980331 0.00246723 0.00444187 0.12892985 0.00692786 0.01011746 0.01146799 0.00125998 
0.01086474 0.06547626 0.01100328 0.00531655 0.00221757 0.00223552 0.01923775 0.00499307 0.02872977 0.00254289 0.00446978 0.12826056 0.00695158 0.00994810 0.01157807 0.00125920 
0.01029479 0.06550340 0.01177492 0.00541115 0.00235838 0.00225043 0.01888531 0.00500976 0.02770988 0.00262121 0.00449792 0.12765158 0.00697317 0.00978840 0.01171836 0.00125859 
0.00981667 0.06552844 0.01256329 0.00550467 0.00250115 0.00226799 0.01852418 0.00504089 0.02674931 0.00270188 0.00452609 0.12710252 0.00699234 0.00963884 0.01188904 0.00125813 
0.00943436 0.06555050 0.01336573 0.00559677 0.00264524 0.00228816 0.01815586 0.00508616 0.02585339 0.00278460 0.00455412 0.12661276 0.00700882 0.00949986 0.01209020 0.00125785 
0.00915148 0.06556854 0.01417941 0.00568708 0.00279004 0.00231087 0.01778186 0.00514522 0.02502716 0.00286905 0.00458181 0.12618145 0.00702237 0.00937188 0.01232174 0.00125774 
0.00897133 0.06558135 0.01500140 0.00577523 0.00293488 0.00233605 0.01740374 0.00521762 0.02427524 0.00295489 0.00460896 0.12580751 0.00703278 0.00925523 0.01258344 0.00125781 
0.00889684 0.06558758 0.01582867 0.00586083 0.00307913 0.00236362 0.01702304 0.00530289 0.02360188 0.00304177 0.00463540 0.12548962 0.00703983 0.00915022 0.01287496 0.00125807 
0.00893053 0.06558575 0.01665809 0.00594351 0.00322213 0.00239346 0.01664134 0.00540044 0.02301092 0.00312936 0.00466092 0.12522627 0.00704337 0.00905712 0.01319577 0.00125852 
0.00907453 0.06557425 0.01748646 0.00602289 0.00336324 0.00242548 0.01626018 0.00550967 0.02250572 0.00321730 0.00468534 0.12501572 0.00704325 0.00897613 0.01354524 0.00125917 
0.00933056 0.06555141 0.01831051 0.00609857 0.00350180 0.00245953 0.01588112 0.00562990 0.02208920 0.00330524 0.00470847 0.12485602 0.00703936 0.00890740 0.01392255 0.00126000 
0.00969988 0.06551545 0.01912693 0.00617017 0.00363718 0.00249549 0.01550568 0.00576040 0.02176378 0.00339281 0.00473012 0.12474504 0.00703161 0.00885105 0.01432677 0.00126104 
0.01018331 0.06546455 0.01993237 0.00623732 0.00376875 0.00253320 0.01513538 0.00590039 0.02153140 0.00347967 0.00475013 0.12468046 0.00701996 0.00880714 0.01475681 0.00126227 
0.01078122 0.06539684 0.02072349 0.00629965 0.00389592 0.00257251 0.01477169 0.00604906 0.02139346 0.00356547 0.00476833 0.12465977 0.00700436 0.00877566 0.01521146 0.00126370 
0.01149351 0.06531045 0.02149692 0.00635680 0.00401807 0.00261324 0.01441605 0.00620555 0.02135086 0.00364986 0.00478455 0.12468029 0.00698482 0.00875657 0.01568934 0.00126533 
0.01231959 0.06520351 0.02224934 0.00640843 0.00413465 0.00265523 0.01406984 0.00636895 0.02140397 0.00373249 0.00479864 0.12473922 0.00696137 0.00874978 0.01618897 0.00126715 
0.01325840 0.06507417 0.02297747 0.00645421 0.00424511 0.00269829 0.01373441 0.00653835 0.02155262 0.00381303 0.00481047 0.12483358 0.00693407 0.00875514 0.01670873 0.00126917 
0.01430840 0.06492065 0.02367806 0.00649384 0.00434893 0.00274223 0.01341104 0.00671280 0.02179612 0.00389116 0.00481990 0.12496030 0.00690301 0.00877247 0.01724689 0.00127137 
0.01546756 0.06474121 0.02434798 0.00652702 0.00444563 0.00278687 0.01310094 0.00689133 0.02213324 0.00396656 0.00482682 0.12511618 0.00686830 0.00880151 0.01780159 0.00127377 
0.01673336 0.06453423 0.02498415 0.00655350 0.00453476 0.00283199 0.01280528 0.00707297 0.02256224 0.00403895 0.00483114 0.12529794 0.00683007 0.00884198 0.01837089 0.00127634 
0.01810281 0.06429818 0.02558364 0.00657303 0.00461590 0.00287741 0.01252512 0.00725672 0.02308086 0.00410802 0.00483276 0.12550223 0.00678850 0.00889355 0.01895273 0.00127909 
0.01957245 0.06403167 0.02614361 0.00658540 0.00468868 0.00292292 0.01226147 0.00744160 0.02368635 0.00417351 0.00483160 0.12572563 0.00674376 0.00895584 0.01954497 0.00128201 
0.02113834 0.06373345 0.02666141 0.00659044 0.00475276 0.00296832 0.01201524 0.00762661 0.02437545 0.00423516 0.00482763 0.12596470 0.00669607 0.00902844 0.02014541 0.00128510 
0.02279610 0.06340244 0.02713451 0.00658799 0.00480784 0.00301342 0.01178727 0.00781077 0.02514445 0.00429274 0.00482079 0.12621598 0.00664566 0.00911089 0.02075176 0.00128834 
0.02454090 0.06303773 0.02756058 0.00657795 0.00485368 0.00305800 0.01157829 0.00799312 0.02598921 0.00434604 0.00481108 0.12647601 0.00659278 0.00920268 0.02136170 0.00129173 
0.02636749 0.06263860 0.02793748 0.00656023 0.00489006 0.00310189 0.01138896 0.00817271 0.02690513 0.00439484 0.00479847 0.12674135 0.00653769 0.00930331 0.02197283 0.00129526 
0.02827021 0.06220455 0.02826326 0.00653480 0.00491684 0.00314488 0.01121984 0.00834861 0.02788724 0.00443898 0.00478299 0.12700862 0.00648069 0.00941219 0.02258276 0.00129892 
0.03024300 0.06173527 0.02853623 0.00650164 0.00493390 0.00318678 0.01107138 0.00851993 0.02893018 0.00447830 0.00476468 0.12727451 0.00642207 0.00952875 0.02318906 0.00130270 
0.03227947 0.06123068 0.02875488 0.00646078 0.00494116 0.00322742 0.01094395 0.00868580 0.03002828 0.00451267 0.00474357 0.12753576 0.00636214 0.00965236 0.02378929 0.00130658 
0.03437285 0.06069092 0.02891796 0.00641231 0.00493863 0.00326662 0.01083780 0.00884539 0.03117553 0.00454197 0.00471974 0.12778927 0.00630123 0.00978237 0.02438103 0.00131057 
0.03651606 0.06011639 0.02902449 0.00635632 0.00492631 0.00330422 0.01075311 0.00899793 0.03236567 0.00456611 0.00469327 0.12803202 0.00623967 0.00991814 0.02496186 0.00131464 
0.03870177 0.05950767 0.02907371 0.00629297 0.00490430 0.00334005 0.01068993 0.00914267 0.03359220 0.00458502 0.00466427 0.12826115 0.00617779 0.01005896 0.02552940 0.00131879 
0.04092234 0.05886561 0.02906517 0.00622244 0.00487271 0.00337397 0.01064824 0.00927894 0.03484841 0.00459867 0.00463285 0.12847399 0.00611593 0.01020416 0.02608134 0.00132299 
0.04316995 0.05819127 0.02899864 0.00614497 0.00483171 0.00340584 0.01062789 0.00940608 0.03612743 0.00460703 0.00459915 0.12866800 0.00605446 0.01035301 0.02661539 0.00132724 
0.04543656 0.05748595 0.02887421 0.00606080 0.00478151 0.00343552 0.01062867 0.00952354 0.03742229 0.00461009 0.00456332 0.12884087 0.00599370 0.01050480 0.02712934 0.00133152 
0.04771399 0.05675114 0.02869221 0.00597024 0.00472237 0.00346289 0.01065024 0.00963078 0.03872590 0.00460788 0.00452552 0.12899051 0.00593401 0.01065881 0.02762109 0.00133582 
0.04999394 0.05598856 0.02845327 0.00587362 0.00465457 0.00348786 0.01069218 0.00972734 0.04003115 0.00460045 0.00448593 0.12911502 0.00587573 0.01081431 0.02808859 0.00134011 
0.05226800 0.05520011 0.02815828 0.00577130 0.00457846 0.00351032 0.01075400 0.00981284 0.04133094 0.00458785 0.00444473 0.12921278 0.00581920 0.01097057 0.02852993 0.00134439 
0.05452776 0.05438789 0.02780841 0.00566369 0.00449440 0.00353019 0.01083510 0.00988695 0.04261817 0.00457018 0.00440214 0.12928239 0.00576474 0.01112689 0.02894331 0.00134864 
0.05676475 0.05355415 0.02740510 0.00555121 0.00440280 0.00354739 0.01093480 0.00994939 0.04388586 0.00454754 0.00435835 0.12932272 0.00571269 0.01128254 0.02932705 0.00135283 
0.05897057 0.05270131 0.02695004 0.00543432 0.00430410 0.00356187 0.01105234 0.00999998 0.04512713 0.00452004 0.00431359 0.12933289 0.00566336 0.01143684 0.02967961 0.00135696 
0.06113688 0.05183191 0.02644521 0.00531349 0.00419875 0.00357358 0.01118689 0.01003857 0.04633525 0.00448784 0.00426809 0.12931232 0.00561703 0.01158908 0.02999960 0.00136100 
0.06325544 0.05094862 0.02589279 0.00518923 0.00408725 0.00358247 0.01133754 0.01006511 0.04750370 0.00445109 0.00422207 0.12926069 0.00557401 0.01173860 0.03028577 0.00136493 
0.06531817 0.05005420 0.02529524 0.00506205 0.00397012 0.00358853 0.01150334 0.01007960 0.04862617 0.00440996 0.00417576 0.12917795 0.00553455 0.01188475 0.03053704 0.00136874 
0.06731716 0.04915147 0.02465523 0.00493249 0.00384789 0.00359174 0.01168324 0.01008211 0.04969663 0.00436465 0.00412942 0.12906433 0.00549892 0.01202691 0.03075251 0.00137240 
0.06924474 0.04824333 0.02397562 0.00480111 0.00372111 0.00359210 0.01187618 0.01007276 0.05070936 0.00431534 0.00408327 0.12892036 0.00546736 0.01216448 0.03093144 0.00137589 
0.07109350 0.04733269 0.02325952 0.00466845 0.00359035 0.00358962 0.01208101 0.01005175 0.05165896 0.00426227 0.00403755 0.12874681 0.00544007 0.01229688 0.03107327 0.00137920 
0.07285632 0.04642249 0.02251018 0.00453510 0.00345618 0.00358432 0.01229656 0.01001934 0.05254038 0.00420565 0.00399250 0.12854475 0.00541725 0.01242357 0.03117762 0.00138230 
0.07452641 0.04551562 0.02173104 0.00440162 0.00331919 0.00357622 0.01252162 0.00997584 0.05334898 0.00414572 0.00394835 0.12831548 0.00539908 0.01254406 0.03124431 0.00138517 
0.07609735 0.04461496 0.02092569 0.00426858 0.00317997 0.00356537 0.01275496 0.00992162 0.05408051 0.00408272 0.00390533 0.12806059 0.00538571 0.01265786 0.03127332 0.00138779 
0.07756311 0.04372333 0.02009786 0.00413655 0.00303911 0.00355182 0.01299530 0.00985709 0.05473117 0.00401691 0.00386367 0.12778187 0.00537727 0.01276455 0.03126484 0.00139014 
0.07891808 0.04284345 0.01925137 0.00400610 0.00289719 0.00353563 0.01324138 0.00978273 0.05529762 0.00394854 0.00382357 0.12748137 0.00537386 0.01286373 0.03121923 0.00139220 
0.08015713 0.04197795 0.01839016 0.00387778 0.00275479 0.00351685 0.01349190 0.00969906 0.05577697 0.00387788 0.00378523 0.12716136 0.00537556 0.01295505 0.03113706 0.00139394 
0.08127557 0.04112933 0.01751824 0.00375213 0.00261250 0.00349557 0.01374558 0.00960662 0.05616685 0.00380519 0.00374886 0.12682429 0.00538242 0.01303821 0.03101906 0.00139535 
0.08226923 0.04029995 0.01663968 0.00362967 0.00247087 0.00347186 0.01400113 0.00950601 0.05646534 0.00373075 0.00371464 0.12647282 0.00539448 0.01311295 0.03086614 0.00139641 
0.08313446 0.03949199 0.01575857 0.00351091 0.00233045 0.00344582 0.01425730 0.00939787 0.05667108 0.00365482 0.00368273 0.12610978 0.00541173 0.01317904 0.03067940 0.00139709 
0.08386814 0.03870746 0.01487903 0.00339635 0.00219177 0.00341752 0.01451282 0.00928284 0.05678317 0.00357768 0.00365330 0.12573813 0.00543416 0.01323632 0.03046010 0.00139737 
0.08446771 0.03794820 0.01400516 0.00328642 0.00205535 0.00338708 0.01476648 0.00916162 0.05680126 0.00349960 0.00362649 0.12536099 0.00546171 0.01328466 0.03020966 0.00139725 
0.08493116 0.03721579 0.01314105 0.00318158 0.00192168 0.00335459 0.01501710 0.00903490 0.05672550 0.00342084 0.00360243 0.12498159 0.00549432 0.01332400 0.02992966 0.00139669 
0.08525707 0.03651162 0.01229073 0.00308223 0.00179123 0.00332015 0.01526352 0.00890341 0.05655653 0.00334168 0.00358122 0.12460323 0.00553187 0.01335430 0.02962183 0.00139568 
0.08544459 0.03583686 0.01145816 0.00298873 0.00166444 0.00328389 0.01550466 0.00876787 0.05629551 0.00326239 0.00356298 0.12422931 0.00557426 0.01337559 0.02928805 0.00139420 
0.08549345 0.03519240 0.01064721 0.00290144 0.00154173 0.00324590 0.01573947 0.00862903 0.05594409 0.00318321 0.00354778 0.12386329 0.00562133 0.01338794 0.02893030 0.00139224 
0.08540396 0.03457891 0.00986167 0.00282064 0.00142348 0.00320631 0.01596698 0.00848762 0.05550440 0.00310442 0.00353568 0.12350863 0.00567292 0.01339147 0.02855070 0.00138979 
0.08517701 0.03399681 0.00910517 0.00274662 0.00131006 0.00316522 0.01618626 0.00834439 0.05497901 0.00302625 0.00352675 0.12316882 0.00572882 0.01338635 0.02815148 0.00138682 
0.08481407 0.03344625 0.00838122 0.00267960 0.00120179 0.00312277 0.01639649 0.00820006 0.05437098 0.00294895 0.00352101 0.12284734 0.00578882 0.01337279 0.02773496 0.00138334 
0.08431715 0.03292715 0.00769314 0.00261976 0.00109897 0.00307905 0.01659690 0.00805536 0.05368374 0.00287277 0.00351848 0.12254764 0.00585270 0.01335105 0.02730353 0.00137933 
0.08368882 0.03243917 0.00704411 0.00256727 0.00100186 0.00303420 0.01678681 0.00791100 0.05292116 0.00279792 0.00351917 0.12227309 0.00592019 0.01332142 0.02685968 0.00137478 
0.08293219 0.03198171 0.00643710 0.00252223 0.00091068 0.00298834 0.01696565 0.00776767 0.05208746 0.00272465 0.00352307 0.12202702 0.00599103 0.01328426 0.02640593 0.00136969 
0.08205088 0.03155395 0.00587486 0.00248472 0.00082565 0.00294158 0.01713291 0.00762605 0.05118724 0.00265315 0.00353014 0.12181265 0.00606492 0.01323996 0.02594486 0.00136405 
0.08104901 0.03115483 0.00535995 0.00245475 0.00074691 0.00289404 0.01728819 0.00748677 0.05022539 0.00258364 0.00354036 0.12163308 0.00614157 0.01318893 0.02547908 0.00135786 
0.07993115 0.03078309 0.00489467 0.00243232 0.00067460 0.00284584 0.01743120 0.00735045 0.04920710 0.00251632 0.00355368 0.12149130 0.00622065 0.01313164 0.02501121 0.00135112 
0.07870233 0.03043722 0.00448110 0.00241739 0.00060881 0.00279709 0.01756174 0.00721769 0.04813781 0.00245137 0.00357002 0.12139011 0.00630184 0.01306858 0.02454387 0.00134383 
0.07736801 0.03011557 0.00412107 0.00240985 0.00054962 0.00274793 0.01767971 0.00708903 0.04702320 0.00238899 0.00358932 0.12133219 0.00638481 0.01300029 0.02407968 0.00133601 
0.07593401 0.02981628 0.00381613 0.00240958 0.00049705 0.00269845 0.01778512 0.00696500 0.04586911 0.00232934 0.00361149 0.12131998 0.00646919 0.01292732 0.02362122 0.00132766 
0.07440653 0.02953734 0.00356759 0.00241642 0.00045110 0.00264877 0.01787809 0.00684608 0.04468156 0.00227259 0.00363644 0.12135577 0.00655465 0.01285025 0.02317105 0.00131878 
0.07279205 0.02927661 0.00337647 0.00243017 0.00041176 0.00259902 0.01795885 0.00673270 0.04346666 0.00221889 0.00366408 0.12144161 0.00664082 0.01276970 0.02273166 0.00130940 
0.07109739 0.02903181 0.00324354 0.00245059 0.00037896 0.00254929 0.01802772 0.00662528 0.04223063 0.00216839 0.00369430 0.12157931 0.00672734 0.01268629 0.02230547 0.00129953 
0.06932957 0.02880059 0.00316928 0.00247742 0.00035262 0.00249971 0.01808512 0.00652418 0.04097970 0.00212123 0.00372698 0.12177045 0.00681385 0.01260067 0.02189484 0.00128919 
0.06749584 0.02858050 0.00315389 0.00251036 0.00033264 0.00245038 0.01813161 0.00642970 0.03972013 0.00207753 0.00376202 0.12201637 0.00689998 0.01251350 0.02150201 0.00127840 
0.06560362 0.02836906 0.00319731 0.00254909 0.00031888 0.00240141 0.01816781 0.00634214 0.03845815 0.00203742 0.00379930 0.12231813 0.00698539 0.01242545 0.02112915 0.00126718 
0.06366046 0.02816375 0.00329920 0.00259327 0.00031119 0.00235291 0.01819444 0.00626172 0.03719990 0.00200101 0.00383870 0.12267651 0.00706971 0.01233720 0.02077826 0.00125558 
0.06167401 0.02796206 0.00345895 0.00264253 0.00030939 0.00230499 0.01821234 0.00618863 0.03595146 0.00196839 0.00388009 0.12309202 0.00715260 0.01224944 0.02045128 0.00124361 
0.05965196 0.02776148 0.00367570 0.00269647 0.00031329 0.00225774 0.01822240 0.00612303 0.03471874 0.00193966 0.00392337 0.12356490 0.00723372 0.01216284 0.02014995 0.00123131 
0.05760202 0.02755956 0.00394829 0.00275470 0.00032268 0.00221127 0.01822563 0.00606501 0.03350750 0.00191491 0.00396841 0.12409508 0.00731274 0.01207810 0.01987589 0.00121872 
0.05553188 0.02735392 0.00427537 0.00281678 0.00033734 0.00216569 0.01822309 0.00601466 0.03232330 0.00189420 0.00401510 0.12468220 0.00738933 0.01199588 0.01963058 0.00120588 
0.05344915 0.02714227 0.00465530 0.00288229 0.00035702 0.00212110 0.01821590 0.00597199 0.03117147 0.00187762 0.00406333 0.12532559 0.00746321 0.01191685 0.01941529 0.00119284 
0.05136134 0.02692245 0.00508623 0.00295079 0.00038147 0.00207760 0.01820528 0.00593698 0.03005708 0.00186520 0.00411298 0.12602431 0.00753406 0.01184166 0.01923117 0.00117963 
0.04927585 0.02669241 0.00556609 0.00302184 0.00041044 0.00203528 0.01819247 0.00590961 0.02898493 0.00185701 0.00416396 0.12677710 0.00760164 0.01177095 0.01907914 0.00116631 
0.04719986 0.02645029 0.00609258 0.00309497 0.00044365 0.00199424 0.01817877 0.00588977 0.02795951 0.00185308 0.00421617 0.12758242 0.00766566 0.01170533 0.01895997 0.00115293 
0.04514038 0.02619441 0.00666323 0.00316975 0.00048083 0.00195458 0.01816552 0.00587735 0.02698495 0.00185344 0.00426951 0.12843843 0.00772590 0.01164541 0.01887424 0.00113953 
0.04310416 0.02592327 0.00727537 0.00324573 0.00052171 0.00191640 0.01815407 0.00587220 0.02606509 0.00185812 0.00432390 0.12934302 0.00778215 0.01159174 0.01882233 0.00112618 
0.04109770 0.02563561 0.00792616 0.00332246 0.00056600 0.00187977 0.01814581 0.00587415 0.02520335 0.00186713 0.00437925 0.13029378 0.00783419 0.01154487 0.01880442 0.00111293 
0.03912717 0.02533040 0.00861262 0.00339952 0.00061343 0.00184481 0.01814213 0.00588299 0.02440280 0.00188046 0.00443549 0.13128804 0.00788186 0.01150531 0.01882052 0.00109984 
0.03719845 0.02500685 0.00933161 0.00347649 0.00066370 0.00181158 0.01814441 0.00589850 0.02366611 0.00189812 0.00449255 0.13232288 0.00792500 0.01147353 0.01887042 0.00108696 
0.03531705 0.02466445 0.01007989 0.00355296 0.00071656 0.00178019 0.01815403 0.00592041 0.02299555 0.00192009 0.00455037 0.13339510 0.00796349 0.01144998 0.01895373 0.00107437 
0.03348813 0.02430295 0.01085411 0.00362853 0.00077172 0.00175070 0.01817233 0.00594845 0.02239297 0.00194634 0.00460887 0.13450130 0.00799721 0.01143505 0.01906987 0.00106211 
0.03171646 0.02392239 0.01165080 0.00370284 0.00082891 0.00172321 0.01820064 0.00598235 0.02185981 0.00197683 0.00466802 0.13563782 0.00802608 0.01142910 0.01921807 0.00105026 
0.03000641 0.02352310 0.01246647 0.00377552 0.00088788 0.00169778 0.01824022 0.00602178 0.02139711 0.00201152 0.00472775 0.13680083 0.00805005 0.01143246 0.01939737 0.00103887 
0.02836191 0.02310569 0.01329752 0.00384626 0.00094836 0.00167449 0.01829229 0.00606644 0.02100547 0.00205035 0.00478803 0.13798626 0.00806908 0.01144540 0.01960665 0.00102800 
0.02678652 0.02267108 0.01414036 0.00391473 0.00101011 0.00165341 0.01835800 0.00611600 0.02068510 0.00209326 0.00484880 0.13918990 0.00808316 0.01146815 0.01984460 0.00101772 
0.02528333 0.02222048 0.01499136 0.00398065 0.00107289 0.00163461 0.01843842 0.00617011 0.02043580 0.00214016 0.00491002 0.14040737 0.00809230 0.01150090 0.02010976 0.00100809 
0.02385500 0.02175541 0.01584687 0.00404378 0.00113647 0.00161813 0.01853454 0.00622844 0.02025696 0.00219097 0.00497166 0.14163416 0.00809655 0.01154380 0.02040050 0.00099916 
0.02250378 0.02127766 0.01670327 0.00410387 0.00120064 0.00160404 0.01864725 0.00629065 0.02014761 0.00224558 0.00503366 0.14286565 0.00809595 0.01159692 0.02071505 0.00099100 
0.02123145 0.02078932 0.01755698 0.00416072 0.00126519 0.00159239 0.01877734 0.00635637 0.02010639 0.00230388 0.00509599 0.14409709 0.00809060 0.01166033 0.02105152 0.00098366 
0.02003940 0.02029273 0.01840445 0.00421416 0.00132993 0.00158321 0.01892548 0.00642528 0.02013158 0.00236574 0.00515860 0.14532371 0.00808059 0.01173401 0.02140786 0.00097720 
0.01892857 0.01979051 0.01924219 0.00426405 0.00139466 0.00157654 0.01909221 0.00649701 0.02022115 0.00243104 0.00522144 0.14654065 0.00806605 0.01181792 0.02178194 0.00097166 
0.01789951 0.01928555 0.02006679 0.00431027 0.00145922 0.00157242 0.01927797 0.00657124 0.02037273 0.00249961 0.00528446 0.14774305 0.00804712 0.01191196 0.02217151 0.00096710 
0.01695236 0.01878093 0.02087495 0.00435272 0.00152344 0.00157086 0.01948303 0.00664762 0.02058365 0.00257131 0.00534760 0.14892604 0.00802398 0.01201599 0.02257423 0.00096355 
0.01608688 0.01827999 0.02166345 0.00439137 0.00158718 0.00157188 0.01970754 0.00672584 0.02085098 0.00264595 0.00541080 0.15008477 0.00799679 0.01212983 0.02298769 0.00096107 
0.01530246 0.01778624 0.02242919 0.00442616 0.00165029 0.00157549 0.01995149 0.00680556 0.02117154 0.00272336 0.00547399 0.15121446 0.00796575 0.01225324 0.02340942 0.00095969 
0.01459815 0.01730338 0.02316923 0.00445711 0.00171266 0.00158168 0.02021473 0.00688650 0.02154192 0.00280334 0.00553708 0.15231039 0.00793108 0.01238596 0.02383690 0.00095944 
0.01397268 0.01683528 0.02388074 0.00448423 0.00177416 0.00159044 0.02049696 0.00696833 0.02195853 0.00288568 0.00559998 0.15336795 0.00789300 0.01252766 0.02426758 0.00096036 
0.01342446 0.01638592 0.02456107 0.00450758 0.00183469 0.00160177 0.02079770 0.00705079 0.02241761 0.00297017 0.00566261 0.15438265 0.00785175 0.01267799 0.02469888 0.00096246 
0.01295163 0.01595939 0.02520772 0.00452724 0.00189416 0.00161562 0.02111634 0.00713361 0.02291525 0.00305657 0.00572484 0.15535017 0.00780758 0.01283656 0.02512823 0.00096577 
0.01255210 0.01555988 0.02581837 0.00454330 0.00195246 0.00163196 0.02145210 0.00721651 0.02344745 0.00314465 0.00578656 0.15626634 0.00776073 0.01300294 0.02555306 0.00097030 
0.01222352 0.01519160 0.02639088 0.00455588 0.00200954 0.00165076 0.02180405 0.00729927 0.02401012 0.00323416 0.00584764 0.15712723 0.00771148 0.01317667 0.02597084 0.00097607 
0.01196337 0.01485883 0.02692330 0.00456513 0.00206532 0.00167195 0.02217109 0.00738166 0.02459914 0.00332484 0.00590793 0.15792910 0.00766010 0.01335726 0.02637906 0.00098307 
0.01176895 0.01456581 0.02741387 0.00457119 0.00211973 0.00169547 0.02255201 0.00746345 0.02521036 0.00341643 0.00596728 0.15866850 0.00760686 0.01354419 0.02677528 0.00099131 
0.01163744 0.01431676 0.02786105 0.00457426 0.00217272 0.00172125 0.02294540 0.00754447 0.02583964 0.00350864 0.00602552 0.15934223 0.00755203 0.01373690 0.02715713 0.00100077 
0.01156588 0.01411586 0.02826348 0.00457451 0.00222424 0.00174921 0.02334976 0.00762452 0.02648291 0.00360121 0.00608247 0.15994739 0.00749589 0.01393483 0.02752231 0.00101145 
0.01155126 0.01396718 0.02862002 0.00457216 0.00227424 0.00177926 0.02376344 0.00770344 0.02713615 0.00369383 0.00613793 0.16048140 0.00743873 0.01413738 0.02786863 0.00102332 
0.01159051 0.01387467 0.02892975 0.00456741 0.00232269 0.00181131 0.02418465 0.00778108 0.02779544 0.00378622 0.00619172 0.16094202 0.00738081 0.01434395 0.02819399 0.00103636 
0.01168052 0.01384215 0.02919195 0.00456047 0.00236956 0.00184524 0.02461152 0.00785732 0.02845700 0.00387809 0.00624362 0.16132736 0.00732240 0.01455390 0.02849644 0.00105054 
0.01181822 0.01387325 0.02940611 0.00455159 0.00241480 0.00188096 0.02504205 0.00793202 0.02911720 0.00396912 0.00629340 0.16163591 0.00726379 0.01476661 0.02877414 0.00106583 
0.01200055 0.01397141 0.02957195 0.00454099 0.00245838 0.00191834 0.02547414 0.00800509 0.02977258 0.00405903 0.00634084 0.16186655 0.00720521 0.01498142 0.02902538 0.00108217 
0.01222452 0.01413984 0.02968938 0.00452890 0.00250029 0.00195726 0.02590564 0.00807644 0.03041991 0.00414750 0.00638570 0.16201855 0.00714694 0.01519768 0.02924864 0.00109953 
0.01248721 0.01438152 0.02975853 0.00451555 0.00254049 0.00199758 0.02633431 0.00814599 0.03105615 0.00423424 0.00642775 0.16209160 0.00708920 0.01541474 0.02944254 0.00111785 
0.01278582 0.01469912 0.02977972 0.00450118 0.00257895 0.00203917 0.02675787 0.00821368 0.03167853 0.00431895 0.00646672 0.16208584 0.00703225 0.01563192 0.02960585 0.00113707 
0.01311766 0.01509504 0.02975349 0.00448600 0.00261566 0.00208190 0.02717398 0.00827946 0.03228453 0.00440134 0.00650239 0.16200179 0.00697630 0.01584859 0.02973757 0.00115713 
0.01348022 0.01557136 0.02968054 0.00447023 0.00265058 0.00212562 0.02758029 0.00834329 0.03287190 0.00448111 0.00653449 0.16184047 0.00692156 0.01606409 0.02983682 0.00117796 
0.01387111 0.01612983 0.02956180 0.00445408 0.00268369 0.00217018 0.02797444 0.00840514 0.03343871 0.00455798 0.00656278 0.16160330 0.00686824 0.01627776 0.02990296 0.00119949 
0.01428815 0.01677186 0.02939835 0.00443775 0.00271495 0.00221545 0.02835408 0.00846499 0.03398330 0.00463167 0.00658701 0.16129217 0.00681652 0.01648899 0.02993551 0.00122165 
0.01472934 0.01749849 0.02919145 0.00442143 0.00274435 0.00226127 0.02871689 0.00852284 0.03450435 0.00470192 0.00660694 0.16090941 0.00676658 0.01669715 0.02993421 0.00124436 
0.01519289 0.01831038 0.02894254 0.00440529 0.00277186 0.00230750 0.02906056 0.00857867 0.03500084 0.00476848 0.00662234 0.16045779 0.00671858 0.01690163 0.02989896 0.00126753 
0.01567720 0.01920783 0.02865318 0.00438949 0.00279743 0.00235399 0.02938288 0.00863250 0.03547209 0.00483109 0.00663299 0.15994053 0.00667265 0.01710185 0.02982991 0.00129108 
0.01618090 0.02019075 0.02832511 0.00437417 0.00282104 0.00240060 0.02968168 0.00868434 0.03591773 0.00488953 0.00663866 0.15936128 0.00662894 0.01729724 0.02972735 0.00131493 
0.01670283 0.02125864 0.02796018 0.00435945 0.00284266 0.00244720 0.02995489 0.00873421 0.03633773 0.00494359 0.00663916 0.15872409 0.00658755 0.01748725 0.02959182 0.00133898 
0.01724206 0.02241064 0.02756040 0.00434545 0.00286225 0.00249364 0.03020056 0.00878212 0.03673238 0.00499306 0.00663430 0.15803346 0.00654858 0.01767136 0.02942401 0.00136313 
0.01779787 0.02364548 0.02712785 0.00433224 0.00287978 0.00253980 0.03041684 0.00882810 0.03710228 0.00503777 0.00662393 0.15729427 0.00651212 0.01784908 0.02922483 0.00138731 
0.01836974 0.02496150 0.02666475 0.00431991 0.00289521 0.00258554 0.03060202 0.00887218 0.03744835 0.00507756 0.00660788 0.15651176 0.00647824 0.01801993 0.02899535 0.00141142 
0.01895737 0.02635669 0.02617337 0.00430850 0.00290849 0.00263077 0.03075455 0.00891438 0.03777180 0.00511228 0.00658604 0.15569156 0.00644699 0.01818347 0.02873684 0.00143537 
0.01956065 0.02782863 0.02565610 0.00429803 0.00291961 0.00267535 0.03087305 0.00895474 0.03807414 0.00514181 0.00655831 0.15483963 0.00641841 0.01833931 0.02845074 0.00145906 
0.02017963 0.02937460 0.02511537 0.00428853 0.00292851 0.00271920 0.03095629 0.00899328 0.03835715 0.00516606 0.00652461 0.15396223 0.00639252 0.01848705 0.02813864 0.00148241 
0.02081456 0.03099147 0.02455366 0.00427997 0.00293516 0.00276223 0.03100326 0.00903004 0.03862285 0.00518494 0.00648489 0.15306593 0.00636933 0.01862636 0.02780229 0.00150532 
0.02146583 0.03267584 0.02397352 0.00427233 0.00293953 0.00280435 0.03101314 0.00906503 0.03887354 0.00519841 0.00643913 0.15215755 0.00634885 0.01875693 0.02744361 0.00152771 
0.02213396 0.03442397 0.02337749 0.00426556 0.00294159 0.00284549 0.03098530 0.00909829 0.03911168 0.00520644 0.00638735 0.15124413 0.00633104 0.01887847 0.02706462 0.00154950 
0.02281959 0.03623184 0.02276815 0.00425959 0.00294131 0.00288559 0.03091934 0.00912984 0.03933998 0.00520903 0.00632959 0.15033293 0.00631590 0.01899074 0.02666749 0.00157059 
0.02352346 0.03809517 0.02214809 0.00425434 0.00293865 0.00292461 0.03081510 0.00915970 0.03956130 0.00520618 0.00626591 0.14943135 0.00630337 0.01909355 0.02625450 0.00159093 
0.02424637 0.04000945 0.02151985 0.00424970 0.00293361 0.00296251 0.03067261 0.00918787 0.03977863 0.00519796 0.00619644 0.14854693 0.00629340 0.01918671 0.02582801 0.00161041 
0.02498918 0.04196992 0.02088601 0.00424557 0.00292616 0.00299926 0.03049217 0.00921437 0.03999510 0.00518444 0.00612131 0.14768727 0.00628593 0.01927010 0.02539049 0.00162899 
0.02575277 0.04397168 0.02024906 0.00424181 0.00291628 0.00303486 0.03027430 0.00923922 0.04021394 0.00516570 0.00604069 0.14686005 0.00628089 0.01934362 0.02494448 0.00164659 
0.02653801 0.04600963 0.01961149 0.00423827 0.00290398 0.00306932 0.03001974 0.00926240 0.04043842 0.00514187 0.00595481 0.14607294 0.00627819 0.01940720 0.02449257 0.00166315 
0.02734576 0.04807856 0.01897570 0.00423481 0.00288925 0.00310263 0.02972948 0.00928391 0.04067186 0.00511310 0.00586389 0.14533356 0.00627774 0.01946081 0.02403739 0.00167861 
0.02817682 0.05017316 0.01834406 0.00423126 0.00287211 0.00313484 0.02940474 0.00930376 0.04091759 0.00507955 0.00576822 0.14464948 0.00627945 0.01950446 0.02358163 0.00169292 
0.02903193 0.05228804 0.01771884 0.00422744 0.00285256 0.00316598 0.02904697 0.00932191 0.04117890 0.00504142 0.00566812 0.14402812 0.00628321 0.01953820 0.02312795 0.00170604 
0.02991170 0.05441777 0.01710222 0.00422318 0.00283063 0.00319610 0.02865782 0.00933837 0.04145902 0.00499893 0.00556391 0.14347674 0.00628890 0.01956209 0.02267905 0.00171792 
0.03081665 0.05655694 0.01649632 0.00421831 0.00280637 0.00322526 0.02823917 0.00935309 0.04176112 0.00495230 0.00545599 0.14300238 0.00629641 0.01957624 0.02223760 0.00172853 
0.03174711 0.05870011 0.01590312 0.00421262 0.00277980 0.00325354 0.02779310 0.00936605 0.04208822 0.00490179 0.00534474 0.14261183 0.00630562 0.01958078 0.02180622 0.00173785 
0.03270329 0.06084192 0.01532452 0.00420595 0.00275099 0.00328102 0.02732188 0.00937723 0.04244323 0.00484769 0.00523061 0.14231157 0.00631640 0.01957590 0.02138752 0.00174585 
0.03368516 0.06297710 0.01476229 0.00419810 0.00271999 0.00330780 0.02682798 0.00938657 0.04282886 0.00479027 0.00511405 0.14210775 0.00632861 0.01956178 0.02098402 0.00175251 
0.03469251 0.06510046 0.01421807 0.00418889 0.00268690 0.00333397 0.02631400 0.00939404 0.04324763 0.00472985 0.00499554 0.14200609 0.00634212 0.01953865 0.02059818 0.00175783 
0.03572489 0.06720694 0.01369340 0.00417816 0.00265178 0.00335964 0.02578273 0.00939960 0.04370181 0.00466676 0.00487559 0.14201192 0.00635680 0.01950675 0.02023238 0.00176180 
0.03678160 0.06929167 0.01318965 0.00416573 0.00261475 0.00338492 0.02523708 0.00940319 0.04419346 0.00460132 0.00475471 0.14213006 0.00637250 0.01946638 0.01988887 0.00176443 
0.03786169 0.07134993 0.01270809 0.00415145 0.00257591 0.00340994 0.02468007 0.00940476 0.04472432 0.00453388 0.00463345 0.14236485 0.00638909 0.01941782 0.01956982 0.00176571 
0.03896395 0.07337721 0.01224982 0.00413516 0.00253538 0.00343481 0.02411483 0.00940427 0.04529586 0.00446480 0.00451237 0.14272004 0.00640641 0.01936141 0.01927725 0.00176568 
0.04008686 0.07536923 0.01181583 0.00411673 0.00249330 0.00345967 0.02354459 0.00940165 0.04590920 0.00439444 0.00439201 0.14319884 0.00642434 0.01929748 0.01901303 0.00176435 
0.04122863 0.07732194 0.01140693 0.00409605 0.00244982 0.00348463 0.02297262 0.00939686 0.04656516 0.00432317 0.00427297 0.14380380 0.00644271 0.01922639 0.01877891 0.00176174 
0.04238720 0.07923155 0.01102381 0.00407300 0.00240508 0.00350983 0.02240225 0.00938982 0.04726418 0.00425135 0.00415580 0.14453684 0.00646140 0.01914854 0.01857646 0.00175789 
0.04356018 0.08109454 0.01066700 0.00404749 0.00235926 0.00353539 0.02183681 0.00938050 0.04800635 0.00417936 0.00404110 0.14539922 0.00648026 0.01906430 0.01840708 0.00175282 
0.04474491 0.08290767 0.01033692 0.00401946 0.00231254 0.00356142 0.02127965 0.00936884 0.04879137 0.00410756 0.00392943 0.14639146 0.00649915 0.01897410 0.01827200 0.00174660 
0.04593846 0.08466796 0.01003379 0.00398884 0.00226510 0.00358805 0.02073410 0.00935478 0.04961857 0.00403632 0.00382137 0.14751341 0.00651792 0.01887836 0.01817226 0.00173925 
0.04713759 0.08637277 0.00975775 0.00395562 0.00221714 0.00361540 0.02020343 0.00933828 0.05048688 0.00396600 0.00371747 0.14876414 0.00653644 0.01877751 0.01810871 0.00173084 
0.04833881 0.08801970 0.00950875 0.00391977 0.00216886 0.00364355 0.01969088 0.00931928 0.05139485 0.00389696 0.00361828 0.15014201 0.00655458 0.01867199 0.01808200 0.00172141 
0.04953837 0.08960670 0.00928664 0.00388131 0.00212048 0.00367261 0.01919958 0.00929776 0.05234063 0.00382952 0.00352434 0.15164459 0.00657219 0.01856226 0.01809258 0.00171102 
0.05073227 0.09113197 0.00909112 0.00384026 0.00207222 0.00370266 0.01873257 0.00927367 0.05332198 0.00376403 0.00343615 0.15326872 0.00658915 0.01844877 0.01814070 0.00169974 
0.05191630 0.09259402 0.00892179 0.00379669 0.00202430 0.00373378 0.01829276 0.00924699 0.05433630 0.00370080 0.00335420 0.15501045 0.00660532 0.01833199 0.01822638 0.00168763 
0.05308603 0.09399164 0.00877809 0.00375066 0.00197696 0.00376603 0.01788291 0.00921768 0.05538059 0.00364013 0.00327897 0.15686511 0.00662059 0.01821239 0.01834947 0.00167475 
0.05423688 0.09532389 0.00865937 0.00370228 0.00193043 0.00379946 0.01750565 0.00918574 0.05645152 0.00358231 0.00321089 0.15882725 0.00663483 0.01809042 0.01850959 0.00166118 
0.05536407 0.09659010 0.00856487 0.00365167 0.00188495 0.00383410 0.01716340 0.00915115 0.05754539 0.00352759 0.00315035 0.16089070 0.00664792 0.01796656 0.01870616 0.00164699 
0.05646274 0.09778984 0.00849373 0.00359896 0.00184076 0.00386997 0.01685840 0.00911392 0.05865821 0.00347623 0.00309773 0.16304858 0.00665975 0.01784128 0.01893839 0.00163224 
0.05752788 0.09892293 0.00844497 0.00354432 0.00179809 0.00390708 0.01659267 0.00907404 0.05978565 0.00342845 0.00305337 0.16529331 0.00667022 0.01771504 0.01920531 0.00161702 
0.05855445 0.09998938 0.00841754 0.00348792 0.00175718 0.00394542 0.01636803 0.00903155 0.06092314 0.00338444 0.00301754 0.16761666 0.00667920 0.01758831 0.01950573 0.00160139 
0.05953737 0.10098944 0.00841033 0.00342998 0.00171828 0.00398495 0.01618605 0.00898647 0.06206582 0.00334438 0.00299052 0.17000974 0.00668662 0.01746153 0.01983831 0.00158543 
0.06047152 0.10192350 0.00842210 0.00337070 0.00168160 0.00402562 0.01604804 0.00893884 0.06320865 0.00330842 0.00297250 0.17246310 0.00669237 0.01733516 0.02020149 0.00156922 
0.06135186 0.10279216 0.00845161 0.00331033 0.00164738 0.00406738 0.01595507 0.00888871 0.06434637 0.00327668 0.00296365 0.17496670 0.00669637 0.01720964 0.02059356 0.00155283 
0.06217337 0.10359612 0.00849750 0.00324911 0.00161583 0.00411014 0.01590796 0.00883615 0.06547357 0.00324925 0.00296409 0.17751001 0.00669854 0.01708540 0.02101264 0.00153633 
0.06293117 0.10433623 0.00855841 0.00318730 0.00158716 0.00415381 0.01590723 0.00878122 0.06658471 0.00322621 0.00297388 0.18008204 0.00669881 0.01696288 0.02145672 0.00151979 
0.06362048 0.10501342 0.00863292 0.00312518 0.00156157 0.00419826 0.01595315 0.00872402 0.06767420 0.00320760 0.00299305 0.18267136 0.00669710 0.01684247 0.02192361 0.00150329 
0.06423672 0.10562870 0.00871956 0.00306304 0.00153926 0.00424337 0.01604570 0.00866465 0.06873636 0.00319343 0.00302158 0.18526622 0.00669337 0.01672458 0.02241103 0.00148690 
0.06477551 0.10618316 0.00881686 0.00300117 0.00152040 0.00428898 0.01618460 0.00860322 0.06976555 0.00318368 0.00305938 0.18785455 0.00668757 0.01660959 0.02291655 0.00147067 
0.06523269 0.10667789 0.00892333 0.00293986 0.00150516 0.00433494 0.01636927 0.00853986 0.07075612 0.00317832 0.00310633 0.19042405 0.00667964 0.01649789 0.02343767 0.00145469 
0.06560441 0.10711404 0.00903747 0.00287943 0.00149367 0.00438107 0.01659887 0.00847470 0.07170253 0.00317728 0.00316226 0.19296225 0.00666958 0.01638982 0.02397178 0.00143900 
0.06588709 0.10749271 0.00915775 0.00282017 0.00148609 0.00442718 0.01687229 0.00840791 0.07259936 0.00318045 0.00322696 0.19545656 0.00665734 0.01628572 0.02451620 0.00142367 
0.06607754 0.10781502 0.00928269 0.00276239 0.00148251 0.00447306 0.01718816 0.00833964 0.07344134 0.00318773 0.00330015 0.19789437 0.00664292 0.01618593 0.02506820 0.00140876 
0.06617288 0.10808203 0.00941081 0.00270640 0.00148305 0.00451851 0.01754487 0.00827009 0.07422339 0.00319897 0.00338153 0.20026309 0.00662632 0.01609074 0.02562500 0.00139432 
0.06617066 0.10829476 0.00954063 0.00265249 0.00148777 0.00456331 0.01794052 0.00819944 0.07494071 0.00321400 0.00347074 0.20255023 0.00660755 0.01600045 0.02618379 0.00138040 
0.06606885 0.10845414 0.00967073 0.00260095 0.00149673 0.00460721 0.01837302 0.00812791 0.07558876 0.00323263 0.00356738 0.20474345 0.00658663 0.01591532 0.02674177 0.00136704 
0.06586587 0.10856105 0.00979971 0.00255207 0.00150999 0.00465000 0.01884005 0.00805571 0.07616334 0.00325465 0.00367102 0.20683068 0.00656360 0.01583558 0.02729612 0.00135429 
0.06556058 0.10861628 0.00992619 0.00250613 0.00152754 0.00469143 0.01933907 0.00798310 0.07666059 0.00327983 0.00378119 0.20880014 0.00653849 0.01576148 0.02784404 0.00134219 
0.06515234 0.10862049 0.01004888 0.00246337 0.00154939 0.00473127 0.01986736 0.00791030 0.07707707 0.00330793 0.00389739 0.21064044 0.00651136 0.01569321 0.02838280 0.00133077 
0.06464101 0.10857428 0.01016652 0.00242404 0.00157551 0.00476927 0.02042202 0.00783759 0.07740976 0.00333869 0.00401908 0.21234062 0.00648228 0.01563095 0.02890970 0.00132007 
0.06402697 0.10847812 0.01027789 0.00238838 0.00160585 0.00480519 0.02100000 0.00776525 0.07765611 0.00337183 0.00414569 0.21389024 0.00645132 0.01557485 0.02942210 0.00131010 
0.06331110 0.10833238 0.01038188 0.00235659 0.00164034 0.00483880 0.02159809 0.00769356 0.07781408 0.00340706 0.00427664 0.21527945 0.00641859 0.01552504 0.02991747 0.00130090 
0.06249481 0.10813732 0.01047739 0.00232885 0.00167889 0.00486988 0.02221301 0.00762282 0.07788211 0.00344410 0.00441131 0.21649903 0.00638418 0.01548164 0.03039335 0.00129249 
0.06158006 0.10789309 0.01056344 0.00230535 0.00172138 0.00489820 0.02284132 0.00755334 0.07785922 0.00348265 0.00454909 0.21754045 0.00634820 0.01544472 0.03084743 0.00128487 
0.06056931 0.10759975 0.01063910 0.00228621 0.00176767 0.00492355 0.02347956 0.00748545 0.07774496 0.00352239 0.00468933 0.21839595 0.00631079 0.01541432 0.03127750 0.00127805 
0.05946555 0.10725727 0.01070352 0.00227157 0.00181760 0.00494572 0.02412418 0.00741949 0.07753949 0.00356303 0.00483138 0.21905856 0.00627208 0.01539049 0.03168150 0.00127206 
0.05827231 0.10686551 0.01075594 0.00226151 0.00187101 0.00496455 0.02477161 0.00735578 0.07724353 0.00360425 0.00497460 0.21952217 0.00623221 0.01537322 0.03205752 0.00126687 
0.05699359 0.10642428 0.01079568 0.00225610 0.00192767 0.00497984 0.02541826 0.00729470 0.07685843 0.00364575 0.00511831 0.21978159 0.00619135 0.01536248 0.03240380 0.00126251 
0.05563391 0.10593333 0.01082213 0.00225539 0.00198739 0.00499146 0.02606057 0.00723659 0.07638610 0.00368724 0.00526188 0.21983254 0.00614966 0.01535822 0.03271878 0.00125895 
0.05419824 0.10539235 0.01083480 0.00225939 0.00204991 0.00499927 0.02669499 0.00718184 0.07582910 0.00372841 0.00540465 0.21967173 0.00610732 0.01536036 0.03300106 0.00125618 
0.05269203 0.10480099 0.01083326 0.00226808 0.00211499 0.00500314 0.02731805 0.00713081 0.07519056 0.00376900 0.00554599 0.21929685 0.00606450 0.01536878 0.03324945 0.00125421 
0.05112115 0.10415892 0.01081717 0.00228141 0.00218236 0.00500299 0.02792634 0.00708389 0.07447421 0.00380871 0.00568528 0.21870666 0.00602141 0.01538334 0.03346294 0.00125300 
0.04949185 0.10346577 0.01078630 0.00229932 0.00225173 0.00499875 0.02851655 0.00704146 0.07368435 0.00384731 0.00582192 0.21790091 0.00597823 0.01540388 0.03364073 0.00125253 
0.04781080 0.10272123 0.01074050 0.00232171 0.00232280 0.00499037 0.02908549 0.00700392 0.07282584 0.00388454 0.00595532 0.21688045 0.00593517 0.01543020 0.03378222 0.00125279 
0.04608498 0.10192499 0.01067971 0.00234845 0.00239526 0.00497782 0.02963011 0.00697166 0.07190409 0.00392018 0.00608494 0.21564717 0.00589244 0.01546209 0.03388705 0.00125374 
0.04432168 0.10107683 0.01060395 0.00237937 0.00246881 0.00496111 0.03014752 0.00694507 0.07092502 0.00395402 0.00621024 0.21420404 0.00585024 0.01549929 0.03395502 0.00125536 
0.04252849 0.10017662 0.01051334 0.00241431 0.00254309 0.00494026 0.03063500 0.00692455 0.06989504 0.00398588 0.00633074 0.21255507 0.00580878 0.01554152 0.03398620 0.00125760 
0.04071319 0.09922429 0.01040809 0.00245305 0.00261779 0.00491533 0.03109002 0.00691048 0.06882099 0.00401559 0.00644598 0.21070533 0.00576827 0.01558849 0.03398083 0.00126044 
0.03888381 0.09821993 0.01028849 0.00249535 0.00269256 0.00488640 0.03151026 0.00690326 0.06771016 0.00404300 0.00655554 0.20866091 0.00572893 0.01563986 0.03393937 0.00126383 
0.03704848 0.09716376 0.01015490 0.00254097 0.00276707 0.00485357 0.03189360 0.00690326 0.06657017 0.00406801 0.00665905 0.20642892 0.00569096 0.01569528 0.03386250 0.00126773 
0.03521548 0.09605616 0.01000780 0.00258962 0.00284096 0.00481698 0.03223820 0.00691087 0.06540900 0.00409051 0.00675617 0.20401744 0.00565456 0.01575438 0.03375110 0.00127209 
0.03339312 0.09489768 0.00984771 0.00264102 0.00291389 0.00477678 0.03254240 0.00692646 0.06423492 0.00411044 0.00684661 0.20143548 0.00561994 0.01581676 0.03360622 0.00127688 
0.03158978 0.09368908 0.00967524 0.00269483 0.00298553 0.00473315 0.03280485 0.00695037 0.06305641 0.00412776 0.00693012 0.19869297 0.00558728 0.01588200 0.03342913 0.00128203 
0.02981377 0.09243133 0.00949110 0.00275072 0.00305554 0.00468630 0.03302443 0.00698295 0.06188213 0.00414245 0.00700652 0.19580067 0.00555677 0.01594965 0.03322127 0.00128751 
0.02807337 0.09112564 0.00929603 0.00280836 0.00312358 0.00463645 0.03320029 0.00702453 0.06072089 0.00415452 0.00707565 0.19277017 0.00552860 0.01601927 0.03298423 0.00129326 
0.02637671 0.08977343 0.00909088 0.00286737 0.00318935 0.00458386 0.03333185 0.00707542 0.05958154 0.00416400 0.00713742 0.18961377 0.00550292 0.01609037 0.03271978 0.00129923 
0.02473180 0.08837640 0.00887652 0.00292738 0.00325252 0.00452880 0.03341880 0.00713592 0.05847298 0.00417095 0.00719179 0.18634450 0.00547988 0.01616246 0.03242985 0.00130536 
0.02314644 0.08693650 0.00865393 0.00298803 0.00331281 0.00447155 0.03346113 0.00720629 0.05740403 0.00417547 0.00723875 0.18297597 0.00545965 0.01623505 0.03211647 0.00131161 
0.02162816 0.08545596 0.00842410 0.00304891 0.00336992 0.00441241 0.03345907 0.00728679 0.05638342 0.00417765 0.00727835 0.17952235 0.00544234 0.01630762 0.03178182 0.00131791 
0.02018425 0.08393729 0.00818812 0.00310965 0.00342358 0.00435172 0.03341313 0.00737763 0.05541971 0.00417764 0.00731071 0.17599829 0.00542806 0.01637964 0.03142818 0.00132422 
0.01882163 0.08238326 0.00794710 0.00316985 0.00347354 0.00428980 0.03332410 0.00747902 0.05452124 0.00417558 0.00733595 0.17241885 0.00541693 0.01645059 0.03105793 0.00133047 
0.01754689 0.08079694 0.00770220 0.00322912 0.00351957 0.00422700 0.03319300 0.00759110 0.05369606 0.00417165 0.00735429 0.16879940 0.00540902 0.01651994 0.03067350 0.00133661 
0.01636621 0.07918168 0.00745463 0.00328709 0.00356145 0.00416368 0.03302113 0.00771402 0.05295189 0.00416604 0.00736594 0.16515555 0.00540440 0.01658714 0.03027742 0.00134259 
0.01528533 0.07754110 0.00720563 0.00334338 0.00359898 0.00410020 0.03281002 0.00784786 0.05229605 0.00415896 0.00737120 0.16150307 0.00540312 0.01665166 0.02987225 0.00134836 
0.01430953 0.07587908 0.00695648 0.00339761 0.00363199 0.00403693 0.03256142 0.00799269 0.05173538 0.00415064 0.00737038 0.15785781 0.00540522 0.01671298 0.02946056 0.00135387 
0.01344360 0.07419978 0.00670847 0.00344944 0.00366033 0.00397423 0.03227731 0.00814851 0.05127626 0.00414131 0.00736384 0.15423561 0.00541071 0.01677056 0.02904496 0.00135906 
0.01269180 0.07250762 0.00646293 0.00349852 0.00368388 0.00391248 0.03195988 0.00831532 0.05092448 0.00413123 0.00735196 0.15065219 0.00541959 0.01682389 0.02862805 0.00136388 
0.01205785 0.07080724 0.00622120 0.00354453 0.00370252 0.00385205 0.03161149 0.00849304 0.05068524 0.00412065 0.00733517 0.14712312 0.00543184 0.01687248 0.02821241 0.00136828 
0.01154490 0.06910350 0.00598464 0.00358716 0.00371619 0.00379331 0.03123469 0.00868157 0.05056309 0.00410985 0.00731392 0.14366370 0.00544741 0.01691582 0.02780058 0.00137223 
0.01115553 0.06740148 0.00575460 0.00362613 0.00372482 0.00373661 0.03083217 0.00888073 0.05056190 0.00409909 0.00728867 0.14028885 0.00546626 0.01695345 0.02739504 0.00137567 
0.01089170 0.06570645 0.00553245 0.00366117 0.00372839 0.00368231 0.03040677 0.00909033 0.05068481 0.00408864 0.00725992 0.13701309 0.00548831 0.01698491 0.02699823 0.00137858 
0.01075479 0.06402384 0.00531955 0.00369205 0.00372690 0.00363075 0.02996144 0.00931011 0.05093421 0.00407878 0.00722817 0.13385043 0.00551347 0.01700977 0.02661249 0.00138089 
0.01074554 0.06235921 0.00511726 0.00371855 0.00372037 0.00358226 0.02949922 0.00953976 0.05131171 0.00406979 0.00719394 0.13081428 0.00554164 0.01702764 0.02624005 0.00138260 
0.01086409 0.06071824 0.00492690 0.00374050 0.00370885 0.00353715 0.02902324 0.00977891 0.05181810 0.00406192 0.00715777 0.12791738 0.00557269 0.01703812 0.02588307 0.00138365 
0.01110995 0.05910672 0.00474980 0.00375774 0.00369241 0.00349572 0.02853668 0.01002717 0.05245337 0.00405544 0.00712019 0.12517178 0.00560650 0.01704088 0.02554356 0.00138402 
0.01148202 0.05753047 0.00458725 0.00377016 0.00367115 0.00345826 0.02804276 0.01028406 0.05321665 0.00405060 0.00708172 0.12258867 0.00564291 0.01703560 0.02522339 0.00138368 
0.01197859 0.05599537 0.00444051 0.00377765 0.00364519 0.00342502 0.02754470 0.01054907 0.05410626 0.00404763 0.00704289 0.12017845 0.00568176 0.01702200 0.02492432 0.00138262 
0.01259735 0.05450727 0.00431081 0.00378018 0.00361467 0.00339624 0.02704573 0.01082163 0.05511963 0.00404677 0.00700423 0.11795055 0.00572289 0.01699983 0.02464791 0.00138081 
0.01333540 0.05307201 0.00419934 0.00377771 0.00357976 0.00337215 0.02654904 0.01110110 0.05625340 0.00404823 0.00696623 0.11591345 0.00576611 0.01696889 0.02439561 0.00137824 
0.01418928 0.05169537 0.00410723 0.00377025 0.00354065 0.00335293 0.02605778 0.01138682 0.05750333 0.00405219 0.00692940 0.11407463 0.00581124 0.01692901 0.02416865 0.00137490 
0.01515497 0.05038301 0.00403557 0.00375786 0.00349754 0.00333876 0.02557501 0.01167807 0.05886441 0.00405884 0.00689420 0.11244050 0.00585808 0.01688007 0.02396812 0.00137078 
0.01622792 0.04914049 0.00398539 0.00374063 0.00345066 0.00332978 0.02510374 0.01197406 0.06033078 0.00406832 0.00686108 0.11101637 0.00590643 0.01682199 0.02379493 0.00136588 
0.01740309 0.04797317 0.00395766 0.00371865 0.00340025 0.00332612 0.02464682 0.01227397 0.06189585 0.00408078 0.00683046 0.10980646 0.00595610 0.01675473 0.02364977 0.00136021 
0.01867495 0.04688627 0.00395327 0.00369210 0.00334656 0.00332786 0.02420702 0.01257693 0.06355228 0.00409632 0.00680273 0.10881382 0.00600688 0.01667828 0.02353317 0.00135376 
0.02003754 0.04588472 0.00397305 0.00366114 0.00328988 0.00333506 0.02378694 0.01288204 0.06529200 0.00411503 0.00677825 0.10804036 0.00605857 0.01659271 0.02344549 0.00134655 
0.02148448 0.04497324 0.00401776 0.00362601 0.00323047 0.00334778 0.02338904 0.01318833 0.06710631 0.00413696 0.00675733 0.10748683 0.00611096 0.01649810 0.02338686 0.00133859 
0.02300901 0.04415623 0.00408804 0.00358695 0.00316865 0.00336601 0.02301558 0.01349483 0.06898587 0.00416216 0.00674027 0.10715279 0.00616385 0.01639460 0.02335725 0.00132990 
0.02460405 0.04343780 0.00418450 0.00354425 0.00310471 0.00338975 0.02266866 0.01380050 0.07092076 0.00419064 0.00672731 0.10703667 0.00621706 0.01628238 0.02335645 0.00132052 
0.02626218 0.04282169 0.00430760 0.00349820 0.00303896 0.00341895 0.02235016 0.01410429 0.07290058 0.00422237 0.00671865 0.10713574 0.00627039 0.01616166 0.02338406 0.00131045 
0.02797576 0.04231126 0.00445776 0.00344916 0.00297172 0.00345354 0.02206177 0.01440512 0.07491444 0.00425732 0.00671444 0.10744612 0.00632366 0.01603273 0.02343951 0.00129975 
0.02973690 0.04190950 0.00463527 0.00339749 0.00290332 0.00349343 0.02180493 0.01470189 0.07695108 0.00429541 0.00671480 0.10796286 0.00637671 0.01589589 0.02352206 0.00128844 
0.03153753 0.04161896 0.00484031 0.00334357 0.00283407 0.00353850 0.02158089 0.01499348 0.07899888 0.00433656 0.00671981 0.10867990 0.00642937 0.01575148 0.02363082 0.00127656 
0.03336947 0.04144174 0.00507299 0.00328782 0.00276430 0.00358860 0.02139064 0.01527876 0.08104599 0.00438065 0.00672948 0.10959018 0.00648151 0.01559989 0.02376472 0.00126416 
0.03522440 0.04137950 0.00533329 0.00323066 0.00269433 0.00364358 0.02123495 0.01555659 0.08308034 0.00442753 0.00674380 0.11068563 0.00653298 0.01544156 0.02392258 0.00125130 
0.03709399 0.04143342 0.00562109 0.00317254 0.00262448 0.00370324 0.02111433 0.01582584 0.08508976 0.00447704 0.00676269 0.11195726 0.00658366 0.01527694 0.02410308 0.00123801 
0.03896987 0.04160417 0.00593614 0.00311392 0.00255506 0.00376737 0.02102908 0.01608535 0.08706203 0.00452899 0.00678606 0.11339517 0.00663345 0.01510653 0.02430476 0.00122436 
0.04084371 0.04189193 0.00627809 0.00305527 0.00248639 0.00383576 0.02097923 0.01633403 0.08898495 0.00458317 0.00681374 0.11498868 0.00668227 0.01493084 0.02452607 0.00121040 
0.04270727 0.04229638 0.00664650 0.00299708 0.00241875 0.00390815 0.02096459 0.01657074 0.09084643 0.00463937 0.00684554 0.11672632 0.00673003 0.01475042 0.02476535 0.00119620 
0.04455241 0.04281668 0.00704077 0.00293984 0.00235245 0.00398429 0.02098474 0.01679441 0.09263455 0.00469732 0.00688123 0.11859598 0.00677670 0.01456586 0.02502086 0.00118182 
0.04637113 0.04345147 0.00746023 0.00288402 0.00228775 0.00406389 0.02103902 0.01700398 0.09433766 0.00475679 0.00692054 0.12058490 0.00682222 0.01437774 0.02529081 0.00116733 
0.04815565 0.04419887 0.00790407 0.00283012 0.00222493 0.00414668 0.02112657 0.01719842 0.09594444 0.00481749 0.00696316 0.12267985 0.00686658 0.01418668 0.02557331 0.00115280 
0.04989840 0.04505651 0.00837137 0.00277862 0.00216423 0.00423235 0.02124630 0.01737676 0.09744395 0.00487914 0.00700875 0.12486711 0.00690979 0.01399331 0.02586646 0.00113830 
0.05159208 0.04602149 0.00886111 0.00273001 0.00210591 0.00432060 0.02139693 0.01753806 0.09882573 0.00494146 0.00705694 0.12713264 0.00695185 0.01379828 0.02616832 0.00112390 
0.05322967 0.04709042 0.00937216 0.00268475 0.00205017 0.00441111 0.02157699 0.01768143 0.10007988 0.00500413 0.00710734 0.12946211 0.00699281 0.01360224 0.02647693 0.00110967 
0.05480451 0.04825945 0.00990327 0.00264331 0.00199722 0.00450355 0.02178484 0.01780606 0.10119710 0.00506687 0.00715954 0.13184102 0.00703272 0.01340584 0.02679034 0.00109569 
0.05631028 0.04952423 0.01045310 0.00260611 0.00194726 0.00459761 0.02201867 0.01791120 0.10216874 0.00512937 0.00721309 0.13425479 0.00707164 0.01320976 0.02710661 0.00108204 
0.05774102 0.05087998 0.01102021 0.00257359 0.00190045 0.00469295 0.02227653 0.01799614 0.10298690 0.00519131 0.00726755 0.13668883 0.00710967 0.01301464 0.02742381 0.00106878 
0.05909121 0.05232151 0.01160307 0.00254615 0.00185694 0.00478925 0.02255634 0.01806030 0.10364448 0.00525241 0.00732245 0.13912865 0.00714690 0.01282115 0.02774006 0.00105600 
0.06035574 0.05384319 0.01220003 0.00252416 0.00181686 0.00488618 0.02285590 0.01810313 0.10413518 0.00531236 0.00737732 0.14155995 0.00718345 0.01262994 0.02805354 0.00104376 
0.06152994 0.05543903 0.01280940 0.00250798 0.00178033 0.00498341 0.02317293 0.01812421 0.10445361 0.00537089 0.00743169 0.14396869 0.00721946 0.01244165 0.02836248 0.00103214 
0.06260962 0.05710271 0.01342939 0.00249792 0.00174744 0.00508062 0.02350506 0.01812318 0.10459529 0.00542769 0.00748509 0.14634120 0.00725505 0.01225691 0.02866520 0.00102122 
0.06359105 0.05882755 0.01405812 0.00249428 0.00171825 0.00517750 0.02384985 0.01809979 0.10455673 0.00548253 0.00753704 0.14866425 0.00729038 0.01207633 0.02896008 0.00101105 
0.06447099 0.06060664 0.01469366 0.00249731 0.00169283 0.00527374 0.02420486 0.01805389 0.10433540 0.00553512 0.00758708 0.15092511 0.00732561 0.01190050 0.02924562 0.00100171 
0.06524669 0.06243277 0.01533404 0.00250724 0.00167119 0.00536904 0.02456757 0.01798542 0.10392979 0.00558526 0.00763478 0.15311169 0.00736092 0.01172999 0.02952041 0.00099326 
0.06591589 0.06429854 0.01597720 0.00252424 0.00165336 0.00546311 0.02493552 0.01789443 0.10333943 0.00563270 0.00767970 0.15521254 0.00739647 0.01156536 0.02978316 0.00098576 
0.06647683 0.06619637 0.01662107 0.00254846 0.00163933 0.00555567 0.02530620 0.01778109 0.10256491 0.00567727 0.00772142 0.15721696 0.00743244 0.01140713 0.03003270 0.00097927 
0.06692825 0.06811853 0.01726352 0.00258001 0.00162906 0.00564646 0.02567719 0.01764565 0.10160786 0.00571877 0.00775957 0.15911505 0.00746901 0.01125578 0.03026798 0.00097384 
0.06726938 0.07005721 0.01790241 0.00261895 0.00162251 0.00573522 0.02604610 0.01748851 0.10047095 0.00575705 0.00779378 0.16089777 0.00750636 0.01111178 0.03048808 0.00096951 
0.06749994 0.07200453 0.01853557 0.00266529 0.00161962 0.00582172 0.02641059 0.01731014 0.09915792 0.00579198 0.00782372 0.16255698 0.00754468 0.01097556 0.03069222 0.00096635 
0.06762011 0.07395258 0.01916084 0.00271902 0.00162031 0.00590573 0.02676842 0.01711113 0.09767354 0.00582347 0.00784910 0.16408550 0.00758413 0.01084752 0.03087975 0.00096437 
0.06763057 0.07589349 0.01977604 0.00278008 0.00162447 0.00598704 0.02711747 0.01689219 0.09602358 0.00585141 0.00786966 0.16547713 0.00762490 0.01072801 0.03105016 0.00096363 
0.06753241 0.07781944 0.02037902 0.00284835 0.00163199 0.00606546 0.02745569 0.01665413 0.09421481 0.00587577 0.00788517 0.16672669 0.00766713 0.01061735 0.03120309 0.00096414 
0.06732720 0.07972270 0.02096762 0.00292368 0.00164274 0.00614081 0.02778120 0.01639786 0.09225496 0.00589652 0.00789545 0.16783005 0.00771098 0.01051584 0.03133830 0.00096593 
0.06701688 0.08159571 0.02153975 0.00300588 0.00165658 0.00621294 0.02809223 0.01612439 0.09015266 0.00591365 0.00790036 0.16878412 0.00775660 0.01042371 0.03145570 0.00096901 
0.06660383 0.08343107 0.02209333 0.00309471 0.00167336 0.00628170 0.02838718 0.01583484 0.08791745 0.00592719 0.00789980 0.16958687 0.00780412 0.01034117 0.03155532 0.00097341 
0.06609079 0.08522158 0.02262634 0.00318991 0.00169289 0.00634697 0.02866460 0.01553040 0.08555967 0.00593719 0.00789371 0.17023734 0.00785365 0.01026838 0.03163734 0.00097912 
0.06548086 0.08696032 0.02313680 0.00329116 0.00171500 0.00640864 0.02892320 0.01521236 0.08309044 0.00594374 0.00788209 0.17073562 0.00790529 0.01020547 0.03170205 0.00098614 
0.06477747 0.08864065 0.02362283 0.00339809 0.00173951 0.00646662 0.02916189 0.01488211 0.08052161 0.00594695 0.00786496 0.17108283 0.00795913 0.01015252 0.03174986 0.00099446 
0.06398436 0.09025622 0.02408261 0.00351034 0.00176620 0.00652084 0.02937973 0.01454109 0.07786567 0.00594693 0.00784241 0.17128110 0.00801522 0.01010956 0.03178130 0.00100407 
0.06310555 0.09180108 0.02451438 0.00362746 0.00179488 0.00657124 0.02957599 0.01419081 0.07513569 0.00594385 0.00781456 0.17133356 0.00807360 0.01007661 0.03179699 0.00101496 
0.06214531 0.09326961 0.02491652 0.00374902 0.00182533 0.00661778 0.02975011 0.01383286 0.07234527 0.00593788 0.00778157 0.17124426 0.00813430 0.01005361 0.03179768 0.00102708 
0.06110815 0.09465662 0.02528748 0.00387452 0.00185733 0.00666044 0.02990172 0.01346888 0.06950843 0.00592922 0.00774364 0.17101815 0.00819732 0.01004050 0.03178416 0.00104041 
0.05999878 0.09595733 0.02562583 0.00400346 0.00189065 0.00669922 0.03003064 0.01310054 0.06663956 0.00591809 0.00770103 0.17066105 0.00826263 0.01003714 0.03175733 0.00105490 
0.05882206 0.09716743 0.02593025 0.00413530 0.00192508 0.00673411 0.03013685 0.01272956 0.06375334 0.00590472 0.00765401 0.17017954 0.00833018 0.01004339 0.03171817 0.00107052 
0.05758303 0.09828306 0.02619955 0.00426949 0.00196037 0.00676514 0.03022055 0.01235770 0.06086464 0.00588936 0.00760291 0.16958095 0.00839990 0.01005904 0.03166767 0.00108721 
0.05628683 0.09930084 0.02643267 0.00440544 0.00199631 0.00679235 0.03028208 0.01198671 0.05798845 0.00587228 0.00754808 0.16887326 0.00847169 0.01008388 0.03160693 0.00110491 
0.05493869 0.10021790 0.02662868 0.00454258 0.00203266 0.00681578 0.03032195 0.01161838 0.05513977 0.00585375 0.00748991 0.16806505 0.00854543 0.01011762 0.03153703 0.00112357 
0.05354391 0.10103186 0.02678679 0.00468031 0.00206919 0.00683549 0.03034085 0.01125448 0.05233359 0.00583406 0.00742879 0.16716540 0.00862097 0.01015998 0.03145911 0.00114310 
0.05210784 0.10174085 0.02690636 0.00481801 0.00210568 0.00685157 0.03033958 0.01089677 0.04958471 0.00581350 0.00736518 0.16618383 0.00869815 0.01021063 0.03137432 0.00116344 
0.05063583 0.10234351 0.02698689 0.00495507 0.00214190 0.00686408 0.03031913 0.01054701 0.04690776 0.00579236 0.00729952 0.16513020 0.00877676 0.01026920 0.03128379 0.00118451 
0.04913325 0.10283903 0.02702804 0.00509088 0.00217764 0.00687312 0.03028056 0.01020690 0.04431701 0.00577095 0.00723228 0.16401465 0.00885660 0.01033531 0.03118868 0.00120624 
0.04760540 0.10322705 0.02702960 0.00522482 0.00221268 0.00687879 0.03022510 0.00987814 0.04182638 0.00574957 0.00716396 0.16284751 0.00893742 0.01040854 0.03109011 0.00122853 
0.04605756 0.10350778 0.02699155 0.00535629 0.00224682 0.00688120 0.03015404 0.00956234 0.03944930 0.00572851 0.00709504 0.16163919 0.00901896 0.01048846 0.03098917 0.00125130 
0.04449492 0.10368187 0.02691400 0.00548470 0.00227986 0.00688046 0.03006879 0.00926108 0.03719866 0.00570806 0.00702603 0.16040013 0.00910095 0.01057461 0.03088693 0.00127446 
0.04292260 0.10375051 0.02679722 0.00560945 0.00231159 0.00687670 0.02997080 0.00897586 0.03508674 0.00568851 0.00695743 0.15914068 0.00918309 0.01066650 0.03078439 0.00129792 
0.04134560 0.10371531 0.02664163 0.00572998 0.00234185 0.00687005 0.02986161 0.00870811 0.03312509 0.00567013 0.00688974 0.15787104 0.00926507 0.01076364 0.03068252 0.00132157 
0.03976880 0.10357837 0.02644781 0.00584574 0.00237045 0.00686063 0.02974278 0.00845916 0.03132453 0.00565318 0.00682345 0.15660119 0.00934656 0.01086551 0.03058221 0.00134534 
0.03819693 0.10334222 0.02621649 0.00595619 0.00239724 0.00684857 0.02961593 0.00823025 0.02969504 0.00563792 0.00675904 0.15534078 0.00942723 0.01097159 0.03048428 0.00136911 
0.03663458 0.10300981 0.02594853 0.00606085 0.00242206 0.00683402 0.02948267 0.00802254 0.02824574 0.00562458 0.00669698 0.15409907 0.00950672 0.01108135 0.03038948 0.00139280 
0.03508619 0.10258445 0.02564497 0.00615923 0.00244476 0.00681711 0.02934462 0.00783707 0.02698477 0.00561337 0.00663772 0.15288488 0.00958469 0.01119423 0.03029849 0.00141630 
0.03355602 0.10206986 0.02530693 0.00625089 0.00246522 0.00679798 0.02920337 0.00767474 0.02591930 0.00560449 0.00658169 0.15170647 0.00966076 0.01130969 0.03021189 0.00143954 
0.03204812 0.10147006 0.02493573 0.00633542 0.00248331 0.00677677 0.02906051 0.00753636 0.02505549 0.00559811 0.00652930 0.15057155 0.00973458 0.01142717 0.03013016 0.00146240 
0.03056642 0.10078942 0.02453276 0.00641245 0.00249894 0.00675362 0.02891757 0.00742261 0.02439839 0.00559439 0.00648093 0.14948718 0.00980577 0.01154611 0.03005370 0.00148480 
0.02911459 0.10003254 0.02409956 0.00648164 0.00251201 0.00672866 0.02877603 0.00733402 0.02395196 0.00559345 0.00643691 0.14845972 0.00987399 0.01166597 0.02998283 0.00150666 
0.02769614 0.09920432 0.02363779 0.00654270 0.00252245 0.00670202 0.02863729 0.00727101 0.02371905 0.00559540 0.00639756 0.14749481 0.00993887 0.01178619 0.02991774 0.00152788 
0.02631440 0.09830984 0.02314918 0.00659537 0.00253018 0.00667384 0.02850269 0.00723384 0.02370134 0.00560031 0.00636317 0.14659732 0.01000006 0.01190622 0.02985857 0.00154839 
0.02497245 0.09735437 0.02263560 0.00663944 0.00253516 0.00664425 0.02837348 0.00722266 0.02389935 0.00560825 0.00633396 0.14577132 0.01005723 0.01202554 0.02980531 0.00156810 
0.02367322 0.09634335 0.02209899 0.00667475 0.00253735 0.00661337 0.02825080 0.00723744 0.02431242 0.00561922 0.00631015 0.14502006 0.01011005 0.01214362 0.02975791 0.00158695 
0.02241942 0.09528232 0.02154135 0.00670116 0.00253673 0.00658132 0.02813569 0.00727804 0.02493874 0.00563324 0.00629189 0.14434599 0.01015821 0.01225996 0.02971621 0.00160487 
0.02121356 0.09417690 0.02096478 0.00671861 0.00253328 0.00654821 0.02802910 0.00734416 0.02577532 0.00565028 0.00627931 0.14375068 0.01020141 0.01237405 0.02967995 0.00162178 
0.02005797 0.09303279 0.02037144 0.00672706 0.00252703 0.00651416 0.02793182 0.00743537 0.02681800 0.00567028 0.00627247 0.14323489 0.01023940 0.01248542 0.02964881 0.00163764 
0.01895478 0.09185567 0.01976352 0.00672653 0.00251799 0.00647926 0.02784455 0.00755110 0.02806152 0.00569315 0.00627142 0.14279857 0.01027191 0.01259362 0.02962238 0.00165238 
0.01790596 0.09065123 0.01914327 0.00671708 0.00250619 0.00644363 0.02776786 0.00769065 0.02949949 0.00571881 0.00627615 0.14244082 0.01029874 0.01269823 0.02960020 0.00166597 
0.01691326 0.08942513 0.01851296 0.00669882 0.00249169 0.00640735 0.02770217 0.00785317 0.03112442 0.00574711 0.00628661 0.14215999 0.01031968 0.01279882 0.02958173 0.00167836 
0.01597830 0.08818293 0.01787489 0.00667190 0.00247455 0.00637050 0.02764781 0.00803770 0.03292781 0.00577790 0.00630271 0.14195367 0.01033458 0.01289503 0.02956638 0.00168952 
0.01510251 0.08693011 0.01723135 0.00663652 0.00245486 0.00633318 0.02760495 0.00824315 0.03490014 0.00581101 0.00632431 0.14181871 0.01034331 0.01298651 0.02955350 0.00169942 
0.01428717 0.08567202 0.01658466 0.00659291 0.00243269 0.00629545 0.02757365 0.00846832 0.03703094 0.00584625 0.00635126 0.14175131 0.01034576 0.01307292 0.02954241 0.00170804 
0.01353339 0.08441384 0.01593711 0.00654137 0.00240817 0.00625738 0.02755384 0.00871189 0.03930883 0.00588339 0.00638333 0.14174704 0.01034187 0.01315400 0.02953241 0.00171536 
0.01284215 0.08316061 0.01529097 0.00648220 0.00238141 0.00621904 0.02754535 0.00897245 0.04172161 0.00592221 0.00642028 0.14180090 0.01033163 0.01322947 0.02952275 0.00172138 
0.01221429 0.08191714 0.01464849 0.00641577 0.00235255 0.00618047 0.02754789 0.00924847 0.04425628 0.00596245 0.00646185 0.14190738 0.01031505 0.01329913 0.02951268 0.00172609 
0.01165051 0.08068806 0.01401188 0.00634247 0.00232173 0.00614174 0.02756105 0.00953838 0.04689915 0.00600387 0.00650773 0.14206052 0.01029217 0.01336279 0.02950145 0.00172951 
0.01115139 0.07947773 0.01338328 0.00626272 0.00228911 0.00610289 0.02758433 0.00984048 0.04963586 0.00604617 0.00655758 0.14225400 0.01026309 0.01342031 0.02948830 0.00173163 
0.01071737 0.07829030 0.01276480 0.00617700 0.00225487 0.00606394 0.02761716 0.01015303 0.05245151 0.00608910 0.00661104 0.14248118 0.01022795 0.01347158 0.02947248 0.00173248 
0.01034880 0.07712964 0.01215848 0.00608578 0.00221918 0.00602495 0.02765886 0.01047424 0.05533071 0.00613235 0.00666773 0.14273519 0.01018692 0.01351653 0.02945327 0.00173208 
0.01004590 0.07599935 0.01156626 0.00598957 0.00218223 0.00598593 0.02770871 0.01080224 0.05825764 0.00617564 0.00672725 0.14300900 0.01014022 0.01355514 0.02942998 0.00173047 
0.00980882 0.07490275 0.01099004 0.00588891 0.00214424 0.00594691 0.02776591 0.01113515 0.06121620 0.00621867 0.00678919 0.14329551 0.01008809 0.01358741 0.02940193 0.00172766 
0.00963756 0.07384290 0.01043159 0.00578436 0.00210542 0.00590790 0.02782961 0.01147106 0.06419000 0.00626114 0.00685313 0.14358761 0.01003085 0.01361339 0.02936852 0.00172372 
0.00953206 0.07282255 0.00989261 0.00567648 0.00206598 0.00586893 0.02789894 0.01180802 0.06716253 0.00630277 0.00691863 0.14387826 0.00996881 0.01363319 0.02932917 0.00171867 
0.00949217 0.07184415 0.00937470 0.00556585 0.00202616 0.00583000 0.02797299 0.01214410 0.07011722 0.00634328 0.00698524 0.14416057 0.00990237 0.01364691 0.02928336 0.00171257 
0.00951763 0.07090989 0.00887933 0.00545308 0.00198618 0.00579112 0.02805083 0.01247736 0.07303749 0.00638237 0.00705254 0.14442787 0.00983193 0.01365474 0.02923065 0.00170547 
0.00960809 0.07002163 0.00840789 0.00533874 0.00194631 0.00575229 0.02813156 0.01280589 0.07590692 0.00641979 0.00712009 0.14467379 0.00975795 0.01365688 0.02917064 0.00169742 
0.00976314 0.06918100 0.00796161 0.00522345 0.00190678 0.00571352 0.02821426 0.01312779 0.07870923 0.00645527 0.00718745 0.14489231 0.00968090 0.01365357 0.02910301 0.00168850 
0.00998225 0.06838929 0.00754166 0.00510781 0.00186785 0.00567480 0.02829804 0.01344119 0.08142848 0.00648857 0.00725421 0.14507782 0.00960130 0.01364508 0.02902753 0.00167876 
0.01026485 0.06764755 0.00714902 0.00499241 0.00182977 0.00563614 0.02838203 0.01374430 0.08404906 0.00651946 0.00731996 0.14522523 0.00951970 0.01363172 0.02894403 0.00166826 
0.01061024 0.06695657 0.00678460 0.00487783 0.00179282 0.00559752 0.02846543 0.01403536 0.08655583 0.00654774 0.00738430 0.14532995 0.00943668 0.01361384 0.02885241 0.00165708 
0.01101765 0.06631685 0.00644915 0.00476466 0.00175724 0.00555894 0.02854748 0.01431268 0.08893420 0.00657321 0.00744688 0.14538799 0.00935284 0.01359180 0.02875267 0.00164529 
0.01148624 0.06572869 0.00614330 0.00465346 0.00172330 0.00552040 0.02862746 0.01457464 0.09117016 0.00659569 0.00750733 0.14539600 0.00926880 0.01356601 0.02864487 0.00163295 
0.01201505 0.06519210 0.00586756 0.00454477 0.00169126 0.00548188 0.02870476 0.01481973 0.09325043 0.00661505 0.00756533 0.14535128 0.00918520 0.01353688 0.02852916 0.00162014 
0.01260304 0.06470691 0.00562229 0.00443912 0.00166138 0.00544339 0.02877882 0.01504651 0.09516245 0.00663114 0.00762059 0.14525183 0.00910272 0.01350487 0.02840577 0.00160692 
0.01324909 0.06427271 0.00540773 0.00433701 0.00163392 0.00540491 0.02884918 0.01525365 0.09689452 0.00664388 0.00767283 0.14509638 0.00902202 0.01347042 0.02827500 0.00159337 
0.01395197 0.06388891 0.00522400 0.00423892 0.00160913 0.00536644 0.02891546 0.01543991 0.09843582 0.00665317 0.00772182 0.14488438 0.00894378 0.01343404 0.02813723 0.00157957 
0.01471035 0.06355473 0.00507109 0.00414529 0.00158727 0.00532797 0.02897740 0.01560418 0.09977649 0.00665898 0.00776735 0.14461604 0.00886871 0.01339620 0.02799288 0.00156557 
0.01552279 0.06326919 0.00494885 0.00405655 0.00156855 0.00528950 0.02903480 0.01574548 0.10090768 0.00666126 0.00780926 0.14429230 0.00879749 0.01335741 0.02784249 0.00155146 
0.01638775 0.06303119 0.00485703 0.00397308 0.00155324 0.00525102 0.02908761 0.01586293 0.10182158 0.00666002 0.00784740 0.14391485 0.00873082 0.01331819 0.02768660 0.00153729 
0.01730359 0.06283944 0.00479524 0.00389523 0.00154153 0.00521254 0.02913586 0.01595579 0.10251151 0.00665527 0.00788167 0.14348611 0.00866939 0.01327904 0.02752584 0.00152313 
0.01826855 0.06269255 0.00476299 0.00382331 0.00153366 0.00517405 0.02917968 0.01602345 0.10297192 0.00664708 0.00791201 0.14300918 0.00861387 0.01324048 0.02736088 0.00150905 
0.01928073 0.06258898 0.00475967 0.00375759 0.00152981 0.00513556 0.02921932 0.01606545 0.10319843 0.00663550 0.00793839 0.14248787 0.00856493 0.01320302 0.02719243 0.00149510 
0.02033816 0.06252708 0.00478456 0.00369833 0.00153019 0.00509707 0.02925512 0.01608145 0.10318786 0.00662063 0.00796082 0.14192661 0.00852323 0.01316715 0.02702125 0.00148134 
0.02143870 0.06250511 0.00483684 0.00364570 0.00153496 0.00505859 0.02928754 0.01607125 0.10293826 0.00660259 0.00797933 0.14133045 0.00848938 0.01313338 0.02684811 0.00146783 
0.02258012 0.06252123 0.00491561 0.00359986 0.00154428 0.00502012 0.02931711 0.01603480 0.10244893 0.00658153 0.00799400 0.14070497 0.00846400 0.01310217 0.02667380 0.00145462 
0.02376005 0.06257351 0.00501984 0.00356094 0.00155830 0.00498168 0.02934448 0.01597218 0.10172038 0.00655759 0.00800493 0.14005627 0.00844765 0.01307399 0.02649914 0.00144175 
0.02497601 0.06265996 0.00514844 0.00352899 0.00157714 0.00494328 0.02937035 0.01588362 0.10075441 0.00653096 0.00801227 0.13939090 0.00844087 0.01304926 0.02632495 0.00142927 
0.02622539 0.06277851 0.00530024 0.00350405 0.00160091 0.00490494 0.02939552 0.01576947 0.09955404 0.00650183 0.00801618 0.13871576 0.00844418 0.01302841 0.02615204 0.00141721 
0.02750544 0.06292704 0.00547397 0.00348610 0.00162969 0.00486667 0.02942087 0.01563023 0.09812352 0.00647041 0.00801686 0.13803810 0.00845803 0.01301181 0.02598122 0.00140562 
0.02881332 0.06310336 0.00566833 0.00347510 0.00166356 0.00482849 0.02944731 0.01546652 0.09646833 0.00643693 0.00801453 0.13736540 0.00848284 0.01299983 0.02581329 0.00139452 
0.03014604 0.06330527 0.00588191 0.00347094 0.00170255 0.00479042 0.02947582 0.01527910 0.09459515 0.00640162 0.00800943 0.13670530 0.00851898 0.01299278 0.02564901 0.00138394 
0.03150052 0.06353049 0.00611329 0.00347349 0.00174670 0.00475250 0.02950743 0.01506883 0.09251181 0.00636472 0.00800182 0.13606555 0.00856677 0.01299094 0.02548912 0.00137390 
0.03287355 0.06377671 0.00636097 0.00348259 0.00179599 0.00471474 0.02954317 0.01483672 0.09022728 0.00632649 0.00799199 0.13545391 0.00862648 0.01299456 0.02533433 0.00136443 
0.03426183 0.06404162 0.00662342 0.00349801 0.00185042 0.00467717 0.02958412 0.01458386 0.08775161 0.00628717 0.00798022 0.13487810 0.00869831 0.01300385 0.02518529 0.00135554 
0.03566194 0.06432284 0.00689907 0.00351952 0.00190992 0.00463982 0.02963134 0.01431147 0.08509591 0.00624704 0.00796684 0.13434568 0.00878242 0.01301897 0.02504262 0.00134724 
0.03707039 0.06461799 0.00718633 0.00354683 0.00197443 0.00460273 0.02968591 0.01402085 0.08227225 0.00620634 0.00795214 0.13386401 0.00887889 0.01304005 0.02490687 0.00133953 
0.03848359 0.06492466 0.00748357 0.00357965 0.00204385 0.00456592 0.02974888 0.01371341 0.07929367 0.00616533 0.00793645 0.13344016 0.00898774 0.01306715 0.02477855 0.00133243 
0.03989788 0.06524042 0.00778915 0.00361762 0.00211806 0.00452943 0.02982126 0.01339061 0.07617406 0.00612427 0.00792009 0.13308085 0.00910893 0.01310030 0.02465810 0.00132592 
0.04130954 0.06556283 0.00810144 0.00366039 0.00219690 0.00449330 0.02990404 0.01305403 0.07292812 0.00608340 0.00790338 0.13279236 0.00924236 0.01313950 0.02454587 0.00132001 
0.04271479 0.06588942 0.00841879 0.00370755 0.00228022 0.00445756 0.02999814 0.01270529 0.06957129 0.00604295 0.00788664 0.13258047 0.00938785 0.01318466 0.02444219 0.00131469 
0.04410982 0.06621775 0.00873955 0.00375871 0.00236781 0.00442224 0.03010444 0.01234606 0.06611966 0.00600316 0.00787017 0.13245041 0.00954515 0.01323570 0.02434726 0.00130994 
0.04549079 0.06654534 0.00906210 0.00381344 0.00245945 0.00438739 0.03022371 0.01197808 0.06258990 0.00596424 0.00785427 0.13240677 0.00971395 0.01329244 0.02426126 0.00130576 
0.04685383 0.06686971 0.00938483 0.00387127 0.00255490 0.00435303 0.03035666 0.01160312 0.05899918 0.00592639 0.00783922 0.13245348 0.00989386 0.01335469 0.02418427 0.00130212 
0.04819509 0.06718841 0.00970613 0.00393176 0.00265389 0.00431922 0.03050389 0.01122297 0.05536510 0.00588980 0.00782528 0.13259376 0.01008444 0.01342221 0.02411628 0.00129901 
