0.01434972 0.00920135 0.00167219 0.00119780 0.02451001 0.00135413 0.01237029 0.00426441 0.02340136 0.00459530 0.01235031 0.00144314 0.01947320 0.06537731 0.01875215 0.02502910 
0.01448097 0.00922460 0.00172020 0.00120988 0.02418395 0.00135796 0.01201641 0.00422084 0.02337640 0.00465502 0.01264796 0.00142470 0.01977925 0.06511518 0.01874251 0.02420378 
0.01461590 0.00926031 0.00177083 0.00122352 0.02383792 0.00136260 0.01166690 0.00418342 0.02334205 0.00471384 0.01297772 0.00140651 0.02008396 0.06479073 0.01871302 0.02336136 
0.01475390 0.00930816 0.00182393 0.00123865 0.02347331 0.00136810 0.01132314 0.00415213 0.02329847 0.00477142 0.01333785 0.00138864 0.02038626 0.06440567 0.01866386 0.02250533 
0.01489434 0.00936782 0.00187933 0.00125521 0.02309157 0.00137446 0.01098649 0.00412691 0.02324586 0.00482746 0.01372644 0.00137118 0.02068505 0.06396199 0.01859530 0.02163924 
0.01503657 0.00943891 0.00193689 0.00127310 0.02269416 0.00138172 0.01065823 0.00410767 0.02318447 0.00488162 0.01414145 0.00135422 0.02097928 0.06346195 0.01850769 0.02076667 
0.01517988 0.00952103 0.00199643 0.00129226 0.02228256 0.00138990 0.01033958 0.00409428 0.02311461 0.00493362 0.01458073 0.00133783 0.02126789 0.06290806 0.01840148 0.01989124 
0.01532356 0.00961376 0.00205779 0.00131260 0.02185830 0.00139901 0.01003169 0.00408656 0.02303664 0.00498316 0.01504202 0.00132208 0.02154988 0.06230304 0.01827719 0.01901658 
0.01546689 0.00971665 0.00212082 0.00133403 0.02142286 0.00140908 0.00973565 0.00408432 0.02295098 0.00502995 0.01552296 0.00130706 0.02182425 0.06164984 0.01813542 0.01814628 
0.01560910 0.00982923 0.00218535 0.00135646 0.02097777 0.00142011 0.00945245 0.00408732 0.02285807 0.00507374 0.01602112 0.00129283 0.02209005 0.06095161 0.01797686 0.01728396 
0.01574945 0.00995099 0.00225121 0.00137980 0.02052452 0.00143211 0.00918300 0.00409529 0.02275841 0.00511429 0.01653400 0.00127946 0.02234640 0.06021166 0.01780225 0.01643316 
0.01588717 0.01008143 0.00231825 0.00140395 0.02006459 0.00144509 0.00892811 0.00410795 0.02265256 0.00515137 0.01705905 0.00126700 0.02259243 0.05943346 0.01761240 0.01559738 
0.01602150 0.01022000 0.00238630 0.00142881 0.01959944 0.00145906 0.00868852 0.00412497 0.02254109 0.00518478 0.01759371 0.00125551 0.02282734 0.05862063 0.01740817 0.01478006 
0.01615169 0.01036614 0.00245520 0.00145428 0.01913050 0.00147401 0.00846484 0.00414600 0.02242462 0.00521435 0.01813537 0.00124505 0.02305039 0.05777687 0.01719049 0.01398454 
0.01627697 0.01051927 0.00252479 0.00148027 0.01865915 0.00148994 0.00825760 0.00417070 0.02230379 0.00523993 0.01868143 0.00123564 0.02326090 0.05690600 0.01696032 0.01321406 
0.01639663 0.01067879 0.00259491 0.00150666 0.01818674 0.00150685 0.00806721 0.00419866 0.02217928 0.00526141 0.01922931 0.00122734 0.02345824 0.05601190 0.01671867 0.01247176 
0.01650994 0.01084409 0.00266540 0.00153335 0.01771456 0.00152471 0.00789401 0.00422948 0.02205179 0.00527868 0.01977643 0.00122018 0.02364187 0.05509851 0.01646658 0.01176063 
0.01661623 0.01101452 0.00273611 0.00156025 0.01724386 0.00154351 0.00773818 0.00426277 0.02192204 0.00529170 0.02032027 0.00121418 0.02381128 0.05416979 0.01620513 0.01108354 
0.01671483 0.01118945 0.00280686 0.00158724 0.01677582 0.00156324 0.00759984 0.00429808 0.02179074 0.00530042 0.02085837 0.00120937 0.02396605 0.05322971 0.01593542 0.01044319 
0.01680513 0.01136821 0.00287751 0.00161423 0.01631156 0.00158386 0.00747897 0.00433499 0.02165865 0.00530486 0.02138831 0.00120576 0.02410584 0.05228222 0.01565856 0.00984211 
0.01688654 0.01155012 0.00294790 0.00164112 0.01585212 0.00160535 0.00737547 0.00437307 0.02152650 0.00530505 0.02190777 0.00120335 0.02423035 0.05133126 0.01537568 0.00928265 
0.01695852 0.01173449 0.00301787 0.00166781 0.01539848 0.00162767 0.00728913 0.00441187 0.02139505 0.00530106 0.02241452 0.00120216 0.02433937 0.05038069 0.01508790 0.00876699 
0.01702059 0.01192063 0.00308728 0.00169419 0.01495156 0.00165078 0.00721962 0.00445096 0.02126504 0.00529298 0.02290643 0.00120218 0.02443273 0.04943433 0.01479638 0.00829708 
0.01707230 0.01210783 0.00315595 0.00172019 0.01451218 0.00167465 0.00716655 0.00448992 0.02113719 0.00528096 0.02338147 0.00120339 0.02451036 0.04849589 0.01450222 0.00787467 
0.01711328 0.01229537 0.00322375 0.00174569 0.01408110 0.00169921 0.00712939 0.00452833 0.02101223 0.00526515 0.02383775 0.00120579 0.02457223 0.04756899 0.01420655 0.00750128 
0.01714320 0.01248254 0.00329052 0.00177063 0.01365900 0.00172442 0.00710754 0.00456576 0.02089088 0.00524575 0.02427351 0.00120935 0.02461838 0.04665713 0.01391048 0.00717824 
0.01716181 0.01266862 0.00335611 0.00179491 0.01324647 0.00175022 0.00710034 0.00460183 0.02077380 0.00522299 0.02468712 0.00121404 0.02464891 0.04576366 0.01361509 0.00690659 
0.01716890 0.01285287 0.00342037 0.00181846 0.01284403 0.00177655 0.00710700 0.00463616 0.02066168 0.00519711 0.02507710 0.00121984 0.02466396 0.04489180 0.01332143 0.00668718 
0.01716435 0.01303459 0.00348315 0.00184120 0.01245214 0.00180333 0.00712669 0.00466839 0.02055515 0.00516840 0.02544212 0.00122670 0.02466375 0.04404461 0.01303053 0.00652058 
0.01714810 0.01321305 0.00354430 0.00186305 0.01207117 0.00183050 0.00715851 0.00469817 0.02045481 0.00513717 0.02578102 0.00123457 0.02464853 0.04322496 0.01274339 0.00640714 
0.01712016 0.01338754 0.00360368 0.00188396 0.01170139 0.00185798 0.00720147 0.00472520 0.02036125 0.00510373 0.02609279 0.00124342 0.02461861 0.04243556 0.01246096 0.00634694 
0.01708061 0.01355737 0.00366114 0.00190387 0.01134305 0.00188568 0.00725455 0.00474920 0.02027502 0.00506844 0.02637658 0.00125319 0.02457435 0.04167892 0.01218415 0.00633983 
0.01702961 0.01372184 0.00371655 0.00192272 0.01099629 0.00191354 0.00731669 0.00476989 0.02019662 0.00503167 0.02663171 0.00126381 0.02451612 0.04095735 0.01191385 0.00638539 
0.01696738 0.01388029 0.00376975 0.00194046 0.01066121 0.00194144 0.00738677 0.00478706 0.02012654 0.00499380 0.02685767 0.00127523 0.02444435 0.04027298 0.01165087 0.00648295 
0.01689423 0.01403205 0.00382061 0.00195705 0.01033783 0.00196932 0.00746363 0.00480051 0.02006520 0.00495523 0.02705410 0.00128739 0.02435951 0.03962770 0.01139599 0.00663162 
0.01681052 0.01417649 0.00386901 0.00197245 0.01002611 0.00199706 0.00754612 0.00481008 0.02001302 0.00491635 0.02722083 0.00130022 0.02426208 0.03902322 0.01114994 0.00683025 
0.01671668 0.01431301 0.00391480 0.00198664 0.00972598 0.00202458 0.00763305 0.00481564 0.01997035 0.00487759 0.02735782 0.00131363 0.02415258 0.03846102 0.01091337 0.00707744 
0.01661324 0.01444103 0.00395785 0.00199960 0.00943729 0.00205177 0.00772322 0.00481710 0.01993753 0.00483937 0.02746522 0.00132757 0.02403155 0.03794238 0.01068691 0.00737159 
0.01650077 0.01455999 0.00399805 0.00201129 0.00915987 0.00207853 0.00781544 0.00481441 0.01991485 0.00480210 0.02754332 0.00134196 0.02389954 0.03746836 0.01047111 0.00771085 
0.01637989 0.01466939 0.00403527 0.00202173 0.00889349 0.00210476 0.00790852 0.00480755 0.01990255 0.00476621 0.02759254 0.00135671 0.02375712 0.03703981 0.01026649 0.00809317 
0.01625132 0.01476876 0.00406939 0.00203089 0.00863789 0.00213035 0.00800130 0.00479653 0.01990086 0.00473210 0.02761348 0.00137175 0.02360489 0.03665739 0.01007347 0.00851629 
0.01611580 0.01485765 0.00410030 0.00203879 0.00839278 0.00215520 0.00809263 0.00478143 0.01990997 0.00470018 0.02760685 0.00138701 0.02344345 0.03632154 0.00989245 0.00897776 
0.01597415 0.01493568 0.00412790 0.00204543 0.00815786 0.00217921 0.00818139 0.00476232 0.01993002 0.00467084 0.02757350 0.00140240 0.02327339 0.03603251 0.00972376 0.00947495 
0.01582723 0.01500251 0.00415209 0.00205083 0.00793278 0.00220227 0.00826653 0.00473934 0.01996114 0.00464447 0.02751439 0.00141784 0.02309533 0.03579036 0.00956767 0.01000505 
0.01567594 0.01505785 0.00417278 0.00205501 0.00771719 0.00222427 0.00834699 0.00471265 0.02000343 0.00462141 0.02743061 0.00143326 0.02290988 0.03559498 0.00942439 0.01056513 
0.01552123 0.01510147 0.00418987 0.00205800 0.00751074 0.00224511 0.00842182 0.00468246 0.02005694 0.00460202 0.02732333 0.00144857 0.02271767 0.03544607 0.00929410 0.01115207 
0.01536408 0.01513319 0.00420330 0.00205982 0.00731306 0.00226470 0.00849009 0.00464899 0.02012173 0.00458662 0.02719384 0.00146372 0.02251930 0.03534316 0.00917689 0.01176267 
0.01520550 0.01515289 0.00421299 0.00206053 0.00712378 0.00228293 0.00855096 0.00461250 0.02019781 0.00457548 0.02704347 0.00147861 0.02231541 0.03528564 0.00907284 0.01239361 
0.01504652 0.01516052 0.00421888 0.00206016 0.00694254 0.00229971 0.00860363 0.00457330 0.02028519 0.00456888 0.02687368 0.00149318 0.02210659 0.03527274 0.00898193 0.01304147 
0.01488821 0.01515607 0.00422092 0.00205875 0.00676898 0.00231495 0.00864740 0.00453169 0.02038384 0.00456705 0.02668594 0.00150737 0.02189347 0.03530357 0.00890413 0.01370278 
0.01473162 0.01513962 0.00421907 0.00205637 0.00660277 0.00232856 0.00868164 0.00448802 0.02049372 0.00457019 0.02648180 0.00152111 0.02167664 0.03537709 0.00883935 0.01437401 
0.01457783 0.01511130 0.00421330 0.00205307 0.00644357 0.00234046 0.00870580 0.00444266 0.02061479 0.00457846 0.02626283 0.00153433 0.02145672 0.03549217 0.00878747 0.01505158 
0.01442791 0.01507132 0.00420359 0.00204890 0.00629108 0.00235058 0.00871942 0.00439600 0.02074697 0.00459199 0.02603066 0.00154698 0.02123430 0.03564756 0.00874830 0.01573193 
0.01428294 0.01501995 0.00418993 0.00204394 0.00614502 0.00235883 0.00872212 0.00434844 0.02089019 0.00461088 0.02578691 0.00155902 0.02100998 0.03584192 0.00872164 0.01641147 
0.01414395 0.01495752 0.00417232 0.00203824 0.00600512 0.00236516 0.00871361 0.00430039 0.02104435 0.00463517 0.02553320 0.00157038 0.02078435 0.03607384 0.00870723 0.01708666 
0.01401200 0.01488444 0.00415078 0.00203188 0.00587116 0.00236951 0.00869370 0.00425230 0.02120936 0.00466488 0.02527118 0.00158102 0.02055799 0.03634182 0.00870479 0.01775400 
0.01388808 0.01480118 0.00412534 0.00202493 0.00574294 0.00237183 0.00866229 0.00420460 0.02138510 0.00469998 0.02500247 0.00159092 0.02033148 0.03664433 0.00871402 0.01841004 
0.01377318 0.01470827 0.00409605 0.00201745 0.00562030 0.00237208 0.00861934 0.00415773 0.02157146 0.00474041 0.02472864 0.00160002 0.02010540 0.03697975 0.00873456 0.01905142 
0.01366823 0.01460632 0.00406295 0.00200953 0.00550309 0.00237021 0.00856494 0.00411213 0.02176829 0.00478605 0.02445127 0.00160832 0.01988033 0.03734647 0.00876606 0.01967489 
0.01357413 0.01449599 0.00402612 0.00200124 0.00539122 0.00236622 0.00849925 0.00406826 0.02197546 0.00483676 0.02417188 0.00161577 0.01965683 0.03774279 0.00880811 0.02027731 
0.01349173 0.01437800 0.00398563 0.00199264 0.00528462 0.00236006 0.00842251 0.00402656 0.02219281 0.00489236 0.02389193 0.00162237 0.01943547 0.03816705 0.00886030 0.02085567 
0.01342181 0.01425312 0.00394160 0.00198382 0.00518326 0.00235175 0.00833506 0.00398745 0.02242017 0.00495261 0.02361282 0.00162810 0.01921683 0.03861754 0.00892222 0.02140713 
0.01336510 0.01412218 0.00389413 0.00197484 0.00508716 0.00234128 0.00823729 0.00395135 0.02265738 0.00501726 0.02333590 0.00163296 0.01900146 0.03909256 0.00899340 0.02192900 
0.01332226 0.01398607 0.00384335 0.00196577 0.00499635 0.00232866 0.00812971 0.00391868 0.02290422 0.00508601 0.02306243 0.00163695 0.01878993 0.03959041 0.00907340 0.02241880 
0.01329389 0.01384569 0.00378939 0.00195670 0.00491090 0.00231390 0.00801286 0.00388983 0.02316049 0.00515853 0.02279360 0.00164007 0.01858279 0.04010939 0.00916175 0.02287422 
0.01328050 0.01370203 0.00373242 0.00194767 0.00483092 0.00229705 0.00788737 0.00386515 0.02342596 0.00523446 0.02253051 0.00164232 0.01838061 0.04064784 0.00925795 0.02329317 
0.01328253 0.01355606 0.00367260 0.00193876 0.00475655 0.00227814 0.00775394 0.00384500 0.02370037 0.00531341 0.02227417 0.00164374 0.01818394 0.04120409 0.00936154 0.02367379 
0.01330032 0.01340883 0.00361012 0.00193002 0.00468794 0.00225722 0.00761330 0.00382970 0.02398345 0.00539495 0.02202549 0.00164432 0.01799333 0.04177653 0.00947201 0.02401445 
0.01333415 0.01326137 0.00354517 0.00192153 0.00462530 0.00223434 0.00746626 0.00381953 0.02427489 0.00547865 0.02178529 0.00164411 0.01780934 0.04236355 0.00958889 0.02431375 
0.01338419 0.01311477 0.00347797 0.00191332 0.00456882 0.00220958 0.00731366 0.00381477 0.02457436 0.00556405 0.02155430 0.00164313 0.01763251 0.04296358 0.00971166 0.02457055 
0.01345053 0.01297009 0.00340872 0.00190546 0.00451876 0.00218302 0.00715638 0.00381563 0.02488150 0.00565066 0.02133311 0.00164141 0.01746340 0.04357509 0.00983983 0.02478396 
0.01353316 0.01282843 0.00333768 0.00189798 0.00447535 0.00215474 0.00699534 0.00382231 0.02519590 0.00573799 0.02112225 0.00163899 0.01730252 0.04419659 0.00997292 0.02495335 
0.01363199 0.01269088 0.00326508 0.00189094 0.00443886 0.00212483 0.00683148 0.00383497 0.02551714 0.00582554 0.02092212 0.00163591 0.01715042 0.04482661 0.01011042 0.02507834 
0.01374682 0.01255849 0.00319118 0.00188436 0.00440958 0.00209340 0.00666576 0.00385372 0.02584472 0.00591280 0.02073302 0.00163222 0.01700761 0.04546374 0.01025186 0.02515883 
0.01387737 0.01243235 0.00311624 0.00187828 0.00438778 0.00206057 0.00649916 0.00387865 0.02617814 0.00599924 0.02055516 0.00162797 0.01687461 0.04610659 0.01039674 0.02519498 
0.01402324 0.01231349 0.00304055 0.00187272 0.00437376 0.00202645 0.00633267 0.00390978 0.02651683 0.00608436 0.02038864 0.00162320 0.01675191 0.04675380 0.01054459 0.02518720 
0.01418399 0.01220292 0.00296438 0.00186772 0.00436780 0.00199117 0.00616726 0.00394713 0.02686017 0.00616764 0.02023346 0.00161797 0.01663999 0.04740407 0.01069493 0.02513617 
0.01435903 0.01210162 0.00288802 0.00186328 0.00437018 0.00195487 0.00600391 0.00399064 0.02720751 0.00624858 0.02008952 0.00161234 0.01653931 0.04805612 0.01084731 0.02504279 
0.01454773 0.01201052 0.00281177 0.00185943 0.00438118 0.00191767 0.00584359 0.00404024 0.02755813 0.00632669 0.01995666 0.00160635 0.01645033 0.04870870 0.01100126 0.02490826 
0.01474934 0.01193052 0.00273594 0.00185615 0.00440107 0.00187974 0.00568723 0.00409579 0.02791129 0.00640147 0.01983459 0.00160007 0.01637345 0.04936060 0.01115633 0.02473396 
0.01496306 0.01186244 0.00266082 0.00185347 0.00443009 0.00184121 0.00553577 0.00415714 0.02826616 0.00647249 0.01972297 0.00159355 0.01630908 0.05001063 0.01131207 0.02452153 
0.01518799 0.01180706 0.00258673 0.00185136 0.00446847 0.00180225 0.00539009 0.00422407 0.02862188 0.00653929 0.01962137 0.00158686 0.01625758 0.05065763 0.01146806 0.02427283 
0.01542317 0.01176508 0.00251397 0.00184984 0.00451642 0.00176300 0.00525104 0.00429634 0.02897754 0.00660146 0.01952931 0.00158005 0.01621928 0.05130045 0.01162387 0.02398990 
0.01566758 0.01173715 0.00244285 0.00184887 0.00457412 0.00172364 0.00511944 0.00437368 0.02933219 0.00665863 0.01944620 0.00157318 0.01619448 0.05193798 0.01177908 0.02367500 
0.01592012 0.01172381 0.00237369 0.00184845 0.00464172 0.00168431 0.00499605 0.00445576 0.02968480 0.00671042 0.01937145 0.00156630 0.01618343 0.05256911 0.01193329 0.02333054 
0.01617964 0.01172554 0.00230677 0.00184856 0.00471933 0.00164519 0.00488159 0.00454224 0.03003432 0.00675652 0.01930438 0.00155947 0.01618634 0.05319277 0.01208610 0.02295911 
0.01644496 0.01174274 0.00224242 0.00184915 0.00480704 0.00160643 0.00477673 0.00463273 0.03037966 0.00679666 0.01924427 0.00155275 0.01620340 0.05380788 0.01223711 0.02256343 
0.01671484 0.01177571 0.00218091 0.00185021 0.00490489 0.00156820 0.00468207 0.00472682 0.03071968 0.00683057 0.01919039 0.00154618 0.01623470 0.05441338 0.01238596 0.02214638 
0.01698801 0.01182466 0.00212254 0.00185171 0.00501288 0.00153066 0.00459816 0.00482409 0.03105320 0.00685805 0.01914195 0.00153982 0.01628033 0.05500822 0.01253227 0.02171090 
0.01726318 0.01188970 0.00206760 0.00185360 0.00513097 0.00149397 0.00452548 0.00492405 0.03137903 0.00687894 0.01909816 0.00153371 0.01634029 0.05559137 0.01267570 0.02126007 
0.01753904 0.01197086 0.00201634 0.00185584 0.00525907 0.00145828 0.00446445 0.00502625 0.03169593 0.00689312 0.01905820 0.00152790 0.01641453 0.05616178 0.01281589 0.02079702 
0.01781425 0.01206804 0.00196904 0.00185839 0.00539705 0.00142374 0.00441542 0.00513017 0.03200265 0.00690051 0.01902127 0.00152242 0.01650295 0.05671844 0.01295251 0.02032494 
0.01808751 0.01218108 0.00192593 0.00186120 0.00554471 0.00139052 0.00437867 0.00523530 0.03229795 0.00690107 0.01898654 0.00151732 0.01660538 0.05726032 0.01308525 0.01984705 
0.01835749 0.01230970 0.00188726 0.00186424 0.00570184 0.00135873 0.00435442 0.00534113 0.03258055 0.00689483 0.01895322 0.00151263 0.01672158 0.05778642 0.01321378 0.01936660 
0.01862288 0.01245352 0.00185325 0.00186744 0.00586814 0.00132853 0.00434281 0.00544711 0.03284920 0.00688183 0.01892050 0.00150839 0.01685125 0.05829573 0.01333783 0.01888682 
0.01888240 0.01261206 0.00182410 0.00187076 0.00604328 0.00130005 0.00434392 0.00555271 0.03310263 0.00686218 0.01888762 0.00150460 0.01699401 0.05878727 0.01345709 0.01841094 
0.01913480 0.01278475 0.00179999 0.00187415 0.00622688 0.00127340 0.00435775 0.00565741 0.03333962 0.00683603 0.01885385 0.00150131 0.01714944 0.05926004 0.01357132 0.01794212 
0.01937887 0.01297094 0.00178111 0.00187756 0.00641851 0.00124870 0.00438426 0.00576066 0.03355896 0.00680357 0.01881848 0.00149853 0.01731700 0.05971310 0.01368025 0.01748350 
0.01961343 0.01316986 0.00176759 0.00188093 0.00661767 0.00122607 0.00442330 0.00586194 0.03375947 0.00676503 0.01878085 0.00149627 0.01749614 0.06014548 0.01378365 0.01703811 
0.01983739 0.01338067 0.00175957 0.00188422 0.00682384 0.00120558 0.00447470 0.00596073 0.03394003 0.00672070 0.01874036 0.00149455 0.01768618 0.06055626 0.01388130 0.01660891 
0.02004967 0.01360246 0.00175717 0.00188737 0.00703645 0.00118734 0.00453819 0.00605654 0.03409957 0.00667087 0.01869644 0.00149337 0.01788643 0.06094454 0.01397299 0.01619874 
0.02024931 0.01383422 0.00176047 0.00189033 0.00725485 0.00117143 0.00461348 0.00614888 0.03423707 0.00661591 0.01864858 0.00149273 0.01809608 0.06130943 0.01405855 0.01581032 
0.02043538 0.01407487 0.00176954 0.00189307 0.00747840 0.00115790 0.00470019 0.00623729 0.03435160 0.00655621 0.01859636 0.00149265 0.01831428 0.06165010 0.01413781 0.01544623 
0.02060706 0.01432327 0.00178443 0.00189552 0.00770638 0.00114683 0.00479789 0.00632132 0.03444230 0.00649216 0.01853938 0.00149310 0.01854013 0.06196573 0.01421062 0.01510890 
0.02076361 0.01457823 0.00180516 0.00189765 0.00793804 0.00113824 0.00490613 0.00640056 0.03450840 0.00642423 0.01847735 0.00149409 0.01877264 0.06225557 0.01427686 0.01480059 
0.02090436 0.01483848 0.00183173 0.00189942 0.00817261 0.00113219 0.00502438 0.00647463 0.03454923 0.00635288 0.01841003 0.00149560 0.01901077 0.06251888 0.01433643 0.01452339 
0.02102876 0.01510273 0.00186412 0.00190079 0.00840927 0.00112868 0.00515209 0.00654318 0.03456424 0.00627862 0.01833725 0.00149762 0.01925344 0.06275502 0.01438925 0.01427920 
0.02113634 0.01536963 0.00190229 0.00190171 0.00864719 0.00112775 0.00528864 0.00660588 0.03455297 0.00620195 0.01825892 0.00150013 0.01949951 0.06296337 0.01443526 0.01406973 
0.02122675 0.01563782 0.00194616 0.00190217 0.00888551 0.00112937 0.00543342 0.00666246 0.03451509 0.00612340 0.01817503 0.00150312 0.01974781 0.06314340 0.01447444 0.01389649 
0.02129971 0.01590589 0.00199565 0.00190212 0.00912333 0.00113355 0.00558575 0.00671266 0.03445042 0.00604351 0.01808563 0.00150656 0.01999710 0.06329462 0.01450677 0.01376076 
0.02135507 0.01617245 0.00205064 0.00190155 0.00935976 0.00114026 0.00574494 0.00675629 0.03435889 0.00596284 0.01799086 0.00151043 0.02024614 0.06341666 0.01453229 0.01366362 
0.02139279 0.01643608 0.00211099 0.00190042 0.00959390 0.00114947 0.00591029 0.00679318 0.03424055 0.00588194 0.01789094 0.00151470 0.02049365 0.06350919 0.01455102 0.01360595 
0.02141290 0.01669537 0.00217656 0.00189873 0.00982482 0.00116112 0.00608106 0.00682321 0.03409565 0.00580137 0.01778613 0.00151934 0.02073833 0.06357199 0.01456305 0.01358838 
0.02141558 0.01694891 0.00224715 0.00189645 0.01005162 0.00117517 0.00625651 0.00684630 0.03392452 0.00572167 0.01767680 0.00152433 0.02097886 0.06360493 0.01456846 0.01361133 
0.02140106 0.01719533 0.00232258 0.00189358 0.01027336 0.00119154 0.00643588 0.00686242 0.03372770 0.00564340 0.01756337 0.00152964 0.02121392 0.06360797 0.01456740 0.01367499 
0.02136971 0.01743329 0.00240262 0.00189011 0.01048916 0.00121016 0.00661842 0.00687158 0.03350582 0.00556708 0.01744631 0.00153523 0.02144221 0.06358118 0.01456001 0.01377935 
0.02132198 0.01766146 0.00248703 0.00188603 0.01069812 0.00123094 0.00680338 0.00687383 0.03325970 0.00549324 0.01732618 0.00154108 0.02166240 0.06352472 0.01454647 0.01392415 
0.02125841 0.01787859 0.00257557 0.00188135 0.01089935 0.00125378 0.00698999 0.00686927 0.03299030 0.00542238 0.01720359 0.00154715 0.02187321 0.06343888 0.01452698 0.01410894 
0.02117963 0.01808346 0.00266796 0.00187607 0.01109202 0.00127856 0.00717751 0.00685803 0.03269872 0.00535497 0.01707918 0.00155342 0.02207338 0.06332405 0.01450179 0.01433304 
0.02108635 0.01827491 0.00276392 0.00187021 0.01127529 0.00130518 0.00736521 0.00684029 0.03238620 0.00529148 0.01695368 0.00155985 0.02226167 0.06318073 0.01447114 0.01459559 
0.02097937 0.01845187 0.00286315 0.00186376 0.01144837 0.00133351 0.00755235 0.00681629 0.03205412 0.00523234 0.01682782 0.00156641 0.02243690 0.06300956 0.01443533 0.01489551 
0.02085953 0.01861334 0.00296533 0.00185676 0.01161051 0.00136342 0.00773824 0.00678627 0.03170401 0.00517793 0.01670241 0.00157308 0.02259792 0.06281126 0.01439465 0.01523153 
0.02072776 0.01875839 0.00307014 0.00184921 0.01176100 0.00139476 0.00792219 0.00675054 0.03133750 0.00512863 0.01657826 0.00157983 0.02274365 0.06258670 0.01434944 0.01560221 
0.02058504 0.01888619 0.00317725 0.00184115 0.01189916 0.00142739 0.00810353 0.00670944 0.03095636 0.00508476 0.01645622 0.00158664 0.02287307 0.06233684 0.01430006 0.01600592 
0.02043238 0.01899600 0.00328633 0.00183260 0.01202438 0.00146116 0.00828163 0.00666332 0.03056247 0.00504661 0.01633717 0.00159347 0.02298525 0.06206280 0.01424686 0.01644089 
0.02027085 0.01908719 0.00339701 0.00182360 0.01213609 0.00149591 0.00845588 0.00661258 0.03015778 0.00501444 0.01622199 0.00160031 0.02307930 0.06176575 0.01419026 0.01690517 
0.02010154 0.01915922 0.00350895 0.00181417 0.01223378 0.00153148 0.00862569 0.00655767 0.02974437 0.00498844 0.01611157 0.00160714 0.02315446 0.06144703 0.01413065 0.01739670 
0.01992556 0.01921166 0.00362180 0.00180435 0.01231701 0.00156770 0.00879053 0.00649902 0.02932438 0.00496880 0.01600680 0.00161394 0.02321003 0.06110804 0.01406845 0.01791326 
0.01974405 0.01924421 0.00373519 0.00179419 0.01238540 0.00160441 0.00894987 0.00643712 0.02890002 0.00495563 0.01590859 0.00162069 0.02324543 0.06075033 0.01400411 0.01845254 
0.01955812 0.01925666 0.00384877 0.00178372 0.01243862 0.00164143 0.00910324 0.00637246 0.02847353 0.00494900 0.01581781 0.00162737 0.02326018 0.06037549 0.01393808 0.01901211 
0.01936891 0.01924893 0.00396218 0.00177299 0.01247642 0.00167861 0.00925018 0.00630555 0.02804723 0.00494896 0.01573532 0.00163399 0.02325390 0.05998526 0.01387080 0.01958944 
0.01917752 0.01922106 0.00407506 0.00176204 0.01249862 0.00171576 0.00939030 0.00623694 0.02762344 0.00495548 0.01566196 0.00164053 0.02322633 0.05958141 0.01380273 0.02018195 
0.01898506 0.01917318 0.00418707 0.00175093 0.01250511 0.00175271 0.00952320 0.00616715 0.02720448 0.00496852 0.01559855 0.00164697 0.02317732 0.05916581 0.01373436 0.02078698 
0.01879257 0.01910557 0.00429786 0.00173969 0.01249586 0.00178931 0.00964856 0.00609674 0.02679269 0.00498797 0.01554586 0.00165333 0.02310685 0.05874041 0.01366613 0.02140181 
0.01860107 0.01901860 0.00440709 0.00172840 0.01247088 0.00182537 0.00976608 0.00602625 0.02639038 0.00501367 0.01550462 0.00165959 0.02301500 0.05830720 0.01359852 0.02202370 
0.01841153 0.01891278 0.00451444 0.00171709 0.01243029 0.00186074 0.00987549 0.00595624 0.02599981 0.00504546 0.01547553 0.00166576 0.02290200 0.05786820 0.01353198 0.02264987 
0.01822487 0.01878870 0.00461958 0.00170583 0.01237427 0.00189526 0.00997656 0.00588727 0.02562321 0.00508308 0.01545922 0.00167184 0.02276819 0.05742550 0.01346696 0.02327755 
0.01804196 0.01864708 0.00472222 0.00169466 0.01230306 0.00192877 0.01006910 0.00581987 0.02526274 0.00512628 0.01545628 0.00167783 0.02261402 0.05698119 0.01340390 0.02390393 
0.01786356 0.01848874 0.00482204 0.00168364 0.01221697 0.00196112 0.01015295 0.00575459 0.02492046 0.00517475 0.01546723 0.00168374 0.02244008 0.05653740 0.01334323 0.02452627 
0.01769040 0.01831458 0.00491878 0.00167283 0.01211641 0.00199217 0.01022799 0.00569195 0.02459836 0.00522814 0.01549252 0.00168958 0.02224706 0.05609622 0.01328536 0.02514183 
0.01752311 0.01812561 0.00501216 0.00166228 0.01200181 0.00202178 0.01029412 0.00563247 0.02429830 0.00528608 0.01553254 0.00169535 0.02203579 0.05565977 0.01323069 0.02574789 
0.01736225 0.01792294 0.00510194 0.00165206 0.01187369 0.00204982 0.01035128 0.00557664 0.02402203 0.00534815 0.01558763 0.00170107 0.02180720 0.05523011 0.01317957 0.02634182 
0.01720828 0.01770773 0.00518787 0.00164221 0.01173263 0.00207616 0.01039945 0.00552493 0.02377115 0.00541393 0.01565802 0.00170675 0.02156233 0.05480931 0.01313235 0.02692102 
0.01706157 0.01748123 0.00526973 0.00163279 0.01157926 0.00210070 0.01043861 0.00547780 0.02354712 0.00548294 0.01574390 0.00171240 0.02130231 0.05439934 0.01308936 0.02748300 
0.01692241 0.01724477 0.00534733 0.00162386 0.01141426 0.00212332 0.01046880 0.00543568 0.02335125 0.00555472 0.01584535 0.00171804 0.02102839 0.05400213 0.01305087 0.02802531 
0.01679099 0.01699971 0.00542048 0.00161547 0.01123837 0.00214394 0.01049006 0.00539896 0.02318466 0.00562874 0.01596239 0.00172367 0.02074190 0.05361956 0.01301714 0.02854563 
0.01666741 0.01674749 0.00548901 0.00160767 0.01105237 0.00216246 0.01050247 0.00536801 0.02304831 0.00570450 0.01609498 0.00172932 0.02044426 0.05325338 0.01298840 0.02904173 
0.01655168 0.01648957 0.00555278 0.00160052 0.01085708 0.00217882 0.01050614 0.00534317 0.02294296 0.00578146 0.01624296 0.00173499 0.02013696 0.05290527 0.01296483 0.02951150 
0.01644370 0.01622744 0.00561165 0.00159407 0.01065336 0.00219293 0.01050116 0.00532475 0.02286918 0.00585909 0.01640614 0.00174070 0.01982155 0.05257679 0.01294658 0.02995293 
0.01634329 0.01596264 0.00566553 0.00158836 0.01044209 0.00220476 0.01048770 0.00531301 0.02282735 0.00593682 0.01658421 0.00174646 0.01949966 0.05226939 0.01293375 0.03036415 
0.01625021 0.01569670 0.00571431 0.00158345 0.01022418 0.00221426 0.01046589 0.00530820 0.02281766 0.00601413 0.01677682 0.00175229 0.01917296 0.05198439 0.01292643 0.03074343 
0.01616409 0.01543117 0.00575793 0.00157938 0.01000057 0.00222139 0.01043592 0.00531049 0.02284006 0.00609045 0.01698353 0.00175819 0.01884315 0.05172295 0.01292463 0.03108918 
0.01608451 0.01516759 0.00579633 0.00157619 0.00977221 0.00222614 0.01039797 0.00532006 0.02289433 0.00616524 0.01720384 0.00176417 0.01851197 0.05148613 0.01292835 0.03139995 
0.01601098 0.01490748 0.00582948 0.00157393 0.00954004 0.00222849 0.01035224 0.00533702 0.02298002 0.00623798 0.01743717 0.00177024 0.01818119 0.05127478 0.01293754 0.03167443 
0.01594293 0.01465236 0.00585735 0.00157264 0.00930503 0.00222844 0.01029895 0.00536145 0.02309652 0.00630813 0.01768290 0.00177641 0.01785257 0.05108963 0.01295209 0.03191148 
0.01587972 0.01440370 0.00587995 0.00157235 0.00906813 0.00222602 0.01023831 0.00539338 0.02324297 0.00637519 0.01794032 0.00178267 0.01752789 0.05093124 0.01297188 0.03211012 
0.01582069 0.01416293 0.00589730 0.00157310 0.00883029 0.00222123 0.01017056 0.00543281 0.02341836 0.00643867 0.01820871 0.00178904 0.01720889 0.05079999 0.01299672 0.03226952 
0.01576508 0.01393144 0.00590943 0.00157492 0.00859244 0.00221412 0.01009595 0.00547970 0.02362146 0.00649809 0.01848727 0.00179551 0.01689731 0.05069611 0.01302642 0.03238901 
0.01571215 0.01371057 0.00591638 0.00157785 0.00835550 0.00220474 0.01001470 0.00553397 0.02385090 0.00655301 0.01877516 0.00180208 0.01659487 0.05061963 0.01306071 0.03246809 
0.01566108 0.01350157 0.00591822 0.00158189 0.00812037 0.00219312 0.00992709 0.00559549 0.02410511 0.00660301 0.01907151 0.00180874 0.01630321 0.05057045 0.01309931 0.03250642 
0.01561106 0.01330564 0.00591502 0.00158709 0.00788789 0.00217935 0.00983337 0.00566411 0.02438238 0.00664770 0.01937542 0.00181548 0.01602394 0.05054828 0.01314190 0.03250383 
0.01556124 0.01312390 0.00590688 0.00159346 0.00765891 0.00216349 0.00973381 0.00573963 0.02468084 0.00668671 0.01968596 0.00182230 0.01575862 0.05055267 0.01318813 0.03246030 
0.01551080 0.01295739 0.00589389 0.00160102 0.00743420 0.00214563 0.00962865 0.00582181 0.02499850 0.00671972 0.02000218 0.00182917 0.01550872 0.05058300 0.01323764 0.03237599 
0.01545890 0.01280703 0.00587617 0.00160977 0.00721452 0.00212585 0.00951819 0.00591039 0.02533324 0.00674643 0.02032313 0.00183609 0.01527564 0.05063851 0.01329000 0.03225119 
0.01540471 0.01267369 0.00585383 0.00161974 0.00700057 0.00210427 0.00940268 0.00600505 0.02568285 0.00676659 0.02064786 0.00184303 0.01506067 0.05071831 0.01334481 0.03208636 
0.01534743 0.01255810 0.00582702 0.00163092 0.00679300 0.00208098 0.00928241 0.00610547 0.02604501 0.00677999 0.02097539 0.00184997 0.01486505 0.05082136 0.01340162 0.03188213 
0.01528632 0.01246091 0.00579586 0.00164331 0.00659241 0.00205609 0.00915764 0.00621128 0.02641736 0.00678643 0.02130477 0.00185689 0.01468987 0.05094648 0.01345999 0.03163926 
0.01522062 0.01238266 0.00576052 0.00165692 0.00639933 0.00202974 0.00902865 0.00632208 0.02679745 0.00678580 0.02163509 0.00186375 0.01453614 0.05109241 0.01351944 0.03135864 
0.01514968 0.01232377 0.00572113 0.00167175 0.00621425 0.00200204 0.00889571 0.00643746 0.02718282 0.00677799 0.02196541 0.00187054 0.01440474 0.05125778 0.01357951 0.03104133 
0.01507286 0.01228457 0.00567786 0.00168777 0.00603760 0.00197312 0.00875910 0.00655696 0.02757097 0.00676294 0.02229487 0.00187721 0.01429645 0.05144112 0.01363974 0.03068851 
0.01498962 0.01226525 0.00563088 0.00170498 0.00586973 0.00194311 0.00861910 0.00668013 0.02795941 0.00674065 0.02262261 0.00188374 0.01421191 0.05164091 0.01369967 0.03030148 
0.01489946 0.01226592 0.00558034 0.00172336 0.00571094 0.00191216 0.00847599 0.00680648 0.02834567 0.00671115 0.02294784 0.00189009 0.01415164 0.05185558 0.01375883 0.02988166 
0.01480198 0.01228656 0.00552642 0.00174288 0.00556146 0.00188039 0.00833003 0.00693550 0.02872730 0.00667451 0.02326979 0.00189621 0.01411602 0.05208350 0.01381679 0.02943061 
0.01469686 0.01232705 0.00546929 0.00176353 0.00542147 0.00184796 0.00818152 0.00706667 0.02910191 0.00663085 0.02358777 0.00190208 0.01410533 0.05232304 0.01387314 0.02894997 
0.01458384 0.01238716 0.00540912 0.00178526 0.00529107 0.00181501 0.00803072 0.00719948 0.02946719 0.00658031 0.02390112 0.00190765 0.01411970 0.05257257 0.01392747 0.02844149 
0.01446280 0.01246655 0.00534609 0.00180805 0.00517031 0.00178167 0.00787791 0.00733338 0.02982089 0.00652310 0.02420927 0.00191287 0.01415911 0.05283048 0.01397942 0.02790702 
0.01433367 0.01256481 0.00528036 0.00183186 0.00505916 0.00174809 0.00772339 0.00746782 0.03016088 0.00645945 0.02451170 0.00191772 0.01422345 0.05309518 0.01402865 0.02734848 
0.01419651 0.01268139 0.00521212 0.00185665 0.00495755 0.00171442 0.00756742 0.00760226 0.03048514 0.00638963 0.02480797 0.00192214 0.01431247 0.05336516 0.01407486 0.02676788 
0.01405146 0.01281569 0.00514153 0.00188236 0.00486535 0.00168078 0.00741029 0.00773616 0.03079179 0.00631395 0.02509770 0.00192609 0.01442577 0.05363896 0.01411780 0.02616729 
0.01389877 0.01296700 0.00506876 0.00190894 0.00478236 0.00164733 0.00725228 0.00786896 0.03107909 0.00623275 0.02538060 0.00192954 0.01456286 0.05391522 0.01415726 0.02554885 
0.01373879 0.01313455 0.00499398 0.00193636 0.00470833 0.00161418 0.00709368 0.00800012 0.03134544 0.00614639 0.02565646 0.00193243 0.01472312 0.05419271 0.01419306 0.02491475 
0.01357197 0.01331749 0.00491735 0.00196453 0.00464298 0.00158148 0.00693477 0.00812911 0.03158944 0.00605530 0.02592513 0.00193473 0.01490583 0.05447029 0.01422511 0.02426721 
0.01339884 0.01351491 0.00483905 0.00199342 0.00458596 0.00154935 0.00677585 0.00825541 0.03180984 0.00595989 0.02618656 0.00193640 0.01511016 0.05474698 0.01425334 0.02360850 
0.01322007 0.01372584 0.00475923 0.00202294 0.00453688 0.00151791 0.00661721 0.00837851 0.03200559 0.00586063 0.02644076 0.00193740 0.01533516 0.05502196 0.01427775 0.02294092 
0.01303637 0.01394927 0.00467805 0.00205303 0.00449533 0.00148729 0.00645915 0.00849791 0.03217582 0.00575798 0.02668784 0.00193769 0.01557982 0.05529458 0.01429841 0.02226679 
0.01284857 0.01418414 0.00459566 0.00208362 0.00446084 0.00145758 0.00630195 0.00861313 0.03231989 0.00565246 0.02692796 0.00193724 0.01584302 0.05556436 0.01431544 0.02158842 
0.01265756 0.01442938 0.00451223 0.00211465 0.00443293 0.00142889 0.00614593 0.00872371 0.03243731 0.00554458 0.02716137 0.00193602 0.01612357 0.05583101 0.01432902 0.02090814 
0.01246434 0.01468387 0.00442789 0.00214602 0.00441108 0.00140133 0.00599139 0.00882923 0.03252784 0.00543487 0.02738839 0.00193399 0.01642023 0.05609446 0.01433940 0.02022827 
0.01226993 0.01494650 0.00434280 0.00217767 0.00439476 0.00137499 0.00583864 0.00892926 0.03259142 0.00532387 0.02760941 0.00193113 0.01673167 0.05635484 0.01434689 0.01955113 
0.01207546 0.01521615 0.00425711 0.00220951 0.00438341 0.00134994 0.00568798 0.00902343 0.03262820 0.00521213 0.02782487 0.00192742 0.01705653 0.05661248 0.01435185 0.01887900 
0.01188209 0.01549171 0.00417095 0.00224146 0.00437648 0.00132628 0.00553973 0.00911138 0.03263854 0.00510021 0.02803527 0.00192283 0.01739340 0.05686794 0.01435472 0.01821414 
0.01169102 0.01577207 0.00408448 0.00227345 0.00437339 0.00130406 0.00539421 0.00919278 0.03262299 0.00498866 0.02824118 0.00191735 0.01774082 0.05712200 0.01435599 0.01755878 
0.01150349 0.01605617 0.00399783 0.00230538 0.00437356 0.00128335 0.00525174 0.00926735 0.03258228 0.00487804 0.02844320 0.00191097 0.01809735 0.05737562 0.01435620 0.01691509 
0.01132078 0.01634296 0.00391114 0.00233717 0.00437644 0.00126421 0.00511263 0.00933481 0.03251734 0.00476892 0.02864197 0.00190367 0.01846148 0.05763003 0.01435595 0.01628520 
0.01114417 0.01663143 0.00382455 0.00236873 0.00438146 0.00124667 0.00497722 0.00939495 0.03242928 0.00466182 0.02883816 0.00189545 0.01883173 0.05788660 0.01435589 0.01567119 
0.01097496 0.01692064 0.00373820 0.00239999 0.00438806 0.00123079 0.00484582 0.00944758 0.03231936 0.00455730 0.02903249 0.00188631 0.01920662 0.05814695 0.01435672 0.01507508 
0.01081443 0.01720968 0.00365223 0.00243085 0.00439572 0.00121659 0.00471877 0.00949254 0.03218901 0.00445587 0.02922566 0.00187624 0.01958466 0.05841285 0.01435917 0.01449880 
0.01066386 0.01749772 0.00356677 0.00246123 0.00440391 0.00120409 0.00459639 0.00952970 0.03203980 0.00435804 0.02941840 0.00186526 0.01996440 0.05868625 0.01436401 0.01394422 
0.01052450 0.01778400 0.00348197 0.00249105 0.00441216 0.00119332 0.00447901 0.00955901 0.03187341 0.00426431 0.02961145 0.00185338 0.02034441 0.05896928 0.01437205 0.01341313 
0.01039756 0.01806782 0.00339796 0.00252023 0.00442000 0.00118427 0.00436695 0.00958040 0.03169167 0.00417514 0.02980553 0.00184061 0.02072330 0.05926417 0.01438410 0.01290723 
0.01028420 0.01834857 0.00331489 0.00254868 0.00442700 0.00117694 0.00426054 0.00959388 0.03149648 0.00409098 0.03000135 0.00182697 0.02109970 0.05957330 0.01440102 0.01242813 
0.01018555 0.01862573 0.00323288 0.00257633 0.00443276 0.00117134 0.00416009 0.00959948 0.03128984 0.00401224 0.03019959 0.00181247 0.02147232 0.05989913 0.01442364 0.01197733 
0.01010264 0.01889885 0.00315209 0.00260309 0.00443694 0.00116745 0.00406593 0.00959726 0.03107382 0.00393933 0.03040090 0.00179716 0.02183990 0.06024421 0.01445284 0.01155626 
0.01003645 0.01916760 0.00307266 0.00262890 0.00443920 0.00116524 0.00397837 0.00958734 0.03085053 0.00387260 0.03060592 0.00178105 0.02220125 0.06061114 0.01448947 0.01116620 
0.00998787 0.01943173 0.00299472 0.00265369 0.00443927 0.00116469 0.00389770 0.00956987 0.03062213 0.00381239 0.03081520 0.00176419 0.02255524 0.06100251 0.01453435 0.01080837 
0.00995769 0.01969107 0.00291843 0.00267737 0.00443693 0.00116577 0.00382424 0.00954500 0.03039078 0.00375898 0.03102925 0.00174660 0.02290080 0.06142096 0.01458831 0.01048383 
0.00994660 0.01994557 0.00284392 0.00269990 0.00443198 0.00116844 0.00375825 0.00951297 0.03015865 0.00371265 0.03124855 0.00172832 0.02323695 0.06186906 0.01465215 0.01019355 
0.00995521 0.02019527 0.00277135 0.00272120 0.00442428 0.00117265 0.00370003 0.00947400 0.02992788 0.00367361 0.03147346 0.00170941 0.02356278 0.06234932 0.01472661 0.00993838 
0.00998397 0.02044030 0.00270086 0.00274122 0.00441374 0.00117836 0.00364984 0.00942838 0.02970060 0.00364206 0.03170431 0.00168990 0.02387744 0.06286418 0.01481241 0.00971902 
0.01003326 0.02068088 0.00263260 0.00275990 0.00440030 0.00118550 0.00360793 0.00937641 0.02947885 0.00361813 0.03194133 0.00166985 0.02418016 0.06341593 0.01491021 0.00953606 
0.01010330 0.02091734 0.00256672 0.00277719 0.00438396 0.00119403 0.00357454 0.00931842 0.02926465 0.00360195 0.03218467 0.00164930 0.02447028 0.06400674 0.01502060 0.00938997 
0.01019420 0.02115007 0.00250335 0.00279305 0.00436477 0.00120388 0.00354988 0.00925477 0.02905989 0.00359357 0.03243441 0.00162830 0.02474718 0.06463857 0.01514412 0.00928107 
0.01030594 0.02137956 0.00244266 0.00280742 0.00434281 0.00121498 0.00353416 0.00918584 0.02886639 0.00359304 0.03269050 0.00160692 0.02501034 0.06531318 0.01528123 0.00920955 
0.01043837 0.02160639 0.00238478 0.00282027 0.00431821 0.00122727 0.00352756 0.00911202 0.02868584 0.00360033 0.03295284 0.00158520 0.02525930 0.06603209 0.01543230 0.00917548 
0.01059119 0.02183119 0.00232986 0.00283157 0.00429114 0.00124066 0.00353023 0.00903374 0.02851982 0.00361539 0.03322120 0.00156320 0.02549370 0.06679656 0.01559763 0.00917876 
0.01076398 0.02205468 0.00227803 0.00284129 0.00426181 0.00125510 0.00354232 0.00895144 0.02836977 0.00363814 0.03349529 0.00154097 0.02571323 0.06760755 0.01577741 0.00921919 
0.01095621 0.02227762 0.00222943 0.00284940 0.00423046 0.00127050 0.00356394 0.00886555 0.02823696 0.00366845 0.03377468 0.00151858 0.02591766 0.06846570 0.01597173 0.00929641 
0.01116717 0.02250084 0.00218421 0.00285587 0.00419737 0.00128678 0.00359517 0.00877655 0.02812253 0.00370614 0.03405889 0.00149609 0.02610683 0.06937132 0.01618060 0.00940993 
0.01139608 0.02272522 0.00214248 0.00286070 0.00416285 0.00130388 0.00363606 0.00868490 0.02802744 0.00375101 0.03434731 0.00147354 0.02628064 0.07032435 0.01640391 0.00955911 
0.01164200 0.02295165 0.00210437 0.00286386 0.00412723 0.00132169 0.00368665 0.00859107 0.02795248 0.00380282 0.03463927 0.00145099 0.02643904 0.07132437 0.01664142 0.00974320 
0.01190388 0.02318108 0.00206999 0.00286536 0.00409088 0.00134016 0.00374693 0.00849555 0.02789826 0.00386129 0.03493398 0.00142850 0.02658206 0.07237056 0.01689282 0.00996128 
0.01218056 0.02341448 0.00203947 0.00286518 0.00405417 0.00135919 0.00381686 0.00839879 0.02786519 0.00392612 0.03523059 0.00140613 0.02670977 0.07346169 0.01715765 0.01021233 
0.01247079 0.02365282 0.00201290 0.00286333 0.00401750 0.00137870 0.00389639 0.00830129 0.02785353 0.00399696 0.03552817 0.00138392 0.02682227 0.07459613 0.01743535 0.01049519 
0.01277320 0.02389707 0.00199038 0.00285981 0.00398126 0.00139863 0.00398539 0.00820351 0.02786332 0.00407345 0.03582571 0.00136194 0.02691972 0.07577183 0.01772525 0.01080856 
0.01308635 0.02414822 0.00197199 0.00285462 0.00394587 0.00141888 0.00408374 0.00810590 0.02789442 0.00415518 0.03612212 0.00134022 0.02700232 0.07698632 0.01802656 0.01115103 
0.01340870 0.02440723 0.00195781 0.00284779 0.00391175 0.00143938 0.00419127 0.00800891 0.02794652 0.00424174 0.03641629 0.00131882 0.02707029 0.07823672 0.01833838 0.01152106 
0.01373866 0.02467504 0.00194791 0.00283933 0.00387930 0.00146006 0.00430775 0.00791299 0.02801912 0.00433268 0.03670701 0.00129778 0.02712388 0.07951973 0.01865970 0.01191701 
0.01407457 0.02495255 0.00194233 0.00282926 0.00384893 0.00148084 0.00443295 0.00781854 0.02811153 0.00442753 0.03699305 0.00127714 0.02716338 0.08083165 0.01898942 0.01233713 
0.01441472 0.02524066 0.00194112 0.00281760 0.00382103 0.00150165 0.00456658 0.00772596 0.02822290 0.00452581 0.03727316 0.00125694 0.02718908 0.08216839 0.01932632 0.01277954 
0.01475735 0.02554017 0.00194431 0.00280439 0.00379599 0.00152241 0.00470831 0.00763565 0.02835223 0.00462703 0.03754603 0.00123723 0.02720129 0.08352549 0.01966910 0.01324230 
0.01510071 0.02585187 0.00195192 0.00278965 0.00377416 0.00154307 0.00485780 0.00754794 0.02849832 0.00473068 0.03781036 0.00121803 0.02720033 0.08489813 0.02001638 0.01372335 
0.01544299 0.02617647 0.00196394 0.00277342 0.00375588 0.00156355 0.00501464 0.00746318 0.02865988 0.00483623 0.03806481 0.00119938 0.02718651 0.08628117 0.02036668 0.01422058 
0.01578240 0.02651461 0.00198036 0.00275574 0.00374146 0.00158379 0.00517840 0.00738168 0.02883545 0.00494317 0.03830809 0.00118130 0.02716018 0.08766916 0.02071846 0.01473179 
0.01611715 0.02686688 0.00200116 0.00273665 0.00373118 0.00160374 0.00534862 0.00730370 0.02902345 0.00505096 0.03853887 0.00116383 0.02712166 0.08905639 0.02107013 0.01525470 
0.01644549 0.02723377 0.00202629 0.00271620 0.00372529 0.00162333 0.00552480 0.00722949 0.02922220 0.00515907 0.03875587 0.00114698 0.02707128 0.09043690 0.02142002 0.01578700 
0.01676568 0.02761570 0.00205569 0.00269444 0.00372398 0.00164252 0.00570640 0.00715929 0.02942991 0.00526699 0.03895784 0.00113076 0.02700935 0.09180453 0.02176644 0.01632632 
0.01707601 0.02801300 0.00208930 0.00267142 0.00372744 0.00166124 0.00589286 0.00709326 0.02964472 0.00537418 0.03914356 0.00111521 0.02693618 0.09315296 0.02210767 0.01687028 
0.01737486 0.02842591 0.00212701 0.00264719 0.00373577 0.00167946 0.00608358 0.00703156 0.02986469 0.00548013 0.03931186 0.00110033 0.02685207 0.09447576 0.02244196 0.01741644 
0.01766065 0.02885458 0.00216874 0.00262182 0.00374906 0.00169714 0.00627794 0.00697433 0.03008784 0.00558435 0.03946163 0.00108612 0.02675732 0.09576641 0.02276755 0.01796237 
0.01793188 0.02929909 0.00221436 0.00259536 0.00376735 0.00171422 0.00647529 0.00692164 0.03031214 0.00568634 0.03959184 0.00107260 0.02665220 0.09701837 0.02308269 0.01850564 
0.01818715 0.02975940 0.00226373 0.00256789 0.00379061 0.00173067 0.00667496 0.00687354 0.03053555 0.00578563 0.03970151 0.00105977 0.02653698 0.09822513 0.02338566 0.01904382 
0.01842512 0.03023538 0.00231670 0.00253947 0.00381878 0.00174647 0.00687626 0.00683007 0.03075602 0.00588177 0.03978976 0.00104763 0.02641192 0.09938022 0.02367474 0.01957451 
0.01864458 0.03072684 0.00237312 0.00251017 0.00385174 0.00176158 0.00707848 0.00679122 0.03097149 0.00597432 0.03985579 0.00103618 0.02627726 0.10047731 0.02394829 0.02009534 
0.01884442 0.03123346 0.00243280 0.00248006 0.00388934 0.00177597 0.00728089 0.00675693 0.03117997 0.00606287 0.03989889 0.00102541 0.02613324 0.10151024 0.02420469 0.02060399 
0.01902365 0.03175487 0.00249556 0.00244923 0.00393135 0.00178962 0.00748275 0.00672714 0.03137947 0.00614705 0.03991846 0.00101532 0.02598007 0.10247305 0.02444240 0.02109821 
0.01918141 0.03229060 0.00256119 0.00241774 0.00397752 0.00180251 0.00768332 0.00670174 0.03156808 0.00622649 0.03991401 0.00100590 0.02581799 0.10336007 0.02465998 0.02157579 
0.01931695 0.03284010 0.00262948 0.00238569 0.00402753 0.00181463 0.00788185 0.00668061 0.03174394 0.00630088 0.03988514 0.00099713 0.02564719 0.10416592 0.02485605 0.02203465 
0.01942967 0.03340277 0.00270020 0.00235315 0.00408103 0.00182596 0.00807758 0.00666359 0.03190531 0.00636991 0.03983159 0.00098901 0.02546789 0.10488562 0.02502935 0.02247276 
0.01951909 0.03397791 0.00277312 0.00232022 0.00413763 0.00183649 0.00826977 0.00665049 0.03205051 0.00643333 0.03975319 0.00098151 0.02528029 0.10551457 0.02517874 0.02288823 
0.01958489 0.03456478 0.00284798 0.00228698 0.00419688 0.00184622 0.00845767 0.00664111 0.03217799 0.00649090 0.03964989 0.00097463 0.02508462 0.10604863 0.02530319 0.02327927 
0.01962686 0.03516259 0.00292456 0.00225352 0.00425831 0.00185514 0.00864054 0.00663522 0.03228632 0.00654243 0.03952177 0.00096834 0.02488107 0.10648419 0.02540183 0.02364422 
0.01964496 0.03577049 0.00300257 0.00221994 0.00432141 0.00186326 0.00881766 0.00663257 0.03237420 0.00658778 0.03936903 0.00096263 0.02466988 0.10681813 0.02547391 0.02398156 
0.01963926 0.03638760 0.00308177 0.00218632 0.00438564 0.00187058 0.00898834 0.00663291 0.03244048 0.00662680 0.03919196 0.00095747 0.02445127 0.10704793 0.02551883 0.02428993 
0.01960999 0.03701299 0.00316188 0.00215278 0.00445045 0.00187710 0.00915188 0.00663596 0.03248414 0.00665944 0.03899099 0.00095285 0.02422549 0.10717167 0.02553618 0.02456812 
0.01955752 0.03764573 0.00324263 0.00211939 0.00451524 0.00188283 0.00930763 0.00664143 0.03250435 0.00668562 0.03876667 0.00094875 0.02399281 0.10718806 0.02552569 0.02481507 
0.01948232 0.03828485 0.00332376 0.00208627 0.00457942 0.00188779 0.00945497 0.00664902 0.03250041 0.00670536 0.03851962 0.00094514 0.02375350 0.10709647 0.02548726 0.02502993 
0.01938502 0.03892940 0.00340498 0.00205351 0.00464237 0.00189198 0.00959330 0.00665843 0.03247181 0.00671868 0.03825060 0.00094200 0.02350788 0.10689693 0.02542098 0.02521198 
0.01926635 0.03957840 0.00348604 0.00202121 0.00470349 0.00189542 0.00972206 0.00666936 0.03241821 0.00672563 0.03796047 0.00093931 0.02325626 0.10659019 0.02532711 0.02536074 
0.01912718 0.04023089 0.00356666 0.00198947 0.00476216 0.00189814 0.00984073 0.00668150 0.03233944 0.00672633 0.03765018 0.00093706 0.02299901 0.10617768 0.02520609 0.02547586 
0.01896846 0.04088593 0.00364657 0.00195840 0.00481778 0.00190014 0.00994885 0.00669455 0.03223551 0.00672091 0.03732075 0.00093521 0.02273652 0.10566154 0.02505854 0.02555725 
0.01879126 0.04154261 0.00372553 0.00192808 0.00486975 0.00190146 0.01004599 0.00670822 0.03210659 0.00670955 0.03697332 0.00093375 0.02246921 0.10504462 0.02488525 0.02560495 
0.01859675 0.04220002 0.00380328 0.00189862 0.00491751 0.00190212 0.01013177 0.00672221 0.03195305 0.00669244 0.03660908 0.00093267 0.02219752 0.10433047 0.02468720 0.02561924 
0.01838616 0.04285731 0.00387957 0.00187011 0.00496051 0.00190213 0.01020587 0.00673624 0.03177541 0.00666982 0.03622931 0.00093193 0.02192195 0.10352332 0.02446554 0.02560058 
0.01816083 0.04351367 0.00395417 0.00184264 0.00499823 0.00190154 0.01026803 0.00675006 0.03157437 0.00664196 0.03583534 0.00093154 0.02164302 0.10262810 0.02422159 0.02554964 
0.01792214 0.04416833 0.00402686 0.00181632 0.00503020 0.00190036 0.01031803 0.00676340 0.03135077 0.00660916 0.03542854 0.00093146 0.02136129 0.10165035 0.02395682 0.02546726 
0.01767154 0.04482058 0.00409742 0.00179123 0.00505598 0.00189863 0.01035574 0.00677605 0.03110563 0.00657173 0.03501036 0.00093169 0.02107737 0.10059628 0.02367286 0.02535448 
0.01741052 0.04546977 0.00416565 0.00176745 0.00507521 0.00189637 0.01038107 0.00678778 0.03084010 0.00653003 0.03458227 0.00093221 0.02079188 0.09947267 0.02337150 0.02521255 
0.01714060 0.04611529 0.00423137 0.00174507 0.00508754 0.00189362 0.01039399 0.00679841 0.03055549 0.00648441 0.03414576 0.00093301 0.02050549 0.09828686 0.02305464 0.02504287 
0.01686335 0.04675663 0.00429440 0.00172417 0.00509273 0.00189041 0.01039455 0.00680777 0.03025320 0.00643528 0.03370236 0.00093408 0.02021893 0.09704671 0.02272433 0.02484702 
0.01658032 0.04739330 0.00435458 0.00170481 0.00509057 0.00188677 0.01038287 0.00681573 0.02993479 0.00638303 0.03325360 0.00093541 0.01993291 0.09576055 0.02238273 0.02462676 
0.01629309 0.04802492 0.00441178 0.00168707 0.00508093 0.00188272 0.01035912 0.00682216 0.02960191 0.00632810 0.03280101 0.00093700 0.01964823 0.09443713 0.02203209 0.02438398 
0.01600324 0.04865115 0.00446587 0.00167100 0.00506377 0.00187831 0.01032354 0.00682698 0.02925630 0.00627092 0.03234613 0.00093883 0.01936568 0.09308556 0.02167474 0.02412075 
0.01571230 0.04927173 0.00451673 0.00165667 0.00503912 0.00187356 0.01027644 0.00683014 0.02889980 0.00621193 0.03189047 0.00094091 0.01908610 0.09171528 0.02131311 0.02383926 
0.01542180 0.04988647 0.00456428 0.00164413 0.00500708 0.00186851 0.01021820 0.00683160 0.02853429 0.00615160 0.03143553 0.00094322 0.01881033 0.09033595 0.02094967 0.02354181 
0.01513322 0.05049522 0.00460845 0.00163340 0.00496786 0.00186319 0.01014926 0.00683136 0.02816175 0.00609038 0.03098278 0.00094578 0.01853926 0.08895745 0.02058694 0.02323084 
0.01484802 0.05109792 0.00464917 0.00162454 0.00492173 0.00185763 0.01007013 0.00682946 0.02778417 0.00602874 0.03053363 0.00094859 0.01827377 0.08758976 0.02022744 0.02290886 
0.01456757 0.05169457 0.00468642 0.00161756 0.00486908 0.00185186 0.00998137 0.00682595 0.02740357 0.00596715 0.03008949 0.00095163 0.01801478 0.08624291 0.01987374 0.02257849 
0.01429320 0.05228519 0.00472016 0.00161248 0.00481036 0.00184591 0.00988361 0.00682093 0.02702200 0.00590607 0.02965167 0.00095493 0.01776320 0.08492694 0.01952836 0.02224240 
0.01402616 0.05286989 0.00475040 0.00160931 0.00474613 0.00183982 0.00977753 0.00681449 0.02664150 0.00584597 0.02922145 0.00095847 0.01751994 0.08365179 0.01919384 0.02190332 
0.01376763 0.05344881 0.00477715 0.00160806 0.00467703 0.00183360 0.00966386 0.00680680 0.02626410 0.00578729 0.02880005 0.00096228 0.01728592 0.08242725 0.01887263 0.02156402 
0.01351870 0.05402212 0.00480045 0.00160871 0.00460379 0.00182729 0.00954340 0.00679801 0.02589179 0.00573049 0.02838860 0.00096635 0.01706205 0.08126290 0.01856715 0.02122729 
0.01328037 0.05459005 0.00482035 0.00161126 0.00452724 0.00182092 0.00941699 0.00678831 0.02552655 0.00567601 0.02798817 0.00097070 0.01684924 0.08016801 0.01827973 0.02089592 
0.01305355 0.05515284 0.00483690 0.00161566 0.00444828 0.00181451 0.00928549 0.00677793 0.02517026 0.00562425 0.02759974 0.00097533 0.01664837 0.07915153 0.01801263 0.02057272 
0.01283904 0.05571074 0.00485020 0.00162188 0.00436788 0.00180809 0.00914984 0.00676708 0.02482476 0.00557564 0.02722422 0.00098025 0.01646029 0.07822195 0.01776797 0.02026042 
0.01263755 0.05626404 0.00486033 0.00162989 0.00428710 0.00180168 0.00901099 0.00675603 0.02449181 0.00553056 0.02686242 0.00098548 0.01628585 0.07738730 0.01754776 0.01996176 
0.01244967 0.05681302 0.00486741 0.00163962 0.00420709 0.00179531 0.00886991 0.00674505 0.02417307 0.00548940 0.02651506 0.00099102 0.01612583 0.07665507 0.01735388 0.01967938 
0.01227589 0.05735797 0.00487155 0.00165102 0.00412903 0.00178900 0.00872763 0.00673440 0.02387010 0.00545249 0.02618279 0.00099689 0.01598102 0.07603215 0.01718804 0.01941587 
0.01211660 0.05789916 0.00487291 0.00166400 0.00405418 0.00178277 0.00858516 0.00672439 0.02358433 0.00542019 0.02586612 0.00100310 0.01585212 0.07552475 0.01705180 0.01917372 
0.01197207 0.05843687 0.00487162 0.00167850 0.00398386 0.00177664 0.00844356 0.00671531 0.02331710 0.00539279 0.02556552 0.00100966 0.01573982 0.07513842 0.01694653 0.01895531 
0.01184247 0.05897134 0.00486783 0.00169442 0.00391940 0.00177064 0.00830388 0.00670747 0.02306959 0.00537058 0.02528132 0.00101657 0.01564472 0.07487795 0.01687341 0.01876291 
0.01172783 0.05950279 0.00486173 0.00171166 0.00386222 0.00176477 0.00816718 0.00670116 0.02284285 0.00535383 0.02501379 0.00102386 0.01556738 0.07474732 0.01683344 0.01859863 
0.01162813 0.06003139 0.00485347 0.00173013 0.00381372 0.00175907 0.00803451 0.00669670 0.02263779 0.00534278 0.02476307 0.00103152 0.01550832 0.07474973 0.01682739 0.01846447 
0.01154320 0.06055730 0.00484325 0.00174971 0.00377534 0.00175353 0.00790691 0.00669437 0.02245516 0.00533763 0.02452922 0.00103958 0.01546795 0.07488752 0.01685584 0.01836224 
0.01147280 0.06108062 0.00483126 0.00177030 0.00374853 0.00174819 0.00778541 0.00669448 0.02229556 0.00533857 0.02431223 0.00104802 0.01544665 0.07516214 0.01691912 0.01829358 
0.01141657 0.06160141 0.00481767 0.00179176 0.00373475 0.00174305 0.00767104 0.00669731 0.02215942 0.00534577 0.02411197 0.00105687 0.01544469 0.07557419 0.01701737 0.01825996 
0.01137409 0.06211965 0.00480270 0.00181397 0.00373542 0.00173813 0.00756476 0.00670311 0.02204703 0.00535934 0.02392823 0.00106613 0.01546229 0.07612336 0.01715048 0.01826264 
0.01134483 0.06263530 0.00478653 0.00183681 0.00375197 0.00173344 0.00746753 0.00671214 0.02195849 0.00537940 0.02376072 0.00107580 0.01549959 0.07680842 0.01731811 0.01830270 
0.01132820 0.06314824 0.00476937 0.00186015 0.00378578 0.00172899 0.00738027 0.00672462 0.02189378 0.00540603 0.02360907 0.00108588 0.01555664 0.07762727 0.01751973 0.01838099 
0.01132352 0.06365829 0.00475142 0.00188384 0.00383818 0.00172479 0.00730384 0.00674078 0.02185267 0.00543927 0.02347284 0.00109637 0.01563339 0.07857691 0.01775453 0.01849816 
0.01133005 0.06416521 0.00473287 0.00190776 0.00391047 0.00172085 0.00723906 0.00676078 0.02183480 0.00547915 0.02335150 0.00110728 0.01572975 0.07965346 0.01802152 0.01865462 
0.01134701 0.06466870 0.00471393 0.00193177 0.00400388 0.00171718 0.00718670 0.00678479 0.02183965 0.00552567 0.02324448 0.00111858 0.01584550 0.08085220 0.01831948 0.01885058 
0.01137353 0.06516837 0.00469478 0.00195574 0.00411955 0.00171378 0.00714745 0.00681293 0.02186657 0.00557881 0.02315111 0.00113029 0.01598037 0.08216759 0.01864698 0.01908600 
0.01140875 0.06566381 0.00467561 0.00197953 0.00425854 0.00171066 0.00712197 0.00684530 0.02191472 0.00563851 0.02307071 0.00114239 0.01613398 0.08359328 0.01900239 0.01936063 
0.01145173 0.06615453 0.00465661 0.00200302 0.00442182 0.00170783 0.00711081 0.00688196 0.02198316 0.00570472 0.02300251 0.00115487 0.01630588 0.08512219 0.01938388 0.01967397 
0.01150152 0.06663996 0.00463795 0.00202607 0.00461025 0.00170529 0.00711448 0.00692292 0.02207081 0.00577732 0.02294572 0.00116771 0.01649553 0.08674653 0.01978945 0.02002532 
0.01155715 0.06711950 0.00461980 0.00204858 0.00482460 0.00170304 0.00713338 0.00696820 0.02217647 0.00585621 0.02289951 0.00118090 0.01670231 0.08845786 0.02021692 0.02041373 
0.01161766 0.06759249 0.00460233 0.00207041 0.00506547 0.00170108 0.00716787 0.00701772 0.02229881 0.00594125 0.02286301 0.00119442 0.01692553 0.09024712 0.02066397 0.02083804 
0.01168204 0.06805823 0.00458569 0.00209147 0.00533336 0.00169941 0.00721819 0.00707142 0.02243643 0.00603229 0.02283533 0.00120825 0.01716442 0.09210476 0.02112812 0.02129687 
0.01174934 0.06851597 0.00457002 0.00211165 0.00562864 0.00169803 0.00728451 0.00712917 0.02258782 0.00612915 0.02281556 0.00122237 0.01741813 0.09402070 0.02160677 0.02178864 
0.01181859 0.06896493 0.00455546 0.00213085 0.00595151 0.00169695 0.00736691 0.00719080 0.02275139 0.00623164 0.02280277 0.00123674 0.01768575 0.09598452 0.02209723 0.02231155 
0.01188885 0.06940429 0.00454212 0.00214899 0.00630203 0.00169614 0.00746537 0.00725613 0.02292548 0.00633957 0.02279605 0.00125134 0.01796630 0.09798541 0.02259668 0.02286362 
0.01195921 0.06983322 0.00453014 0.00216599 0.00668011 0.00169561 0.00757979 0.00732490 0.02310838 0.00645271 0.02279447 0.00126614 0.01825875 0.10001236 0.02310227 0.02344269 
0.01202879 0.07025086 0.00451959 0.00218179 0.00708549 0.00169536 0.00770999 0.00739685 0.02329833 0.00657083 0.02279711 0.00128110 0.01856201 0.10205413 0.02361106 0.02404641 
0.01209676 0.07065636 0.00451058 0.00219633 0.00751775 0.00169536 0.00785566 0.00747166 0.02349356 0.00669370 0.02280307 0.00129619 0.01887493 0.10409942 0.02412011 0.02467228 
0.01216234 0.07104885 0.00450319 0.00220957 0.00797631 0.00169562 0.00801644 0.00754901 0.02369225 0.00682106 0.02281146 0.00131138 0.01919633 0.10613688 0.02462642 0.02531766 
0.01222478 0.07142748 0.00449747 0.00222146 0.00846042 0.00169612 0.00819184 0.00762849 0.02389262 0.00695264 0.02282143 0.00132661 0.01952500 0.10815526 0.02512703 0.02597975 
0.01228342 0.07179141 0.00449349 0.00223200 0.00896916 0.00169685 0.00838133 0.00770973 0.02409285 0.00708818 0.02283215 0.00134185 0.01985967 0.11014340 0.02561900 0.02665566 
0.01233765 0.07213982 0.00449127 0.00224118 0.00950146 0.00169779 0.00858425 0.00779227 0.02429118 0.00722741 0.02284283 0.00135705 0.02019907 0.11209042 0.02609942 0.02734237 
0.01238692 0.07247194 0.00449086 0.00224898 0.01005607 0.00169893 0.00879987 0.00787567 0.02448586 0.00737005 0.02285273 0.00137218 0.02054191 0.11398569 0.02656545 0.02803679 
0.01243076 0.07278701 0.00449227 0.00225544 0.01063159 0.00170025 0.00902739 0.00795943 0.02467522 0.00751580 0.02286114 0.00138719 0.02088688 0.11581899 0.02701434 0.02873576 
0.01246877 0.07308433 0.00449550 0.00226057 0.01122647 0.00170172 0.00926593 0.00804307 0.02485761 0.00766438 0.02286740 0.00140203 0.02123267 0.11758055 0.02744344 0.02943606 
0.01250061 0.07336325 0.00450054 0.00226441 0.01183900 0.00170334 0.00951451 0.00812606 0.02503147 0.00781550 0.02287093 0.00141665 0.02157797 0.11926112 0.02785021 0.03013441 
0.01252604 0.07362320 0.00450738 0.00226703 0.01246734 0.00170507 0.00977213 0.00820788 0.02519533 0.00796886 0.02287117 0.00143101 0.02192148 0.12085204 0.02823225 0.03082756 
0.01254488 0.07386364 0.00451598 0.00226846 0.01310951 0.00170690 0.01003769 0.00828798 0.02534779 0.00812417 0.02286764 0.00144506 0.02226192 0.12234533 0.02858734 0.03151222 
0.01255702 0.07408413 0.00452630 0.00226880 0.01376340 0.00170880 0.01031005 0.00836584 0.02548758 0.00828114 0.02285991 0.00145876 0.02259804 0.12373371 0.02891339 0.03218513 
0.01256246 0.07428429 0.00453830 0.00226812 0.01442680 0.00171074 0.01058801 0.00844090 0.02561351 0.00843946 0.02284764 0.00147206 0.02292859 0.12501069 0.02920854 0.03284307 
0.01256122 0.07446384 0.00455190 0.00226652 0.01509737 0.00171269 0.01087032 0.00851262 0.02572453 0.00859884 0.02283052 0.00148492 0.02325240 0.12617060 0.02947108 0.03348286 
0.01255345 0.07462256 0.00456704 0.00226409 0.01577269 0.00171463 0.01115572 0.00858047 0.02581970 0.00875899 0.02280832 0.00149730 0.02356831 0.12720865 0.02969956 0.03410143 
0.01253931 0.07476035 0.00458363 0.00226095 0.01645027 0.00171653 0.01144290 0.00864392 0.02589822 0.00891961 0.02278088 0.00150915 0.02387522 0.12812095 0.02989271 0.03469575 
0.01251908 0.07487717 0.00460159 0.00225721 0.01712753 0.00171835 0.01173051 0.00870248 0.02595941 0.00908042 0.02274808 0.00152043 0.02417209 0.12890456 0.03004953 0.03526293 
0.01249307 0.07497309 0.00462081 0.00225299 0.01780185 0.00172007 0.01201720 0.00875564 0.02600274 0.00924112 0.02270990 0.00153111 0.02445794 0.12955750 0.03016922 0.03580019 
0.01246166 0.07504827 0.00464120 0.00224843 0.01847056 0.00172165 0.01230163 0.00880294 0.02602783 0.00940142 0.02266636 0.00154116 0.02473183 0.13007880 0.03025126 0.03630490 
0.01242527 0.07510297 0.00466263 0.00224365 0.01913096 0.00172307 0.01258242 0.00884394 0.02603442 0.00956104 0.02261752 0.00155054 0.02499293 0.13046846 0.03029535 0.03677459 
0.01238438 0.07513753 0.00468499 0.00223879 0.01978036 0.00172430 0.01285823 0.00887822 0.02602242 0.00971968 0.02256354 0.00155923 0.02524045 0.13072751 0.03030148 0.03720696 
0.01233951 0.07515239 0.00470815 0.00223398 0.02041603 0.00172529 0.01312770 0.00890542 0.02599185 0.00987708 0.02250460 0.00156720 0.02547369 0.13085796 0.03026986 0.03759988 
0.01229123 0.07514809 0.00473199 0.00222937 0.02103531 0.00172603 0.01338953 0.00892519 0.02594289 0.01003294 0.02244093 0.00157443 0.02569204 0.13086284 0.03020097 0.03795143 
0.01224011 0.07512523 0.00475637 0.00222509 0.02163552 0.00172649 0.01364242 0.00893723 0.02587585 0.01018699 0.02237284 0.00158090 0.02589495 0.13074614 0.03009554 0.03825992 
0.01218678 0.07508452 0.00478116 0.00222128 0.02221408 0.00172662 0.01388511 0.00894127 0.02579119 0.01033895 0.02230064 0.00158660 0.02608199 0.13051280 0.02995455 0.03852385 
0.01213186 0.07502674 0.00480621 0.00221807 0.02276844 0.00172642 0.01411640 0.00893711 0.02568948 0.01048854 0.02222470 0.00159153 0.02625277 0.13016869 0.02977923 0.03874199 
0.01207600 0.07495273 0.00483138 0.00221558 0.02329613 0.00172585 0.01433512 0.00892459 0.02557142 0.01063549 0.02214542 0.00159567 0.02640702 0.12972056 0.02957104 0.03891331 
0.01201984 0.07486342 0.00485654 0.00221394 0.02379478 0.00172489 0.01454017 0.00890358 0.02543782 0.01077953 0.02206322 0.00159903 0.02654455 0.12917601 0.02933165 0.03903708 
0.01196403 0.07475980 0.00488152 0.00221327 0.02426213 0.00172352 0.01473050 0.00887401 0.02528961 0.01092038 0.02197855 0.00160161 0.02666525 0.12854343 0.02906299 0.03911277 
0.01190921 0.07464291 0.00490620 0.00221368 0.02469602 0.00172171 0.01490515 0.00883589 0.02512781 0.01105779 0.02189187 0.00160343 0.02676911 0.12783194 0.02876715 0.03914017 
0.01185602 0.07451384 0.00493043 0.00221525 0.02509444 0.00171947 0.01506321 0.00878924 0.02495354 0.01119147 0.02180365 0.00160449 0.02685619 0.12705134 0.02844645 0.03911928 
0.01180504 0.07437374 0.00495406 0.00221810 0.02545552 0.00171676 0.01520387 0.00873416 0.02476798 0.01132117 0.02171438 0.00160482 0.02692664 0.12621204 0.02810337 0.03905040 
0.01175687 0.07422377 0.00497695 0.00222229 0.02577754 0.00171359 0.01532639 0.00867080 0.02457242 0.01144663 0.02162452 0.00160444 0.02698068 0.12532499 0.02774055 0.03893410 
0.01171205 0.07406516 0.00499896 0.00222789 0.02605894 0.00170995 0.01543011 0.00859936 0.02436818 0.01156759 0.02153454 0.00160337 0.02701862 0.12440160 0.02736079 0.03877118 
0.01167110 0.07389911 0.00501997 0.00223497 0.02629835 0.00170583 0.01551449 0.00852011 0.02415664 0.01168379 0.02144492 0.00160165 0.02704084 0.12345366 0.02696702 0.03856275 
0.01163449 0.07372689 0.00503983 0.00224356 0.02649456 0.00170125 0.01557905 0.00843334 0.02393922 0.01179499 0.02135609 0.00159932 0.02704778 0.12249328 0.02656227 0.03831014 
0.01160265 0.07354974 0.00505842 0.00225370 0.02664656 0.00169620 0.01562344 0.00833942 0.02371736 0.01190093 0.02126847 0.00159641 0.02703994 0.12153277 0.02614966 0.03801495 
0.01157595 0.07336890 0.00507562 0.00226540 0.02675354 0.00169069 0.01564738 0.00823876 0.02349254 0.01200138 0.02118245 0.00159297 0.02701790 0.12058460 0.02573240 0.03767903 
0.01155472 0.07318564 0.00509131 0.00227866 0.02681489 0.00168475 0.01565070 0.00813182 0.02326623 0.01209609 0.02109841 0.00158906 0.02698227 0.11966126 0.02531375 0.03730445 
0.01153922 0.07300118 0.00510537 0.00229347 0.02683017 0.00167839 0.01563332 0.00801910 0.02303988 0.01218485 0.02101666 0.00158471 0.02693373 0.11877521 0.02489698 0.03689353 
0.01152968 0.07281673 0.00511771 0.00230981 0.02679919 0.00167164 0.01559529 0.00790115 0.02281496 0.01226743 0.02093749 0.00157999 0.02687298 0.11793880 0.02448539 0.03644878 
0.01152625 0.07263348 0.00512822 0.00232764 0.02672195 0.00166452 0.01553672 0.00777856 0.02259288 0.01234363 0.02086116 0.00157496 0.02680077 0.11716414 0.02408226 0.03597292 
0.01152901 0.07245258 0.00513682 0.00234689 0.02659863 0.00165708 0.01545784 0.00765195 0.02237504 0.01241323 0.02078787 0.00156967 0.02671788 0.11646305 0.02369085 0.03546886 
0.01153799 0.07227515 0.00514341 0.00236749 0.02642965 0.00164936 0.01535898 0.00752198 0.02216277 0.01247606 0.02071777 0.00156419 0.02662510 0.11584697 0.02331437 0.03493968 
0.01155318 0.07210225 0.00514792 0.00238937 0.02621561 0.00164139 0.01524053 0.00738934 0.02195738 0.01253193 0.02065096 0.00155857 0.02652325 0.11532686 0.02295594 0.03438859 
0.01157448 0.07193490 0.00515029 0.00241243 0.02595732 0.00163323 0.01510300 0.00725473 0.02176009 0.01258068 0.02058752 0.00155290 0.02641315 0.11491314 0.02261860 0.03381897 
0.01160173 0.07177407 0.00515046 0.00243655 0.02565576 0.00162493 0.01494700 0.00711890 0.02157207 0.01262216 0.02052743 0.00154723 0.02629562 0.11461561 0.02230529 0.03323427 
0.01163474 0.07162067 0.00514837 0.00246161 0.02531213 0.00161655 0.01477318 0.00698259 0.02139439 0.01265625 0.02047066 0.00154163 0.02617149 0.11444337 0.02201879 0.03263808 
0.01167324 0.07147553 0.00514398 0.00248749 0.02492778 0.00160816 0.01458229 0.00684657 0.02122806 0.01268282 0.02041712 0.00153617 0.02604157 0.11440477 0.02176178 0.03203403 
0.01171692 0.07133945 0.00513728 0.00251402 0.02450423 0.00159981 0.01437517 0.00671161 0.02107400 0.01270179 0.02036666 0.00153092 0.02590666 0.11450733 0.02153672 0.03142580 
0.01176541 0.07121312 0.00512822 0.00254106 0.02404318 0.00159158 0.01415270 0.00657847 0.02093305 0.01271307 0.02031909 0.00152594 0.02576754 0.11475769 0.02134593 0.03081710 
0.01181831 0.07109719 0.00511680 0.00256845 0.02354647 0.00158354 0.01391584 0.00644794 0.02080593 0.01271662 0.02027417 0.00152130 0.02562494 0.11516156 0.02119153 0.03021165 
0.01187517 0.07099221 0.00510302 0.00259601 0.02301608 0.00157577 0.01366561 0.00632078 0.02069330 0.01271241 0.02023163 0.00151707 0.02547959 0.11572366 0.02107541 0.02961315 
0.01193550 0.07089869 0.00508689 0.00262357 0.02245412 0.00156834 0.01340305 0.00619774 0.02059570 0.01270043 0.02019116 0.00151330 0.02533217 0.11644772 0.02099926 0.02902523 
0.01199879 0.07081702 0.00506842 0.00265095 0.02186281 0.00156133 0.01312929 0.00607956 0.02051358 0.01268070 0.02015239 0.00151006 0.02518330 0.11733641 0.02096454 0.02845148 
0.01206450 0.07074753 0.00504764 0.00267796 0.02124447 0.00155483 0.01284546 0.00596695 0.02044731 0.01265327 0.02011495 0.00150741 0.02503358 0.11839132 0.02097246 0.02789538 
0.01213205 0.07069049 0.00502458 0.00270442 0.02060153 0.00154891 0.01255274 0.00586061 0.02039716 0.01261821 0.02007843 0.00150539 0.02488355 0.11961294 0.02102398 0.02736030 
0.01220087 0.07064606 0.00499931 0.00273014 0.01993646 0.00154366 0.01225234 0.00576120 0.02036329 0.01257563 0.02004240 0.00150408 0.02473370 0.12100069 0.02111981 0.02684947 
0.01227036 0.07061434 0.00497186 0.00275493 0.01925183 0.00153916 0.01194547 0.00566934 0.02034582 0.01252565 0.02000640 0.00150350 0.02458445 0.12255285 0.02126040 0.02636594 
0.01233995 0.07059533 0.00494232 0.00277861 0.01855023 0.00153549 0.01163336 0.00558563 0.02034475 0.01246843 0.01996999 0.00150371 0.02443618 0.12426661 0.02144593 0.02591261 
0.01240903 0.07058896 0.00491074 0.00280100 0.01783429 0.00153273 0.01131724 0.00551060 0.02036002 0.01240417 0.01993270 0.00150475 0.02428920 0.12613806 0.02167633 0.02549215 
0.01247701 0.07059509 0.00487723 0.00282193 0.01710667 0.00153095 0.01099836 0.00544476 0.02039150 0.01233307 0.01989407 0.00150665 0.02414377 0.12816222 0.02195124 0.02510700 
0.01254334 0.07061349 0.00484187 0.00284122 0.01637000 0.00153023 0.01067792 0.00538855 0.02043900 0.01225540 0.01985364 0.00150945 0.02400009 0.13033305 0.02227006 0.02475939 
0.01260746 0.07064385 0.00480477 0.00285872 0.01562695 0.00153063 0.01035715 0.00534238 0.02050227 0.01217143 0.01981099 0.00151318 0.02385828 0.13264348 0.02263191 0.02445124 
0.01266884 0.07068579 0.00476603 0.00287428 0.01488014 0.00153223 0.01003723 0.00530659 0.02058101 0.01208146 0.01976567 0.00151785 0.02371842 0.13508548 0.02303567 0.02418424 
0.01272699 0.07073884 0.00472578 0.00288775 0.01413213 0.00153508 0.00971932 0.00528146 0.02067489 0.01198584 0.01971732 0.00152349 0.02358052 0.13765005 0.02347997 0.02395977 
0.01278143 0.07080248 0.00468414 0.00289902 0.01338549 0.00153925 0.00940455 0.00526723 0.02078354 0.01188493 0.01966555 0.00153011 0.02344455 0.14032732 0.02396317 0.02377891 
0.01283176 0.07087609 0.00464123 0.00290796 0.01264267 0.00154477 0.00909401 0.00526404 0.02090655 0.01177911 0.01961005 0.00153771 0.02331040 0.14310658 0.02448344 0.02364243 
0.01287758 0.07095899 0.00459721 0.00291447 0.01190608 0.00155169 0.00878875 0.00527201 0.02104354 0.01166881 0.01955053 0.00154630 0.02317792 0.14597635 0.02503868 0.02355078 
0.01291856 0.07105043 0.00455221 0.00291848 0.01117804 0.00156005 0.00848978 0.00529118 0.02119408 0.01155446 0.01948676 0.00155589 0.02304691 0.14892442 0.02562661 0.02350409 
0.01295443 0.07114959 0.00450638 0.00291991 0.01046078 0.00156988 0.00819804 0.00532151 0.02135776 0.01143655 0.01941857 0.00156645 0.02291713 0.15193796 0.02624475 0.02350215 
0.01298493 0.07125560 0.00445988 0.00291871 0.00975642 0.00158119 0.00791444 0.00536292 0.02153418 0.01131554 0.01934584 0.00157799 0.02278828 0.15500358 0.02689040 0.02354444 
0.01300991 0.07136748 0.00441287 0.00291485 0.00906697 0.00159400 0.00763981 0.00541526 0.02172295 0.01119195 0.01926849 0.00159048 0.02266003 0.15810740 0.02756075 0.02363009 
0.01302925 0.07148425 0.00436549 0.00290831 0.00839433 0.00160831 0.00737493 0.00547832 0.02192372 0.01106630 0.01918655 0.00160391 0.02253203 0.16123513 0.02825277 0.02375792 
0.01304287 0.07160482 0.00431793 0.00289909 0.00774026 0.00162411 0.00712051 0.00555180 0.02213615 0.01093913 0.01910008 0.00161825 0.02240386 0.16437216 0.02896335 0.02392642 
0.01305079 0.07172808 0.00427033 0.00288722 0.00710640 0.00164139 0.00687720 0.00563539 0.02235996 0.01081101 0.01900924 0.00163346 0.02227512 0.16750366 0.02968921 0.02413376 
0.01305306 0.07185284 0.00422287 0.00287274 0.00649426 0.00166013 0.00664559 0.00572867 0.02259490 0.01068249 0.01891423 0.00164953 0.02214535 0.17061462 0.03042701 0.02437785 
0.01304979 0.07197787 0.00417571 0.00285571 0.00590520 0.00168028 0.00642619 0.00583121 0.02284078 0.01055414 0.01881537 0.00166641 0.02201411 0.17369001 0.03117331 0.02465625 
0.01304118 0.07210191 0.00412901 0.00283619 0.00534045 0.00170180 0.00621943 0.00594249 0.02309745 0.01042655 0.01871301 0.00168406 0.02188092 0.17671479 0.03192459 0.02496630 
0.01302744 0.07222363 0.00408294 0.00281430 0.00480109 0.00172463 0.00602570 0.00606195 0.02336482 0.01030031 0.01860759 0.00170244 0.02174530 0.17967405 0.03267731 0.02530505 
0.01300887 0.07234168 0.00403766 0.00279015 0.00428806 0.00174872 0.00584530 0.00618901 0.02364286 0.01017600 0.01849964 0.00172151 0.02160678 0.18255310 0.03342790 0.02566932 
0.01298581 0.07245466 0.00399332 0.00276387 0.00380215 0.00177399 0.00567846 0.00632300 0.02393161 0.01005419 0.01838975 0.00174120 0.02146488 0.18533751 0.03417279 0.02605573 
0.01295865 0.07256117 0.00395008 0.00273561 0.00334403 0.00180034 0.00552536 0.00646325 0.02423115 0.00993548 0.01827856 0.00176149 0.02131915 0.18801323 0.03490839 0.02646068 
0.01292783 0.07265975 0.00390808 0.00270553 0.00291421 0.00182770 0.00538609 0.00660903 0.02454165 0.00982043 0.01816681 0.00178230 0.02116912 0.19056667 0.03563120 0.02688041 
0.01289383 0.07274895 0.00386747 0.00267382 0.00251306 0.00185595 0.00526070 0.00675960 0.02486331 0.00970960 0.01805528 0.00180359 0.02101437 0.19298478 0.03633772 0.02731104 
0.01285717 0.07282729 0.00382838 0.00264068 0.00214085 0.00188499 0.00514915 0.00691417 0.02519639 0.00960354 0.01794482 0.00182530 0.02085448 0.19525510 0.03702456 0.02774853 
0.01281841 0.07289328 0.00379094 0.00260630 0.00179769 0.00191470 0.00505135 0.00707194 0.02554122 0.00950278 0.01783633 0.00184738 0.02068908 0.19736585 0.03768841 0.02818880 
0.01277814 0.07294544 0.00375528 0.00257091 0.00148358 0.00194495 0.00496716 0.00723211 0.02589817 0.00940784 0.01773077 0.00186976 0.02051781 0.19930602 0.03832606 0.02862767 
0.01273695 0.07298229 0.00372149 0.00253474 0.00119840 0.00197561 0.00489639 0.00739384 0.02626764 0.00931922 0.01762911 0.00189239 0.02034036 0.20106537 0.03893443 0.02906096 
0.01269549 0.07300237 0.00368969 0.00249803 0.00094194 0.00200655 0.00483876 0.00755631 0.02665009 0.00923738 0.01753239 0.00191521 0.02015644 0.20263457 0.03951060 0.02948448 
0.01265439 0.07300422 0.00365996 0.00246102 0.00071386 0.00203761 0.00479398 0.00771866 0.02704599 0.00916277 0.01744167 0.00193817 0.01996583 0.20400518 0.04005177 0.02989409 
0.01261431 0.07298643 0.00363239 0.00242397 0.00051374 0.00206865 0.00476170 0.00788008 0.02745585 0.00909580 0.01735801 0.00196120 0.01976833 0.20516973 0.04055535 0.03028570 
0.01257591 0.07294761 0.00360705 0.00238713 0.00034107 0.00209951 0.00474153 0.00803974 0.02788017 0.00903686 0.01728252 0.00198424 0.01956380 0.20612179 0.04101893 0.03065534 
0.01253984 0.07288640 0.00358399 0.00235076 0.00019527 0.00213005 0.00473303 0.00819683 0.02831948 0.00898631 0.01721629 0.00200725 0.01935214 0.20685592 0.04144026 0.03099913 
0.01250674 0.07280151 0.00356327 0.00231511 0.00007567 0.00216011 0.00473574 0.00835057 0.02877428 0.00894448 0.01716040 0.00203016 0.01913332 0.20736779 0.04181736 0.03131338 
0.01247726 0.07269170 0.00354491 0.00228045 0.00001844 0.00218952 0.00474915 0.00850018 0.02924507 0.00891164 0.01711595 0.00205293 0.01890735 0.20765417 0.04214842 0.03159460 
0.01245200 0.07255580 0.00352893 0.00224702 0.00008785 0.00221813 0.00477276 0.00864494 0.02973233 0.00888804 0.01708399 0.00207549 0.01867430 0.20771291 0.04243189 0.03183947 
0.01243155 0.07239269 0.00351536 0.00221508 0.00013336 0.00224579 0.00480599 0.00878414 0.03023649 0.00887391 0.01706555 0.00209780 0.01843428 0.20754300 0.04266644 0.03204496 
0.01241648 0.07220136 0.00350417 0.00218487 0.00015583 0.00227234 0.00484830 0.00891711 0.03075794 0.00886941 0.01706163 0.00211981 0.01818750 0.20714457 0.04285098 0.03220829 
0.01240733 0.07198088 0.00349536 0.00215662 0.00015616 0.00229762 0.00489909 0.00904324 0.03129699 0.00887468 0.01707317 0.00214147 0.01793417 0.20651885 0.04298468 0.03232698 
0.01240456 0.07173039 0.00348889 0.00213055 0.00013523 0.00232150 0.00495776 0.00916193 0.03185393 0.00888981 0.01710108 0.00216272 0.01767460 0.20566818 0.04306695 0.03239886 
0.01240865 0.07144916 0.00348473 0.00210688 0.00009397 0.00234382 0.00502373 0.00927267 0.03242892 0.00891486 0.01714618 0.00218354 0.01740914 0.20459602 0.04309747 0.03242211 
0.01241998 0.07113655 0.00348281 0.00208581 0.00003331 0.00236446 0.00509636 0.00937497 0.03302205 0.00894984 0.01720923 0.00220387 0.01713820 0.20330689 0.04307614 0.03239525 
0.01243892 0.07079206 0.00348306 0.00206752 0.00004585 0.00238328 0.00517507 0.00946842 0.03363333 0.00899472 0.01729092 0.00222368 0.01686223 0.20180637 0.04300315 0.03231717 
0.01246576 0.07041529 0.00348541 0.00205217 0.00014258 0.00240017 0.00525923 0.00955266 0.03426264 0.00904944 0.01739185 0.00224292 0.01658176 0.20010103 0.04287892 0.03218717 
0.01250075 0.07000596 0.00348977 0.00203993 0.00025600 0.00241502 0.00534825 0.00962737 0.03490974 0.00911390 0.01751253 0.00226155 0.01629736 0.19819845 0.04270412 0.03200493 
0.01254407 0.06956393 0.00349603 0.00203091 0.00038523 0.00242771 0.00544154 0.00969233 0.03557430 0.00918794 0.01765337 0.00227954 0.01600963 0.19610712 0.04247966 0.03177051 
0.01259586 0.06908921 0.00350407 0.00202525 0.00052941 0.00243817 0.00553850 0.00974734 0.03625581 0.00927139 0.01781468 0.00229686 0.01571924 0.19383642 0.04220670 0.03148441 
0.01265618 0.06858192 0.00351379 0.00202301 0.00068772 0.00244631 0.00563857 0.00979231 0.03695368 0.00936403 0.01799667 0.00231347 0.01542689 0.19139657 0.04188661 0.03114753 
0.01272504 0.06804232 0.00352504 0.00202428 0.00085938 0.00245207 0.00574121 0.00982718 0.03766713 0.00946561 0.01819943 0.00232935 0.01513335 0.18879856 0.04152100 0.03076117 
0.01280239 0.06747085 0.00353768 0.00202911 0.00104363 0.00245539 0.00584587 0.00985198 0.03839527 0.00957584 0.01842293 0.00234445 0.01483938 0.18605407 0.04111168 0.03032705 
0.01288812 0.06686804 0.00355157 0.00203751 0.00123976 0.00245624 0.00595203 0.00986679 0.03913706 0.00969441 0.01866705 0.00235875 0.01454582 0.18317546 0.04066067 0.02984728 
0.01298204 0.06623461 0.00356655 0.00204950 0.00144710 0.00245458 0.00605922 0.00987176 0.03989131 0.00982098 0.01893153 0.00237223 0.01425351 0.18017566 0.04017017 0.02932435 
0.01308392 0.06557138 0.00358247 0.00206506 0.00166501 0.00245041 0.00616695 0.00986710 0.04065669 0.00995516 0.01921600 0.00238485 0.01396332 0.17706808 0.03964257 0.02876115 
0.01319347 0.06487935 0.00359916 0.00208413 0.00189291 0.00244372 0.00627479 0.00985310 0.04143171 0.01009657 0.01951997 0.00239659 0.01367617 0.17386662 0.03908040 0.02816091 
0.01331033 0.06415962 0.00361645 0.00210665 0.00213024 0.00243454 0.00638231 0.00983009 0.04221477 0.01024478 0.01984282 0.00240742 0.01339296 0.17058548 0.03848637 0.02752722 
0.01343411 0.06341344 0.00363419 0.00213255 0.00237650 0.00242290 0.00648913 0.00979848 0.04300411 0.01039935 0.02018385 0.00241733 0.01311463 0.16723920 0.03786331 0.02686397 
0.01356436 0.06264221 0.00365219 0.00216169 0.00263123 0.00240885 0.00659488 0.00975873 0.04379787 0.01055983 0.02054220 0.00242627 0.01284212 0.16384249 0.03721416 0.02617538 
0.01370056 0.06184742 0.00367028 0.00219396 0.00289399 0.00239244 0.00669923 0.00971134 0.04459404 0.01072575 0.02091692 0.00243424 0.01257637 0.16041021 0.03654199 0.02546591 
0.01384217 0.06103069 0.00368831 0.00222920 0.00316439 0.00237376 0.00680186 0.00965689 0.04539052 0.01089662 0.02130697 0.00244121 0.01231832 0.15695726 0.03584994 0.02474029 
0.01398860 0.06019377 0.00370610 0.00226724 0.00344207 0.00235290 0.00690249 0.00959598 0.04618510 0.01107194 0.02171119 0.00244715 0.01206892 0.15349854 0.03514122 0.02400345 
0.01413924 0.05933848 0.00372350 0.00230788 0.00372669 0.00232997 0.00700087 0.00952928 0.04697549 0.01125123 0.02212832 0.00245204 0.01182910 0.15004882 0.03441909 0.02326052 
0.01429342 0.05846677 0.00374034 0.00235091 0.00401796 0.00230507 0.00709677 0.00945748 0.04775931 0.01143398 0.02255702 0.00245586 0.01159975 0.14662271 0.03368687 0.02251677 
0.01445045 0.05758065 0.00375648 0.00239611 0.00431558 0.00227835 0.00718999 0.00938132 0.04853414 0.01161967 0.02299586 0.00245858 0.01138178 0.14323457 0.03294789 0.02177759 
0.01460964 0.05668223 0.00377176 0.00244324 0.00461928 0.00224996 0.00728036 0.00930158 0.04929749 0.01180781 0.02344334 0.00246020 0.01117606 0.13989844 0.03220547 0.02104844 
0.01477025 0.05577366 0.00378606 0.00249204 0.00492881 0.00222004 0.00736772 0.00921904 0.05004686 0.01199789 0.02389788 0.00246067 0.01098341 0.13662795 0.03146292 0.02033483 
0.01493154 0.05485717 0.00379925 0.00254225 0.00524392 0.00218876 0.00745196 0.00913453 0.05077973 0.01218942 0.02435787 0.00245999 0.01080465 0.13343630 0.03072354 0.01964227 
0.01509276 0.05393502 0.00381121 0.00259359 0.00556435 0.00215631 0.00753296 0.00904889 0.05149356 0.01238192 0.02482160 0.00245813 0.01064052 0.13033615 0.02999056 0.01897625 
0.01525316 0.05300953 0.00382184 0.00264578 0.00588986 0.00212287 0.00761064 0.00896298 0.05218588 0.01257490 0.02528736 0.00245508 0.01049176 0.12733958 0.02926716 0.01834217 
0.01541199 0.05208301 0.00383103 0.00269853 0.00622018 0.00208862 0.00768495 0.00887766 0.05285421 0.01276789 0.02575340 0.00245081 0.01035902 0.12445803 0.02855643 0.01774534 
0.01556849 0.05115781 0.00383872 0.00275154 0.00655504 0.00205378 0.00775583 0.00879380 0.05349616 0.01296046 0.02621793 0.00244531 0.01024292 0.12170224 0.02786138 0.01719089 
0.01572194 0.05023627 0.00384482 0.00280452 0.00689416 0.00201855 0.00782327 0.00871226 0.05410941 0.01315216 0.02667916 0.00243855 0.01014403 0.11908222 0.02718490 0.01668381 
0.01587159 0.04932071 0.00384930 0.00285718 0.00723722 0.00198313 0.00788724 0.00863390 0.05469173 0.01334257 0.02713529 0.00243054 0.01006283 0.11660718 0.02652977 0.01622882 
0.01601677 0.04841345 0.00385210 0.00290920 0.00758389 0.00194774 0.00794776 0.00855957 0.05524102 0.01353129 0.02758455 0.00242125 0.00999977 0.11428551 0.02589862 0.01583043 
0.01615677 0.04751677 0.00385321 0.00296031 0.00793379 0.00191260 0.00800484 0.00849010 0.05575528 0.01371794 0.02802516 0.00241067 0.00995520 0.11212472 0.02529395 0.01549281 
0.01629096 0.04663290 0.00385262 0.00301022 0.00828651 0.00187792 0.00805852 0.00842631 0.05623271 0.01390217 0.02845538 0.00239880 0.00992943 0.11013144 0.02471807 0.01521985 
0.01641871 0.04576403 0.00385033 0.00305864 0.00864162 0.00184391 0.00810882 0.00836897 0.05667163 0.01408362 0.02887350 0.00238562 0.00992268 0.10831137 0.02417316 0.01501507 
0.01653944 0.04491228 0.00384637 0.00310532 0.00899864 0.00181078 0.00815580 0.00831884 0.05707057 0.01426198 0.02927786 0.00237114 0.00993508 0.10666926 0.02366120 0.01488160 
0.01665259 0.04407970 0.00384077 0.00314999 0.00935704 0.00177874 0.00819950 0.00827664 0.05742825 0.01443695 0.02966687 0.00235535 0.00996671 0.10520890 0.02318397 0.01482217 
0.01675767 0.04326828 0.00383360 0.00319240 0.00971625 0.00174800 0.00824000 0.00824304 0.05774360 0.01460825 0.03003898 0.00233827 0.01001757 0.10393311 0.02274307 0.01483907 
0.01685420 0.04247990 0.00382492 0.00323234 0.01007564 0.00171875 0.00827735 0.00821868 0.05801578 0.01477564 0.03039273 0.00231989 0.01008754 0.10284373 0.02233991 0.01493417 
0.01694178 0.04171636 0.00381483 0.00326958 0.01043457 0.00169118 0.00831162 0.00820414 0.05824418 0.01493887 0.03072673 0.00230022 0.01017647 0.10194163 0.02197566 0.01510882 
0.01702004 0.04097935 0.00380343 0.00330393 0.01079232 0.00166547 0.00834288 0.00819996 0.05842844 0.01509773 0.03103969 0.00227929 0.01028410 0.10122669 0.02165131 0.01536393 
0.01708866 0.04027048 0.00379083 0.00333521 0.01114813 0.00164179 0.00837120 0.00820661 0.05856844 0.01525204 0.03133040 0.00225712 0.01041009 0.10069782 0.02136760 0.01569989 
0.01714738 0.03959122 0.00377717 0.00336326 0.01150119 0.00162030 0.00839667 0.00822452 0.05866434 0.01540160 0.03159777 0.00223372 0.01055401 0.10035298 0.02112509 0.01611659 
0.01719597 0.03894295 0.00376260 0.00338795 0.01185067 0.00160115 0.00841934 0.00825404 0.05871656 0.01554628 0.03184081 0.00220914 0.01071537 0.10018921 0.02092409 0.01661341 
0.01723429 0.03832693 0.00374729 0.00340917 0.01219567 0.00158447 0.00843929 0.00829546 0.05872576 0.01568593 0.03205863 0.00218340 0.01089359 0.10020261 0.02076472 0.01718921 
0.01726221 0.03774430 0.00373141 0.00342683 0.01253527 0.00157039 0.00845659 0.00834903 0.05869290 0.01582044 0.03225048 0.00215655 0.01108801 0.10038842 0.02064685 0.01784235 
0.01727970 0.03719609 0.00371515 0.00344086 0.01286850 0.00155901 0.00847131 0.00841490 0.05861919 0.01594968 0.03241570 0.00212865 0.01129788 0.10074102 0.02057017 0.01857069 
0.01728675 0.03668321 0.00369870 0.00345122 0.01319439 0.00155043 0.00848352 0.00849317 0.05850609 0.01607359 0.03255379 0.00209973 0.01152240 0.10125396 0.02053413 0.01937157 
0.01728340 0.03620644 0.00368229 0.00345789 0.01351190 0.00154472 0.00849328 0.00858386 0.05835534 0.01619206 0.03266434 0.00206988 0.01176068 0.10192004 0.02053800 0.02024187 
0.01726976 0.03576645 0.00366613 0.00346087 0.01381999 0.00154194 0.00850065 0.00868692 0.05816892 0.01630504 0.03274708 0.00203914 0.01201178 0.10273132 0.02058082 0.02117799 
0.01724598 0.03536381 0.00365045 0.00346021 0.01411763 0.00154215 0.00850570 0.00880224 0.05794903 0.01641247 0.03280188 0.00200760 0.01227468 0.10367917 0.02066147 0.02217586 
0.01721227 0.03499896 0.00363549 0.00345595 0.01440374 0.00154535 0.00850848 0.00892963 0.05769812 0.01651430 0.03282873 0.00197534 0.01254831 0.10475434 0.02077861 0.02323101 
0.01716886 0.03467225 0.00362150 0.00344818 0.01467726 0.00155158 0.00850904 0.00906884 0.05741884 0.01661049 0.03282772 0.00194244 0.01283152 0.10594700 0.02093075 0.02433854 
0.01711605 0.03438390 0.00360872 0.00343700 0.01493713 0.00156082 0.00850745 0.00921953 0.05711406 0.01670100 0.03279911 0.00190900 0.01312314 0.10724680 0.02111623 0.02549318 
0.01705417 0.03413405 0.00359740 0.00342253 0.01518231 0.00157304 0.00850375 0.00938132 0.05678680 0.01678580 0.03274325 0.00187512 0.01342193 0.10864294 0.02133321 0.02668932 
0.01698359 0.03392274 0.00358781 0.00340493 0.01541175 0.00158823 0.00849800 0.00955375 0.05644026 0.01686488 0.03266061 0.00184089 0.01372662 0.11012421 0.02157974 0.02792102 
0.01690471 0.03374992 0.00358020 0.00338436 0.01562447 0.00160631 0.00849025 0.00973629 0.05607779 0.01693820 0.03255181 0.00180644 0.01403591 0.11167908 0.02185372 0.02918206 
0.01681799 0.03361544 0.00357482 0.00336101 0.01581950 0.00162723 0.00848056 0.00992837 0.05570285 0.01700575 0.03241753 0.00177188 0.01434846 0.11329574 0.02215291 0.03046599 
0.01672388 0.03351910 0.00357194 0.00333509 0.01599590 0.00165089 0.00846899 0.01012932 0.05531901 0.01706752 0.03225861 0.00173733 0.01466289 0.11496221 0.02247501 0.03176614 
0.01662290 0.03346058 0.00357180 0.00330684 0.01615280 0.00167721 0.00845557 0.01033847 0.05492991 0.01712348 0.03207596 0.00170292 0.01497784 0.11666634 0.02281758 0.03307567 
0.01651556 0.03343954 0.00357466 0.00327648 0.01628939 0.00170606 0.00844039 0.01055505 0.05453924 0.01717362 0.03187059 0.00166878 0.01529191 0.11839595 0.02317815 0.03438763 
0.01640240 0.03345553 0.00358075 0.00324427 0.01640491 0.00173733 0.00842349 0.01077827 0.05415071 0.01721792 0.03164362 0.00163503 0.01560371 0.12013885 0.02355414 0.03569499 
0.01628399 0.03350809 0.00359032 0.00321049 0.01649867 0.00177088 0.00840494 0.01100728 0.05376806 0.01725638 0.03139622 0.00160183 0.01591184 0.12188291 0.02394296 0.03699067 
0.01616090 0.03359665 0.00360359 0.00317541 0.01657007 0.00180656 0.00838483 0.01124121 0.05339497 0.01728897 0.03112968 0.00156930 0.01621492 0.12361619 0.02434196 0.03826761 
0.01603371 0.03372065 0.00362077 0.00313932 0.01661859 0.00184421 0.00836321 0.01147912 0.05303509 0.01731568 0.03084533 0.00153759 0.01651157 0.12532691 0.02474851 0.03951878 
0.01590302 0.03387943 0.00364208 0.00310252 0.01664380 0.00188368 0.00834017 0.01172008 0.05269200 0.01733650 0.03054457 0.00150685 0.01680046 0.12700359 0.02515994 0.04073727 
0.01576942 0.03407234 0.00366770 0.00306531 0.01664537 0.00192478 0.00831581 0.01196310 0.05236916 0.01735141 0.03022886 0.00147721 0.01708027 0.12863510 0.02557362 0.04191630 
0.01563350 0.03429865 0.00369782 0.00302800 0.01662307 0.00196735 0.00829021 0.01220719 0.05206993 0.01736040 0.02989971 0.00144883 0.01734971 0.13021069 0.02598694 0.04304925 
0.01549586 0.03455764 0.00373259 0.00299088 0.01657676 0.00201119 0.00826349 0.01245134 0.05179748 0.01736346 0.02955866 0.00142183 0.01760756 0.13172009 0.02639736 0.04412974 
0.01535708 0.03484852 0.00377217 0.00295428 0.01650644 0.00205612 0.00823574 0.01269452 0.05155486 0.01736059 0.02920728 0.00139636 0.01785261 0.13315355 0.02680237 0.04515167 
0.01521772 0.03517049 0.00381667 0.00291849 0.01641219 0.00210194 0.00820709 0.01293570 0.05134488 0.01735177 0.02884719 0.00137256 0.01808375 0.13450190 0.02719955 0.04610920 
0.01507836 0.03552273 0.00386621 0.00288381 0.01629422 0.00214847 0.00817766 0.01317387 0.05117016 0.01733701 0.02848000 0.00135056 0.01829989 0.13575658 0.02758658 0.04699686 
0.01493953 0.03590439 0.00392087 0.00285053 0.01615286 0.00219551 0.00814760 0.01340799 0.05103308 0.01731630 0.02810732 0.00133048 0.01850005 0.13690972 0.02796123 0.04780954 
0.01480177 0.03631460 0.00398072 0.00281894 0.01598854 0.00224288 0.00811704 0.01363706 0.05093576 0.01728967 0.02773080 0.00131246 0.01868328 0.13795418 0.02832140 0.04854255 
0.01466558 0.03675245 0.00404581 0.00278932 0.01580183 0.00229037 0.00808614 0.01386009 0.05088007 0.01725712 0.02735205 0.00129661 0.01884874 0.13888357 0.02866510 0.04919161 
0.01453144 0.03721702 0.00411614 0.00276193 0.01559339 0.00233781 0.00805505 0.01407610 0.05086759 0.01721868 0.02697266 0.00128303 0.01899567 0.13969228 0.02899051 0.04975293 
0.01439980 0.03770738 0.00419173 0.00273702 0.01536401 0.00238501 0.00802396 0.01428416 0.05089959 0.01717439 0.02659424 0.00127183 0.01912338 0.14037556 0.02929594 0.05022319 
0.01427111 0.03822254 0.00427253 0.00271482 0.01511459 0.00243180 0.00799302 0.01448335 0.05097707 0.01712428 0.02621831 0.00126310 0.01923128 0.14092949 0.02957986 0.05059958 
0.01414575 0.03876151 0.00435850 0.00269555 0.01484612 0.00247801 0.00796243 0.01467280 0.05110069 0.01706840 0.02584641 0.00125693 0.01931890 0.14135103 0.02984094 0.05087981 
0.01402409 0.03932326 0.00444955 0.00267942 0.01455973 0.00252346 0.00793237 0.01485169 0.05127082 0.01700683 0.02548001 0.00125339 0.01938583 0.14163802 0.03007798 0.05106216 
0.01390648 0.03990673 0.00454557 0.00266660 0.01425661 0.00256802 0.00790305 0.01501924 0.05148749 0.01693964 0.02512052 0.00125254 0.01943179 0.14178922 0.03029000 0.05114542 
0.01379322 0.04051082 0.00464642 0.00265725 0.01393806 0.00261152 0.00787465 0.01517471 0.05175042 0.01686691 0.02476934 0.00125443 0.01945659 0.14180430 0.03047621 0.05112897 
0.01368457 0.04113440 0.00475196 0.00265151 0.01360546 0.00265384 0.00784739 0.01531743 0.05205903 0.01678875 0.02442776 0.00125910 0.01946015 0.14168380 0.03063598 0.05101273 
0.01358078 0.04177631 0.00486197 0.00264950 0.01326029 0.00269484 0.00782146 0.01544680 0.05241239 0.01670527 0.02409703 0.00126658 0.01944251 0.14142921 0.03076891 0.05079719 
0.01348204 0.04243531 0.00497626 0.00265131 0.01290408 0.00273441 0.00779709 0.01556226 0.05280931 0.01661661 0.02377834 0.00127687 0.01940379 0.14104287 0.03087479 0.05048341 
0.01338851 0.04311016 0.00509458 0.00265701 0.01253842 0.00277244 0.00777447 0.01566333 0.05324827 0.01652290 0.02347279 0.00128999 0.01934424 0.14052801 0.03095359 0.05007300 
0.01330034 0.04379953 0.00521664 0.00266664 0.01216498 0.00280884 0.00775382 0.01574959 0.05372748 0.01642431 0.02318141 0.00130591 0.01926421 0.13988871 0.03100549 0.04956808 
0.01321760 0.04450207 0.00534218 0.00268022 0.01178545 0.00284352 0.00773533 0.01582072 0.05424486 0.01632100 0.02290514 0.00132460 0.01916416 0.13912988 0.03103087 0.04897135 
0.01314037 0.04521635 0.00547084 0.00269775 0.01140156 0.00287640 0.00771923 0.01587645 0.05479810 0.01621316 0.02264485 0.00134603 0.01904465 0.13825721 0.03103029 0.04828598 
0.01306867 0.04594089 0.00560231 0.00271919 0.01101508 0.00290744 0.00770569 0.01591659 0.05538464 0.01610099 0.02240132 0.00137013 0.01890635 0.13727715 0.03100449 0.04751565 
0.01300249 0.04667417 0.00573620 0.00274449 0.01062779 0.00293657 0.00769491 0.01594103 0.05600169 0.01598469 0.02217524 0.00139685 0.01875001 0.13619687 0.03095441 0.04666449 
0.01294180 0.04741458 0.00587212 0.00277356 0.01024147 0.00296376 0.00768708 0.01594975 0.05664626 0.01586450 0.02196721 0.00142608 0.01857651 0.13502420 0.03088114 0.04573709 
0.01288652 0.04816046 0.00600966 0.00280630 0.00985789 0.00298897 0.00768236 0.01594279 0.05731520 0.01574065 0.02177775 0.00145774 0.01838679 0.13376759 0.03078593 0.04473844 
0.01283656 0.04891009 0.00614839 0.00284258 0.00947882 0.00301219 0.00768092 0.01592029 0.05800519 0.01561337 0.02160727 0.00149172 0.01818191 0.13243603 0.03067022 0.04367391 
0.01279179 0.04966168 0.00628786 0.00288223 0.00910599 0.00303342 0.00768291 0.01588245 0.05871278 0.01548293 0.02145611 0.00152788 0.01796299 0.13103904 0.03053554 0.04254922 
0.01275205 0.05041338 0.00642760 0.00292509 0.00874110 0.00305264 0.00768846 0.01582958 0.05943443 0.01534957 0.02132450 0.00156609 0.01773124 0.12958657 0.03038359 0.04137040 
0.01271717 0.05116329 0.00656712 0.00297095 0.00838581 0.00306988 0.00769770 0.01576204 0.06016650 0.01521358 0.02121259 0.00160621 0.01748794 0.12808894 0.03021617 0.04014375 
0.01268695 0.05190944 0.00670593 0.00301960 0.00804171 0.00308515 0.00771072 0.01568027 0.06090532 0.01507521 0.02112044 0.00164807 0.01723445 0.12655679 0.03003519 0.03887581 
0.01266116 0.05264980 0.00684353 0.00307079 0.00771033 0.00309847 0.00772762 0.01558480 0.06164718 0.01493475 0.02104802 0.00169151 0.01697218 0.12500100 0.02984264 0.03757331 
0.01263956 0.05338231 0.00697940 0.00312426 0.00739312 0.00310988 0.00774844 0.01547622 0.06238837 0.01479247 0.02099521 0.00173634 0.01670261 0.12343260 0.02964061 0.03624313 
0.01262189 0.05410483 0.00711301 0.00317974 0.00709146 0.00311941 0.00777325 0.01535520 0.06312522 0.01464864 0.02096182 0.00178238 0.01642725 0.12186274 0.02943123 0.03489225 
0.01260787 0.05481521 0.00724385 0.00323694 0.00680663 0.00312712 0.00780206 0.01522248 0.06385412 0.01450354 0.02094755 0.00182943 0.01614767 0.12030259 0.02921667 0.03352775 
0.01259722 0.05551124 0.00737137 0.00329556 0.00653980 0.00313305 0.00783487 0.01507883 0.06457151 0.01435743 0.02095204 0.00187729 0.01586546 0.11876327 0.02899915 0.03215670 
0.01258963 0.05619070 0.00749506 0.00335527 0.00629205 0.00313726 0.00787167 0.01492512 0.06527398 0.01421060 0.02097485 0.00192576 0.01558226 0.11725578 0.02878087 0.03078617 
0.01258480 0.05685132 0.00761438 0.00341575 0.00606434 0.00313979 0.00791239 0.01476227 0.06595822 0.01406328 0.02101548 0.00197461 0.01529970 0.11579092 0.02856406 0.02942317 
0.01258240 0.05749086 0.00772882 0.00347666 0.00585752 0.00314072 0.00795697 0.01459122 0.06662109 0.01391574 0.02107332 0.00202363 0.01501946 0.11437926 0.02835091 0.02807461 
0.01258212 0.05810704 0.00783786 0.00353766 0.00567231 0.00314010 0.00800531 0.01441299 0.06725960 0.01376822 0.02114774 0.00207261 0.01474319 0.11303099 0.02814357 0.02674725 
0.01258362 0.05869760 0.00794102 0.00359841 0.00550929 0.00313799 0.00805729 0.01422862 0.06787098 0.01362094 0.02123802 0.00212134 0.01447256 0.11175594 0.02794416 0.02544768 
0.01258658 0.05926029 0.00803779 0.00365854 0.00536895 0.00313445 0.00811275 0.01403919 0.06845268 0.01347412 0.02134338 0.00216958 0.01420922 0.11056347 0.02775469 0.02418226 
0.01259066 0.05979289 0.00812770 0.00371772 0.00525161 0.00312955 0.00817154 0.01384583 0.06900235 0.01332798 0.02146299 0.00221714 0.01395482 0.10946242 0.02757714 0.02295710 
0.01259554 0.06029323 0.00821032 0.00377560 0.00515747 0.00312336 0.00823344 0.01364965 0.06951790 0.01318269 0.02159598 0.00226379 0.01371095 0.10846105 0.02741334 0.02177803 
0.01260089 0.06075917 0.00828519 0.00383181 0.00508661 0.00311592 0.00829823 0.01345183 0.06999752 0.01303843 0.02174143 0.00230934 0.01347921 0.10756697 0.02726504 0.02065055 
0.01260640 0.06118864 0.00835193 0.00388604 0.00503896 0.00310729 0.00836567 0.01325351 0.07043963 0.01289537 0.02189835 0.00235357 0.01326113 0.10678714 0.02713387 0.01957980 
0.01261174 0.06157966 0.00841014 0.00393793 0.00501433 0.00309754 0.00843548 0.01305588 0.07084294 0.01275364 0.02206576 0.00239630 0.01305821 0.10612776 0.02702130 0.01857056 
0.01261662 0.06193031 0.00845947 0.00398718 0.00501239 0.00308671 0.00850738 0.01286009 0.07120646 0.01261338 0.02224262 0.00243734 0.01287189 0.10559430 0.02692867 0.01762719 
0.01262073 0.06223879 0.00849960 0.00403346 0.00503269 0.00307486 0.00858105 0.01266732 0.07152946 0.01247468 0.02242787 0.00247651 0.01270354 0.10519139 0.02685714 0.01675363 
0.01262378 0.06250341 0.00853025 0.00407647 0.00507467 0.00306203 0.00865615 0.01247870 0.07181152 0.01233763 0.02262041 0.00251365 0.01255449 0.10492286 0.02680775 0.01595338 
0.01262551 0.06272259 0.00855115 0.00411594 0.00513763 0.00304826 0.00873233 0.01229537 0.07205248 0.01220232 0.02281914 0.00254861 0.01242597 0.10479168 0.02678131 0.01522948 
0.01262565 0.06289489 0.00856210 0.00415159 0.00522078 0.00303359 0.00880922 0.01211843 0.07225248 0.01206880 0.02302296 0.00258123 0.01231914 0.10479994 0.02677849 0.01458447 
0.01262394 0.06301904 0.00856290 0.00418318 0.00532320 0.00301806 0.00888645 0.01194893 0.07241193 0.01193711 0.02323073 0.00261140 0.01223509 0.10494886 0.02679976 0.01402044 
0.01262016 0.06309390 0.00855343 0.00421046 0.00544389 0.00300171 0.00896361 0.01178790 0.07253151 0.01180727 0.02344133 0.00263900 0.01217480 0.10523876 0.02684540 0.01353896 
0.01261408 0.06311851 0.00853359 0.00423325 0.00558175 0.00298455 0.00904029 0.01163634 0.07261216 0.01167930 0.02365363 0.00266393 0.01213917 0.10566909 0.02691550 0.01314113 
0.01260550 0.06309210 0.00850332 0.00425134 0.00573560 0.00296662 0.00911609 0.01149516 0.07265507 0.01155318 0.02386651 0.00268610 0.01212899 0.10623839 0.02700997 0.01282753 
0.01259423 0.06301407 0.00846261 0.00426459 0.00590417 0.00294793 0.00919056 0.01136524 0.07266163 0.01142892 0.02407887 0.00270546 0.01214496 0.10694436 0.02712852 0.01259825 
0.01258011 0.06288404 0.00841149 0.00427284 0.00608613 0.00292852 0.00926329 0.01124739 0.07263348 0.01130647 0.02428960 0.00272194 0.01218766 0.10778384 0.02727066 0.01245291 
0.01256299 0.06270181 0.00835004 0.00427600 0.00628011 0.00290838 0.00933385 0.01114235 0.07257245 0.01118580 0.02449764 0.00273552 0.01225757 0.10875283 0.02743574 0.01239062 
0.01254274 0.06246741 0.00827838 0.00427397 0.00648466 0.00288754 0.00940179 0.01105080 0.07248053 0.01106686 0.02470193 0.00274617 0.01235505 0.10984657 0.02762291 0.01241006 
0.01251925 0.06218107 0.00819668 0.00426670 0.00669830 0.00286602 0.00946671 0.01097334 0.07235989 0.01094961 0.02490146 0.00275391 0.01248036 0.11105952 0.02783115 0.01250941 
0.01249243 0.06184326 0.00810515 0.00425417 0.00691954 0.00284381 0.00952817 0.01091047 0.07221282 0.01083397 0.02509524 0.00275874 0.01263361 0.11238540 0.02805929 0.01268645 
0.01246221 0.06145467 0.00800405 0.00423637 0.00714683 0.00282094 0.00958575 0.01086264 0.07204173 0.01071990 0.02528232 0.00276070 0.01281482 0.11381729 0.02830597 0.01293852 
0.01242856 0.06101619 0.00789367 0.00421332 0.00737864 0.00279740 0.00963906 0.01083019 0.07184911 0.01060733 0.02546180 0.00275984 0.01302389 0.11534763 0.02856972 0.01326259 
0.01239144 0.06052898 0.00777437 0.00418509 0.00761342 0.00277322 0.00968769 0.01081338 0.07163752 0.01049620 0.02563280 0.00275623 0.01326058 0.11696830 0.02884891 0.01365523 
0.01235087 0.05999439 0.00764651 0.00415177 0.00784966 0.00274840 0.00973128 0.01081238 0.07140956 0.01038643 0.02579453 0.00274996 0.01352454 0.11867067 0.02914179 0.01411268 
0.01230687 0.05941400 0.00751054 0.00411345 0.00808581 0.00272295 0.00976945 0.01082725 0.07116784 0.01027798 0.02594621 0.00274112 0.01381529 0.12044566 0.02944651 0.01463087 
0.01225949 0.05878963 0.00736690 0.00407029 0.00832040 0.00269689 0.00980188 0.01085798 0.07091498 0.01017080 0.02608715 0.00272984 0.01413226 0.12228379 0.02976110 0.01520543 
0.01220882 0.05812329 0.00721611 0.00402245 0.00855196 0.00267022 0.00982823 0.01090447 0.07065355 0.01006483 0.02621671 0.00271623 0.01447472 0.12417529 0.03008354 0.01583176 
0.01215494 0.05741722 0.00705868 0.00397013 0.00877907 0.00264297 0.00984821 0.01096649 0.07038607 0.00996004 0.02633430 0.00270045 0.01484186 0.12611012 0.03041172 0.01650500 
0.01209800 0.05667385 0.00689520 0.00391354 0.00900038 0.00261516 0.00986155 0.01104376 0.07011498 0.00985640 0.02643941 0.00268264 0.01523272 0.12807809 0.03074348 0.01722015 
0.01203815 0.05589579 0.00672626 0.00385293 0.00921458 0.00258682 0.00986800 0.01113587 0.06984263 0.00975389 0.02653160 0.00266298 0.01564625 0.13006888 0.03107665 0.01797201 
0.01197559 0.05508586 0.00655247 0.00378857 0.00942041 0.00255795 0.00986735 0.01124235 0.06957122 0.00965252 0.02661049 0.00264164 0.01608130 0.13207214 0.03140902 0.01875531 
0.01191052 0.05424703 0.00637449 0.00372073 0.00961670 0.00252861 0.00985941 0.01136262 0.06930286 0.00955229 0.02667579 0.00261881 0.01653660 0.13407757 0.03173838 0.01956466 
0.01184318 0.05338244 0.00619299 0.00364974 0.00980236 0.00249882 0.00984402 0.01149602 0.06903946 0.00945323 0.02672728 0.00259469 0.01701078 0.13607498 0.03206255 0.02039466 
0.01177386 0.05249537 0.00600865 0.00357591 0.00997636 0.00246863 0.00982106 0.01164182 0.06878277 0.00935538 0.02676481 0.00256947 0.01750239 0.13805436 0.03237937 0.02123986 
0.01170285 0.05158921 0.00582218 0.00349960 0.01013778 0.00243807 0.00979045 0.01179919 0.06853437 0.00925880 0.02678832 0.00254336 0.01800986 0.14000592 0.03268674 0.02209487 
0.01163049 0.05066750 0.00563429 0.00342115 0.01028576 0.00240721 0.00975213 0.01196725 0.06829562 0.00916356 0.02679783 0.00251658 0.01853157 0.14192022 0.03298262 0.02295434 
0.01155714 0.04973385 0.00544570 0.00334095 0.01041956 0.00237608 0.00970607 0.01214502 0.06806770 0.00906976 0.02679344 0.00248933 0.01906580 0.14378819 0.03326504 0.02381303 
0.01148319 0.04879195 0.00525715 0.00325937 0.01053850 0.00234477 0.00965229 0.01233149 0.06785153 0.00897751 0.02677534 0.00246185 0.01961077 0.14560119 0.03353215 0.02466583 
0.01140907 0.04784557 0.00506935 0.00317681 0.01064204 0.00231332 0.00959084 0.01252556 0.06764786 0.00888693 0.02674380 0.00243433 0.02016463 0.14735106 0.03378219 0.02550776 
0.01133522 0.04689849 0.00488303 0.00309367 0.01072969 0.00228181 0.00952180 0.01272611 0.06745718 0.00879817 0.02669918 0.00240701 0.02072547 0.14903022 0.03401353 0.02633407 
0.01126213 0.04595454 0.00469891 0.00301035 0.01080109 0.00225031 0.00944529 0.01293193 0.06727978 0.00871139 0.02664192 0.00238009 0.02129135 0.15063165 0.03422467 0.02714019 
0.01119031 0.04501754 0.00451771 0.00292726 0.01085595 0.00221891 0.00936146 0.01314182 0.06711571 0.00862678 0.02657253 0.00235379 0.02186026 0.15214898 0.03441427 0.02792182 
0.01112029 0.04409128 0.00434011 0.00284482 0.01089411 0.00218769 0.00927050 0.01335450 0.06696480 0.00854453 0.02649164 0.00232831 0.02243017 0.15357652 0.03458113 0.02867492 
0.01105265 0.04317954 0.00416680 0.00276342 0.01091546 0.00215672 0.00917263 0.01356871 0.06682669 0.00846485 0.02639992 0.00230384 0.02299905 0.15490929 0.03472422 0.02939574 
0.01098797 0.04228602 0.00399844 0.00268348 0.01092000 0.00212612 0.00906809 0.01378313 0.06670080 0.00838797 0.02629816 0.00228059 0.02356482 0.15614301 0.03484270 0.03008085 
0.01092686 0.04141434 0.00383566 0.00260538 0.01090784 0.00209596 0.00895716 0.01399645 0.06658635 0.00831412 0.02618720 0.00225874 0.02412541 0.15727419 0.03493589 0.03072715 
0.01086996 0.04056803 0.00367907 0.00252953 0.01087915 0.00206635 0.00884015 0.01420737 0.06648239 0.00824355 0.02606796 0.00223846 0.02467875 0.15830009 0.03500329 0.03133187 
0.01081793 0.03975050 0.00352925 0.00245629 0.01083418 0.00203738 0.00871740 0.01441456 0.06638780 0.00817652 0.02594145 0.00221991 0.02522280 0.15921876 0.03504459 0.03189262 
0.01077146 0.03896502 0.00338674 0.00238604 0.01077327 0.00200916 0.00858927 0.01461674 0.06630132 0.00811330 0.02580873 0.00220325 0.02575552 0.16002901 0.03505969 0.03240738 
0.01073122 0.03821471 0.00325206 0.00231914 0.01069683 0.00198179 0.00845614 0.01481262 0.06622153 0.00805415 0.02567094 0.00218862 0.02627491 0.16073043 0.03504866 0.03287449 
0.01069794 0.03750250 0.00312567 0.00225591 0.01060533 0.00195536 0.00831842 0.01500096 0.06614693 0.00799937 0.02552927 0.00217615 0.02677901 0.16132339 0.03501175 0.03329268 
0.01067232 0.03683114 0.00300801 0.00219669 0.01049932 0.00192999 0.00817653 0.01518054 0.06607591 0.00794921 0.02538498 0.00216594 0.02726592 0.16180899 0.03494940 0.03366107 
0.01065510 0.03620318 0.00289946 0.00214177 0.01037939 0.00190576 0.00803093 0.01535018 0.06600677 0.00790397 0.02523936 0.00215810 0.02773380 0.16218908 0.03486225 0.03397915 
0.01064702 0.03562095 0.00280037 0.00209143 0.01024619 0.00188277 0.00788207 0.01550878 0.06593780 0.00786391 0.02509377 0.00215272 0.02818085 0.16246620 0.03475109 0.03424683 
0.01064879 0.03508652 0.00271103 0.00204594 0.01010044 0.00186113 0.00773042 0.01565525 0.06586723 0.00782932 0.02494960 0.00214985 0.02860540 0.16264355 0.03461690 0.03446434 
0.01066117 0.03460175 0.00263170 0.00200552 0.00994286 0.00184093 0.00757648 0.01578860 0.06579331 0.00780044 0.02480826 0.00214955 0.02900581 0.16272499 0.03446079 0.03463233 
0.01068488 0.03416822 0.00256257 0.00197039 0.00977424 0.00182225 0.00742073 0.01590790 0.06571428 0.00777754 0.02467120 0.00215187 0.02938057 0.16271495 0.03428405 0.03475177 
0.01072063 0.03378724 0.00250378 0.00194073 0.00959538 0.00180517 0.00726367 0.01601228 0.06562844 0.00776087 0.02453989 0.00215681 0.02972825 0.16261841 0.03408810 0.03482400 
0.01076914 0.03345985 0.00245544 0.00191670 0.00940714 0.00178978 0.00710582 0.01610096 0.06553417 0.00775063 0.02441580 0.00216438 0.03004756 0.16244085 0.03387448 0.03485069 
0.01083109 0.03318681 0.00241760 0.00189843 0.00921035 0.00177615 0.00694767 0.01617325 0.06542990 0.00774706 0.02430040 0.00217457 0.03033728 0.16218819 0.03364485 0.03483380 
0.01090714 0.03296861 0.00239024 0.00188603 0.00900590 0.00176434 0.00678973 0.01622854 0.06531420 0.00775033 0.02419517 0.00218736 0.03059634 0.16186675 0.03340099 0.03477560 
0.01099795 0.03280541 0.00237331 0.00187956 0.00879468 0.00175442 0.00663251 0.01626631 0.06518574 0.00776063 0.02410156 0.00220269 0.03082379 0.16148316 0.03314474 0.03467864 
0.01110412 0.03269712 0.00236671 0.00187907 0.00857756 0.00174642 0.00647651 0.01628615 0.06504336 0.00777810 0.02402100 0.00222050 0.03101882 0.16104434 0.03287803 0.03454571 
0.01122623 0.03264333 0.00237028 0.00188458 0.00835546 0.00174041 0.00632221 0.01628773 0.06488606 0.00780285 0.02395488 0.00224073 0.03118072 0.16055740 0.03260285 0.03437982 
0.01136482 0.03264336 0.00238380 0.00189607 0.00812924 0.00173641 0.00617011 0.01627084 0.06471300 0.00783499 0.02390457 0.00226327 0.03130895 0.16002962 0.03232123 0.03418420 
0.01152038 0.03269623 0.00240704 0.00191352 0.00789981 0.00173445 0.00602066 0.01623535 0.06452356 0.00787459 0.02387136 0.00228803 0.03140310 0.15946834 0.03203522 0.03396224 
0.01169335 0.03280069 0.00243968 0.00193684 0.00766803 0.00173454 0.00587434 0.01618125 0.06431731 0.00792167 0.02385649 0.00231488 0.03146291 0.15888095 0.03174689 0.03371748 
0.01188414 0.03295521 0.00248138 0.00196594 0.00743478 0.00173669 0.00573159 0.01610862 0.06409403 0.00797624 0.02386113 0.00234370 0.03148823 0.15827478 0.03145832 0.03345358 
0.01209307 0.03315800 0.00253176 0.00200069 0.00720089 0.00174091 0.00559283 0.01601765 0.06385375 0.00803826 0.02388638 0.00237435 0.03147909 0.15765707 0.03117153 0.03317428 
0.01232044 0.03340700 0.00259039 0.00204096 0.00696720 0.00174717 0.00545848 0.01590862 0.06359669 0.00810768 0.02393324 0.00240666 0.03143565 0.15703492 0.03088855 0.03288340 
0.01256645 0.03369993 0.00265681 0.00208656 0.00673451 0.00175546 0.00532892 0.01578192 0.06332333 0.00818439 0.02400260 0.00244047 0.03135818 0.15641519 0.03061134 0.03258477 
0.01283126 0.03403426 0.00273051 0.00213730 0.00650362 0.00176575 0.00520453 0.01563804 0.06303437 0.00826825 0.02409527 0.00247562 0.03124714 0.15580452 0.03034179 0.03228224 
0.01311494 0.03440724 0.00281096 0.00219295 0.00627529 0.00177798 0.00508566 0.01547753 0.06273074 0.00835909 0.02421192 0.00251191 0.03110309 0.15520920 0.03008174 0.03197962 
0.01341749 0.03481594 0.00289761 0.00225328 0.00605026 0.00179213 0.00497262 0.01530109 0.06241360 0.00845670 0.02435314 0.00254915 0.03092671 0.15463518 0.02983290 0.03168066 
0.01373886 0.03525721 0.00298986 0.00231801 0.00582925 0.00180811 0.00486572 0.01510944 0.06208431 0.00856083 0.02451933 0.00258716 0.03071885 0.15408800 0.02959692 0.03138904 
0.01407888 0.03572776 0.00308712 0.00238687 0.00561295 0.00182587 0.00476523 0.01490343 0.06174447 0.00867120 0.02471081 0.00262573 0.03048043 0.15357278 0.02937532 0.03110833 
0.01443734 0.03622414 0.00318874 0.00245957 0.00540202 0.00184533 0.00467141 0.01468396 0.06139585 0.00878748 0.02492773 0.00266466 0.03021251 0.15309415 0.02916949 0.03084193 
0.01481391 0.03674275 0.00329410 0.00253578 0.00519709 0.00186640 0.00458446 0.01445201 0.06104041 0.00890933 0.02517010 0.00270374 0.02991627 0.15265625 0.02898071 0.03059313 
0.01520821 0.03727991 0.00340253 0.00261519 0.00499879 0.00188898 0.00450460 0.01420863 0.06068028 0.00903635 0.02543779 0.00274275 0.02959297 0.15226271 0.02881010 0.03036497 
0.01561975 0.03783183 0.00351338 0.00269744 0.00480771 0.00191299 0.00443197 0.01395492 0.06031774 0.00916812 0.02573050 0.00278150 0.02924396 0.15191658 0.02865865 0.03016034 
0.01604798 0.03839464 0.00362597 0.00278220 0.00462439 0.00193831 0.00436673 0.01369204 0.05995520 0.00930420 0.02604778 0.00281978 0.02887070 0.15162041 0.02852721 0.02998186 
0.01649225 0.03896443 0.00373964 0.00286911 0.00444939 0.00196482 0.00430899 0.01342118 0.05959518 0.00944409 0.02638902 0.00285737 0.02847472 0.15137613 0.02841645 0.02983191 
0.01695182 0.03953727 0.00385373 0.00295780 0.00428322 0.00199242 0.00425881 0.01314358 0.05924027 0.00958729 0.02675346 0.00289407 0.02805759 0.15118513 0.02832691 0.02971261 
0.01742589 0.04010920 0.00396757 0.00304791 0.00412637 0.00202098 0.00421626 0.01286051 0.05889314 0.00973327 0.02714017 0.00292969 0.02762098 0.15104825 0.02825896 0.02962578 
0.01791356 0.04067629 0.00408053 0.00313907 0.00397932 0.00205036 0.00418137 0.01257327 0.05855648 0.00988148 0.02754806 0.00296404 0.02716659 0.15096573 0.02821281 0.02957297 
0.01841384 0.04123462 0.00419196 0.00323091 0.00384251 0.00208045 0.00415412 0.01228317 0.05823302 0.01003132 0.02797591 0.00299692 0.02669617 0.15093730 0.02818854 0.02955538 
0.01892570 0.04178036 0.00430126 0.00332306 0.00371639 0.00211111 0.00413448 0.01199152 0.05792543 0.01018223 0.02842230 0.00302816 0.02621149 0.15096213 0.02818605 0.02957394 
0.01944799 0.04230973 0.00440781 0.00341516 0.00360136 0.00214221 0.00412240 0.01169964 0.05763638 0.01033358 0.02888572 0.00305759 0.02571435 0.15103890 0.02820509 0.02962923 
0.01997953 0.04281903 0.00451107 0.00350684 0.00349783 0.00217361 0.00411778 0.01140885 0.05736845 0.01048476 0.02936447 0.00308505 0.02520658 0.15116577 0.02824530 0.02972148 
0.02051903 0.04330470 0.00461047 0.00359775 0.00340618 0.00220519 0.00412052 0.01112045 0.05712412 0.01063515 0.02985674 0.00311039 0.02468999 0.15134048 0.02830615 0.02985063 
0.02106517 0.04376331 0.00470550 0.00368755 0.00332677 0.00223679 0.00413046 0.01083572 0.05690576 0.01078412 0.03036057 0.00313347 0.02416640 0.15156031 0.02838698 0.03001626 
0.02161656 0.04419154 0.00479568 0.00377589 0.00325995 0.00226830 0.00414746 0.01055591 0.05671560 0.01093105 0.03087390 0.00315416 0.02363762 0.15182215 0.02848702 0.03021762 
0.02217174 0.04458629 0.00488055 0.00386245 0.00320606 0.00229959 0.00417130 0.01028225 0.05655568 0.01107530 0.03139455 0.00317235 0.02310543 0.15212255 0.02860539 0.03045364 
0.02272922 0.04494458 0.00495972 0.00394692 0.00316542 0.00233053 0.00420179 0.01001590 0.05642787 0.01121627 0.03192024 0.00318795 0.02257160 0.15245773 0.02874108 0.03072292 
0.02328744 0.04526368 0.00503279 0.00402900 0.00313835 0.00236099 0.00423867 0.00975802 0.05633381 0.01135335 0.03244859 0.00320085 0.02203785 0.15282363 0.02889301 0.03102376 
0.02384484 0.04554103 0.00509945 0.00410841 0.00312512 0.00239086 0.00428169 0.00950967 0.05627492 0.01148594 0.03297715 0.00321101 0.02150586 0.15321596 0.02906001 0.03135414 
0.02439978 0.04577429 0.00515939 0.00418487 0.00312603 0.00242002 0.00433057 0.00927188 0.05625236 0.01161346 0.03350341 0.00321835 0.02097727 0.15363026 0.02924081 0.03171176 
0.02495063 0.04596137 0.00521238 0.00425813 0.00314133 0.00244838 0.00438500 0.00904561 0.05626701 0.01173537 0.03402479 0.00322283 0.02045366 0.15406189 0.02943412 0.03209406 
0.02549573 0.04610041 0.00525820 0.00432796 0.00317127 0.00247581 0.00444465 0.00883177 0.05631951 0.01185114 0.03453869 0.00322444 0.01993654 0.15450614 0.02963856 0.03249819 
0.02603339 0.04618980 0.00529671 0.00439413 0.00321609 0.00250224 0.00450920 0.00863117 0.05641017 0.01196027 0.03504245 0.00322316 0.01942738 0.15495825 0.02985275 0.03292109 
0.02656194 0.04622817 0.00532777 0.00445647 0.00327599 0.00252758 0.00457828 0.00844456 0.05653902 0.01206227 0.03553345 0.00321899 0.01892757 0.15541343 0.03007524 0.03335946 
0.02707968 0.04621442 0.00535134 0.00451477 0.00335118 0.00255173 0.00465151 0.00827263 0.05670577 0.01215673 0.03600903 0.00321197 0.01843842 0.15586693 0.03030459 0.03380980 
0.02758495 0.04614773 0.00536739 0.00456889 0.00344182 0.00257464 0.00472851 0.00811596 0.05690984 0.01224324 0.03646657 0.00320212 0.01796117 0.15631409 0.03053936 0.03426846 
0.02807608 0.04602753 0.00537593 0.00461868 0.00354807 0.00259624 0.00480887 0.00797507 0.05715034 0.01232145 0.03690348 0.00318951 0.01749698 0.15675037 0.03077809 0.03473160 
0.02855144 0.04585353 0.00537705 0.00466404 0.00367007 0.00261646 0.00489219 0.00785039 0.05742605 0.01239102 0.03731721 0.00317419 0.01704693 0.15717136 0.03101937 0.03519529 
0.02900942 0.04562569 0.00537084 0.00470484 0.00380791 0.00263527 0.00497804 0.00774226 0.05773548 0.01245171 0.03770530 0.00315625 0.01661204 0.15757287 0.03126178 0.03565549 
0.02944845 0.04534426 0.00535748 0.00474103 0.00396168 0.00265262 0.00506599 0.00765095 0.05807683 0.01250326 0.03806535 0.00313579 0.01619321 0.15795092 0.03150398 0.03610806 
0.02986699 0.04500976 0.00533715 0.00477254 0.00413142 0.00266849 0.00515560 0.00757663 0.05844801 0.01254552 0.03839505 0.00311292 0.01579129 0.15830180 0.03174463 0.03654886 
0.03026359 0.04462295 0.00531008 0.00479932 0.00431714 0.00268285 0.00524643 0.00751939 0.05884667 0.01257834 0.03869223 0.00308776 0.01540702 0.15862207 0.03198248 0.03697370 
0.03063681 0.04418486 0.00527656 0.00482136 0.00451885 0.00269568 0.00533802 0.00747924 0.05927021 0.01260164 0.03895480 0.00306045 0.01504108 0.15890860 0.03221633 0.03737842 
0.03098531 0.04369680 0.00523690 0.00483866 0.00473647 0.00270700 0.00542993 0.00745611 0.05971579 0.01261541 0.03918084 0.00303114 0.01469406 0.15915860 0.03244503 0.03775890 
0.03130781 0.04316029 0.00519144 0.00485122 0.00496993 0.00271679 0.00552171 0.00744984 0.06018036 0.01261965 0.03936858 0.00299999 0.01436646 0.15936961 0.03266754 0.03811107 
0.03160311 0.04257709 0.00514055 0.00485909 0.00521910 0.00272507 0.00561290 0.00746020 0.06066066 0.01261445 0.03951639 0.00296716 0.01405873 0.15953954 0.03288286 0.03843099 
0.03187009 0.04194923 0.00508465 0.00486231 0.00548381 0.00273186 0.00570306 0.00748689 0.06115328 0.01259992 0.03962284 0.00293284 0.01377121 0.15966667 0.03309011 0.03871483 
0.03210774 0.04127891 0.00502416 0.00486095 0.00576384 0.00273719 0.00579174 0.00752952 0.06165467 0.01257624 0.03968666 0.00289722 0.01350418 0.15974963 0.03328847 0.03895891 
0.03231512 0.04056858 0.00495954 0.00485508 0.00605894 0.00274109 0.00587853 0.00758764 0.06216115 0.01254363 0.03970680 0.00286048 0.01325786 0.15978744 0.03347721 0.03915974 
0.03249140 0.03982087 0.00489127 0.00484481 0.00636880 0.00274360 0.00596298 0.00766074 0.06266896 0.01250237 0.03968240 0.00282283 0.01303237 0.15977951 0.03365571 0.03931404 
0.03263588 0.03903859 0.00481985 0.00483024 0.00669307 0.00274478 0.00604468 0.00774823 0.06317429 0.01245278 0.03961281 0.00278447 0.01282780 0.15972557 0.03382341 0.03941875 
0.03274792 0.03822474 0.00474578 0.00481149 0.00703135 0.00274467 0.00612324 0.00784949 0.06367332 0.01239521 0.03949760 0.00274561 0.01264415 0.15962575 0.03397986 0.03947108 
0.03282706 0.03738247 0.00466958 0.00478870 0.00738318 0.00274335 0.00619826 0.00796383 0.06416220 0.01233007 0.03933657 0.00270646 0.01248137 0.15948050 0.03412470 0.03946851 
0.03287289 0.03651509 0.00459179 0.00476200 0.00774807 0.00274086 0.00626937 0.00809049 0.06463716 0.01225781 0.03912974 0.00266724 0.01233934 0.15929058 0.03425763 0.03940882 
0.03288517 0.03562602 0.00451295 0.00473156 0.00812545 0.00273729 0.00633623 0.00822871 0.06509448 0.01217891 0.03887736 0.00262815 0.01221789 0.15905708 0.03437845 0.03929010 
0.03286377 0.03471881 0.00443358 0.00469752 0.00851472 0.00273271 0.00639850 0.00837765 0.06553054 0.01209388 0.03857993 0.00258942 0.01211681 0.15878137 0.03448704 0.03911080 
0.03280868 0.03379711 0.00435424 0.00466007 0.00891522 0.00272720 0.00645587 0.00853647 0.06594187 0.01200329 0.03823815 0.00255125 0.01203583 0.15846505 0.03458334 0.03886970 
0.03272001 0.03286465 0.00427545 0.00461937 0.00932623 0.00272084 0.00650807 0.00870426 0.06632515 0.01190770 0.03785299 0.00251385 0.01197462 0.15810998 0.03466737 0.03856594 
0.03259800 0.03192524 0.00419774 0.00457561 0.00974700 0.00271371 0.00655482 0.00888012 0.06667727 0.01180771 0.03742563 0.00247742 0.01193283 0.15771818 0.03473920 0.03819905 
0.03244304 0.03098275 0.00412164 0.00452898 0.01017672 0.00270590 0.00659591 0.00906310 0.06699531 0.01170395 0.03695748 0.00244216 0.01191005 0.15729187 0.03479896 0.03776893 
0.03225561 0.03004105 0.00404763 0.00447966 0.01061452 0.00269750 0.00663113 0.00925227 0.06727664 0.01159706 0.03645017 0.00240827 0.01190582 0.15683336 0.03484682 0.03727588 
0.03203633 0.02910407 0.00397622 0.00442785 0.01105949 0.00268861 0.00666031 0.00944665 0.06751888 0.01148769 0.03590557 0.00237592 0.01191968 0.15634510 0.03488301 0.03672059 
0.03178596 0.02817574 0.00390788 0.00437376 0.01151069 0.00267930 0.00668332 0.00964528 0.06771995 0.01137649 0.03532573 0.00234529 0.01195110 0.15582958 0.03490776 0.03610414 
0.03150535 0.02725995 0.00384305 0.00431757 0.01196711 0.00266968 0.00670007 0.00984719 0.06787808 0.01126413 0.03471293 0.00231656 0.01199952 0.15528929 0.03492136 0.03542803 
0.03119549 0.02636058 0.00378216 0.00425949 0.01242773 0.00265983 0.00671048 0.01005140 0.06799185 0.01115128 0.03406963 0.00228987 0.01206435 0.15472674 0.03492411 0.03469412 
0.03085747 0.02548148 0.00372562 0.00419972 0.01289147 0.00264984 0.00671453 0.01025696 0.06806018 0.01103859 0.03339847 0.00226536 0.01214499 0.15414439 0.03491629 0.03390468 
0.03049250 0.02462641 0.00367380 0.00413845 0.01335723 0.00263982 0.00671224 0.01046292 0.06808237 0.01092673 0.03270227 0.00224319 0.01224079 0.15354460 0.03489823 0.03306235 
0.03010188 0.02379908 0.00362704 0.00407590 0.01382387 0.00262983 0.00670364 0.01066834 0.06805808 0.01081632 0.03198401 0.00222346 0.01235106 0.15292962 0.03487022 0.03217014 
0.02968702 0.02300308 0.00358566 0.00401224 0.01429023 0.00261997 0.00668885 0.01087230 0.06798736 0.01070801 0.03124683 0.00220628 0.01247512 0.15230155 0.03483255 0.03123142 
0.02924942 0.02224192 0.00354994 0.00394768 0.01475512 0.00261033 0.00666798 0.01107391 0.06787066 0.01060239 0.03049398 0.00219175 0.01261222 0.15166233 0.03478550 0.03024991 
0.02879067 0.02151897 0.00352012 0.00388242 0.01521734 0.00260098 0.00664121 0.01127230 0.06770880 0.01050004 0.02972884 0.00217996 0.01276162 0.15101367 0.03472932 0.02922962 
0.02831242 0.02083747 0.00349641 0.00381664 0.01567569 0.00259201 0.00660876 0.01146662 0.06750303 0.01040153 0.02895490 0.00217096 0.01292255 0.15035705 0.03466423 0.02817491 
0.02781642 0.02020050 0.00347899 0.00375052 0.01612892 0.00258349 0.00657088 0.01165606 0.06725493 0.01030738 0.02817573 0.00216481 0.01309420 0.14969372 0.03459041 0.02709040 
0.02730446 0.01961100 0.00346800 0.00368426 0.01657582 0.00257549 0.00652788 0.01183985 0.06696652 0.01021807 0.02739498 0.00216154 0.01327576 0.14902462 0.03450801 0.02598097 
0.02677839 0.01907171 0.00346354 0.00361802 0.01701516 0.00256808 0.00648009 0.01201725 0.06664016 0.01013407 0.02661634 0.00216119 0.01346638 0.14835042 0.03441715 0.02485175 
0.02624013 0.01858519 0.00346567 0.00355199 0.01744572 0.00256133 0.00642790 0.01218755 0.06627857 0.01005580 0.02584356 0.00216375 0.01366521 0.14767149 0.03431787 0.02370806 
0.02569159 0.01815379 0.00347440 0.00348633 0.01786628 0.00255530 0.00637172 0.01235009 0.06588482 0.00998362 0.02508040 0.00216923 0.01387137 0.14698789 0.03421021 0.02255541 
0.02513476 0.01777968 0.00348973 0.00342120 0.01827567 0.00255004 0.00631201 0.01250426 0.06546232 0.00991787 0.02433061 0.00217759 0.01408397 0.14629935 0.03409413 0.02139947 
0.02457161 0.01746476 0.00351161 0.00335678 0.01867270 0.00254561 0.00624926 0.01264946 0.06501476 0.00985885 0.02359793 0.00218881 0.01430209 0.14560528 0.03396955 0.02024603 
0.02400415 0.01721075 0.00353994 0.00329320 0.01905623 0.00254205 0.00618402 0.01278518 0.06454615 0.00980679 0.02288610 0.00220283 0.01452482 0.14490481 0.03383636 0.01910094 
0.02343436 0.01701909 0.00357460 0.00323062 0.01942516 0.00253940 0.00611683 0.01291092 0.06406072 0.00976188 0.02219876 0.00221959 0.01475122 0.14419673 0.03369437 0.01797015 
0.02286424 0.01689101 0.00361542 0.00316918 0.01977840 0.00253771 0.00604830 0.01302624 0.06356297 0.00972427 0.02153953 0.00223902 0.01498035 0.14347956 0.03354339 0.01685960 
0.02229575 0.01682746 0.00366221 0.00310901 0.02011494 0.00253701 0.00597905 0.01313076 0.06305759 0.00969407 0.02091190 0.00226102 0.01521125 0.14275151 0.03338316 0.01577523 
0.02173083 0.01682915 0.00371474 0.00305026 0.02043378 0.00253733 0.00590973 0.01322412 0.06254945 0.00967131 0.02031930 0.00228550 0.01544297 0.14201056 0.03321341 0.01472294 
0.02117139 0.01689651 0.00377274 0.00299304 0.02073400 0.00253869 0.00584101 0.01330604 0.06204355 0.00965600 0.01976502 0.00231233 0.01567456 0.14125445 0.03303380 0.01370854 
0.02061929 0.01702973 0.00383592 0.00293748 0.02101471 0.00254110 0.00577359 0.01337626 0.06154501 0.00964808 0.01925222 0.00234141 0.01590505 0.14048070 0.03284402 0.01273774 
