0.04346323 0.00921271 0.00965104 0.00273482 0.00093969 0.00236962 0.02258602 0.00651529 0.02546205 0.00364458 0.00594434 0.01996295 0.00201049 0.00166999 0.00287717 0.00134805 
0.04372255 0.00923173 0.00969200 0.00276624 0.00094446 0.00234542 0.02294382 0.00667524 0.02609217 0.00356176 0.00593078 0.02044632 0.00192948 0.00175659 0.00296517 0.00134669 
0.04395426 0.00928788 0.00973944 0.00279900 0.00094959 0.00232039 0.02327523 0.00682806 0.02671986 0.00347951 0.00591530 0.02094129 0.00185333 0.00184964 0.00305883 0.00134524 
0.04415744 0.00938154 0.00979329 0.00283283 0.00095508 0.00229463 0.02357868 0.00697309 0.02734255 0.00339806 0.00589780 0.02144708 0.00178249 0.00194908 0.00315805 0.00134374 
0.04433129 0.00951289 0.00985343 0.00286745 0.00096088 0.00226820 0.02385270 0.00710965 0.02795762 0.00331769 0.00587817 0.02196286 0.00171741 0.00205482 0.00326269 0.00134218 
0.04447517 0.00968190 0.00991967 0.00290259 0.00096699 0.00224119 0.02409592 0.00723715 0.02856244 0.00323862 0.00585629 0.02248777 0.00165850 0.00216672 0.00337257 0.00134058 
0.04458857 0.00988832 0.00999178 0.00293798 0.00097337 0.00221368 0.02430712 0.00735499 0.02915440 0.00316109 0.00583204 0.02302088 0.00160619 0.00228464 0.00348750 0.00133895 
0.04467112 0.01013167 0.01006947 0.00297333 0.00098000 0.00218574 0.02448517 0.00746261 0.02973085 0.00308532 0.00580529 0.02356124 0.00156084 0.00240837 0.00360724 0.00133730 
0.04472259 0.01041129 0.01015240 0.00300840 0.00098683 0.00215747 0.02462909 0.00755952 0.03028923 0.00301150 0.00577593 0.02410790 0.00152284 0.00253770 0.00373152 0.00133563 
0.04474287 0.01072628 0.01024018 0.00304292 0.00099384 0.00212893 0.02473804 0.00764525 0.03082697 0.00293982 0.00574381 0.02465984 0.00149251 0.00267237 0.00386005 0.00133396 
0.04473202 0.01107554 0.01033237 0.00307665 0.00100098 0.00210022 0.02481131 0.00771937 0.03134160 0.00287047 0.00570882 0.02521605 0.00147018 0.00281210 0.00399251 0.00133230 
0.04469021 0.01145778 0.01042848 0.00310933 0.00100823 0.00207140 0.02484834 0.00778153 0.03183073 0.00280359 0.00567084 0.02577550 0.00145612 0.00295655 0.00412856 0.00133065 
0.04461774 0.01187148 0.01052797 0.00314075 0.00101555 0.00204256 0.02484874 0.00783139 0.03229204 0.00273933 0.00562973 0.02633715 0.00145059 0.00310539 0.00426782 0.00132903 
0.04451505 0.01231497 0.01063030 0.00317069 0.00102289 0.00201378 0.02481225 0.00786869 0.03272336 0.00267783 0.00558539 0.02689996 0.00145381 0.00325823 0.00440990 0.00132743 
0.04438269 0.01278636 0.01073484 0.00319893 0.00103021 0.00198513 0.02473878 0.00789323 0.03312263 0.00261918 0.00553770 0.02746290 0.00146597 0.00341468 0.00455440 0.00132587 
0.04422135 0.01328363 0.01084098 0.00322528 0.00103748 0.00195669 0.02462840 0.00790484 0.03348793 0.00256350 0.00548656 0.02802493 0.00148723 0.00357430 0.00470086 0.00132436 
0.04403179 0.01380456 0.01094804 0.00324957 0.00104466 0.00192852 0.02448132 0.00790343 0.03381751 0.00251085 0.00543187 0.02858503 0.00151768 0.00373664 0.00484886 0.00132289 
0.04381492 0.01434680 0.01105536 0.00327164 0.00105171 0.00190070 0.02429792 0.00788896 0.03410979 0.00246131 0.00537357 0.02914220 0.00155741 0.00390122 0.00499793 0.00132147 
0.04357172 0.01490788 0.01116222 0.00329132 0.00105858 0.00187330 0.02407872 0.00786145 0.03436338 0.00241491 0.00531157 0.02969546 0.00160646 0.00406756 0.00514759 0.00132012 
0.04330326 0.01548519 0.01126793 0.00330849 0.00106523 0.00184638 0.02382441 0.00782096 0.03457708 0.00237170 0.00524582 0.03024384 0.00166481 0.00423514 0.00529737 0.00131882 
0.04301070 0.01607602 0.01137176 0.00332303 0.00107164 0.00182000 0.02353580 0.00776764 0.03474989 0.00233169 0.00517628 0.03078642 0.00173243 0.00440343 0.00544676 0.00131759 
0.04269529 0.01667758 0.01147301 0.00333483 0.00107776 0.00179424 0.02321389 0.00770168 0.03488105 0.00229488 0.00510292 0.03132231 0.00180921 0.00457189 0.00559529 0.00131641 
0.04235831 0.01728699 0.01157094 0.00334383 0.00108355 0.00176913 0.02285976 0.00762333 0.03496999 0.00226127 0.00502572 0.03185063 0.00189504 0.00473997 0.00574244 0.00131531 
0.04200112 0.01790133 0.01166487 0.00334993 0.00108899 0.00174474 0.02247466 0.00753289 0.03501640 0.00223081 0.00494471 0.03237056 0.00198972 0.00490711 0.00588773 0.00131427 
0.04162513 0.01851764 0.01175410 0.00335311 0.00109404 0.00172112 0.02205995 0.00743072 0.03502019 0.00220348 0.00485991 0.03288132 0.00209305 0.00507276 0.00603067 0.00131329 
0.04123179 0.01913294 0.01183795 0.00335331 0.00109866 0.00169831 0.02161712 0.00731723 0.03498149 0.00217923 0.00477136 0.03338216 0.00220476 0.00523633 0.00617076 0.00131237 
0.04082256 0.01974424 0.01191579 0.00335053 0.00110283 0.00167635 0.02114777 0.00719290 0.03490071 0.00215798 0.00467913 0.03387240 0.00232454 0.00539728 0.00630753 0.00131151 
0.04039893 0.02034857 0.01198698 0.00334476 0.00110653 0.00165529 0.02065358 0.00705822 0.03477844 0.00213966 0.00458330 0.03435138 0.00245205 0.00555502 0.00644051 0.00131071 
0.03996243 0.02094301 0.01205095 0.00333602 0.00110972 0.00163517 0.02013635 0.00691376 0.03461557 0.00212419 0.00448400 0.03481850 0.00258689 0.00570902 0.00656924 0.00130996 
0.03951454 0.02152466 0.01210714 0.00332434 0.00111238 0.00161600 0.01959794 0.00676012 0.03441316 0.00211146 0.00438135 0.03527321 0.00272865 0.00585870 0.00669329 0.00130926 
0.03905678 0.02209071 0.01215505 0.00330976 0.00111450 0.00159783 0.01904032 0.00659794 0.03417255 0.00210138 0.00427550 0.03571501 0.00287685 0.00600355 0.00681223 0.00130860 
0.03859064 0.02263845 0.01219423 0.00329235 0.00111605 0.00158067 0.01846547 0.00642791 0.03389527 0.00209383 0.00416662 0.03614347 0.00303098 0.00614303 0.00692565 0.00130798 
0.03811757 0.02316525 0.01222424 0.00327219 0.00111703 0.00156455 0.01787549 0.00625074 0.03358307 0.00208869 0.00405493 0.03655817 0.00319051 0.00627664 0.00703319 0.00130739 
0.03763901 0.02366860 0.01224474 0.00324935 0.00111740 0.00154947 0.01727246 0.00606717 0.03323791 0.00208583 0.00394063 0.03695879 0.00335487 0.00640389 0.00713447 0.00130682 
0.03715636 0.02414614 0.01225541 0.00322395 0.00111718 0.00153545 0.01665853 0.00587798 0.03286192 0.00208512 0.00382398 0.03734503 0.00352344 0.00652432 0.00722917 0.00130628 
0.03667098 0.02459564 0.01225601 0.00319610 0.00111634 0.00152249 0.01603587 0.00568397 0.03245744 0.00208643 0.00370522 0.03771666 0.00369560 0.00663748 0.00731698 0.00130574 
0.03618415 0.02501504 0.01224634 0.00316593 0.00111489 0.00151060 0.01540665 0.00548596 0.03202695 0.00208961 0.00358465 0.03807349 0.00387067 0.00674295 0.00739763 0.00130520 
0.03569711 0.02540246 0.01222627 0.00313356 0.00111281 0.00149978 0.01477306 0.00528477 0.03157310 0.00209452 0.00346257 0.03841539 0.00404799 0.00684036 0.00747088 0.00130467 
0.03521106 0.02575620 0.01219572 0.00309916 0.00111011 0.00149001 0.01413726 0.00508127 0.03109867 0.00210102 0.00333931 0.03874229 0.00422684 0.00692935 0.00753651 0.00130412 
0.03472710 0.02607475 0.01215469 0.00306286 0.00110680 0.00148129 0.01350141 0.00487630 0.03060655 0.00210896 0.00321520 0.03905416 0.00440651 0.00700959 0.00759433 0.00130355 
0.03424626 0.02635680 0.01210322 0.00302485 0.00110287 0.00147360 0.01286764 0.00467073 0.03009973 0.00211820 0.00309060 0.03935101 0.00458625 0.00708080 0.00764421 0.00130296 
0.03376950 0.02660126 0.01204143 0.00298529 0.00109833 0.00146693 0.01223804 0.00446541 0.02958130 0.00212858 0.00296590 0.03963291 0.00476532 0.00714274 0.00768603 0.00130233 
0.03329771 0.02680726 0.01196950 0.00294435 0.00109320 0.00146125 0.01161465 0.00426121 0.02905440 0.00213998 0.00284147 0.03989999 0.00494297 0.00719518 0.00771972 0.00130166 
0.03283169 0.02697413 0.01188764 0.00290222 0.00108748 0.00145653 0.01099946 0.00405899 0.02852220 0.00215224 0.00271773 0.04015241 0.00511843 0.00723796 0.00774524 0.00130095 
0.03237215 0.02710144 0.01179616 0.00285909 0.00108118 0.00145275 0.01039441 0.00385957 0.02798792 0.00216524 0.00259509 0.04039037 0.00529096 0.00727095 0.00776258 0.00130019 
0.03191972 0.02718898 0.01169540 0.00281514 0.00107434 0.00144987 0.00980134 0.00366379 0.02745477 0.00217883 0.00247397 0.04061413 0.00545981 0.00729406 0.00777178 0.00129937 
0.03147495 0.02723676 0.01158576 0.00277057 0.00106695 0.00144786 0.00922206 0.00347247 0.02692595 0.00219289 0.00235481 0.04082398 0.00562422 0.00730723 0.00777291 0.00129848 
0.03103830 0.02724502 0.01146770 0.00272557 0.00105905 0.00144667 0.00865826 0.00328638 0.02640461 0.00220730 0.00223805 0.04102024 0.00578346 0.00731048 0.00776606 0.00129752 
0.03061015 0.02721421 0.01134171 0.00268033 0.00105065 0.00144627 0.00811156 0.00310629 0.02589385 0.00222193 0.00212413 0.04120330 0.00593683 0.00730382 0.00775139 0.00129650 
0.03019080 0.02714500 0.01120836 0.00263505 0.00104177 0.00144660 0.00758346 0.00293294 0.02539670 0.00223668 0.00201350 0.04137354 0.00608362 0.00728736 0.00772907 0.00129540 
0.02978045 0.02703827 0.01106822 0.00258992 0.00103246 0.00144763 0.00707541 0.00276703 0.02491608 0.00225144 0.00190661 0.04153141 0.00622316 0.00726120 0.00769930 0.00129422 
0.02937925 0.02689509 0.01092194 0.00254513 0.00102272 0.00144929 0.00658872 0.00260924 0.02445483 0.00226610 0.00180390 0.04167738 0.00635480 0.00722553 0.00766234 0.00129296 
0.02898725 0.02671676 0.01077017 0.00250086 0.00101259 0.00145154 0.00612460 0.00246020 0.02401562 0.00228058 0.00170582 0.04181193 0.00647793 0.00718055 0.00761846 0.00129161 
0.02860445 0.02650471 0.01061362 0.00245730 0.00100211 0.00145433 0.00568417 0.00232050 0.02360099 0.00229480 0.00161280 0.04193559 0.00659196 0.00712651 0.00756796 0.00129019 
0.02823078 0.02626059 0.01045302 0.00241461 0.00099129 0.00145759 0.00526842 0.00219070 0.02321332 0.00230868 0.00152527 0.04204890 0.00669636 0.00706371 0.00751118 0.00128868 
0.02786609 0.02598617 0.01028912 0.00237297 0.00098018 0.00146127 0.00487824 0.00207132 0.02285481 0.00232214 0.00144365 0.04215241 0.00679062 0.00699247 0.00744849 0.00128710 
0.02751019 0.02568341 0.01012269 0.00233254 0.00096880 0.00146532 0.00451441 0.00196281 0.02252745 0.00233513 0.00136834 0.04224670 0.00687429 0.00691316 0.00738027 0.00128543 
0.02716283 0.02535437 0.00995451 0.00229348 0.00095720 0.00146967 0.00417758 0.00186559 0.02223307 0.00234759 0.00129974 0.04233235 0.00694694 0.00682619 0.00730694 0.00128369 
0.02682373 0.02500125 0.00978538 0.00225592 0.00094541 0.00147426 0.00386830 0.00178004 0.02197324 0.00235948 0.00123821 0.04240996 0.00700821 0.00673199 0.00722894 0.00128188 
0.02649255 0.02462633 0.00961612 0.00222002 0.00093346 0.00147903 0.00358703 0.00170647 0.02174932 0.00237076 0.00118411 0.04248012 0.00705780 0.00663104 0.00714672 0.00128000 
0.02616891 0.02423201 0.00944751 0.00218588 0.00092140 0.00148393 0.00333407 0.00164515 0.02156246 0.00238141 0.00113776 0.04254344 0.00709545 0.00652384 0.00706076 0.00127806 
0.02585244 0.02382074 0.00928039 0.00215364 0.00090925 0.00148890 0.00310965 0.00159631 0.02141355 0.00239138 0.00109948 0.04260051 0.00712095 0.00641090 0.00697155 0.00127607 
0.02554271 0.02339502 0.00911553 0.00212339 0.00089706 0.00149387 0.00291388 0.00156009 0.02130324 0.00240068 0.00106955 0.04265193 0.00713415 0.00629278 0.00687958 0.00127402 
0.02523928 0.02295741 0.00895374 0.00209523 0.00088487 0.00149878 0.00274677 0.00153661 0.02123193 0.00240929 0.00104821 0.04269826 0.00713498 0.00617005 0.00678538 0.00127193 
0.02494172 0.02251048 0.00879579 0.00206924 0.00087272 0.00150359 0.00260822 0.00152593 0.02119979 0.00241721 0.00103570 0.04274007 0.00712339 0.00604331 0.00668946 0.00126981 
0.02464959 0.02205680 0.00864245 0.00204549 0.00086064 0.00150823 0.00249804 0.00152806 0.02120673 0.00242443 0.00103220 0.04277791 0.00709943 0.00591316 0.00659235 0.00126766 
0.02436243 0.02159893 0.00849445 0.00202404 0.00084868 0.00151266 0.00241594 0.00154294 0.02125241 0.00243098 0.00103787 0.04281228 0.00706317 0.00578022 0.00649457 0.00126550 
0.02407983 0.02113940 0.00835251 0.00200493 0.00083686 0.00151681 0.00236155 0.00157048 0.02133626 0.00243686 0.00105283 0.04284370 0.00701478 0.00564512 0.00639666 0.00126333 
0.02380136 0.02068070 0.00821732 0.00198819 0.00082524 0.00152064 0.00233439 0.00161052 0.02145746 0.00244208 0.00107717 0.04287260 0.00695446 0.00550849 0.00629914 0.00126117 
0.02352662 0.02022526 0.00808954 0.00197384 0.00081385 0.00152411 0.00233391 0.00166286 0.02161496 0.00244667 0.00111095 0.04289943 0.00688247 0.00537097 0.00620253 0.00125902 
0.02325524 0.01977541 0.00796980 0.00196189 0.00080273 0.00152716 0.00235949 0.00172724 0.02180750 0.00245066 0.00115416 0.04292455 0.00679915 0.00523320 0.00610734 0.00125689 
0.02298689 0.01933343 0.00785868 0.00195232 0.00079192 0.00152975 0.00241042 0.00180336 0.02203358 0.00245407 0.00120679 0.04294832 0.00670489 0.00509582 0.00601408 0.00125481 
0.02272125 0.01890147 0.00775674 0.00194512 0.00078145 0.00153185 0.00248594 0.00189088 0.02229151 0.00245694 0.00126876 0.04297102 0.00660010 0.00495944 0.00592322 0.00125278 
0.02245804 0.01848156 0.00766449 0.00194025 0.00077135 0.00153342 0.00258519 0.00198940 0.02257941 0.00245928 0.00133997 0.04299291 0.00648530 0.00482469 0.00583525 0.00125080 
0.02219705 0.01807560 0.00758240 0.00193766 0.00076167 0.00153443 0.00270729 0.00209848 0.02289521 0.00246115 0.00142026 0.04301417 0.00636101 0.00469216 0.00575062 0.00124890 
0.02193809 0.01768537 0.00751089 0.00193729 0.00075244 0.00153484 0.00285127 0.00221763 0.02323667 0.00246256 0.00150944 0.04303494 0.00622782 0.00456245 0.00566975 0.00124709 
0.02168101 0.01731248 0.00745035 0.00193908 0.00074369 0.00153464 0.00301614 0.00234635 0.02360142 0.00246355 0.00160728 0.04305530 0.00608638 0.00443612 0.00559307 0.00124537 
0.02142573 0.01695840 0.00740111 0.00194294 0.00073545 0.00153379 0.00320083 0.00248407 0.02398693 0.00246416 0.00171350 0.04307529 0.00593735 0.00431371 0.00552096 0.00124375 
0.02117221 0.01662441 0.00736345 0.00194877 0.00072775 0.00153229 0.00340426 0.00263021 0.02439055 0.00246442 0.00182779 0.04309485 0.00578145 0.00419573 0.00545378 0.00124226 
0.02092046 0.01631164 0.00733762 0.00195648 0.00072062 0.00153012 0.00362529 0.00278413 0.02480953 0.00246435 0.00194981 0.04311390 0.00561943 0.00408268 0.00539186 0.00124090 
0.02067053 0.01602103 0.00732379 0.00196595 0.00071409 0.00152727 0.00386275 0.00294518 0.02524105 0.00246399 0.00207914 0.04313227 0.00545208 0.00397502 0.00533549 0.00123968 
0.02042255 0.01575336 0.00732211 0.00197706 0.00070817 0.00152374 0.00411546 0.00311269 0.02568219 0.00246336 0.00221537 0.04314976 0.00528019 0.00387316 0.00528496 0.00123862 
0.02017666 0.01550920 0.00733266 0.00198967 0.00070291 0.00151951 0.00438220 0.00328595 0.02613000 0.00246249 0.00235804 0.04316608 0.00510461 0.00377749 0.00524050 0.00123771 
0.01993309 0.01528897 0.00735548 0.00200365 0.00069831 0.00151461 0.00466172 0.00346423 0.02658149 0.00246139 0.00250663 0.04318091 0.00492619 0.00368837 0.00520232 0.00123698 
0.01969209 0.01509287 0.00739055 0.00201885 0.00069439 0.00150903 0.00495277 0.00364679 0.02703366 0.00246008 0.00266061 0.04319387 0.00474579 0.00360611 0.00517057 0.00123643 
0.01945395 0.01492095 0.00743782 0.00203513 0.00069117 0.00150278 0.00525410 0.00383286 0.02748351 0.00245857 0.00281943 0.04320450 0.00456430 0.00353097 0.00514541 0.00123607 
0.01921902 0.01477307 0.00749717 0.00205232 0.00068867 0.00149589 0.00556442 0.00402169 0.02792804 0.00245687 0.00298249 0.04321233 0.00438260 0.00346319 0.00512692 0.00123590 
0.01898767 0.01464893 0.00756845 0.00207028 0.00068689 0.00148836 0.00588247 0.00421248 0.02836432 0.00245499 0.00314918 0.04321683 0.00420158 0.00340295 0.00511516 0.00123594 
0.01876032 0.01454805 0.00765143 0.00208883 0.00068585 0.00148024 0.00620697 0.00440445 0.02878945 0.00245293 0.00331885 0.04321743 0.00402213 0.00335038 0.00511017 0.00123619 
0.01853742 0.01446979 0.00774587 0.00210783 0.00068555 0.00147153 0.00653664 0.00459682 0.02920062 0.00245068 0.00349084 0.04321352 0.00384511 0.00330560 0.00511193 0.00123666 
0.01831943 0.01441337 0.00785146 0.00212709 0.00068599 0.00146228 0.00687022 0.00478880 0.02959509 0.00244824 0.00366447 0.04320447 0.00367141 0.00326864 0.00512039 0.00123735 
0.01810684 0.01437786 0.00796785 0.00214647 0.00068718 0.00145252 0.00720646 0.00497960 0.02997023 0.00244559 0.00383905 0.04318962 0.00350187 0.00323952 0.00513547 0.00123826 
0.01790016 0.01436220 0.00809466 0.00216580 0.00068911 0.00144229 0.00754411 0.00516845 0.03032351 0.00244272 0.00401387 0.04316829 0.00333733 0.00321820 0.00515706 0.00123940 
0.01769992 0.01436521 0.00823146 0.00218492 0.00069177 0.00143163 0.00788195 0.00535459 0.03065255 0.00243961 0.00418823 0.04313982 0.00317859 0.00320460 0.00518500 0.00124077 
0.01750662 0.01438559 0.00837776 0.00220368 0.00069517 0.00142059 0.00821878 0.00553727 0.03095511 0.00243624 0.00436140 0.04310350 0.00302644 0.00319860 0.00521910 0.00124237 
0.01732081 0.01442195 0.00853305 0.00222193 0.00069929 0.00140922 0.00855342 0.00571574 0.03122908 0.00243259 0.00453266 0.04305867 0.00288163 0.00320002 0.00525916 0.00124421 
0.01714300 0.01447282 0.00869680 0.00223952 0.00070412 0.00139756 0.00888471 0.00588931 0.03147253 0.00242861 0.00470130 0.04300465 0.00274487 0.00320867 0.00530491 0.00124627 
0.01697371 0.01453666 0.00886841 0.00225632 0.00070963 0.00138567 0.00921154 0.00605726 0.03168369 0.00242429 0.00486660 0.04294080 0.00261683 0.00322430 0.00535609 0.00124857 
0.01681343 0.01461186 0.00904727 0.00227220 0.00071582 0.00137361 0.00953279 0.00621894 0.03186100 0.00241958 0.00502787 0.04286650 0.00249815 0.00324662 0.00541239 0.00125110 
0.01666265 0.01469678 0.00923272 0.00228704 0.00072265 0.00136144 0.00984743 0.00637371 0.03200303 0.00241445 0.00518441 0.04278118 0.00238942 0.00327533 0.00547348 0.00125385 
0.01652181 0.01478975 0.00942411 0.00230072 0.00073011 0.00134921 0.01015442 0.00652096 0.03210861 0.00240888 0.00533555 0.04268428 0.00229118 0.00331006 0.00553900 0.00125682 
0.01639135 0.01488908 0.00962071 0.00231315 0.00073817 0.00133698 0.01045278 0.00666011 0.03217671 0.00240281 0.00548064 0.04257534 0.00220392 0.00335044 0.00560857 0.00126001 
0.01627167 0.01499310 0.00982181 0.00232423 0.00074679 0.00132483 0.01074157 0.00679062 0.03220652 0.00239621 0.00561905 0.04245393 0.00212808 0.00339605 0.00568180 0.00126342 
0.01616311 0.01510014 0.01002667 0.00233389 0.00075595 0.00131281 0.01101990 0.00691199 0.03219744 0.00238905 0.00575017 0.04231968 0.00206404 0.00344647 0.00575827 0.00126703 
0.01606599 0.01520857 0.01023450 0.00234206 0.00076561 0.00130099 0.01128690 0.00702375 0.03214908 0.00238129 0.00587342 0.04217233 0.00201213 0.00350124 0.00583755 0.00127084 
0.01598058 0.01531679 0.01044455 0.00234868 0.00077574 0.00128943 0.01154179 0.00712548 0.03206121 0.00237290 0.00598828 0.04201165 0.00197262 0.00355987 0.00591920 0.00127484 
0.01590711 0.01542328 0.01065600 0.00235373 0.00078629 0.00127820 0.01178381 0.00721679 0.03193385 0.00236384 0.00609422 0.04183753 0.00194573 0.00362188 0.00600276 0.00127903 
0.01584576 0.01552658 0.01086807 0.00235717 0.00079723 0.00126736 0.01201225 0.00729736 0.03176719 0.00235408 0.00619077 0.04164994 0.00193159 0.00368676 0.00608777 0.00128339 
0.01579665 0.01562530 0.01107994 0.00235898 0.00080851 0.00125697 0.01222647 0.00736688 0.03156162 0.00234361 0.00627752 0.04144896 0.00193031 0.00375400 0.00617375 0.00128792 
0.01575985 0.01571818 0.01129079 0.00235917 0.00082009 0.00124711 0.01242587 0.00742511 0.03131773 0.00233238 0.00635407 0.04123474 0.00194192 0.00382307 0.00626023 0.00129260 
0.01573539 0.01580404 0.01149982 0.00235776 0.00083192 0.00123782 0.01260992 0.00747184 0.03103627 0.00232040 0.00642008 0.04100754 0.00196639 0.00389344 0.00634673 0.00129743 
0.01572322 0.01588183 0.01170622 0.00235477 0.00084396 0.00122918 0.01277815 0.00750693 0.03071821 0.00230765 0.00647526 0.04076775 0.00200364 0.00396459 0.00643278 0.00130239 
0.01572327 0.01595061 0.01190917 0.00235025 0.00085617 0.00122124 0.01293012 0.00753027 0.03036464 0.00229411 0.00651936 0.04051583 0.00205351 0.00403599 0.00651791 0.00130748 
0.01573540 0.01600959 0.01210790 0.00234425 0.00086848 0.00121406 0.01306549 0.00754179 0.02997686 0.00227978 0.00655218 0.04025236 0.00211580 0.00410713 0.00660164 0.00131268 
0.01575942 0.01605811 0.01230161 0.00233685 0.00088087 0.00120769 0.01318395 0.00754149 0.02955628 0.00226468 0.00657358 0.03997803 0.00219025 0.00417750 0.00668353 0.00131798 
0.01579508 0.01609568 0.01248954 0.00232812 0.00089327 0.00120218 0.01328526 0.00752940 0.02910448 0.00224881 0.00658345 0.03969362 0.00227656 0.00424661 0.00676311 0.00132338 
0.01584212 0.01612192 0.01267095 0.00231816 0.00090564 0.00119759 0.01336924 0.00750560 0.02862316 0.00223219 0.00658175 0.03940002 0.00237435 0.00431398 0.00683996 0.00132884 
0.01590019 0.01613664 0.01284512 0.00230709 0.00091794 0.00119396 0.01343577 0.00747022 0.02811417 0.00221484 0.00656850 0.03909821 0.00248320 0.00437914 0.00691364 0.00133438 
0.01596894 0.01613980 0.01301136 0.00229501 0.00093011 0.00119134 0.01348481 0.00742343 0.02757942 0.00219680 0.00654374 0.03878926 0.00260264 0.00444165 0.00698376 0.00133996 
0.01604797 0.01613152 0.01316900 0.00228205 0.00094210 0.00118976 0.01351635 0.00736546 0.02702096 0.00217811 0.00650760 0.03847435 0.00273218 0.00450110 0.00704992 0.00134559 
0.01613684 0.01611206 0.01331742 0.00226836 0.00095388 0.00118926 0.01353045 0.00729655 0.02644091 0.00215880 0.00646022 0.03815471 0.00287125 0.00455710 0.00711176 0.00135125 
0.01623511 0.01608185 0.01345602 0.00225408 0.00096539 0.00118987 0.01352725 0.00721700 0.02584148 0.00213894 0.00640183 0.03783166 0.00301925 0.00460929 0.00716892 0.00135692 
0.01634228 0.01604149 0.01358426 0.00223936 0.00097660 0.00119162 0.01350692 0.00712716 0.02522490 0.00211859 0.00633267 0.03750658 0.00317557 0.00465733 0.00722108 0.00136260 
0.01645787 0.01599170 0.01370163 0.00222437 0.00098746 0.00119453 0.01346970 0.00702740 0.02459351 0.00209781 0.00625306 0.03718091 0.00333953 0.00470092 0.00726795 0.00136827 
0.01658137 0.01593336 0.01380766 0.00220928 0.00099792 0.00119863 0.01341589 0.00691812 0.02394962 0.00207668 0.00616334 0.03685614 0.00351045 0.00473980 0.00730924 0.00137392 
0.01671229 0.01586749 0.01390196 0.00219424 0.00100796 0.00120393 0.01334584 0.00679978 0.02329561 0.00205528 0.00606392 0.03653379 0.00368761 0.00477373 0.00734470 0.00137955 
0.01685012 0.01579524 0.01398416 0.00217945 0.00101754 0.00121044 0.01325995 0.00667285 0.02263386 0.00203371 0.00595521 0.03621541 0.00387026 0.00480252 0.00737413 0.00138513 
0.01699437 0.01571788 0.01405396 0.00216506 0.00102661 0.00121817 0.01315866 0.00653783 0.02196672 0.00201205 0.00583771 0.03590258 0.00405765 0.00482601 0.00739732 0.00139067 
0.01714457 0.01563679 0.01411112 0.00215127 0.00103515 0.00122711 0.01304248 0.00639525 0.02129656 0.00199041 0.00571192 0.03559686 0.00424901 0.00484407 0.00741411 0.00139615 
0.01730027 0.01555346 0.01415546 0.00213825 0.00104313 0.00123727 0.01291195 0.00624566 0.02062570 0.00196888 0.00557838 0.03529982 0.00444356 0.00485661 0.00742437 0.00140155 
0.01746104 0.01546946 0.01418685 0.00212616 0.00105053 0.00124863 0.01276766 0.00608964 0.01995642 0.00194758 0.00543766 0.03501302 0.00464051 0.00486360 0.00742801 0.00140688 
0.01762651 0.01538644 0.01420523 0.00211519 0.00105731 0.00126119 0.01261023 0.00592777 0.01929096 0.00192663 0.00529037 0.03473798 0.00483908 0.00486502 0.00742494 0.00141213 
0.01779633 0.01530613 0.01421060 0.00210550 0.00106346 0.00127492 0.01244032 0.00576067 0.01863149 0.00190613 0.00513712 0.03447616 0.00503847 0.00486090 0.00741513 0.00141728 
0.01797021 0.01523029 0.01420305 0.00209725 0.00106895 0.00128980 0.01225863 0.00558895 0.01798011 0.00188620 0.00497857 0.03422899 0.00523790 0.00485129 0.00739857 0.00142234 
0.01814791 0.01516073 0.01418269 0.00209060 0.00107377 0.00130581 0.01206588 0.00541324 0.01733882 0.00186697 0.00481537 0.03399785 0.00543661 0.00483630 0.00737529 0.00142729 
0.01832926 0.01509929 0.01414975 0.00208569 0.00107791 0.00132291 0.01186283 0.00523418 0.01670955 0.00184855 0.00464820 0.03378399 0.00563384 0.00481605 0.00734533 0.00143212 
0.01851413 0.01504780 0.01410448 0.00208267 0.00108136 0.00134106 0.01165025 0.00505241 0.01609411 0.00183106 0.00447775 0.03358864 0.00582885 0.00479072 0.00730879 0.00143684 
0.01870250 0.01500810 0.01404723 0.00208166 0.00108410 0.00136023 0.01142894 0.00486858 0.01549420 0.00181462 0.00430470 0.03341288 0.00602093 0.00476049 0.00726576 0.00144144 
0.01889438 0.01498200 0.01397838 0.00208279 0.00108614 0.00138037 0.01119971 0.00468333 0.01491142 0.00179935 0.00412975 0.03325771 0.00620937 0.00472559 0.00721640 0.00144592 
0.01908989 0.01497128 0.01389841 0.00208615 0.00108748 0.00140143 0.01096338 0.00449728 0.01434722 0.00178536 0.00395360 0.03312402 0.00639352 0.00468628 0.00716089 0.00145027 
0.01928921 0.01497765 0.01380785 0.00209184 0.00108810 0.00142334 0.01072079 0.00431109 0.01380293 0.00177276 0.00377692 0.03301255 0.00657274 0.00464284 0.00709940 0.00145449 
0.01949262 0.01500279 0.01370727 0.00209994 0.00108802 0.00144607 0.01047277 0.00412538 0.01327974 0.00176166 0.00360041 0.03292394 0.00674643 0.00459555 0.00703219 0.00145858 
0.01970046 0.01504825 0.01359732 0.00211053 0.00108724 0.00146953 0.01022016 0.00394075 0.01277869 0.00175215 0.00342474 0.03285868 0.00691403 0.00454475 0.00695948 0.00146254 
0.01991317 0.01511553 0.01347870 0.00212364 0.00108577 0.00149368 0.00996380 0.00375781 0.01230070 0.00174433 0.00325056 0.03281711 0.00707502 0.00449078 0.00688157 0.00146636 
0.02013127 0.01520600 0.01335216 0.00213932 0.00108362 0.00151843 0.00970453 0.00357715 0.01184651 0.00173829 0.00307852 0.03279945 0.00722890 0.00443399 0.00679876 0.00147006 
0.02035537 0.01532091 0.01321850 0.00215759 0.00108080 0.00154371 0.00944317 0.00339935 0.01141673 0.00173409 0.00290923 0.03280575 0.00737524 0.00437476 0.00671135 0.00147363 
0.02058616 0.01546139 0.01307855 0.00217845 0.00107733 0.00156946 0.00918053 0.00322495 0.01101180 0.00173182 0.00274329 0.03283592 0.00751364 0.00431345 0.00661971 0.00147707 
0.02082439 0.01562841 0.01293320 0.00220189 0.00107323 0.00159558 0.00891741 0.00305448 0.01063203 0.00173154 0.00258127 0.03288971 0.00764376 0.00425047 0.00652418 0.00148038 
0.02107091 0.01582282 0.01278336 0.00222789 0.00106851 0.00162201 0.00865459 0.00288847 0.01027756 0.00173328 0.00242372 0.03296672 0.00776529 0.00418619 0.00642515 0.00148357 
0.02132663 0.01604526 0.01262998 0.00225640 0.00106320 0.00164865 0.00839284 0.00272740 0.00994839 0.00173710 0.00227116 0.03306641 0.00787798 0.00412103 0.00632302 0.00148664 
0.02159252 0.01629625 0.01247402 0.00228737 0.00105732 0.00167543 0.00813289 0.00257173 0.00964435 0.00174302 0.00212405 0.03318810 0.00798162 0.00405536 0.00621819 0.00148959 
0.02186963 0.01657609 0.01231646 0.00232072 0.00105089 0.00170226 0.00787545 0.00242191 0.00936516 0.00175106 0.00198286 0.03333094 0.00807605 0.00398959 0.00611109 0.00149243 
0.02215903 0.01688493 0.01215832 0.00235636 0.00104394 0.00172904 0.00762121 0.00227835 0.00911036 0.00176122 0.00184798 0.03349398 0.00816117 0.00392410 0.00600215 0.00149517 
0.02246186 0.01722273 0.01200059 0.00239419 0.00103649 0.00175570 0.00737082 0.00214144 0.00887938 0.00177349 0.00171981 0.03367610 0.00823691 0.00385926 0.00589181 0.00149780 
0.02277929 0.01758926 0.01184427 0.00243409 0.00102858 0.00178214 0.00712491 0.00201155 0.00867151 0.00178786 0.00159867 0.03387610 0.00830327 0.00379545 0.00578053 0.00150033 
0.02311252 0.01798409 0.01169037 0.00247593 0.00102023 0.00180828 0.00688406 0.00188900 0.00848590 0.00180429 0.00148486 0.03409262 0.00836028 0.00373302 0.00566876 0.00150277 
0.02346275 0.01840661 0.01153988 0.00251956 0.00101147 0.00183403 0.00664885 0.00177411 0.00832161 0.00182274 0.00137864 0.03432423 0.00840801 0.00367230 0.00555696 0.00150512 
0.02383122 0.01885603 0.01139375 0.00256483 0.00100233 0.00185929 0.00641979 0.00166716 0.00817757 0.00184315 0.00128023 0.03456939 0.00844660 0.00361362 0.00544560 0.00150738 
0.02421912 0.01933136 0.01125294 0.00261157 0.00099285 0.00188399 0.00619736 0.00156839 0.00805259 0.00186545 0.00118980 0.03482649 0.00847621 0.00355729 0.00533514 0.00150957 
0.02462767 0.01983144 0.01111835 0.00265960 0.00098305 0.00190804 0.00598203 0.00147804 0.00794543 0.00188955 0.00110749 0.03509382 0.00849704 0.00350358 0.00522604 0.00151169 
0.02505802 0.02035492 0.01099085 0.00270874 0.00097298 0.00193135 0.00577419 0.00139629 0.00785471 0.00191537 0.00103339 0.03536964 0.00850934 0.00345276 0.00511876 0.00151373 
0.02551130 0.02090032 0.01087128 0.00275878 0.00096265 0.00195384 0.00557424 0.00132333 0.00777903 0.00194279 0.00096757 0.03565216 0.00851340 0.00340506 0.00501375 0.00151572 
0.02598858 0.02146594 0.01076041 0.00280954 0.00095211 0.00197544 0.00538251 0.00125929 0.00771688 0.00197169 0.00091004 0.03593954 0.00850952 0.00336070 0.00491147 0.00151764 
0.02649087 0.02204998 0.01065897 0.00286079 0.00094139 0.00199607 0.00519930 0.00120430 0.00766672 0.00200196 0.00086078 0.03622994 0.00849806 0.00331987 0.00481235 0.00151950 
0.02701908 0.02265047 0.01056761 0.00291233 0.00093052 0.00201565 0.00502489 0.00115844 0.00762696 0.00203345 0.00081972 0.03652152 0.00847938 0.00328272 0.00471683 0.00152131 
0.02757404 0.02326531 0.01048694 0.00296394 0.00091954 0.00203413 0.00485951 0.00112178 0.00759598 0.00206602 0.00078677 0.03681244 0.00845388 0.00324941 0.00462533 0.00152308 
0.02815648 0.02389231 0.01041748 0.00301540 0.00090847 0.00205142 0.00470335 0.00109438 0.00757213 0.00209950 0.00076181 0.03710090 0.00842199 0.00322002 0.00453824 0.00152479 
0.02876700 0.02452914 0.01035969 0.00306650 0.00089736 0.00206748 0.00455658 0.00107624 0.00755377 0.00213374 0.00074466 0.03738513 0.00838413 0.00319466 0.00445598 0.00152645 
0.02940605 0.02517339 0.01031392 0.00311701 0.00088623 0.00208225 0.00441933 0.00106737 0.00753924 0.00216857 0.00073513 0.03766343 0.00834075 0.00317337 0.00437891 0.00152807 
0.03007396 0.02582259 0.01028049 0.00316671 0.00087513 0.00209568 0.00429172 0.00106775 0.00752691 0.00220381 0.00073300 0.03793415 0.00829233 0.00315618 0.00430739 0.00152964 
0.03077090 0.02647418 0.01025959 0.00321540 0.00086407 0.00210771 0.00417380 0.00107733 0.00751518 0.00223928 0.00073801 0.03819576 0.00823933 0.00314311 0.00424178 0.00153116 
0.03149687 0.02712558 0.01025134 0.00326285 0.00085311 0.00211832 0.00406563 0.00109605 0.00750248 0.00227480 0.00074988 0.03844680 0.00818222 0.00313412 0.00418239 0.00153264 
0.03225169 0.02777416 0.01025579 0.00330887 0.00084226 0.00212747 0.00396723 0.00112383 0.00748729 0.00231018 0.00076830 0.03868595 0.00812149 0.00312918 0.00412954 0.00153406 
0.03303499 0.02841730 0.01027286 0.00335325 0.00083156 0.00213514 0.00387858 0.00116057 0.00746816 0.00234523 0.00079295 0.03891198 0.00805760 0.00312823 0.00408351 0.00153542 
0.03384621 0.02905234 0.01030243 0.00339580 0.00082105 0.00214129 0.00379967 0.00120615 0.00744370 0.00237976 0.00082349 0.03912383 0.00799102 0.00313116 0.00404456 0.00153673 
0.03468459 0.02967668 0.01034425 0.00343633 0.00081075 0.00214593 0.00373045 0.00126044 0.00741263 0.00241360 0.00085955 0.03932058 0.00792222 0.00313789 0.00401293 0.00153797 
0.03554917 0.03028774 0.01039801 0.00347467 0.00080070 0.00214903 0.00367084 0.00132330 0.00737372 0.00244655 0.00090075 0.03950147 0.00785163 0.00314827 0.00398884 0.00153913 
0.03643876 0.03088297 0.01046329 0.00351064 0.00079094 0.00215061 0.00362077 0.00139455 0.00732590 0.00247843 0.00094670 0.03966590 0.00777970 0.00316218 0.00397249 0.00154021 
0.03735197 0.03145992 0.01053960 0.00354410 0.00078148 0.00215065 0.00358013 0.00147403 0.00726816 0.00250907 0.00099701 0.03981345 0.00770684 0.00317944 0.00396405 0.00154120 
0.03828718 0.03201618 0.01062638 0.00357489 0.00077236 0.00214919 0.00354881 0.00156153 0.00719964 0.00253829 0.00105126 0.03994389 0.00763344 0.00319990 0.00396366 0.00154209 
0.03924256 0.03254947 0.01072296 0.00360288 0.00076361 0.00214624 0.00352669 0.00165687 0.00711962 0.00256592 0.00110903 0.04005718 0.00755989 0.00322337 0.00397144 0.00154287 
0.04021607 0.03305760 0.01082862 0.00362795 0.00075527 0.00214182 0.00351364 0.00175983 0.00702750 0.00259182 0.00116992 0.04015346 0.00748652 0.00324967 0.00398749 0.00154353 
0.04120545 0.03353850 0.01094256 0.00364999 0.00074735 0.00213598 0.00350950 0.00187018 0.00692281 0.00261583 0.00123350 0.04023307 0.00741366 0.00327859 0.00401187 0.00154404 
0.04220822 0.03399023 0.01106393 0.00366891 0.00073990 0.00212875 0.00351413 0.00198768 0.00680527 0.00263781 0.00129935 0.04029657 0.00734161 0.00330993 0.00404464 0.00154441 
0.04322171 0.03441100 0.01119179 0.00368461 0.00073293 0.00212017 0.00352738 0.00211209 0.00667473 0.00265763 0.00136706 0.04034469 0.00727063 0.00334350 0.00408581 0.00154461 
0.04424306 0.03479916 0.01132519 0.00369704 0.00072648 0.00211031 0.00354909 0.00224315 0.00653119 0.00267519 0.00143622 0.04037836 0.00720095 0.00337908 0.00413538 0.00154463 
0.04526921 0.03515323 0.01146308 0.00370614 0.00072057 0.00209923 0.00357910 0.00238060 0.00637483 0.00269036 0.00150643 0.04039872 0.00713279 0.00341647 0.00419331 0.00154445 
0.04629694 0.03547190 0.01160443 0.00371185 0.00071522 0.00208699 0.00361724 0.00252416 0.00620600 0.00270306 0.00157730 0.04040710 0.00706629 0.00345547 0.00425956 0.00154406 
0.04732286 0.03575404 0.01174812 0.00371417 0.00071048 0.00207366 0.00366334 0.00267355 0.00602518 0.00271321 0.00164844 0.04040500 0.00700162 0.00349588 0.00433404 0.00154343 
0.04834342 0.03599868 0.01189305 0.00371306 0.00070635 0.00205932 0.00371726 0.00282847 0.00583306 0.00272075 0.00171949 0.04039411 0.00693886 0.00353752 0.00441664 0.00154255 
0.04935497 0.03620506 0.01203807 0.00370853 0.00070286 0.00204407 0.00377882 0.00298863 0.00563046 0.00272562 0.00179009 0.04037628 0.00687809 0.00358021 0.00450725 0.00154139 
0.05035370 0.03637258 0.01218204 0.00370059 0.00070003 0.00202797 0.00384786 0.00315372 0.00541837 0.00272780 0.00185991 0.04035354 0.00681936 0.00362378 0.00460571 0.00153995 
0.05133575 0.03650084 0.01232381 0.00368927 0.00069789 0.00201114 0.00392423 0.00332342 0.00519796 0.00272725 0.00192862 0.04032804 0.00676266 0.00366806 0.00471186 0.00153819 
0.05229715 0.03658964 0.01246223 0.00367460 0.00069645 0.00199366 0.00400777 0.00349740 0.00497052 0.00272398 0.00199592 0.04030210 0.00670798 0.00371291 0.00482550 0.00153610 
0.05323389 0.03663896 0.01259618 0.00365662 0.00069574 0.00197563 0.00409831 0.00367535 0.00473753 0.00271800 0.00206153 0.04027815 0.00665526 0.00375821 0.00494643 0.00153366 
0.05414191 0.03664894 0.01272455 0.00363540 0.00069577 0.00195716 0.00419572 0.00385691 0.00450057 0.00270933 0.00212519 0.04025872 0.00660442 0.00380383 0.00507441 0.00153085 
0.05501715 0.03661993 0.01284627 0.00361101 0.00069655 0.00193836 0.00429984 0.00404175 0.00426138 0.00269801 0.00218665 0.04024645 0.00655536 0.00384968 0.00520920 0.00152764 
0.05585556 0.03655245 0.01296028 0.00358353 0.00069810 0.00191933 0.00441051 0.00422952 0.00402183 0.00268410 0.00224570 0.04024405 0.00650795 0.00389568 0.00535053 0.00152403 
0.05665312 0.03644717 0.01306561 0.00355305 0.00070043 0.00190018 0.00452760 0.00441986 0.00378390 0.00266767 0.00230214 0.04025430 0.00646202 0.00394175 0.00549813 0.00151999 
0.05740587 0.03630496 0.01316130 0.00351967 0.00070354 0.00188102 0.00465095 0.00461240 0.00354969 0.00264881 0.00235579 0.04028002 0.00641742 0.00398786 0.00565170 0.00151549 
0.05810992 0.03612681 0.01324648 0.00348349 0.00070746 0.00186196 0.00478042 0.00480679 0.00332137 0.00262762 0.00240651 0.04032406 0.00637393 0.00403396 0.00581093 0.00151053 
0.05876151 0.03591387 0.01332033 0.00344464 0.00071218 0.00184311 0.00491585 0.00500264 0.00310123 0.00260420 0.00245416 0.04038927 0.00633137 0.00408005 0.00597551 0.00150509 
0.05935700 0.03566743 0.01338211 0.00340322 0.00071771 0.00182458 0.00505710 0.00519959 0.00289161 0.00257869 0.00249865 0.04047850 0.00628950 0.00412614 0.00614511 0.00149915 
0.05989289 0.03538889 0.01343116 0.00335938 0.00072404 0.00180647 0.00520401 0.00539724 0.00269491 0.00255121 0.00253990 0.04059456 0.00624810 0.00417224 0.00631939 0.00149270 
0.06036588 0.03507978 0.01346688 0.00331323 0.00073117 0.00178890 0.00535642 0.00559522 0.00251358 0.00252193 0.00257785 0.04074021 0.00620693 0.00421840 0.00649801 0.00148572 
0.06077287 0.03474173 0.01348879 0.00326493 0.00073911 0.00177196 0.00551418 0.00579314 0.00235010 0.00249099 0.00261247 0.04091815 0.00616575 0.00426467 0.00668061 0.00147821 
0.06111096 0.03437646 0.01349649 0.00321462 0.00074784 0.00175576 0.00567711 0.00599060 0.00220696 0.00245857 0.00264374 0.04113099 0.00612431 0.00431112 0.00686684 0.00147015 
0.06137751 0.03398576 0.01348966 0.00316243 0.00075735 0.00174038 0.00584503 0.00618723 0.00208667 0.00242483 0.00267168 0.04138123 0.00608237 0.00435784 0.00705634 0.00146153 
0.06157013 0.03357150 0.01346810 0.00310851 0.00076764 0.00172592 0.00601777 0.00638261 0.00199169 0.00238997 0.00269632 0.04167125 0.00603970 0.00440492 0.00724874 0.00145235 
0.06168674 0.03313560 0.01343170 0.00305302 0.00077868 0.00171246 0.00619513 0.00657638 0.00192447 0.00235416 0.00271771 0.04200328 0.00599606 0.00445247 0.00744369 0.00144261 
0.06172552 0.03268001 0.01338044 0.00299611 0.00079045 0.00170009 0.00637691 0.00676812 0.00188740 0.00231761 0.00273592 0.04237941 0.00595123 0.00450060 0.00764082 0.00143231 
0.06168497 0.03220670 0.01331443 0.00293792 0.00080294 0.00168888 0.00656288 0.00695745 0.00188283 0.00228052 0.00275105 0.04280154 0.00590501 0.00454946 0.00783976 0.00142144 
0.06156394 0.03171769 0.01323387 0.00287861 0.00081612 0.00167889 0.00675283 0.00714399 0.00191299 0.00224308 0.00276320 0.04327139 0.00585718 0.00459916 0.00804017 0.00141001 
0.06136160 0.03121497 0.01313903 0.00281833 0.00082996 0.00167020 0.00694650 0.00732736 0.00198004 0.00220549 0.00277251 0.04379047 0.00580759 0.00464985 0.00824169 0.00139802 
0.06107745 0.03070053 0.01303034 0.00275722 0.00084444 0.00166284 0.00714365 0.00750717 0.00208601 0.00216795 0.00277910 0.04436008 0.00575607 0.00470166 0.00844396 0.00138549 
0.06071136 0.03017634 0.01290827 0.00269543 0.00085951 0.00165687 0.00734400 0.00768305 0.00223282 0.00213068 0.00278314 0.04498128 0.00570247 0.00475474 0.00864665 0.00137243 
0.06026356 0.02964432 0.01277343 0.00263312 0.00087515 0.00165233 0.00754727 0.00785464 0.00242222 0.00209386 0.00278479 0.04565492 0.00564669 0.00480924 0.00884943 0.00135885 
0.05973463 0.02910638 0.01262650 0.00257041 0.00089131 0.00164925 0.00775315 0.00802159 0.00265583 0.00205769 0.00278423 0.04638158 0.00558864 0.00486528 0.00905196 0.00134476 
0.05912553 0.02856434 0.01246823 0.00250746 0.00090795 0.00164765 0.00796133 0.00818353 0.00293507 0.00202236 0.00278165 0.04716159 0.00552825 0.00492300 0.00925393 0.00133020 
0.05843756 0.02801999 0.01229950 0.00244439 0.00092503 0.00164755 0.00817146 0.00834015 0.00326119 0.00198806 0.00277725 0.04799503 0.00546548 0.00498253 0.00945503 0.00131519 
0.05767238 0.02747503 0.01212122 0.00238134 0.00094250 0.00164894 0.00838320 0.00849111 0.00363525 0.00195496 0.00277123 0.04888171 0.00540034 0.00504399 0.00965497 0.00129974 
0.05683201 0.02693107 0.01193440 0.00231844 0.00096031 0.00165184 0.00859619 0.00863609 0.00405808 0.00192324 0.00276380 0.04982119 0.00533283 0.00510749 0.00985345 0.00128390 
0.05591880 0.02638967 0.01174010 0.00225581 0.00097840 0.00165622 0.00881003 0.00877481 0.00453031 0.00189305 0.00275518 0.05081274 0.00526301 0.00517311 0.01005021 0.00126770 
0.05493544 0.02585227 0.01153945 0.00219357 0.00099673 0.00166207 0.00902433 0.00890698 0.00505231 0.00186456 0.00274558 0.05185538 0.00519096 0.00524095 0.01024498 0.00125117 
0.05388494 0.02532022 0.01133363 0.00213183 0.00101524 0.00166936 0.00923868 0.00903232 0.00562426 0.00183789 0.00273523 0.05294785 0.00511679 0.00531106 0.01043752 0.00123435 
0.05277060 0.02479477 0.01112386 0.00207071 0.00103387 0.00167806 0.00945265 0.00915059 0.00624606 0.00181319 0.00272433 0.05408866 0.00504064 0.00538350 0.01062758 0.00121729 
0.05159602 0.02427708 0.01091138 0.00201031 0.00105256 0.00168811 0.00966581 0.00926156 0.00691737 0.00179056 0.00271312 0.05527604 0.00496269 0.00545830 0.01081494 0.00120004 
0.05036507 0.02376819 0.01069748 0.00195073 0.00107125 0.00169948 0.00987770 0.00936502 0.00763761 0.00177012 0.00270179 0.05650799 0.00488312 0.00553546 0.01099940 0.00118263 
0.04908186 0.02326903 0.01048346 0.00189207 0.00108988 0.00171209 0.01008787 0.00946076 0.00840593 0.00175195 0.00269056 0.05778226 0.00480216 0.00561498 0.01118075 0.00116514 
0.04775075 0.02278046 0.01027062 0.00183442 0.00110839 0.00172588 0.01029585 0.00954862 0.00922123 0.00173614 0.00267964 0.05909638 0.00472007 0.00569682 0.01135882 0.00114760 
0.04637629 0.02230318 0.01006029 0.00177786 0.00112670 0.00174079 0.01050117 0.00962844 0.01008216 0.00172274 0.00266921 0.06044766 0.00463712 0.00578092 0.01153342 0.00113007 
0.04496320 0.02183783 0.00985375 0.00172248 0.00114477 0.00175672 0.01070336 0.00970010 0.01098710 0.00171182 0.00265947 0.06183321 0.00455361 0.00586722 0.01170441 0.00111262 
0.04351638 0.02138493 0.00965230 0.00166835 0.00116253 0.00177359 0.01090194 0.00976348 0.01193419 0.00170339 0.00265059 0.06324994 0.00446985 0.00595561 0.01187163 0.00109531 
0.04204085 0.02094492 0.00945720 0.00161553 0.00117991 0.00179133 0.01109643 0.00981851 0.01292133 0.00169748 0.00264275 0.06469460 0.00438620 0.00604595 0.01203496 0.00107819 
0.04054174 0.02051812 0.00926967 0.00156411 0.00119685 0.00180981 0.01128636 0.00986511 0.01394617 0.00169410 0.00263610 0.06616378 0.00430301 0.00613811 0.01219426 0.00106134 
0.03902425 0.02010478 0.00909090 0.00151414 0.00121329 0.00182896 0.01147127 0.00990326 0.01500614 0.00169323 0.00263078 0.06765391 0.00422064 0.00623191 0.01234944 0.00104482 
0.03749364 0.01970506 0.00892203 0.00146568 0.00122917 0.00184866 0.01165069 0.00993294 0.01609844 0.00169485 0.00262692 0.06916132 0.00413949 0.00632715 0.01250039 0.00102869 
0.03595519 0.01931905 0.00876413 0.00141879 0.00124442 0.00186880 0.01182417 0.00995415 0.01722006 0.00169892 0.00262465 0.07068222 0.00405994 0.00642362 0.01264703 0.00101303 
0.03441417 0.01894677 0.00861822 0.00137350 0.00125900 0.00188929 0.01199129 0.00996693 0.01836781 0.00170539 0.00262407 0.07221274 0.00398240 0.00652107 0.01278927 0.00099790 
0.03287583 0.01858817 0.00848524 0.00132988 0.00127285 0.00191000 0.01215162 0.00997133 0.01953829 0.00171418 0.00262525 0.07374893 0.00390727 0.00661925 0.01292706 0.00098337 
0.03134535 0.01824313 0.00836605 0.00128796 0.00128591 0.00193082 0.01230475 0.00996743 0.02072795 0.00172522 0.00262829 0.07528682 0.00383496 0.00671787 0.01306032 0.00096951 
0.02982785 0.01791151 0.00826143 0.00124778 0.00129814 0.00195164 0.01245031 0.00995532 0.02193307 0.00173842 0.00263322 0.07682238 0.00376588 0.00681664 0.01318902 0.00095638 
0.02832832 0.01759311 0.00817208 0.00120938 0.00130948 0.00197235 0.01258794 0.00993514 0.02314982 0.00175367 0.00264009 0.07835160 0.00370042 0.00691525 0.01331311 0.00094406 
0.02685162 0.01728770 0.00809858 0.00117278 0.00131990 0.00199283 0.01271731 0.00990702 0.02437424 0.00177084 0.00264892 0.07987046 0.00363898 0.00701336 0.01343256 0.00093260 
0.02540247 0.01699502 0.00804145 0.00113802 0.00132935 0.00201298 0.01283811 0.00987112 0.02560226 0.00178982 0.00265973 0.08137498 0.00358196 0.00711064 0.01354734 0.00092208 
0.02398540 0.01671479 0.00800106 0.00110513 0.00133779 0.00203267 0.01295006 0.00982763 0.02682976 0.00181047 0.00267249 0.08286124 0.00352971 0.00720673 0.01365743 0.00091254 
0.02260475 0.01644673 0.00797773 0.00107412 0.00134519 0.00205181 0.01305293 0.00977674 0.02805254 0.00183265 0.00268719 0.08432536 0.00348260 0.00730128 0.01376282 0.00090405 
0.02126464 0.01619054 0.00797162 0.00104503 0.00135153 0.00207029 0.01314651 0.00971867 0.02926637 0.00185619 0.00270379 0.08576358 0.00344096 0.00739392 0.01386351 0.00089668 
0.01996896 0.01594594 0.00798282 0.00101785 0.00135678 0.00208801 0.01323062 0.00965366 0.03046701 0.00188094 0.00272222 0.08717223 0.00340513 0.00748428 0.01395949 0.00089045 
0.01872136 0.01571264 0.00801130 0.00099262 0.00136091 0.00210488 0.01330512 0.00958195 0.03165024 0.00190674 0.00274243 0.08854774 0.00337540 0.00757200 0.01405077 0.00088544 
0.01752522 0.01549038 0.00805691 0.00096933 0.00136392 0.00212079 0.01336991 0.00950381 0.03281185 0.00193341 0.00276431 0.08988672 0.00335203 0.00765669 0.01413735 0.00088168 
0.01638364 0.01527891 0.00811941 0.00094802 0.00136579 0.00213567 0.01342493 0.00941951 0.03394769 0.00196078 0.00278777 0.09118589 0.00333529 0.00773801 0.01421925 0.00087921 
0.01529945 0.01507803 0.00819845 0.00092867 0.00136652 0.00214943 0.01347016 0.00932933 0.03505369 0.00198868 0.00281269 0.09244214 0.00332539 0.00781558 0.01429650 0.00087808 
0.01427520 0.01488753 0.00829355 0.00091129 0.00136610 0.00216201 0.01350561 0.00923358 0.03612588 0.00201692 0.00283896 0.09365257 0.00332251 0.00788907 0.01436909 0.00087830 
0.01331311 0.01470727 0.00840417 0.00089590 0.00136454 0.00217332 0.01353133 0.00913255 0.03716041 0.00204534 0.00286644 0.09481442 0.00332683 0.00795814 0.01443708 0.00087991 
0.01241513 0.01453715 0.00852965 0.00088249 0.00136185 0.00218331 0.01354742 0.00902656 0.03815354 0.00207376 0.00289496 0.09592517 0.00333846 0.00802247 0.01450047 0.00088293 
0.01158289 0.01437708 0.00866923 0.00087105 0.00135805 0.00219192 0.01355401 0.00891592 0.03910173 0.00210200 0.00292439 0.09698247 0.00335751 0.00808174 0.01455931 0.00088737 
0.01081773 0.01422704 0.00882206 0.00086159 0.00135315 0.00219911 0.01355127 0.00880096 0.04000160 0.00212990 0.00295456 0.09798420 0.00338402 0.00813569 0.01461362 0.00089323 
0.01012068 0.01408706 0.00898723 0.00085410 0.00134719 0.00220483 0.01353940 0.00868199 0.04084997 0.00215729 0.00298528 0.09892846 0.00341802 0.00818404 0.01466345 0.00090053 
0.00949247 0.01395719 0.00916373 0.00084856 0.00134018 0.00220905 0.01351865 0.00855935 0.04164388 0.00218402 0.00301638 0.09981359 0.00345951 0.00822655 0.01470884 0.00090926 
0.00893355 0.01383754 0.00935047 0.00084497 0.00133216 0.00221176 0.01348928 0.00843335 0.04238058 0.00220992 0.00304768 0.10063812 0.00350843 0.00826303 0.01474982 0.00091941 
0.00844408 0.01372828 0.00954633 0.00084332 0.00132318 0.00221292 0.01345159 0.00830433 0.04305760 0.00223485 0.00307899 0.10140084 0.00356471 0.00829327 0.01478645 0.00093096 
0.00802393 0.01362961 0.00975009 0.00084359 0.00131328 0.00221253 0.01340593 0.00817260 0.04367271 0.00225868 0.00311011 0.10210076 0.00362822 0.00831713 0.01481878 0.00094389 
0.00767273 0.01354177 0.00996051 0.00084575 0.00130250 0.00221059 0.01335264 0.00803849 0.04422395 0.00228129 0.00314086 0.10273713 0.00369883 0.00833449 0.01484685 0.00095816 
0.00738984 0.01346505 0.01017629 0.00084980 0.00129090 0.00220710 0.01329212 0.00790230 0.04470965 0.00230254 0.00317104 0.10330941 0.00377635 0.00834526 0.01487071 0.00097374 
0.00717436 0.01339977 0.01039610 0.00085569 0.00127854 0.00220207 0.01322476 0.00776434 0.04512844 0.00232235 0.00320045 0.10381731 0.00386055 0.00834939 0.01489044 0.00099059 
0.00702518 0.01334629 0.01061859 0.00086342 0.00126548 0.00219554 0.01315099 0.00762492 0.04547922 0.00234060 0.00322890 0.10426076 0.00395120 0.00834686 0.01490608 0.00100865 
0.00694099 0.01330500 0.01084237 0.00087295 0.00125178 0.00218752 0.01307125 0.00748432 0.04576123 0.00235722 0.00325622 0.10463988 0.00404802 0.00833768 0.01491771 0.00102787 
0.00692025 0.01327630 0.01106607 0.00088425 0.00123750 0.00217804 0.01298597 0.00734283 0.04597399 0.00237214 0.00328221 0.10495503 0.00415070 0.00832192 0.01492539 0.00104818 
0.00696125 0.01326065 0.01128830 0.00089728 0.00122272 0.00216716 0.01289563 0.00720072 0.04611734 0.00238530 0.00330670 0.10520677 0.00425890 0.00829968 0.01492918 0.00106953 
0.00706211 0.01325849 0.01150768 0.00091201 0.00120752 0.00215491 0.01280069 0.00705827 0.04619143 0.00239665 0.00332951 0.10539586 0.00437228 0.00827107 0.01492918 0.00109182 
0.00722082 0.01327028 0.01172284 0.00092840 0.00119196 0.00214134 0.01270161 0.00691571 0.04619671 0.00240617 0.00335048 0.10552325 0.00449044 0.00823628 0.01492544 0.00111498 
0.00743520 0.01329648 0.01193243 0.00094641 0.00117612 0.00212652 0.01259885 0.00677330 0.04613396 0.00241383 0.00336946 0.10559005 0.00461298 0.00819551 0.01491807 0.00113893 
0.00770300 0.01333758 0.01213516 0.00096600 0.00116009 0.00211050 0.01249287 0.00663126 0.04600422 0.00241963 0.00338629 0.10559756 0.00473949 0.00814900 0.01490714 0.00116358 
0.00802183 0.01339402 0.01232974 0.00098712 0.00114393 0.00209336 0.01238413 0.00648982 0.04580885 0.00242357 0.00340085 0.10554725 0.00486952 0.00809704 0.01489275 0.00118882 
0.00838925 0.01346625 0.01251496 0.00100972 0.00112773 0.00207516 0.01227307 0.00634918 0.04554948 0.00242569 0.00341301 0.10544072 0.00500261 0.00803995 0.01487499 0.00121456 
0.00880275 0.01355470 0.01268964 0.00103375 0.00111158 0.00205598 0.01216012 0.00620953 0.04522800 0.00242601 0.00342266 0.10527971 0.00513831 0.00797806 0.01485397 0.00124071 
0.00925977 0.01365977 0.01285267 0.00105916 0.00109554 0.00203589 0.01204568 0.00607106 0.04484660 0.00242457 0.00342968 0.10506611 0.00527614 0.00791177 0.01482980 0.00126714 
0.00975771 0.01378184 0.01300300 0.00108591 0.00107970 0.00201498 0.01193016 0.00593394 0.04440766 0.00242144 0.00343401 0.10480189 0.00541560 0.00784148 0.01480258 0.00129376 
0.01029398 0.01392124 0.01313967 0.00111393 0.00106413 0.00199332 0.01181392 0.00579833 0.04391383 0.00241669 0.00343556 0.10448915 0.00555621 0.00776765 0.01477244 0.00132045 
0.01086597 0.01407827 0.01326179 0.00114317 0.00104892 0.00197100 0.01169731 0.00566437 0.04336797 0.00241039 0.00343428 0.10413008 0.00569747 0.00769073 0.01473951 0.00134709 
0.01147109 0.01425316 0.01336854 0.00117357 0.00103413 0.00194809 0.01158066 0.00553220 0.04277312 0.00240264 0.00343011 0.10372693 0.00583890 0.00761122 0.01470390 0.00137359 
0.01210678 0.01444611 0.01345921 0.00120508 0.00101985 0.00192469 0.01146425 0.00540193 0.04213250 0.00239354 0.00342303 0.10328205 0.00597998 0.00752964 0.01466575 0.00139982 
0.01277052 0.01465727 0.01353316 0.00123764 0.00100613 0.00190087 0.01134837 0.00527370 0.04144951 0.00238320 0.00341302 0.10279781 0.00612025 0.00744652 0.01462522 0.00142566 
0.01345984 0.01488669 0.01358987 0.00127119 0.00099304 0.00187672 0.01123325 0.00514759 0.04072766 0.00237173 0.00340007 0.10227665 0.00625921 0.00736240 0.01458244 0.00145102 
0.01417232 0.01513440 0.01362890 0.00130567 0.00098065 0.00185232 0.01111910 0.00502370 0.03997059 0.00235925 0.00338421 0.10172102 0.00639638 0.00727786 0.01453756 0.00147576 
0.01490562 0.01540033 0.01364991 0.00134104 0.00096902 0.00182775 0.01100609 0.00490212 0.03918205 0.00234590 0.00336546 0.10113343 0.00653129 0.00719348 0.01449075 0.00149979 
0.01565747 0.01568435 0.01365268 0.00137722 0.00095819 0.00180308 0.01089439 0.00478291 0.03836583 0.00233181 0.00334386 0.10051635 0.00666350 0.00710982 0.01444217 0.00152299 
0.01642571 0.01598626 0.01363707 0.00141417 0.00094823 0.00177839 0.01078410 0.00466615 0.03752579 0.00231712 0.00331948 0.09987228 0.00679256 0.00702749 0.01439199 0.00154526 
0.01720823 0.01630577 0.01360305 0.00145183 0.00093917 0.00175375 0.01067531 0.00455189 0.03666583 0.00230197 0.00329237 0.09920372 0.00691804 0.00694707 0.01434037 0.00156650 
0.01800305 0.01664252 0.01355071 0.00149015 0.00093105 0.00172923 0.01056810 0.00444020 0.03578985 0.00228649 0.00326263 0.09851311 0.00703953 0.00686915 0.01428750 0.00158661 
0.01880825 0.01699607 0.01348022 0.00152907 0.00092392 0.00170490 0.01046248 0.00433110 0.03490171 0.00227085 0.00323035 0.09780290 0.00715664 0.00679431 0.01423355 0.00160550 
0.01962205 0.01736592 0.01339185 0.00156856 0.00091779 0.00168081 0.01035846 0.00422466 0.03400528 0.00225517 0.00319565 0.09707548 0.00726899 0.00672312 0.01417871 0.00162307 
0.02044275 0.01775146 0.01328600 0.00160856 0.00091270 0.00165702 0.01025604 0.00412090 0.03310433 0.00223960 0.00315864 0.09633320 0.00737623 0.00665615 0.01412316 0.00163925 
0.02126875 0.01815201 0.01316312 0.00164902 0.00090865 0.00163358 0.01015516 0.00401986 0.03220259 0.00222429 0.00311946 0.09557836 0.00747804 0.00659394 0.01406709 0.00165396 
0.02209855 0.01856684 0.01302379 0.00168992 0.00090567 0.00161055 0.01005577 0.00392157 0.03130365 0.00220936 0.00307826 0.09481320 0.00757410 0.00653702 0.01401068 0.00166713 
0.02293076 0.01899511 0.01286867 0.00173120 0.00090376 0.00158797 0.00995779 0.00382606 0.03041104 0.00219495 0.00303519 0.09403987 0.00766412 0.00648591 0.01395413 0.00167869 
0.02376408 0.01943592 0.01269849 0.00177283 0.00090291 0.00156587 0.00986112 0.00373335 0.02952810 0.00218118 0.00299042 0.09326048 0.00774786 0.00644107 0.01389761 0.00168858 
0.02459730 0.01988831 0.01251408 0.00181478 0.00090312 0.00154429 0.00976565 0.00364346 0.02865807 0.00216818 0.00294410 0.09247705 0.00782508 0.00640298 0.01384131 0.00169676 
0.02542931 0.02035124 0.01231633 0.00185702 0.00090438 0.00152325 0.00967127 0.00355643 0.02780400 0.00215606 0.00289644 0.09169151 0.00789556 0.00637206 0.01378541 0.00170319 
0.02625907 0.02082361 0.01210622 0.00189951 0.00090666 0.00150280 0.00957785 0.00347226 0.02696876 0.00214492 0.00284760 0.09090572 0.00795912 0.00634870 0.01373008 0.00170782 
0.02708563 0.02130427 0.01188478 0.00194225 0.00090995 0.00148293 0.00948525 0.00339100 0.02615505 0.00213487 0.00279778 0.09012143 0.00801561 0.00633326 0.01367550 0.00171064 
0.02790811 0.02179200 0.01165310 0.00198520 0.00091421 0.00146368 0.00939335 0.00331265 0.02536534 0.00212598 0.00274718 0.08934032 0.00806490 0.00632606 0.01362182 0.00171162 
0.02872572 0.02228555 0.01141232 0.00202835 0.00091940 0.00144504 0.00930202 0.00323724 0.02460192 0.00211834 0.00269599 0.08856396 0.00810689 0.00632739 0.01356920 0.00171076 
0.02953770 0.02278360 0.01116363 0.00207167 0.00092549 0.00142704 0.00921111 0.00316481 0.02386685 0.00211202 0.00264441 0.08779385 0.00814151 0.00633750 0.01351779 0.00170805 
0.03034336 0.02328481 0.01090827 0.00211517 0.00093243 0.00140967 0.00912053 0.00309536 0.02316195 0.00210706 0.00259265 0.08703137 0.00816870 0.00635657 0.01346772 0.00170349 
0.03114208 0.02378780 0.01064749 0.00215881 0.00094016 0.00139293 0.00903014 0.00302894 0.02248883 0.00210353 0.00254091 0.08627782 0.00818845 0.00638476 0.01341912 0.00169711 
0.03193327 0.02429117 0.01038258 0.00220261 0.00094863 0.00137681 0.00893986 0.00296557 0.02184887 0.00210145 0.00248939 0.08553443 0.00820076 0.00642218 0.01337210 0.00168892 
0.03271636 0.02479349 0.01011484 0.00224654 0.00095778 0.00136132 0.00884960 0.00290529 0.02124321 0.00210084 0.00243829 0.08480229 0.00820567 0.00646890 0.01332676 0.00167896 
0.03349085 0.02529331 0.00984559 0.00229060 0.00096754 0.00134644 0.00875930 0.00284812 0.02067275 0.00210172 0.00238780 0.08408244 0.00820325 0.00652492 0.01328319 0.00166727 
0.03425624 0.02578918 0.00957615 0.00233478 0.00097785 0.00133216 0.00866890 0.00279410 0.02013817 0.00210409 0.00233813 0.08337584 0.00819357 0.00659021 0.01324145 0.00165388 
0.03501207 0.02627965 0.00930782 0.00237908 0.00098864 0.00131846 0.00857837 0.00274326 0.01963991 0.00210793 0.00228945 0.08268334 0.00817675 0.00666470 0.01320160 0.00163886 
0.03575789 0.02676328 0.00904192 0.00242349 0.00099983 0.00130532 0.00848772 0.00269565 0.01917821 0.00211323 0.00224195 0.08200573 0.00815294 0.00674824 0.01316369 0.00162227 
0.03649325 0.02723862 0.00877972 0.00246800 0.00101135 0.00129274 0.00839696 0.00265130 0.01875307 0.00211994 0.00219581 0.08134374 0.00812230 0.00684066 0.01312773 0.00160417 
0.03721772 0.02770425 0.00852248 0.00251261 0.00102312 0.00128069 0.00830613 0.00261025 0.01836428 0.00212802 0.00215120 0.08069801 0.00808501 0.00694174 0.01309372 0.00158464 
0.03793088 0.02815878 0.00827143 0.00255730 0.00103507 0.00126915 0.00821530 0.00257254 0.01801145 0.00213741 0.00210827 0.08006913 0.00804129 0.00705119 0.01306167 0.00156376 
0.03863230 0.02860084 0.00802776 0.00260207 0.00104711 0.00125810 0.00812457 0.00253820 0.01769399 0.00214806 0.00206719 0.07945763 0.00799139 0.00716870 0.01303153 0.00154162 
0.03932156 0.02902910 0.00779262 0.00264690 0.00105918 0.00124751 0.00803406 0.00250729 0.01741112 0.00215988 0.00202809 0.07886401 0.00793555 0.00729390 0.01300326 0.00151831 
0.03999821 0.02944229 0.00756709 0.00269177 0.00107118 0.00123738 0.00794391 0.00247983 0.01716190 0.00217279 0.00199111 0.07828870 0.00787407 0.00742639 0.01297680 0.00149394 
0.04066182 0.02983916 0.00735221 0.00273666 0.00108305 0.00122767 0.00785430 0.00245587 0.01694526 0.00218669 0.00195638 0.07773212 0.00780724 0.00756571 0.01295207 0.00146859 
0.04131195 0.03021854 0.00714897 0.00278155 0.00109472 0.00121837 0.00776542 0.00243544 0.01675994 0.00220150 0.00192399 0.07719465 0.00773538 0.00771137 0.01292898 0.00144238 
0.04194814 0.03057932 0.00695827 0.00282640 0.00110610 0.00120947 0.00767750 0.00241858 0.01660460 0.00221709 0.00189406 0.07667664 0.00765885 0.00786286 0.01290742 0.00141543 
0.04256991 0.03092043 0.00678094 0.00287118 0.00111713 0.00120093 0.00759078 0.00240532 0.01647776 0.00223336 0.00186668 0.07617845 0.00757801 0.00801961 0.01288726 0.00138784 
0.04317681 0.03124092 0.00661776 0.00291585 0.00112776 0.00119276 0.00750552 0.00239569 0.01637785 0.00225019 0.00184191 0.07570042 0.00749323 0.00818102 0.01286837 0.00135973 
0.04376834 0.03153987 0.00646941 0.00296037 0.00113790 0.00118493 0.00742201 0.00238972 0.01630325 0.00226746 0.00181984 0.07524289 0.00740490 0.00834647 0.01285062 0.00133123 
0.04434402 0.03181648 0.00633648 0.00300468 0.00114752 0.00117744 0.00734054 0.00238743 0.01625222 0.00228504 0.00180050 0.07480622 0.00731344 0.00851533 0.01283383 0.00130245 
0.04490334 0.03207001 0.00621951 0.00304872 0.00115655 0.00117027 0.00726144 0.00238884 0.01622301 0.00230282 0.00178394 0.07439079 0.00721927 0.00868691 0.01281786 0.00127351 
0.04544581 0.03229982 0.00611891 0.00309243 0.00116494 0.00116342 0.00718502 0.00239397 0.01621384 0.00232065 0.00177018 0.07399698 0.00712283 0.00886054 0.01280253 0.00124455 
0.04597091 0.03250539 0.00603504 0.00313574 0.00117267 0.00115689 0.00711162 0.00240282 0.01622288 0.00233841 0.00175925 0.07362523 0.00702456 0.00903549 0.01278768 0.00121568 
0.04647814 0.03268625 0.00596814 0.00317857 0.00117969 0.00115067 0.00704158 0.00241540 0.01624832 0.00235597 0.00175114 0.07327601 0.00692492 0.00921107 0.01277313 0.00118703 
0.04696700 0.03284208 0.00591838 0.00322083 0.00118597 0.00114476 0.00697524 0.00243172 0.01628837 0.00237321 0.00174585 0.07294981 0.00682437 0.00938655 0.01275872 0.00115872 
0.04743697 0.03297264 0.00588583 0.00326244 0.00119150 0.00113918 0.00691295 0.00245175 0.01634125 0.00239001 0.00174336 0.07264719 0.00672339 0.00956119 0.01274428 0.00113088 
0.04788755 0.03307780 0.00587046 0.00330330 0.00119625 0.00113391 0.00685505 0.00247550 0.01640521 0.00240623 0.00174363 0.07236878 0.00662244 0.00973427 0.01272965 0.00110362 
0.04831826 0.03315754 0.00587217 0.00334331 0.00120022 0.00112898 0.00680186 0.00250294 0.01647857 0.00242178 0.00174662 0.07211522 0.00652200 0.00990508 0.01271468 0.00107706 
0.04872860 0.03321195 0.00589076 0.00338235 0.00120342 0.00112440 0.00675372 0.00253405 0.01655972 0.00243653 0.00175227 0.07188726 0.00642255 0.01007288 0.01269922 0.00105133 
0.04911810 0.03324125 0.00592594 0.00342033 0.00120584 0.00112017 0.00671093 0.00256879 0.01664710 0.00245039 0.00176053 0.07168568 0.00632456 0.01023699 0.01268316 0.00102653 
0.04948631 0.03324575 0.00597734 0.00345711 0.00120751 0.00111632 0.00667378 0.00260713 0.01673925 0.00246325 0.00177132 0.07151135 0.00622852 0.01039672 0.01266638 0.00100277 
0.04983277 0.03322588 0.00604451 0.00349257 0.00120845 0.00111286 0.00664255 0.00264901 0.01683480 0.00247503 0.00178455 0.07136520 0.00613487 0.01055140 0.01264879 0.00098016 
0.05015706 0.03318219 0.00612692 0.00352660 0.00120868 0.00110981 0.00661748 0.00269439 0.01693248 0.00248564 0.00180013 0.07124822 0.00604409 0.01070039 0.01263033 0.00095881 
0.05045877 0.03311534 0.00622397 0.00355907 0.00120825 0.00110719 0.00659881 0.00274320 0.01703114 0.00249501 0.00181797 0.07116147 0.00595661 0.01084308 0.01261094 0.00093880 
0.05073752 0.03302611 0.00633496 0.00358984 0.00120720 0.00110503 0.00658673 0.00279538 0.01712972 0.00250308 0.00183795 0.07110609 0.00587289 0.01097890 0.01259061 0.00092024 
0.05099293 0.03291538 0.00645917 0.00361879 0.00120559 0.00110335 0.00658139 0.00285085 0.01722730 0.00250979 0.00185997 0.07108326 0.00579335 0.01110729 0.01256934 0.00090321 
0.05122465 0.03278413 0.00659579 0.00364578 0.00120348 0.00110217 0.00658295 0.00290952 0.01732306 0.00251509 0.00188390 0.07109423 0.00571839 0.01122776 0.01254717 0.00088779 
0.05143238 0.03263348 0.00674395 0.00367069 0.00120092 0.00110152 0.00659148 0.00297131 0.01741632 0.00251897 0.00190961 0.07114031 0.00564840 0.01133983 0.01252416 0.00087405 
0.05161579 0.03246461 0.00690274 0.00369339 0.00119800 0.00110143 0.00660706 0.00303613 0.01750653 0.00252138 0.00193698 0.07122286 0.00558376 0.01144310 0.01250043 0.00086208 
0.05177463 0.03227884 0.00707120 0.00371376 0.00119480 0.00110191 0.00662970 0.00310386 0.01759323 0.00252232 0.00196588 0.07134326 0.00552480 0.01153720 0.01247609 0.00085192 
0.05190863 0.03207757 0.00724833 0.00373168 0.00119139 0.00110300 0.00665939 0.00317440 0.01767611 0.00252179 0.00199616 0.07150295 0.00547187 0.01162181 0.01245132 0.00084364 
0.05201756 0.03186229 0.00743311 0.00374703 0.00118788 0.00110472 0.00669607 0.00324764 0.01775498 0.00251979 0.00202769 0.07170337 0.00542524 0.01169666 0.01242632 0.00083728 
0.05210121 0.03163457 0.00762447 0.00375971 0.00118434 0.00110708 0.00673963 0.00332345 0.01782975 0.00251635 0.00206032 0.07194600 0.00538520 0.01176154 0.01240133 0.00083290 
0.05215940 0.03139607 0.00782134 0.00376961 0.00118088 0.00111012 0.00678994 0.00340170 0.01790045 0.00251150 0.00209392 0.07223230 0.00535197 0.01181630 0.01237662 0.00083051 
0.05219195 0.03114855 0.00802262 0.00377664 0.00117761 0.00111385 0.00684682 0.00348227 0.01796721 0.00250527 0.00212834 0.07256374 0.00532577 0.01186085 0.01235249 0.00083016 
0.05219873 0.03089380 0.00822722 0.00378072 0.00117461 0.00111829 0.00691003 0.00356501 0.01803026 0.00249771 0.00216344 0.07294175 0.00530677 0.01189515 0.01232930 0.00083185 
0.05217960 0.03063369 0.00843404 0.00378178 0.00117201 0.00112345 0.00697933 0.00364977 0.01808992 0.00248889 0.00219908 0.07336774 0.00529510 0.01191921 0.01230740 0.00083561 
0.05213445 0.03037016 0.00864198 0.00377975 0.00116989 0.00112935 0.00705440 0.00373642 0.01814661 0.00247886 0.00223512 0.07384306 0.00529088 0.01193312 0.01228720 0.00084143 
0.05206320 0.03010519 0.00884998 0.00377459 0.00116838 0.00113600 0.00713490 0.00382480 0.01820079 0.00246772 0.00227142 0.07436901 0.00529416 0.01193701 0.01226914 0.00084930 
0.05196576 0.02984078 0.00905696 0.00376626 0.00116758 0.00114339 0.00722047 0.00391475 0.01825301 0.00245554 0.00230784 0.07494679 0.00530497 0.01193109 0.01225368 0.00085922 
0.05184207 0.02957899 0.00926191 0.00375473 0.00116758 0.00115154 0.00731069 0.00400612 0.01830388 0.00244242 0.00234427 0.07557753 0.00532330 0.01191561 0.01224128 0.00087117 
0.05169209 0.02932190 0.00946381 0.00374000 0.00116850 0.00116045 0.00740511 0.00409873 0.01835403 0.00242844 0.00238056 0.07626222 0.00534909 0.01189088 0.01223246 0.00088511 
0.05151578 0.02907160 0.00966172 0.00372208 0.00117044 0.00117010 0.00750328 0.00419243 0.01840416 0.00241372 0.00241659 0.07700173 0.00538225 0.01185725 0.01222774 0.00090101 
0.05131313 0.02883018 0.00985472 0.00370098 0.00117349 0.00118049 0.00760469 0.00428704 0.01845496 0.00239837 0.00245225 0.07779680 0.00542265 0.01181515 0.01222764 0.00091882 
0.05108413 0.02859974 0.01004194 0.00367676 0.00117774 0.00119161 0.00770882 0.00438239 0.01850716 0.00238248 0.00248742 0.07864799 0.00547012 0.01176504 0.01223271 0.00093849 
0.05082880 0.02838235 0.01022258 0.00364945 0.00118329 0.00120344 0.00781515 0.00447831 0.01856148 0.00236619 0.00252200 0.07955568 0.00552443 0.01170742 0.01224350 0.00095995 
0.05054715 0.02818007 0.01039588 0.00361914 0.00119020 0.00121596 0.00792310 0.00457462 0.01861865 0.00234961 0.00255588 0.08052008 0.00558533 0.01164286 0.01226056 0.00098314 
0.05023923 0.02799491 0.01056117 0.00358590 0.00119857 0.00122914 0.00803212 0.00467114 0.01867936 0.00233285 0.00258896 0.08154116 0.00565254 0.01157193 0.01228443 0.00100797 
0.04990510 0.02782886 0.01071783 0.00354985 0.00120846 0.00124296 0.00814163 0.00476769 0.01874430 0.00231603 0.00262116 0.08261868 0.00572571 0.01149527 0.01231564 0.00103437 
0.04954483 0.02768383 0.01086532 0.00351110 0.00121993 0.00125738 0.00825105 0.00486411 0.01881412 0.00229928 0.00265239 0.08375216 0.00580448 0.01141353 0.01235472 0.00106223 
0.04915854 0.02756167 0.01100319 0.00346979 0.00123303 0.00127237 0.00835979 0.00496019 0.01888940 0.00228271 0.00268258 0.08494085 0.00588845 0.01132739 0.01240217 0.00109147 
0.04874633 0.02746418 0.01113104 0.00342607 0.00124781 0.00128788 0.00846727 0.00505577 0.01897070 0.00226644 0.00271164 0.08618377 0.00597717 0.01123756 0.01245847 0.00112197 
0.04830836 0.02739304 0.01124857 0.00338010 0.00126431 0.00130388 0.00857293 0.00515067 0.01905851 0.00225057 0.00273953 0.08747963 0.00607018 0.01114477 0.01252407 0.00115362 
0.04784481 0.02734984 0.01135556 0.00333207 0.00128254 0.00132031 0.00867620 0.00524470 0.01915326 0.00223522 0.00276617 0.08882687 0.00616697 0.01104973 0.01259938 0.00118629 
0.04735590 0.02733608 0.01145188 0.00328216 0.00130252 0.00133713 0.00877654 0.00533768 0.01925530 0.00222049 0.00279153 0.09022362 0.00626702 0.01095320 0.01268478 0.00121988 
0.04684189 0.02735312 0.01153747 0.00323059 0.00132426 0.00135429 0.00887341 0.00542945 0.01936491 0.00220648 0.00281556 0.09166774 0.00636978 0.01085590 0.01278060 0.00125424 
0.04630305 0.02740222 0.01161236 0.00317756 0.00134776 0.00137172 0.00896630 0.00551981 0.01948228 0.00219328 0.00283822 0.09315675 0.00647466 0.01075858 0.01288712 0.00128923 
0.04573976 0.02748447 0.01167668 0.00312330 0.00137299 0.00138939 0.00905475 0.00560859 0.01960753 0.00218097 0.00285948 0.09468788 0.00658107 0.01066197 0.01300457 0.00132473 
0.04515239 0.02760086 0.01173063 0.00306805 0.00139993 0.00140722 0.00913829 0.00569563 0.01974069 0.00216964 0.00287932 0.09625803 0.00668841 0.01056678 0.01313311 0.00136059 
0.04454142 0.02775218 0.01177448 0.00301206 0.00142854 0.00142516 0.00921650 0.00578075 0.01988168 0.00215936 0.00289772 0.09786382 0.00679605 0.01047369 0.01327286 0.00139665 
0.04390735 0.02793909 0.01180860 0.00295556 0.00145877 0.00144315 0.00928900 0.00586378 0.02003037 0.00215019 0.00291468 0.09950153 0.00690334 0.01038338 0.01342386 0.00143277 
0.04325080 0.02816207 0.01183343 0.00289883 0.00149057 0.00146114 0.00935545 0.00594456 0.02018652 0.00214218 0.00293019 0.10116717 0.00700966 0.01029648 0.01358607 0.00146880 
0.04257243 0.02842143 0.01184948 0.00284210 0.00152386 0.00147906 0.00941554 0.00602293 0.02034979 0.00213539 0.00294425 0.10285642 0.00711436 0.01021360 0.01375940 0.00150459 
0.04187300 0.02871729 0.01185733 0.00278565 0.00155856 0.00149686 0.00946901 0.00609872 0.02051980 0.00212984 0.00295687 0.10456470 0.00721680 0.01013530 0.01394367 0.00153997 
0.04115334 0.02904960 0.01185763 0.00272973 0.00159459 0.00151449 0.00951563 0.00617179 0.02069603 0.00212557 0.00296806 0.10628714 0.00731634 0.01006211 0.01413862 0.00157479 
0.04041441 0.02941809 0.01185108 0.00267460 0.00163183 0.00153190 0.00955524 0.00624198 0.02087794 0.00212259 0.00297785 0.10801863 0.00741234 0.00999450 0.01434393 0.00160891 
0.03965725 0.02982234 0.01183845 0.00262052 0.00167019 0.00154902 0.00958771 0.00630916 0.02106488 0.00212092 0.00298626 0.10975380 0.00750420 0.00993289 0.01455920 0.00164216 
0.03888300 0.03026170 0.01182054 0.00256773 0.00170954 0.00156582 0.00961297 0.00637317 0.02125614 0.00212055 0.00299333 0.11148705 0.00759132 0.00987766 0.01478392 0.00167439 
0.03809294 0.03073532 0.01179823 0.00251648 0.00174976 0.00158226 0.00963100 0.00643390 0.02145097 0.00212148 0.00299909 0.11321259 0.00767310 0.00982911 0.01501754 0.00170546 
0.03728846 0.03124218 0.01177239 0.00246701 0.00179072 0.00159828 0.00964181 0.00649121 0.02164854 0.00212368 0.00300357 0.11492443 0.00774899 0.00978751 0.01525941 0.00173522 
0.03647106 0.03178103 0.01174396 0.00241955 0.00183227 0.00161387 0.00964548 0.00654499 0.02184800 0.00212714 0.00300683 0.11661645 0.00781847 0.00975306 0.01550880 0.00176353 
0.03564239 0.03235045 0.01171388 0.00237431 0.00187426 0.00162898 0.00964215 0.00659511 0.02204843 0.00213182 0.00300892 0.11828238 0.00788102 0.00972587 0.01576493 0.00179025 
0.03480423 0.03294881 0.01168313 0.00233150 0.00191655 0.00164360 0.00963197 0.00664147 0.02224892 0.00213767 0.00300989 0.11991584 0.00793619 0.00970603 0.01602692 0.00181526 
0.03395849 0.03357430 0.01165267 0.00229131 0.00195898 0.00165770 0.00961517 0.00668398 0.02244850 0.00214466 0.00300981 0.12151039 0.00798353 0.00969355 0.01629383 0.00183841 
0.03310722 0.03422492 0.01162349 0.00225392 0.00200139 0.00167128 0.00959203 0.00672255 0.02264622 0.00215272 0.00300872 0.12305955 0.00802267 0.00968836 0.01656468 0.00185961 
0.03225262 0.03489850 0.01159656 0.00221948 0.00204362 0.00168432 0.00956285 0.00675708 0.02284111 0.00216178 0.00300671 0.12455682 0.00805325 0.00969035 0.01683839 0.00187873 
0.03139704 0.03559268 0.01157284 0.00218814 0.00208550 0.00169682 0.00952799 0.00678751 0.02303221 0.00217179 0.00300384 0.12599575 0.00807496 0.00969934 0.01711385 0.00189568 
0.03054297 0.03630497 0.01155327 0.00216003 0.00212686 0.00170880 0.00948785 0.00681378 0.02321857 0.00218268 0.00300018 0.12736992 0.00808755 0.00971510 0.01738990 0.00191036 
0.02969304 0.03703271 0.01153878 0.00213525 0.00216754 0.00172026 0.00944288 0.00683582 0.02339927 0.00219435 0.00299582 0.12867303 0.00809081 0.00973733 0.01766533 0.00192269 
0.02885004 0.03777308 0.01153023 0.00211389 0.00220738 0.00173122 0.00939354 0.00685359 0.02357344 0.00220673 0.00299082 0.12989889 0.00808458 0.00976567 0.01793890 0.00193259 
0.02801688 0.03852317 0.01152847 0.00209603 0.00224620 0.00174172 0.00934034 0.00686706 0.02374021 0.00221975 0.00298528 0.13104152 0.00806876 0.00979973 0.01820933 0.00194001 
0.02719662 0.03927992 0.01153429 0.00208169 0.00228386 0.00175178 0.00928382 0.00687619 0.02389881 0.00223330 0.00297928 0.13209510 0.00804331 0.00983906 0.01847534 0.00194490 
0.02639247 0.04004019 0.01154843 0.00207092 0.00232018 0.00176144 0.00922456 0.00688098 0.02404849 0.00224730 0.00297291 0.13305409 0.00800821 0.00988316 0.01873560 0.00194721 
0.02560776 0.04080075 0.01157156 0.00206372 0.00235503 0.00177076 0.00916313 0.00688142 0.02418857 0.00226166 0.00296624 0.13391321 0.00796353 0.00993149 0.01898881 0.00194692 
0.02484592 0.04155829 0.01160428 0.00206007 0.00238824 0.00177978 0.00910016 0.00687751 0.02431847 0.00227630 0.00295939 0.13466750 0.00790939 0.00998349 0.01923366 0.00194401 
0.02411054 0.04230944 0.01164715 0.00205993 0.00241968 0.00178856 0.00903627 0.00686927 0.02443764 0.00229111 0.00295243 0.13531235 0.00784595 0.01003856 0.01946884 0.00193848 
0.02340529 0.04305082 0.01170061 0.00206325 0.00244921 0.00179717 0.00897210 0.00685673 0.02454567 0.00230602 0.00294546 0.13584355 0.00777344 0.01009607 0.01969308 0.00193035 
0.02273393 0.04377899 0.01176504 0.00206995 0.00247671 0.00180568 0.00890831 0.00683992 0.02464218 0.00232092 0.00293858 0.13625729 0.00769213 0.01015537 0.01990511 0.00191963 
0.02210035 0.04449055 0.01184073 0.00207993 0.00250205 0.00181415 0.00884556 0.00681890 0.02472692 0.00233574 0.00293189 0.13655022 0.00760235 0.01021582 0.02010374 0.00190637 
0.02150846 0.04518210 0.01192789 0.00209307 0.00252511 0.00182268 0.00878451 0.00679371 0.02479972 0.00235040 0.00292547 0.13671946 0.00750447 0.01027674 0.02028778 0.00189061 
0.02096228 0.04585026 0.01202662 0.00210924 0.00254581 0.00183134 0.00872581 0.00676445 0.02486051 0.00236480 0.00291943 0.13676265 0.00739894 0.01033747 0.02045613 0.00187243 
0.02046585 0.04649173 0.01213695 0.00212828 0.00256405 0.00184022 0.00867012 0.00673117 0.02490931 0.00237887 0.00291386 0.13667796 0.00728622 0.01039733 0.02060773 0.00185189 
0.02002325 0.04710327 0.01225878 0.00215003 0.00257973 0.00184940 0.00861810 0.00669399 0.02494625 0.00239254 0.00290887 0.13646410 0.00716682 0.01045569 0.02074161 0.00182908 
0.01963857 0.04768174 0.01239195 0.00217430 0.00259280 0.00185898 0.00857037 0.00665300 0.02497155 0.00240574 0.00290453 0.13612038 0.00704133 0.01051190 0.02085686 0.00180411 
0.01931592 0.04822412 0.01253618 0.00220090 0.00260319 0.00186905 0.00852755 0.00660832 0.02498552 0.00241840 0.00290096 0.13564670 0.00691032 0.01056534 0.02095268 0.00177709 
0.01905937 0.04872750 0.01269110 0.00222960 0.00261084 0.00187969 0.00849025 0.00656006 0.02498857 0.00243046 0.00289824 0.13504355 0.00677443 0.01061542 0.02102835 0.00174815 
0.01887296 0.04918914 0.01285624 0.00226019 0.00261573 0.00189100 0.00845904 0.00650838 0.02498120 0.00244187 0.00289647 0.13431207 0.00663433 0.01066160 0.02108324 0.00171742 
0.01876068 0.04960645 0.01303103 0.00229244 0.00261782 0.00190308 0.00843448 0.00645340 0.02496400 0.00245257 0.00289573 0.13345403 0.00649072 0.01070335 0.02111685 0.00168506 
0.01872642 0.04997703 0.01321483 0.00232611 0.00261709 0.00191600 0.00841710 0.00639529 0.02493764 0.00246252 0.00289612 0.13247182 0.00634429 0.01074021 0.02112879 0.00165120 
0.01877401 0.05029869 0.01340689 0.00236094 0.00261355 0.00192986 0.00840739 0.00633421 0.02490287 0.00247169 0.00289772 0.13136849 0.00619580 0.01077173 0.02111876 0.00161603 
0.01890712 0.05056943 0.01360639 0.00239668 0.00260719 0.00194473 0.00840582 0.00627034 0.02486049 0.00248003 0.00290061 0.13014772 0.00604598 0.01079756 0.02108662 0.00157972 
0.01912929 0.05078749 0.01381241 0.00243309 0.00259804 0.00196070 0.00841282 0.00620385 0.02481140 0.00248752 0.00290488 0.12881384 0.00589560 0.01081737 0.02103232 0.00154244 
0.01944392 0.05095134 0.01402397 0.00246990 0.00258612 0.00197783 0.00842879 0.00613494 0.02475652 0.00249413 0.00291059 0.12737179 0.00574542 0.01083091 0.02095597 0.00150438 
0.01985419 0.05105972 0.01424001 0.00250685 0.00257148 0.00199620 0.00845409 0.00606380 0.02469685 0.00249986 0.00291782 0.12582714 0.00559621 0.01083798 0.02085779 0.00146573 
0.02036309 0.05111160 0.01445942 0.00254369 0.00255416 0.00201587 0.00848903 0.00599064 0.02463341 0.00250468 0.00292664 0.12418608 0.00544872 0.01083845 0.02073813 0.00142670 
0.02097337 0.05110624 0.01468100 0.00258017 0.00253421 0.00203688 0.00853389 0.00591568 0.02456726 0.00250858 0.00293711 0.12245536 0.00530372 0.01083226 0.02059749 0.00138748 
0.02168755 0.05104316 0.01490354 0.00261604 0.00251172 0.00205929 0.00858891 0.00583914 0.02449948 0.00251158 0.00294929 0.12064230 0.00516193 0.01081941 0.02043646 0.00134827 
0.02250786 0.05092217 0.01512574 0.00265106 0.00248676 0.00208313 0.00865429 0.00576124 0.02443118 0.00251366 0.00296323 0.11875477 0.00502408 0.01079997 0.02025582 0.00130928 
0.02343622 0.05074336 0.01534631 0.00268500 0.00245942 0.00210843 0.00873018 0.00568222 0.02436346 0.00251485 0.00297897 0.11680114 0.00489087 0.01077409 0.02005641 0.00127071 
0.02447426 0.05050708 0.01556389 0.00271763 0.00242979 0.00213522 0.00881668 0.00560231 0.02429741 0.00251514 0.00299656 0.11479027 0.00476297 0.01074198 0.01983925 0.00123275 
0.02562327 0.05021400 0.01577713 0.00274875 0.00239797 0.00216349 0.00891388 0.00552177 0.02423413 0.00251456 0.00301604 0.11273146 0.00464101 0.01070391 0.01960546 0.00119561 
0.02688418 0.04986504 0.01598464 0.00277815 0.00236408 0.00219326 0.00902179 0.00544082 0.02417468 0.00251313 0.00303743 0.11063440 0.00452562 0.01066024 0.01935625 0.00115947 
0.02825756 0.04946142 0.01618506 0.00280565 0.00232822 0.00222450 0.00914041 0.00535974 0.02412011 0.00251086 0.00306074 0.10850918 0.00441734 0.01061138 0.01909297 0.00112454 
0.02974358 0.04900462 0.01637700 0.00283109 0.00229053 0.00225721 0.00926967 0.00527877 0.02407140 0.00250780 0.00308601 0.10636617 0.00431671 0.01055779 0.01881706 0.00109099 
0.03134201 0.04849638 0.01655911 0.00285430 0.00225113 0.00229134 0.00940948 0.00519816 0.02402952 0.00250397 0.00311323 0.10421605 0.00422421 0.01050000 0.01853007 0.00105900 
0.03305222 0.04793869 0.01673005 0.00287515 0.00221015 0.00232685 0.00955970 0.00511818 0.02399536 0.00249939 0.00314239 0.10206970 0.00414025 0.01043861 0.01823361 0.00102874 
0.03487314 0.04733382 0.01688850 0.00289352 0.00216773 0.00236368 0.00972017 0.00503909 0.02396976 0.00249412 0.00317351 0.09993821 0.00406521 0.01037424 0.01792939 0.00100036 
0.03680326 0.04668422 0.01703322 0.00290931 0.00212401 0.00240178 0.00989067 0.00496114 0.02395348 0.00248818 0.00320655 0.09783276 0.00399942 0.01030758 0.01761918 0.00097401 
0.03884062 0.04599261 0.01716296 0.00292243 0.00207912 0.00244106 0.01007095 0.00488460 0.02394723 0.00248162 0.00324149 0.09576460 0.00394314 0.01023935 0.01730481 0.00094983 
0.04098283 0.04526187 0.01727657 0.00293284 0.00203321 0.00248144 0.01026075 0.00480971 0.02395163 0.00247447 0.00327830 0.09374502 0.00389658 0.01017031 0.01698817 0.00092795 
0.04322702 0.04449511 0.01737295 0.00294047 0.00198643 0.00252281 0.01045974 0.00473675 0.02396719 0.00246679 0.00331695 0.09178524 0.00385988 0.01010125 0.01667117 0.00090847 
0.04556988 0.04369557 0.01745107 0.00294532 0.00193892 0.00256508 0.01066758 0.00466596 0.02399438 0.00245860 0.00335737 0.08989640 0.00383312 0.01003296 0.01635576 0.00089149 
0.04800762 0.04286668 0.01750997 0.00294737 0.00189083 0.00260812 0.01088391 0.00459759 0.02403355 0.00244997 0.00339951 0.08808945 0.00381634 0.00996630 0.01604389 0.00087711 
0.05053600 0.04201197 0.01754878 0.00294665 0.00184231 0.00265180 0.01110833 0.00453189 0.02408496 0.00244092 0.00344332 0.08637514 0.00380950 0.00990208 0.01573753 0.00086539 
0.05315034 0.04113512 0.01756673 0.00294319 0.00179349 0.00269600 0.01134041 0.00446910 0.02414877 0.00243151 0.00348870 0.08476394 0.00381250 0.00984115 0.01543863 0.00085637 
0.05584550 0.04023985 0.01756313 0.00293705 0.00174452 0.00274056 0.01157972 0.00440946 0.02422506 0.00242178 0.00353558 0.08326600 0.00382518 0.00978435 0.01514913 0.00085011 
0.05861590 0.03933001 0.01753739 0.00292831 0.00169555 0.00278534 0.01182577 0.00435318 0.02431382 0.00241178 0.00358388 0.08189104 0.00384732 0.00973250 0.01487092 0.00084663 
0.06145555 0.03840946 0.01748903 0.00291705 0.00164671 0.00283018 0.01207809 0.00430050 0.02441491 0.00240154 0.00363348 0.08064836 0.00387865 0.00968642 0.01460586 0.00084593 
0.06435803 0.03748210 0.01741768 0.00290340 0.00159813 0.00287492 0.01233616 0.00425162 0.02452814 0.00239112 0.00368428 0.07954675 0.00391883 0.00964689 0.01435573 0.00084801 
0.06731654 0.03655183 0.01732307 0.00288748 0.00154996 0.00291939 0.01259947 0.00420675 0.02465321 0.00238054 0.00373617 0.07859445 0.00396749 0.00961466 0.01412228 0.00085284 
0.07032389 0.03562255 0.01720507 0.00286943 0.00150232 0.00296341 0.01286748 0.00416606 0.02478974 0.00236986 0.00378903 0.07779906 0.00402418 0.00959046 0.01390715 0.00086038 
0.07337255 0.03469810 0.01706362 0.00284942 0.00145534 0.00300682 0.01313964 0.00412976 0.02493725 0.00235911 0.00384272 0.07716757 0.00408842 0.00957494 0.01371188 0.00087058 
0.07645465 0.03378227 0.01689881 0.00282762 0.00140913 0.00304943 0.01341539 0.00409800 0.02509520 0.00234833 0.00389711 0.07670624 0.00415967 0.00956874 0.01353794 0.00088337 
0.07956200 0.03287877 0.01671083 0.00280421 0.00136382 0.00309107 0.01369416 0.00407093 0.02526297 0.00233755 0.00395205 0.07642060 0.00423738 0.00957241 0.01338666 0.00089867 
0.08268614 0.03199122 0.01650000 0.00277940 0.00131951 0.00313156 0.01397536 0.00404870 0.02543989 0.00232681 0.00400739 0.07631538 0.00432091 0.00958647 0.01325926 0.00091638 
0.08581837 0.03112310 0.01626672 0.00275339 0.00127631 0.00317072 0.01425841 0.00403144 0.02562520 0.00231614 0.00406298 0.07639452 0.00440963 0.00961134 0.01315684 0.00093638 
0.08894976 0.03027776 0.01601154 0.00272640 0.00123433 0.00320838 0.01454272 0.00401924 0.02581810 0.00230557 0.00411866 0.07666110 0.00450287 0.00964739 0.01308034 0.00095857 
0.09207118 0.02945839 0.01573509 0.00269865 0.00119366 0.00324436 0.01482769 0.00401221 0.02601776 0.00229512 0.00417425 0.07711732 0.00459993 0.00969491 0.01303057 0.00098279 
0.09517337 0.02866802 0.01543811 0.00267037 0.00115439 0.00327850 0.01511272 0.00401042 0.02622329 0.00228482 0.00422959 0.07776449 0.00470008 0.00975411 0.01300817 0.00100891 
0.09824694 0.02790948 0.01512146 0.00264180 0.00111660 0.00331063 0.01539720 0.00401394 0.02643377 0.00227470 0.00428449 0.07860301 0.00480259 0.00982511 0.01301366 0.00103678 
0.10128243 0.02718538 0.01478608 0.00261317 0.00108038 0.00334059 0.01568053 0.00402279 0.02664826 0.00226476 0.00433879 0.07963236 0.00490672 0.00990796 0.01304737 0.00106622 
0.10427033 0.02649816 0.01443300 0.00258472 0.00104579 0.00336823 0.01596210 0.00403700 0.02686581 0.00225504 0.00439229 0.08085108 0.00501171 0.01000261 0.01310946 0.00109708 
0.10720114 0.02584998 0.01406335 0.00255669 0.00101290 0.00339341 0.01624131 0.00405658 0.02708547 0.00224554 0.00444481 0.08225677 0.00511680 0.01010893 0.01319994 0.00112916 
0.11006538 0.02524280 0.01367832 0.00252931 0.00098178 0.00341599 0.01651755 0.00408149 0.02730626 0.00223627 0.00449617 0.08384613 0.00522125 0.01022669 0.01331866 0.00116230 
0.11285366 0.02467832 0.01327918 0.00250281 0.00095247 0.00343585 0.01679022 0.00411171 0.02752725 0.00222725 0.00454617 0.08561490 0.00532431 0.01035560 0.01346527 0.00119630 
0.11555672 0.02415798 0.01286729 0.00247743 0.00092503 0.00345288 0.01705873 0.00414718 0.02774750 0.00221849 0.00459463 0.08755796 0.00542526 0.01049525 0.01363927 0.00123098 
0.11816543 0.02368298 0.01244403 0.00245337 0.00089950 0.00346696 0.01732246 0.00418781 0.02796610 0.00220997 0.00464136 0.08966926 0.00552339 0.01064515 0.01384002 0.00126614 
0.12067089 0.02325425 0.01201087 0.00243086 0.00087592 0.00347800 0.01758085 0.00423350 0.02818219 0.00220172 0.00468617 0.09194192 0.00561802 0.01080476 0.01406666 0.00130160 
0.12306441 0.02287244 0.01156930 0.00241008 0.00085431 0.00348593 0.01783330 0.00428413 0.02839491 0.00219372 0.00472888 0.09436823 0.00570847 0.01097341 0.01431823 0.00133715 
0.12533761 0.02253796 0.01112086 0.00239125 0.00083470 0.00349067 0.01807923 0.00433956 0.02860350 0.00218598 0.00476931 0.09693967 0.00579414 0.01115038 0.01459358 0.00137263 
0.12748242 0.02225095 0.01066711 0.00237453 0.00081710 0.00349218 0.01831808 0.00439963 0.02880720 0.00217848 0.00480727 0.09964700 0.00587442 0.01133487 0.01489142 0.00140783 
0.12949110 0.02201128 0.01020963 0.00236010 0.00080154 0.00349040 0.01854928 0.00446414 0.02900535 0.00217122 0.00484260 0.10248024 0.00594876 0.01152603 0.01521033 0.00144258 
0.13135634 0.02181857 0.00975003 0.00234810 0.00078802 0.00348532 0.01877228 0.00453291 0.02919733 0.00216420 0.00487513 0.10542878 0.00601667 0.01172291 0.01554875 0.00147670 
0.13307124 0.02167218 0.00928990 0.00233868 0.00077654 0.00347692 0.01898655 0.00460570 0.02938259 0.00215739 0.00490469 0.10848140 0.00607766 0.01192452 0.01590500 0.00151003 
0.13462936 0.02157125 0.00883085 0.00233196 0.00076710 0.00346520 0.01919154 0.00468228 0.02956067 0.00215079 0.00493113 0.11162635 0.00613135 0.01212984 0.01627728 0.00154240 
0.13602476 0.02151467 0.00837447 0.00232804 0.00075968 0.00345018 0.01938675 0.00476239 0.02973117 0.00214439 0.00495430 0.11485139 0.00617735 0.01233776 0.01666371 0.00157365 
0.13725201 0.02150109 0.00792232 0.00232702 0.00075427 0.00343188 0.01957167 0.00484575 0.02989378 0.00213816 0.00497407 0.11814388 0.00621538 0.01254717 0.01706228 0.00160365 
0.13830624 0.02152899 0.00747596 0.00232896 0.00075086 0.00341036 0.01974581 0.00493208 0.03004825 0.00213208 0.00499030 0.12149082 0.00624517 0.01275691 0.01747093 0.00163226 
0.13918315 0.02159659 0.00703691 0.00233391 0.00074942 0.00338567 0.01990871 0.00502106 0.03019446 0.00212615 0.00500288 0.12487897 0.00626654 0.01296579 0.01788754 0.00165934 
0.13987905 0.02170198 0.00660662 0.00234192 0.00074992 0.00335789 0.02005992 0.00511239 0.03033232 0.00212034 0.00501171 0.12829486 0.00627935 0.01317263 0.01830990 0.00168480 
0.14039086 0.02184303 0.00618655 0.00235300 0.00075233 0.00332710 0.02019900 0.00520573 0.03046187 0.00211463 0.00501668 0.13172490 0.00628352 0.01337622 0.01873579 0.00170852 
0.14071612 0.02201749 0.00577805 0.00236715 0.00075660 0.00329341 0.02032555 0.00530074 0.03058321 0.00210901 0.00501773 0.13515548 0.00627905 0.01357536 0.01916295 0.00173042 
0.14085304 0.02222295 0.00538246 0.00238434 0.00076271 0.00325694 0.02043918 0.00539708 0.03069653 0.00210345 0.00501477 0.13857300 0.00626597 0.01376884 0.01958911 0.00175042 
0.14080048 0.02245688 0.00500103 0.00240454 0.00077059 0.00321780 0.02053953 0.00549438 0.03080211 0.00209794 0.00500777 0.14196394 0.00624439 0.01395549 0.02001200 0.00176846 
0.14055798 0.02271664 0.00463495 0.00242769 0.00078021 0.00317615 0.02062626 0.00559229 0.03090030 0.00209246 0.00499668 0.14531501 0.00621447 0.01413416 0.02042936 0.00178447 
0.14012574 0.02299950 0.00428534 0.00245371 0.00079151 0.00313212 0.02069908 0.00569044 0.03099155 0.00208699 0.00498147 0.14861314 0.00617643 0.01430372 0.02083897 0.00179843 
0.13950464 0.02330267 0.00395325 0.00248252 0.00080443 0.00308589 0.02075771 0.00578846 0.03107636 0.00208152 0.00496216 0.15184560 0.00613054 0.01446309 0.02123865 0.00181030 
0.13869624 0.02362331 0.00363963 0.00251401 0.00081891 0.00303763 0.02080190 0.00588599 0.03115532 0.00207603 0.00493874 0.15500006 0.00607713 0.01461122 0.02162625 0.00182008 
0.13770277 0.02395854 0.00334537 0.00254805 0.00083490 0.00298752 0.02083146 0.00598267 0.03122909 0.00207051 0.00491125 0.15806465 0.00601658 0.01474715 0.02199972 0.00182775 
0.13652712 0.02430547 0.00307126 0.00258451 0.00085232 0.00293576 0.02084620 0.00607812 0.03129839 0.00206496 0.00487973 0.16102804 0.00594930 0.01486994 0.02235707 0.00183333 
0.13517285 0.02466122 0.00281802 0.00262324 0.00087111 0.00288254 0.02084600 0.00617201 0.03136400 0.00205936 0.00484424 0.16387948 0.00587576 0.01497873 0.02269642 0.00183683 
0.13364413 0.02502293 0.00258627 0.00266407 0.00089121 0.00282807 0.02083076 0.00626397 0.03142674 0.00205371 0.00480487 0.16660890 0.00579649 0.01507276 0.02301598 0.00183830 
0.13194578 0.02538780 0.00237653 0.00270682 0.00091253 0.00277256 0.02080043 0.00635368 0.03148752 0.00204800 0.00476171 0.16920692 0.00571203 0.01515131 0.02331409 0.00183778 
0.13008322 0.02575307 0.00218924 0.00275131 0.00093500 0.00271624 0.02075501 0.00644081 0.03154725 0.00204225 0.00471489 0.17166490 0.00562295 0.01521376 0.02358920 0.00183532 
0.12806243 0.02611607 0.00202476 0.00279735 0.00095856 0.00265932 0.02069453 0.00652504 0.03160690 0.00203645 0.00466454 0.17397502 0.00552988 0.01525958 0.02383990 0.00183098 
0.12588999 0.02647424 0.00188335 0.00284473 0.00098313 0.00260203 0.02061906 0.00660609 0.03166748 0.00203062 0.00461080 0.17613029 0.00543346 0.01528833 0.02406492 0.00182483 
0.12357297 0.02682512 0.00176517 0.00289324 0.00100862 0.00254461 0.02052875 0.00668367 0.03173001 0.00202476 0.00455385 0.17812457 0.00533434 0.01529966 0.02426316 0.00181696 
0.12111897 0.02716638 0.00167031 0.00294267 0.00103497 0.00248727 0.02042377 0.00675753 0.03179553 0.00201890 0.00449387 0.17995264 0.00523320 0.01529332 0.02443365 0.00180745 
0.11853603 0.02749585 0.00159876 0.00299279 0.00106209 0.00243026 0.02030435 0.00682743 0.03186511 0.00201304 0.00443108 0.18161018 0.00513074 0.01526914 0.02457560 0.00179640 
0.11583264 0.02781151 0.00155042 0.00304340 0.00108991 0.00237380 0.02017077 0.00689314 0.03193981 0.00200722 0.00436567 0.18309382 0.00502765 0.01522709 0.02468838 0.00178390 
0.11301769 0.02811150 0.00152512 0.00309425 0.00111835 0.00231812 0.02002335 0.00695449 0.03202070 0.00200147 0.00429790 0.18440109 0.00492463 0.01516720 0.02477152 0.00177005 
0.11010042 0.02839417 0.00152260 0.00314515 0.00114734 0.00226345 0.01986249 0.00701130 0.03210884 0.00199581 0.00422800 0.18553049 0.00482239 0.01508963 0.02482475 0.00175498 
0.10709041 0.02865805 0.00154251 0.00319585 0.00117680 0.00221001 0.01968861 0.00706342 0.03220528 0.00199028 0.00415624 0.18648145 0.00472162 0.01499460 0.02484795 0.00173878 
0.10399749 0.02890187 0.00158445 0.00324615 0.00120665 0.00215801 0.01950221 0.00711076 0.03231105 0.00198492 0.00408288 0.18725433 0.00462301 0.01488247 0.02484117 0.00172157 
0.10083176 0.02912459 0.00164791 0.00329583 0.00123681 0.00210767 0.01930382 0.00715320 0.03242716 0.00197978 0.00400822 0.18785039 0.00452721 0.01475367 0.02480466 0.00170347 
0.09760349 0.02932538 0.00173235 0.00334469 0.00126723 0.00205918 0.01909402 0.00719071 0.03255457 0.00197490 0.00393254 0.18827179 0.00443489 0.01460873 0.02473881 0.00168458 
0.09432310 0.02950364 0.00183713 0.00339252 0.00129781 0.00201276 0.01887348 0.00722324 0.03269424 0.00197034 0.00385615 0.18852152 0.00434666 0.01444827 0.02464419 0.00166502 
0.09100115 0.02965899 0.00196156 0.00343913 0.00132851 0.00196859 0.01864286 0.00725081 0.03284706 0.00196614 0.00377936 0.18860345 0.00426313 0.01427298 0.02452154 0.00164492 
0.08764822 0.02979130 0.00210489 0.00348434 0.00135923 0.00192685 0.01840293 0.00727342 0.03301387 0.00196236 0.00370248 0.18852218 0.00418486 0.01408365 0.02437174 0.00162436 
0.08427494 0.02990068 0.00226632 0.00352798 0.00138993 0.00188771 0.01815446 0.00729114 0.03319548 0.00195907 0.00362585 0.18828311 0.00411239 0.01388114 0.02419583 0.00160348 
0.08089190 0.02998745 0.00244497 0.00356987 0.00142054 0.00185132 0.01789829 0.00730406 0.03339261 0.00195632 0.00354977 0.18789232 0.00404620 0.01366638 0.02399499 0.00158236 
0.07750963 0.03005218 0.00263995 0.00360988 0.00145099 0.00181784 0.01763529 0.00731228 0.03360596 0.00195419 0.00347459 0.18735653 0.00398675 0.01344036 0.02377055 0.00156111 
0.07413855 0.03009569 0.00285030 0.00364786 0.00148123 0.00178740 0.01736639 0.00731594 0.03383613 0.00195273 0.00340062 0.18668307 0.00393446 0.01320413 0.02352394 0.00153984 
0.07078890 0.03011899 0.00307503 0.00368368 0.00151120 0.00176013 0.01709255 0.00731521 0.03408365 0.00195201 0.00332820 0.18587982 0.00388967 0.01295880 0.02325674 0.00151862 
0.06747076 0.03012335 0.00331311 0.00371724 0.00154084 0.00173613 0.01681476 0.00731027 0.03434900 0.00195209 0.00325764 0.18495512 0.00385271 0.01270552 0.02297061 0.00149754 
0.06419395 0.03011023 0.00356348 0.00374843 0.00157011 0.00171550 0.01653404 0.00730134 0.03463254 0.00195306 0.00318927 0.18391774 0.00382383 0.01244548 0.02266732 0.00147669 
0.06096802 0.03008133 0.00382504 0.00377718 0.00159895 0.00169832 0.01625146 0.00728866 0.03493460 0.00195496 0.00312340 0.18277682 0.00380325 0.01217990 0.02234872 0.00145614 
0.05780222 0.03003852 0.00409669 0.00380342 0.00162733 0.00168466 0.01596810 0.00727247 0.03525539 0.00195788 0.00306033 0.18154179 0.00379113 0.01191003 0.02201673 0.00143596 
0.05470544 0.02998387 0.00437730 0.00382709 0.00165519 0.00167457 0.01568507 0.00725304 0.03559504 0.00196186 0.00300037 0.18022230 0.00378758 0.01163713 0.02167335 0.00141620 
0.05168620 0.02991963 0.00466571 0.00384816 0.00168249 0.00166808 0.01540349 0.00723067 0.03595359 0.00196699 0.00294379 0.17882817 0.00379263 0.01136248 0.02132060 0.00139692 
0.04875259 0.02984822 0.00496077 0.00386661 0.00170921 0.00166522 0.01512451 0.00720566 0.03633099 0.00197330 0.00289089 0.17736933 0.00380631 0.01108736 0.02096056 0.00137817 
0.04591227 0.02977222 0.00526132 0.00388242 0.00173530 0.00166599 0.01484927 0.00717832 0.03672711 0.00198088 0.00284191 0.17585575 0.00382853 0.01081304 0.02059532 0.00135999 
0.04317244 0.02969432 0.00556618 0.00389560 0.00176073 0.00167038 0.01457893 0.00714897 0.03714171 0.00198976 0.00279711 0.17429737 0.00385921 0.01054079 0.02022699 0.00134240 
0.04053980 0.02961737 0.00587419 0.00390618 0.00178547 0.00167837 0.01431464 0.00711795 0.03757446 0.00200000 0.00275671 0.17270407 0.00389818 0.01027187 0.01985768 0.00132544 
0.03802051 0.02954430 0.00618419 0.00391419 0.00180950 0.00168992 0.01405756 0.00708557 0.03802495 0.00201165 0.00272094 0.17108557 0.00394524 0.01000749 0.01948946 0.00130912 
0.03562024 0.02947815 0.00649502 0.00391968 0.00183279 0.00170496 0.01380882 0.00705219 0.03849264 0.00202474 0.00269000 0.16945142 0.00400011 0.00974886 0.01912442 0.00129346 
0.03334407 0.02942202 0.00680554 0.00392272 0.00185531 0.00172344 0.01356956 0.00701813 0.03897694 0.00203931 0.00266406 0.16781091 0.00406251 0.00949713 0.01876457 0.00127846 
0.03119652 0.02937908 0.00711463 0.00392337 0.00187704 0.00174526 0.01334089 0.00698372 0.03947713 0.00205540 0.00264327 0.16617303 0.00413208 0.00925343 0.01841189 0.00126413 
0.02918153 0.02935252 0.00742118 0.00392172 0.00189797 0.00177032 0.01312388 0.00694929 0.03999243 0.00207302 0.00262779 0.16454646 0.00420844 0.00901884 0.01806830 0.00125045 
0.02730246 0.02934556 0.00772413 0.00391787 0.00191808 0.00179852 0.01291959 0.00691515 0.04052193 0.00209219 0.00261773 0.16293948 0.00429115 0.00879437 0.01773564 0.00123742 
0.02556207 0.02936144 0.00802241 0.00391193 0.00193736 0.00182973 0.01272904 0.00688160 0.04106468 0.00211292 0.00261318 0.16135995 0.00437976 0.00858099 0.01741567 0.00122503 
0.02396250 0.02940334 0.00831501 0.00390402 0.00195578 0.00186380 0.01255321 0.00684893 0.04161961 0.00213522 0.00261421 0.15981530 0.00447376 0.00837962 0.01711008 0.00121326 
0.02250532 0.02947443 0.00860095 0.00389425 0.00197333 0.00190060 0.01239302 0.00681742 0.04218557 0.00215908 0.00262089 0.15831246 0.00457265 0.00819109 0.01682042 0.00120208 
0.02119146 0.02957784 0.00887927 0.00388276 0.00199001 0.00193995 0.01224937 0.00678732 0.04276134 0.00218450 0.00263323 0.15685786 0.00467586 0.00801618 0.01654818 0.00119146 
0.02002129 0.02971658 0.00914907 0.00386969 0.00200581 0.00198169 0.01212307 0.00675886 0.04334562 0.00221144 0.00265124 0.15545741 0.00478283 0.00785561 0.01629469 0.00118139 
0.01899457 0.02989362 0.00940950 0.00385518 0.00202071 0.00202564 0.01201490 0.00673226 0.04393704 0.00223989 0.00267490 0.15411646 0.00489297 0.00771000 0.01606120 0.00117182 
0.01811047 0.03011176 0.00965975 0.00383939 0.00203470 0.00207162 0.01192555 0.00670770 0.04453417 0.00226982 0.00270417 0.15283984 0.00500569 0.00757992 0.01584880 0.00116273 
0.01736760 0.03037373 0.00989904 0.00382245 0.00204778 0.00211942 0.01185566 0.00668535 0.04513549 0.00230117 0.00273899 0.15163177 0.00512037 0.00746585 0.01565846 0.00115409 
0.01676401 0.03068208 0.01012668 0.00380454 0.00205993 0.00216884 0.01180579 0.00666533 0.04573945 0.00233390 0.00277927 0.15049594 0.00523639 0.00736820 0.01549103 0.00114585 
0.01629720 0.03103920 0.01034202 0.00378580 0.00207115 0.00221968 0.01177642 0.00664777 0.04634444 0.00236796 0.00282491 0.14943545 0.00535314 0.00728731 0.01534719 0.00113799 
0.01596414 0.03144730 0.01054446 0.00376639 0.00208144 0.00227173 0.01176797 0.00663273 0.04694880 0.00240328 0.00287576 0.14845284 0.00547001 0.00722342 0.01522752 0.00113048 
0.01576132 0.03190841 0.01073347 0.00374647 0.00209077 0.00232478 0.01178073 0.00662027 0.04755083 0.00243978 0.00293169 0.14755010 0.00558638 0.00717671 0.01513242 0.00112328 
0.01568472 0.03242433 0.01090859 0.00372620 0.00209916 0.00237860 0.01181496 0.00661040 0.04814880 0.00247740 0.00299253 0.14672868 0.00570165 0.00714728 0.01506217 0.00111635 
0.01572986 0.03299665 0.01106941 0.00370572 0.00210658 0.00243298 0.01187080 0.00660312 0.04874094 0.00251604 0.00305808 0.14598948 0.00581525 0.00713516 0.01501690 0.00110969 
0.01589183 0.03362674 0.01121561 0.00368520 0.00211303 0.00248770 0.01194831 0.00659838 0.04932549 0.00255563 0.00312814 0.14533288 0.00592660 0.00714028 0.01499660 0.00110324 
0.01616531 0.03431568 0.01134690 0.00366477 0.00211850 0.00254256 0.01204744 0.00659613 0.04990066 0.00259605 0.00320248 0.14475881 0.00603515 0.00716252 0.01500113 0.00109701 
0.01654460 0.03506434 0.01146310 0.00364459 0.00212299 0.00259733 0.01216807 0.00659625 0.05046464 0.00263722 0.00328087 0.14426666 0.00614038 0.00720168 0.01503020 0.00109095 
0.01702364 0.03587329 0.01156408 0.00362479 0.00212648 0.00265181 0.01230998 0.00659863 0.05101564 0.00267902 0.00336304 0.14385543 0.00624179 0.00725750 0.01508340 0.00108507 
0.01759604 0.03674285 0.01164979 0.00360550 0.00212897 0.00270580 0.01247285 0.00660313 0.05155189 0.00272135 0.00344873 0.14352366 0.00633890 0.00732964 0.01516020 0.00107933 
0.01825515 0.03767302 0.01172024 0.00358685 0.00213045 0.00275910 0.01265627 0.00660955 0.05207162 0.00276410 0.00353767 0.14326951 0.00643129 0.00741771 0.01525992 0.00107374 
0.01899403 0.03866356 0.01177552 0.00356896 0.00213092 0.00281151 0.01285974 0.00661771 0.05257310 0.00280714 0.00362954 0.14309078 0.00651854 0.00752124 0.01538179 0.00106829 
0.01980553 0.03971390 0.01181579 0.00355195 0.00213036 0.00286286 0.01308266 0.00662740 0.05305462 0.00285037 0.00372407 0.14298491 0.00660028 0.00763972 0.01552493 0.00106298 
0.02068230 0.04082319 0.01184129 0.00353591 0.00212877 0.00291296 0.01332435 0.00663836 0.05351453 0.00289366 0.00382093 0.14294905 0.00667619 0.00777258 0.01568833 0.00105781 
0.02161683 0.04199028 0.01185232 0.00352095 0.00212614 0.00296166 0.01358403 0.00665036 0.05395123 0.00293689 0.00391981 0.14298008 0.00674597 0.00791919 0.01587092 0.00105280 
0.02260152 0.04321373 0.01184925 0.00350715 0.00212247 0.00300880 0.01386084 0.00666312 0.05436316 0.00297995 0.00402038 0.14307463 0.00680936 0.00807888 0.01607152 0.00104794 
0.02362864 0.04449179 0.01183251 0.00349460 0.00211776 0.00305424 0.01415385 0.00667637 0.05474884 0.00302270 0.00412233 0.14322911 0.00686615 0.00825095 0.01628887 0.00104326 
0.02469043 0.04582242 0.01180263 0.00348337 0.00211200 0.00309783 0.01446203 0.00668982 0.05510688 0.00306503 0.00422531 0.14343976 0.00691616 0.00843465 0.01652166 0.00103877 
0.02577911 0.04720330 0.01176015 0.00347352 0.00210520 0.00313948 0.01478430 0.00670319 0.05543594 0.00310682 0.00432901 0.14370266 0.00695927 0.00862917 0.01676848 0.00103451 
0.02688692 0.04863181 0.01170571 0.00346510 0.00209735 0.00317907 0.01511948 0.00671618 0.05573480 0.00314796 0.00443308 0.14401376 0.00699539 0.00883371 0.01702792 0.00103049 
0.02800616 0.05010506 0.01164000 0.00345816 0.00208846 0.00321650 0.01546634 0.00672849 0.05600230 0.00318832 0.00453720 0.14436894 0.00702446 0.00904741 0.01729847 0.00102676 
0.02912920 0.05161987 0.01156376 0.00345274 0.00207854 0.00325170 0.01582361 0.00673985 0.05623742 0.00322780 0.00464105 0.14476399 0.00704647 0.00926941 0.01757863 0.00102333 
0.03024856 0.05317284 0.01147778 0.00344887 0.00206760 0.00328461 0.01618993 0.00674998 0.05643923 0.00326629 0.00474429 0.14519466 0.00706146 0.00949882 0.01786684 0.00102026 
0.03135689 0.05476027 0.01138289 0.00344655 0.00205565 0.00331517 0.01656390 0.00675859 0.05660690 0.00330367 0.00484662 0.14565670 0.00706948 0.00973472 0.01816154 0.00101757 
0.03244704 0.05637824 0.01127998 0.00344581 0.00204271 0.00334335 0.01694410 0.00676545 0.05673975 0.00333986 0.00494772 0.14614584 0.00707066 0.00997621 0.01846118 0.00101531 
0.03351208 0.05802262 0.01116996 0.00344663 0.00202881 0.00336912 0.01732905 0.00677031 0.05683718 0.00337476 0.00504728 0.14665786 0.00706511 0.01022237 0.01876417 0.00101353 
0.03454534 0.05968905 0.01105378 0.00344902 0.00201395 0.00339249 0.01771725 0.00677294 0.05689876 0.00340827 0.00514501 0.14718857 0.00705303 0.01047225 0.01906896 0.00101226 
0.03554042 0.06137296 0.01093242 0.00345296 0.00199819 0.00341345 0.01810717 0.00677316 0.05692417 0.00344031 0.00524062 0.14773385 0.00703462 0.01072494 0.01937402 0.00101155 
0.03649124 0.06306962 0.01080686 0.00345843 0.00198155 0.00343203 0.01849728 0.00677079 0.05691320 0.00347079 0.00533384 0.14828965 0.00701010 0.01097951 0.01967782 0.00101145 
0.03739204 0.06477413 0.01067814 0.00346538 0.00196408 0.00344826 0.01888602 0.00676569 0.05686581 0.00349965 0.00542439 0.14885204 0.00697975 0.01123504 0.01997889 0.00101199 
0.03823746 0.06648144 0.01054726 0.00347379 0.00194581 0.00346218 0.01927185 0.00675773 0.05678208 0.00352682 0.00551202 0.14941716 0.00694384 0.01149063 0.02027579 0.00101322 
0.03902248 0.06818636 0.01041524 0.00348361 0.00192681 0.00347387 0.01965323 0.00674684 0.05666221 0.00355223 0.00559649 0.14998129 0.00690270 0.01174538 0.02056712 0.00101519 
0.03974254 0.06988363 0.01028313 0.00349478 0.00190713 0.00348339 0.02002861 0.00673297 0.05650655 0.00357582 0.00567757 0.15054083 0.00685665 0.01199842 0.02085156 0.00101793 
0.04039348 0.07156786 0.01015191 0.00350725 0.00188684 0.00349083 0.02039650 0.00671610 0.05631557 0.00359754 0.00575503 0.15109230 0.00680604 0.01224890 0.02112781 0.00102149 
0.04097160 0.07323363 0.01002260 0.00352095 0.00186600 0.00349627 0.02075541 0.00669625 0.05608990 0.00361735 0.00582868 0.15163237 0.00675123 0.01249597 0.02139468 0.00102589 
0.04147367 0.07487544 0.00989617 0.00353581 0.00184470 0.00349983 0.02110389 0.00667347 0.05583026 0.00363521 0.00589832 0.15215784 0.00669261 0.01273885 0.02165101 0.00103116 
0.04189694 0.07648780 0.00977355 0.00355175 0.00182302 0.00350162 0.02144053 0.00664788 0.05553751 0.00365109 0.00596377 0.15266567 0.00663054 0.01297673 0.02189573 0.00103735 
0.04223916 0.07806520 0.00965567 0.00356869 0.00180105 0.00350176 0.02176398 0.00661959 0.05521263 0.00366495 0.00602487 0.15315295 0.00656543 0.01320889 0.02212785 0.00104446 
0.04249859 0.07960216 0.00954340 0.00358654 0.00177888 0.00350038 0.02207292 0.00658879 0.05485672 0.00367678 0.00608148 0.15361693 0.00649768 0.01343460 0.02234647 0.00105253 
0.04267400 0.08109326 0.00943755 0.00360522 0.00175662 0.00349762 0.02236613 0.00655569 0.05447097 0.00368655 0.00613345 0.15405499 0.00642768 0.01365319 0.02255073 0.00106155 
0.04276469 0.08253312 0.00933889 0.00362463 0.00173437 0.00349362 0.02264240 0.00652053 0.05405671 0.00369426 0.00618067 0.15446466 0.00635583 0.01386400 0.02273991 0.00107156 
0.04277048 0.08391648 0.00924815 0.00364466 0.00171225 0.00348852 0.02290065 0.00648359 0.05361531 0.00369990 0.00622302 0.15484361 0.00628253 0.01406644 0.02291334 0.00108254 
0.04269171 0.08523817 0.00916595 0.00366523 0.00169039 0.00348248 0.02313984 0.00644521 0.05314829 0.00370345 0.00626042 0.15518966 0.00620816 0.01425995 0.02307043 0.00109450 
0.04252925 0.08649319 0.00909289 0.00368622 0.00166890 0.00347565 0.02335903 0.00640573 0.05265720 0.00370494 0.00629279 0.15550075 0.00613312 0.01444399 0.02321071 0.00110743 
0.04228450 0.08767668 0.00902947 0.00370754 0.00164791 0.00346818 0.02355734 0.00636554 0.05214369 0.00370435 0.00632005 0.15577497 0.00605778 0.01461808 0.02333376 0.00112132 
0.04195937 0.08878398 0.00897610 0.00372906 0.00162756 0.00346023 0.02373400 0.00632506 0.05160945 0.00370170 0.00634216 0.15601052 0.00598250 0.01478180 0.02343927 0.00113615 
0.04155627 0.08981061 0.00893316 0.00375069 0.00160799 0.00345196 0.02388834 0.00628473 0.05105626 0.00369701 0.00635908 0.15620573 0.00590763 0.01493474 0.02352699 0.00115189 
0.04107810 0.09075234 0.00890088 0.00377231 0.00158934 0.00344350 0.02401978 0.00624502 0.05048590 0.00369028 0.00637077 0.15635905 0.00583351 0.01507656 0.02359678 0.00116851 
0.04052825 0.09160521 0.00887945 0.00379380 0.00157174 0.00343503 0.02412781 0.00620641 0.04990021 0.00368153 0.00637723 0.15646907 0.00576047 0.01520695 0.02364854 0.00118598 
0.03991057 0.09236548 0.00886896 0.00381507 0.00155536 0.00342667 0.02421207 0.00616942 0.04930105 0.00367079 0.00637844 0.15653447 0.00568881 0.01532566 0.02368229 0.00120425 
0.03922936 0.09302974 0.00886940 0.00383599 0.00154032 0.00341859 0.02427226 0.00613457 0.04869030 0.00365808 0.00637442 0.15655405 0.00561881 0.01543248 0.02369808 0.00122327 
0.03848931 0.09359488 0.00888067 0.00385645 0.00152679 0.00341091 0.02430820 0.00610239 0.04806982 0.00364342 0.00636518 0.15652673 0.00555075 0.01552724 0.02369607 0.00124298 
0.03769555 0.09405811 0.00890259 0.00387635 0.00151490 0.00340377 0.02431981 0.00607342 0.04744149 0.00362684 0.00635076 0.15645152 0.00548487 0.01560982 0.02367647 0.00126334 
0.03685355 0.09441701 0.00893488 0.00389557 0.00150480 0.00339729 0.02430711 0.00604822 0.04680716 0.00360837 0.00633120 0.15632756 0.00542141 0.01568015 0.02363954 0.00128427 
0.03596912 0.09466950 0.00897717 0.00391400 0.00149664 0.00339159 0.02427023 0.00602731 0.04616866 0.00358804 0.00630654 0.15615408 0.00536057 0.01573820 0.02358561 0.00130570 
0.03504840 0.09481387 0.00902900 0.00393154 0.00149054 0.00338679 0.02420940 0.00601125 0.04552779 0.00356589 0.00627685 0.15593043 0.00530255 0.01578398 0.02351508 0.00132756 
0.03409778 0.09484884 0.00908983 0.00394809 0.00148666 0.00338298 0.02412493 0.00600057 0.04488629 0.00354194 0.00624220 0.15565607 0.00524751 0.01581756 0.02342837 0.00134977 
0.03312391 0.09477351 0.00915904 0.00396354 0.00148511 0.00338026 0.02401725 0.00599577 0.04424586 0.00351624 0.00620266 0.15533057 0.00519560 0.01583903 0.02332598 0.00137225 
0.03213364 0.09458739 0.00923591 0.00397779 0.00148602 0.00337871 0.02388688 0.00599738 0.04360814 0.00348881 0.00615833 0.15495360 0.00514694 0.01584855 0.02320844 0.00139491 
0.03113398 0.09429044 0.00931968 0.00399076 0.00148951 0.00337840 0.02373441 0.00600585 0.04297470 0.00345971 0.00610930 0.15452497 0.00510166 0.01584628 0.02307630 0.00141767 
0.03013207 0.09388304 0.00940947 0.00400234 0.00149568 0.00337939 0.02356056 0.00602165 0.04234704 0.00342896 0.00605569 0.15404459 0.00505983 0.01583246 0.02293018 0.00144043 
0.02913514 0.09336603 0.00950439 0.00401246 0.00150464 0.00338174 0.02336609 0.00604520 0.04172656 0.00339660 0.00599760 0.15351251 0.00502152 0.01580734 0.02277071 0.00146311 
0.02815046 0.09274069 0.00960345 0.00402103 0.00151647 0.00338548 0.02315185 0.00607690 0.04111460 0.00336269 0.00593517 0.15292890 0.00498678 0.01577123 0.02259854 0.00148561 
0.02718531 0.09200875 0.00970562 0.00402797 0.00153126 0.00339065 0.02291880 0.00611709 0.04051240 0.00332727 0.00586851 0.15229407 0.00495565 0.01572444 0.02241437 0.00150784 
0.02624689 0.09117241 0.00980984 0.00403321 0.00154906 0.00339726 0.02266792 0.00616610 0.03992109 0.00329038 0.00579779 0.15160845 0.00492815 0.01566736 0.02221890 0.00152971 
0.02534238 0.09023432 0.00991498 0.00403669 0.00156994 0.00340532 0.02240028 0.00622419 0.03934171 0.00325208 0.00572313 0.15087264 0.00490426 0.01560036 0.02201285 0.00155112 
0.02447877 0.08919761 0.01001992 0.00403834 0.00159393 0.00341482 0.02211701 0.00629159 0.03877522 0.00321241 0.00564470 0.15008737 0.00488399 0.01552387 0.02179695 0.00157199 
0.02366291 0.08806582 0.01012348 0.00403811 0.00162106 0.00342575 0.02181929 0.00636847 0.03822244 0.00317142 0.00556267 0.14925355 0.00486729 0.01543834 0.02157196 0.00159222 
0.02290144 0.08684299 0.01022448 0.00403595 0.00165134 0.00343807 0.02150835 0.00645495 0.03768411 0.00312918 0.00547721 0.14837221 0.00485412 0.01534424 0.02133862 0.00161174 
0.02220074 0.08553356 0.01032175 0.00403182 0.00168477 0.00345175 0.02118545 0.00655111 0.03716087 0.00308575 0.00538849 0.14744457 0.00484444 0.01524207 0.02109769 0.00163045 
0.02156687 0.08414245 0.01041411 0.00402569 0.00172132 0.00346673 0.02085190 0.00665696 0.03665324 0.00304118 0.00529671 0.14647203 0.00483817 0.01513234 0.02084993 0.00164827 
0.02100559 0.08267495 0.01050038 0.00401753 0.00176097 0.00348296 0.02050903 0.00677245 0.03616164 0.00299555 0.00520207 0.14545613 0.00483523 0.01501558 0.02059610 0.00166514 
0.02052226 0.08113681 0.01057942 0.00400732 0.00180365 0.00350036 0.02015819 0.00689748 0.03568642 0.00294892 0.00510477 0.14439860 0.00483554 0.01489235 0.02033697 0.00168097 
0.02012185 0.07953414 0.01065013 0.00399505 0.00184930 0.00351885 0.01980075 0.00703189 0.03522780 0.00290137 0.00500501 0.14330137 0.00483901 0.01476319 0.02007328 0.00169571 
0.01980888 0.07787346 0.01071141 0.00398071 0.00189782 0.00353834 0.01943809 0.00717546 0.03478593 0.00285298 0.00490303 0.14216650 0.00484554 0.01462867 0.01980578 0.00170928 
0.01958738 0.07616162 0.01076226 0.00396431 0.00194913 0.00355873 0.01907159 0.00732792 0.03436086 0.00280382 0.00479904 0.14099628 0.00485501 0.01448939 0.01953522 0.00172164 
0.01946089 0.07440584 0.01080169 0.00394586 0.00200308 0.00357991 0.01870262 0.00748891 0.03395256 0.00275399 0.00469329 0.13979315 0.00486731 0.01434590 0.01926232 0.00173274 
0.01943242 0.07261361 0.01082880 0.00392538 0.00205954 0.00360177 0.01833256 0.00765806 0.03356094 0.00270358 0.00458601 0.13855972 0.00488233 0.01419880 0.01898780 0.00174252 
0.01950442 0.07079276 0.01084276 0.00390290 0.00211837 0.00362417 0.01796276 0.00783490 0.03318582 0.00265268 0.00447744 0.13729879 0.00489994 0.01404867 0.01871239 0.00175095 
0.01967876 0.06895134 0.01084282 0.00387845 0.00217937 0.00364699 0.01759453 0.00801893 0.03282697 0.00260139 0.00436785 0.13601334 0.00492002 0.01389610 0.01843677 0.00175801 
0.01995672 0.06709767 0.01082832 0.00385208 0.00224237 0.00367010 0.01722919 0.00820960 0.03248411 0.00254982 0.00425749 0.13470648 0.00494244 0.01374165 0.01816163 0.00176367 
0.02033898 0.06524024 0.01079867 0.00382384 0.00230716 0.00369334 0.01686800 0.00840628 0.03215689 0.00249809 0.00414663 0.13338151 0.00496708 0.01358589 0.01788764 0.00176791 
0.02082559 0.06338772 0.01075343 0.00379378 0.00237352 0.00371657 0.01651219 0.00860833 0.03184495 0.00244630 0.00403554 0.13204186 0.00499379 0.01342939 0.01761546 0.00177073 
0.02141598 0.06154892 0.01069221 0.00376197 0.00244122 0.00373965 0.01616294 0.00881504 0.03154786 0.00239457 0.00392449 0.13069110 0.00502245 0.01327268 0.01734572 0.00177212 
0.02210897 0.05973273 0.01061477 0.00372849 0.00251001 0.00376241 0.01582138 0.00902568 0.03126522 0.00234303 0.00381376 0.12933295 0.00505294 0.01311630 0.01707905 0.00177209 
0.02290273 0.05794813 0.01052096 0.00369342 0.00257964 0.00378471 0.01548861 0.00923945 0.03099656 0.00229181 0.00370363 0.12797122 0.00508511 0.01296078 0.01681605 0.00177065 
0.02379482 0.05620409 0.01041077 0.00365684 0.00264984 0.00380637 0.01516565 0.00945556 0.03074143 0.00224104 0.00359439 0.12660983 0.00511885 0.01280659 0.01655732 0.00176782 
0.02478219 0.05450957 0.01028429 0.00361884 0.00272032 0.00382725 0.01485346 0.00967316 0.03049940 0.00219085 0.00348632 0.12525281 0.00515401 0.01265423 0.01630341 0.00176363 
0.02586118 0.05287347 0.01014175 0.00357954 0.00279081 0.00384719 0.01455294 0.00989138 0.03027000 0.00214140 0.00337971 0.12390423 0.00519049 0.01250415 0.01605489 0.00175811 
0.02702757 0.05130460 0.00998348 0.00353902 0.00286100 0.00386602 0.01426494 0.01010935 0.03005281 0.00209281 0.00327484 0.12256826 0.00522815 0.01235678 0.01581228 0.00175131 
0.02827655 0.04981159 0.00980996 0.00349741 0.00293061 0.00388359 0.01399020 0.01032616 0.02984743 0.00204524 0.00317200 0.12124908 0.00526687 0.01221254 0.01557610 0.00174327 
0.02960279 0.04840292 0.00962178 0.00345481 0.00299932 0.00389976 0.01372944 0.01054091 0.02965349 0.00199883 0.00307148 0.11995089 0.00530654 0.01207181 0.01534683 0.00173404 
0.03100043 0.04708681 0.00941964 0.00341135 0.00306684 0.00391436 0.01348327 0.01075268 0.02947065 0.00195373 0.00297356 0.11867793 0.00534703 0.01193494 0.01512494 0.00172369 
0.03246315 0.04587122 0.00920438 0.00336714 0.00313285 0.00392726 0.01325224 0.01096056 0.02929860 0.00191009 0.00287851 0.11743439 0.00538823 0.01180226 0.01491089 0.00171227 
0.03398416 0.04476378 0.00897695 0.00332233 0.00319706 0.00393831 0.01303682 0.01116365 0.02913711 0.00186807 0.00278660 0.11622444 0.00543003 0.01167409 0.01470509 0.00169986 
0.03555630 0.04377175 0.00873839 0.00327702 0.00325915 0.00394739 0.01283740 0.01136106 0.02898596 0.00182782 0.00269810 0.11505220 0.00547232 0.01155069 0.01450794 0.00168653 
0.03717199 0.04290202 0.00848988 0.00323136 0.00331884 0.00395436 0.01265432 0.01155190 0.02884502 0.00178948 0.00261328 0.11392172 0.00551501 0.01143230 0.01431984 0.00167236 
0.03882336 0.04216099 0.00823268 0.00318549 0.00337583 0.00395910 0.01248781 0.01173532 0.02871419 0.00175320 0.00253237 0.11283696 0.00555797 0.01131915 0.01414112 0.00165744 
0.04050225 0.04155461 0.00796815 0.00313952 0.00342983 0.00396151 0.01233806 0.01191049 0.02859343 0.00171913 0.00245563 0.11180176 0.00560113 0.01121142 0.01397213 0.00164184 
0.04220026 0.04108829 0.00769775 0.00309360 0.00348057 0.00396148 0.01220515 0.01207662 0.02848279 0.00168742 0.00238328 0.11081983 0.00564437 0.01110926 0.01381317 0.00162565 
0.04390881 0.04076688 0.00742300 0.00304787 0.00352779 0.00395893 0.01208913 0.01223293 0.02838233 0.00165819 0.00231553 0.10989475 0.00568762 0.01101281 0.01366451 0.00160897 
0.04561919 0.04059463 0.00714550 0.00300245 0.00357124 0.00395376 0.01198995 0.01237870 0.02829222 0.00163159 0.00225261 0.10902992 0.00573078 0.01092217 0.01352642 0.00159188 
0.04732258 0.04057517 0.00686693 0.00295748 0.00361067 0.00394592 0.01190750 0.01251326 0.02821263 0.00160775 0.00219468 0.10822856 0.00577376 0.01083741 0.01339911 0.00157449 
0.04901018 0.04071147 0.00658899 0.00291310 0.00364587 0.00393534 0.01184163 0.01263598 0.02814383 0.00158678 0.00214194 0.10749371 0.00581649 0.01075858 0.01328280 0.00155688 
0.05067317 0.04100581 0.00631347 0.00286943 0.00367663 0.00392199 0.01179209 0.01274628 0.02808612 0.00156880 0.00209455 0.10682817 0.00585888 0.01068570 0.01317765 0.00153915 
0.05230281 0.04145975 0.00604215 0.00282660 0.00370278 0.00390582 0.01175859 0.01284363 0.02803983 0.00155392 0.00205264 0.10623452 0.00590087 0.01061876 0.01308382 0.00152139 
0.05389052 0.04207414 0.00577685 0.00278473 0.00372413 0.00388682 0.01174081 0.01292757 0.02800536 0.00154225 0.00201634 0.10571513 0.00594237 0.01055775 0.01300142 0.00150369 
0.05542787 0.04284905 0.00551942 0.00274396 0.00374056 0.00386498 0.01173833 0.01299768 0.02798313 0.00153386 0.00198576 0.10527208 0.00598333 0.01050262 0.01293055 0.00148614 
0.05690668 0.04378381 0.00527169 0.00270438 0.00375193 0.00384032 0.01175073 0.01305364 0.02797357 0.00152883 0.00196098 0.10490721 0.00602367 0.01045329 0.01287128 0.00146884 
0.05831905 0.04487695 0.00503548 0.00266613 0.00375814 0.00381287 0.01177753 0.01309515 0.02797714 0.00152724 0.00194208 0.10462210 0.00606334 0.01040968 0.01282365 0.00145186 
0.05965741 0.04612623 0.00481261 0.00262930 0.00375913 0.00378264 0.01181819 0.01312200 0.02799432 0.00152915 0.00192910 0.10441804 0.00610228 0.01037169 0.01278766 0.00143530 
0.06091457 0.04752861 0.00460484 0.00259400 0.00375483 0.00374972 0.01187218 0.01313405 0.02802558 0.00153459 0.00192206 0.10429605 0.00614043 0.01033920 0.01276332 0.00141923 
0.06208379 0.04908027 0.00441391 0.00256033 0.00374523 0.00371415 0.01193890 0.01313120 0.02807138 0.00154360 0.00192096 0.10425684 0.00617774 0.01031207 0.01275056 0.00140373 
0.06315876 0.05077659 0.00424149 0.00252839 0.00373031 0.00367603 0.01201774 0.01311345 0.02813216 0.00155620 0.00192580 0.10430088 0.00621417 0.01029016 0.01274934 0.00138886 
0.06413371 0.05261221 0.00408920 0.00249826 0.00371011 0.00363545 0.01210809 0.01308084 0.02820835 0.00157239 0.00193653 0.10442830 0.00624968 0.01027331 0.01275957 0.00137470 
0.06500340 0.05458097 0.00395856 0.00247002 0.00368467 0.00359254 0.01220928 0.01303350 0.02830031 0.00159217 0.00195308 0.10463897 0.00628421 0.01026135 0.01278112 0.00136130 
0.06576315 0.05667599 0.00385104 0.00244376 0.00365408 0.00354741 0.01232067 0.01297159 0.02840839 0.00161550 0.00197538 0.10493249 0.00631773 0.01025413 0.01281386 0.00134873 
0.06640894 0.05888967 0.00376797 0.00241954 0.00361843 0.00350021 0.01244160 0.01289537 0.02853284 0.00164237 0.00200331 0.10530815 0.00635022 0.01025145 0.01285763 0.00133703 
0.06693733 0.06121370 0.00371062 0.00239743 0.00357785 0.00345110 0.01257138 0.01280513 0.02867388 0.00167270 0.00203676 0.10576497 0.00638163 0.01025314 0.01291225 0.00132624 
0.06734558 0.06363911 0.00368012 0.00237749 0.00353248 0.00340024 0.01270936 0.01270124 0.02883162 0.00170644 0.00207556 0.10630171 0.00641194 0.01025902 0.01297752 0.00131641 
0.06763158 0.06615632 0.00367747 0.00235976 0.00348251 0.00334783 0.01285487 0.01258411 0.02900611 0.00174350 0.00211957 0.10691687 0.00644112 0.01026890 0.01305322 0.00130755 
0.06779397 0.06875514 0.00370357 0.00234431 0.00342814 0.00329405 0.01300725 0.01245421 0.02919728 0.00178379 0.00216857 0.10760868 0.00646915 0.01028261 0.01313909 0.00129971 
0.06783202 0.07142482 0.00375915 0.00233115 0.00336958 0.00323911 0.01316587 0.01231207 0.02940497 0.00182719 0.00222238 0.10837515 0.00649602 0.01029996 0.01323490 0.00129289 
0.06774577 0.07415415 0.00384482 0.00232034 0.00330708 0.00318323 0.01333009 0.01215824 0.02962891 0.00187359 0.00228076 0.10921404 0.00652170 0.01032079 0.01334036 0.00128711 
0.06753592 0.07693144 0.00396105 0.00231190 0.00324090 0.00312663 0.01349930 0.01199333 0.02986871 0.00192283 0.00234348 0.11012289 0.00654619 0.01034491 0.01345519 0.00128236 
0.06720389 0.07974461 0.00410812 0.00230586 0.00317132 0.00306955 0.01367291 0.01181799 0.03012383 0.00197478 0.00241027 0.11109906 0.00656946 0.01037217 0.01357909 0.00127865 
0.06675181 0.08258123 0.00428619 0.00230222 0.00309865 0.00301224 0.01385036 0.01163289 0.03039365 0.00202926 0.00248087 0.11213969 0.00659151 0.01040242 0.01371175 0.00127597 
0.06618247 0.08542860 0.00449525 0.00230100 0.00302319 0.00295494 0.01403110 0.01143875 0.03067738 0.00208610 0.00255499 0.11324175 0.00661234 0.01043549 0.01385285 0.00127429 
0.06549933 0.08827381 0.00473513 0.00230221 0.00294527 0.00289791 0.01421461 0.01123630 0.03097410 0.00214510 0.00263234 0.11440205 0.00663193 0.01047126 0.01400205 0.00127359 
0.06470652 0.09110378 0.00500548 0.00230584 0.00286525 0.00284141 0.01440041 0.01102630 0.03128278 0.00220608 0.00271261 0.11561726 0.00665029 0.01050959 0.01415903 0.00127384 
0.06380877 0.09390534 0.00530582 0.00231190 0.00278346 0.00278570 0.01458805 0.01080952 0.03160222 0.00226881 0.00279548 0.11688391 0.00666741 0.01055036 0.01432345 0.00127501 
0.06281142 0.09666532 0.00563549 0.00232036 0.00270029 0.00273106 0.01477709 0.01058674 0.03193111 0.00233309 0.00288063 0.11819840 0.00668330 0.01059347 0.01449494 0.00127705 
0.06172036 0.09937057 0.00599367 0.00233123 0.00261608 0.00267773 0.01496714 0.01035877 0.03226801 0.00239867 0.00296774 0.11955707 0.00669796 0.01063880 0.01467318 0.00127991 
0.06054202 0.10200808 0.00637939 0.00234447 0.00253123 0.00262600 0.01515784 0.01012639 0.03261132 0.00246534 0.00305648 0.12095615 0.00671139 0.01068626 0.01485782 0.00128353 
0.05928332 0.10456502 0.00679152 0.00236006 0.00244611 0.00257613 0.01534886 0.00989040 0.03295937 0.00253286 0.00314651 0.12239180 0.00672360 0.01073579 0.01504850 0.00128786 
0.05795161 0.10702881 0.00722879 0.00237799 0.00236111 0.00252836 0.01553989 0.00965161 0.03331033 0.00260097 0.00323751 0.12386015 0.00673460 0.01078730 0.01524488 0.00129283 
0.05655468 0.10938721 0.00768979 0.00239820 0.00227659 0.00248297 0.01573066 0.00941078 0.03366230 0.00266943 0.00332914 0.12535729 0.00674440 0.01084073 0.01544662 0.00129836 
0.05510064 0.11162837 0.00817295 0.00242068 0.00219295 0.00244019 0.01592094 0.00916871 0.03401327 0.00273800 0.00342108 0.12687928 0.00675301 0.01089603 0.01565338 0.00130439 
0.05359794 0.11374091 0.00867659 0.00244537 0.00211055 0.00240027 0.01611052 0.00892614 0.03436113 0.00280641 0.00351302 0.12842219 0.00676044 0.01095316 0.01586483 0.00131083 
0.05205527 0.11571396 0.00919891 0.00247223 0.00202977 0.00236344 0.01629921 0.00868382 0.03470373 0.00287444 0.00360463 0.12998211 0.00676671 0.01101207 0.01608065 0.00131761 
0.05048154 0.11753726 0.00973799 0.00250123 0.00195096 0.00232993 0.01648686 0.00844245 0.03503883 0.00294181 0.00369561 0.13155513 0.00677184 0.01107274 0.01630052 0.00132463 
0.04888582 0.11920119 0.01029180 0.00253230 0.00187447 0.00229994 0.01667334 0.00820275 0.03536417 0.00300830 0.00378567 0.13313742 0.00677585 0.01113514 0.01652413 0.00133182 
