0.04092442 0.00099050 0.00078296 0.00053136 0.00096633 0.00164954 0.00131998 0.00118331 0.00358260 0.00041500 0.00103805 0.00107774 0.00194733 0.00039515 0.00140975 0.00126780 
0.04151843 0.00098257 0.00079136 0.00054986 0.00095847 0.00172095 0.00132982 0.00120274 0.00360952 0.00045488 0.00105260 0.00109231 0.00196842 0.00039969 0.00145934 0.00126850 
0.04209144 0.00097593 0.00079935 0.00057406 0.00095097 0.00179056 0.00134037 0.00122922 0.00362851 0.00049900 0.00106642 0.00110624 0.00198962 0.00040535 0.00151345 0.00126921 
0.04264075 0.00097061 0.00080690 0.00060384 0.00094380 0.00185814 0.00135161 0.00126266 0.00363946 0.00054692 0.00107946 0.00111944 0.00201095 0.00041208 0.00157177 0.00126994 
0.04316380 0.00096667 0.00081400 0.00063905 0.00093696 0.00192347 0.00136353 0.00130294 0.00364234 0.00059823 0.00109165 0.00113183 0.00203240 0.00041981 0.00163397 0.00127066 
0.04365817 0.00096414 0.00082062 0.00067954 0.00093046 0.00198635 0.00137611 0.00134993 0.00363715 0.00065252 0.00110293 0.00114331 0.00205397 0.00042846 0.00169971 0.00127139 
0.04412163 0.00096306 0.00082677 0.00072514 0.00092428 0.00204663 0.00138931 0.00140347 0.00362395 0.00070937 0.00111326 0.00115381 0.00207565 0.00043796 0.00176862 0.00127209 
0.04455212 0.00096347 0.00083243 0.00077568 0.00091842 0.00210415 0.00140310 0.00146341 0.00360284 0.00076840 0.00112259 0.00116326 0.00209745 0.00044823 0.00184034 0.00127278 
0.04494777 0.00096541 0.00083761 0.00083096 0.00091288 0.00215881 0.00141745 0.00152957 0.00357398 0.00082922 0.00113087 0.00117161 0.00211934 0.00045920 0.00191450 0.00127343 
0.04530691 0.00096890 0.00084231 0.00089079 0.00090765 0.00221052 0.00143231 0.00160177 0.00353760 0.00089146 0.00113806 0.00117880 0.00214134 0.00047078 0.00199070 0.00127405 
0.04562809 0.00097399 0.00084655 0.00095495 0.00090274 0.00225920 0.00144763 0.00167981 0.00349397 0.00095479 0.00114414 0.00118477 0.00216342 0.00048288 0.00206854 0.00127462 
0.04591006 0.00098068 0.00085035 0.00102322 0.00089815 0.00230481 0.00146337 0.00176347 0.00344341 0.00101885 0.00114906 0.00118950 0.00218557 0.00049543 0.00214764 0.00127514 
0.04615181 0.00098900 0.00085373 0.00109538 0.00089388 0.00234732 0.00147946 0.00185253 0.00338629 0.00108334 0.00115280 0.00119296 0.00220779 0.00050833 0.00222759 0.00127560 
0.04635255 0.00099896 0.00085672 0.00117119 0.00088994 0.00238673 0.00149586 0.00194676 0.00332304 0.00114794 0.00115535 0.00119512 0.00223005 0.00052149 0.00230801 0.00127600 
0.04651171 0.00101058 0.00085935 0.00125040 0.00088631 0.00242304 0.00151249 0.00204592 0.00325413 0.00121240 0.00115669 0.00119597 0.00225234 0.00053483 0.00238848 0.00127633 
0.04662896 0.00102386 0.00086168 0.00133278 0.00088302 0.00245629 0.00152928 0.00214974 0.00318010 0.00127643 0.00115680 0.00119550 0.00227464 0.00054827 0.00246863 0.00127658 
0.04670420 0.00103880 0.00086374 0.00141805 0.00088005 0.00248651 0.00154617 0.00225796 0.00310150 0.00133980 0.00115568 0.00119373 0.00229692 0.00056171 0.00254807 0.00127675 
0.04673753 0.00105539 0.00086558 0.00150597 0.00087742 0.00251376 0.00156309 0.00237030 0.00301895 0.00140230 0.00115334 0.00119065 0.00231916 0.00057508 0.00262644 0.00127684 
0.04672929 0.00107361 0.00086727 0.00159627 0.00087513 0.00253811 0.00157995 0.00248647 0.00293309 0.00146372 0.00114977 0.00118630 0.00234133 0.00058829 0.00270336 0.00127683 
0.04668002 0.00109344 0.00086885 0.00168868 0.00087318 0.00255964 0.00159669 0.00260619 0.00284462 0.00152387 0.00114498 0.00118070 0.00236340 0.00060126 0.00277849 0.00127673 
0.04659049 0.00111485 0.00087038 0.00178293 0.00087158 0.00257844 0.00161321 0.00272913 0.00275424 0.00158261 0.00113900 0.00117389 0.00238533 0.00061391 0.00285150 0.00127653 
0.04646164 0.00113779 0.00087195 0.00187875 0.00087033 0.00259462 0.00162944 0.00285499 0.00266271 0.00163978 0.00113183 0.00116590 0.00240710 0.00062617 0.00292206 0.00127623 
0.04629461 0.00116224 0.00087360 0.00197585 0.00086944 0.00260828 0.00164530 0.00298345 0.00257081 0.00169528 0.00112351 0.00115679 0.00242866 0.00063797 0.00298988 0.00127583 
0.04609071 0.00118812 0.00087541 0.00207398 0.00086890 0.00261952 0.00166071 0.00311418 0.00247931 0.00174899 0.00111406 0.00114662 0.00244998 0.00064924 0.00305468 0.00127532 
0.04585142 0.00121537 0.00087744 0.00217285 0.00086872 0.00262848 0.00167558 0.00324683 0.00238903 0.00180084 0.00110352 0.00113544 0.00247101 0.00065992 0.00311618 0.00127470 
0.04557838 0.00124393 0.00087978 0.00227218 0.00086891 0.00263527 0.00168983 0.00338107 0.00230078 0.00185076 0.00109192 0.00112333 0.00249171 0.00066996 0.00317417 0.00127397 
0.04527335 0.00127370 0.00088248 0.00237170 0.00086945 0.00264001 0.00170338 0.00351654 0.00221539 0.00189869 0.00107931 0.00111036 0.00251203 0.00067929 0.00322840 0.00127314 
0.04493822 0.00130461 0.00088561 0.00247113 0.00087035 0.00264283 0.00171616 0.00365289 0.00213368 0.00194461 0.00106573 0.00109661 0.00253192 0.00068787 0.00327870 0.00127219 
0.04457500 0.00133655 0.00088925 0.00257020 0.00087161 0.00264386 0.00172809 0.00378976 0.00205648 0.00198851 0.00105123 0.00108216 0.00255134 0.00069566 0.00332488 0.00127114 
0.04418578 0.00136942 0.00089346 0.00266865 0.00087322 0.00264322 0.00173909 0.00392678 0.00198458 0.00203036 0.00103587 0.00106709 0.00257022 0.00070261 0.00336681 0.00126998 
0.04377275 0.00140309 0.00089830 0.00276621 0.00087518 0.00264104 0.00174910 0.00406360 0.00191878 0.00207020 0.00101970 0.00105150 0.00258853 0.00070871 0.00340436 0.00126871 
0.04333814 0.00143745 0.00090382 0.00286261 0.00087748 0.00263745 0.00175805 0.00419983 0.00185985 0.00210803 0.00100279 0.00103548 0.00260620 0.00071390 0.00343742 0.00126734 
0.04288424 0.00147236 0.00091009 0.00295759 0.00088012 0.00263256 0.00176588 0.00433512 0.00180855 0.00214390 0.00098520 0.00101913 0.00262318 0.00071819 0.00346593 0.00126587 
0.04241339 0.00150769 0.00091715 0.00305091 0.00088309 0.00262649 0.00177254 0.00446909 0.00176557 0.00217784 0.00096699 0.00100253 0.00263941 0.00072154 0.00348984 0.00126429 
0.04192793 0.00154329 0.00092505 0.00314231 0.00088637 0.00261935 0.00177797 0.00460137 0.00173160 0.00220991 0.00094824 0.00098578 0.00265484 0.00072395 0.00350913 0.00126263 
0.04143020 0.00157901 0.00093382 0.00323155 0.00088995 0.00261127 0.00178213 0.00473160 0.00170728 0.00224017 0.00092901 0.00096899 0.00266942 0.00072542 0.00352378 0.00126087 
0.04092257 0.00161469 0.00094350 0.00331840 0.00089382 0.00260233 0.00178499 0.00485942 0.00169320 0.00226869 0.00090939 0.00095224 0.00268309 0.00072594 0.00353383 0.00125903 
0.04040734 0.00165016 0.00095411 0.00340263 0.00089797 0.00259266 0.00178651 0.00498446 0.00168989 0.00229553 0.00088944 0.00093564 0.00269578 0.00072552 0.00353933 0.00125711 
0.03988681 0.00168527 0.00096567 0.00348402 0.00090236 0.00258233 0.00178667 0.00510638 0.00169783 0.00232079 0.00086924 0.00091927 0.00270746 0.00072417 0.00354033 0.00125511 
0.03936323 0.00171984 0.00097819 0.00356236 0.00090700 0.00257145 0.00178545 0.00522482 0.00171746 0.00234453 0.00084887 0.00090323 0.00271807 0.00072191 0.00353693 0.00125305 
0.03883879 0.00175370 0.00099166 0.00363744 0.00091185 0.00256010 0.00178286 0.00533946 0.00174913 0.00236686 0.00082842 0.00088761 0.00272755 0.00071875 0.00352924 0.00125092 
0.03831561 0.00178667 0.00100609 0.00370907 0.00091689 0.00254835 0.00177888 0.00544996 0.00179314 0.00238784 0.00080795 0.00087249 0.00273587 0.00071473 0.00351738 0.00124874 
0.03779576 0.00181858 0.00102145 0.00377707 0.00092211 0.00253630 0.00177353 0.00555601 0.00184972 0.00240758 0.00078756 0.00085796 0.00274297 0.00070987 0.00350151 0.00124651 
0.03728120 0.00184925 0.00103773 0.00384127 0.00092747 0.00252400 0.00176683 0.00565730 0.00191904 0.00242615 0.00076732 0.00084409 0.00274882 0.00070420 0.00348177 0.00124424 
0.03677382 0.00187852 0.00105488 0.00390150 0.00093294 0.00251153 0.00175880 0.00575354 0.00200117 0.00244366 0.00074732 0.00083096 0.00275338 0.00069777 0.00345836 0.00124193 
0.03627542 0.00190620 0.00107287 0.00395762 0.00093852 0.00249893 0.00174950 0.00584446 0.00209613 0.00246017 0.00072764 0.00081864 0.00275661 0.00069062 0.00343146 0.00123961 
0.03578768 0.00193214 0.00109165 0.00400949 0.00094416 0.00248628 0.00173895 0.00592981 0.00220386 0.00247579 0.00070836 0.00080718 0.00275848 0.00068279 0.00340128 0.00123726 
0.03531220 0.00195618 0.00111115 0.00405698 0.00094983 0.00247362 0.00172722 0.00600933 0.00232423 0.00249059 0.00068955 0.00079666 0.00275896 0.00067433 0.00336802 0.00123491 
0.03485047 0.00197815 0.00113132 0.00409997 0.00095552 0.00246099 0.00171437 0.00608280 0.00245702 0.00250465 0.00067131 0.00078711 0.00275805 0.00066528 0.00333192 0.00123256 
0.03440389 0.00199790 0.00115207 0.00413839 0.00096119 0.00244843 0.00170047 0.00615003 0.00260197 0.00251804 0.00065370 0.00077859 0.00275571 0.00065571 0.00329321 0.00123022 
0.03397373 0.00201531 0.00117333 0.00417212 0.00096681 0.00243600 0.00168562 0.00621083 0.00275872 0.00253084 0.00063680 0.00077114 0.00275195 0.00064566 0.00325213 0.00122790 
0.03356116 0.00203023 0.00119500 0.00420112 0.00097235 0.00242371 0.00166990 0.00626505 0.00292684 0.00254312 0.00062070 0.00076479 0.00274675 0.00063520 0.00320891 0.00122562 
0.03316727 0.00204255 0.00121701 0.00422531 0.00097778 0.00241160 0.00165342 0.00631254 0.00310586 0.00255494 0.00060545 0.00075956 0.00274013 0.00062437 0.00316381 0.00122336 
0.03279303 0.00205217 0.00123924 0.00424466 0.00098308 0.00239970 0.00163627 0.00635319 0.00329523 0.00256636 0.00059115 0.00075548 0.00273209 0.00061324 0.00311708 0.00122116 
0.03243932 0.00205898 0.00126159 0.00425913 0.00098821 0.00238802 0.00161858 0.00638692 0.00349434 0.00257743 0.00057784 0.00075255 0.00272265 0.00060186 0.00306896 0.00121901 
0.03210691 0.00206291 0.00128396 0.00426872 0.00099315 0.00237660 0.00160048 0.00641367 0.00370253 0.00258821 0.00056561 0.00075078 0.00271183 0.00059030 0.00301970 0.00121693 
0.03179650 0.00206390 0.00130624 0.00427343 0.00099788 0.00236544 0.00158209 0.00643340 0.00391909 0.00259873 0.00055450 0.00075017 0.00269965 0.00057861 0.00296956 0.00121493 
0.03150870 0.00206190 0.00132832 0.00427327 0.00100237 0.00235457 0.00156354 0.00644610 0.00414328 0.00260903 0.00054460 0.00075072 0.00268617 0.00056685 0.00291876 0.00121301 
0.03124403 0.00205688 0.00135010 0.00426828 0.00100659 0.00234400 0.00154499 0.00645179 0.00437430 0.00261915 0.00053594 0.00075239 0.00267141 0.00055507 0.00286756 0.00121118 
0.03100296 0.00204882 0.00137145 0.00425850 0.00101053 0.00233375 0.00152658 0.00645051 0.00461132 0.00262913 0.00052859 0.00075519 0.00265543 0.00054333 0.00281617 0.00120945 
0.03078586 0.00203774 0.00139228 0.00424400 0.00101416 0.00232381 0.00150845 0.00644234 0.00485351 0.00263897 0.00052260 0.00075906 0.00263829 0.00053168 0.00276483 0.00120783 
0.03059306 0.00202366 0.00141247 0.00422484 0.00101746 0.00231420 0.00149076 0.00642737 0.00510000 0.00264870 0.00051801 0.00076399 0.00262006 0.00052018 0.00271375 0.00120632 
0.03042482 0.00200663 0.00143195 0.00420112 0.00102043 0.00230493 0.00147368 0.00640574 0.00534991 0.00265834 0.00051486 0.00076992 0.00260079 0.00050887 0.00266314 0.00120494 
0.03028135 0.00198672 0.00145060 0.00417295 0.00102305 0.00229601 0.00145734 0.00637759 0.00560236 0.00266790 0.00051320 0.00077682 0.00258057 0.00049780 0.00261320 0.00120369 
0.03016282 0.00196401 0.00146835 0.00414043 0.00102530 0.00228743 0.00144192 0.00634310 0.00585648 0.00267739 0.00051305 0.00078463 0.00255948 0.00048702 0.00256411 0.00120258 
0.03006935 0.00193862 0.00148511 0.00410371 0.00102718 0.00227921 0.00142757 0.00630247 0.00611142 0.00268680 0.00051445 0.00079329 0.00253761 0.00047657 0.00251604 0.00120161 
0.03000104 0.00191068 0.00150084 0.00406292 0.00102868 0.00227134 0.00141444 0.00625595 0.00636633 0.00269613 0.00051743 0.00080274 0.00251504 0.00046648 0.00246916 0.00120079 
0.02995793 0.00188033 0.00151546 0.00401821 0.00102980 0.00226384 0.00140269 0.00620376 0.00662039 0.00270539 0.00052199 0.00081291 0.00249188 0.00045680 0.00242362 0.00120013 
0.02994006 0.00184776 0.00152893 0.00396977 0.00103054 0.00225669 0.00139247 0.00614620 0.00687284 0.00271456 0.00052816 0.00082374 0.00246823 0.00044755 0.00237956 0.00119962 
0.02994743 0.00181315 0.00154123 0.00391775 0.00103090 0.00224991 0.00138392 0.00608356 0.00712294 0.00272364 0.00053595 0.00083515 0.00244420 0.00043877 0.00233709 0.00119927 
0.02998004 0.00177673 0.00155235 0.00386235 0.00103090 0.00224349 0.00137718 0.00601615 0.00737001 0.00273260 0.00054536 0.00084707 0.00241987 0.00043047 0.00229634 0.00119909 
0.03003783 0.00173872 0.00156229 0.00380377 0.00103052 0.00223743 0.00137238 0.00594430 0.00761342 0.00274145 0.00055639 0.00085940 0.00239538 0.00042269 0.00225739 0.00119907 
0.03012076 0.00169938 0.00157106 0.00374220 0.00102980 0.00223173 0.00136966 0.00586838 0.00785262 0.00275015 0.00056903 0.00087209 0.00237083 0.00041543 0.00222033 0.00119923 
0.03022876 0.00165898 0.00157871 0.00367787 0.00102874 0.00222639 0.00136911 0.00578874 0.00808712 0.00275869 0.00058328 0.00088503 0.00234632 0.00040872 0.00218523 0.00119955 
0.03036175 0.00161781 0.00158529 0.00361099 0.00102735 0.00222141 0.00137086 0.00570576 0.00831650 0.00276705 0.00059911 0.00089815 0.00232198 0.00040257 0.00215215 0.00120005 
0.03051962 0.00157616 0.00159088 0.00354179 0.00102567 0.00221679 0.00137499 0.00561984 0.00854046 0.00277521 0.00061651 0.00091136 0.00229790 0.00039698 0.00212112 0.00120071 
0.03070226 0.00153436 0.00159558 0.00347050 0.00102371 0.00221251 0.00138159 0.00553138 0.00875873 0.00278314 0.00063544 0.00092457 0.00227421 0.00039196 0.00209219 0.00120154 
0.03090952 0.00149274 0.00159951 0.00339735 0.00102151 0.00220858 0.00139073 0.00544079 0.00897118 0.00279081 0.00065587 0.00093771 0.00225100 0.00038751 0.00206535 0.00120254 
0.03114125 0.00145164 0.00160281 0.00332258 0.00101907 0.00220499 0.00140246 0.00534847 0.00917776 0.00279821 0.00067777 0.00095069 0.00222837 0.00038362 0.00204063 0.00120371 
0.03139725 0.00141141 0.00160564 0.00324643 0.00101645 0.00220174 0.00141685 0.00525485 0.00937850 0.00280530 0.00070109 0.00096343 0.00220644 0.00038030 0.00201802 0.00120504 
0.03167733 0.00137240 0.00160818 0.00316915 0.00101367 0.00219881 0.00143390 0.00516035 0.00957356 0.00281206 0.00072577 0.00097584 0.00218529 0.00037754 0.00199749 0.00120652 
0.03198122 0.00133499 0.00161065 0.00309097 0.00101076 0.00219620 0.00145364 0.00506537 0.00976319 0.00281845 0.00075178 0.00098785 0.00216501 0.00037532 0.00197902 0.00120816 
0.03230865 0.00129953 0.00161327 0.00301213 0.00100776 0.00219390 0.00147607 0.00497034 0.00994773 0.00282446 0.00077905 0.00099939 0.00214569 0.00037362 0.00196257 0.00120995 
0.03265928 0.00126639 0.00161630 0.00293288 0.00100472 0.00219190 0.00150117 0.00487565 0.01012763 0.00283004 0.00080751 0.00101038 0.00212739 0.00037244 0.00194809 0.00121188 
0.03303276 0.00123595 0.00162000 0.00285346 0.00100166 0.00219019 0.00152891 0.00478172 0.01030344 0.00283518 0.00083709 0.00102076 0.00211020 0.00037176 0.00193552 0.00121395 
0.03342865 0.00120857 0.00162467 0.00277409 0.00099864 0.00218875 0.00155924 0.00468892 0.01047581 0.00283983 0.00086773 0.00103045 0.00209416 0.00037155 0.00192481 0.00121615 
0.03384646 0.00118460 0.00163062 0.00269501 0.00099568 0.00218758 0.00159209 0.00459764 0.01064548 0.00284397 0.00089935 0.00103941 0.00207934 0.00037179 0.00191588 0.00121847 
0.03428566 0.00116440 0.00163819 0.00261645 0.00099284 0.00218666 0.00162738 0.00450823 0.01081329 0.00284757 0.00093187 0.00104757 0.00206577 0.00037246 0.00190866 0.00122091 
0.03474562 0.00114831 0.00164772 0.00253863 0.00099016 0.00218598 0.00166502 0.00442104 0.01098014 0.00285060 0.00096520 0.00105488 0.00205350 0.00037353 0.00190305 0.00122345 
0.03522565 0.00113664 0.00165957 0.00246175 0.00098768 0.00218552 0.00170488 0.00433641 0.01114704 0.00285302 0.00099926 0.00106130 0.00204254 0.00037498 0.00189898 0.00122609 
0.03572499 0.00112973 0.00167414 0.00238603 0.00098544 0.00218526 0.00174685 0.00425463 0.01131506 0.00285481 0.00103396 0.00106680 0.00203291 0.00037678 0.00189635 0.00122882 
0.03624277 0.00112786 0.00169182 0.00231168 0.00098349 0.00218519 0.00179077 0.00417599 0.01148533 0.00285592 0.00106921 0.00107132 0.00202461 0.00037890 0.00189507 0.00123163 
0.03677805 0.00113130 0.00171301 0.00223887 0.00098187 0.00218528 0.00183650 0.00410076 0.01165903 0.00285634 0.00110491 0.00107486 0.00201765 0.00038131 0.00189504 0.00123452 
0.03732981 0.00114032 0.00173813 0.00216779 0.00098061 0.00218554 0.00188385 0.00402917 0.01183741 0.00285602 0.00114098 0.00107738 0.00201200 0.00038398 0.00189616 0.00123746 
0.03789690 0.00115513 0.00176762 0.00209862 0.00097976 0.00218592 0.00193265 0.00396143 0.01202175 0.00285494 0.00117730 0.00107887 0.00200763 0.00038689 0.00189833 0.00124045 
0.03847810 0.00117595 0.00180190 0.00203153 0.00097935 0.00218643 0.00198271 0.00389773 0.01221335 0.00285307 0.00121380 0.00107933 0.00200452 0.00039001 0.00190145 0.00124348 
0.03907208 0.00120294 0.00184141 0.00196667 0.00097942 0.00218703 0.00203380 0.00383822 0.01241353 0.00285036 0.00125036 0.00107874 0.00200261 0.00039331 0.00190543 0.00124654 
0.03967741 0.00123626 0.00188660 0.00190419 0.00098001 0.00218771 0.00208574 0.00378303 0.01262361 0.00284680 0.00128690 0.00107710 0.00200187 0.00039676 0.00191016 0.00124962 
0.04029258 0.00127601 0.00193790 0.00184422 0.00098114 0.00218845 0.00213828 0.00373226 0.01284493 0.00284234 0.00132332 0.00107444 0.00200221 0.00040033 0.00191555 0.00125271 
0.04091595 0.00132228 0.00199574 0.00178688 0.00098285 0.00218923 0.00219121 0.00368598 0.01307879 0.00283696 0.00135952 0.00107077 0.00200357 0.00040401 0.00192150 0.00125580 
0.04154582 0.00137511 0.00206057 0.00173231 0.00098516 0.00219005 0.00224429 0.00364421 0.01332647 0.00283063 0.00139541 0.00106609 0.00200588 0.00040776 0.00192792 0.00125887 
0.04218036 0.00143451 0.00213280 0.00168059 0.00098809 0.00219087 0.00229730 0.00360698 0.01358918 0.00282332 0.00143091 0.00106046 0.00200904 0.00041157 0.00193473 0.00126193 
0.04281769 0.00150046 0.00221285 0.00163183 0.00099167 0.00219169 0.00234999 0.00357425 0.01386813 0.00281501 0.00146592 0.00105389 0.00201297 0.00041542 0.00194184 0.00126495 
0.04345582 0.00157290 0.00230113 0.00158611 0.00099590 0.00219250 0.00240214 0.00354597 0.01416442 0.00280566 0.00150037 0.00104643 0.00201757 0.00041928 0.00194917 0.00126794 
0.04409272 0.00165171 0.00239800 0.00154351 0.00100081 0.00219328 0.00245350 0.00352206 0.01447908 0.00279525 0.00153416 0.00103812 0.00202274 0.00042314 0.00195664 0.00127087 
0.04472626 0.00173677 0.00250386 0.00150409 0.00100640 0.00219401 0.00250387 0.00350241 0.01481307 0.00278376 0.00156723 0.00102901 0.00202838 0.00042698 0.00196419 0.00127375 
0.04535428 0.00182789 0.00261903 0.00146791 0.00101267 0.00219470 0.00255301 0.00348688 0.01516723 0.00277117 0.00159951 0.00101916 0.00203438 0.00043079 0.00197175 0.00127656 
0.04597456 0.00192487 0.00274386 0.00143501 0.00101964 0.00219533 0.00260071 0.00347530 0.01554229 0.00275746 0.00163092 0.00100862 0.00204063 0.00043457 0.00197926 0.00127930 
0.04658484 0.00202744 0.00287863 0.00140543 0.00102728 0.00219590 0.00264678 0.00346748 0.01593888 0.00274262 0.00166140 0.00099747 0.00204703 0.00043830 0.00198667 0.00128195 
0.04718287 0.00213532 0.00302362 0.00137920 0.00103561 0.00219641 0.00269103 0.00346321 0.01635747 0.00272663 0.00169091 0.00098577 0.00205346 0.00044197 0.00199392 0.00128452 
0.04776637 0.00224819 0.00317907 0.00135634 0.00104460 0.00219685 0.00273328 0.00346225 0.01679842 0.00270949 0.00171938 0.00097359 0.00205983 0.00044558 0.00200098 0.00128699 
0.04833306 0.00236569 0.00334520 0.00133686 0.00105425 0.00219724 0.00277338 0.00346434 0.01726191 0.00269119 0.00174678 0.00096102 0.00206604 0.00044914 0.00200780 0.00128935 
0.04888070 0.00248743 0.00352217 0.00132076 0.00106452 0.00219756 0.00281119 0.00346920 0.01774800 0.00267174 0.00177307 0.00094812 0.00207198 0.00045263 0.00201436 0.00129161 
0.04940709 0.00261298 0.00371012 0.00130804 0.00107540 0.00219784 0.00284658 0.00347655 0.01825658 0.00265114 0.00179822 0.00093498 0.00207758 0.00045607 0.00202063 0.00129376 
0.04991008 0.00274189 0.00390916 0.00129869 0.00108687 0.00219808 0.00287947 0.00348607 0.01878736 0.00262939 0.00182220 0.00092168 0.00208273 0.00045945 0.00202659 0.00129580 
0.05038758 0.00287369 0.00411934 0.00129268 0.00109888 0.00219830 0.00290977 0.00349744 0.01933991 0.00260652 0.00184501 0.00090832 0.00208738 0.00046279 0.00203223 0.00129771 
0.05083761 0.00300787 0.00434069 0.00129001 0.00111140 0.00219850 0.00293744 0.00351034 0.01991362 0.00258254 0.00186662 0.00089497 0.00209145 0.00046610 0.00203753 0.00129950 
0.05125829 0.00314391 0.00457318 0.00129062 0.00112439 0.00219872 0.00296246 0.00352443 0.02050771 0.00255749 0.00188704 0.00088173 0.00209489 0.00046937 0.00204250 0.00130117 
0.05164788 0.00328126 0.00481675 0.00129449 0.00113782 0.00219896 0.00298482 0.00353937 0.02112124 0.00253140 0.00190628 0.00086869 0.00209765 0.00047264 0.00204713 0.00130271 
0.05200475 0.00341937 0.00507128 0.00130158 0.00115162 0.00219926 0.00300456 0.00355482 0.02175310 0.00250431 0.00192434 0.00085593 0.00209970 0.00047590 0.00205143 0.00130413 
0.05232747 0.00355766 0.00533661 0.00131183 0.00116576 0.00219964 0.00302173 0.00357043 0.02240200 0.00247626 0.00194124 0.00084354 0.00210101 0.00047919 0.00205540 0.00130542 
0.05261476 0.00369554 0.00561254 0.00132520 0.00118018 0.00220014 0.00303644 0.00358587 0.02306653 0.00244731 0.00195702 0.00083162 0.00210159 0.00048251 0.00205907 0.00130658 
0.05286556 0.00383244 0.00589881 0.00134162 0.00119482 0.00220077 0.00304879 0.00360080 0.02374510 0.00241753 0.00197169 0.00082025 0.00210143 0.00048588 0.00206244 0.00130761 
0.05307900 0.00396775 0.00619514 0.00136104 0.00120963 0.00220158 0.00305895 0.00361490 0.02443598 0.00238697 0.00198531 0.00080952 0.00210056 0.00048932 0.00206554 0.00130852 
0.05325445 0.00410090 0.00650116 0.00138339 0.00122454 0.00220260 0.00306709 0.00362786 0.02513732 0.00235573 0.00199791 0.00079951 0.00209902 0.00049286 0.00206839 0.00130931 
0.05339152 0.00423129 0.00681648 0.00140859 0.00123949 0.00220387 0.00307343 0.00363938 0.02584713 0.00232388 0.00200954 0.00079030 0.00209685 0.00049652 0.00207101 0.00130998 
0.05349007 0.00435834 0.00714067 0.00143658 0.00125442 0.00220543 0.00307820 0.00364918 0.02656331 0.00229152 0.00202027 0.00078197 0.00209414 0.00050031 0.00207343 0.00131054 
0.05355023 0.00448150 0.00747324 0.00146728 0.00126926 0.00220731 0.00308169 0.00365701 0.02728366 0.00225875 0.00203015 0.00077459 0.00209095 0.00050426 0.00207567 0.00131098 
0.05357240 0.00460021 0.00781366 0.00150061 0.00128394 0.00220955 0.00308418 0.00366262 0.02800591 0.00222567 0.00203925 0.00076825 0.00208739 0.00050839 0.00207777 0.00131132 
0.05355729 0.00471395 0.00816134 0.00153647 0.00129840 0.00221221 0.00308603 0.00366580 0.02872769 0.00219239 0.00204763 0.00076300 0.00208358 0.00051273 0.00207975 0.00131156 
0.05350587 0.00482220 0.00851568 0.00157479 0.00131256 0.00221531 0.00308757 0.00366636 0.02944659 0.00215905 0.00205538 0.00075891 0.00207964 0.00051729 0.00208164 0.00131170 
0.05341942 0.00492449 0.00887600 0.00161546 0.00132636 0.00221891 0.00308920 0.00366415 0.03016016 0.00212576 0.00206256 0.00075603 0.00207572 0.00052210 0.00208348 0.00131175 
0.05329954 0.00502037 0.00924162 0.00165840 0.00133973 0.00222303 0.00309131 0.00365903 0.03086592 0.00209267 0.00206925 0.00075443 0.00207198 0.00052717 0.00208528 0.00131171 
0.05314812 0.00510941 0.00961178 0.00170350 0.00135260 0.00222772 0.00309435 0.00365092 0.03156139 0.00205990 0.00207554 0.00075414 0.00206860 0.00053254 0.00208707 0.00131160 
0.05296734 0.00519125 0.00998572 0.00175066 0.00136491 0.00223302 0.00309875 0.00363974 0.03224410 0.00202762 0.00208151 0.00075522 0.00206575 0.00053821 0.00208889 0.00131142 
0.05275970 0.00526554 0.01036262 0.00179977 0.00137658 0.00223897 0.00310498 0.00362548 0.03291160 0.00199596 0.00208724 0.00075769 0.00206364 0.00054422 0.00209074 0.00131118 
0.05252799 0.00533198 0.01074165 0.00185073 0.00138755 0.00224560 0.00311352 0.00360814 0.03356152 0.00196509 0.00209281 0.00076159 0.00206248 0.00055056 0.00209266 0.00131088 
0.05227528 0.00539031 0.01112194 0.00190342 0.00139777 0.00225294 0.00312487 0.00358777 0.03419152 0.00193516 0.00209830 0.00076694 0.00206247 0.00055726 0.00209465 0.00131053 
0.05200494 0.00544033 0.01150260 0.00195771 0.00140717 0.00226102 0.00313954 0.00356446 0.03479938 0.00190633 0.00210381 0.00077375 0.00206385 0.00056433 0.00209674 0.00131015 
0.05172058 0.00548188 0.01188269 0.00201350 0.00141570 0.00226987 0.00315802 0.00353833 0.03538295 0.00187877 0.00210940 0.00078204 0.00206686 0.00057178 0.00209893 0.00130974 
0.05142607 0.00551484 0.01226129 0.00207065 0.00142329 0.00227951 0.00318083 0.00350954 0.03594023 0.00185264 0.00211516 0.00079181 0.00207172 0.00057963 0.00210123 0.00130931 
0.05112554 0.00553916 0.01263745 0.00212904 0.00142990 0.00228996 0.00320850 0.00347831 0.03646934 0.00182811 0.00212117 0.00080305 0.00207869 0.00058787 0.00210365 0.00130886 
0.05082330 0.00555484 0.01301018 0.00218852 0.00143548 0.00230125 0.00324152 0.00344486 0.03696857 0.00180535 0.00212749 0.00081575 0.00208800 0.00059651 0.00210618 0.00130841 
0.05052389 0.00556191 0.01337852 0.00224898 0.00143999 0.00231337 0.00328042 0.00340949 0.03743636 0.00178451 0.00213420 0.00082989 0.00209990 0.00060556 0.00210883 0.00130796 
0.05023199 0.00556049 0.01374147 0.00231025 0.00144339 0.00232634 0.00332567 0.00337250 0.03787134 0.00176577 0.00214135 0.00084545 0.00211464 0.00061502 0.00211157 0.00130753 
0.04995245 0.00555072 0.01409805 0.00237221 0.00144563 0.00234015 0.00337778 0.00333424 0.03827236 0.00174928 0.00214903 0.00086238 0.00213245 0.00062488 0.00211441 0.00130712 
0.04969025 0.00553282 0.01444726 0.00243470 0.00144669 0.00235482 0.00343719 0.00329510 0.03863844 0.00173520 0.00215727 0.00088064 0.00215357 0.00063513 0.00211732 0.00130674 
0.04945043 0.00550705 0.01478813 0.00249757 0.00144654 0.00237032 0.00350437 0.00325551 0.03896885 0.00172368 0.00216613 0.00090019 0.00217822 0.00064578 0.00212028 0.00130640 
0.04923812 0.00547372 0.01511966 0.00256067 0.00144516 0.00238665 0.00357972 0.00321591 0.03926307 0.00171486 0.00217566 0.00092096 0.00220664 0.00065680 0.00212328 0.00130611 
0.04905847 0.00543319 0.01544090 0.00262383 0.00144254 0.00240378 0.00366366 0.00317678 0.03952083 0.00170888 0.00218589 0.00094290 0.00223903 0.00066818 0.00212627 0.00130587 
0.04891662 0.00538588 0.01575089 0.00268691 0.00143865 0.00242171 0.00375654 0.00313862 0.03974208 0.00170589 0.00219686 0.00096592 0.00227558 0.00067991 0.00212923 0.00130570 
0.04881768 0.00533225 0.01604870 0.00274972 0.00143349 0.00244039 0.00385870 0.00310197 0.03992704 0.00170599 0.00220860 0.00098996 0.00231648 0.00069197 0.00213213 0.00130559 
0.04876669 0.00527280 0.01633341 0.00281211 0.00142707 0.00245979 0.00397043 0.00306737 0.04007617 0.00170930 0.00222113 0.00101492 0.00236190 0.00070433 0.00213492 0.00130556 
0.04876856 0.00520809 0.01660414 0.00287391 0.00141937 0.00247989 0.00409199 0.00303540 0.04019017 0.00171593 0.00223446 0.00104071 0.00241198 0.00071698 0.00213757 0.00130562 
0.04882809 0.00513869 0.01686004 0.00293495 0.00141042 0.00250062 0.00422359 0.00300662 0.04026999 0.00172597 0.00224860 0.00106723 0.00246686 0.00072987 0.00214003 0.00130576 
0.04894987 0.00506524 0.01710028 0.00299506 0.00140023 0.00252196 0.00436541 0.00298164 0.04031682 0.00173951 0.00226355 0.00109439 0.00252666 0.00074298 0.00214225 0.00130601 
0.04913828 0.00498838 0.01732407 0.00305406 0.00138881 0.00254384 0.00451756 0.00296105 0.04033209 0.00175660 0.00227931 0.00112207 0.00259145 0.00075628 0.00214418 0.00130635 
0.04939744 0.00490881 0.01753067 0.00311179 0.00137619 0.00256620 0.00468011 0.00294546 0.04031748 0.00177731 0.00229586 0.00115015 0.00266130 0.00076973 0.00214579 0.00130680 
0.04973119 0.00482724 0.01771938 0.00316807 0.00136240 0.00258900 0.00485309 0.00293547 0.04027487 0.00180167 0.00231318 0.00117852 0.00273626 0.00078330 0.00214701 0.00130736 
0.05014304 0.00474440 0.01788953 0.00322274 0.00134747 0.00261216 0.00503647 0.00293168 0.04020635 0.00182973 0.00233126 0.00120706 0.00281633 0.00079693 0.00214780 0.00130803 
0.05063613 0.00466105 0.01804053 0.00327562 0.00133145 0.00263562 0.00523016 0.00293467 0.04011423 0.00186148 0.00235004 0.00123563 0.00290152 0.00081060 0.00214811 0.00130882 
0.05121323 0.00457795 0.01817181 0.00332655 0.00131437 0.00265932 0.00543401 0.00294503 0.04000098 0.00189693 0.00236951 0.00126412 0.00299178 0.00082425 0.00214789 0.00130973 
0.05187668 0.00449587 0.01828287 0.00337536 0.00129628 0.00268317 0.00564782 0.00296332 0.03986928 0.00193606 0.00238961 0.00129239 0.00308705 0.00083784 0.00214709 0.00131076 
0.05262837 0.00441560 0.01837328 0.00342190 0.00127725 0.00270711 0.00587135 0.00299007 0.03972193 0.00197885 0.00241030 0.00132030 0.00318724 0.00085132 0.00214566 0.00131192 
0.05346971 0.00433791 0.01844265 0.00346601 0.00125731 0.00273106 0.00610429 0.00302580 0.03956187 0.00202524 0.00243152 0.00134773 0.00329221 0.00086464 0.00214356 0.00131319 
0.05440161 0.00426359 0.01849067 0.00350754 0.00123655 0.00275495 0.00634625 0.00307100 0.03939219 0.00207516 0.00245320 0.00137455 0.00340183 0.00087776 0.00214076 0.00131460 
0.05542448 0.00419339 0.01851706 0.00354634 0.00121501 0.00277870 0.00659682 0.00312612 0.03921603 0.00212855 0.00247530 0.00140062 0.00351592 0.00089061 0.00213720 0.00131612 
0.05653816 0.00412808 0.01852166 0.00358228 0.00119277 0.00280223 0.00685553 0.00319158 0.03903664 0.00218531 0.00249773 0.00142580 0.00363426 0.00090315 0.00213286 0.00131777 
0.05774195 0.00406838 0.01850432 0.00361522 0.00116989 0.00282547 0.00712184 0.00326776 0.03885732 0.00224532 0.00252043 0.00144998 0.00375663 0.00091533 0.00212770 0.00131954 
0.05903460 0.00401503 0.01846501 0.00364506 0.00114645 0.00284836 0.00739517 0.00335499 0.03868140 0.00230847 0.00254331 0.00147303 0.00388277 0.00092708 0.00212171 0.00132142 
0.06041426 0.00396870 0.01840373 0.00367166 0.00112253 0.00287081 0.00767488 0.00345355 0.03851222 0.00237460 0.00256631 0.00149483 0.00401239 0.00093837 0.00211485 0.00132342 
0.06187852 0.00393006 0.01832058 0.00369494 0.00109820 0.00289275 0.00796029 0.00356370 0.03835310 0.00244358 0.00258934 0.00151525 0.00414517 0.00094913 0.00210713 0.00132553 
0.06342437 0.00389973 0.01821571 0.00371479 0.00107353 0.00291413 0.00825069 0.00368560 0.03820734 0.00251523 0.00261231 0.00153420 0.00428078 0.00095932 0.00209851 0.00132774 
0.06504825 0.00387831 0.01808935 0.00373113 0.00104862 0.00293487 0.00854531 0.00381939 0.03807817 0.00258937 0.00263515 0.00155156 0.00441887 0.00096888 0.00208901 0.00133006 
0.06674601 0.00386635 0.01794181 0.00374391 0.00102354 0.00295492 0.00884334 0.00396514 0.03796874 0.00266581 0.00265776 0.00156724 0.00455905 0.00097777 0.00207863 0.00133247 
0.06851295 0.00386434 0.01777347 0.00375305 0.00099837 0.00297422 0.00914394 0.00412287 0.03788210 0.00274434 0.00268006 0.00158116 0.00470092 0.00098594 0.00206737 0.00133496 
0.07034383 0.00387276 0.01758476 0.00375851 0.00097319 0.00299272 0.00944626 0.00429253 0.03782118 0.00282475 0.00270196 0.00159322 0.00484408 0.00099334 0.00205526 0.00133754 
0.07223287 0.00389200 0.01737621 0.00376027 0.00094808 0.00301037 0.00974938 0.00447400 0.03778875 0.00290681 0.00272338 0.00160337 0.00498807 0.00099992 0.00204231 0.00134019 
0.07417381 0.00392244 0.01714840 0.00375831 0.00092313 0.00302714 0.01005241 0.00466711 0.03778742 0.00299029 0.00274424 0.00161153 0.00513246 0.00100565 0.00202856 0.00134290 
0.07615990 0.00396437 0.01690198 0.00375261 0.00089840 0.00304299 0.01035441 0.00487163 0.03781962 0.00307495 0.00276444 0.00161768 0.00527678 0.00101049 0.00201405 0.00134567 
0.07818395 0.00401806 0.01663767 0.00374321 0.00087399 0.00305788 0.01065444 0.00508726 0.03788758 0.00316053 0.00278391 0.00162176 0.00542057 0.00101440 0.00199882 0.00134848 
0.08023836 0.00408368 0.01635627 0.00373011 0.00084997 0.00307180 0.01095153 0.00531363 0.03799329 0.00324679 0.00280257 0.00162375 0.00556336 0.00101735 0.00198292 0.00135134 
0.08231516 0.00416139 0.01605862 0.00371337 0.00082641 0.00308473 0.01124475 0.00555031 0.03813853 0.00333345 0.00282035 0.00162365 0.00570465 0.00101931 0.00196641 0.00135422 
0.08440604 0.00425127 0.01574562 0.00369304 0.00080338 0.00309666 0.01153314 0.00579681 0.03832482 0.00342026 0.00283716 0.00162146 0.00584396 0.00102025 0.00194936 0.00135711 
0.08650241 0.00435333 0.01541824 0.00366920 0.00078095 0.00310758 0.01181577 0.00605259 0.03855342 0.00350695 0.00285295 0.00161720 0.00598081 0.00102016 0.00193184 0.00136002 
0.08859545 0.00446754 0.01507751 0.00364193 0.00075919 0.00311749 0.01209169 0.00631704 0.03882532 0.00359326 0.00286765 0.00161089 0.00611472 0.00101902 0.00191393 0.00136292 
0.09067614 0.00459381 0.01472449 0.00361133 0.00073816 0.00312640 0.01236002 0.00658949 0.03914123 0.00367891 0.00288120 0.00160259 0.00624520 0.00101682 0.00189570 0.00136580 
0.09273531 0.00473199 0.01436029 0.00357752 0.00071792 0.00313434 0.01261986 0.00686923 0.03950158 0.00376363 0.00289355 0.00159235 0.00637180 0.00101354 0.00187725 0.00136866 
0.09476372 0.00488187 0.01398610 0.00354064 0.00069852 0.00314131 0.01287037 0.00715547 0.03990651 0.00384717 0.00290464 0.00158027 0.00649404 0.00100919 0.00185867 0.00137149 
0.09675209 0.00504320 0.01360309 0.00350083 0.00068002 0.00314734 0.01311072 0.00744742 0.04035585 0.00392927 0.00291444 0.00156642 0.00661147 0.00100377 0.00184006 0.00137426 
0.09869120 0.00521566 0.01321252 0.00345825 0.00066247 0.00315247 0.01334013 0.00774419 0.04084917 0.00400966 0.00292290 0.00155093 0.00672367 0.00099729 0.00182152 0.00137698 
0.10057186 0.00539890 0.01281566 0.00341308 0.00064591 0.00315673 0.01355788 0.00804489 0.04138571 0.00408810 0.00293000 0.00153391 0.00683021 0.00098976 0.00180315 0.00137962 
0.10238506 0.00559249 0.01241379 0.00336550 0.00063037 0.00316017 0.01376329 0.00834859 0.04196446 0.00416434 0.00293572 0.00151551 0.00693069 0.00098120 0.00178506 0.00138219 
0.10412199 0.00579600 0.01200825 0.00331572 0.00061590 0.00316283 0.01395571 0.00865430 0.04258409 0.00423815 0.00294003 0.00149589 0.00702474 0.00097164 0.00176737 0.00138466 
0.10577407 0.00600891 0.01160035 0.00326394 0.00060251 0.00316477 0.01413457 0.00896103 0.04324302 0.00430931 0.00294293 0.00147521 0.00711201 0.00096110 0.00175017 0.00138703 
0.10733308 0.00623069 0.01119146 0.00321037 0.00059025 0.00316604 0.01429937 0.00926777 0.04393938 0.00437759 0.00294442 0.00145365 0.00719215 0.00094963 0.00173359 0.00138930 
0.10879113 0.00646076 0.01078293 0.00315527 0.00057912 0.00316669 0.01444964 0.00957346 0.04467108 0.00444280 0.00294449 0.00143143 0.00726488 0.00093727 0.00171772 0.00139144 
0.11014077 0.00669852 0.01037610 0.00309885 0.00056914 0.00316681 0.01458502 0.00987707 0.04543575 0.00450474 0.00294318 0.00140874 0.00732991 0.00092405 0.00170269 0.00139345 
0.11137503 0.00694333 0.00997234 0.00304137 0.00056032 0.00316644 0.01470519 0.01017753 0.04623080 0.00456324 0.00294048 0.00138583 0.00738701 0.00091004 0.00168860 0.00139532 
0.11248748 0.00719453 0.00957298 0.00298308 0.00055267 0.00316566 0.01480991 0.01047378 0.04705343 0.00461812 0.00293644 0.00136291 0.00743596 0.00089530 0.00167555 0.00139704 
0.11347223 0.00745142 0.00917936 0.00292423 0.00054620 0.00316453 0.01489900 0.01076477 0.04790065 0.00466925 0.00293109 0.00134025 0.00747657 0.00087989 0.00166365 0.00139862 
0.11432403 0.00771331 0.00879278 0.00286510 0.00054089 0.00316312 0.01497238 0.01104946 0.04876929 0.00471647 0.00292447 0.00131809 0.00750872 0.00086387 0.00165300 0.00140003 
0.11503830 0.00797948 0.00841452 0.00280593 0.00053673 0.00316151 0.01503004 0.01132680 0.04965602 0.00475968 0.00291663 0.00129670 0.00753228 0.00084732 0.00164369 0.00140127 
0.11561113 0.00824919 0.00804583 0.00274701 0.00053373 0.00315976 0.01507201 0.01159580 0.05055736 0.00479877 0.00290762 0.00127636 0.00754718 0.00083033 0.00163582 0.00140234 
0.11603936 0.00852171 0.00768794 0.00268860 0.00053185 0.00315794 0.01509845 0.01185546 0.05146974 0.00483366 0.00289752 0.00125734 0.00755337 0.00081296 0.00162946 0.00140323 
0.11632058 0.00879629 0.00734200 0.00263096 0.00053108 0.00315612 0.01510955 0.01210484 0.05238949 0.00486427 0.00288640 0.00123993 0.00755087 0.00079532 0.00162470 0.00140395 
0.11645315 0.00907221 0.00700914 0.00257435 0.00053140 0.00315437 0.01510560 0.01234300 0.05331285 0.00489055 0.00287432 0.00122441 0.00753969 0.00077748 0.00162160 0.00140448 
0.11643624 0.00934872 0.00669045 0.00251904 0.00053277 0.00315274 0.01508694 0.01256908 0.05423604 0.00491247 0.00286138 0.00121106 0.00751991 0.00075955 0.00162024 0.00140482 
0.11626983 0.00962509 0.00638692 0.00246527 0.00053517 0.00315130 0.01505400 0.01278223 0.05515526 0.00493002 0.00284766 0.00120019 0.00749163 0.00074163 0.00162066 0.00140497 
0.11595473 0.00990060 0.00609953 0.00241331 0.00053856 0.00315011 0.01500726 0.01298168 0.05606669 0.00494319 0.00283326 0.00119206 0.00745498 0.00072380 0.00162291 0.00140494 
0.11549255 0.01017456 0.00582915 0.00236338 0.00054290 0.00314922 0.01494728 0.01316670 0.05696656 0.00495201 0.00281828 0.00118698 0.00741015 0.00070618 0.00162704 0.00140472 
0.11488575 0.01044627 0.00557661 0.00231573 0.00054816 0.00314868 0.01487466 0.01333660 0.05785113 0.00495651 0.00280282 0.00118521 0.00735733 0.00068886 0.00163308 0.00140431 
0.11413760 0.01071507 0.00534265 0.00227057 0.00055428 0.00314852 0.01479007 0.01349077 0.05871676 0.00495674 0.00278699 0.00118702 0.00729678 0.00067195 0.00164104 0.00140371 
0.11325215 0.01098031 0.00512794 0.00222810 0.00056122 0.00314880 0.01469423 0.01362867 0.05955988 0.00495277 0.00277090 0.00119268 0.00722874 0.00065556 0.00165093 0.00140293 
0.11223426 0.01124138 0.00493306 0.00218854 0.00056894 0.00314954 0.01458790 0.01374982 0.06037705 0.00494470 0.00275466 0.00120244 0.00715354 0.00063979 0.00166276 0.00140198 
0.11108953 0.01149767 0.00475851 0.00215206 0.00057739 0.00315077 0.01447189 0.01385379 0.06116498 0.00493263 0.00273840 0.00121654 0.00707148 0.00062474 0.00167652 0.00140085 
0.10982430 0.01174862 0.00460472 0.00211883 0.00058652 0.00315252 0.01434704 0.01394025 0.06192052 0.00491667 0.00272222 0.00123520 0.00698294 0.00061052 0.00169218 0.00139955 
0.10844561 0.01199370 0.00447201 0.00208901 0.00059627 0.00315479 0.01421424 0.01400893 0.06264070 0.00489696 0.00270625 0.00125865 0.00688828 0.00059723 0.00170973 0.00139808 
0.10696116 0.01223241 0.00436061 0.00206273 0.00060660 0.00315760 0.01407437 0.01405962 0.06332277 0.00487364 0.00269061 0.00128707 0.00678790 0.00058496 0.00172912 0.00139647 
0.10537924 0.01246426 0.00427067 0.00204011 0.00061745 0.00316094 0.01392837 0.01409220 0.06396416 0.00484689 0.00267542 0.00132065 0.00668222 0.00057382 0.00175030 0.00139470 
0.10370874 0.01268884 0.00420223 0.00202125 0.00062876 0.00316482 0.01377717 0.01410663 0.06456254 0.00481686 0.00266078 0.00135953 0.00657169 0.00056390 0.00177322 0.00139279 
0.10195903 0.01290572 0.00415527 0.00200623 0.00064050 0.00316921 0.01362170 0.01410293 0.06511582 0.00478375 0.00264683 0.00140386 0.00645674 0.00055528 0.00179781 0.00139076 
0.10013998 0.01311455 0.00412963 0.00199511 0.00065259 0.00317410 0.01346293 0.01408120 0.06562216 0.00474775 0.00263367 0.00145376 0.00633786 0.00054805 0.00182399 0.00138860 
0.09826183 0.01331499 0.00412510 0.00198795 0.00066500 0.00317947 0.01330178 0.01404162 0.06607996 0.00470907 0.00262141 0.00150929 0.00621551 0.00054229 0.00185168 0.00138632 
0.09633517 0.01350674 0.00414134 0.00198475 0.00067766 0.00318527 0.01313920 0.01398442 0.06648792 0.00466792 0.00261015 0.00157055 0.00609019 0.00053807 0.00188079 0.00138395 
0.09437085 0.01368952 0.00417794 0.00198552 0.00069054 0.00319147 0.01297609 0.01390992 0.06684498 0.00462452 0.00260001 0.00163756 0.00596236 0.00053545 0.00191121 0.00138149 
0.09237994 0.01386312 0.00423441 0.00199023 0.00070358 0.00319801 0.01281336 0.01381850 0.06715035 0.00457910 0.00259108 0.00171034 0.00583254 0.00053450 0.00194284 0.00137894 
0.09037366 0.01402733 0.00431014 0.00199886 0.00071673 0.00320485 0.01265186 0.01371060 0.06740354 0.00453189 0.00258345 0.00178887 0.00570120 0.00053526 0.00197556 0.00137633 
0.08836328 0.01418199 0.00440447 0.00201133 0.00072994 0.00321192 0.01249244 0.01358674 0.06760432 0.00448313 0.00257720 0.00187311 0.00556885 0.00053779 0.00200925 0.00137367 
0.08636007 0.01432695 0.00451663 0.00202756 0.00074318 0.00321915 0.01233589 0.01344748 0.06775271 0.00443305 0.00257241 0.00196300 0.00543595 0.00054212 0.00204379 0.00137095 
0.08437523 0.01446212 0.00464578 0.00204745 0.00075641 0.00322646 0.01218297 0.01329345 0.06784904 0.00438191 0.00256916 0.00205844 0.00530299 0.00054828 0.00207904 0.00136821 
0.08241984 0.01458741 0.00479102 0.00207089 0.00076957 0.00323379 0.01203438 0.01312532 0.06789385 0.00432993 0.00256750 0.00215930 0.00517043 0.00055628 0.00211487 0.00136545 
0.08050475 0.01470278 0.00495135 0.00209771 0.00078263 0.00324104 0.01189080 0.01294380 0.06788797 0.00427736 0.00256749 0.00226542 0.00503872 0.00056614 0.00215115 0.00136268 
0.07864053 0.01480820 0.00512574 0.00212777 0.00079557 0.00324811 0.01175281 0.01274968 0.06783244 0.00422443 0.00256917 0.00237663 0.00490830 0.00057786 0.00218772 0.00135991 
0.07683740 0.01490367 0.00531307 0.00216089 0.00080833 0.00325492 0.01162098 0.01254375 0.06772854 0.00417138 0.00257259 0.00249271 0.00477959 0.00059142 0.00222446 0.00135715 
0.07510519 0.01498923 0.00551217 0.00219687 0.00082090 0.00326137 0.01149579 0.01232685 0.06757776 0.00411845 0.00257776 0.00261344 0.00465299 0.00060682 0.00226122 0.00135443 
0.07345323 0.01506492 0.00572183 0.00223549 0.00083325 0.00326735 0.01137765 0.01209986 0.06738181 0.00406584 0.00258470 0.00273854 0.00452889 0.00062401 0.00229785 0.00135174 
0.07189035 0.01513081 0.00594079 0.00227653 0.00084534 0.00327275 0.01126694 0.01186367 0.06714254 0.00401378 0.00259343 0.00286774 0.00440763 0.00064297 0.00233421 0.00134910 
0.07042478 0.01518698 0.00616775 0.00231975 0.00085717 0.00327747 0.01116396 0.01161920 0.06686201 0.00396249 0.00260393 0.00300072 0.00428955 0.00066365 0.00237017 0.00134651 
0.06906409 0.01523355 0.00640138 0.00236490 0.00086869 0.00328139 0.01106892 0.01136737 0.06654240 0.00391215 0.00261620 0.00313715 0.00417496 0.00068599 0.00240558 0.00134400 
0.06781519 0.01527064 0.00664033 0.00241170 0.00087991 0.00328440 0.01098199 0.01110914 0.06618602 0.00386297 0.00263021 0.00327668 0.00406414 0.00070992 0.00244031 0.00134156 
0.06668427 0.01529839 0.00688322 0.00245988 0.00089080 0.00328639 0.01090326 0.01084545 0.06579530 0.00381512 0.00264592 0.00341893 0.00395734 0.00073537 0.00247423 0.00133921 
0.06567671 0.01531696 0.00712867 0.00250916 0.00090134 0.00328724 0.01083278 0.01057725 0.06537275 0.00376877 0.00266330 0.00356351 0.00385479 0.00076226 0.00250721 0.00133696 
0.06479714 0.01532652 0.00737529 0.00255924 0.00091153 0.00328684 0.01077049 0.01030548 0.06492095 0.00372408 0.00268229 0.00371002 0.00375667 0.00079049 0.00253913 0.00133480 
0.06404932 0.01532724 0.00762169 0.00260982 0.00092137 0.00328509 0.01071631 0.01003110 0.06444254 0.00368120 0.00270282 0.00385803 0.00366314 0.00081996 0.00256987 0.00133276 
0.06343619 0.01531933 0.00786649 0.00266061 0.00093083 0.00328186 0.01067007 0.00975502 0.06394015 0.00364025 0.00272484 0.00400712 0.00357436 0.00085056 0.00259934 0.00133082 
0.06295980 0.01530300 0.00810834 0.00271131 0.00093992 0.00327705 0.01063155 0.00947815 0.06341645 0.00360136 0.00274825 0.00415683 0.00349040 0.00088218 0.00262742 0.00132901 
0.06262133 0.01527847 0.00834589 0.00276159 0.00094863 0.00327056 0.01060048 0.00920139 0.06287409 0.00356462 0.00277296 0.00430674 0.00341136 0.00091470 0.00265402 0.00132731 
0.06242107 0.01524598 0.00857784 0.00281117 0.00095697 0.00326229 0.01057653 0.00892560 0.06231568 0.00353013 0.00279889 0.00445637 0.00333727 0.00094799 0.00267906 0.00132575 
0.06235845 0.01520576 0.00880292 0.00285974 0.00096492 0.00325214 0.01055933 0.00865162 0.06174377 0.00349797 0.00282593 0.00460527 0.00326814 0.00098191 0.00270246 0.00132431 
0.06243199 0.01515808 0.00901989 0.00290700 0.00097250 0.00324002 0.01054844 0.00838024 0.06116087 0.00346819 0.00285396 0.00475299 0.00320396 0.00101633 0.00272416 0.00132299 
0.06263935 0.01510321 0.00922758 0.00295266 0.00097970 0.00322586 0.01054341 0.00811225 0.06056937 0.00344083 0.00288288 0.00489907 0.00314469 0.00105111 0.00274409 0.00132181 
0.06297737 0.01504144 0.00942487 0.00299644 0.00098654 0.00320957 0.01054373 0.00784837 0.05997158 0.00341594 0.00291255 0.00504306 0.00309026 0.00108610 0.00276221 0.00132076 
0.06344202 0.01497304 0.00961069 0.00303806 0.00099300 0.00319109 0.01054886 0.00758931 0.05936968 0.00339353 0.00294286 0.00518451 0.00304057 0.00112116 0.00277849 0.00131984 
0.06402852 0.01489835 0.00978405 0.00307727 0.00099910 0.00317036 0.01055826 0.00733570 0.05876573 0.00337359 0.00297368 0.00532300 0.00299551 0.00115613 0.00279288 0.00131904 
0.06473128 0.01481767 0.00994401 0.00311380 0.00100485 0.00314732 0.01057133 0.00708816 0.05816164 0.00335612 0.00300488 0.00545811 0.00295495 0.00119087 0.00280539 0.00131836 
0.06554402 0.01473136 0.01008974 0.00314742 0.00101024 0.00312193 0.01058747 0.00684725 0.05755919 0.00334110 0.00303631 0.00558941 0.00291872 0.00122524 0.00281599 0.00131781 
0.06645975 0.01463975 0.01022046 0.00317791 0.00101529 0.00309417 0.01060606 0.00661348 0.05695996 0.00332848 0.00306786 0.00571653 0.00288664 0.00125908 0.00282470 0.00131737 
0.06747088 0.01454322 0.01033549 0.00320507 0.00101999 0.00306400 0.01062648 0.00638731 0.05636541 0.00331822 0.00309937 0.00583909 0.00285853 0.00129224 0.00283152 0.00131704 
0.06856920 0.01444215 0.01043422 0.00322869 0.00102436 0.00303143 0.01064812 0.00616918 0.05577679 0.00331025 0.00313073 0.00595674 0.00283417 0.00132459 0.00283649 0.00131681 
0.06974598 0.01433695 0.01051615 0.00324861 0.00102840 0.00299644 0.01067033 0.00595943 0.05519521 0.00330449 0.00316180 0.00606914 0.00281336 0.00135599 0.00283963 0.00131668 
0.07099202 0.01422803 0.01058087 0.00326469 0.00103211 0.00295905 0.01069250 0.00575839 0.05462157 0.00330088 0.00319244 0.00617599 0.00279586 0.00138631 0.00284099 0.00131664 
0.07229771 0.01411584 0.01062804 0.00327679 0.00103549 0.00291929 0.01071404 0.00556633 0.05405662 0.00329930 0.00322254 0.00627700 0.00278143 0.00141540 0.00284062 0.00131668 
0.07365308 0.01400083 0.01065744 0.00328480 0.00103856 0.00287719 0.01073434 0.00538347 0.05350091 0.00329966 0.00325197 0.00637193 0.00276985 0.00144316 0.00283858 0.00131680 
0.07504788 0.01388347 0.01066893 0.00328863 0.00104131 0.00283279 0.01075284 0.00520998 0.05295485 0.00330185 0.00328062 0.00646054 0.00276087 0.00146947 0.00283495 0.00131698 
0.07647165 0.01376426 0.01066249 0.00328822 0.00104374 0.00278616 0.01076900 0.00504599 0.05241864 0.00330574 0.00330837 0.00654265 0.00275425 0.00149421 0.00282979 0.00131722 
0.07791376 0.01364371 0.01063817 0.00328354 0.00104586 0.00273737 0.01078228 0.00489157 0.05189237 0.00331122 0.00333512 0.00661808 0.00274975 0.00151730 0.00282320 0.00131751 
0.07936350 0.01352236 0.01059611 0.00327455 0.00104766 0.00268650 0.01079221 0.00474675 0.05137592 0.00331815 0.00336077 0.00668670 0.00274714 0.00153863 0.00281528 0.00131783 
0.08081014 0.01340076 0.01053658 0.00326127 0.00104914 0.00263365 0.01079833 0.00461153 0.05086908 0.00332640 0.00338523 0.00674841 0.00274621 0.00155813 0.00280611 0.00131819 
0.08224299 0.01327948 0.01045990 0.00324372 0.00105029 0.00257893 0.01080023 0.00448587 0.05037146 0.00333582 0.00340842 0.00680313 0.00274672 0.00157572 0.00279580 0.00131856 
0.08365151 0.01315911 0.01036650 0.00322195 0.00105113 0.00252245 0.01079752 0.00436966 0.04988257 0.00334629 0.00343028 0.00685083 0.00274849 0.00159134 0.00278446 0.00131895 
0.08502529 0.01304025 0.01025689 0.00319605 0.00105163 0.00246434 0.01078988 0.00426279 0.04940179 0.00335765 0.00345072 0.00689151 0.00275132 0.00160495 0.00277222 0.00131933 
0.08635420 0.01292352 0.01013167 0.00316610 0.00105180 0.00240475 0.01077699 0.00416509 0.04892842 0.00336977 0.00346971 0.00692519 0.00275503 0.00161651 0.00275917 0.00131971 
0.08762839 0.01280956 0.00999150 0.00313223 0.00105162 0.00234383 0.01075863 0.00407638 0.04846166 0.00338249 0.00348720 0.00695193 0.00275949 0.00162598 0.00274546 0.00132006 
0.08883838 0.01269902 0.00983713 0.00309457 0.00105110 0.00228173 0.01073457 0.00399644 0.04800064 0.00339568 0.00350315 0.00697182 0.00276454 0.00163335 0.00273119 0.00132039 
0.08997512 0.01259255 0.00966938 0.00305329 0.00105022 0.00221864 0.01070466 0.00392501 0.04754442 0.00340919 0.00351753 0.00698498 0.00277008 0.00163861 0.00271650 0.00132068 
0.09103002 0.01249083 0.00948912 0.00300856 0.00104898 0.00215471 0.01066879 0.00386182 0.04709203 0.00342289 0.00353035 0.00699156 0.00277602 0.00164178 0.00270150 0.00132093 
0.09199501 0.01239452 0.00929728 0.00296059 0.00104736 0.00209015 0.01062688 0.00380659 0.04664245 0.00343663 0.00354158 0.00699174 0.00278227 0.00164287 0.00268633 0.00132113 
0.09286258 0.01230431 0.00909486 0.00290959 0.00104536 0.00202514 0.01057891 0.00375899 0.04619466 0.00345029 0.00355124 0.00698573 0.00278881 0.00164190 0.00267111 0.00132127 
0.09362584 0.01222087 0.00888288 0.00285580 0.00104297 0.00195988 0.01052490 0.00371871 0.04574762 0.00346373 0.00355934 0.00697376 0.00279561 0.00163893 0.00265596 0.00132134 
0.09427853 0.01214489 0.00866243 0.00279947 0.00104018 0.00189457 0.01046491 0.00368539 0.04530032 0.00347684 0.00356591 0.00695609 0.00280268 0.00163400 0.00264099 0.00132134 
0.09481510 0.01207703 0.00843460 0.00274085 0.00103698 0.00182942 0.01039903 0.00365870 0.04485175 0.00348949 0.00357098 0.00693300 0.00281004 0.00162717 0.00262634 0.00132127 
0.09523066 0.01201796 0.00820054 0.00268023 0.00103336 0.00176465 0.01032741 0.00363827 0.04440094 0.00350158 0.00357458 0.00690478 0.00281777 0.00161852 0.00261210 0.00132111 
0.09552108 0.01196833 0.00796139 0.00261788 0.00102931 0.00170046 0.01025023 0.00362374 0.04394698 0.00351299 0.00357679 0.00687177 0.00282593 0.00160813 0.00259839 0.00132087 
0.09568296 0.01192878 0.00771833 0.00255410 0.00102483 0.00163707 0.01016769 0.00361473 0.04348900 0.00352363 0.00357763 0.00683429 0.00283464 0.00159609 0.00258531 0.00132054 
0.09571370 0.01189993 0.00747252 0.00248919 0.00101990 0.00157470 0.01008004 0.00361089 0.04302621 0.00353340 0.00357720 0.00679270 0.00284403 0.00158250 0.00257297 0.00132012 
0.09561142 0.01188237 0.00722514 0.00242346 0.00101454 0.00151354 0.00998755 0.00361185 0.04255789 0.00354222 0.00357554 0.00674736 0.00285426 0.00156746 0.00256144 0.00131960 
0.09537506 0.01187666 0.00697736 0.00235722 0.00100872 0.00145382 0.00989053 0.00361724 0.04208340 0.00355000 0.00357274 0.00669864 0.00286551 0.00155110 0.00255081 0.00131900 
0.09500431 0.01188334 0.00673032 0.00229079 0.00100244 0.00139575 0.00978929 0.00362671 0.04160220 0.00355669 0.00356888 0.00664694 0.00287797 0.00153352 0.00254117 0.00131830 
0.09449964 0.01190292 0.00648515 0.00222447 0.00099571 0.00133951 0.00968419 0.00363991 0.04111383 0.00356220 0.00356404 0.00659263 0.00289188 0.00151486 0.00253257 0.00131751 
0.09386228 0.01193585 0.00624295 0.00215858 0.00098853 0.00128533 0.00957557 0.00365651 0.04061796 0.00356649 0.00355830 0.00653611 0.00290746 0.00149525 0.00252508 0.00131663 
0.09309422 0.01198256 0.00600480 0.00209344 0.00098089 0.00123337 0.00946383 0.00367618 0.04011434 0.00356951 0.00355176 0.00647778 0.00292497 0.00147481 0.00251875 0.00131567 
0.09219815 0.01204341 0.00577172 0.00202934 0.00097281 0.00118384 0.00934935 0.00369860 0.03960282 0.00357121 0.00354450 0.00641802 0.00294468 0.00145370 0.00251363 0.00131462 
0.09117748 0.01211873 0.00554469 0.00196659 0.00096428 0.00113689 0.00923252 0.00372348 0.03908340 0.00357156 0.00353661 0.00635724 0.00296687 0.00143204 0.00250974 0.00131349 
0.09003632 0.01220878 0.00532466 0.00190547 0.00095532 0.00109271 0.00911376 0.00375053 0.03855614 0.00357053 0.00352817 0.00629580 0.00299182 0.00140997 0.00250711 0.00131228 
0.08877938 0.01231378 0.00511249 0.00184627 0.00094593 0.00105144 0.00899347 0.00377949 0.03802124 0.00356809 0.00351928 0.00623408 0.00301984 0.00138764 0.00250576 0.00131101 
0.08741202 0.01243387 0.00490901 0.00178926 0.00093613 0.00101323 0.00887206 0.00381009 0.03747899 0.00356423 0.00351001 0.00617247 0.00305122 0.00136519 0.00250568 0.00130967 
0.08594017 0.01256914 0.00471497 0.00173470 0.00092593 0.00097821 0.00874993 0.00384212 0.03692978 0.00355894 0.00350046 0.00611130 0.00308625 0.00134275 0.00250688 0.00130828 
0.08437028 0.01271961 0.00453105 0.00168283 0.00091535 0.00094651 0.00862749 0.00387534 0.03637411 0.00355222 0.00349068 0.00605091 0.00312525 0.00132046 0.00250934 0.00130683 
0.08270929 0.01288524 0.00435788 0.00163389 0.00090441 0.00091822 0.00850513 0.00390957 0.03581257 0.00354407 0.00348076 0.00599165 0.00316849 0.00129845 0.00251303 0.00130535 
0.08096461 0.01306591 0.00419598 0.00158808 0.00089312 0.00089344 0.00838325 0.00394462 0.03524583 0.00353449 0.00347076 0.00593381 0.00321627 0.00127685 0.00251792 0.00130384 
0.07914401 0.01326143 0.00404583 0.00154561 0.00088152 0.00087225 0.00826221 0.00398032 0.03467465 0.00352350 0.00346073 0.00587769 0.00326886 0.00125578 0.00252397 0.00130230 
0.07725565 0.01347154 0.00390781 0.00150665 0.00086963 0.00085471 0.00814238 0.00401655 0.03409986 0.00351110 0.00345074 0.00582356 0.00332651 0.00123536 0.00253113 0.00130074 
0.07530794 0.01369591 0.00378223 0.00147136 0.00085748 0.00084086 0.00802410 0.00405316 0.03352237 0.00349733 0.00344082 0.00577168 0.00338947 0.00121569 0.00253934 0.00129919 
0.07330956 0.01393413 0.00366931 0.00143988 0.00084510 0.00083074 0.00790772 0.00409005 0.03294314 0.00348220 0.00343102 0.00572226 0.00345796 0.00119690 0.00254853 0.00129763 
0.07126937 0.01418571 0.00356919 0.00141233 0.00083251 0.00082436 0.00779356 0.00412712 0.03236318 0.00346575 0.00342136 0.00567553 0.00353218 0.00117906 0.00255863 0.00129609 
0.06919637 0.01445011 0.00348195 0.00138881 0.00081976 0.00082171 0.00768190 0.00416430 0.03178354 0.00344799 0.00341186 0.00563166 0.00361230 0.00116227 0.00256954 0.00129458 
0.06709963 0.01472670 0.00340756 0.00136940 0.00080687 0.00082279 0.00757305 0.00420152 0.03120532 0.00342897 0.00340254 0.00559082 0.00369846 0.00114660 0.00258120 0.00129310 
0.06498826 0.01501478 0.00334593 0.00135414 0.00079389 0.00082755 0.00746725 0.00423874 0.03062965 0.00340872 0.00339340 0.00555314 0.00379078 0.00113214 0.00259350 0.00129167 
0.06287133 0.01531357 0.00329689 0.00134308 0.00078085 0.00083595 0.00736476 0.00427591 0.03005765 0.00338727 0.00338444 0.00551874 0.00388934 0.00111895 0.00260634 0.00129029 
0.06075784 0.01562226 0.00326019 0.00133622 0.00076779 0.00084791 0.00726580 0.00431301 0.02949049 0.00336467 0.00337564 0.00548770 0.00399418 0.00110707 0.00261961 0.00128897 
0.05865664 0.01593994 0.00323551 0.00133355 0.00075475 0.00086335 0.00717059 0.00435004 0.02892931 0.00334096 0.00336697 0.00546011 0.00410531 0.00109654 0.00263322 0.00128773 
0.05657642 0.01626565 0.00322246 0.00133505 0.00074178 0.00088218 0.00707930 0.00438697 0.02837528 0.00331617 0.00335842 0.00543599 0.00422269 0.00108742 0.00264706 0.00128657 
0.05452563 0.01659838 0.00322058 0.00134066 0.00072891 0.00090428 0.00699211 0.00442382 0.02782952 0.00329036 0.00334994 0.00541538 0.00434625 0.00107971 0.00266100 0.00128551 
0.05251243 0.01693705 0.00322936 0.00135030 0.00071618 0.00092953 0.00690917 0.00446060 0.02729316 0.00326355 0.00334148 0.00539827 0.00447588 0.00107344 0.00267494 0.00128454 
0.05054467 0.01728055 0.00324821 0.00136389 0.00070364 0.00095777 0.00683062 0.00449732 0.02676729 0.00323581 0.00333300 0.00538465 0.00461141 0.00106860 0.00268876 0.00128369 
0.04862982 0.01762772 0.00327651 0.00138130 0.00069132 0.00098886 0.00675656 0.00453400 0.02625299 0.00320718 0.00332443 0.00537447 0.00475265 0.00106520 0.00270235 0.00128295 
0.04677496 0.01797735 0.00331357 0.00140241 0.00067927 0.00102262 0.00668711 0.00457066 0.02575129 0.00317770 0.00331571 0.00536768 0.00489934 0.00106322 0.00271559 0.00128233 
0.04498673 0.01832821 0.00335866 0.00142707 0.00066753 0.00105889 0.00662233 0.00460734 0.02526319 0.00314741 0.00330676 0.00536422 0.00505119 0.00106265 0.00272838 0.00128184 
0.04327128 0.01867903 0.00341103 0.00145511 0.00065613 0.00109746 0.00656231 0.00464404 0.02478963 0.00311637 0.00329751 0.00536398 0.00520788 0.00106344 0.00274060 0.00128149 
0.04163425 0.01902853 0.00346986 0.00148634 0.00064512 0.00113814 0.00650710 0.00468080 0.02433152 0.00308462 0.00328787 0.00536686 0.00536902 0.00106557 0.00275216 0.00128128 
0.04008077 0.01937539 0.00353434 0.00152058 0.00063453 0.00118073 0.00645672 0.00471763 0.02388972 0.00305221 0.00327778 0.00537277 0.00553420 0.00106898 0.00276295 0.00128121 
0.03861539 0.01971831 0.00360360 0.00155761 0.00062440 0.00122500 0.00641122 0.00475456 0.02346504 0.00301918 0.00326713 0.00538157 0.00570295 0.00107363 0.00277288 0.00128129 
0.03724208 0.02005598 0.00367679 0.00159720 0.00061476 0.00127073 0.00637059 0.00479159 0.02305823 0.00298559 0.00325583 0.00539313 0.00587477 0.00107946 0.00278186 0.00128152 
0.03596425 0.02038707 0.00375301 0.00163913 0.00060564 0.00131770 0.00633486 0.00482873 0.02267001 0.00295148 0.00324381 0.00540731 0.00604913 0.00108639 0.00278980 0.00128191 
0.03478467 0.02071028 0.00383138 0.00168315 0.00059707 0.00136566 0.00630399 0.00486600 0.02230102 0.00291691 0.00323097 0.00542398 0.00622546 0.00109437 0.00279663 0.00128245 
0.03370549 0.02102433 0.00391102 0.00172900 0.00058907 0.00141440 0.00627798 0.00490337 0.02195187 0.00288190 0.00321723 0.00544300 0.00640314 0.00110331 0.00280228 0.00128314 
0.03272828 0.02132796 0.00399104 0.00177643 0.00058168 0.00146367 0.00625679 0.00494083 0.02162311 0.00284653 0.00320248 0.00546422 0.00658155 0.00111314 0.00280670 0.00128398 
0.03185396 0.02161992 0.00407057 0.00182518 0.00057492 0.00151323 0.00624038 0.00497836 0.02131525 0.00281083 0.00318666 0.00548749 0.00676002 0.00112378 0.00280982 0.00128498 
0.03108283 0.02189903 0.00414876 0.00187498 0.00056880 0.00156285 0.00622870 0.00501594 0.02102874 0.00277486 0.00316967 0.00551269 0.00693787 0.00113513 0.00281161 0.00128613 
0.03041458 0.02216412 0.00422478 0.00192554 0.00056334 0.00161230 0.00622169 0.00505351 0.02076402 0.00273866 0.00315144 0.00553968 0.00711439 0.00114712 0.00281203 0.00128742 
0.02984832 0.02241411 0.00429782 0.00197662 0.00055856 0.00166133 0.00621928 0.00509102 0.02052144 0.00270228 0.00313189 0.00556833 0.00728886 0.00115965 0.00281107 0.00128886 
0.02938256 0.02264794 0.00436711 0.00202792 0.00055447 0.00170973 0.00622139 0.00512842 0.02030134 0.00266578 0.00311096 0.00559854 0.00746056 0.00117264 0.00280871 0.00129044 
0.02901522 0.02286462 0.00443192 0.00207920 0.00055107 0.00175727 0.00622794 0.00516562 0.02010404 0.00262920 0.00308858 0.00563019 0.00762873 0.00118600 0.00280494 0.00129215 
0.02874370 0.02306325 0.00449155 0.00213016 0.00054837 0.00180373 0.00623882 0.00520255 0.01992979 0.00259261 0.00306470 0.00566321 0.00779263 0.00119964 0.00279977 0.00129398 
0.02856488 0.02324298 0.00454535 0.00218057 0.00054638 0.00184892 0.00625393 0.00523911 0.01977884 0.00255604 0.00303927 0.00569750 0.00795153 0.00121348 0.00279323 0.00129594 
0.02847510 0.02340304 0.00459272 0.00223016 0.00054508 0.00189262 0.00627315 0.00527520 0.01965140 0.00251955 0.00301224 0.00573301 0.00810468 0.00122742 0.00278533 0.00129801 
0.02847028 0.02354277 0.00463312 0.00227868 0.00054448 0.00193466 0.00629636 0.00531069 0.01954767 0.00248319 0.00298357 0.00576969 0.00825135 0.00124139 0.00277612 0.00130018 
0.02854588 0.02366155 0.00466606 0.00232590 0.00054457 0.00197484 0.00632343 0.00534548 0.01946780 0.00244703 0.00295325 0.00580752 0.00839083 0.00125531 0.00276565 0.00130245 
0.02869697 0.02375891 0.00469110 0.00237158 0.00054534 0.00201301 0.00635420 0.00537942 0.01941197 0.00241110 0.00292126 0.00584648 0.00852242 0.00126910 0.00275397 0.00130481 
0.02891825 0.02383443 0.00470787 0.00241551 0.00054678 0.00204900 0.00638853 0.00541237 0.01938030 0.00237546 0.00288758 0.00588658 0.00864546 0.00128269 0.00274114 0.00130724 
0.02920411 0.02388781 0.00471607 0.00245748 0.00054887 0.00208269 0.00642625 0.00544419 0.01937292 0.00234017 0.00285222 0.00592786 0.00875929 0.00129602 0.00272726 0.00130974 
0.02954866 0.02391884 0.00471546 0.00249730 0.00055159 0.00211392 0.00646717 0.00547472 0.01938993 0.00230527 0.00281517 0.00597036 0.00886331 0.00130903 0.00271239 0.00131229 
0.02994575 0.02392744 0.00470586 0.00253478 0.00055493 0.00214260 0.00651112 0.00550381 0.01943144 0.00227083 0.00277647 0.00601415 0.00895694 0.00132165 0.00269664 0.00131489 
0.03038907 0.02391359 0.00468717 0.00256976 0.00055885 0.00216863 0.00655789 0.00553127 0.01949753 0.00223689 0.00273614 0.00605931 0.00903965 0.00133384 0.00268011 0.00131752 
0.03087213 0.02387743 0.00465934 0.00260208 0.00056334 0.00219190 0.00660727 0.00555696 0.01958827 0.00220350 0.00269420 0.00610597 0.00911093 0.00134554 0.00266289 0.00132017 
0.03138836 0.02381916 0.00462240 0.00263162 0.00056836 0.00221237 0.00665904 0.00558068 0.01970373 0.00217073 0.00265071 0.00615425 0.00917035 0.00135673 0.00264511 0.00132283 
0.03193112 0.02373912 0.00457646 0.00265825 0.00057388 0.00222997 0.00671297 0.00560228 0.01984396 0.00213860 0.00260572 0.00620430 0.00921752 0.00136737 0.00262689 0.00132549 
0.03249379 0.02363773 0.00452168 0.00268187 0.00057988 0.00224466 0.00676881 0.00562158 0.02000899 0.00210718 0.00255928 0.00625627 0.00925208 0.00137743 0.00260834 0.00132813 
0.03306973 0.02351555 0.00445830 0.00270239 0.00058632 0.00225642 0.00682632 0.00563840 0.02019882 0.00207651 0.00251147 0.00631037 0.00927376 0.00138689 0.00258960 0.00133075 
0.03365245 0.02337321 0.00438660 0.00271975 0.00059317 0.00226525 0.00688522 0.00565258 0.02041347 0.00204664 0.00246236 0.00636679 0.00928234 0.00139573 0.00257080 0.00133333 
0.03423553 0.02321147 0.00430696 0.00273389 0.00060038 0.00227115 0.00694524 0.00566395 0.02065289 0.00201761 0.00241203 0.00642574 0.00927763 0.00140396 0.00255208 0.00133585 
0.03481276 0.02303115 0.00421979 0.00274478 0.00060793 0.00227415 0.00700610 0.00567234 0.02091702 0.00198946 0.00236057 0.00648746 0.00925955 0.00141156 0.00253356 0.00133832 
0.03537813 0.02283322 0.00412559 0.00275241 0.00061578 0.00227428 0.00706750 0.00567762 0.02120577 0.00196222 0.00230808 0.00655219 0.00922805 0.00141853 0.00251538 0.00134071 
0.03592588 0.02261870 0.00402488 0.00275676 0.00062388 0.00227160 0.00712914 0.00567962 0.02151901 0.00193594 0.00225465 0.00662018 0.00918315 0.00142490 0.00249769 0.00134301 
0.03645057 0.02238871 0.00391827 0.00275786 0.00063219 0.00226618 0.00719072 0.00567821 0.02185655 0.00191065 0.00220040 0.00669168 0.00912494 0.00143067 0.00248061 0.00134522 
0.03694708 0.02214445 0.00380640 0.00275575 0.00064069 0.00225810 0.00725193 0.00567326 0.02221819 0.00188638 0.00214543 0.00676698 0.00905358 0.00143586 0.00246428 0.00134732 
0.03741064 0.02188722 0.00368997 0.00275045 0.00064932 0.00224745 0.00731244 0.00566466 0.02260362 0.00186314 0.00208987 0.00684635 0.00896928 0.00144050 0.00244883 0.00134930 
0.03783692 0.02161837 0.00356970 0.00274205 0.00065805 0.00223433 0.00737194 0.00565230 0.02301251 0.00184097 0.00203382 0.00693005 0.00887232 0.00144461 0.00243438 0.00135116 
0.03822200 0.02133932 0.00344638 0.00273062 0.00066685 0.00221888 0.00743012 0.00563609 0.02344445 0.00181988 0.00197741 0.00701836 0.00876304 0.00144823 0.00242106 0.00135288 
0.03856243 0.02105156 0.00332081 0.00271625 0.00067566 0.00220121 0.00748664 0.00561595 0.02389895 0.00179989 0.00192076 0.00711157 0.00864185 0.00145140 0.00240898 0.00135446 
0.03885523 0.02075661 0.00319385 0.00269904 0.00068446 0.00218147 0.00754120 0.00559183 0.02437545 0.00178100 0.00186400 0.00720992 0.00850922 0.00145416 0.00239825 0.00135588 
0.03909796 0.02045607 0.00306635 0.00267911 0.00069321 0.00215981 0.00759348 0.00556367 0.02487328 0.00176322 0.00180726 0.00731370 0.00836564 0.00145654 0.00238899 0.00135715 
0.03928867 0.02015155 0.00293920 0.00265659 0.00070187 0.00213638 0.00764317 0.00553145 0.02539171 0.00174654 0.00175066 0.00742314 0.00821171 0.00145860 0.00238127 0.00135825 
0.03942598 0.01984470 0.00281333 0.00263161 0.00071041 0.00211135 0.00768998 0.00549515 0.02592988 0.00173097 0.00169433 0.00753849 0.00804804 0.00146038 0.00237519 0.00135917 
0.03950906 0.01953721 0.00268964 0.00260433 0.00071879 0.00208488 0.00773361 0.00545479 0.02648685 0.00171650 0.00163840 0.00765998 0.00787531 0.00146193 0.00237083 0.00135992 
0.03953761 0.01923076 0.00256906 0.00257490 0.00072699 0.00205717 0.00777380 0.00541039 0.02706156 0.00170310 0.00158299 0.00778781 0.00769422 0.00146330 0.00236826 0.00136049 
0.03951194 0.01892706 0.00245253 0.00254348 0.00073496 0.00202837 0.00781028 0.00536200 0.02765285 0.00169076 0.00152823 0.00792218 0.00750553 0.00146454 0.00236753 0.00136088 
0.03943290 0.01862779 0.00234098 0.00251024 0.00074269 0.00199869 0.00784281 0.00530966 0.02825941 0.00167945 0.00147424 0.00806324 0.00731004 0.00146569 0.00236869 0.00136108 
0.03930192 0.01833464 0.00223532 0.00247536 0.00075015 0.00196831 0.00787116 0.00525348 0.02887986 0.00166914 0.00142114 0.00821115 0.00710856 0.00146681 0.00237177 0.00136109 
0.03912097 0.01804929 0.00213646 0.00243901 0.00075730 0.00193741 0.00789513 0.00519354 0.02951265 0.00165980 0.00136905 0.00836602 0.00690195 0.00146794 0.00237681 0.00136090 
0.03889260 0.01777337 0.00204529 0.00240137 0.00076414 0.00190618 0.00791453 0.00512996 0.03015616 0.00165139 0.00131809 0.00852794 0.00669108 0.00146913 0.00238381 0.00136053 
0.03861988 0.01750850 0.00196268 0.00236263 0.00077063 0.00187482 0.00792921 0.00506289 0.03080860 0.00164387 0.00126836 0.00869697 0.00647684 0.00147042 0.00239278 0.00135997 
0.03830639 0.01725622 0.00188947 0.00232296 0.00077675 0.00184350 0.00793904 0.00499247 0.03146809 0.00163718 0.00121998 0.00887314 0.00626012 0.00147185 0.00240369 0.00135922 
0.03795622 0.01701807 0.00182647 0.00228255 0.00078250 0.00181241 0.00794392 0.00491889 0.03213263 0.00163127 0.00117303 0.00905645 0.00604186 0.00147347 0.00241654 0.00135829 
0.03757396 0.01679548 0.00177445 0.00224158 0.00078785 0.00178173 0.00794378 0.00484231 0.03280009 0.00162609 0.00112764 0.00924685 0.00582295 0.00147529 0.00243128 0.00135717 
0.03716463 0.01658985 0.00173414 0.00220022 0.00079279 0.00175164 0.00793856 0.00476296 0.03346824 0.00162157 0.00108387 0.00944427 0.00560431 0.00147736 0.00244786 0.00135588 
0.03673368 0.01640249 0.00170622 0.00215865 0.00079731 0.00172230 0.00792828 0.00468105 0.03413475 0.00161765 0.00104184 0.00964859 0.00538685 0.00147971 0.00246622 0.00135441 
0.03628695 0.01623461 0.00169135 0.00211704 0.00080141 0.00169389 0.00791295 0.00459681 0.03479718 0.00161426 0.00100161 0.00985966 0.00517148 0.00148234 0.00248629 0.00135277 
0.03583066 0.01608738 0.00169008 0.00207554 0.00080506 0.00166655 0.00789263 0.00451049 0.03545302 0.00161134 0.00096326 0.01007730 0.00495905 0.00148529 0.00250799 0.00135097 
0.03537131 0.01596182 0.00170296 0.00203432 0.00080828 0.00164043 0.00786742 0.00442235 0.03609965 0.00160882 0.00092688 0.01030128 0.00475045 0.00148857 0.00253121 0.00134901 
0.03491573 0.01585888 0.00173045 0.00199352 0.00081105 0.00161569 0.00783745 0.00433266 0.03673440 0.00160661 0.00089252 0.01053132 0.00454649 0.00149217 0.00255586 0.00134690 
0.03447098 0.01577940 0.00177295 0.00195328 0.00081337 0.00159245 0.00780288 0.00424170 0.03735454 0.00160465 0.00086024 0.01076713 0.00434800 0.00149612 0.00258181 0.00134465 
0.03404430 0.01572411 0.00183080 0.00191374 0.00081524 0.00157083 0.00776393 0.00414975 0.03795730 0.00160286 0.00083009 0.01100836 0.00415573 0.00150039 0.00260894 0.00134228 
0.03364312 0.01569362 0.00190425 0.00187502 0.00081668 0.00155095 0.00772081 0.00405711 0.03853986 0.00160117 0.00080214 0.01125462 0.00397043 0.00150500 0.00263710 0.00133978 
0.03327497 0.01568840 0.00199352 0.00183723 0.00081767 0.00153291 0.00767382 0.00396407 0.03909939 0.00159950 0.00077641 0.01150551 0.00379279 0.00150991 0.00266616 0.00133716 
0.03294745 0.01570884 0.00209872 0.00180047 0.00081822 0.00151681 0.00762324 0.00387096 0.03963305 0.00159777 0.00075294 0.01176056 0.00362347 0.00151512 0.00269596 0.00133444 
0.03266817 0.01575516 0.00221990 0.00176484 0.00081835 0.00150273 0.00756942 0.00377806 0.04013803 0.00159593 0.00073176 0.01201929 0.00346307 0.00152061 0.00272635 0.00133163 
0.03244473 0.01582747 0.00235704 0.00173041 0.00081806 0.00149073 0.00751274 0.00368569 0.04061154 0.00159389 0.00071290 0.01228117 0.00331214 0.00152634 0.00275715 0.00132874 
0.03228465 0.01592576 0.00251001 0.00169726 0.00081736 0.00148088 0.00745357 0.00359415 0.04105082 0.00159159 0.00069637 0.01254566 0.00317120 0.00153229 0.00278819 0.00132577 
0.03219532 0.01604987 0.00267865 0.00166545 0.00081625 0.00147323 0.00739236 0.00350376 0.04145319 0.00158897 0.00068218 0.01281218 0.00304068 0.00153841 0.00281931 0.00132275 
0.03218399 0.01619951 0.00286269 0.00163502 0.00081476 0.00146781 0.00732955 0.00341481 0.04181606 0.00158596 0.00067033 0.01308012 0.00292099 0.00154467 0.00285031 0.00131968 
0.03225768 0.01637427 0.00306179 0.00160601 0.00081290 0.00146464 0.00726562 0.00332761 0.04213691 0.00158252 0.00066083 0.01334885 0.00281247 0.00155101 0.00288102 0.00131657 
0.03242313 0.01657360 0.00327553 0.00157845 0.00081067 0.00146375 0.00720106 0.00324245 0.04241336 0.00157858 0.00065366 0.01361773 0.00271539 0.00155740 0.00291126 0.00131343 
0.03268681 0.01679682 0.00350343 0.00155235 0.00080810 0.00146514 0.00713638 0.00315962 0.04264316 0.00157411 0.00064880 0.01388607 0.00262997 0.00156378 0.00294084 0.00131028 
0.03305482 0.01704313 0.00374491 0.00152771 0.00080520 0.00146878 0.00707211 0.00307938 0.04282421 0.00156906 0.00064625 0.01415320 0.00255638 0.00157009 0.00296958 0.00130712 
0.03353290 0.01731160 0.00399933 0.00150454 0.00080198 0.00147468 0.00700878 0.00300202 0.04295456 0.00156340 0.00064597 0.01441842 0.00249473 0.00157627 0.00299731 0.00130397 
0.03412632 0.01760119 0.00426598 0.00148281 0.00079846 0.00148279 0.00694695 0.00292778 0.04303248 0.00155711 0.00064793 0.01468104 0.00244505 0.00158228 0.00302383 0.00130084 
0.03483993 0.01791073 0.00454407 0.00146249 0.00079466 0.00149308 0.00688715 0.00285691 0.04305640 0.00155016 0.00065209 0.01494032 0.00240734 0.00158803 0.00304899 0.00129775 
0.03567805 0.01823894 0.00483276 0.00144357 0.00079060 0.00150549 0.00682995 0.00278965 0.04302500 0.00154254 0.00065842 0.01519558 0.00238152 0.00159348 0.00307261 0.00129469 
0.03664447 0.01858446 0.00513112 0.00142599 0.00078630 0.00151997 0.00677589 0.00272621 0.04293716 0.00153425 0.00066685 0.01544608 0.00236747 0.00159856 0.00309453 0.00129168 
0.03774244 0.01894580 0.00543820 0.00140971 0.00078177 0.00153644 0.00672550 0.00266680 0.04279202 0.00152529 0.00067734 0.01569114 0.00236501 0.00160320 0.00311460 0.00128873 
0.03897458 0.01932139 0.00575295 0.00139468 0.00077702 0.00155483 0.00667934 0.00261159 0.04258895 0.00151568 0.00068983 0.01593004 0.00237390 0.00160734 0.00313267 0.00128586 
0.04034292 0.01970958 0.00607431 0.00138082 0.00077209 0.00157506 0.00663790 0.00256076 0.04232761 0.00150542 0.00070425 0.01616211 0.00239387 0.00161092 0.00314860 0.00128306 
0.04184886 0.02010863 0.00640112 0.00136808 0.00076699 0.00159703 0.00660170 0.00251447 0.04200789 0.00149454 0.00072053 0.01638667 0.00242457 0.00161388 0.00316227 0.00128035 
0.04349314 0.02051674 0.00673224 0.00135638 0.00076174 0.00162064 0.00657121 0.00247283 0.04163001 0.00148309 0.00073861 0.01660306 0.00246564 0.00161616 0.00317355 0.00127773 
0.04527581 0.02093205 0.00706643 0.00134565 0.00075635 0.00164579 0.00654689 0.00243599 0.04119441 0.00147111 0.00075841 0.01681067 0.00251666 0.00161770 0.00318234 0.00127522 
0.04719628 0.02135264 0.00740247 0.00133582 0.00075084 0.00167236 0.00652916 0.00240401 0.04070186 0.00145864 0.00077984 0.01700886 0.00257717 0.00161844 0.00318855 0.00127281 
0.04925323 0.02177655 0.00773907 0.00132680 0.00074524 0.00170023 0.00651843 0.00237699 0.04015340 0.00144575 0.00080281 0.01719707 0.00264667 0.00161834 0.00319210 0.00127053 
0.05144470 0.02220180 0.00807494 0.00131851 0.00073955 0.00172929 0.00651505 0.00235499 0.03955035 0.00143250 0.00082725 0.01737475 0.00272464 0.00161734 0.00319292 0.00126836 
0.05376799 0.02262636 0.00840878 0.00131087 0.00073380 0.00175941 0.00651934 0.00233803 0.03889432 0.00141897 0.00085306 0.01754136 0.00281052 0.00161540 0.00319095 0.00126633 
0.05621974 0.02304822 0.00873925 0.00130381 0.00072801 0.00179045 0.00653160 0.00232613 0.03818720 0.00140524 0.00088014 0.01769643 0.00290373 0.00161249 0.00318615 0.00126442 
0.05879591 0.02346534 0.00906504 0.00129724 0.00072219 0.00182229 0.00655206 0.00231930 0.03743115 0.00139139 0.00090840 0.01783950 0.00300367 0.00160856 0.00317851 0.00126265 
0.06149178 0.02387569 0.00938482 0.00129110 0.00071636 0.00185480 0.00658092 0.00231751 0.03662861 0.00137752 0.00093773 0.01797017 0.00310970 0.00160358 0.00316801 0.00126102 
0.06430199 0.02427728 0.00969728 0.00128529 0.00071052 0.00188783 0.00661832 0.00232072 0.03578225 0.00136372 0.00096804 0.01808805 0.00322120 0.00159754 0.00315465 0.00125952 
0.06722052 0.02466811 0.01000111 0.00127976 0.00070471 0.00192125 0.00666437 0.00232886 0.03489500 0.00135011 0.00099922 0.01819282 0.00333752 0.00159041 0.00313846 0.00125817 
0.07024075 0.02504626 0.01029503 0.00127444 0.00069894 0.00195493 0.00671911 0.00234186 0.03397003 0.00133678 0.00103117 0.01828418 0.00345799 0.00158217 0.00311946 0.00125697 
0.07335547 0.02540982 0.01057779 0.00126927 0.00069321 0.00198873 0.00678254 0.00235962 0.03301072 0.00132385 0.00106377 0.01836189 0.00358196 0.00157283 0.00309772 0.00125591 
0.07655690 0.02575696 0.01084818 0.00126418 0.00068754 0.00202252 0.00685461 0.00238201 0.03202064 0.00131143 0.00109693 0.01842574 0.00370878 0.00156237 0.00307328 0.00125499 
0.07983673 0.02608591 0.01110499 0.00125914 0.00068195 0.00205616 0.00693520 0.00240890 0.03100356 0.00129964 0.00113054 0.01847556 0.00383778 0.00155080 0.00304624 0.00125422 
0.08318615 0.02639498 0.01134712 0.00125410 0.00067644 0.00208953 0.00702416 0.00244015 0.02996341 0.00128860 0.00116448 0.01851124 0.00396832 0.00153814 0.00301669 0.00125359 
0.08659589 0.02668256 0.01157345 0.00124902 0.00067103 0.00212249 0.00712127 0.00247557 0.02890426 0.00127842 0.00119865 0.01853270 0.00409976 0.00152440 0.00298472 0.00125310 
0.09005624 0.02694713 0.01178297 0.00124386 0.00066574 0.00215493 0.00722626 0.00251499 0.02783031 0.00126922 0.00123295 0.01853990 0.00423148 0.00150960 0.00295046 0.00125275 
0.09355713 0.02718729 0.01197472 0.00123862 0.00066056 0.00218671 0.00733881 0.00255821 0.02674585 0.00126111 0.00126727 0.01853284 0.00436287 0.00149377 0.00291405 0.00125253 
0.09708813 0.02740173 0.01214779 0.00123326 0.00065551 0.00221773 0.00745856 0.00260501 0.02565526 0.00125422 0.00130150 0.01851159 0.00449336 0.00147695 0.00287562 0.00125245 
0.10063853 0.02758927 0.01230135 0.00122779 0.00065060 0.00224787 0.00758508 0.00265516 0.02456297 0.00124864 0.00133554 0.01847622 0.00462237 0.00145918 0.00283534 0.00125249 
0.10419736 0.02774885 0.01243466 0.00122221 0.00064584 0.00227703 0.00771791 0.00270844 0.02347343 0.00124449 0.00136929 0.01842685 0.00474937 0.00144051 0.00279336 0.00125266 
0.10775347 0.02787953 0.01254705 0.00121651 0.00064123 0.00230511 0.00785653 0.00276458 0.02239111 0.00124187 0.00140266 0.01836365 0.00487386 0.00142100 0.00274986 0.00125295 
0.11129553 0.02798052 0.01263793 0.00121072 0.00063678 0.00233201 0.00800040 0.00282334 0.02132046 0.00124088 0.00143554 0.01828682 0.00499534 0.00140069 0.00270503 0.00125335 
0.11481213 0.02805116 0.01270681 0.00120486 0.00063249 0.00235764 0.00814892 0.00288444 0.02026587 0.00124160 0.00146785 0.01819658 0.00511339 0.00137966 0.00265905 0.00125386 
0.11829180 0.02809093 0.01275329 0.00119895 0.00062838 0.00238192 0.00830145 0.00294760 0.01923167 0.00124412 0.00149950 0.01809320 0.00522757 0.00135797 0.00261213 0.00125448 
0.12172309 0.02809948 0.01277707 0.00119304 0.00062444 0.00240478 0.00845734 0.00301255 0.01822211 0.00124851 0.00153039 0.01797698 0.00533753 0.00133570 0.00256447 0.00125519 
0.12509459 0.02807658 0.01277792 0.00118716 0.00062067 0.00242614 0.00861590 0.00307900 0.01724131 0.00125485 0.00156046 0.01784823 0.00544290 0.00131292 0.00251627 0.00125600 
0.12839498 0.02802217 0.01275575 0.00118136 0.00061708 0.00244595 0.00877640 0.00314666 0.01629325 0.00126318 0.00158962 0.01770731 0.00554339 0.00128973 0.00246775 0.00125690 
0.13161313 0.02793633 0.01271053 0.00117569 0.00061367 0.00246416 0.00893811 0.00321522 0.01538175 0.00127356 0.00161780 0.01755458 0.00563873 0.00126620 0.00241913 0.00125788 
0.13473809 0.02781932 0.01264236 0.00117023 0.00061044 0.00248071 0.00910027 0.00328441 0.01451045 0.00128602 0.00164493 0.01739045 0.00572870 0.00124243 0.00237062 0.00125893 
0.13775916 0.02767151 0.01255144 0.00116501 0.00060739 0.00249557 0.00926210 0.00335391 0.01368279 0.00130060 0.00167095 0.01721535 0.00581309 0.00121851 0.00232244 0.00126005 
0.14066598 0.02749347 0.01243804 0.00116013 0.00060452 0.00250870 0.00942284 0.00342344 0.01290198 0.00131730 0.00169580 0.01702970 0.00589176 0.00119453 0.00227480 0.00126123 
0.14344849 0.02728587 0.01230258 0.00115563 0.00060183 0.00252010 0.00958170 0.00349269 0.01217099 0.00133613 0.00171943 0.01683398 0.00596459 0.00117059 0.00222792 0.00126248 
0.14609707 0.02704957 0.01214554 0.00115161 0.00059930 0.00252973 0.00973790 0.00356138 0.01149254 0.00135708 0.00174179 0.01662865 0.00603151 0.00114680 0.00218202 0.00126377 
0.14860252 0.02678556 0.01196752 0.00114812 0.00059695 0.00253759 0.00989066 0.00362923 0.01086908 0.00138013 0.00176284 0.01641422 0.00609247 0.00112325 0.00213730 0.00126510 
0.15095612 0.02649495 0.01176920 0.00114525 0.00059476 0.00254369 0.01003921 0.00369594 0.01030278 0.00140525 0.00178253 0.01619120 0.00614747 0.00110004 0.00209396 0.00126648 
0.15314966 0.02617902 0.01155138 0.00114308 0.00059273 0.00254802 0.01018282 0.00376125 0.00979550 0.00143239 0.00180085 0.01596011 0.00619654 0.00107729 0.00205221 0.00126789 
0.15517552 0.02583914 0.01131491 0.00114166 0.00059085 0.00255061 0.01032075 0.00382489 0.00934882 0.00146150 0.00181776 0.01572150 0.00623973 0.00105508 0.00201224 0.00126934 
0.15702665 0.02547684 0.01106077 0.00114109 0.00058912 0.00255148 0.01045230 0.00388659 0.00896398 0.00149251 0.00183325 0.01547591 0.00627714 0.00103353 0.00197423 0.00127080 
0.15869662 0.02509374 0.01079000 0.00114143 0.00058754 0.00255065 0.01057679 0.00394611 0.00864193 0.00152534 0.00184730 0.01522392 0.00630889 0.00101274 0.00193837 0.00127229 
0.16017965 0.02469159 0.01050373 0.00114276 0.00058609 0.00254816 0.01069359 0.00400321 0.00838329 0.00155989 0.00185990 0.01496611 0.00633513 0.00099280 0.00190482 0.00127379 
0.16147067 0.02427221 0.01020314 0.00114513 0.00058476 0.00254406 0.01080208 0.00405766 0.00818835 0.00159607 0.00187106 0.01470307 0.00635603 0.00097383 0.00187374 0.00127530 
0.16256528 0.02383754 0.00988952 0.00114861 0.00058355 0.00253839 0.01090172 0.00410924 0.00805708 0.00163375 0.00188076 0.01443542 0.00637180 0.00095592 0.00184527 0.00127682 
0.16345981 0.02338961 0.00956418 0.00115325 0.00058245 0.00253121 0.01099199 0.00415776 0.00798915 0.00167282 0.00188903 0.01416376 0.00638264 0.00093916 0.00181957 0.00127835 
0.16415134 0.02293048 0.00922853 0.00115911 0.00058145 0.00252257 0.01107241 0.00420301 0.00798389 0.00171315 0.00189587 0.01388874 0.00638879 0.00092365 0.00179675 0.00127987 
0.16463770 0.02246231 0.00888400 0.00116624 0.00058054 0.00251254 0.01114259 0.00424483 0.00804033 0.00175458 0.00190130 0.01361101 0.00639050 0.00090948 0.00177694 0.00128140 
0.16491747 0.02198731 0.00853207 0.00117466 0.00057971 0.00250120 0.01120216 0.00428306 0.00815719 0.00179698 0.00190535 0.01333123 0.00638805 0.00089674 0.00176022 0.00128292 
0.16499001 0.02150772 0.00817428 0.00118442 0.00057896 0.00248861 0.01125084 0.00431755 0.00833292 0.00184018 0.00190804 0.01305008 0.00638170 0.00088552 0.00174671 0.00128444 
0.16485547 0.02102581 0.00781219 0.00119553 0.00057827 0.00247486 0.01128838 0.00434817 0.00856567 0.00188402 0.00190940 0.01276826 0.00637175 0.00087590 0.00173647 0.00128595 
0.16451474 0.02054388 0.00744736 0.00120801 0.00057764 0.00246003 0.01131461 0.00437480 0.00885332 0.00192834 0.00190948 0.01248649 0.00635847 0.00086795 0.00172957 0.00128746 
0.16396952 0.02006423 0.00708142 0.00122187 0.00057705 0.00244420 0.01132942 0.00439736 0.00919350 0.00197296 0.00190832 0.01220548 0.00634217 0.00086176 0.00172606 0.00128895 
0.16322225 0.01958916 0.00671596 0.00123712 0.00057650 0.00242746 0.01133278 0.00441575 0.00958360 0.00201771 0.00190595 0.01192600 0.00632314 0.00085738 0.00172599 0.00129044 
0.16227613 0.01912095 0.00635260 0.00125372 0.00057598 0.00240990 0.01132471 0.00442991 0.01002079 0.00206240 0.00190243 0.01164882 0.00630168 0.00085489 0.00172937 0.00129191 
0.16113512 0.01866186 0.00599294 0.00127168 0.00057548 0.00239162 0.01130531 0.00443981 0.01050204 0.00210687 0.00189781 0.01137471 0.00627807 0.00085435 0.00173623 0.00129338 
0.15980390 0.01821411 0.00563860 0.00129096 0.00057499 0.00237271 0.01127472 0.00444540 0.01102413 0.00215092 0.00189214 0.01110448 0.00625259 0.00085580 0.00174655 0.00129484 
0.15828785 0.01777985 0.00529115 0.00131153 0.00057451 0.00235326 0.01123319 0.00444667 0.01158367 0.00219439 0.00188548 0.01083898 0.00622554 0.00085931 0.00176033 0.00129630 
0.15659306 0.01736120 0.00495214 0.00133333 0.00057402 0.00233338 0.01118100 0.00444363 0.01217714 0.00223710 0.00187789 0.01057903 0.00619716 0.00086491 0.00177755 0.00129774 
0.15472627 0.01696018 0.00462309 0.00135632 0.00057354 0.00231315 0.01111851 0.00443629 0.01280088 0.00227887 0.00186944 0.01032552 0.00616772 0.00087264 0.00179815 0.00129918 
0.15269488 0.01657874 0.00430548 0.00138043 0.00057304 0.00229268 0.01104615 0.00442469 0.01345114 0.00231954 0.00186019 0.01007932 0.00613746 0.00088254 0.00182210 0.00130062 
0.15050686 0.01621873 0.00400074 0.00140560 0.00057252 0.00227206 0.01096440 0.00440889 0.01412410 0.00235896 0.00185020 0.00984134 0.00610661 0.00089463 0.00184932 0.00130206 
0.14817081 0.01588190 0.00371026 0.00143173 0.00057199 0.00225139 0.01087379 0.00438894 0.01481586 0.00239695 0.00183955 0.00961250 0.00607537 0.00090894 0.00187975 0.00130349 
0.14569583 0.01556986 0.00343536 0.00145875 0.00057143 0.00223076 0.01077494 0.00436493 0.01552251 0.00243338 0.00182830 0.00939375 0.00604394 0.00092547 0.00191330 0.00130493 
0.14309155 0.01528414 0.00317727 0.00148657 0.00057085 0.00221026 0.01066849 0.00433695 0.01624011 0.00246811 0.00181652 0.00918604 0.00601251 0.00094424 0.00194987 0.00130637 
0.14036807 0.01502610 0.00293719 0.00151508 0.00057025 0.00218998 0.01055515 0.00430512 0.01696475 0.00250101 0.00180428 0.00899034 0.00598122 0.00096524 0.00198937 0.00130782 
0.13753591 0.01479698 0.00271622 0.00154417 0.00056961 0.00217001 0.01043565 0.00426957 0.01769254 0.00253195 0.00179167 0.00880762 0.00595021 0.00098848 0.00203166 0.00130927 
0.13460600 0.01459785 0.00251537 0.00157374 0.00056896 0.00215044 0.01031078 0.00423042 0.01841965 0.00256084 0.00177874 0.00863886 0.00591960 0.00101394 0.00207664 0.00131074 
0.13158958 0.01442965 0.00233558 0.00160368 0.00056828 0.00213134 0.01018138 0.00418783 0.01914232 0.00258757 0.00176557 0.00848506 0.00588950 0.00104161 0.00212417 0.00131221 
0.12849823 0.01429313 0.00217769 0.00163386 0.00056758 0.00211281 0.01004829 0.00414196 0.01985689 0.00261206 0.00175223 0.00834721 0.00585997 0.00107145 0.00217410 0.00131371 
0.12534376 0.01418891 0.00204244 0.00166417 0.00056687 0.00209491 0.00991241 0.00409298 0.02055980 0.00263425 0.00173880 0.00822629 0.00583109 0.00110344 0.00222630 0.00131521 
0.12213821 0.01411740 0.00193048 0.00169448 0.00056614 0.00207772 0.00977462 0.00404108 0.02124765 0.00265407 0.00172535 0.00812329 0.00580288 0.00113753 0.00228060 0.00131674 
0.11889375 0.01407887 0.00184234 0.00172466 0.00056541 0.00206130 0.00963587 0.00398645 0.02191716 0.00267148 0.00171194 0.00803916 0.00577537 0.00117369 0.00233686 0.00131828 
0.11562271 0.01407340 0.00177848 0.00175460 0.00056467 0.00204572 0.00949707 0.00392929 0.02256523 0.00268645 0.00169866 0.00797487 0.00574856 0.00121186 0.00239491 0.00131985 
0.11233745 0.01410088 0.00173921 0.00178416 0.00056394 0.00203105 0.00935917 0.00386982 0.02318893 0.00269897 0.00168555 0.00793134 0.00572243 0.00125198 0.00245459 0.00132144 
0.10905036 0.01416104 0.00172476 0.00181323 0.00056323 0.00201734 0.00922310 0.00380826 0.02378555 0.00270903 0.00167271 0.00790946 0.00569696 0.00129398 0.00251571 0.00132305 
0.10577379 0.01425343 0.00173523 0.00184169 0.00056254 0.00200464 0.00908979 0.00374482 0.02435254 0.00271666 0.00166018 0.00791012 0.00567210 0.00133780 0.00257812 0.00132469 
0.10252003 0.01437741 0.00177063 0.00186941 0.00056189 0.00199301 0.00896017 0.00367975 0.02488760 0.00272187 0.00164804 0.00793412 0.00564779 0.00138336 0.00264164 0.00132635 
0.09930124 0.01453219 0.00183085 0.00189629 0.00056128 0.00198248 0.00883514 0.00361328 0.02538865 0.00272471 0.00163634 0.00798226 0.00562395 0.00143056 0.00270608 0.00132804 
0.09612937 0.01471678 0.00191566 0.00192222 0.00056072 0.00197309 0.00871556 0.00354565 0.02585382 0.00272523 0.00162516 0.00805525 0.00560049 0.00147932 0.00277129 0.00132975 
0.09301620 0.01493004 0.00202474 0.00194709 0.00056022 0.00196488 0.00860231 0.00347712 0.02628151 0.00272350 0.00161455 0.00815377 0.00557733 0.00152954 0.00283708 0.00133149 
0.08997320 0.01517068 0.00215765 0.00197081 0.00055981 0.00195789 0.00849617 0.00340794 0.02667033 0.00271960 0.00160456 0.00827842 0.00555437 0.00158111 0.00290327 0.00133325 
0.08701154 0.01543724 0.00231383 0.00199328 0.00055948 0.00195213 0.00839795 0.00333835 0.02701916 0.00271363 0.00159526 0.00842971 0.00553148 0.00163392 0.00296971 0.00133504 
0.08414204 0.01572812 0.00249265 0.00201443 0.00055925 0.00194763 0.00830835 0.00326862 0.02732711 0.00270568 0.00158669 0.00860811 0.00550857 0.00168787 0.00303621 0.00133685 
0.08137512 0.01604156 0.00269334 0.00203417 0.00055913 0.00194441 0.00822807 0.00319900 0.02759355 0.00269587 0.00157891 0.00881396 0.00548550 0.00174282 0.00310261 0.00133868 
0.07872074 0.01637571 0.00291506 0.00205245 0.00055914 0.00194248 0.00815774 0.00312975 0.02781807 0.00268433 0.00157196 0.00904754 0.00546217 0.00179865 0.00316875 0.00134053 
0.07618840 0.01672858 0.00315687 0.00206920 0.00055929 0.00194185 0.00809792 0.00306113 0.02800054 0.00267118 0.00156589 0.00930901 0.00543845 0.00185523 0.00323448 0.00134239 
0.07378708 0.01709805 0.00341773 0.00208439 0.00055958 0.00194251 0.00804912 0.00299339 0.02814103 0.00265657 0.00156074 0.00959844 0.00541423 0.00191241 0.00329963 0.00134427 
0.07152519 0.01748194 0.00369653 0.00209796 0.00056004 0.00194448 0.00801178 0.00292680 0.02823985 0.00264065 0.00155655 0.00991579 0.00538939 0.00197007 0.00336406 0.00134616 
0.06941058 0.01787795 0.00399206 0.00210989 0.00056067 0.00194775 0.00798627 0.00286160 0.02829756 0.00262355 0.00155335 0.01026088 0.00536383 0.00202806 0.00342764 0.00134806 
0.06745048 0.01828374 0.00430305 0.00212017 0.00056148 0.00195231 0.00797291 0.00279805 0.02831490 0.00260545 0.00155117 0.01063343 0.00533744 0.00208622 0.00349022 0.00134996 
0.06565145 0.01869689 0.00462815 0.00212879 0.00056249 0.00195814 0.00797190 0.00273639 0.02829283 0.00258650 0.00155005 0.01103305 0.00531013 0.00214441 0.00355168 0.00135187 
0.06401940 0.01911492 0.00496596 0.00213574 0.00056370 0.00196523 0.00798342 0.00267686 0.02823252 0.00256687 0.00155001 0.01145918 0.00528181 0.00220246 0.00361189 0.00135376 
0.06255957 0.01953535 0.00531501 0.00214104 0.00056512 0.00197357 0.00800752 0.00261971 0.02813530 0.00254672 0.00155107 0.01191117 0.00525241 0.00226023 0.00367074 0.00135565 
0.06127644 0.01995565 0.00567379 0.00214472 0.00056677 0.00198311 0.00804421 0.00256516 0.02800270 0.00252621 0.00155324 0.01238821 0.00522188 0.00231756 0.00372814 0.00135753 
0.06017381 0.02037331 0.00604073 0.00214680 0.00056865 0.00199385 0.00809340 0.00251343 0.02783637 0.00250550 0.00155654 0.01288937 0.00519014 0.00237428 0.00378397 0.00135938 
0.05925471 0.02078582 0.00641424 0.00214732 0.00057077 0.00200574 0.00815494 0.00246475 0.02763814 0.00248476 0.00156098 0.01341358 0.00515718 0.00243024 0.00383814 0.00136122 
0.05852141 0.02119070 0.00679270 0.00214634 0.00057312 0.00201875 0.00822857 0.00241932 0.02740997 0.00246413 0.00156657 0.01395965 0.00512297 0.00248527 0.00389059 0.00136302 
0.05797546 0.02158549 0.00717445 0.00214392 0.00057573 0.00203285 0.00831400 0.00237735 0.02715391 0.00244379 0.00157329 0.01452622 0.00508751 0.00253921 0.00394122 0.00136478 
0.05761760 0.02196781 0.00755783 0.00214012 0.00057859 0.00204798 0.00841081 0.00233902 0.02687213 0.00242386 0.00158116 0.01511183 0.00505079 0.00259190 0.00398999 0.00136651 
0.05744784 0.02233534 0.00794117 0.00213501 0.00058169 0.00206411 0.00851854 0.00230452 0.02656690 0.00240449 0.00159015 0.01571488 0.00501286 0.00264318 0.00403682 0.00136819 
0.05746541 0.02268584 0.00832281 0.00212869 0.00058506 0.00208118 0.00863666 0.00227401 0.02624053 0.00238581 0.00160025 0.01633365 0.00497374 0.00269290 0.00408168 0.00136981 
0.05766880 0.02301716 0.00870107 0.00212123 0.00058867 0.00209915 0.00876455 0.00224764 0.02589540 0.00236796 0.00161145 0.01696629 0.00493350 0.00274089 0.00412452 0.00137138 
0.05805573 0.02332727 0.00907432 0.00211273 0.00059254 0.00211795 0.00890153 0.00222557 0.02553394 0.00235103 0.00162372 0.01761085 0.00489221 0.00278702 0.00416530 0.00137288 
0.05862321 0.02361425 0.00944094 0.00210330 0.00059665 0.00213754 0.00904687 0.00220793 0.02515858 0.00233514 0.00163703 0.01826525 0.00484997 0.00283113 0.00420400 0.00137430 
0.05936753 0.02387633 0.00979933 0.00209303 0.00060101 0.00215785 0.00919977 0.00219483 0.02477180 0.00232038 0.00165135 0.01892734 0.00480687 0.00287308 0.00424060 0.00137565 
0.06028426 0.02411187 0.01014794 0.00208203 0.00060561 0.00217881 0.00935938 0.00218636 0.02437603 0.00230684 0.00166663 0.01959485 0.00476304 0.00291273 0.00427510 0.00137692 
0.06136832 0.02431938 0.01048527 0.00207041 0.00061043 0.00220037 0.00952480 0.00218263 0.02397371 0.00229458 0.00168284 0.02026543 0.00471862 0.00294994 0.00430747 0.00137809 
0.06261395 0.02449755 0.01080985 0.00205828 0.00061548 0.00222245 0.00969508 0.00218370 0.02356724 0.00228367 0.00169992 0.02093668 0.00467376 0.00298460 0.00433774 0.00137916 
0.06401479 0.02464523 0.01112030 0.00204577 0.00062073 0.00224498 0.00986924 0.00218962 0.02315897 0.00227416 0.00171783 0.02160610 0.00462862 0.00301658 0.00436589 0.00138014 
0.06556386 0.02476147 0.01141529 0.00203297 0.00062618 0.00226789 0.01004626 0.00220044 0.02275120 0.00226608 0.00173649 0.02227118 0.00458338 0.00304577 0.00439195 0.00138100 
0.06725365 0.02484549 0.01169356 0.00202001 0.00063182 0.00229111 0.01022509 0.00221616 0.02234614 0.00225945 0.00175585 0.02292935 0.00453824 0.00307207 0.00441592 0.00138175 
0.06907610 0.02489670 0.01195393 0.00200700 0.00063762 0.00231456 0.01040467 0.00223679 0.02194594 0.00225429 0.00177583 0.02357800 0.00449338 0.00309538 0.00443784 0.00138239 
0.07102266 0.02491473 0.01219530 0.00199405 0.00064358 0.00233816 0.01058391 0.00226231 0.02155266 0.00225059 0.00179637 0.02421453 0.00444902 0.00311561 0.00445772 0.00138289 
0.07308435 0.02489938 0.01241668 0.00198126 0.00064967 0.00236184 0.01076171 0.00229268 0.02116824 0.00224834 0.00181739 0.02483633 0.00440538 0.00313268 0.00447560 0.00138327 
0.07525176 0.02485068 0.01261714 0.00196875 0.00065588 0.00238550 0.01093698 0.00232785 0.02079451 0.00224750 0.00183880 0.02544080 0.00436267 0.00314653 0.00449151 0.00138352 
0.07751514 0.02476885 0.01279588 0.00195662 0.00066218 0.00240908 0.01110863 0.00236773 0.02043321 0.00224806 0.00186052 0.02602539 0.00432113 0.00315711 0.00450548 0.00138363 
0.07986439 0.02465433 0.01295218 0.00194496 0.00066856 0.00243248 0.01127557 0.00241224 0.02008592 0.00224994 0.00188245 0.02658755 0.00428100 0.00316436 0.00451754 0.00138359 
0.08228916 0.02450774 0.01308543 0.00193387 0.00067499 0.00245564 0.01143673 0.00246126 0.01975412 0.00225310 0.00190452 0.02712483 0.00424250 0.00316824 0.00452774 0.00138342 
0.08477884 0.02432993 0.01319514 0.00192343 0.00068145 0.00247845 0.01159105 0.00251465 0.01943912 0.00225746 0.00192661 0.02763483 0.00420587 0.00316874 0.00453611 0.00138309 
0.08732267 0.02412191 0.01328092 0.00191374 0.00068791 0.00250085 0.01173754 0.00257225 0.01914213 0.00226294 0.00194863 0.02811522 0.00417134 0.00316583 0.00454269 0.00138262 
0.08990974 0.02388493 0.01334248 0.00190486 0.00069435 0.00252275 0.01187518 0.00263389 0.01886420 0.00226946 0.00197048 0.02856380 0.00413916 0.00315953 0.00454753 0.00138199 
0.09252905 0.02362039 0.01337967 0.00189687 0.00070075 0.00254407 0.01200305 0.00269938 0.01860622 0.00227692 0.00199206 0.02897845 0.00410953 0.00314983 0.00455067 0.00138122 
0.09516956 0.02332987 0.01339244 0.00188984 0.00070707 0.00256472 0.01212024 0.00276851 0.01836895 0.00228521 0.00201326 0.02935720 0.00408270 0.00313675 0.00455214 0.00138029 
0.09782023 0.02301515 0.01338085 0.00188381 0.00071329 0.00258464 0.01222590 0.00284103 0.01815301 0.00229423 0.00203398 0.02969821 0.00405887 0.00312034 0.00455199 0.00137920 
0.10047008 0.02267816 0.01334508 0.00187884 0.00071939 0.00260375 0.01231923 0.00291670 0.01795887 0.00230385 0.00205412 0.02999977 0.00403825 0.00310064 0.00455026 0.00137796 
0.10310823 0.02232096 0.01328543 0.00187497 0.00072533 0.00262197 0.01239951 0.00299526 0.01778686 0.00231397 0.00207356 0.03026034 0.00402103 0.00307769 0.00454698 0.00137657 
0.10572394 0.02194579 0.01320230 0.00187225 0.00073109 0.00263922 0.01246607 0.00307642 0.01763715 0.00232445 0.00209220 0.03047857 0.00400740 0.00305158 0.00454219 0.00137502 
0.10830664 0.02155500 0.01309620 0.00187070 0.00073664 0.00265545 0.01251830 0.00315989 0.01750979 0.00233517 0.00210994 0.03065326 0.00399752 0.00302237 0.00453594 0.00137333 
0.11084601 0.02115105 0.01296775 0.00187034 0.00074196 0.00267058 0.01255568 0.00324535 0.01740470 0.00234601 0.00212668 0.03078340 0.00399156 0.00299017 0.00452825 0.00137148 
0.11333197 0.02073653 0.01281768 0.00187120 0.00074701 0.00268456 0.01257777 0.00333248 0.01732166 0.00235683 0.00214232 0.03086820 0.00398964 0.00295506 0.00451916 0.00136949 
0.11575477 0.02031410 0.01264680 0.00187327 0.00075177 0.00269732 0.01258419 0.00342095 0.01726033 0.00236752 0.00215676 0.03090704 0.00399190 0.00291716 0.00450872 0.00136736 
0.11810499 0.01988649 0.01245603 0.00187657 0.00075622 0.00270882 0.01257465 0.00351040 0.01722026 0.00237794 0.00216991 0.03089952 0.00399843 0.00287659 0.00449694 0.00136509 
0.12037357 0.01945653 0.01224638 0.00188109 0.00076034 0.00271900 0.01254896 0.00360048 0.01720087 0.00238798 0.00218168 0.03084545 0.00400932 0.00283348 0.00448386 0.00136269 
0.12255187 0.01902705 0.01201894 0.00188683 0.00076409 0.00272783 0.01250699 0.00369083 0.01720150 0.00239751 0.00219200 0.03074486 0.00402463 0.00278797 0.00446953 0.00136016 
0.12463169 0.01860093 0.01177487 0.00189377 0.00076745 0.00273526 0.01244872 0.00378108 0.01722138 0.00240643 0.00220078 0.03059797 0.00404439 0.00274021 0.00445396 0.00135750 
0.12660527 0.01818108 0.01151543 0.00190189 0.00077041 0.00274125 0.01237419 0.00387086 0.01725965 0.00241462 0.00220795 0.03040525 0.00406863 0.00269035 0.00443719 0.00135473 
0.12846535 0.01777038 0.01124192 0.00191117 0.00077294 0.00274580 0.01228356 0.00395979 0.01731537 0.00242199 0.00221345 0.03016735 0.00409734 0.00263854 0.00441926 0.00135185 
0.13020517 0.01737171 0.01095571 0.00192158 0.00077503 0.00274886 0.01217707 0.00404750 0.01738755 0.00242843 0.00221723 0.02988515 0.00413048 0.00258497 0.00440020 0.00134887 
0.13181850 0.01698790 0.01065821 0.00193309 0.00077666 0.00275044 0.01205502 0.00413361 0.01747510 0.00243388 0.00221923 0.02955975 0.00416801 0.00252980 0.00438005 0.00134579 
0.13329964 0.01662176 0.01035090 0.00194567 0.00077781 0.00275051 0.01191783 0.00421776 0.01757690 0.00243823 0.00221942 0.02919242 0.00420985 0.00247321 0.00435883 0.00134262 
0.13464345 0.01627600 0.01003526 0.00195927 0.00077848 0.00274908 0.01176598 0.00429957 0.01769179 0.00244143 0.00221776 0.02878467 0.00425589 0.00241538 0.00433660 0.00133937 
0.13584535 0.01595328 0.00971283 0.00197386 0.00077865 0.00274616 0.01160006 0.00437870 0.01781855 0.00244342 0.00221424 0.02833817 0.00430601 0.00235650 0.00431338 0.00133605 
0.13690131 0.01565613 0.00938516 0.00198938 0.00077831 0.00274176 0.01142071 0.00445480 0.01795595 0.00244415 0.00220884 0.02785480 0.00436004 0.00229675 0.00428923 0.00133267 
0.13780791 0.01538701 0.00905381 0.00200580 0.00077747 0.00273589 0.01122867 0.00452753 0.01810274 0.00244358 0.00220157 0.02733659 0.00441782 0.00223633 0.00426419 0.00132923 
0.13856229 0.01514821 0.00872033 0.00202306 0.00077611 0.00272858 0.01102474 0.00459656 0.01825765 0.00244169 0.00219242 0.02678576 0.00447914 0.00217543 0.00423830 0.00132575 
0.13916214 0.01494192 0.00838629 0.00204112 0.00077423 0.00271987 0.01080980 0.00466160 0.01841942 0.00243845 0.00218144 0.02620467 0.00454379 0.00211423 0.00421162 0.00132224 
0.13960577 0.01477015 0.00805322 0.00205993 0.00077185 0.00270979 0.01058479 0.00472234 0.01858679 0.00243387 0.00216864 0.02559584 0.00461150 0.00205293 0.00418422 0.00131871 
0.13989201 0.01463478 0.00772267 0.00207943 0.00076895 0.00269838 0.01035072 0.00477853 0.01875852 0.00242794 0.00215408 0.02496190 0.00468201 0.00199172 0.00415614 0.00131516 
0.14002029 0.01453749 0.00739611 0.00209957 0.00076556 0.00268571 0.01010866 0.00482990 0.01893338 0.00242070 0.00213781 0.02430563 0.00475504 0.00193078 0.00412746 0.00131160 
0.13999056 0.01447978 0.00707500 0.00212031 0.00076167 0.00267182 0.00985971 0.00487623 0.01911017 0.00241216 0.00211989 0.02362989 0.00483026 0.00187030 0.00409824 0.00130806 
0.13980331 0.01446296 0.00676075 0.00214158 0.00075731 0.00265679 0.00960504 0.00491732 0.01928774 0.00240237 0.00210042 0.02293765 0.00490736 0.00181046 0.00406856 0.00130453 
0.13945957 0.01448814 0.00645473 0.00216334 0.00075249 0.00264067 0.00934587 0.00495298 0.01946497 0.00239138 0.00207947 0.02223194 0.00498599 0.00175143 0.00403849 0.00130103 
0.13896086 0.01455623 0.00615822 0.00218553 0.00074722 0.00262355 0.00908342 0.00498307 0.01964077 0.00237925 0.00205714 0.02151587 0.00506578 0.00169339 0.00400814 0.00129757 
0.13830922 0.01466791 0.00587246 0.00220810 0.00074154 0.00260550 0.00881899 0.00500746 0.01981413 0.00236606 0.00203356 0.02079258 0.00514636 0.00163649 0.00397758 0.00129415 
0.13750712 0.01482365 0.00559860 0.00223101 0.00073545 0.00258660 0.00855385 0.00502606 0.01998409 0.00235188 0.00200885 0.02006526 0.00522735 0.00158091 0.00394690 0.00129079 
0.13655752 0.01502370 0.00533774 0.00225419 0.00072900 0.00256695 0.00828934 0.00503879 0.02014973 0.00233680 0.00198314 0.01933712 0.00530835 0.00152679 0.00391622 0.00128751 
0.13546380 0.01526808 0.00509085 0.00227760 0.00072221 0.00254663 0.00802678 0.00504563 0.02031020 0.00232093 0.00195658 0.01861135 0.00538895 0.00147429 0.00388563 0.00128429 
0.13422975 0.01555659 0.00485884 0.00230118 0.00071510 0.00252574 0.00776750 0.00504656 0.02046474 0.00230437 0.00192931 0.01789115 0.00546875 0.00142353 0.00385524 0.00128117 
0.13285955 0.01588879 0.00464254 0.00232490 0.00070772 0.00250437 0.00751283 0.00504161 0.02061262 0.00228723 0.00190150 0.01717969 0.00554732 0.00137465 0.00382517 0.00127814 
0.13135776 0.01626403 0.00444265 0.00234869 0.00070010 0.00248262 0.00726411 0.00503085 0.02075320 0.00226963 0.00187332 0.01648007 0.00562426 0.00132778 0.00379553 0.00127522 
0.12972926 0.01668143 0.00425978 0.00237251 0.00069229 0.00246058 0.00702264 0.00501435 0.02088591 0.00225170 0.00184495 0.01579536 0.00569915 0.00128303 0.00376644 0.00127240 
0.12797926 0.01713991 0.00409446 0.00239631 0.00068430 0.00243837 0.00678973 0.00499225 0.02101024 0.00223357 0.00181657 0.01512857 0.00577158 0.00124049 0.00373803 0.00126971 
0.12611328 0.01763816 0.00394708 0.00242004 0.00067620 0.00241607 0.00656662 0.00496468 0.02112576 0.00221537 0.00178837 0.01448258 0.00584116 0.00120028 0.00371042 0.00126715 
0.12413710 0.01817466 0.00381796 0.00244364 0.00066803 0.00239379 0.00635456 0.00493183 0.02123210 0.00219723 0.00176054 0.01386021 0.00590747 0.00116248 0.00368374 0.00126472 
0.12205674 0.01874769 0.00370727 0.00246708 0.00065982 0.00237162 0.00615473 0.00489390 0.02132896 0.00217930 0.00173328 0.01326415 0.00597015 0.00112716 0.00365811 0.00126243 
0.11987846 0.01935536 0.00361511 0.00249030 0.00065162 0.00234966 0.00596829 0.00485114 0.02141612 0.00216170 0.00170678 0.01269698 0.00602883 0.00109439 0.00363368 0.00126029 
0.11760870 0.01999558 0.00354147 0.00251326 0.00064348 0.00232800 0.00579632 0.00480380 0.02149340 0.00214458 0.00168125 0.01216114 0.00608315 0.00106424 0.00361056 0.00125830 
0.11525412 0.02066609 0.00348621 0.00253589 0.00063545 0.00230673 0.00563988 0.00475217 0.02156070 0.00212807 0.00165688 0.01165893 0.00613278 0.00103675 0.00358888 0.00125646 
0.11282149 0.02136446 0.00344912 0.00255815 0.00062757 0.00228594 0.00549993 0.00469657 0.02161797 0.00211231 0.00163388 0.01119247 0.00617742 0.00101197 0.00356877 0.00125479 
0.11031773 0.02208814 0.00342986 0.00257999 0.00061988 0.00226572 0.00537738 0.00463732 0.02166522 0.00209742 0.00161244 0.01076376 0.00621678 0.00098992 0.00355035 0.00125328 
0.10774989 0.02283443 0.00342801 0.00260135 0.00061245 0.00224613 0.00527306 0.00457478 0.02170251 0.00208354 0.00159274 0.01037458 0.00625061 0.00097063 0.00353375 0.00125193 
0.10512509 0.02360049 0.00344305 0.00262219 0.00060530 0.00222726 0.00518775 0.00450932 0.02172994 0.00207078 0.00157499 0.01002658 0.00627867 0.00095412 0.00351908 0.00125075 
0.10245053 0.02438341 0.00347438 0.00264243 0.00059849 0.00220918 0.00512210 0.00444132 0.02174767 0.00205926 0.00155936 0.00972119 0.00630078 0.00094039 0.00350645 0.00124974 
0.09973345 0.02518015 0.00352131 0.00266204 0.00059206 0.00219194 0.00507672 0.00437118 0.02175589 0.00204908 0.00154602 0.00945966 0.00631677 0.00092943 0.00349597 0.00124890 
0.09698115 0.02598763 0.00358306 0.00268096 0.00058605 0.00217559 0.00505210 0.00429931 0.02175483 0.00204036 0.00153513 0.00924305 0.00632652 0.00092124 0.00348773 0.00124823 
0.09420091 0.02680267 0.00365879 0.00269912 0.00058050 0.00216020 0.00504865 0.00422613 0.02174476 0.00203318 0.00152687 0.00907221 0.00632995 0.00091579 0.00348183 0.00124772 
0.09140003 0.02762208 0.00374760 0.00271646 0.00057545 0.00214580 0.00506669 0.00415205 0.02172596 0.00202762 0.00152136 0.00894781 0.00632701 0.00091307 0.00347834 0.00124738 
0.08858578 0.02844261 0.00384850 0.00273294 0.00057095 0.00213243 0.00510643 0.00407750 0.02169877 0.00202377 0.00151874 0.00887030 0.00631769 0.00091303 0.00347736 0.00124720 
0.08576540 0.02926103 0.00396048 0.00274848 0.00056701 0.00212011 0.00516799 0.00400291 0.02166350 0.00202168 0.00151914 0.00883994 0.00630203 0.00091564 0.00347893 0.00124719 
0.08294607 0.03007409 0.00408246 0.00276303 0.00056368 0.00210887 0.00525138 0.00392869 0.02162053 0.00202141 0.00152265 0.00885678 0.00628013 0.00092084 0.00348312 0.00124732 
0.08013493 0.03087855 0.00421332 0.00277652 0.00056098 0.00209872 0.00535651 0.00385526 0.02157022 0.00202300 0.00152936 0.00892066 0.00625209 0.00092859 0.00348997 0.00124761 
0.07733899 0.03167124 0.00435192 0.00278890 0.00055894 0.00208966 0.00548320 0.00378302 0.02151295 0.00202649 0.00153936 0.00903126 0.00621810 0.00093883 0.00349950 0.00124805 
0.07456521 0.03244902 0.00449710 0.00280011 0.00055757 0.00208170 0.00563116 0.00371238 0.02144912 0.00203190 0.00155270 0.00918802 0.00617838 0.00095148 0.00351175 0.00124863 
0.07182043 0.03320881 0.00464766 0.00281008 0.00055691 0.00207482 0.00579999 0.00364371 0.02137911 0.00203923 0.00156942 0.00939022 0.00613318 0.00096650 0.00352672 0.00124934 
0.06911135 0.03394762 0.00480241 0.00281874 0.00055696 0.00206901 0.00598919 0.00357738 0.02130333 0.00204849 0.00158955 0.00963695 0.00608282 0.00098379 0.00354440 0.00125017 
0.06644457 0.03466255 0.00496015 0.00282606 0.00055773 0.00206425 0.00619818 0.00351373 0.02122217 0.00205965 0.00161308 0.00992711 0.00602765 0.00100328 0.00356479 0.00125113 
0.06382652 0.03535081 0.00511969 0.00283195 0.00055924 0.00206051 0.00642626 0.00345310 0.02113602 0.00207270 0.00164000 0.01025946 0.00596806 0.00102489 0.00358784 0.00125220 
0.06126348 0.03600975 0.00527985 0.00283637 0.00056148 0.00205774 0.00667265 0.00339577 0.02104529 0.00208760 0.00167029 0.01063255 0.00590450 0.00104853 0.00361351 0.00125337 
0.05876157 0.03663683 0.00543948 0.00283926 0.00056446 0.00205591 0.00693647 0.00334204 0.02095037 0.00210429 0.00170389 0.01104482 0.00583744 0.00107412 0.00364176 0.00125464 
0.05632672 0.03722965 0.00559744 0.00284057 0.00056817 0.00205498 0.00721676 0.00329214 0.02085162 0.00212272 0.00174072 0.01149453 0.00576741 0.00110156 0.00367250 0.00125599 
0.05396468 0.03778600 0.00575263 0.00284025 0.00057260 0.00205488 0.00751246 0.00324631 0.02074944 0.00214283 0.00178070 0.01197982 0.00569496 0.00113076 0.00370566 0.00125743 
0.05168101 0.03830379 0.00590401 0.00283824 0.00057774 0.00205556 0.00782245 0.00320472 0.02064419 0.00216452 0.00182372 0.01249872 0.00562068 0.00116163 0.00374114 0.00125892 
0.04948103 0.03878115 0.00605057 0.00283451 0.00058357 0.00205697 0.00814553 0.00316755 0.02053625 0.00218772 0.00186965 0.01304911 0.00554520 0.00119407 0.00377883 0.00126048 
0.04736987 0.03921634 0.00619135 0.00282901 0.00059008 0.00205903 0.00848043 0.00313492 0.02042596 0.00221232 0.00191834 0.01362881 0.00546915 0.00122797 0.00381861 0.00126208 
0.04535242 0.03960786 0.00632546 0.00282171 0.00059724 0.00206167 0.00882581 0.00310692 0.02031369 0.00223822 0.00196963 0.01423550 0.00539323 0.00126325 0.00386035 0.00126372 
0.04343333 0.03995436 0.00645206 0.00281257 0.00060502 0.00206483 0.00918027 0.00308362 0.02019978 0.00226530 0.00202334 0.01486683 0.00531812 0.00129980 0.00390391 0.00126539 
0.04161699 0.04025470 0.00657040 0.00280157 0.00061339 0.00206844 0.00954238 0.00306503 0.02008458 0.00229344 0.00207927 0.01552036 0.00524454 0.00133752 0.00394914 0.00126708 
0.03990755 0.04050795 0.00667978 0.00278868 0.00062232 0.00207241 0.00991066 0.00305116 0.01996843 0.00232252 0.00213722 0.01619359 0.00517321 0.00137632 0.00399586 0.00126877 
0.03830889 0.04071338 0.00677958 0.00277390 0.00063176 0.00207669 0.01028358 0.00304195 0.01985166 0.00235240 0.00219695 0.01688400 0.00510487 0.00141609 0.00404392 0.00127046 
0.03682460 0.04087044 0.00686927 0.00275720 0.00064168 0.00208119 0.01065958 0.00303734 0.01973463 0.00238295 0.00225822 0.01758904 0.00504026 0.00145674 0.00409313 0.00127214 
0.03545800 0.04097882 0.00694838 0.00273858 0.00065203 0.00208584 0.01103711 0.00303722 0.01961765 0.00241402 0.00232078 0.01830614 0.00498012 0.00149816 0.00414330 0.00127381 
0.03421211 0.04103837 0.00701654 0.00271805 0.00066278 0.00209057 0.01141456 0.00304145 0.01950108 0.00244548 0.00238438 0.01903273 0.00492518 0.00154026 0.00419424 0.00127544 
0.03308963 0.04104917 0.00707345 0.00269562 0.00067386 0.00209532 0.01179037 0.00304986 0.01938525 0.00247717 0.00244874 0.01976626 0.00487616 0.00158295 0.00424576 0.00127703 
0.03209298 0.04101149 0.00711891 0.00267129 0.00068523 0.00210002 0.01216293 0.00306224 0.01927052 0.00250896 0.00251358 0.02050420 0.00483378 0.00162613 0.00429765 0.00127858 
0.03122424 0.04092577 0.00715279 0.00264510 0.00069683 0.00210460 0.01253067 0.00307838 0.01915723 0.00254069 0.00257862 0.02124407 0.00479870 0.00166970 0.00434971 0.00128007 
0.03048517 0.04079267 0.00717505 0.00261707 0.00070862 0.00210901 0.01289203 0.00309803 0.01904573 0.00257223 0.00264356 0.02198341 0.00477160 0.00171359 0.00440173 0.00128151 
0.02987719 0.04061302 0.00718572 0.00258724 0.00072054 0.00211319 0.01324550 0.00312090 0.01893639 0.00260342 0.00270812 0.02271987 0.00475310 0.00175770 0.00445350 0.00128287 
0.02940140 0.04038780 0.00718493 0.00255565 0.00073254 0.00211710 0.01358956 0.00314670 0.01882958 0.00263413 0.00277200 0.02345113 0.00474380 0.00180194 0.00450482 0.00128417 
0.02905853 0.04011818 0.00717288 0.00252237 0.00074455 0.00212070 0.01392278 0.00317513 0.01872567 0.00266422 0.00283490 0.02417498 0.00474424 0.00184623 0.00455549 0.00128538 
0.02884897 0.03980550 0.00714984 0.00248744 0.00075653 0.00212393 0.01424375 0.00320585 0.01862505 0.00269356 0.00289653 0.02488930 0.00475493 0.00189049 0.00460530 0.00128651 
0.02877276 0.03945122 0.00711617 0.00245094 0.00076841 0.00212678 0.01455114 0.00323851 0.01852810 0.00272203 0.00295661 0.02559207 0.00477632 0.00193464 0.00465405 0.00128755 
0.02882957 0.03905696 0.00707228 0.00241294 0.00078015 0.00212922 0.01484368 0.00327277 0.01843523 0.00274949 0.00301485 0.02628137 0.00480882 0.00197860 0.00470156 0.00128849 
0.02901872 0.03862447 0.00701866 0.00237352 0.00079169 0.00213122 0.01512015 0.00330828 0.01834685 0.00277583 0.00307097 0.02695543 0.00485276 0.00202231 0.00474764 0.00128934 
0.02933916 0.03815562 0.00695586 0.00233277 0.00080298 0.00213279 0.01537945 0.00334465 0.01826335 0.00280095 0.00312470 0.02761259 0.00490843 0.00206569 0.00479211 0.00129009 
0.02978945 0.03765237 0.00688447 0.00229079 0.00081396 0.00213391 0.01562053 0.00338155 0.01818515 0.00282474 0.00317579 0.02825131 0.00497604 0.00210867 0.00483480 0.00129074 
0.03036783 0.03711682 0.00680516 0.00224768 0.00082458 0.00213458 0.01584247 0.00341859 0.01811267 0.00284711 0.00322400 0.02887020 0.00505573 0.00215119 0.00487555 0.00129129 
0.03107213 0.03655112 0.00671862 0.00220355 0.00083481 0.00213483 0.01604440 0.00345544 0.01804633 0.00286799 0.00326908 0.02946802 0.00514756 0.00219318 0.00491421 0.00129174 
0.03189984 0.03595753 0.00662560 0.00215851 0.00084459 0.00213466 0.01622559 0.00349174 0.01798655 0.00288728 0.00331082 0.03004367 0.00525156 0.00223459 0.00495065 0.00129208 
0.03284808 0.03533836 0.00652689 0.00211268 0.00085388 0.00213409 0.01638539 0.00352716 0.01793373 0.00290493 0.00334901 0.03059618 0.00536762 0.00227535 0.00498473 0.00129233 
0.03391363 0.03469596 0.00642328 0.00206619 0.00086264 0.00213317 0.01652329 0.00356139 0.01788829 0.00292089 0.00338347 0.03112474 0.00549560 0.00231543 0.00501635 0.00129247 
0.03509289 0.03403277 0.00631561 0.00201917 0.00087083 0.00213192 0.01663886 0.00359413 0.01785062 0.00293510 0.00341403 0.03162870 0.00563528 0.00235475 0.00504540 0.00129252 
0.03638193 0.03335122 0.00620473 0.00197176 0.00087842 0.00213039 0.01673181 0.00362511 0.01782112 0.00294753 0.00344054 0.03210754 0.00578633 0.00239328 0.00507180 0.00129248 
0.03777647 0.03265379 0.00609150 0.00192408 0.00088539 0.00212863 0.01680194 0.00365407 0.01780016 0.00295815 0.00346288 0.03256088 0.00594837 0.00243097 0.00509548 0.00129234 
0.03927193 0.03194297 0.00597680 0.00187628 0.00089169 0.00212669 0.01684919 0.00368078 0.01778809 0.00296695 0.00348093 0.03298849 0.00612094 0.00246778 0.00511639 0.00129211 
0.04086339 0.03122124 0.00586149 0.00182851 0.00089732 0.00212464 0.01687361 0.00370506 0.01778526 0.00297392 0.00349461 0.03339027 0.00630350 0.00250366 0.00513447 0.00129181 
0.04254561 0.03049108 0.00574643 0.00178091 0.00090225 0.00212253 0.01687537 0.00372673 0.01779198 0.00297907 0.00350386 0.03376626 0.00649543 0.00253857 0.00514971 0.00129142 
0.04431307 0.02975497 0.00563248 0.00173362 0.00090645 0.00212044 0.01685474 0.00374568 0.01780852 0.00298240 0.00350862 0.03411661 0.00669606 0.00257249 0.00516210 0.00129097 
0.04615999 0.02901534 0.00552046 0.00168679 0.00090994 0.00211843 0.01681213 0.00376181 0.01783515 0.00298395 0.00350889 0.03444160 0.00690464 0.00260537 0.00517165 0.00129044 
0.04808030 0.02827461 0.00541118 0.00164058 0.00091268 0.00211659 0.01674804 0.00377506 0.01787209 0.00298374 0.00350466 0.03474162 0.00712035 0.00263719 0.00517837 0.00128986 
0.05006767 0.02753515 0.00530542 0.00159512 0.00091468 0.00211499 0.01666309 0.00378542 0.01791952 0.00298181 0.00349597 0.03501716 0.00734231 0.00266791 0.00518230 0.00128922 
0.05211558 0.02679929 0.00520393 0.00155056 0.00091595 0.00211370 0.01655801 0.00379291 0.01797758 0.00297822 0.00348285 0.03526880 0.00756960 0.00269750 0.00518349 0.00128854 
0.05421727 0.02606928 0.00510743 0.00150705 0.00091647 0.00211281 0.01643360 0.00379759 0.01804638 0.00297301 0.00346538 0.03549720 0.00780124 0.00272595 0.00518201 0.00128782 
0.05636578 0.02534735 0.00501656 0.00146473 0.00091626 0.00211239 0.01629079 0.00379957 0.01812596 0.00296626 0.00344365 0.03570310 0.00803619 0.00275323 0.00517795 0.00128707 
0.05855401 0.02463563 0.00493195 0.00142373 0.00091533 0.00211252 0.01613059 0.00379899 0.01821634 0.00295803 0.00341777 0.03588730 0.00827341 0.00277931 0.00517139 0.00128629 
0.06077468 0.02393619 0.00485418 0.00138420 0.00091369 0.00211329 0.01595407 0.00379604 0.01831746 0.00294840 0.00338788 0.03605066 0.00851178 0.00280418 0.00516244 0.00128549 
0.06302040 0.02325102 0.00478374 0.00134625 0.00091136 0.00211476 0.01576241 0.00379095 0.01842923 0.00293745 0.00335414 0.03619407 0.00875019 0.00282782 0.00515123 0.00128469 
0.06528368 0.02258205 0.00472111 0.00131002 0.00090836 0.00211700 0.01555683 0.00378398 0.01855149 0.00292527 0.00331670 0.03631845 0.00898749 0.00285020 0.00513789 0.00128388 
0.06755694 0.02193110 0.00466666 0.00127563 0.00090472 0.00212010 0.01533863 0.00377544 0.01868403 0.00291195 0.00327576 0.03642476 0.00922253 0.00287133 0.00512255 0.00128309 
0.06983255 0.02129992 0.00462074 0.00124318 0.00090045 0.00212410 0.01510915 0.00376566 0.01882659 0.00289758 0.00323152 0.03651394 0.00945414 0.00289117 0.00510537 0.00128231 
0.07210285 0.02069016 0.00458362 0.00121280 0.00089559 0.00212907 0.01486979 0.00375502 0.01897884 0.00288227 0.00318421 0.03658695 0.00968116 0.00290972 0.00508652 0.00128155 
0.07436018 0.02010338 0.00455549 0.00118457 0.00089017 0.00213507 0.01462197 0.00374394 0.01914041 0.00286610 0.00313406 0.03664473 0.00990244 0.00292698 0.00506615 0.00128082 
0.07659689 0.01954107 0.00453651 0.00115858 0.00088422 0.00214215 0.01436715 0.00373284 0.01931085 0.00284918 0.00308131 0.03668820 0.01011685 0.00294293 0.00504446 0.00128014 
0.07880540 0.01900460 0.00452672 0.00113494 0.00087778 0.00215034 0.01410679 0.00372220 0.01948967 0.00283162 0.00302622 0.03671825 0.01032328 0.00295756 0.00502162 0.00127950 
0.08097818 0.01849525 0.00452615 0.00111370 0.00087089 0.00215969 0.01384238 0.00371251 0.01967633 0.00281351 0.00296906 0.03673574 0.01052063 0.00297087 0.00499781 0.00127891 
0.08310781 0.01801421 0.00453472 0.00109495 0.00086357 0.00217022 0.01357539 0.00370429 0.01987021 0.00279496 0.00291009 0.03674146 0.01070788 0.00298286 0.00497324 0.00127839 
0.08518700 0.01756259 0.00455230 0.00107873 0.00085588 0.00218195 0.01330731 0.00369806 0.02007066 0.00277607 0.00284960 0.03673617 0.01088403 0.00299352 0.00494808 0.00127793 
0.08720861 0.01714138 0.00457870 0.00106510 0.00084785 0.00219490 0.01303958 0.00369437 0.02027699 0.00275693 0.00278786 0.03672055 0.01104812 0.00300286 0.00492255 0.00127755 
0.08916567 0.01675151 0.00461366 0.00105409 0.00083953 0.00220907 0.01277362 0.00369379 0.02048844 0.00273763 0.00272517 0.03669523 0.01119927 0.00301088 0.00489683 0.00127725 
0.09105143 0.01639378 0.00465685 0.00104575 0.00083095 0.00222445 0.01251083 0.00369688 0.02070423 0.00271829 0.00266181 0.03666077 0.01133666 0.00301759 0.00487112 0.00127703 
0.09285933 0.01606892 0.00470790 0.00104009 0.00082216 0.00224104 0.01225256 0.00370420 0.02092352 0.00269897 0.00259805 0.03661763 0.01145953 0.00302298 0.00484561 0.00127691 
0.09458310 0.01577758 0.00476636 0.00103712 0.00081319 0.00225880 0.01200009 0.00371634 0.02114546 0.00267977 0.00253419 0.03656623 0.01156720 0.00302707 0.00482049 0.00127689 
0.09621671 0.01552031 0.00483175 0.00103684 0.00080409 0.00227772 0.01175466 0.00373385 0.02136916 0.00266078 0.00247051 0.03650689 0.01165906 0.00302987 0.00479595 0.00127697 
0.09775444 0.01529757 0.00490352 0.00103925 0.00079491 0.00229775 0.01151744 0.00375730 0.02159370 0.00264206 0.00240726 0.03643985 0.01173460 0.00303139 0.00477216 0.00127716 
0.09919090 0.01510976 0.00498108 0.00104432 0.00078567 0.00231884 0.01128953 0.00378722 0.02181815 0.00262368 0.00234472 0.03636527 0.01179338 0.00303165 0.00474931 0.00127746 
0.10052099 0.01495716 0.00506381 0.00105204 0.00077643 0.00234094 0.01107192 0.00382415 0.02204157 0.00260573 0.00228314 0.03628326 0.01183507 0.00303067 0.00472756 0.00127787 
0.10174001 0.01484001 0.00515102 0.00106236 0.00076721 0.00236397 0.01086556 0.00386859 0.02226299 0.00258825 0.00222277 0.03619381 0.01185941 0.00302846 0.00470707 0.00127840 
0.10284360 0.01475845 0.00524201 0.00107523 0.00075806 0.00238788 0.01067128 0.00392102 0.02248147 0.00257130 0.00216384 0.03609687 0.01186624 0.00302506 0.00468799 0.00127906 
0.10382781 0.01471255 0.00533606 0.00109061 0.00074900 0.00241257 0.01048982 0.00398191 0.02269605 0.00255493 0.00210656 0.03599232 0.01185550 0.00302048 0.00467046 0.00127983 
0.10468907 0.01470231 0.00543240 0.00110843 0.00074008 0.00243797 0.01032183 0.00405167 0.02290580 0.00253919 0.00205115 0.03587998 0.01182721 0.00301476 0.00465462 0.00128073 
0.10542424 0.01472764 0.00553024 0.00112860 0.00073132 0.00246397 0.01016784 0.00413070 0.02310979 0.00252411 0.00199780 0.03575958 0.01178152 0.00300793 0.00464058 0.00128176 
0.10603061 0.01478842 0.00562881 0.00115107 0.00072275 0.00249047 0.01002830 0.00421933 0.02330711 0.00250972 0.00194668 0.03563085 0.01171862 0.00300001 0.00462846 0.00128291 
0.10650590 0.01488441 0.00572728 0.00117573 0.00071440 0.00251737 0.00990354 0.00431789 0.02349690 0.00249605 0.00189795 0.03549345 0.01163885 0.00299106 0.00461835 0.00128419 
0.10684828 0.01501536 0.00582487 0.00120249 0.00070630 0.00254455 0.00979378 0.00442663 0.02367831 0.00248312 0.00185175 0.03534700 0.01154259 0.00298110 0.00461033 0.00128560 
0.10705638 0.01518091 0.00592075 0.00123125 0.00069847 0.00257191 0.00969915 0.00454577 0.02385056 0.00247094 0.00180821 0.03519110 0.01143035 0.00297018 0.00460449 0.00128713 
0.10712928 0.01538066 0.00601414 0.00126190 0.00069093 0.00259931 0.00961965 0.00467548 0.02401288 0.00245952 0.00176743 0.03502534 0.01130268 0.00295834 0.00460087 0.00128878 
0.10706654 0.01561415 0.00610424 0.00129433 0.00068370 0.00262665 0.00955521 0.00481589 0.02416457 0.00244886 0.00172949 0.03484930 0.01116024 0.00294563 0.00459952 0.00129056 
0.10686817 0.01588086 0.00619029 0.00132841 0.00067680 0.00265378 0.00950563 0.00496705 0.02430500 0.00243897 0.00169447 0.03466255 0.01100377 0.00293210 0.00460048 0.00129246 
0.10653466 0.01618019 0.00627155 0.00136402 0.00067023 0.00268059 0.00947062 0.00512899 0.02443356 0.00242983 0.00166241 0.03446468 0.01083406 0.00291780 0.00460376 0.00129448 
0.10606697 0.01651153 0.00634730 0.00140103 0.00066402 0.00270695 0.00944979 0.00530165 0.02454974 0.00242142 0.00163334 0.03425528 0.01065196 0.00290279 0.00460938 0.00129661 
0.10546650 0.01687416 0.00641685 0.00143932 0.00065817 0.00273274 0.00944266 0.00548496 0.02465309 0.00241375 0.00160728 0.03403399 0.01045842 0.00288711 0.00461732 0.00129885 
0.10473516 0.01726734 0.00647956 0.00147874 0.00065268 0.00275782 0.00944868 0.00567875 0.02474321 0.00240677 0.00158422 0.03380048 0.01025439 0.00287083 0.00462756 0.00130119 
0.10387525 0.01769027 0.00653483 0.00151915 0.00064757 0.00278208 0.00946719 0.00588282 0.02481980 0.00240048 0.00156413 0.03355446 0.01004090 0.00285400 0.00464007 0.00130364 
