0.01492190 0.01304435 0.00504114 0.00497658 0.00719106 0.00170621 0.01106155 0.00496362 0.03082610 0.00502739 0.01982515 0.00138426 0.01535143 0.05306833 0.01953605 0.00520081 
0.01477372 0.01338918 0.00508274 0.00495310 0.00735587 0.00172706 0.01134679 0.00489023 0.03072214 0.00507165 0.01991669 0.00137716 0.01518313 0.05240949 0.01944628 0.00529055 
0.01462930 0.01373022 0.00512354 0.00492633 0.00751962 0.00174871 0.01162750 0.00481805 0.03058798 0.00511083 0.01999693 0.00136881 0.01500379 0.05175419 0.01934731 0.00536979 
0.01448913 0.01406637 0.00516353 0.00489642 0.00768142 0.00177107 0.01190248 0.00474723 0.03042416 0.00514475 0.02006591 0.00135922 0.01481384 0.05110373 0.01923900 0.00543802 
0.01435368 0.01439654 0.00520270 0.00486350 0.00784041 0.00179407 0.01217053 0.00467794 0.03023135 0.00517331 0.02012374 0.00134840 0.01461374 0.05045934 0.01912123 0.00549475 
0.01422337 0.01471964 0.00524107 0.00482775 0.00799575 0.00181761 0.01243052 0.00461032 0.03001032 0.00519639 0.02017056 0.00133634 0.01440400 0.04982212 0.01899386 0.00553956 
0.01409859 0.01503462 0.00527863 0.00478935 0.00814663 0.00184161 0.01268136 0.00454450 0.02976195 0.00521392 0.02020652 0.00132309 0.01418521 0.04919308 0.01885682 0.00557211 
0.01397965 0.01534047 0.00531538 0.00474850 0.00829227 0.00186598 0.01292199 0.00448058 0.02948719 0.00522587 0.02023184 0.00130865 0.01395798 0.04857311 0.01871000 0.00559211 
0.01386684 0.01563618 0.00535134 0.00470542 0.00843196 0.00189062 0.01315143 0.00441868 0.02918713 0.00523222 0.02024674 0.00129307 0.01372298 0.04796303 0.01855335 0.00559932 
0.01376038 0.01592080 0.00538650 0.00466034 0.00856502 0.00191545 0.01336874 0.00435886 0.02886288 0.00523299 0.02025147 0.00127640 0.01348093 0.04736354 0.01838685 0.00559360 
0.01366046 0.01619340 0.00542086 0.00461349 0.00869083 0.00194037 0.01357303 0.00430120 0.02851568 0.00522823 0.02024633 0.00125869 0.01323257 0.04677527 0.01821047 0.00557489 
0.01356721 0.01645313 0.00545444 0.00456512 0.00880883 0.00196529 0.01376351 0.00424576 0.02814681 0.00521803 0.02023162 0.00123999 0.01297870 0.04619876 0.01802425 0.00554318 
0.01348068 0.01669914 0.00548722 0.00451550 0.00891851 0.00199013 0.01393942 0.00419256 0.02775761 0.00520250 0.02020767 0.00122038 0.01272016 0.04563448 0.01782826 0.00549858 
0.01340090 0.01693065 0.00551921 0.00446488 0.00901947 0.00201478 0.01410009 0.00414165 0.02734948 0.00518178 0.02017483 0.00119992 0.01245779 0.04508284 0.01762258 0.00544126 
0.01332784 0.01714694 0.00555040 0.00441353 0.00911133 0.00203917 0.01424491 0.00409303 0.02692388 0.00515606 0.02013345 0.00117870 0.01219249 0.04454416 0.01740738 0.00537148 
0.01326141 0.01734733 0.00558077 0.00436172 0.00919382 0.00206321 0.01437336 0.00404669 0.02648229 0.00512555 0.02008391 0.00115681 0.01192516 0.04401873 0.01718283 0.00528960 
0.01320148 0.01753120 0.00561032 0.00430974 0.00926675 0.00208682 0.01448496 0.00400264 0.02602622 0.00509049 0.02002660 0.00113433 0.01165673 0.04350678 0.01694917 0.00519608 
0.01314786 0.01769800 0.00563901 0.00425785 0.00933000 0.00210992 0.01457935 0.00396083 0.02555721 0.00505114 0.01996190 0.00111138 0.01138814 0.04300850 0.01670668 0.00509144 
0.01310033 0.01784724 0.00566683 0.00420632 0.00938353 0.00213244 0.01465621 0.00392124 0.02507683 0.00500782 0.01989022 0.00108804 0.01112033 0.04252407 0.01645569 0.00497632 
0.01305860 0.01797848 0.00569375 0.00415542 0.00942739 0.00215431 0.01471533 0.00388381 0.02458665 0.00496086 0.01981196 0.00106443 0.01085427 0.04205361 0.01619658 0.00485144 
0.01302237 0.01809136 0.00571973 0.00410541 0.00946172 0.00217545 0.01475656 0.00384849 0.02408823 0.00491060 0.01972751 0.00104067 0.01059089 0.04159725 0.01592980 0.00471759 
0.01299128 0.01818559 0.00574473 0.00405655 0.00948675 0.00219582 0.01477983 0.00381522 0.02358316 0.00485745 0.01963726 0.00101686 0.01033115 0.04115510 0.01565582 0.00457569 
0.01296495 0.01826093 0.00576871 0.00400908 0.00950278 0.00221535 0.01478515 0.00378392 0.02307299 0.00480181 0.01954162 0.00099312 0.01007597 0.04072726 0.01537520 0.00442671 
0.01294294 0.01831723 0.00579160 0.00396323 0.00951021 0.00223400 0.01477261 0.00375451 0.02255928 0.00474411 0.01944097 0.00096958 0.00982628 0.04031384 0.01508853 0.00427171 
0.01292483 0.01835440 0.00581337 0.00391924 0.00950951 0.00225171 0.01474239 0.00372690 0.02204355 0.00468482 0.01933567 0.00094636 0.00958298 0.03991498 0.01479645 0.00411184 
0.01291013 0.01837242 0.00583394 0.00387730 0.00950124 0.00226846 0.01469472 0.00370100 0.02152733 0.00462441 0.01922610 0.00092358 0.00934692 0.03953080 0.01449967 0.00394832 
0.01289836 0.01837134 0.00585326 0.00383762 0.00948602 0.00228420 0.01462994 0.00367671 0.02101208 0.00456338 0.01911261 0.00090136 0.00911896 0.03916147 0.01419894 0.00378241 
0.01288902 0.01835128 0.00587125 0.00380036 0.00946457 0.00229892 0.01454843 0.00365394 0.02049927 0.00450225 0.01899553 0.00087983 0.00889990 0.03880719 0.01389505 0.00361549 
0.01288159 0.01831244 0.00588785 0.00376570 0.00943767 0.00231258 0.01445068 0.00363258 0.01999029 0.00444155 0.01887518 0.00085911 0.00869050 0.03846817 0.01358885 0.00344894 
0.01287554 0.01825508 0.00590298 0.00373377 0.00940615 0.00232518 0.01433721 0.00361253 0.01948654 0.00438182 0.01875187 0.00083931 0.00849148 0.03814467 0.01328124 0.00328423 
0.01287037 0.01817953 0.00591656 0.00370471 0.00937092 0.00233671 0.01420865 0.00359369 0.01898934 0.00432362 0.01862588 0.00082056 0.00830353 0.03783701 0.01297314 0.00312285 
0.01286554 0.01808617 0.00592852 0.00367861 0.00933293 0.00234716 0.01406567 0.00357596 0.01849999 0.00426753 0.01849749 0.00080297 0.00812725 0.03754551 0.01266552 0.00296635 
0.01286056 0.01797548 0.00593879 0.00365557 0.00929319 0.00235655 0.01390901 0.00355924 0.01801973 0.00421411 0.01836695 0.00078665 0.00796323 0.03727059 0.01235939 0.00281629 
0.01285491 0.01784798 0.00594728 0.00363564 0.00925274 0.00236487 0.01373946 0.00354343 0.01754976 0.00416394 0.01823450 0.00077171 0.00781197 0.03701267 0.01205577 0.00267424 
0.01284813 0.01770426 0.00595392 0.00361888 0.00921266 0.00237215 0.01355790 0.00352845 0.01709123 0.00411762 0.01810034 0.00075824 0.00767392 0.03677224 0.01175573 0.00254181 
0.01283974 0.01754495 0.00595865 0.00360531 0.00917404 0.00237840 0.01336524 0.00351419 0.01664525 0.00407573 0.01796467 0.00074634 0.00754946 0.03654985 0.01146035 0.00242059 
0.01282931 0.01737077 0.00596140 0.00359493 0.00913802 0.00238366 0.01316242 0.00350059 0.01621288 0.00403886 0.01782767 0.00073610 0.00743893 0.03634609 0.01117073 0.00231217 
0.01281643 0.01718247 0.00596209 0.00358774 0.00910572 0.00238796 0.01295048 0.00348756 0.01579510 0.00400760 0.01768951 0.00072760 0.00734256 0.03616158 0.01088796 0.00221810 
0.01280073 0.01698085 0.00596069 0.00358369 0.00907828 0.00239134 0.01273046 0.00347505 0.01539289 0.00398252 0.01755034 0.00072092 0.00726057 0.03599701 0.01061318 0.00213993 
0.01278185 0.01676679 0.00595713 0.00358273 0.00905683 0.00239383 0.01250345 0.00346299 0.01500715 0.00396420 0.01741027 0.00071612 0.00719305 0.03585311 0.01034748 0.00207917 
0.01275949 0.01654117 0.00595137 0.00358480 0.00904246 0.00239550 0.01227057 0.00345132 0.01463873 0.00395321 0.01726943 0.00071326 0.00714006 0.03573063 0.01009198 0.00203725 
0.01273340 0.01630495 0.00594338 0.00358981 0.00903627 0.00239638 0.01203299 0.00344002 0.01428845 0.00395011 0.01712793 0.00071239 0.00710157 0.03563039 0.00984778 0.00201558 
0.01270333 0.01605911 0.00593314 0.00359765 0.00903931 0.00239655 0.01179187 0.00342904 0.01395707 0.00395544 0.01698586 0.00071355 0.00707751 0.03555321 0.00961595 0.00201548 
0.01266913 0.01580467 0.00592064 0.00360821 0.00905259 0.00239606 0.01154841 0.00341837 0.01364531 0.00396973 0.01684331 0.00071677 0.00706772 0.03549995 0.00939756 0.00203819 
0.01263065 0.01554268 0.00590587 0.00362136 0.00907707 0.00239498 0.01130383 0.00340800 0.01335386 0.00399350 0.01670034 0.00072208 0.00707196 0.03547150 0.00919363 0.00208487 
0.01258782 0.01527424 0.00588884 0.00363695 0.00911364 0.00239337 0.01105935 0.00339792 0.01308333 0.00402725 0.01655703 0.00072949 0.00708996 0.03546874 0.00900516 0.00215657 
0.01254060 0.01500043 0.00586958 0.00365483 0.00916314 0.00239131 0.01081619 0.00338815 0.01283433 0.00407145 0.01641345 0.00073900 0.00712136 0.03549257 0.00883310 0.00225425 
0.01248901 0.01472241 0.00584813 0.00367484 0.00922633 0.00238887 0.01057556 0.00337871 0.01260740 0.00412656 0.01626967 0.00075060 0.00716574 0.03554389 0.00867835 0.00237875 
0.01243311 0.01444130 0.00582454 0.00369680 0.00930388 0.00238613 0.01033870 0.00336963 0.01240305 0.00419302 0.01612573 0.00076428 0.00722265 0.03562358 0.00854178 0.00253076 
0.01237302 0.01415828 0.00579888 0.00372055 0.00939638 0.00238317 0.01010679 0.00336096 0.01222177 0.00427122 0.01598171 0.00078000 0.00729154 0.03573253 0.00842418 0.00271088 
0.01230890 0.01387451 0.00577123 0.00374590 0.00950431 0.00238007 0.00988102 0.00335276 0.01206397 0.00436156 0.01583767 0.00079774 0.00737186 0.03587156 0.00832628 0.00291955 
0.01224097 0.01359117 0.00574170 0.00377267 0.00962808 0.00237692 0.00966255 0.00334508 0.01193007 0.00446438 0.01569368 0.00081744 0.00746296 0.03604149 0.00824875 0.00315706 
0.01216949 0.01330945 0.00571039 0.00380068 0.00976795 0.00237379 0.00945251 0.00333801 0.01182042 0.00458001 0.01554982 0.00083906 0.00756419 0.03624307 0.00819218 0.00342357 
0.01209476 0.01303053 0.00567745 0.00382974 0.00992411 0.00237078 0.00925200 0.00333164 0.01173535 0.00470873 0.01540617 0.00086252 0.00767483 0.03647702 0.00815710 0.00371905 
0.01201714 0.01275558 0.00564301 0.00385967 0.01009661 0.00236796 0.00906206 0.00332605 0.01167517 0.00485082 0.01526282 0.00088775 0.00779415 0.03674397 0.00814393 0.00404336 
0.01193703 0.01248578 0.00560725 0.00389030 0.01028539 0.00236542 0.00888372 0.00332136 0.01164012 0.00500647 0.01511987 0.00091466 0.00792138 0.03704449 0.00815303 0.00439617 
0.01185485 0.01222229 0.00557033 0.00392145 0.01049028 0.00236325 0.00871791 0.00331767 0.01163043 0.00517590 0.01497743 0.00094318 0.00805571 0.03737907 0.00818467 0.00477697 
0.01177109 0.01196625 0.00553245 0.00395297 0.01071097 0.00236153 0.00856555 0.00331511 0.01164629 0.00535923 0.01483563 0.00097319 0.00819634 0.03774808 0.00823900 0.00518513 
0.01168625 0.01171879 0.00549383 0.00398469 0.01094703 0.00236035 0.00842748 0.00331380 0.01168786 0.00555659 0.01469461 0.00100460 0.00834242 0.03815183 0.00831612 0.00561983 
0.01160088 0.01148102 0.00545468 0.00401648 0.01119793 0.00235978 0.00830447 0.00331388 0.01175525 0.00576804 0.01455450 0.00103729 0.00849312 0.03859047 0.00841601 0.00608007 
0.01151553 0.01125401 0.00541523 0.00404818 0.01146301 0.00235990 0.00819723 0.00331548 0.01184854 0.00599360 0.01441548 0.00107115 0.00864760 0.03906408 0.00853854 0.00656472 
0.01143082 0.01103884 0.00537574 0.00407969 0.01174147 0.00236080 0.00810638 0.00331874 0.01196778 0.00623328 0.01427772 0.00110604 0.00880500 0.03957257 0.00868352 0.00707248 
0.01134735 0.01083652 0.00533645 0.00411088 0.01203242 0.00236254 0.00803249 0.00332381 0.01211297 0.00648699 0.01414141 0.00114185 0.00896450 0.04011573 0.00885063 0.00760188 
0.01126576 0.01064804 0.00529763 0.00414166 0.01233485 0.00236519 0.00797602 0.00333083 0.01228406 0.00675465 0.01400675 0.00117843 0.00912525 0.04069322 0.00903945 0.00815134 
0.01118671 0.01047437 0.00525955 0.00417194 0.01264764 0.00236884 0.00793736 0.00333994 0.01248099 0.00703611 0.01387397 0.00121566 0.00928645 0.04130455 0.00924950 0.00871909 
0.01111086 0.01031641 0.00522250 0.00420165 0.01296958 0.00237353 0.00791681 0.00335130 0.01270361 0.00733116 0.01374328 0.00125339 0.00944730 0.04194904 0.00948015 0.00930326 
0.01103887 0.01017506 0.00518674 0.00423073 0.01329936 0.00237933 0.00791458 0.00336504 0.01295176 0.00763957 0.01361494 0.00129148 0.00960705 0.04262591 0.00973072 0.00990183 
0.01097142 0.01005113 0.00515258 0.00425914 0.01363557 0.00238630 0.00793079 0.00338130 0.01322522 0.00796105 0.01348920 0.00132979 0.00976494 0.04333418 0.01000041 0.01051267 
0.01090918 0.00994541 0.00512029 0.00428685 0.01397672 0.00239448 0.00796546 0.00340022 0.01352371 0.00829526 0.01336632 0.00136817 0.00992028 0.04407272 0.01028834 0.01113354 
0.01085282 0.00985865 0.00509016 0.00431385 0.01432128 0.00240393 0.00801853 0.00342193 0.01384691 0.00864181 0.01324657 0.00140649 0.01007239 0.04484025 0.01059355 0.01176210 
0.01080300 0.00979153 0.00506247 0.00434013 0.01466761 0.00241468 0.00808983 0.00344654 0.01419444 0.00900028 0.01313024 0.00144460 0.01022066 0.04563529 0.01091498 0.01239593 
0.01076037 0.00974467 0.00503750 0.00436569 0.01501404 0.00242677 0.00817910 0.00347419 0.01456584 0.00937018 0.01301761 0.00148236 0.01036450 0.04645623 0.01125151 0.01303253 
0.01072555 0.00971866 0.00501552 0.00439058 0.01535887 0.00244022 0.00828598 0.00350496 0.01496064 0.00975098 0.01290898 0.00151963 0.01050337 0.04730130 0.01160192 0.01366932 
0.01069916 0.00971401 0.00499679 0.00441482 0.01570035 0.00245506 0.00841003 0.00353896 0.01537825 0.01014210 0.01280464 0.00155627 0.01063679 0.04816856 0.01196495 0.01430371 
0.01068177 0.00973118 0.00498156 0.00443845 0.01603670 0.00247130 0.00855071 0.00357626 0.01581807 0.01054294 0.01270490 0.00159216 0.01076433 0.04905592 0.01233926 0.01493303 
0.01067397 0.00977057 0.00497007 0.00446153 0.01636614 0.00248895 0.00870738 0.00361695 0.01627940 0.01095280 0.01261003 0.00162717 0.01088560 0.04996116 0.01272346 0.01555463 
0.01067625 0.00983251 0.00496254 0.00448413 0.01668688 0.00250800 0.00887932 0.00366108 0.01676148 0.01137100 0.01252036 0.00166116 0.01100028 0.05088189 0.01311610 0.01616582 
0.01068914 0.00991727 0.00495917 0.00450631 0.01699717 0.00252846 0.00906573 0.00370869 0.01726350 0.01179676 0.01243616 0.00169403 0.01110809 0.05181562 0.01351569 0.01676394 
0.01071307 0.01002505 0.00496016 0.00452815 0.01729525 0.00255030 0.00926572 0.00375982 0.01778454 0.01222929 0.01235771 0.00172566 0.01120881 0.05275973 0.01392071 0.01734635 
0.01074847 0.01015599 0.00496566 0.00454973 0.01757941 0.00257351 0.00947831 0.00381448 0.01832366 0.01266775 0.01228531 0.00175595 0.01130229 0.05371149 0.01432961 0.01791042 
0.01079571 0.01031014 0.00497581 0.00457112 0.01784797 0.00259804 0.00970248 0.00387266 0.01887982 0.01311127 0.01221921 0.00178480 0.01138842 0.05466807 0.01474080 0.01845362 
0.01085512 0.01048751 0.00499075 0.00459242 0.01809934 0.00262387 0.00993711 0.00393434 0.01945192 0.01355894 0.01215967 0.00181211 0.01146714 0.05562656 0.01515269 0.01897344 
0.01092698 0.01068801 0.00501055 0.00461370 0.01833196 0.00265095 0.01018103 0.00399948 0.02003879 0.01400980 0.01210693 0.00183780 0.01153845 0.05658398 0.01556369 0.01946748 
0.01101150 0.01091149 0.00503529 0.00463504 0.01854436 0.00267921 0.01043300 0.00406804 0.02063918 0.01446289 0.01206122 0.00186180 0.01160240 0.05753728 0.01597219 0.01993342 
0.01110888 0.01115774 0.00506501 0.00465652 0.01873518 0.00270859 0.01069175 0.00413994 0.02125179 0.01491720 0.01202274 0.00188404 0.01165910 0.05848337 0.01637660 0.02036906 
0.01121923 0.01142645 0.00509970 0.00467820 0.01890313 0.00273903 0.01095593 0.00421507 0.02187526 0.01537170 0.01199170 0.00190446 0.01170869 0.05941915 0.01677535 0.02077230 
0.01134262 0.01171726 0.00513936 0.00470016 0.01904702 0.00277043 0.01122419 0.00429334 0.02250814 0.01582534 0.01196824 0.00192301 0.01175135 0.06034150 0.01716689 0.02114120 
0.01147905 0.01202971 0.00518393 0.00472245 0.01916582 0.00280271 0.01149511 0.00437461 0.02314895 0.01627706 0.01195253 0.00193964 0.01178733 0.06124730 0.01754971 0.02147394 
0.01162847 0.01236330 0.00523332 0.00474510 0.01925857 0.00283577 0.01176728 0.00445874 0.02379615 0.01672576 0.01194468 0.00195432 0.01181688 0.06213346 0.01792232 0.02176886 
0.01179077 0.01271743 0.00528743 0.00476817 0.01932446 0.00286951 0.01203925 0.00454555 0.02444812 0.01717035 0.01194479 0.00196703 0.01184030 0.06299693 0.01828330 0.02202448 
0.01196579 0.01309143 0.00534610 0.00479165 0.01936283 0.00290382 0.01230957 0.00463487 0.02510324 0.01760973 0.01195294 0.00197776 0.01185794 0.06383472 0.01863128 0.02223946 
0.01215328 0.01348456 0.00540915 0.00481558 0.01937314 0.00293857 0.01257678 0.00472650 0.02575980 0.01804281 0.01196917 0.00198648 0.01187014 0.06464392 0.01896494 0.02241268 
0.01235296 0.01389602 0.00547639 0.00483993 0.01935500 0.00297364 0.01283943 0.00482022 0.02641610 0.01846847 0.01199349 0.00199321 0.01187729 0.06542170 0.01928303 0.02254318 
0.01256448 0.01432492 0.00554755 0.00486469 0.01930817 0.00300889 0.01309608 0.00491580 0.02707036 0.01888562 0.01202589 0.00199796 0.01187978 0.06616535 0.01958439 0.02263020 
0.01278741 0.01477032 0.00562239 0.00488981 0.01923255 0.00304419 0.01334533 0.00501298 0.02772083 0.01929317 0.01206634 0.00200073 0.01187804 0.06687228 0.01986793 0.02267318 
0.01302129 0.01523120 0.00570060 0.00491525 0.01912821 0.00307940 0.01358578 0.00511152 0.02836569 0.01969006 0.01211476 0.00200157 0.01187247 0.06754004 0.02013265 0.02267175 
0.01326559 0.01570648 0.00578185 0.00494094 0.01899535 0.00311436 0.01381609 0.00521113 0.02900315 0.02007524 0.01217106 0.00200049 0.01186350 0.06816635 0.02037762 0.02262576 
0.01351972 0.01619502 0.00586578 0.00496677 0.01883435 0.00314892 0.01403496 0.00531154 0.02963139 0.02044767 0.01223510 0.00199754 0.01185157 0.06874909 0.02060203 0.02253525 
0.01378303 0.01669560 0.00595203 0.00499266 0.01864571 0.00318293 0.01424113 0.00541245 0.03024863 0.02080637 0.01230674 0.00199276 0.01183710 0.06928632 0.02080517 0.02240047 
0.01405482 0.01720698 0.00604019 0.00501847 0.01843009 0.00321622 0.01443342 0.00551356 0.03085307 0.02115036 0.01238578 0.00198621 0.01182051 0.06977629 0.02098641 0.02222187 
0.01433435 0.01772784 0.00612984 0.00504406 0.01818830 0.00324864 0.01461070 0.00561455 0.03144295 0.02147873 0.01247201 0.00197795 0.01180221 0.07021749 0.02114524 0.02200009 
0.01462081 0.01825680 0.00622054 0.00506929 0.01792128 0.00328003 0.01477190 0.00571511 0.03201653 0.02179058 0.01256519 0.00196803 0.01178259 0.07060859 0.02128127 0.02173598 
0.01491334 0.01879246 0.00631184 0.00509398 0.01763010 0.00331021 0.01491607 0.00581493 0.03257212 0.02208509 0.01266505 0.00195654 0.01176203 0.07094851 0.02139419 0.02143057 
0.01521107 0.01933337 0.00640325 0.00511794 0.01731598 0.00333903 0.01504231 0.00591367 0.03310808 0.02236146 0.01277130 0.00194353 0.01174088 0.07123639 0.02148382 0.02108508 
0.01551305 0.01987803 0.00649430 0.00514097 0.01698023 0.00336634 0.01514982 0.00601102 0.03362282 0.02261897 0.01288362 0.00192909 0.01171948 0.07147161 0.02155009 0.02070092 
0.01581831 0.02042491 0.00658449 0.00516286 0.01662429 0.00339196 0.01523789 0.00610666 0.03411482 0.02285695 0.01300166 0.00191331 0.01169814 0.07165381 0.02159304 0.02027965 
0.01612584 0.02097247 0.00667334 0.00518339 0.01624972 0.00341574 0.01530591 0.00620026 0.03458263 0.02307478 0.01312507 0.00189625 0.01167715 0.07178286 0.02161281 0.01982300 
0.01643459 0.02151911 0.00676032 0.00520232 0.01585814 0.00343753 0.01535338 0.00629151 0.03502489 0.02327192 0.01325347 0.00187802 0.01165674 0.07185888 0.02160965 0.01933284 
0.01674351 0.02206325 0.00684495 0.00521942 0.01545128 0.00345719 0.01537989 0.00638011 0.03544032 0.02344791 0.01338645 0.00185869 0.01163714 0.07188223 0.02158393 0.01881121 
0.01705150 0.02260327 0.00692673 0.00523443 0.01503095 0.00347458 0.01538516 0.00646575 0.03582775 0.02360233 0.01352359 0.00183836 0.01161853 0.07185354 0.02153611 0.01826026 
0.01735745 0.02313756 0.00700515 0.00524711 0.01459900 0.00348955 0.01536899 0.00654814 0.03618611 0.02373487 0.01366446 0.00181712 0.01160108 0.07177366 0.02146676 0.01768226 
0.01766023 0.02366450 0.00707973 0.00525720 0.01415736 0.00350199 0.01533132 0.00662701 0.03651444 0.02384527 0.01380862 0.00179505 0.01158490 0.07164368 0.02137654 0.01707959 
0.01795872 0.02418248 0.00714999 0.00526444 0.01370798 0.00351176 0.01527217 0.00670209 0.03681189 0.02393337 0.01395560 0.00177224 0.01157009 0.07146492 0.02126619 0.01645473 
0.01825176 0.02468989 0.00721548 0.00526858 0.01325287 0.00351878 0.01519170 0.00677313 0.03707776 0.02399907 0.01410495 0.00174880 0.01155669 0.07123893 0.02113658 0.01581023 
0.01853823 0.02518516 0.00727575 0.00526938 0.01279402 0.00352292 0.01509016 0.00683989 0.03731145 0.02404236 0.01425618 0.00172480 0.01154472 0.07096747 0.02098861 0.01514873 
0.01881699 0.02566671 0.00733037 0.00526659 0.01233347 0.00352411 0.01496793 0.00690217 0.03751251 0.02406332 0.01440882 0.00170033 0.01153419 0.07065250 0.02082329 0.01447289 
0.01908690 0.02613302 0.00737894 0.00525997 0.01187321 0.00352227 0.01482546 0.00695975 0.03768062 0.02406211 0.01456239 0.00167549 0.01152505 0.07029616 0.02064169 0.01378546 
0.01934687 0.02658260 0.00742109 0.00524931 0.01141526 0.00351733 0.01466335 0.00701247 0.03781559 0.02403897 0.01471640 0.00165034 0.01151723 0.06990078 0.02044495 0.01308917 
0.01959580 0.02701399 0.00745645 0.00523439 0.01096157 0.00350924 0.01448227 0.00706017 0.03791737 0.02399421 0.01487036 0.00162498 0.01151064 0.06946885 0.02023426 0.01238681 
0.01983263 0.02742579 0.00748471 0.00521501 0.01051408 0.00349795 0.01428298 0.00710272 0.03798608 0.02392825 0.01502380 0.00159948 0.01150516 0.06900300 0.02001086 0.01168114 
0.02005632 0.02781665 0.00750559 0.00519099 0.01007467 0.00348345 0.01406637 0.00714000 0.03802194 0.02384156 0.01517624 0.00157392 0.01150065 0.06850600 0.01977604 0.01097492 
0.02026589 0.02818528 0.00751881 0.00516218 0.00964515 0.00346571 0.01383338 0.00717194 0.03802533 0.02373472 0.01532720 0.00154836 0.01149695 0.06798072 0.01953112 0.01027089 
0.02046036 0.02853047 0.00752416 0.00512844 0.00922728 0.00344475 0.01358504 0.00719847 0.03799676 0.02360835 0.01547624 0.00152289 0.01149388 0.06743012 0.01927745 0.00957176 
0.02063883 0.02885105 0.00752146 0.00508964 0.00882273 0.00342056 0.01332247 0.00721955 0.03793689 0.02346317 0.01562288 0.00149755 0.01149125 0.06685727 0.01901640 0.00888018 
0.02080044 0.02914597 0.00751055 0.00504570 0.00843306 0.00339319 0.01304685 0.00723519 0.03784649 0.02329997 0.01576670 0.00147242 0.01148885 0.06626526 0.01874935 0.00819875 
0.02094439 0.02941423 0.00749134 0.00499655 0.00805977 0.00336268 0.01275941 0.00724539 0.03772646 0.02311959 0.01590726 0.00144754 0.01148648 0.06565724 0.01847769 0.00753000 
0.02106993 0.02965492 0.00746374 0.00494214 0.00770423 0.00332909 0.01246147 0.00725019 0.03757783 0.02292295 0.01604415 0.00142298 0.01148391 0.06503638 0.01820280 0.00687639 
0.02117639 0.02986724 0.00742773 0.00488248 0.00736769 0.00329248 0.01215436 0.00724968 0.03740174 0.02271102 0.01617698 0.00139878 0.01148093 0.06440584 0.01792606 0.00624027 
0.02126316 0.03005047 0.00738332 0.00481757 0.00705131 0.00325295 0.01183946 0.00724394 0.03719943 0.02248484 0.01630535 0.00137498 0.01147732 0.06376877 0.01764881 0.00562392 
0.02132969 0.03020400 0.00733057 0.00474748 0.00675611 0.00321060 0.01151821 0.00723309 0.03697225 0.02224548 0.01642890 0.00135163 0.01147286 0.06312828 0.01737239 0.00502950 
0.02137553 0.03032731 0.00726957 0.00467228 0.00648297 0.00316554 0.01119203 0.00721728 0.03672163 0.02199407 0.01654731 0.00132876 0.01146734 0.06248743 0.01709810 0.00445906 
0.02140031 0.03041998 0.00720045 0.00459208 0.00623266 0.00311790 0.01086239 0.00719667 0.03644909 0.02173177 0.01666023 0.00130640 0.01146056 0.06184920 0.01682718 0.00391453 
0.02140372 0.03048173 0.00712339 0.00450703 0.00600580 0.00306781 0.01053075 0.00717147 0.03615621 0.02145978 0.01676738 0.00128459 0.01145233 0.06121650 0.01656085 0.00339772 
0.02138556 0.03051236 0.00703860 0.00441731 0.00580287 0.00301544 0.01019857 0.00714187 0.03584465 0.02117932 0.01686848 0.00126334 0.01144248 0.06059211 0.01630027 0.00291031 
0.02134570 0.03051178 0.00694633 0.00432313 0.00562424 0.00296093 0.00986733 0.00710812 0.03551611 0.02089164 0.01696327 0.00124267 0.01143084 0.05997870 0.01604653 0.00245384 
0.02128412 0.03048003 0.00684687 0.00422472 0.00547011 0.00290446 0.00953844 0.00707047 0.03517232 0.02059801 0.01705152 0.00122261 0.01141727 0.05937880 0.01580067 0.00202971 
0.02120087 0.03041725 0.00674053 0.00412237 0.00534055 0.00284622 0.00921333 0.00702919 0.03481505 0.02029969 0.01713305 0.00120317 0.01140164 0.05879481 0.01556366 0.00163921 
0.02109611 0.03032369 0.00662768 0.00401636 0.00523551 0.00278639 0.00889339 0.00698458 0.03444611 0.01999797 0.01720766 0.00118435 0.01138385 0.05822895 0.01533640 0.00128345 
0.02097009 0.03019973 0.00650870 0.00390704 0.00515479 0.00272517 0.00857995 0.00693693 0.03406728 0.01969412 0.01727521 0.00116617 0.01136382 0.05768328 0.01511969 0.00096341 
0.02082315 0.03004584 0.00638401 0.00379476 0.00509807 0.00266277 0.00827432 0.00688657 0.03368036 0.01938939 0.01733558 0.00114862 0.01134148 0.05715967 0.01491427 0.00067994 
0.02065573 0.02986260 0.00625405 0.00367991 0.00506489 0.00259939 0.00797774 0.00683383 0.03328713 0.01908504 0.01738868 0.00113171 0.01131681 0.05665980 0.01472081 0.00043373 
0.02046836 0.02965070 0.00611929 0.00356290 0.00505470 0.00253525 0.00769138 0.00677904 0.03288935 0.01878229 0.01743445 0.00111544 0.01128978 0.05618516 0.01453986 0.00022535 
0.02026167 0.02941095 0.00598022 0.00344416 0.00506680 0.00247058 0.00741638 0.00672256 0.03248874 0.01848233 0.01747285 0.00109981 0.01126040 0.05573704 0.01437191 0.00005519 
0.02003636 0.02914425 0.00583735 0.00332414 0.00510039 0.00240557 0.00715377 0.00666475 0.03208698 0.01818631 0.01750389 0.00108480 0.01122871 0.05531651 0.01421735 0.00007646 
0.01979323 0.02885158 0.00569121 0.00320332 0.00515459 0.00234047 0.00690454 0.00660595 0.03168570 0.01789537 0.01752758 0.00107041 0.01119475 0.05492446 0.01407648 0.00016947 
0.01953319 0.02853405 0.00554233 0.00308218 0.00522839 0.00227549 0.00666956 0.00654653 0.03128647 0.01761055 0.01754400 0.00105663 0.01115861 0.05456152 0.01394951 0.00022382 
0.01925719 0.02819283 0.00539128 0.00296122 0.00532071 0.00221085 0.00644965 0.00648686 0.03089078 0.01733290 0.01755322 0.00104345 0.01112039 0.05422816 0.01383656 0.00023965 
0.01896630 0.02782919 0.00523860 0.00284097 0.00543040 0.00214677 0.00624552 0.00642729 0.03050006 0.01706335 0.01755539 0.00103086 0.01108018 0.05392462 0.01373767 0.00021720 
0.01866162 0.02744447 0.00508486 0.00272193 0.00555621 0.00208346 0.00605779 0.00636818 0.03011564 0.01680282 0.01755064 0.00101884 0.01103814 0.05365092 0.01365279 0.00015684 
0.01834437 0.02704009 0.00493064 0.00260465 0.00569687 0.00202113 0.00588701 0.00630988 0.02973879 0.01655213 0.01753917 0.00100739 0.01099440 0.05340689 0.01358176 0.00005907 
0.01801581 0.02661755 0.00477649 0.00248964 0.00585102 0.00196000 0.00573360 0.00625274 0.02937066 0.01631204 0.01752120 0.00099649 0.01094914 0.05319217 0.01352439 0.00007553 
0.01767725 0.02617840 0.00462299 0.00237743 0.00601726 0.00190025 0.00559791 0.00619708 0.02901233 0.01608324 0.01749698 0.00098611 0.01090252 0.05300619 0.01348035 0.00024623 
0.01733007 0.02572424 0.00447068 0.00226856 0.00619418 0.00184208 0.00548018 0.00614324 0.02866477 0.01586633 0.01746680 0.00097626 0.01085474 0.05284822 0.01344928 0.00045225 
0.01697571 0.02525674 0.00432012 0.00216353 0.00638032 0.00178567 0.00538055 0.00609151 0.02832885 0.01566185 0.01743098 0.00096691 0.01080599 0.05271732 0.01343072 0.00069268 
0.01661563 0.02477760 0.00417183 0.00206287 0.00657422 0.00173120 0.00529907 0.00604221 0.02800535 0.01547022 0.01738987 0.00095805 0.01075647 0.05261241 0.01342416 0.00096652 
0.01625133 0.02428856 0.00402635 0.00196707 0.00677441 0.00167882 0.00523570 0.00599560 0.02769494 0.01529182 0.01734385 0.00094966 0.01070638 0.05253224 0.01342900 0.00127270 
0.01588435 0.02379139 0.00388417 0.00187660 0.00697942 0.00162870 0.00519030 0.00595195 0.02739821 0.01512692 0.01729335 0.00094173 0.01065593 0.05247544 0.01344461 0.00161007 
0.01551623 0.02328789 0.00374577 0.00179194 0.00718778 0.00158097 0.00516262 0.00591151 0.02711564 0.01497570 0.01723880 0.00093425 0.01060532 0.05244046 0.01347029 0.00197741 
0.01514856 0.02277986 0.00361162 0.00171352 0.00739807 0.00153577 0.00515234 0.00587449 0.02684764 0.01483826 0.01718069 0.00092720 0.01055476 0.05242567 0.01350529 0.00237342 
0.01478289 0.02226912 0.00348215 0.00164178 0.00760887 0.00149320 0.00515906 0.00584111 0.02659450 0.01471460 0.01711952 0.00092058 0.01050445 0.05242930 0.01354882 0.00279676 
0.01442080 0.02175749 0.00335777 0.00157708 0.00781882 0.00145338 0.00518228 0.00581154 0.02635645 0.01460467 0.01705583 0.00091436 0.01045456 0.05244952 0.01360005 0.00324602 
0.01406386 0.02124678 0.00323887 0.00151981 0.00802659 0.00141639 0.00522142 0.00578595 0.02613364 0.01450829 0.01699019 0.00090855 0.01040529 0.05248437 0.01365812 0.00371975 
0.01371359 0.02073879 0.00312579 0.00147030 0.00823091 0.00138232 0.00527584 0.00576447 0.02592615 0.01442522 0.01692318 0.00090312 0.01035681 0.05253185 0.01372215 0.00421645 
0.01337153 0.02023530 0.00301886 0.00142883 0.00843055 0.00135121 0.00534481 0.00574722 0.02573400 0.01435514 0.01685543 0.00089808 0.01030926 0.05258990 0.01379123 0.00473460 
0.01303915 0.01973805 0.00291837 0.00139568 0.00862436 0.00132313 0.00542754 0.00573427 0.02555713 0.01429765 0.01678757 0.00089341 0.01026279 0.05265641 0.01386444 0.00527262 
0.01271789 0.01924877 0.00282457 0.00137107 0.00881128 0.00129810 0.00552319 0.00572570 0.02539547 0.01425226 0.01672027 0.00088912 0.01021754 0.05272924 0.01394085 0.00582892 
0.01240916 0.01876914 0.00273769 0.00135518 0.00899028 0.00127615 0.00563086 0.00572155 0.02524887 0.01421844 0.01665420 0.00088518 0.01017361 0.05280623 0.01401953 0.00640189 
0.01211429 0.01830078 0.00265790 0.00134817 0.00916045 0.00125728 0.00574958 0.00572183 0.02511717 0.01419555 0.01659006 0.00088161 0.01013109 0.05288523 0.01409955 0.00698990 
0.01183455 0.01784526 0.00258537 0.00135013 0.00932093 0.00124149 0.00587837 0.00572653 0.02500019 0.01418292 0.01652856 0.00087840 0.01009007 0.05296408 0.01418000 0.00759130 
0.01157115 0.01740412 0.00252020 0.00136113 0.00947097 0.00122874 0.00601619 0.00573561 0.02489771 0.01417981 0.01647043 0.00087555 0.01005060 0.05304064 0.01425996 0.00820445 
0.01132521 0.01697879 0.00246248 0.00138118 0.00960990 0.00121902 0.00616197 0.00574903 0.02480952 0.01418543 0.01641639 0.00087305 0.01001272 0.05311282 0.01433857 0.00882768 
0.01109780 0.01657066 0.00241225 0.00141027 0.00973714 0.00121226 0.00631462 0.00576671 0.02473541 0.01419892 0.01636719 0.00087091 0.00997645 0.05317855 0.01441495 0.00945936 
0.01088985 0.01618103 0.00236952 0.00144831 0.00985221 0.00120841 0.00647302 0.00578853 0.02467516 0.01421942 0.01632355 0.00086913 0.00994180 0.05323581 0.01448827 0.01009781 
0.01070224 0.01581113 0.00233427 0.00149520 0.00995471 0.00120739 0.00663606 0.00581438 0.02462858 0.01424600 0.01628622 0.00086772 0.00990874 0.05328267 0.01455776 0.01074142 
0.01053574 0.01546211 0.00230642 0.00155078 0.01004433 0.00120913 0.00680258 0.00584411 0.02459551 0.01427770 0.01625593 0.00086667 0.00987725 0.05331723 0.01462263 0.01138854 
0.01039102 0.01513500 0.00228590 0.00161484 0.01012086 0.00121352 0.00697147 0.00587756 0.02457579 0.01431355 0.01623340 0.00086599 0.00984729 0.05333770 0.01468219 0.01203756 
0.01026863 0.01483077 0.00227257 0.00168715 0.01018419 0.00122046 0.00714158 0.00591454 0.02456933 0.01435255 0.01621932 0.00086569 0.00981878 0.05334237 0.01473577 0.01268689 
0.01016902 0.01455028 0.00226628 0.00176741 0.01023428 0.00122983 0.00731181 0.00595486 0.02457603 0.01439369 0.01621441 0.00086577 0.00979166 0.05332959 0.01478274 0.01333496 
0.01009255 0.01429430 0.00226685 0.00185531 0.01027118 0.00124151 0.00748104 0.00599830 0.02459588 0.01443596 0.01621931 0.00086624 0.00976583 0.05329786 0.01482253 0.01398021 
0.01003944 0.01406347 0.00227406 0.00195047 0.01029502 0.00125537 0.00764820 0.00604463 0.02462889 0.01447833 0.01623468 0.00086711 0.00974119 0.05324575 0.01485464 0.01462114 
0.01000981 0.01385836 0.00228767 0.00205249 0.01030603 0.00127127 0.00781223 0.00609359 0.02467513 0.01451981 0.01626111 0.00086839 0.00971764 0.05317195 0.01487861 0.01525624 
0.01000366 0.01367942 0.00230743 0.00216094 0.01030449 0.00128906 0.00797211 0.00614495 0.02473471 0.01455940 0.01629919 0.00087007 0.00969506 0.05307524 0.01489404 0.01588407 
0.01002088 0.01352699 0.00233303 0.00227535 0.01029076 0.00130858 0.00812686 0.00619842 0.02480779 0.01459611 0.01634944 0.00087218 0.00967333 0.05295456 0.01490058 0.01650321 
0.01006125 0.01340130 0.00236418 0.00239522 0.01026528 0.00132969 0.00827554 0.00625373 0.02489460 0.01462900 0.01641236 0.00087473 0.00965234 0.05280894 0.01489797 0.01711227 
0.01012444 0.01330248 0.00240055 0.00252001 0.01022853 0.00135222 0.00841725 0.00631059 0.02499539 0.01465713 0.01648839 0.00087771 0.00963194 0.05263752 0.01488599 0.01770991 
0.01021000 0.01323054 0.00244180 0.00264917 0.01018106 0.00137601 0.00855116 0.00636872 0.02511048 0.01467962 0.01657790 0.00088113 0.00961203 0.05243959 0.01486448 0.01829484 
0.01031739 0.01318539 0.00248757 0.00278213 0.01012347 0.00140090 0.00867646 0.00642782 0.02524022 0.01469563 0.01668123 0.00088501 0.00959248 0.05221455 0.01483335 0.01886581 
0.01044595 0.01316681 0.00253748 0.00291829 0.01005641 0.00142670 0.00879244 0.00648758 0.02538501 0.01470434 0.01679865 0.00088936 0.00957317 0.05196193 0.01479257 0.01942162 
0.01059494 0.01317452 0.00259117 0.00305703 0.00998056 0.00145327 0.00889842 0.00654772 0.02554527 0.01470501 0.01693035 0.00089417 0.00955400 0.05168138 0.01474217 0.01996110 
0.01076350 0.01320807 0.00264824 0.00319774 0.00989663 0.00148043 0.00899380 0.00660791 0.02572146 0.01469693 0.01707647 0.00089946 0.00953487 0.05137268 0.01468223 0.02048315 
0.01095070 0.01326696 0.00270830 0.00333976 0.00980538 0.00150801 0.00907804 0.00666788 0.02591406 0.01467946 0.01723708 0.00090524 0.00951570 0.05103574 0.01461292 0.02098673 
0.01115553 0.01335056 0.00277095 0.00348246 0.00970758 0.00153585 0.00915067 0.00672731 0.02612356 0.01465202 0.01741214 0.00091150 0.00949640 0.05067058 0.01453443 0.02147084 
0.01137688 0.01345814 0.00283579 0.00362519 0.00960400 0.00156380 0.00921129 0.00678591 0.02635045 0.01461410 0.01760158 0.00091825 0.00947691 0.05027737 0.01444703 0.02193455 
0.01161360 0.01358889 0.00290243 0.00376731 0.00949545 0.00159168 0.00925957 0.00684340 0.02659523 0.01456525 0.01780522 0.00092549 0.00945720 0.04985639 0.01435104 0.02237697 
0.01186443 0.01374189 0.00297047 0.00390817 0.00938272 0.00161936 0.00929526 0.00689949 0.02685838 0.01450508 0.01802281 0.00093323 0.00943723 0.04940805 0.01424681 0.02279728 
0.01212809 0.01391613 0.00303951 0.00404713 0.00926661 0.00164668 0.00931818 0.00695391 0.02714036 0.01443329 0.01825401 0.00094146 0.00941700 0.04893288 0.01413478 0.02319473 
0.01240324 0.01411053 0.00310919 0.00418357 0.00914792 0.00167349 0.00932821 0.00700639 0.02744159 0.01434963 0.01849840 0.00095019 0.00939650 0.04843153 0.01401541 0.02356861 
0.01268849 0.01432392 0.00317911 0.00431688 0.00902742 0.00169967 0.00932532 0.00705668 0.02776246 0.01425395 0.01875548 0.00095940 0.00937579 0.04790478 0.01388920 0.02391830 
0.01298241 0.01455504 0.00324893 0.00444646 0.00890588 0.00172508 0.00930956 0.00710454 0.02810330 0.01414616 0.01902467 0.00096910 0.00935489 0.04735354 0.01375672 0.02424323 
0.01328354 0.01480257 0.00331828 0.00457173 0.00878403 0.00174960 0.00928102 0.00714972 0.02846438 0.01402624 0.01930528 0.00097928 0.00933389 0.04677882 0.01361854 0.02454288 
0.01359042 0.01506513 0.00338684 0.00469214 0.00866259 0.00177311 0.00923989 0.00719201 0.02884589 0.01389425 0.01959657 0.00098993 0.00931287 0.04618178 0.01347531 0.02481682 
0.01390156 0.01534127 0.00345427 0.00480717 0.00854224 0.00179551 0.00918643 0.00723121 0.02924794 0.01375031 0.01989771 0.00100103 0.00929196 0.04556367 0.01332767 0.02506468 
0.01421546 0.01562947 0.00352027 0.00491632 0.00842364 0.00181671 0.00912093 0.00726712 0.02967055 0.01359463 0.02020780 0.00101258 0.00927128 0.04492588 0.01317633 0.02528615 
0.01453063 0.01592819 0.00358457 0.00501911 0.00830739 0.00183661 0.00904380 0.00729956 0.03011364 0.01342748 0.02052584 0.00102456 0.00925098 0.04426992 0.01302201 0.02548098 
0.01484559 0.01623582 0.00364688 0.00511512 0.00819407 0.00185513 0.00895547 0.00732838 0.03057701 0.01324921 0.02085078 0.00103695 0.00923125 0.04359741 0.01286544 0.02564900 
0.01515887 0.01655073 0.00370697 0.00520395 0.00808419 0.00187220 0.00885644 0.00735342 0.03106035 0.01306021 0.02118151 0.00104974 0.00921227 0.04291009 0.01270739 0.02579010 
0.01546905 0.01687124 0.00376461 0.00528522 0.00797825 0.00188776 0.00874728 0.00737456 0.03156322 0.01286095 0.02151684 0.00106290 0.00919424 0.04220982 0.01254865 0.02590422 
0.01577470 0.01719567 0.00381960 0.00535863 0.00787668 0.00190177 0.00862860 0.00739167 0.03208505 0.01265197 0.02185553 0.00107640 0.00917741 0.04149857 0.01239001 0.02599138 
0.01607445 0.01752230 0.00387177 0.00542389 0.00777985 0.00191417 0.00850106 0.00740468 0.03262513 0.01243385 0.02219631 0.00109023 0.00916199 0.04077844 0.01223229 0.02605166 
0.01636698 0.01784941 0.00392094 0.00548076 0.00768810 0.00192494 0.00836538 0.00741349 0.03318261 0.01220722 0.02253782 0.00110434 0.00914826 0.04005162 0.01207629 0.02608519 
0.01665100 0.01817529 0.00396700 0.00552905 0.00760171 0.00193406 0.00822230 0.00741804 0.03375650 0.01197278 0.02287871 0.00111873 0.00913645 0.03932043 0.01192285 0.02609216 
0.01692530 0.01849821 0.00400985 0.00556859 0.00752091 0.00194152 0.00807262 0.00741829 0.03434567 0.01173125 0.02321756 0.00113333 0.00912686 0.03858729 0.01177279 0.02607284 
0.01718870 0.01881645 0.00404939 0.00559928 0.00744588 0.00194730 0.00791715 0.00741421 0.03494882 0.01148341 0.02355297 0.00114814 0.00911975 0.03785472 0.01162693 0.02602753 
0.01744011 0.01912834 0.00408557 0.00562106 0.00737675 0.00195143 0.00775676 0.00740578 0.03556454 0.01123006 0.02388348 0.00116309 0.00911541 0.03712535 0.01148610 0.02595658 
0.01767849 0.01943220 0.00411837 0.00563390 0.00731358 0.00195391 0.00759231 0.00739302 0.03619124 0.01097206 0.02420765 0.00117817 0.00911412 0.03640191 0.01135110 0.02586040 
0.01790289 0.01972640 0.00414777 0.00563783 0.00725641 0.00195478 0.00742471 0.00737593 0.03682720 0.01071027 0.02452404 0.00119332 0.00911616 0.03568722 0.01122275 0.02573946 
0.01811242 0.02000934 0.00417379 0.00563291 0.00720522 0.00195406 0.00725487 0.00735457 0.03747059 0.01044558 0.02483122 0.00120851 0.00912181 0.03498417 0.01110183 0.02559425 
0.01830627 0.02027949 0.00419648 0.00561925 0.00715993 0.00195180 0.00708370 0.00732898 0.03811943 0.01017889 0.02512777 0.00122368 0.00913134 0.03429575 0.01098911 0.02542531 
0.01848373 0.02053534 0.00421589 0.00559699 0.00712044 0.00194805 0.00691214 0.00729923 0.03877161 0.00991113 0.02541229 0.00123880 0.00914502 0.03362502 0.01088535 0.02523322 
0.01864414 0.02077546 0.00423212 0.00556633 0.00708659 0.00194287 0.00674111 0.00726541 0.03942491 0.00964322 0.02568346 0.00125382 0.00916310 0.03297510 0.01079128 0.02501860 
0.01878695 0.02099849 0.00424528 0.00552750 0.00705818 0.00193632 0.00657155 0.00722761 0.04007704 0.00937610 0.02593995 0.00126869 0.00918583 0.03234917 0.01070761 0.02478210 
0.01891168 0.02120313 0.00425549 0.00548075 0.00703500 0.00192848 0.00640437 0.00718595 0.04072557 0.00911069 0.02618053 0.00128336 0.00921342 0.03175044 0.01063502 0.02452438 
0.01901794 0.02138818 0.00426290 0.00542639 0.00701676 0.00191942 0.00624048 0.00714055 0.04136803 0.00884792 0.02640401 0.00129778 0.00924608 0.03118218 0.01057415 0.02424616 
0.01910543 0.02155250 0.00426769 0.00536474 0.00700319 0.00190922 0.00608077 0.00709155 0.04200185 0.00858868 0.02660928 0.00131191 0.00928399 0.03064766 0.01052563 0.02394815 
0.01917391 0.02169506 0.00427004 0.00529617 0.00699396 0.00189798 0.00592609 0.00703911 0.04262444 0.00833387 0.02679530 0.00132569 0.00932732 0.03015016 0.01049002 0.02363110 
0.01922325 0.02181493 0.00427015 0.00522107 0.00698872 0.00188579 0.00577731 0.00698338 0.04323316 0.00808435 0.02696113 0.00133908 0.00937620 0.02969297 0.01046788 0.02329576 
0.01925340 0.02191126 0.00426824 0.00513984 0.00698711 0.00187274 0.00563522 0.00692455 0.04382533 0.00784098 0.02710592 0.00135203 0.00943073 0.02927935 0.01045969 0.02294291 
0.01926437 0.02198333 0.00426455 0.00505293 0.00698875 0.00185894 0.00550061 0.00686280 0.04439831 0.00760455 0.02722892 0.00136448 0.00949100 0.02891252 0.01046591 0.02257331 
0.01925626 0.02203052 0.00425931 0.00496078 0.00699324 0.00184449 0.00537422 0.00679831 0.04494944 0.00737586 0.02732950 0.00137641 0.00955703 0.02859566 0.01048695 0.02218777 
0.01922926 0.02205232 0.00425278 0.00486388 0.00700019 0.00182949 0.00525675 0.00673131 0.04547611 0.00715563 0.02740714 0.00138775 0.00962886 0.02833185 0.01052317 0.02178706 
0.01918360 0.02204836 0.00424523 0.00476269 0.00700917 0.00181405 0.00514886 0.00666199 0.04597573 0.00694456 0.02746141 0.00139847 0.00970644 0.02812412 0.01057487 0.02137199 
0.01911961 0.02201836 0.00423691 0.00465773 0.00701977 0.00179828 0.00505118 0.00659058 0.04644580 0.00674331 0.02749206 0.00140852 0.00978972 0.02797537 0.01064231 0.02094333 
0.01903767 0.02196220 0.00422812 0.00454948 0.00703159 0.00178228 0.00496425 0.00651731 0.04688392 0.00655248 0.02749891 0.00141787 0.00987860 0.02788837 0.01072569 0.02050189 
0.01893824 0.02187985 0.00421913 0.00443847 0.00704422 0.00176617 0.00488860 0.00644241 0.04728776 0.00637261 0.02748195 0.00142647 0.00997295 0.02786575 0.01082514 0.02004845 
0.01882182 0.02177143 0.00421022 0.00432518 0.00705725 0.00175004 0.00482469 0.00636611 0.04765513 0.00620421 0.02744128 0.00143430 0.01007259 0.02790998 0.01094076 0.01958379 
0.01868900 0.02163719 0.00420168 0.00421015 0.00707031 0.00173401 0.00477292 0.00628865 0.04798397 0.00604771 0.02737715 0.00144133 0.01017730 0.02802333 0.01107255 0.01910869 
0.01854037 0.02147750 0.00419378 0.00409385 0.00708300 0.00171818 0.00473365 0.00621030 0.04827237 0.00590350 0.02728993 0.00144752 0.01028683 0.02820786 0.01122049 0.01862390 
0.01837663 0.02129286 0.00418681 0.00397679 0.00709498 0.00170264 0.00470716 0.00613128 0.04851861 0.00577190 0.02718013 0.00145285 0.01040088 0.02846543 0.01138447 0.01813020 
0.01819849 0.02108389 0.00418104 0.00385946 0.00710590 0.00168749 0.00469370 0.00605185 0.04872114 0.00565317 0.02704839 0.00145730 0.01051913 0.02879763 0.01156432 0.01762834 
0.01800671 0.02085137 0.00417674 0.00374232 0.00711545 0.00167282 0.00469342 0.00597226 0.04887859 0.00554750 0.02689549 0.00146085 0.01064119 0.02920578 0.01175980 0.01711907 
0.01780208 0.02059616 0.00417417 0.00362583 0.00712334 0.00165873 0.00470646 0.00589276 0.04898984 0.00545503 0.02672231 0.00146349 0.01076667 0.02969094 0.01197062 0.01660311 
0.01758544 0.02031928 0.00417357 0.00351043 0.00712930 0.00164528 0.00473286 0.00581361 0.04905398 0.00537583 0.02652988 0.00146521 0.01089511 0.03025385 0.01219642 0.01608121 
0.01735765 0.02002185 0.00417519 0.00339654 0.00713308 0.00163257 0.00477262 0.00573504 0.04907031 0.00530990 0.02631934 0.00146601 0.01102603 0.03089495 0.01243677 0.01555410 
0.01711960 0.01970510 0.00417925 0.00328456 0.00713448 0.00162067 0.00482567 0.00565731 0.04903840 0.00525719 0.02609192 0.00146588 0.01115892 0.03161432 0.01269116 0.01502250 
0.01687221 0.01937040 0.00418597 0.00317487 0.00713332 0.00160963 0.00489190 0.00558065 0.04895806 0.00521757 0.02584899 0.00146482 0.01129324 0.03241173 0.01295905 0.01448714 
0.01661640 0.01901919 0.00419554 0.00306780 0.00712945 0.00159951 0.00497112 0.00550531 0.04882936 0.00519086 0.02559200 0.00146286 0.01142840 0.03328656 0.01323980 0.01394874 
0.01635313 0.01865304 0.00420815 0.00296369 0.00712276 0.00159038 0.00506310 0.00543151 0.04865262 0.00517682 0.02532248 0.00145999 0.01156381 0.03423784 0.01353272 0.01340803 
0.01608335 0.01827361 0.00422395 0.00286283 0.00711318 0.00158227 0.00516754 0.00535948 0.04842845 0.00517513 0.02504206 0.00145624 0.01169885 0.03526423 0.01383708 0.01286574 
0.01580804 0.01788263 0.00424309 0.00276549 0.00710064 0.00157522 0.00528411 0.00528944 0.04815769 0.00518544 0.02475244 0.00145163 0.01183286 0.03636398 0.01415205 0.01232261 
0.01552816 0.01748194 0.00426569 0.00267190 0.00708514 0.00156926 0.00541241 0.00522161 0.04784147 0.00520734 0.02445536 0.00144618 0.01196519 0.03753498 0.01447678 0.01177938 
0.01524469 0.01707343 0.00429187 0.00258227 0.00706670 0.00156442 0.00555199 0.00515618 0.04748116 0.00524034 0.02415263 0.00143992 0.01209515 0.03877471 0.01481034 0.01123683 
0.01495861 0.01665907 0.00432170 0.00249679 0.00704538 0.00156070 0.00570236 0.00509336 0.04707841 0.00528392 0.02384611 0.00143289 0.01222206 0.04008028 0.01515175 0.01069571 
0.01467089 0.01624089 0.00435523 0.00241559 0.00702125 0.00155812 0.00586300 0.00503332 0.04663509 0.00533752 0.02353767 0.00142512 0.01234523 0.04144840 0.01550000 0.01015683 
0.01438249 0.01582096 0.00439252 0.00233879 0.00699445 0.00155667 0.00603331 0.00497625 0.04615335 0.00540053 0.02322921 0.00141665 0.01246396 0.04287540 0.01585402 0.00962100 
0.01409437 0.01540139 0.00443358 0.00226649 0.00696513 0.00155634 0.00621269 0.00492230 0.04563554 0.00547227 0.02292263 0.00140753 0.01257755 0.04435724 0.01621270 0.00908905 
0.01380746 0.01498433 0.00447840 0.00219874 0.00693345 0.00155712 0.00640048 0.00487164 0.04508425 0.00555207 0.02261983 0.00139782 0.01268532 0.04588952 0.01657489 0.00856185 
0.01352271 0.01457195 0.00452695 0.00213556 0.00689964 0.00155899 0.00659600 0.00482440 0.04450227 0.00563920 0.02232270 0.00138754 0.01278659 0.04746749 0.01693940 0.00804027 
0.01324101 0.01416641 0.00457918 0.00207696 0.00686393 0.00156189 0.00679853 0.00478071 0.04389261 0.00573288 0.02203309 0.00137678 0.01288070 0.04908606 0.01730504 0.00752523 
0.01296326 0.01376991 0.00463502 0.00202292 0.00682657 0.00156581 0.00700733 0.00474069 0.04325843 0.00583235 0.02175281 0.00136556 0.01296701 0.05073984 0.01767057 0.00701769 
0.01269033 0.01338460 0.00469436 0.00197338 0.00678786 0.00157069 0.00722164 0.00470445 0.04260306 0.00593680 0.02148364 0.00135397 0.01304490 0.05242313 0.01803473 0.00651861 
0.01242307 0.01301263 0.00475709 0.00192827 0.00674810 0.00157647 0.00744068 0.00467208 0.04192999 0.00604540 0.02122729 0.00134205 0.01311379 0.05412996 0.01839628 0.00602900 
0.01216230 0.01265611 0.00482307 0.00188749 0.00670761 0.00158310 0.00766363 0.00464365 0.04124281 0.00615731 0.02098538 0.00132987 0.01317313 0.05585415 0.01875392 0.00554992 
0.01190881 0.01231713 0.00489214 0.00185093 0.00666674 0.00159051 0.00788970 0.00461924 0.04054525 0.00627170 0.02075948 0.00131750 0.01322240 0.05758925 0.01910641 0.00508244 
0.01166338 0.01199770 0.00496413 0.00181844 0.00662583 0.00159863 0.00811806 0.00459890 0.03984108 0.00638770 0.02055104 0.00130498 0.01326114 0.05932867 0.01945246 0.00462766 
0.01142674 0.01169978 0.00503882 0.00178987 0.00658526 0.00160737 0.00834787 0.00458266 0.03913418 0.00650448 0.02036144 0.00129240 0.01328894 0.06106564 0.01979082 0.00418673 
0.01119959 0.01142525 0.00511601 0.00176505 0.00654539 0.00161666 0.00857831 0.00457056 0.03842843 0.00662119 0.02019193 0.00127981 0.01330543 0.06279328 0.02012026 0.00376082 
0.01098262 0.01117593 0.00519547 0.00174379 0.00650661 0.00162640 0.00880855 0.00456260 0.03772775 0.00673699 0.02004366 0.00126727 0.01331030 0.06450463 0.02043956 0.00335114 
0.01077645 0.01095352 0.00527694 0.00172591 0.00646930 0.00163652 0.00903776 0.00455881 0.03703605 0.00685107 0.01991766 0.00125486 0.01330332 0.06619268 0.02074753 0.00295892 
0.01058170 0.01075963 0.00536018 0.00171119 0.00643386 0.00164690 0.00926513 0.00455915 0.03635719 0.00696261 0.01981482 0.00124262 0.01328431 0.06785041 0.02104302 0.00258541 
0.01039893 0.01059577 0.00544490 0.00169942 0.00640065 0.00165746 0.00948986 0.00456362 0.03569501 0.00707083 0.01973591 0.00123063 0.01325317 0.06947084 0.02132493 0.00223188 
0.01022869 0.01046331 0.00553081 0.00169039 0.00637006 0.00166809 0.00971114 0.00457218 0.03505325 0.00717498 0.01968158 0.00121895 0.01320986 0.07104704 0.02159219 0.00189963 
0.01007146 0.01036350 0.00561764 0.00168386 0.00634246 0.00167869 0.00992822 0.00458478 0.03443556 0.00727433 0.01965230 0.00120762 0.01315444 0.07257222 0.02184380 0.00158996 
0.00992770 0.01029746 0.00570507 0.00167963 0.00631821 0.00168916 0.01014034 0.00460139 0.03384545 0.00736818 0.01964846 0.00119671 0.01308703 0.07403972 0.02207880 0.00130418 
0.00979785 0.01026617 0.00579280 0.00167746 0.00629766 0.00169940 0.01034677 0.00462192 0.03328632 0.00745589 0.01967025 0.00118626 0.01300785 0.07544307 0.02229631 0.00104359 
0.00968227 0.01027045 0.00588052 0.00167713 0.00628113 0.00170930 0.01054681 0.00464631 0.03276137 0.00753683 0.01971778 0.00117634 0.01291718 0.07677605 0.02249552 0.00080950 
0.00958133 0.01031098 0.00596792 0.00167843 0.00626895 0.00171876 0.01073981 0.00467449 0.03227363 0.00761044 0.01979097 0.00116697 0.01281541 0.07803269 0.02267568 0.00060321 
0.00949531 0.01038827 0.00605466 0.00168115 0.00626141 0.00172768 0.01092511 0.00470635 0.03182594 0.00767618 0.01988964 0.00115822 0.01270301 0.07920734 0.02283612 0.00042599 
0.00942450 0.01050268 0.00614045 0.00168507 0.00625877 0.00173596 0.01110212 0.00474181 0.03142088 0.00773358 0.02001345 0.00115011 0.01258054 0.08029470 0.02297627 0.00027908 
0.00936913 0.01065438 0.00622497 0.00169001 0.00626129 0.00174350 0.01127028 0.00478076 0.03106083 0.00778221 0.02016196 0.00114269 0.01244864 0.08128984 0.02309563 0.00016368 
0.00932938 0.01084341 0.00630790 0.00169578 0.00626918 0.00175022 0.01142906 0.00482310 0.03074789 0.00782171 0.02033458 0.00113599 0.01230805 0.08218824 0.02319379 0.00008098 
0.00930541 0.01106961 0.00638894 0.00170219 0.00628263 0.00175602 0.01157797 0.00486871 0.03048389 0.00785175 0.02053062 0.00113003 0.01215959 0.08298584 0.02327043 0.00003207 
0.00929733 0.01133265 0.00646779 0.00170909 0.00630181 0.00176082 0.01171659 0.00491748 0.03027039 0.00787207 0.02074927 0.00112484 0.01200417 0.08367904 0.02332532 0.00001802 
0.00930524 0.01163204 0.00654417 0.00171633 0.00632684 0.00176453 0.01184451 0.00496927 0.03010867 0.00788247 0.02098961 0.00112044 0.01184278 0.08426475 0.02335835 0.00003980 
0.00932917 0.01196713 0.00661778 0.00172376 0.00635781 0.00176709 0.01196138 0.00502398 0.02999968 0.00788280 0.02125064 0.00111685 0.01167649 0.08474040 0.02336947 0.00009831 
0.00936914 0.01233707 0.00668836 0.00173127 0.00639479 0.00176842 0.01206691 0.00508147 0.02994408 0.00787299 0.02153126 0.00111407 0.01150645 0.08510396 0.02335875 0.00019437 
0.00942511 0.01274089 0.00675566 0.00173874 0.00643780 0.00176847 0.01216084 0.00514160 0.02994223 0.00785299 0.02183028 0.00111213 0.01133389 0.08535397 0.02332635 0.00032869 
0.00949703 0.01317743 0.00681941 0.00174609 0.00648681 0.00176717 0.01224298 0.00520426 0.02999414 0.00782285 0.02214647 0.00111101 0.01116010 0.08548955 0.02327252 0.00050187 
0.00958480 0.01364537 0.00687939 0.00175322 0.00654180 0.00176449 0.01231316 0.00526930 0.03009953 0.00778267 0.02247851 0.00111072 0.01098643 0.08551041 0.02319761 0.00071441 
0.00968830 0.01414326 0.00693538 0.00176009 0.00660265 0.00176037 0.01237128 0.00533659 0.03025781 0.00773257 0.02282505 0.00111125 0.01081431 0.08541683 0.02310206 0.00096668 
0.00980739 0.01466951 0.00698719 0.00176663 0.00666926 0.00175478 0.01241728 0.00540601 0.03046805 0.00767279 0.02318470 0.00111261 0.01064519 0.08520973 0.02298641 0.00125890 
0.00994186 0.01522236 0.00703462 0.00177281 0.00674144 0.00174771 0.01245118 0.00547741 0.03072904 0.00760357 0.02355602 0.00111476 0.01048060 0.08489060 0.02285128 0.00159116 
0.01009151 0.01579996 0.00707750 0.00177861 0.00681900 0.00173914 0.01247300 0.00555067 0.03103926 0.00752524 0.02393757 0.00111770 0.01032209 0.08446154 0.02269736 0.00196341 
0.01025609 0.01640033 0.00711569 0.00178403 0.00690170 0.00172905 0.01248284 0.00562565 0.03139689 0.00743816 0.02432791 0.00112140 0.01017123 0.08392523 0.02252545 0.00237544 
0.01043534 0.01702137 0.00714905 0.00178907 0.00698926 0.00171745 0.01248084 0.00570222 0.03179984 0.00734275 0.02472557 0.00112585 0.01002964 0.08328494 0.02233641 0.00282687 
0.01062896 0.01766089 0.00717747 0.00179374 0.00708137 0.00170435 0.01246720 0.00578026 0.03224575 0.00723949 0.02512912 0.00113101 0.00989893 0.08254449 0.02213117 0.00331717 
0.01083664 0.01831663 0.00720085 0.00179808 0.00717766 0.00168976 0.01244213 0.00585963 0.03273198 0.00712887 0.02553714 0.00113685 0.00978072 0.08170826 0.02191072 0.00384562 
0.01105804 0.01898622 0.00721911 0.00180213 0.00727777 0.00167372 0.01240593 0.00594021 0.03325570 0.00701147 0.02594823 0.00114335 0.00967665 0.08078115 0.02167613 0.00441135 
0.01129279 0.01966727 0.00723219 0.00180593 0.00738128 0.00165626 0.01235889 0.00602188 0.03381381 0.00688786 0.02636105 0.00115046 0.00958830 0.07976855 0.02142852 0.00501328 
0.01154051 0.02035729 0.00724006 0.00180954 0.00748773 0.00163742 0.01230140 0.00610450 0.03440303 0.00675869 0.02677428 0.00115815 0.00951727 0.07867633 0.02116904 0.00565018 
0.01180080 0.02105381 0.00724269 0.00181303 0.00759665 0.00161726 0.01223383 0.00618796 0.03501991 0.00662460 0.02718668 0.00116638 0.00946510 0.07751081 0.02089891 0.00632063 
0.01207323 0.02175429 0.00724008 0.00181646 0.00770754 0.00159585 0.01215662 0.00627215 0.03566080 0.00648630 0.02759706 0.00117510 0.00943329 0.07627869 0.02061936 0.00702303 
0.01235737 0.02245621 0.00723224 0.00181991 0.00781986 0.00157324 0.01207023 0.00635693 0.03632196 0.00634449 0.02800427 0.00118427 0.00942330 0.07498707 0.02033168 0.00775560 
0.01265276 0.02315704 0.00721919 0.00182346 0.00793307 0.00154952 0.01197516 0.00644219 0.03699948 0.00619992 0.02840728 0.00119385 0.00943651 0.07364336 0.02003715 0.00851640 
0.01295894 0.02385428 0.00720100 0.00182718 0.00804660 0.00152477 0.01187192 0.00652782 0.03768940 0.00605333 0.02880510 0.00120379 0.00947423 0.07225527 0.01973708 0.00930330 
0.01327541 0.02454545 0.00717772 0.00183116 0.00815984 0.00149909 0.01176106 0.00661370 0.03838767 0.00590550 0.02919683 0.00121403 0.00953770 0.07083075 0.01943280 0.01011401 
0.01360168 0.02522814 0.00714943 0.00183548 0.00827221 0.00147257 0.01164315 0.00669972 0.03909020 0.00575719 0.02958164 0.00122454 0.00962804 0.06937795 0.01912562 0.01094609 
0.01393723 0.02589997 0.00711623 0.00184022 0.00838307 0.00144533 0.01151877 0.00678576 0.03979290 0.00560921 0.02995881 0.00123526 0.00974630 0.06790518 0.01881686 0.01179694 
0.01428155 0.02655868 0.00707823 0.00184545 0.00849182 0.00141746 0.01138852 0.00687170 0.04049165 0.00546231 0.03032766 0.00124615 0.00989339 0.06642087 0.01850782 0.01266381 
0.01463409 0.02720205 0.00703554 0.00185125 0.00859780 0.00138909 0.01125301 0.00695743 0.04118241 0.00531730 0.03068764 0.00125714 0.01007012 0.06493348 0.01819979 0.01354383 
0.01499430 0.02782800 0.00698831 0.00185769 0.00870039 0.00136034 0.01111286 0.00704285 0.04186116 0.00517493 0.03103826 0.00126820 0.01027717 0.06345151 0.01789402 0.01443400 
0.01536164 0.02843454 0.00693668 0.00186483 0.00879895 0.00133134 0.01096869 0.00712783 0.04252398 0.00503597 0.03137911 0.00127928 0.01051507 0.06198342 0.01759174 0.01533121 
0.01573554 0.02901984 0.00688081 0.00187273 0.00889284 0.00130221 0.01082113 0.00721226 0.04316704 0.00490118 0.03170985 0.00129032 0.01078422 0.06053756 0.01729415 0.01623225 
0.01611541 0.02958217 0.00682087 0.00188143 0.00898145 0.00127308 0.01067080 0.00729602 0.04378667 0.00477126 0.03203022 0.00130128 0.01108488 0.05912218 0.01700238 0.01713383 
0.01650067 0.03011998 0.00675703 0.00189099 0.00906416 0.00124410 0.01051833 0.00737900 0.04437933 0.00464695 0.03234006 0.00131212 0.01141714 0.05774534 0.01671754 0.01803258 
0.01689073 0.03063186 0.00668949 0.00190143 0.00914036 0.00121540 0.01036432 0.00746108 0.04494165 0.00452891 0.03263923 0.00132278 0.01178096 0.05641486 0.01644068 0.01892508 
0.01728498 0.03111658 0.00661845 0.00191278 0.00920946 0.00118712 0.01020937 0.00754214 0.04547047 0.00441779 0.03292766 0.00133323 0.01217611 0.05513830 0.01617277 0.01980788 
0.01768282 0.03157309 0.00654410 0.00192506 0.00927091 0.00115939 0.01005408 0.00762206 0.04596284 0.00431422 0.03320537 0.00134341 0.01260221 0.05392292 0.01591476 0.02067750 
0.01808362 0.03200051 0.00646665 0.00193827 0.00932414 0.00113236 0.00989900 0.00770072 0.04641603 0.00421878 0.03347237 0.00135330 0.01305871 0.05277561 0.01566749 0.02153047 
0.01848675 0.03239816 0.00638633 0.00195241 0.00936864 0.00110616 0.00974470 0.00777799 0.04682758 0.00413202 0.03372876 0.00136285 0.01354491 0.05170287 0.01543176 0.02236330 
0.01889159 0.03276556 0.00630335 0.00196747 0.00940392 0.00108093 0.00959169 0.00785376 0.04719528 0.00405444 0.03397465 0.00137203 0.01405992 0.05071078 0.01520829 0.02317258 
0.01929749 0.03310242 0.00621793 0.00198342 0.00942952 0.00105681 0.00944048 0.00792789 0.04751719 0.00398650 0.03421018 0.00138080 0.01460271 0.04980495 0.01499772 0.02395492 
0.01970380 0.03340866 0.00613032 0.00200024 0.00944500 0.00103393 0.00929154 0.00800026 0.04779168 0.00392861 0.03443550 0.00138913 0.01517207 0.04899050 0.01480063 0.02470700 
0.02010987 0.03368439 0.00604073 0.00201789 0.00944999 0.00101242 0.00914532 0.00807074 0.04801738 0.00388115 0.03465078 0.00139698 0.01576664 0.04827203 0.01461751 0.02542560 
0.02051504 0.03392995 0.00594940 0.00203631 0.00944411 0.00099240 0.00900223 0.00813920 0.04819327 0.00384443 0.03485620 0.00140434 0.01638490 0.04765360 0.01444878 0.02610759 
0.02091865 0.03414585 0.00585657 0.00205546 0.00942706 0.00097400 0.00886266 0.00820550 0.04831861 0.00381873 0.03505192 0.00141117 0.01702519 0.04713871 0.01429477 0.02674997 
0.02132002 0.03433281 0.00576248 0.00207526 0.00939857 0.00095732 0.00872694 0.00826953 0.04839299 0.00380425 0.03523811 0.00141746 0.01768569 0.04673026 0.01415574 0.02734990 
0.02171847 0.03449177 0.00566736 0.00209565 0.00935841 0.00094250 0.00859541 0.00833114 0.04841631 0.00380117 0.03541489 0.00142319 0.01836445 0.04643057 0.01403188 0.02790467 
0.02211333 0.03462383 0.00557146 0.00211655 0.00930641 0.00092961 0.00846832 0.00839020 0.04838878 0.00380958 0.03558238 0.00142834 0.01905941 0.04624135 0.01392330 0.02841176 
0.02250391 0.03473028 0.00547501 0.00213787 0.00924242 0.00091878 0.00834592 0.00844659 0.04831095 0.00382956 0.03574067 0.00143289 0.01976837 0.04616370 0.01383002 0.02886884 
0.02288953 0.03481259 0.00537824 0.00215954 0.00916638 0.00091008 0.00822842 0.00850016 0.04818367 0.00386109 0.03588980 0.00143683 0.02048902 0.04619810 0.01375200 0.02927379 
0.02326950 0.03487240 0.00528140 0.00218147 0.00907824 0.00090359 0.00811597 0.00855080 0.04800807 0.00390412 0.03602978 0.00144017 0.02121897 0.04634444 0.01368913 0.02962469 
0.02364312 0.03491151 0.00518472 0.00220355 0.00897803 0.00089941 0.00800870 0.00859836 0.04778562 0.00395856 0.03616057 0.00144288 0.02195571 0.04660196 0.01364123 0.02991988 
0.02400971 0.03493184 0.00508843 0.00222571 0.00886581 0.00089759 0.00790671 0.00864272 0.04751806 0.00402424 0.03628207 0.00144498 0.02269670 0.04696935 0.01360806 0.03015792 
0.02436859 0.03493547 0.00499275 0.00224785 0.00874171 0.00089819 0.00781005 0.00868376 0.04720740 0.00410095 0.03639416 0.00144646 0.02343930 0.04744467 0.01358929 0.03033765 
0.02471905 0.03492459 0.00489792 0.00226987 0.00860589 0.00090126 0.00771874 0.00872135 0.04685593 0.00418842 0.03649664 0.00144733 0.02418083 0.04802544 0.01358457 0.03045816 
0.02506044 0.03490148 0.00480415 0.00229168 0.00845859 0.00090684 0.00763276 0.00875537 0.04646619 0.00428636 0.03658925 0.00144759 0.02491857 0.04870861 0.01359346 0.03051880 
0.02539205 0.03486852 0.00471166 0.00231321 0.00830008 0.00091496 0.00755206 0.00878570 0.04604094 0.00439439 0.03667169 0.00144725 0.02564980 0.04949062 0.01361550 0.03051923 
0.02571324 0.03482815 0.00462066 0.00233436 0.00813070 0.00092565 0.00747657 0.00881223 0.04558318 0.00451211 0.03674361 0.00144633 0.02637176 0.05036738 0.01365016 0.03045937 
0.02602333 0.03478289 0.00453136 0.00235506 0.00795081 0.00093891 0.00740617 0.00883485 0.04509610 0.00463908 0.03680459 0.00144485 0.02708172 0.05133434 0.01369688 0.03033944 
0.02632167 0.03473525 0.00444396 0.00237524 0.00776085 0.00095474 0.00734073 0.00885346 0.04458306 0.00477481 0.03685416 0.00144281 0.02777696 0.05238651 0.01375504 0.03015993 
0.02660762 0.03468779 0.00435866 0.00239483 0.00756130 0.00097314 0.00728009 0.00886795 0.04404760 0.00491877 0.03689182 0.00144025 0.02845480 0.05351847 0.01382400 0.02992165 
0.02688056 0.03464307 0.00427564 0.00241378 0.00735268 0.00099408 0.00722405 0.00887824 0.04349338 0.00507038 0.03691701 0.00143720 0.02911260 0.05472444 0.01390310 0.02962568 
0.02713987 0.03460360 0.00419508 0.00243204 0.00713557 0.00101753 0.00717241 0.00888424 0.04292421 0.00522906 0.03692913 0.00143366 0.02974779 0.05599830 0.01399164 0.02927338 
0.02738497 0.03457187 0.00411717 0.00244957 0.00691057 0.00104346 0.00712495 0.00888586 0.04234395 0.00539418 0.03692754 0.00142969 0.03035789 0.05733360 0.01408888 0.02886641 
0.02761527 0.03455030 0.00404206 0.00246635 0.00667835 0.00107180 0.00708142 0.00888305 0.04175656 0.00556508 0.03691159 0.00142530 0.03094049 0.05872367 0.01419410 0.02840670 
0.02783024 0.03454125 0.00396991 0.00248235 0.00643961 0.00110251 0.00704157 0.00887573 0.04116605 0.00574108 0.03688059 0.00142054 0.03149329 0.06016160 0.01430654 0.02789643 
0.02802933 0.03454695 0.00390086 0.00249758 0.00619507 0.00113550 0.00700514 0.00886385 0.04057643 0.00592148 0.03683384 0.00141544 0.03201413 0.06164031 0.01442544 0.02733806 
0.02821206 0.03456954 0.00383506 0.00251203 0.00594552 0.00117070 0.00697184 0.00884736 0.03999174 0.00610558 0.03677064 0.00141004 0.03250094 0.06315256 0.01455003 0.02673429 
0.02837794 0.03461100 0.00377264 0.00252573 0.00569175 0.00120802 0.00694141 0.00882623 0.03941598 0.00629263 0.03669028 0.00140439 0.03295183 0.06469106 0.01467952 0.02608806 
0.02852654 0.03467319 0.00371369 0.00253871 0.00543461 0.00124734 0.00691357 0.00880043 0.03885310 0.00648189 0.03659207 0.00139852 0.03336504 0.06624843 0.01481317 0.02540254 
0.02865744 0.03475777 0.00365835 0.00255101 0.00517496 0.00128857 0.00688803 0.00876994 0.03830701 0.00667264 0.03647532 0.00139248 0.03373897 0.06781730 0.01495019 0.02468109 
0.02877028 0.03486623 0.00360668 0.00256270 0.00491369 0.00133158 0.00686453 0.00873476 0.03778150 0.00686411 0.03633940 0.00138632 0.03407220 0.06939034 0.01508982 0.02392729 
0.02886472 0.03499985 0.00355878 0.00257382 0.00465170 0.00137625 0.00684279 0.00869489 0.03728026 0.00705556 0.03618368 0.00138009 0.03436348 0.07096029 0.01523132 0.02314486 
0.02894046 0.03515972 0.00351472 0.00258448 0.00438994 0.00142243 0.00682255 0.00865034 0.03680685 0.00724625 0.03600760 0.00137383 0.03461175 0.07251999 0.01537395 0.02233773 
0.02899723 0.03534669 0.00347454 0.00259476 0.00412934 0.00147000 0.00680357 0.00860114 0.03636466 0.00743546 0.03581064 0.00136760 0.03481614 0.07406244 0.01551698 0.02150992 
0.02903484 0.03556136 0.00343829 0.00260476 0.00387088 0.00151878 0.00678562 0.00854734 0.03595695 0.00762245 0.03559236 0.00136145 0.03497598 0.07558085 0.01565972 0.02066560 
0.02905310 0.03580413 0.00340600 0.00261460 0.00361551 0.00156864 0.00676846 0.00848897 0.03558675 0.00780653 0.03535238 0.00135543 0.03509080 0.07706861 0.01580147 0.01980905 
0.02905189 0.03607510 0.00337767 0.00262441 0.00336421 0.00161939 0.00675191 0.00842611 0.03525691 0.00798702 0.03509040 0.00134959 0.03516032 0.07851940 0.01594157 0.01894459 
0.02903114 0.03637415 0.00335331 0.00263432 0.00311797 0.00167089 0.00673578 0.00835883 0.03497005 0.00816324 0.03480622 0.00134399 0.03518448 0.07992717 0.01607938 0.01807665 
0.02899082 0.03670089 0.00333289 0.00264447 0.00287775 0.00172294 0.00671990 0.00828722 0.03472856 0.00833457 0.03449972 0.00133867 0.03516342 0.08128618 0.01621428 0.01720966 
0.02893095 0.03705466 0.00331640 0.00265501 0.00264454 0.00177538 0.00670415 0.00821137 0.03453460 0.00850039 0.03417091 0.00133369 0.03509747 0.08259103 0.01634567 0.01634808 
0.02885160 0.03743455 0.00330377 0.00266611 0.00241929 0.00182801 0.00668840 0.00813140 0.03439005 0.00866013 0.03381990 0.00132911 0.03498719 0.08383668 0.01647299 0.01549635 
0.02875290 0.03783938 0.00329495 0.00267792 0.00220297 0.00188066 0.00667258 0.00804743 0.03429656 0.00881325 0.03344689 0.00132496 0.03483332 0.08501848 0.01659569 0.01465892 
0.02863503 0.03826773 0.00328986 0.00269062 0.00199652 0.00193314 0.00665660 0.00795960 0.03425547 0.00895924 0.03305224 0.00132131 0.03463678 0.08613215 0.01671326 0.01384015 
0.02849820 0.03871791 0.00328840 0.00270436 0.00180084 0.00198526 0.00664044 0.00786806 0.03426788 0.00909763 0.03263641 0.00131820 0.03439872 0.08717385 0.01682520 0.01304433 
0.02834272 0.03918800 0.00329048 0.00271934 0.00161686 0.00203684 0.00662408 0.00777297 0.03433460 0.00922799 0.03220001 0.00131567 0.03412044 0.08814014 0.01693106 0.01227569 
0.02816890 0.03967586 0.00329596 0.00273572 0.00144543 0.00208768 0.00660754 0.00767451 0.03445615 0.00934994 0.03174377 0.00131378 0.03380342 0.08902803 0.01703040 0.01153831 
0.02797713 0.04017911 0.00330472 0.00275368 0.00128741 0.00213759 0.00659085 0.00757286 0.03463279 0.00946313 0.03126854 0.00131257 0.03344933 0.08983493 0.01712280 0.01083616 
0.02776786 0.04069518 0.00331660 0.00277338 0.00114360 0.00218640 0.00657409 0.00746822 0.03486446 0.00956728 0.03077533 0.00131207 0.03305998 0.09055872 0.01720789 0.01017303 
0.02754157 0.04122131 0.00333145 0.00279499 0.00101479 0.00223391 0.00655734 0.00736080 0.03515088 0.00966212 0.03026527 0.00131233 0.03263733 0.09119771 0.01728531 0.00955256 
0.02729880 0.04175454 0.00334908 0.00281868 0.00090171 0.00227996 0.00654072 0.00725081 0.03549145 0.00974746 0.02973961 0.00131338 0.03218348 0.09175062 0.01735473 0.00897819 
0.02704014 0.04229180 0.00336930 0.00284460 0.00080506 0.00232436 0.00652437 0.00713849 0.03588533 0.00982314 0.02919977 0.00131525 0.03170066 0.09221664 0.01741585 0.00845314 
0.02676621 0.04282986 0.00339193 0.00287291 0.00072549 0.00236695 0.00650845 0.00702409 0.03633141 0.00988906 0.02864724 0.00131798 0.03119121 0.09259534 0.01746839 0.00798042 
0.02647770 0.04336538 0.00341675 0.00290373 0.00066359 0.00240756 0.00649313 0.00690784 0.03682833 0.00994514 0.02808368 0.00132159 0.03065760 0.09288672 0.01751210 0.00756278 
0.02617534 0.04389493 0.00344355 0.00293721 0.00061992 0.00244604 0.00647861 0.00679001 0.03737450 0.00999137 0.02751084 0.00132611 0.03010234 0.09309117 0.01754675 0.00720273 
0.02585988 0.04441502 0.00347209 0.00297346 0.00059497 0.00248223 0.00646512 0.00667087 0.03796809 0.01002780 0.02693059 0.00133155 0.02952806 0.09320948 0.01757214 0.00690251 
0.02553213 0.04492213 0.00350215 0.00301257 0.00058917 0.00251601 0.00645287 0.00655069 0.03860707 0.01005449 0.02634489 0.00133792 0.02893745 0.09324279 0.01758811 0.00666407 
0.02519293 0.04541272 0.00353348 0.00305466 0.00060291 0.00254724 0.00644212 0.00642976 0.03928918 0.01007158 0.02575582 0.00134525 0.02833322 0.09319260 0.01759449 0.00648908 
0.02484315 0.04588326 0.00356584 0.00309978 0.00063650 0.00257579 0.00643311 0.00630836 0.04001201 0.01007922 0.02516552 0.00135354 0.02771814 0.09306073 0.01759117 0.00637889 
0.02448370 0.04633026 0.00359899 0.00314800 0.00069018 0.00260157 0.00642611 0.00618679 0.04077294 0.01007762 0.02457621 0.00136278 0.02709502 0.09284931 0.01757804 0.00633458 
0.02411551 0.04675030 0.00363268 0.00319937 0.00076413 0.00262447 0.00642138 0.00606535 0.04156923 0.01006703 0.02399019 0.00137299 0.02646664 0.09256079 0.01755505 0.00635689 
0.02373954 0.04714007 0.00366664 0.00325390 0.00085847 0.00264440 0.00641918 0.00594435 0.04239797 0.01004775 0.02340979 0.00138415 0.02583580 0.09219786 0.01752213 0.00644623 
0.02335677 0.04749635 0.00370065 0.00331160 0.00097324 0.00266129 0.00641980 0.00582409 0.04325614 0.01002008 0.02283740 0.00139625 0.02520528 0.09176346 0.01747927 0.00660273 
0.02296819 0.04781610 0.00373443 0.00337247 0.00110841 0.00267509 0.00642350 0.00570488 0.04414061 0.00998438 0.02227543 0.00140928 0.02457783 0.09126077 0.01742649 0.00682616 
0.02257483 0.04809643 0.00376776 0.00343646 0.00126386 0.00268574 0.00643053 0.00558703 0.04504816 0.00994105 0.02172630 0.00142323 0.02395615 0.09069314 0.01736382 0.00711600 
0.02217771 0.04833468 0.00380040 0.00350352 0.00143943 0.00269321 0.00644117 0.00547086 0.04597552 0.00989048 0.02119244 0.00143806 0.02334290 0.09006414 0.01729134 0.00747138 
0.02177786 0.04852839 0.00383210 0.00357359 0.00163485 0.00269749 0.00645565 0.00535667 0.04691934 0.00983313 0.02067627 0.00145375 0.02274066 0.08937747 0.01720914 0.00789113 
0.02137633 0.04867536 0.00386265 0.00364657 0.00184980 0.00269857 0.00647421 0.00524477 0.04787624 0.00976944 0.02018017 0.00147027 0.02215194 0.08863697 0.01711735 0.00837377 
0.02097415 0.04877366 0.00389182 0.00372234 0.00208386 0.00269646 0.00649707 0.00513547 0.04884284 0.00969991 0.01970649 0.00148757 0.02157916 0.08784661 0.01701615 0.00891752 
0.02057238 0.04882164 0.00391942 0.00380078 0.00233655 0.00269118 0.00652444 0.00502908 0.04981574 0.00962501 0.01925752 0.00150563 0.02102465 0.08701042 0.01690572 0.00952029 
0.02017203 0.04881797 0.00394525 0.00388173 0.00260731 0.00268279 0.00655650 0.00492588 0.05079155 0.00954527 0.01883550 0.00152439 0.02049063 0.08613253 0.01678631 0.01017970 
0.01977415 0.04876166 0.00396912 0.00396502 0.00289551 0.00267133 0.00659342 0.00482618 0.05176693 0.00946119 0.01844257 0.00154381 0.01997920 0.08521712 0.01665818 0.01089311 
0.01937974 0.04865203 0.00399088 0.00405046 0.00320043 0.00265688 0.00663534 0.00473025 0.05273857 0.00937330 0.01808076 0.00156384 0.01949234 0.08426841 0.01652165 0.01165760 
0.01898981 0.04848877 0.00401038 0.00413785 0.00352129 0.00263952 0.00668238 0.00463837 0.05370323 0.00928212 0.01775202 0.00158441 0.01903192 0.08329064 0.01637707 0.01247001 
0.01860534 0.04827194 0.00402747 0.00422696 0.00385724 0.00261935 0.00673464 0.00455081 0.05465775 0.00918817 0.01745816 0.00160547 0.01859966 0.08228803 0.01622481 0.01332695 
0.01822730 0.04800196 0.00404205 0.00431756 0.00420736 0.00259649 0.00679217 0.00446783 0.05559905 0.00909198 0.01720086 0.00162696 0.01819715 0.08126484 0.01606532 0.01422478 
0.01785663 0.04767964 0.00405401 0.00440939 0.00457065 0.00257106 0.00685503 0.00438966 0.05652413 0.00899406 0.01698165 0.00164882 0.01782581 0.08022526 0.01589905 0.01515969 
0.01749424 0.04730616 0.00406328 0.00450219 0.00494606 0.00254321 0.00692322 0.00431655 0.05743014 0.00889491 0.01680191 0.00167097 0.01748696 0.07917347 0.01572654 0.01612767 
0.01714101 0.04688309 0.00406981 0.00459567 0.00533248 0.00251309 0.00699672 0.00424872 0.05831433 0.00879503 0.01666284 0.00169334 0.01718174 0.07811361 0.01554833 0.01712455 
0.01679781 0.04641236 0.00407355 0.00468957 0.00572872 0.00248086 0.00707548 0.00418636 0.05917407 0.00869488 0.01656548 0.00171587 0.01691114 0.07704975 0.01536502 0.01814600 
0.01646545 0.04589631 0.00407449 0.00478357 0.00613357 0.00244671 0.00715941 0.00412968 0.06000688 0.00859493 0.01651066 0.00173849 0.01667601 0.07598592 0.01517726 0.01918759 
0.01614473 0.04533760 0.00407264 0.00487739 0.00654574 0.00241082 0.00724842 0.00407884 0.06081044 0.00849560 0.01649904 0.00176111 0.01647705 0.07492605 0.01498573 0.02024476 
0.01583639 0.04473927 0.00406801 0.00497072 0.00696392 0.00237339 0.00734235 0.00403400 0.06158255 0.00839732 0.01653107 0.00178366 0.01631479 0.07387402 0.01479117 0.02131289 
0.01554114 0.04410471 0.00406067 0.00506324 0.00738672 0.00233462 0.00744103 0.00399529 0.06232119 0.00830047 0.01660700 0.00180607 0.01618963 0.07283364 0.01459434 0.02238729 
0.01525967 0.04343761 0.00405067 0.00515467 0.00781276 0.00229473 0.00754426 0.00396285 0.06302449 0.00820542 0.01672686 0.00182826 0.01610181 0.07180860 0.01439606 0.02346322 
0.01499259 0.04274200 0.00403812 0.00524468 0.00824059 0.00225393 0.00765180 0.00393676 0.06369074 0.00811250 0.01689049 0.00185016 0.01605141 0.07080254 0.01419719 0.02453596 
0.01474050 0.04202217 0.00402313 0.00533297 0.00866875 0.00221246 0.00776341 0.00391712 0.06431841 0.00802202 0.01709749 0.00187169 0.01603840 0.06981900 0.01399861 0.02560077 
0.01450395 0.04128269 0.00400582 0.00541926 0.00909577 0.00217055 0.00787879 0.00390397 0.06490612 0.00793425 0.01734727 0.00189278 0.01606258 0.06886141 0.01380126 0.02665295 
0.01428343 0.04052835 0.00398636 0.00550324 0.00952014 0.00212843 0.00799763 0.00389736 0.06545266 0.00784943 0.01763902 0.00191334 0.01612361 0.06793315 0.01360608 0.02768787 
0.01407941 0.03976418 0.00396490 0.00558465 0.00994035 0.00208633 0.00811959 0.00389731 0.06595698 0.00776778 0.01797173 0.00193332 0.01622104 0.06703747 0.01341408 0.02870094 
0.01389228 0.03899538 0.00394165 0.00566321 0.01035491 0.00204449 0.00824432 0.00390380 0.06641819 0.00768949 0.01834416 0.00195264 0.01635427 0.06617755 0.01322627 0.02968771 
0.01372242 0.03822729 0.00391681 0.00573867 0.01076229 0.00200315 0.00837144 0.00391681 0.06683558 0.00761470 0.01875490 0.00197124 0.01652257 0.06535648 0.01304369 0.03064383 
0.01357013 0.03746539 0.00389061 0.00581080 0.01116101 0.00196254 0.00850054 0.00393629 0.06720857 0.00754352 0.01920233 0.00198904 0.01672511 0.06457723 0.01286741 0.03156509 
0.01343570 0.03671524 0.00386328 0.00587935 0.01154958 0.00192289 0.00863122 0.00396217 0.06753675 0.00747606 0.01968464 0.00200599 0.01696094 0.06384272 0.01269851 0.03244746 
0.01331935 0.03598244 0.00383508 0.00594415 0.01192655 0.00188444 0.00876304 0.00399434 0.06781983 0.00741236 0.02019985 0.00202203 0.01722897 0.06315575 0.01253807 0.03328707 
0.01322124 0.03527263 0.00380627 0.00600499 0.01229047 0.00184741 0.00889558 0.00403270 0.06805769 0.00735247 0.02074581 0.00203711 0.01752804 0.06251903 0.01238720 0.03408026 
0.01314151 0.03459140 0.00377712 0.00606173 0.01263996 0.00181201 0.00902836 0.00407709 0.06825034 0.00729637 0.02132022 0.00205116 0.01785687 0.06193519 0.01224699 0.03482360 
0.01308025 0.03394432 0.00374792 0.00611421 0.01297365 0.00177845 0.00916095 0.00412736 0.06839791 0.00724405 0.02192062 0.00206415 0.01821410 0.06140676 0.01211854 0.03551388 
0.01303749 0.03333685 0.00371896 0.00616233 0.01329025 0.00174693 0.00929287 0.00418332 0.06850064 0.00719545 0.02254445 0.00207602 0.01859826 0.06093617 0.01200293 0.03614813 
0.01301322 0.03277430 0.00369054 0.00620599 0.01358849 0.00171764 0.00942367 0.00424475 0.06855891 0.00715052 0.02318899 0.00208675 0.01900781 0.06052576 0.01190123 0.03672368 
0.01300739 0.03226186 0.00366296 0.00624514 0.01386718 0.00169076 0.00955287 0.00431145 0.06857320 0.00710915 0.02385146 0.00209629 0.01944112 0.06017779 0.01181450 0.03723810 
0.01301991 0.03180448 0.00363651 0.00627972 0.01412520 0.00166646 0.00968003 0.00438314 0.06854409 0.00707124 0.02452896 0.00210460 0.01989651 0.05989438 0.01174374 0.03768926 
0.01305062 0.03140690 0.00361151 0.00630973 0.01436148 0.00164488 0.00980468 0.00445958 0.06847224 0.00703665 0.02521856 0.00211168 0.02037220 0.05967757 0.01168996 0.03807533 
0.01309934 0.03107358 0.00358825 0.00633518 0.01457503 0.00162618 0.00992637 0.00454047 0.06835841 0.00700527 0.02591723 0.00211748 0.02086637 0.05952928 0.01165409 0.03839480 
0.01316584 0.03080869 0.00356702 0.00635612 0.01476497 0.00161047 0.01004467 0.00462552 0.06820343 0.00697692 0.02662194 0.00212201 0.02137713 0.05945134 0.01163704 0.03864644 
0.01324985 0.03061605 0.00354813 0.00637261 0.01493047 0.00159786 0.01015916 0.00471440 0.06800822 0.00695146 0.02732964 0.00212523 0.02190254 0.05944543 0.01163967 0.03882936 
0.01335105 0.03049915 0.00353184 0.00638475 0.01507080 0.00158845 0.01026942 0.00480677 0.06777374 0.00692872 0.02803727 0.00212715 0.02244063 0.05951312 0.01166275 0.03894300 
0.01346909 0.03046105 0.00351844 0.00639265 0.01518534 0.00158232 0.01037507 0.00490231 0.06750102 0.00690852 0.02874178 0.00212775 0.02298936 0.05965584 0.01170702 0.03898709 
0.01360359 0.03050445 0.00350819 0.00639646 0.01527355 0.00157951 0.01047572 0.00500063 0.06719114 0.00689071 0.02944019 0.00212705 0.02354667 0.05987489 0.01177314 0.03896173 
0.01375409 0.03063157 0.00350133 0.00639635 0.01533500 0.00158008 0.01057102 0.00510139 0.06684522 0.00687510 0.03012954 0.00212504 0.02411048 0.06017141 0.01186167 0.03886729 
0.01392013 0.03084422 0.00349811 0.00639251 0.01536935 0.00158405 0.01066065 0.00520420 0.06646442 0.00686153 0.03080697 0.00212174 0.02467866 0.06054638 0.01197313 0.03870450 
0.01410120 0.03114370 0.00349873 0.00638514 0.01537640 0.00159141 0.01074430 0.00530868 0.06604995 0.00684985 0.03146969 0.00211716 0.02524907 0.06100064 0.01210793 0.03847439 
0.01429676 0.03153085 0.00350341 0.00637450 0.01535602 0.00160217 0.01082168 0.00541443 0.06560303 0.00683990 0.03211504 0.00211131 0.02581956 0.06153481 0.01226637 0.03817829 
0.01450623 0.03200600 0.00351231 0.00636081 0.01530821 0.00161628 0.01089255 0.00552108 0.06512490 0.00683153 0.03274046 0.00210422 0.02638797 0.06214937 0.01244870 0.03781785 
0.01472898 0.03256899 0.00352561 0.00634436 0.01523307 0.00163369 0.01095667 0.00562822 0.06461684 0.00682461 0.03334355 0.00209591 0.02695213 0.06284458 0.01265503 0.03739499 
0.01496437 0.03321914 0.00354343 0.00632542 0.01513082 0.00165435 0.01101386 0.00573546 0.06408014 0.00681902 0.03392204 0.00208640 0.02750989 0.06362049 0.01288538 0.03691193 
0.01521172 0.03395526 0.00356589 0.00630429 0.01500180 0.00167815 0.01106393 0.00584242 0.06351609 0.00681467 0.03447386 0.00207574 0.02805908 0.06447695 0.01313968 0.03637116 
0.01547031 0.03477566 0.00359309 0.00628127 0.01484643 0.00170500 0.01110676 0.00594871 0.06292601 0.00681145 0.03499711 0.00206396 0.02859757 0.06541358 0.01341772 0.03577540 
0.01573941 0.03567811 0.00362508 0.00625667 0.01466527 0.00173478 0.01114225 0.00605396 0.06231121 0.00680930 0.03549006 0.00205108 0.02912324 0.06642976 0.01371920 0.03512763 
0.01601825 0.03665993 0.00366192 0.00623082 0.01445897 0.00176735 0.01117030 0.00615780 0.06167301 0.00680815 0.03595121 0.00203716 0.02963400 0.06752464 0.01404371 0.03443107 
0.01630602 0.03771791 0.00370360 0.00620404 0.01422830 0.00180256 0.01119089 0.00625987 0.06101276 0.00680798 0.03637926 0.00202223 0.03012779 0.06869710 0.01439071 0.03368912 
0.01660191 0.03884839 0.00375012 0.00617664 0.01397411 0.00184023 0.01120400 0.00635984 0.06033178 0.00680876 0.03677314 0.00200633 0.03060260 0.06994578 0.01475957 0.03290539 
0.01690506 0.04004724 0.00380144 0.00614897 0.01369737 0.00188019 0.01120964 0.00645736 0.05963142 0.00681049 0.03713201 0.00198952 0.03105647 0.07126903 0.01514953 0.03208366 
0.01721461 0.04130989 0.00385749 0.00612132 0.01339913 0.00192224 0.01120786 0.00655215 0.05891301 0.00681319 0.03745524 0.00197185 0.03148747 0.07266496 0.01555973 0.03122786 
0.01752967 0.04263136 0.00391818 0.00609403 0.01308056 0.00196618 0.01119875 0.00664391 0.05817791 0.00681688 0.03774246 0.00195335 0.03189378 0.07413137 0.01598918 0.03034207 
0.01784932 0.04400628 0.00398337 0.00606739 0.01274289 0.00201179 0.01118240 0.00673236 0.05742746 0.00682162 0.03799351 0.00193408 0.03227359 0.07566580 0.01643682 0.02943045 
0.01817266 0.04542891 0.00405294 0.00604170 0.01238745 0.00205883 0.01115895 0.00681727 0.05666301 0.00682748 0.03820850 0.00191410 0.03262523 0.07726550 0.01690145 0.02849728 
0.01849872 0.04689317 0.00412669 0.00601724 0.01201563 0.00210707 0.01112857 0.00689842 0.05588593 0.00683452 0.03838774 0.00189345 0.03294707 0.07892745 0.01738180 0.02754690 
0.01882656 0.04839270 0.00420443 0.00599429 0.01162890 0.00215627 0.01109144 0.00697561 0.05509759 0.00684285 0.03853181 0.00187220 0.03323760 0.08064832 0.01787648 0.02658371 
0.01915522 0.04992085 0.00428594 0.00597309 0.01122881 0.00220618 0.01104778 0.00704868 0.05429935 0.00685257 0.03864149 0.00185039 0.03349540 0.08242454 0.01838403 0.02561213 
0.01948373 0.05147075 0.00437097 0.00595388 0.01081695 0.00225655 0.01099782 0.00711749 0.05349260 0.00686379 0.03871778 0.00182807 0.03371916 0.08425223 0.01890290 0.02463658 
0.01981111 0.05303535 0.00445924 0.00593688 0.01039496 0.00230711 0.01094181 0.00718194 0.05267874 0.00687663 0.03876192 0.00180532 0.03390770 0.08612727 0.01943145 0.02366148 
0.02013637 0.05460741 0.00455047 0.00592226 0.00996455 0.00235761 0.01088005 0.00724195 0.05185917 0.00689122 0.03877531 0.00178217 0.03405996 0.08804526 0.01996800 0.02269120 
0.02045855 0.05617962 0.00464434 0.00591022 0.00952745 0.00240779 0.01081282 0.00729748 0.05103530 0.00690770 0.03875959 0.00175869 0.03417501 0.09000156 0.02051078 0.02173006 
0.02077665 0.05774455 0.00474053 0.00590088 0.00908541 0.00245739 0.01074045 0.00734852 0.05020857 0.00692619 0.03871655 0.00173494 0.03425205 0.09199130 0.02105798 0.02078230 
0.02108973 0.05929477 0.00483869 0.00589438 0.00864023 0.00250616 0.01066326 0.00739510 0.04938043 0.00694682 0.03864815 0.00171097 0.03429047 0.09400938 0.02160774 0.01985207 
0.02139680 0.06082286 0.00493845 0.00589080 0.00819371 0.00255384 0.01058161 0.00743726 0.04855234 0.00696973 0.03855651 0.00168685 0.03428976 0.09605049 0.02215816 0.01894339 
0.02169693 0.06232144 0.00503944 0.00589020 0.00774766 0.00260019 0.01049585 0.00747511 0.04772578 0.00699503 0.03844388 0.00166262 0.03424962 0.09810915 0.02270732 0.01806015 
0.02198918 0.06378322 0.00514129 0.00589264 0.00730387 0.00264498 0.01040635 0.00750877 0.04690224 0.00702285 0.03831264 0.00163835 0.03416990 0.10017971 0.02325329 0.01720608 
0.02227263 0.06520107 0.00524358 0.00589811 0.00686417 0.00268798 0.01031350 0.00753839 0.04608325 0.00705327 0.03816524 0.00161410 0.03405061 0.10225635 0.02379410 0.01638477 
0.02254640 0.06656802 0.00534593 0.00590661 0.00643032 0.00272896 0.01021767 0.00756417 0.04527034 0.00708640 0.03800424 0.00158993 0.03389198 0.10433318 0.02432783 0.01559958 
0.02280961 0.06787731 0.00544792 0.00591809 0.00600408 0.00276772 0.01011927 0.00758632 0.04446506 0.00712231 0.03783225 0.00156589 0.03369438 0.10640418 0.02485253 0.01485371 
0.02306144 0.06912246 0.00554915 0.00593248 0.00558719 0.00280407 0.01001869 0.00760510 0.04366897 0.00716107 0.03765193 0.00154205 0.03345839 0.10846328 0.02536630 0.01415011 
0.02330107 0.07029726 0.00564922 0.00594968 0.00518132 0.00283782 0.00991633 0.00762079 0.04288367 0.00720270 0.03746595 0.00151848 0.03318480 0.11050437 0.02586727 0.01349154 
0.02352775 0.07139585 0.00574770 0.00596956 0.00478812 0.00286882 0.00981259 0.00763370 0.04211075 0.00724724 0.03727699 0.00149522 0.03287456 0.11252132 0.02635360 0.01288050 
0.02374073 0.07241273 0.00584420 0.00599198 0.00440917 0.00289690 0.00970789 0.00764415 0.04135183 0.00729468 0.03708771 0.00147234 0.03252884 0.11450806 0.02682353 0.01231925 
0.02393935 0.07334278 0.00593833 0.00601676 0.00404599 0.00292195 0.00960261 0.00765253 0.04060852 0.00734499 0.03690073 0.00144991 0.03214899 0.11645855 0.02727535 0.01180978 
0.02412296 0.07418134 0.00602970 0.00604370 0.00370003 0.00294384 0.00949715 0.00765920 0.03988246 0.00739813 0.03671859 0.00142799 0.03173657 0.11836684 0.02770742 0.01135386 
0.02429097 0.07492416 0.00611793 0.00607260 0.00337267 0.00296247 0.00939191 0.00766457 0.03917529 0.00745403 0.03654378 0.00140664 0.03129333 0.12022713 0.02811820 0.01095295 
0.02444287 0.07556752 0.00620266 0.00610320 0.00306519 0.00297779 0.00928728 0.00766906 0.03848865 0.00751258 0.03637867 0.00138593 0.03082122 0.12203376 0.02850623 0.01060825 
0.02457815 0.07610818 0.00628354 0.00613525 0.00277882 0.00298972 0.00918362 0.00767310 0.03782418 0.00757365 0.03622553 0.00136593 0.03032236 0.12378125 0.02887015 0.01032070 
0.02469643 0.07654340 0.00636025 0.00616849 0.00251465 0.00299823 0.00908132 0.00767715 0.03718351 0.00763709 0.03608648 0.00134669 0.02979908 0.12546436 0.02920872 0.01009096 
0.02479733 0.07687101 0.00643247 0.00620262 0.00227371 0.00300331 0.00898074 0.00768167 0.03656826 0.00770273 0.03596348 0.00132829 0.02925386 0.12707812 0.02952083 0.00991940 
0.02488057 0.07708939 0.00649991 0.00623735 0.00205690 0.00300496 0.00888221 0.00768713 0.03598005 0.00777036 0.03585833 0.00131080 0.02868939 0.12861781 0.02980546 0.00980614 
0.02494593 0.07719747 0.00656231 0.00627236 0.00186504 0.00300321 0.00878610 0.00769398 0.03542046 0.00783975 0.03577267 0.00129428 0.02810848 0.13007908 0.03006176 0.00975100 
0.02499325 0.07719475 0.00661943 0.00630734 0.00169880 0.00299811 0.00869271 0.00770272 0.03489105 0.00791064 0.03570791 0.00127880 0.02751413 0.13145788 0.03028898 0.00975357 
0.02502246 0.07708132 0.00667104 0.00634197 0.00155878 0.00298973 0.00860237 0.00771380 0.03439336 0.00798277 0.03566527 0.00126442 0.02690946 0.13275056 0.03048655 0.00981315 
0.02503355 0.07685783 0.00671697 0.00637593 0.00144544 0.00297815 0.00851537 0.00772770 0.03392888 0.00805583 0.03564574 0.00125122 0.02629774 0.13395389 0.03065401 0.00992880 
0.02502658 0.07652551 0.00675704 0.00640888 0.00135911 0.00296349 0.00843199 0.00774488 0.03349906 0.00812952 0.03565011 0.00123926 0.02568235 0.13506502 0.03079108 0.01009934 
0.02500169 0.07608614 0.00679113 0.00644051 0.00130003 0.00294588 0.00835251 0.00776578 0.03310530 0.00820349 0.03567892 0.00122862 0.02506679 0.13608158 0.03089760 0.01032334 
0.02495910 0.07554209 0.00681914 0.00647049 0.00126830 0.00292545 0.00827716 0.00779083 0.03274893 0.00827742 0.03573246 0.00121934 0.02445462 0.13700166 0.03097359 0.01059914 
0.02489909 0.07489625 0.00684100 0.00649851 0.00126389 0.00290238 0.00820620 0.00782047 0.03243123 0.00835093 0.03581082 0.00121152 0.02384952 0.13782382 0.03101920 0.01092490 
0.02482204 0.07415204 0.00685667 0.00652427 0.00128668 0.00287685 0.00813982 0.00785507 0.03215340 0.00842367 0.03591380 0.00120519 0.02325519 0.13854712 0.03103474 0.01129853 
0.02472837 0.07331340 0.00686614 0.00654747 0.00133640 0.00284905 0.00807824 0.00789502 0.03191656 0.00849527 0.03604099 0.00120044 0.02267539 0.13917111 0.03102068 0.01171780 
0.02461860 0.07238475 0.00686944 0.00656784 0.00141268 0.00281921 0.00802162 0.00794067 0.03172174 0.00856536 0.03619174 0.00119731 0.02211389 0.13969586 0.03097762 0.01218025 
0.02449331 0.07137099 0.00686662 0.00658511 0.00151501 0.00278755 0.00797013 0.00799234 0.03156989 0.00863356 0.03636516 0.00119587 0.02157450 0.14012195 0.03090632 0.01268331 
0.02435316 0.07027743 0.00685777 0.00659903 0.00164280 0.00275430 0.00792390 0.00805033 0.03146182 0.00869951 0.03656014 0.00119617 0.02106096 0.14045046 0.03080767 0.01322422 
0.02419885 0.06910983 0.00684302 0.00660938 0.00179531 0.00271972 0.00788306 0.00811488 0.03139828 0.00876285 0.03677534 0.00119827 0.02057701 0.14068298 0.03068269 0.01380014 
0.02403116 0.06787428 0.00682250 0.00661596 0.00197172 0.00268406 0.00784771 0.00818622 0.03137987 0.00882323 0.03700921 0.00120221 0.02012634 0.14082159 0.03053256 0.01440806 
0.02385095 0.06657724 0.00679639 0.00661857 0.00217110 0.00264761 0.00781792 0.00826455 0.03140707 0.00888032 0.03726002 0.00120805 0.01971253 0.14086886 0.03035853 0.01504491 
0.02365910 0.06522548 0.00676491 0.00661707 0.00239242 0.00261062 0.00779376 0.00835001 0.03148023 0.00893381 0.03752584 0.00121581 0.01933909 0.14082783 0.03016200 0.01570752 
0.02345657 0.06382601 0.00672828 0.00661131 0.00263455 0.00257337 0.00777526 0.00844271 0.03159956 0.00898340 0.03780458 0.00122554 0.01900939 0.14070198 0.02994447 0.01639267 
0.02324434 0.06238609 0.00668676 0.00660120 0.00289628 0.00253616 0.00776244 0.00854272 0.03176515 0.00902883 0.03809397 0.00123727 0.01872668 0.14049522 0.02970753 0.01709707 
0.02302347 0.06091317 0.00664063 0.00658666 0.00317631 0.00249926 0.00775531 0.00865006 0.03197691 0.00906985 0.03839164 0.00125103 0.01849404 0.14021188 0.02945286 0.01781741 
0.02279502 0.05941482 0.00659019 0.00656764 0.00347327 0.00246296 0.00775384 0.00876472 0.03223460 0.00910627 0.03869508 0.00126682 0.01831436 0.13985664 0.02918222 0.01855037 
0.02256011 0.05789875 0.00653577 0.00654411 0.00378571 0.00242753 0.00775798 0.00888664 0.03253785 0.00913791 0.03900169 0.00128468 0.01819035 0.13943452 0.02889742 0.01929262 
0.02231986 0.05637268 0.00647771 0.00651610 0.00411214 0.00239325 0.00776769 0.00901571 0.03288609 0.00916462 0.03930877 0.00130460 0.01812447 0.13895088 0.02860034 0.02004084 
0.02207545 0.05484440 0.00641636 0.00648363 0.00445100 0.00236040 0.00778286 0.00915178 0.03327861 0.00918632 0.03961358 0.00132659 0.01811896 0.13841130 0.02829290 0.02079175 
0.02182802 0.05332162 0.00635209 0.00644679 0.00480068 0.00232923 0.00780341 0.00929467 0.03371452 0.00920294 0.03991336 0.00135064 0.01817582 0.13782165 0.02797703 0.02154212 
0.02157876 0.05181200 0.00628530 0.00640566 0.00515954 0.00230000 0.00782922 0.00944414 0.03419277 0.00921447 0.04020530 0.00137672 0.01829673 0.13718793 0.02765471 0.02228877 
0.02132885 0.05032308 0.00621635 0.00636038 0.00552590 0.00227295 0.00786013 0.00959991 0.03471211 0.00922094 0.04048662 0.00140483 0.01848313 0.13651635 0.02732792 0.02302859 
0.02107945 0.04886225 0.00614566 0.00631111 0.00589806 0.00224831 0.00789601 0.00976166 0.03527117 0.00922243 0.04075457 0.00143493 0.01873613 0.13581317 0.02699860 0.02375857 
0.02083172 0.04743667 0.00607363 0.00625803 0.00627432 0.00222630 0.00793667 0.00992905 0.03586835 0.00921905 0.04100645 0.00146697 0.01905652 0.13508475 0.02666872 0.02447580 
0.02058680 0.04605328 0.00600064 0.00620136 0.00665294 0.00220712 0.00798193 0.01010167 0.03650193 0.00921097 0.04123963 0.00150092 0.01944479 0.13433745 0.02634020 0.02517746 
0.02034579 0.04471874 0.00592711 0.00614133 0.00703222 0.00219096 0.00803156 0.01027909 0.03716999 0.00919841 0.04145157 0.00153671 0.01990108 0.13357761 0.02601489 0.02586088 
0.02010978 0.04343937 0.00585343 0.00607820 0.00741044 0.00217798 0.00808537 0.01046085 0.03787047 0.00918162 0.04163986 0.00157428 0.02042518 0.13281148 0.02569464 0.02652349 
0.01987979 0.04222115 0.00577999 0.00601226 0.00778592 0.00216833 0.00814309 0.01064645 0.03860114 0.00916092 0.04180224 0.00161355 0.02101653 0.13204521 0.02538120 0.02716288 
0.01965682 0.04106965 0.00570716 0.00594381 0.00815700 0.00216214 0.00820449 0.01083536 0.03935961 0.00913664 0.04193656 0.00165444 0.02167424 0.13128477 0.02507626 0.02777679 
0.01944180 0.03999005 0.00563532 0.00587318 0.00852205 0.00215951 0.00826929 0.01102702 0.04014337 0.00910918 0.04204089 0.00169686 0.02239703 0.13053595 0.02478142 0.02836310 
0.01923562 0.03898704 0.00556483 0.00580070 0.00887949 0.00216052 0.00833722 0.01122085 0.04094974 0.00907897 0.04211347 0.00174071 0.02318329 0.12980428 0.02449818 0.02891989 
0.01903909 0.03806486 0.00549601 0.00572673 0.00922778 0.00216524 0.00840798 0.01141626 0.04177592 0.00904647 0.04215275 0.00178587 0.02403105 0.12909502 0.02422795 0.02944535 
0.01885296 0.03722724 0.00542920 0.00565165 0.00956546 0.00217371 0.00848128 0.01161261 0.04261900 0.00901219 0.04215740 0.00183224 0.02493798 0.12841308 0.02397202 0.02993790 
0.01867789 0.03647739 0.00536469 0.00557582 0.00989109 0.00218594 0.00855682 0.01180929 0.04347594 0.00897667 0.04212633 0.00187967 0.02590144 0.12776306 0.02373158 0.03039610 
0.01851449 0.03581796 0.00530276 0.00549962 0.01020336 0.00220193 0.00863426 0.01200562 0.04434361 0.00894046 0.04205867 0.00192805 0.02691841 0.12714915 0.02350768 0.03081872 
0.01836327 0.03525108 0.00524366 0.00542346 0.01050099 0.00222162 0.00871328 0.01220097 0.04521879 0.00890415 0.04195384 0.00197723 0.02798558 0.12657514 0.02330123 0.03120468 
0.01822466 0.03477828 0.00518763 0.00534771 0.01078280 0.00224498 0.00879356 0.01239466 0.04609818 0.00886836 0.04181149 0.00202706 0.02909931 0.12604438 0.02311304 0.03155311 
0.01809900 0.03440053 0.00513487 0.00527278 0.01104770 0.00227191 0.00887476 0.01258603 0.04697842 0.00883370 0.04163155 0.00207739 0.03025569 0.12555976 0.02294375 0.03186331 
0.01798655 0.03411824 0.00508555 0.00519905 0.01129470 0.00230232 0.00895654 0.01277441 0.04785610 0.00880081 0.04141420 0.00212806 0.03145050 0.12512372 0.02279388 0.03213478 
0.01788746 0.03393120 0.00503982 0.00512690 0.01152288 0.00233607 0.00903855 0.01295914 0.04872778 0.00877034 0.04115992 0.00217891 0.03267929 0.12473818 0.02266381 0.03236719 
0.01780180 0.03383865 0.00499779 0.00505671 0.01173145 0.00237300 0.00912046 0.01313958 0.04958999 0.00874293 0.04086944 0.00222975 0.03393733 0.12440459 0.02255375 0.03256041 
0.01772957 0.03383926 0.00495956 0.00498883 0.01191971 0.00241296 0.00920193 0.01331506 0.05043927 0.00871922 0.04054375 0.00228043 0.03521972 0.12412389 0.02246380 0.03271447 
0.01767064 0.03393112 0.00492517 0.00492363 0.01208706 0.00245574 0.00928260 0.01348498 0.05127216 0.00869985 0.04018412 0.00233077 0.03652133 0.12389652 0.02239392 0.03282959 
0.01762482 0.03411178 0.00489466 0.00486143 0.01223303 0.00250113 0.00936216 0.01364871 0.05208523 0.00868543 0.03979206 0.00238058 0.03783688 0.12372241 0.02234390 0.03290618 
0.01759182 0.03437827 0.00486802 0.00480256 0.01235724 0.00254889 0.00944026 0.01380567 0.05287510 0.00867658 0.03936935 0.00242968 0.03916094 0.12360101 0.02231343 0.03294479 
0.01757126 0.03472707 0.00484520 0.00474730 0.01245943 0.00259878 0.00951657 0.01395529 0.05363845 0.00867387 0.03891797 0.00247791 0.04048798 0.12353130 0.02230205 0.03294618 
0.01756269 0.03515421 0.00482616 0.00469593 0.01253945 0.00265052 0.00959079 0.01409702 0.05437203 0.00867786 0.03844015 0.00252506 0.04181237 0.12351176 0.02230919 0.03291123 
0.01756559 0.03565521 0.00481079 0.00464871 0.01259725 0.00270385 0.00966260 0.01423036 0.05507268 0.00868907 0.03793834 0.00257097 0.04312843 0.12354045 0.02233413 0.03284100 
0.01757933 0.03622518 0.00479896 0.00460585 0.01263291 0.00275845 0.00973169 0.01435483 0.05573737 0.00870797 0.03741515 0.00261546 0.04443045 0.12361500 0.02237607 0.03273671 
0.01760325 0.03685882 0.00479054 0.00456755 0.01264660 0.00281403 0.00979780 0.01446997 0.05636318 0.00873502 0.03687342 0.00265835 0.04571275 0.12373262 0.02243409 0.03259971 
0.01763662 0.03755043 0.00478534 0.00453399 0.01263860 0.00287026 0.00986062 0.01457538 0.05694732 0.00877060 0.03631610 0.00269947 0.04696967 0.12389016 0.02250718 0.03243151 
0.01767863 0.03829399 0.00478317 0.00450529 0.01260930 0.00292683 0.00991992 0.01467068 0.05748718 0.00881506 0.03574631 0.00273867 0.04819560 0.12408413 0.02259424 0.03223373 
0.01772845 0.03908318 0.00478381 0.00448156 0.01255918 0.00298341 0.00997544 0.01475554 0.05798030 0.00886870 0.03516729 0.00277576 0.04938508 0.12431074 0.02269407 0.03200814 
0.01778520 0.03991139 0.00478700 0.00446287 0.01248882 0.00303966 0.01002695 0.01482967 0.05842440 0.00893176 0.03458238 0.00281062 0.05053273 0.12456591 0.02280543 0.03175662 
0.01784794 0.04077182 0.00479249 0.00444927 0.01239889 0.00309525 0.01007424 0.01489281 0.05881742 0.00900440 0.03399500 0.00284308 0.05163336 0.12484535 0.02292702 0.03148117 
0.01791573 0.04165746 0.00480001 0.00444077 0.01229016 0.00314983 0.01011712 0.01494475 0.05915748 0.00908676 0.03340861 0.00287302 0.05268196 0.12514456 0.02305747 0.03118389 
0.01798760 0.04256117 0.00480925 0.00443733 0.01216345 0.00320309 0.01015543 0.01498535 0.05944294 0.00917887 0.03282673 0.00290030 0.05367375 0.12545889 0.02319538 0.03086697 
0.01806257 0.04347573 0.00481991 0.00443890 0.01201968 0.00325468 0.01018900 0.01501447 0.05967237 0.00928075 0.03225286 0.00292482 0.05460418 0.12578359 0.02333934 0.03053270 
0.01813966 0.04439385 0.00483167 0.00444538 0.01185984 0.00330429 0.01021771 0.01503206 0.05984459 0.00939230 0.03169052 0.00294645 0.05546897 0.12611385 0.02348791 0.03018346 
0.01821788 0.04530824 0.00484422 0.00445665 0.01168498 0.00335160 0.01024146 0.01503807 0.05995866 0.00951339 0.03114318 0.00296513 0.05626417 0.12644483 0.02363965 0.02982169 
0.01829627 0.04621165 0.00485723 0.00447256 0.01149621 0.00339631 0.01026015 0.01503254 0.06001389 0.00964381 0.03061423 0.00298075 0.05698610 0.12677171 0.02379312 0.02944988 
0.01837389 0.04709692 0.00487035 0.00449291 0.01129467 0.00343812 0.01027373 0.01501553 0.06000987 0.00978330 0.03010701 0.00299326 0.05763145 0.12708976 0.02394691 0.02907062 
0.01844981 0.04795701 0.00488327 0.00451749 0.01108158 0.00347676 0.01028216 0.01498716 0.05994641 0.00993152 0.02962474 0.00300260 0.05819726 0.12739433 0.02409963 0.02868649 
0.01852316 0.04878506 0.00489564 0.00454606 0.01085816 0.00351195 0.01028544 0.01494757 0.05982363 0.01008806 0.02917052 0.00300874 0.05868096 0.12768093 0.02424995 0.02830015 
0.01859310 0.04957440 0.00490715 0.00457834 0.01062569 0.00354346 0.01028357 0.01489698 0.05964187 0.01025249 0.02874731 0.00301164 0.05908034 0.12794527 0.02439655 0.02791427 
0.01865885 0.05031864 0.00491748 0.00461403 0.01038545 0.00357106 0.01027658 0.01483562 0.05940178 0.01042427 0.02835788 0.00301132 0.05939362 0.12818329 0.02453822 0.02753153 
0.01871968 0.05101166 0.00492631 0.00465282 0.01013875 0.00359454 0.01026455 0.01476378 0.05910424 0.01060285 0.02800486 0.00300776 0.05961941 0.12839119 0.02467376 0.02715464 
0.01877494 0.05164769 0.00493336 0.00469436 0.00988688 0.00361372 0.01024755 0.01468179 0.05875041 0.01078761 0.02769064 0.00300100 0.05975675 0.12856546 0.02480211 0.02678630 
0.01882404 0.05222130 0.00493833 0.00473829 0.00963117 0.00362843 0.01022569 0.01459001 0.05834172 0.01097787 0.02741741 0.00299108 0.05980511 0.12870295 0.02492225 0.02642917 
0.01886645 0.05272747 0.00494095 0.00478424 0.00937291 0.00363853 0.01019910 0.01448884 0.05787983 0.01117294 0.02718713 0.00297805 0.05976436 0.12880086 0.02503327 0.02608593 
0.01890176 0.05316161 0.00494098 0.00483181 0.00911340 0.00364392 0.01016794 0.01437872 0.05736666 0.01137207 0.02700152 0.00296199 0.05963482 0.12885676 0.02513435 0.02575920 
0.01892961 0.05351959 0.00493818 0.00488060 0.00885390 0.00364450 0.01013238 0.01426012 0.05680436 0.01157447 0.02686204 0.00294298 0.05941722 0.12886866 0.02522480 0.02545158 
0.01894974 0.05379774 0.00493234 0.00493020 0.00859565 0.00364021 0.01009261 0.01413353 0.05619532 0.01177933 0.02676989 0.00292114 0.05911272 0.12883499 0.02530400 0.02516559 
0.01896199 0.05399291 0.00492328 0.00498020 0.00833985 0.00363102 0.01004885 0.01399949 0.05554216 0.01198584 0.02672600 0.00289658 0.05872286 0.12875462 0.02537149 0.02490371 
0.01896628 0.05410246 0.00491082 0.00503016 0.00808769 0.00361693 0.01000132 0.01385855 0.05484768 0.01219313 0.02673102 0.00286943 0.05824961 0.12862689 0.02542689 0.02466833 
0.01896262 0.05412428 0.00489483 0.00507967 0.00784027 0.00359794 0.00995028 0.01371127 0.05411490 0.01240036 0.02678532 0.00283986 0.05769531 0.12845160 0.02546997 0.02446177 
0.01895113 0.05405683 0.00487519 0.00512831 0.00759867 0.00357412 0.00989598 0.01355827 0.05334701 0.01260666 0.02688899 0.00280802 0.05706267 0.12822903 0.02550059 0.02428625 
0.01893201 0.05389911 0.00485181 0.00517566 0.00736391 0.00354554 0.00983871 0.01340016 0.05254740 0.01281116 0.02704183 0.00277409 0.05635476 0.12795994 0.02551876 0.02414389 
0.01890556 0.05365068 0.00482463 0.00522131 0.00713694 0.00351229 0.00977874 0.01323756 0.05171956 0.01301301 0.02724336 0.00273827 0.05557498 0.12764555 0.02552461 0.02403670 
0.01887217 0.05331168 0.00479362 0.00526486 0.00691865 0.00347451 0.00971638 0.01307112 0.05086718 0.01321136 0.02749282 0.00270075 0.05472706 0.12728756 0.02551836 0.02396655 
0.01883230 0.05288279 0.00475878 0.00530594 0.00670988 0.00343235 0.00965194 0.01290149 0.04999402 0.01340539 0.02778919 0.00266176 0.05381501 0.12688812 0.02550040 0.02393520 
0.01878653 0.05236528 0.00472011 0.00534415 0.00651137 0.00338600 0.00958572 0.01272933 0.04910399 0.01359428 0.02813116 0.00262151 0.05284311 0.12644983 0.02547119 0.02394426 
0.01873548 0.05176095 0.00467768 0.00537916 0.00632381 0.00333565 0.00951804 0.01255530 0.04820105 0.01377727 0.02851718 0.00258023 0.05181588 0.12597572 0.02543133 0.02399518 
0.01867988 0.05107213 0.00463156 0.00541063 0.00614781 0.00328154 0.00944922 0.01238006 0.04728925 0.01395361 0.02894544 0.00253818 0.05073807 0.12546922 0.02538151 0.02408927 
0.01862050 0.05030169 0.00458184 0.00543824 0.00598389 0.00322391 0.00937958 0.01220428 0.04637270 0.01412259 0.02941390 0.00249559 0.04961462 0.12493416 0.02532254 0.02422767 
0.01855819 0.04945301 0.00452867 0.00546171 0.00583250 0.00316303 0.00930943 0.01202861 0.04545554 0.01428357 0.02992029 0.00245272 0.04845062 0.12437471 0.02525532 0.02441134 
0.01849386 0.04852993 0.00447219 0.00548076 0.00569403 0.00309919 0.00923910 0.01185371 0.04454191 0.01443591 0.03046214 0.00240983 0.04725132 0.12379538 0.02518084 0.02464107 
0.01842846 0.04753679 0.00441259 0.00549518 0.00556875 0.00303270 0.00916889 0.01168020 0.04363597 0.01457907 0.03103678 0.00236717 0.04602206 0.12320100 0.02510016 0.02491745 
0.01836297 0.04647832 0.00435007 0.00550474 0.00545690 0.00296388 0.00909910 0.01150872 0.04274184 0.01471253 0.03164137 0.00232500 0.04476825 0.12259663 0.02501443 0.02524088 
0.01829844 0.04535970 0.00428484 0.00550927 0.00535860 0.00289306 0.00903003 0.01133988 0.04186364 0.01483585 0.03227289 0.00228360 0.04349537 0.12198760 0.02492486 0.02561159 
0.01823591 0.04418645 0.00421715 0.00550863 0.00527392 0.00282060 0.00896196 0.01117427 0.04100538 0.01494863 0.03292820 0.00224321 0.04220891 0.12137939 0.02483272 0.02602958 
0.01817646 0.04296445 0.00414727 0.00550269 0.00520284 0.00274684 0.00889515 0.01101248 0.04017105 0.01505054 0.03360404 0.00220410 0.04091436 0.12077766 0.02473933 0.02649466 
0.01812116 0.04169988 0.00407547 0.00549137 0.00514527 0.00267216 0.00882988 0.01085504 0.03936453 0.01514133 0.03429704 0.00216651 0.03961717 0.12018819 0.02464604 0.02700643 
0.01807111 0.04039918 0.00400206 0.00547463 0.00510107 0.00259693 0.00876637 0.01070250 0.03858959 0.01522079 0.03500376 0.00213070 0.03832272 0.11961681 0.02455423 0.02756427 
0.01802735 0.03906904 0.00392733 0.00545244 0.00506999 0.00252151 0.00870485 0.01055535 0.03784990 0.01528879 0.03572069 0.00209691 0.03703631 0.11906940 0.02446529 0.02816737 
0.01799096 0.03771631 0.00385160 0.00542483 0.00505175 0.00244630 0.00864553 0.01041408 0.03714897 0.01534526 0.03644428 0.00206537 0.03576313 0.11855182 0.02438065 0.02881470 
0.01796295 0.03634803 0.00377522 0.00539183 0.00504601 0.00237166 0.00858860 0.01027913 0.03649019 0.01539019 0.03717099 0.00203630 0.03450823 0.11806988 0.02430170 0.02950503 
0.01794431 0.03497131 0.00369851 0.00535353 0.00505235 0.00229797 0.00853422 0.01015093 0.03587677 0.01542366 0.03789726 0.00200991 0.03327651 0.11762928 0.02422983 0.03023691 
0.01793599 0.03359333 0.00362181 0.00531003 0.00507031 0.00222560 0.00848255 0.01002985 0.03531175 0.01544579 0.03861957 0.00198642 0.03207266 0.11723559 0.02416642 0.03100871 
0.01793889 0.03222130 0.00354548 0.00526149 0.00509939 0.00215491 0.00843370 0.00991625 0.03479799 0.01545675 0.03933444 0.00196600 0.03090121 0.11689419 0.02411279 0.03181856 
0.01795383 0.03086242 0.00346987 0.00520806 0.00513902 0.00208625 0.00838779 0.00981045 0.03433816 0.01545681 0.04003846 0.00194883 0.02976643 0.11661026 0.02407024 0.03266443 
0.01798159 0.02952380 0.00339530 0.00514995 0.00518862 0.00201998 0.00834489 0.00971274 0.03393472 0.01544625 0.04072832 0.00193507 0.02867239 0.11638870 0.02404001 0.03354410 
0.01802286 0.02821247 0.00332215 0.00508739 0.00524755 0.00195640 0.00830507 0.00962337 0.03358991 0.01542544 0.04140081 0.00192486 0.02762288 0.11623412 0.02402327 0.03445514 
0.01807825 0.02693530 0.00325073 0.00502061 0.00531516 0.00189586 0.00826836 0.00954257 0.03330577 0.01539479 0.04205285 0.00191832 0.02662144 0.11615078 0.02402114 0.03539497 
0.01814829 0.02569898 0.00318139 0.00494990 0.00539076 0.00183863 0.00823477 0.00947049 0.03308409 0.01535474 0.04268149 0.00191558 0.02567133 0.11614258 0.02403463 0.03636083 
0.01823343 0.02450997 0.00311444 0.00487555 0.00547365 0.00178500 0.00820431 0.00940730 0.03292644 0.01530580 0.04328396 0.00191671 0.02477552 0.11621304 0.02406469 0.03734983 
0.01833399 0.02337448 0.00305021 0.00479786 0.00556311 0.00173522 0.00817694 0.00935311 0.03283416 0.01524850 0.04385767 0.00192179 0.02393669 0.11636521 0.02411215 0.03835889 
0.01845024 0.02229840 0.00298899 0.00471717 0.00565840 0.00168955 0.00815260 0.00930798 0.03280833 0.01518341 0.04440020 0.00193087 0.02315722 0.11660170 0.02417776 0.03938483 
0.01858230 0.02128730 0.00293107 0.00463382 0.00575878 0.00164818 0.00813124 0.00927196 0.03284981 0.01511113 0.04490935 0.00194399 0.02243917 0.11692465 0.02426216 0.04042434 
0.01873022 0.02034641 0.00287672 0.00454817 0.00586352 0.00161132 0.00811276 0.00924504 0.03295920 0.01503228 0.04538313 0.00196115 0.02178430 0.11733568 0.02436586 0.04147400 
0.01889393 0.01948052 0.00282620 0.00446058 0.00597189 0.00157913 0.00809705 0.00922721 0.03313686 0.01494751 0.04581980 0.00198235 0.02119406 0.11783587 0.02448928 0.04253029 
0.01907326 0.01869404 0.00277974 0.00437142 0.00608314 0.00155174 0.00808398 0.00921838 0.03338291 0.01485749 0.04621781 0.00200756 0.02066958 0.11842578 0.02463267 0.04358961 
0.01926794 0.01799091 0.00273756 0.00428107 0.00619657 0.00152928 0.00807341 0.00921848 0.03369722 0.01476288 0.04657590 0.00203673 0.02021168 0.11910542 0.02479621 0.04464832 
0.01947757 0.01737462 0.00269984 0.00418990 0.00631147 0.00151181 0.00806517 0.00922737 0.03407943 0.01466436 0.04689303 0.00206979 0.01982088 0.11987423 0.02497992 0.04570269 
0.01970167 0.01684816 0.00266677 0.00409829 0.00642715 0.00149941 0.00805911 0.00924489 0.03452891 0.01456260 0.04716843 0.00210667 0.01949739 0.12073107 0.02518369 0.04674899 
0.01993967 0.01641402 0.00263849 0.00400662 0.00654296 0.00149209 0.00805502 0.00927085 0.03504485 0.01445829 0.04740158 0.00214724 0.01924112 0.12167423 0.02540728 0.04778346 
0.02019087 0.01607420 0.00261513 0.00391526 0.00665825 0.00148986 0.00805271 0.00930504 0.03562615 0.01435209 0.04759221 0.00219138 0.01905170 0.12270145 0.02565033 0.04880236 
0.02045450 0.01583012 0.00259679 0.00382456 0.00677241 0.00149269 0.00805197 0.00934720 0.03627153 0.01424465 0.04774034 0.00223895 0.01892845 0.12380989 0.02591235 0.04980193 
0.02072970 0.01568272 0.00258355 0.00373488 0.00688488 0.00150051 0.00805258 0.00939708 0.03697947 0.01413660 0.04784620 0.00228979 0.01887046 0.12499612 0.02619269 0.05077849 
0.02101552 0.01563237 0.00257545 0.00364656 0.00699509 0.00151323 0.00805432 0.00945437 0.03774824 0.01402857 0.04791030 0.00234372 0.01887651 0.12625621 0.02649061 0.05172839 
0.02131093 0.01567892 0.00257252 0.00355991 0.00710253 0.00153075 0.00805696 0.00951877 0.03857591 0.01392113 0.04793340 0.00240053 0.01894515 0.12758564 0.02680522 0.05264806 
0.02161485 0.01582167 0.00257477 0.00347525 0.00720673 0.00155293 0.00806026 0.00958992 0.03946034 0.01381485 0.04791649 0.00246002 0.01907469 0.12897942 0.02713552 0.05353402 
0.02192612 0.01605940 0.00258217 0.00339286 0.00730724 0.00157958 0.00806398 0.00966747 0.04039923 0.01371025 0.04786079 0.00252197 0.01926320 0.13043203 0.02748038 0.05438290 
0.02224352 0.01639035 0.00259466 0.00331301 0.00740366 0.00161052 0.00806790 0.00975105 0.04139008 0.01360782 0.04776777 0.00258613 0.01950854 0.13193747 0.02783858 0.05519144 
0.02256579 0.01681226 0.00261217 0.00323596 0.00749563 0.00164552 0.00807176 0.00984026 0.04243020 0.01350803 0.04763907 0.00265226 0.01980837 0.13348930 0.02820877 0.05595653 
0.02289165 0.01732238 0.00263461 0.00316192 0.00758280 0.00168436 0.00807533 0.00993469 0.04351679 0.01341128 0.04747656 0.00272009 0.02016015 0.13508067 0.02858951 0.05667523 
0.02321976 0.01791746 0.00266184 0.00309109 0.00766490 0.00172675 0.00807839 0.01003393 0.04464685 0.01331795 0.04728230 0.00278935 0.02056119 0.13670432 0.02897925 0.05734476 
0.02354876 0.01859381 0.00269373 0.00302365 0.00774167 0.00177243 0.00808070 0.01013754 0.04581728 0.01322835 0.04705851 0.00285977 0.02100862 0.13835264 0.02937639 0.05796252 
0.02387731 0.01934728 0.00273011 0.00295976 0.00781290 0.00182108 0.00808204 0.01024507 0.04702483 0.01314278 0.04680758 0.00293106 0.02149943 0.14001771 0.02977920 0.05852612 
0.02420404 0.02017333 0.00277079 0.00289952 0.00787839 0.00187239 0.00808220 0.01035608 0.04826615 0.01306148 0.04653202 0.00300292 0.02203050 0.14169132 0.03018592 0.05903339 
0.02452760 0.02106700 0.00281555 0.00284305 0.00793801 0.00192603 0.00808096 0.01047011 0.04953777 0.01298462 0.04623450 0.00307506 0.02259857 0.14336503 0.03059472 0.05948237 
0.02484663 0.02202300 0.00286419 0.00279040 0.00799163 0.00198165 0.00807815 0.01058670 0.05083614 0.01291235 0.04591776 0.00314718 0.02320031 0.14503022 0.03100369 0.05987134 
0.02515983 0.02303571 0.00291644 0.00274162 0.00803918 0.00203889 0.00807356 0.01070539 0.05215764 0.01284477 0.04558466 0.00321899 0.02383229 0.14667808 0.03141091 0.06019884 
0.02546591 0.02409919 0.00297206 0.00269673 0.00808061 0.00209738 0.00806704 0.01082570 0.05349857 0.01278193 0.04523811 0.00329018 0.02449103 0.14829974 0.03181441 0.06046365 
0.02576364 0.02520728 0.00303077 0.00265571 0.00811588 0.00215676 0.00805840 0.01094717 0.05485520 0.01272383 0.04488109 0.00336046 0.02517299 0.14988625 0.03221219 0.06066481 
0.02605182 0.02635357 0.00309228 0.00261853 0.00814500 0.00221665 0.00804752 0.01106934 0.05622373 0.01267043 0.04451658 0.00342953 0.02587460 0.15142867 0.03260225 0.06080164 
0.02632933 0.02753147 0.00315630 0.00258512 0.00816799 0.00227666 0.00803426 0.01119175 0.05760035 0.01262165 0.04414761 0.00349710 0.02659227 0.15291809 0.03298258 0.06087373 
0.02659510 0.02873424 0.00322252 0.00255540 0.00818489 0.00233643 0.00801849 0.01131393 0.05898127 0.01257736 0.04377717 0.00356289 0.02732241 0.15434569 0.03335118 0.06088092 
0.02684815 0.02995502 0.00329063 0.00252925 0.00819577 0.00239558 0.00800013 0.01143545 0.06036266 0.01253741 0.04340824 0.00362662 0.02806142 0.15570282 0.03370606 0.06082334 
0.02708756 0.03118692 0.00336031 0.00250656 0.00820070 0.00245373 0.00797907 0.01155585 0.06174072 0.01250158 0.04304375 0.00368803 0.02880575 0.15698099 0.03404526 0.06070142 
0.02731251 0.03242296 0.00343123 0.00248715 0.00819978 0.00251053 0.00795526 0.01167471 0.06311171 0.01246966 0.04268656 0.00374686 0.02955188 0.15817198 0.03436686 0.06051581 
0.02752227 0.03365622 0.00350308 0.00247087 0.00819311 0.00256561 0.00792864 0.01179160 0.06447190 0.01244136 0.04233945 0.00380287 0.03029634 0.15926785 0.03466900 0.06026748 
0.02771620 0.03487981 0.00357552 0.00245752 0.00818081 0.00261864 0.00789916 0.01190612 0.06581763 0.01241640 0.04200509 0.00385581 0.03103572 0.16026103 0.03494987 0.05995763 
0.02789377 0.03608692 0.00364823 0.00244690 0.00816299 0.00266928 0.00786683 0.01201786 0.06714534 0.01239447 0.04168603 0.00390547 0.03176670 0.16114430 0.03520773 0.05958774 
0.02805453 0.03727088 0.00372089 0.00243879 0.00813978 0.00271723 0.00783162 0.01212644 0.06845152 0.01237521 0.04138470 0.00395165 0.03248602 0.16191092 0.03544091 0.05915952 
0.02819815 0.03842518 0.00379319 0.00243296 0.00811132 0.00276218 0.00779356 0.01223151 0.06973278 0.01235826 0.04110335 0.00399415 0.03319057 0.16255460 0.03564785 0.05867494 
0.02832442 0.03954352 0.00386481 0.00242917 0.00807773 0.00280386 0.00775267 0.01233269 0.07098585 0.01234325 0.04084409 0.00403281 0.03387730 0.16306962 0.03582707 0.05813619 
0.02843321 0.04061982 0.00393545 0.00242718 0.00803914 0.00284201 0.00770901 0.01242968 0.07220760 0.01232979 0.04060882 0.00406746 0.03454331 0.16345078 0.03597721 0.05754569 
0.02852451 0.04164830 0.00400482 0.00242672 0.00799568 0.00287640 0.00766263 0.01252215 0.07339500 0.01231749 0.04039928 0.00409797 0.03518583 0.16369353 0.03609703 0.05690605 
0.02859842 0.04262346 0.00407264 0.00242755 0.00794748 0.00290681 0.00761362 0.01260981 0.07454521 0.01230592 0.04021697 0.00412422 0.03580223 0.16379395 0.03618540 0.05622008 
0.02865513 0.04354016 0.00413863 0.00242940 0.00789466 0.00293306 0.00756207 0.01269238 0.07565556 0.01229470 0.04006320 0.00414612 0.03639002 0.16374879 0.03624133 0.05549078 
0.02869495 0.04439361 0.00420256 0.00243202 0.00783733 0.00295499 0.00750809 0.01276963 0.07672352 0.01228342 0.03993905 0.00416357 0.03694687 0.16355553 0.03626396 0.05472130 
0.02871828 0.04517941 0.00426417 0.00243515 0.00777562 0.00297247 0.00745180 0.01284133 0.07774679 0.01227167 0.03984536 0.00417652 0.03747062 0.16321239 0.03625261 0.05391492 
0.02872561 0.04589360 0.00432324 0.00243854 0.00770963 0.00298539 0.00739333 0.01290727 0.07872326 0.01225906 0.03978274 0.00418493 0.03795928 0.16271832 0.03620671 0.05307508 
0.02871753 0.04653264 0.00437956 0.00244194 0.00763945 0.00299367 0.00733284 0.01296727 0.07965100 0.01224521 0.03975158 0.00418879 0.03841102 0.16207309 0.03612586 0.05220530 
0.02869470 0.04709348 0.00443296 0.00244512 0.00756519 0.00299728 0.00727049 0.01302119 0.08052833 0.01222975 0.03975199 0.00418808 0.03882422 0.16127725 0.03600985 0.05130921 
0.02865788 0.04757351 0.00448325 0.00244785 0.00748693 0.00299618 0.00720644 0.01306889 0.08135378 0.01221232 0.03978385 0.00418283 0.03919742 0.16033218 0.03585860 0.05039050 
0.02860789 0.04797065 0.00453030 0.00244992 0.00740475 0.00299040 0.00714088 0.01311029 0.08212613 0.01219260 0.03984682 0.00417307 0.03952936 0.15924007 0.03567221 0.04945293 
0.02854562 0.04828329 0.00457396 0.00245114 0.00731874 0.00297996 0.00707399 0.01314530 0.08284439 0.01217027 0.03994029 0.00415888 0.03981896 0.15800392 0.03545097 0.04850027 
0.02847203 0.04851038 0.00461414 0.00245130 0.00722897 0.00296494 0.00700597 0.01317388 0.08350780 0.01214503 0.04006343 0.00414033 0.04006536 0.15662760 0.03519532 0.04753632 
0.02838810 0.04865137 0.00465074 0.00245025 0.00713552 0.00294543 0.00693704 0.01319602 0.08411588 0.01211663 0.04021517 0.00411751 0.04026786 0.15511575 0.03490589 0.04656488 
0.02829488 0.04870621 0.00468370 0.00244783 0.00703845 0.00292157 0.00686739 0.01321174 0.08466839 0.01208482 0.04039422 0.00409055 0.04042599 0.15347385 0.03458347 0.04558973 
0.02819346 0.04867542 0.00471297 0.00244392 0.00693785 0.00289349 0.00679725 0.01322106 0.08516535 0.01204940 0.04059906 0.00405956 0.04053944 0.15170819 0.03422904 0.04461459 
0.02808495 0.04856003 0.00473852 0.00243839 0.00683379 0.00286138 0.00672684 0.01322407 0.08560702 0.01201019 0.04082800 0.00402472 0.04060813 0.14982580 0.03384374 0.04364313 
0.02797046 0.04836157 0.00476036 0.00243116 0.00672635 0.00282543 0.00665637 0.01322086 0.08599396 0.01196703 0.04107913 0.00398617 0.04063215 0.14783451 0.03342889 0.04267896 
0.02785114 0.04808210 0.00477849 0.00242215 0.00661562 0.00278587 0.00658609 0.01321157 0.08632695 0.01191982 0.04135035 0.00394411 0.04061178 0.14574284 0.03298595 0.04172558 
0.02772812 0.04772417 0.00479296 0.00241131 0.00650169 0.00274295 0.00651621 0.01319635 0.08660705 0.01186845 0.04163941 0.00389872 0.04054750 0.14356003 0.03251658 0.04078638 
0.02760254 0.04729083 0.00480382 0.00239862 0.00638466 0.00269692 0.00644696 0.01317538 0.08683556 0.01181289 0.04194392 0.00385021 0.04043997 0.14129596 0.03202257 0.03986465 
0.02747551 0.04678557 0.00481114 0.00238407 0.00626465 0.00264808 0.00637857 0.01314890 0.08701404 0.01175311 0.04226132 0.00379882 0.04029002 0.13896114 0.03150586 0.03896351 
0.02734814 0.04621237 0.00481502 0.00236767 0.00614179 0.00259673 0.00631127 0.01311714 0.08714430 0.01168912 0.04258896 0.00374475 0.04009866 0.13656665 0.03096854 0.03808596 
0.02722148 0.04557560 0.00481556 0.00234946 0.00601623 0.00254317 0.00624528 0.01308038 0.08722836 0.01162096 0.04292409 0.00368827 0.03986707 0.13412409 0.03041283 0.03723482 
0.02709657 0.04488005 0.00481289 0.00232950 0.00588812 0.00248775 0.00618082 0.01303891 0.08726852 0.01154872 0.04326386 0.00362961 0.03959659 0.13164550 0.02984107 0.03641273 
0.02697438 0.04413089 0.00480715 0.00230787 0.00575767 0.00243078 0.00611810 0.01299308 0.08726725 0.01147250 0.04360537 0.00356903 0.03928872 0.12914336 0.02925573 0.03562217 
0.02685584 0.04333363 0.00479849 0.00228466 0.00562507 0.00237262 0.00605735 0.01294324 0.08722726 0.01139244 0.04394570 0.00350680 0.03894510 0.12663049 0.02865936 0.03486540 
0.02674184 0.04249410 0.00478708 0.00225999 0.00549056 0.00231363 0.00599876 0.01288976 0.08715147 0.01130871 0.04428188 0.00344319 0.03856752 0.12411998 0.02805464 0.03414450 
0.02663316 0.04161843 0.00477311 0.00223400 0.00535439 0.00225415 0.00594253 0.01283305 0.08704297 0.01122150 0.04461095 0.00337846 0.03815790 0.12162513 0.02744430 0.03346134 
0.02653056 0.04071296 0.00475674 0.00220684 0.00521684 0.00219455 0.00588887 0.01277355 0.08690502 0.01113103 0.04492999 0.00331288 0.03771826 0.11915941 0.02683114 0.03281757 
0.02643469 0.03978429 0.00473820 0.00217869 0.00507825 0.00213517 0.00583796 0.01271170 0.08674105 0.01103755 0.04523610 0.00324674 0.03725077 0.11673632 0.02621804 0.03221463 
0.02634615 0.03883917 0.00471767 0.00214971 0.00493893 0.00207638 0.00578997 0.01264799 0.08655466 0.01094134 0.04552647 0.00318031 0.03675767 0.11436939 0.02560789 0.03165373 
0.02626544 0.03788450 0.00469536 0.00212011 0.00479928 0.00201851 0.00574508 0.01258289 0.08634952 0.01084269 0.04579835 0.00311387 0.03624133 0.11207205 0.02500362 0.03113587 
0.02619298 0.03692726 0.00467150 0.00209009 0.00465969 0.00196192 0.00570345 0.01251693 0.08612947 0.01074191 0.04604912 0.00304768 0.03570415 0.10985758 0.02440819 0.03066183 
0.02612910 0.03597452 0.00464630 0.00205987 0.00452061 0.00190692 0.00566524 0.01245064 0.08589841 0.01063934 0.04627627 0.00298201 0.03514866 0.10773902 0.02382453 0.03023215 
0.02607406 0.03503333 0.00461997 0.00202968 0.00438251 0.00185384 0.00563058 0.01238454 0.08566032 0.01053534 0.04647744 0.00291712 0.03457742 0.10572909 0.02325556 0.02984718 
0.02602800 0.03411075 0.00459274 0.00199974 0.00424588 0.00180298 0.00559962 0.01231921 0.08541922 0.01043026 0.04665044 0.00285328 0.03399304 0.10384013 0.02270416 0.02950701 
0.02599099 0.03321377 0.00456483 0.00197029 0.00411127 0.00175463 0.00557248 0.01225520 0.08517918 0.01032449 0.04679325 0.00279073 0.03339817 0.10208400 0.02217317 0.02921156 
0.02596301 0.03234926 0.00453644 0.00194157 0.00397923 0.00170907 0.00554928 0.01219309 0.08494427 0.01021843 0.04690406 0.00272973 0.03279549 0.10047202 0.02166537 0.02896051 
0.02594396 0.03152396 0.00450780 0.00191382 0.00385037 0.00166654 0.00553012 0.01213346 0.08471855 0.01011247 0.04698126 0.00267050 0.03218771 0.09901488 0.02118343 0.02875335 
0.02593363 0.03074442 0.00447910 0.00188726 0.00372530 0.00162727 0.00551510 0.01207689 0.08450605 0.01000703 0.04702347 0.00261326 0.03157752 0.09772259 0.02072994 0.02858935 
0.02593175 0.03001696 0.00445054 0.00186215 0.00360468 0.00159148 0.00550430 0.01202397 0.08431073 0.00990253 0.04702955 0.00255824 0.03096761 0.09660439 0.02030738 0.02846762 
0.02593794 0.02934765 0.00442232 0.00183869 0.00348917 0.00155935 0.00549780 0.01197528 0.08413648 0.00979939 0.04699861 0.00250565 0.03036066 0.09566868 0.01991810 0.02838706 
0.02595177 0.02874225 0.00439461 0.00181712 0.00337949 0.00153104 0.00549567 0.01193140 0.08398708 0.00969803 0.04693000 0.00245566 0.02975931 0.09492300 0.01956430 0.02834640 
0.02597272 0.02820619 0.00436758 0.00179765 0.00327633 0.00150669 0.00549796 0.01189291 0.08386618 0.00959889 0.04682336 0.00240848 0.02916616 0.09437391 0.01924802 0.02834421 
0.02600021 0.02774454 0.00434140 0.00178048 0.00318044 0.00148642 0.00550471 0.01186036 0.08377730 0.00950238 0.04667859 0.00236425 0.02858376 0.09402697 0.01897113 0.02837890 
0.02603358 0.02736196 0.00431621 0.00176580 0.00309256 0.00147031 0.00551596 0.01183433 0.08372376 0.00940894 0.04649587 0.00232315 0.02801458 0.09388669 0.01873534 0.02844872 
0.02607211 0.02706268 0.00429214 0.00175379 0.00301344 0.00145840 0.00553174 0.01181533 0.08370870 0.00931898 0.04627563 0.00228531 0.02746105 0.09395650 0.01854214 0.02855181 
0.02611505 0.02685048 0.00426932 0.00174461 0.00294386 0.00145075 0.00555205 0.01180389 0.08373505 0.00923292 0.04601862 0.00225086 0.02692546 0.09423867 0.01839282 0.02868617 
0.02616156 0.02672865 0.00424784 0.00173840 0.00288456 0.00144734 0.00557692 0.01180051 0.08380548 0.00915116 0.04572583 0.00221991 0.02641007 0.09473431 0.01828845 0.02884967 
0.02621080 0.02669998 0.00422781 0.00173529 0.00283631 0.00144816 0.00560633 0.01180567 0.08392242 0.00907411 0.04539853 0.00219257 0.02591697 0.09544334 0.01822989 0.02904011 
