0.00919414 0.01037915 0.00323536 0.00150223 0.00494395 0.00126492 0.00664127 0.00383954 0.01799968 0.00347150 0.01722502 0.00214273 0.01180344 0.07016338 0.02119802 0.00305173 
0.00914003 0.01066869 0.00328912 0.00149757 0.00489255 0.00124848 0.00670071 0.00380207 0.01796047 0.00346058 0.01703993 0.00215952 0.01196242 0.07069946 0.02143683 0.00312168 
0.00909086 0.01096555 0.00334763 0.00149377 0.00484177 0.00123336 0.00676489 0.00376298 0.01790750 0.00344863 0.01685644 0.00217501 0.01211865 0.07121932 0.02167597 0.00318827 
0.00904636 0.01126895 0.00341062 0.00149068 0.00479170 0.00121955 0.00683328 0.00372245 0.01784146 0.00343560 0.01667524 0.00218916 0.01227256 0.07172281 0.02191501 0.00325128 
0.00900619 0.01157807 0.00347781 0.00148820 0.00474241 0.00120699 0.00690537 0.00368066 0.01776316 0.00342147 0.01649704 0.00220195 0.01242460 0.07220973 0.02215349 0.00331054 
0.00897002 0.01189205 0.00354890 0.00148618 0.00469398 0.00119565 0.00698067 0.00363777 0.01767349 0.00340622 0.01632249 0.00221334 0.01257527 0.07267989 0.02239087 0.00336587 
0.00893747 0.01221002 0.00362357 0.00148449 0.00464651 0.00118549 0.00705871 0.00359399 0.01757342 0.00338981 0.01615224 0.00222331 0.01272512 0.07313304 0.02262661 0.00341714 
0.00890816 0.01253106 0.00370150 0.00148301 0.00460008 0.00117643 0.00713906 0.00354948 0.01746402 0.00337226 0.01598689 0.00223184 0.01287469 0.07356890 0.02286010 0.00346425 
0.00888167 0.01285424 0.00378234 0.00148160 0.00455477 0.00116843 0.00722133 0.00350445 0.01734642 0.00335354 0.01582702 0.00223892 0.01302459 0.07398716 0.02309071 0.00350712 
0.00885761 0.01317859 0.00386575 0.00148014 0.00451067 0.00116142 0.00730513 0.00345908 0.01722181 0.00333367 0.01567316 0.00224454 0.01317543 0.07438747 0.02331779 0.00354571 
0.00883555 0.01350316 0.00395136 0.00147850 0.00446787 0.00115532 0.00739011 0.00341356 0.01709143 0.00331265 0.01552580 0.00224870 0.01332784 0.07476947 0.02354062 0.00358003 
0.00881508 0.01382695 0.00403882 0.00147656 0.00442643 0.00115008 0.00747597 0.00336807 0.01695656 0.00329051 0.01538539 0.00225141 0.01348246 0.07513272 0.02375848 0.00361010 
0.00879578 0.01414896 0.00412777 0.00147421 0.00438644 0.00114561 0.00756239 0.00332282 0.01681851 0.00326727 0.01525234 0.00225266 0.01363993 0.07547678 0.02397063 0.00363602 
0.00877725 0.01446819 0.00421783 0.00147135 0.00434796 0.00114184 0.00764911 0.00327797 0.01667862 0.00324298 0.01512699 0.00225248 0.01380089 0.07580116 0.02417630 0.00365789 
0.00875911 0.01478364 0.00430864 0.00146787 0.00431106 0.00113871 0.00773590 0.00323371 0.01653824 0.00321766 0.01500964 0.00225089 0.01396599 0.07610534 0.02437470 0.00367589 
0.00874097 0.01509431 0.00439984 0.00146370 0.00427578 0.00113613 0.00782253 0.00319022 0.01639871 0.00319138 0.01490055 0.00224792 0.01413584 0.07638874 0.02456502 0.00369021 
0.00872249 0.01539920 0.00449108 0.00145875 0.00424217 0.00113403 0.00790880 0.00314767 0.01626136 0.00316421 0.01479989 0.00224359 0.01431104 0.07665078 0.02474647 0.00370111 
0.00870334 0.01569732 0.00458202 0.00145296 0.00421028 0.00113235 0.00799453 0.00310623 0.01612750 0.00313620 0.01470782 0.00223794 0.01449218 0.07689084 0.02491823 0.00370889 
0.00868322 0.01598772 0.00467231 0.00144628 0.00418011 0.00113103 0.00807955 0.00306605 0.01599843 0.00310744 0.01462442 0.00223102 0.01467980 0.07710824 0.02507948 0.00371388 
0.00866188 0.01626944 0.00476163 0.00143868 0.00415170 0.00113000 0.00816372 0.00302730 0.01587537 0.00307802 0.01454971 0.00222287 0.01487440 0.07730232 0.02522942 0.00371648 
0.00863909 0.01654156 0.00484966 0.00143012 0.00412505 0.00112920 0.00824690 0.00299011 0.01575952 0.00304803 0.01448366 0.00221354 0.01507645 0.07747235 0.02536725 0.00371711 
0.00861466 0.01680319 0.00493611 0.00142060 0.00410014 0.00112859 0.00832896 0.00295463 0.01565202 0.00301757 0.01442621 0.00220309 0.01528636 0.07761760 0.02549219 0.00371624 
0.00858844 0.01705346 0.00502070 0.00141012 0.00407698 0.00112812 0.00840979 0.00292097 0.01555393 0.00298676 0.01437722 0.00219157 0.01550450 0.07773731 0.02560348 0.00371439 
0.00856034 0.01729154 0.00510316 0.00139872 0.00405553 0.00112775 0.00848925 0.00288927 0.01546625 0.00295572 0.01433650 0.00217905 0.01573117 0.07783071 0.02570036 0.00371213 
0.00853031 0.01751665 0.00518324 0.00138641 0.00403576 0.00112747 0.00856726 0.00285964 0.01538988 0.00292456 0.01430384 0.00216559 0.01596659 0.07789701 0.02578214 0.00371005 
0.00849834 0.01772804 0.00526072 0.00137326 0.00401761 0.00112724 0.00864368 0.00283216 0.01532567 0.00289343 0.01427895 0.00215126 0.01621094 0.07793542 0.02584812 0.00370878 
0.00846447 0.01792502 0.00533540 0.00135934 0.00400104 0.00112705 0.00871842 0.00280693 0.01527433 0.00286245 0.01426151 0.00213614 0.01646432 0.07794512 0.02589768 0.00370899 
0.00842881 0.01810693 0.00540708 0.00134473 0.00398597 0.00112691 0.00879135 0.00278403 0.01523650 0.00283178 0.01425118 0.00212028 0.01672673 0.07792532 0.02593020 0.00371138 
0.00839149 0.01827319 0.00547561 0.00132954 0.00397234 0.00112681 0.00886236 0.00276353 0.01521273 0.00280155 0.01424756 0.00210378 0.01699812 0.07787522 0.02594513 0.00371669 
0.00835272 0.01842325 0.00554084 0.00131388 0.00396005 0.00112678 0.00893131 0.00274548 0.01520344 0.00277192 0.01425022 0.00208669 0.01727835 0.07779401 0.02594198 0.00372568 
0.00831274 0.01855663 0.00560266 0.00129788 0.00394902 0.00112683 0.00899808 0.00272993 0.01520896 0.00274305 0.01425871 0.00206910 0.01756718 0.07768092 0.02592027 0.00373911 
0.00827185 0.01867291 0.00566097 0.00128170 0.00393914 0.00112701 0.00906253 0.00271691 0.01522951 0.00271507 0.01427253 0.00205108 0.01786429 0.07753520 0.02587964 0.00375779 
0.00823039 0.01877172 0.00571570 0.00126548 0.00393030 0.00112735 0.00912449 0.00270644 0.01526521 0.00268816 0.01429120 0.00203271 0.01816929 0.07735610 0.02581972 0.00378252 
0.00818875 0.01885275 0.00576681 0.00124940 0.00392240 0.00112792 0.00918383 0.00269853 0.01531605 0.00266247 0.01431419 0.00201406 0.01848169 0.07714294 0.02574027 0.00381414 
0.00814738 0.01891577 0.00581425 0.00123366 0.00391531 0.00112877 0.00924036 0.00269319 0.01538196 0.00263815 0.01434096 0.00199519 0.01880089 0.07689504 0.02564107 0.00385345 
0.00810675 0.01896061 0.00585804 0.00121843 0.00390891 0.00112998 0.00929390 0.00269040 0.01546271 0.00261537 0.01437097 0.00197619 0.01912625 0.07661178 0.02552198 0.00390129 
0.00806737 0.01898715 0.00589818 0.00120393 0.00390308 0.00113162 0.00934428 0.00269015 0.01555802 0.00259427 0.01440368 0.00195712 0.01945700 0.07629262 0.02538295 0.00395847 
0.00802980 0.01899535 0.00593472 0.00119037 0.00389768 0.00113379 0.00939130 0.00269240 0.01566750 0.00257499 0.01443852 0.00193805 0.01979231 0.07593704 0.02522398 0.00402580 
0.00799462 0.01898521 0.00596771 0.00117797 0.00389259 0.00113659 0.00943474 0.00269710 0.01579065 0.00255770 0.01447496 0.00191904 0.02013126 0.07554460 0.02504514 0.00410408 
0.00796243 0.01895682 0.00599722 0.00116695 0.00388766 0.00114011 0.00947442 0.00270421 0.01592692 0.00254252 0.01451244 0.00190015 0.02047287 0.07511496 0.02484660 0.00419407 
0.00793388 0.01891032 0.00602336 0.00115755 0.00388278 0.00114446 0.00951010 0.00271367 0.01607565 0.00252959 0.01455045 0.00188144 0.02081605 0.07464783 0.02462859 0.00429652 
0.00790962 0.01884589 0.00604623 0.00114999 0.00387780 0.00114976 0.00954159 0.00272540 0.01623614 0.00251904 0.01458846 0.00186296 0.02115968 0.07414304 0.02439142 0.00441214 
0.00789030 0.01876381 0.00606596 0.00114451 0.00387260 0.00115614 0.00956866 0.00273932 0.01640759 0.00251097 0.01462597 0.00184477 0.02150256 0.07360050 0.02413548 0.00454161 
0.00787660 0.01866439 0.00608270 0.00114134 0.00386705 0.00116370 0.00959109 0.00275536 0.01658917 0.00250550 0.01466251 0.00182690 0.02184342 0.07302024 0.02386122 0.00468555 
0.00786920 0.01854799 0.00609659 0.00114072 0.00386103 0.00117259 0.00960868 0.00277341 0.01677999 0.00250273 0.01469761 0.00180940 0.02218095 0.07240241 0.02356919 0.00484455 
0.00786876 0.01841504 0.00610780 0.00114285 0.00385441 0.00118292 0.00962122 0.00279338 0.01697913 0.00250274 0.01473085 0.00179230 0.02251380 0.07174728 0.02326000 0.00501914 
0.00787596 0.01826600 0.00611652 0.00114798 0.00384709 0.00119483 0.00962852 0.00281516 0.01718564 0.00250561 0.01476182 0.00177564 0.02284058 0.07105525 0.02293433 0.00520978 
0.00789142 0.01810140 0.00612292 0.00115630 0.00383894 0.00120843 0.00963037 0.00283862 0.01739852 0.00251140 0.01479015 0.00175945 0.02315986 0.07032688 0.02259296 0.00541689 
0.00791579 0.01792180 0.00612720 0.00116802 0.00382988 0.00122387 0.00962662 0.00286367 0.01761680 0.00252015 0.01481550 0.00174374 0.02347019 0.06956285 0.02223670 0.00564080 
0.00794965 0.01772780 0.00612955 0.00118334 0.00381979 0.00124126 0.00961711 0.00289017 0.01783947 0.00253191 0.01483756 0.00172853 0.02377014 0.06876403 0.02186647 0.00588178 
0.00799359 0.01752005 0.00613017 0.00120243 0.00380859 0.00126072 0.00960168 0.00291799 0.01806554 0.00254669 0.01485605 0.00171385 0.02405823 0.06793142 0.02148321 0.00614002 
0.00804811 0.01729921 0.00612927 0.00122546 0.00379620 0.00128237 0.00958024 0.00294701 0.01829404 0.00256449 0.01487075 0.00169969 0.02433301 0.06706621 0.02108798 0.00641563 
0.00811372 0.01706600 0.00612706 0.00125258 0.00378255 0.00130631 0.00955267 0.00297709 0.01852400 0.00258531 0.01488145 0.00168607 0.02459305 0.06616976 0.02068184 0.00670864 
0.00819084 0.01682115 0.00612372 0.00128393 0.00376757 0.00133265 0.00951891 0.00300810 0.01875451 0.00260912 0.01488798 0.00167297 0.02483695 0.06524361 0.02026595 0.00701898 
0.00827984 0.01656542 0.00611947 0.00131962 0.00375120 0.00136147 0.00947891 0.00303991 0.01898466 0.00263588 0.01489020 0.00166041 0.02506331 0.06428948 0.01984150 0.00734651 
0.00838107 0.01629959 0.00611449 0.00135975 0.00373341 0.00139287 0.00943267 0.00307236 0.01921362 0.00266554 0.01488804 0.00164836 0.02527083 0.06330928 0.01940974 0.00769100 
0.00849475 0.01602446 0.00610898 0.00140439 0.00371415 0.00142691 0.00938020 0.00310534 0.01944058 0.00269801 0.01488142 0.00163682 0.02545823 0.06230511 0.01897196 0.00805210 
0.00862109 0.01574085 0.00610311 0.00145361 0.00369340 0.00146366 0.00932154 0.00313869 0.01966483 0.00273321 0.01487032 0.00162577 0.02562431 0.06127925 0.01852950 0.00842940 
0.00876021 0.01544956 0.00609707 0.00150744 0.00367114 0.00150315 0.00925679 0.00317228 0.01988567 0.00277103 0.01485475 0.00161519 0.02576794 0.06023418 0.01808371 0.00882239 
0.00891212 0.01515144 0.00609101 0.00156589 0.00364737 0.00154544 0.00918606 0.00320598 0.02010251 0.00281135 0.01483474 0.00160507 0.02588808 0.05917256 0.01763599 0.00923045 
0.00907681 0.01484732 0.00608509 0.00162894 0.00362210 0.00159053 0.00910951 0.00323965 0.02031482 0.00285404 0.01481037 0.00159536 0.02598380 0.05809724 0.01718776 0.00965287 
0.00925414 0.01453804 0.00607944 0.00169657 0.00359534 0.00163843 0.00902733 0.00327316 0.02052212 0.00289894 0.01478171 0.00158606 0.02605425 0.05701126 0.01674047 0.01008888 
0.00944391 0.01422442 0.00607418 0.00176871 0.00356712 0.00168913 0.00893974 0.00330639 0.02072405 0.00294590 0.01474890 0.00157712 0.02609871 0.05591782 0.01629557 0.01053758 
0.00964583 0.01390731 0.00606944 0.00184528 0.00353748 0.00174261 0.00884701 0.00333920 0.02092030 0.00299473 0.01471209 0.00156852 0.02611660 0.05482030 0.01585452 0.01099800 
0.00985953 0.01358751 0.00606530 0.00192618 0.00350647 0.00179881 0.00874943 0.00337147 0.02111065 0.00304525 0.01467143 0.00156021 0.02610743 0.05372225 0.01541879 0.01146908 
0.01008454 0.01326586 0.00606185 0.00201126 0.00347415 0.00185769 0.00864734 0.00340310 0.02129495 0.00309725 0.01462711 0.00155218 0.02607088 0.05262735 0.01498984 0.01194969 
0.01032034 0.01294314 0.00605913 0.00210039 0.00344059 0.00191915 0.00854111 0.00343396 0.02147315 0.00315052 0.01457933 0.00154438 0.02600676 0.05153945 0.01456913 0.01243861 
0.01056627 0.01262014 0.00605721 0.00219338 0.00340587 0.00198310 0.00843113 0.00346394 0.02164526 0.00320485 0.01452832 0.00153677 0.02591505 0.05046250 0.01415810 0.01293456 
0.01082165 0.01229764 0.00605609 0.00229002 0.00337010 0.00204943 0.00831782 0.00349295 0.02181136 0.00326000 0.01447430 0.00152932 0.02579585 0.04940059 0.01375817 0.01343617 
0.01108567 0.01197638 0.00605580 0.00239011 0.00333336 0.00211800 0.00820165 0.00352088 0.02197162 0.00331575 0.01441750 0.00152200 0.02564946 0.04835790 0.01337073 0.01394201 
0.01135747 0.01165709 0.00605631 0.00249339 0.00329579 0.00218867 0.00808310 0.00354765 0.02212627 0.00337184 0.01435819 0.00151476 0.02547631 0.04733871 0.01299714 0.01445062 
0.01163612 0.01134049 0.00605760 0.00259962 0.00325749 0.00226127 0.00796267 0.00357317 0.02227560 0.00342803 0.01429660 0.00150757 0.02527702 0.04634734 0.01263873 0.01496046 
0.01192061 0.01102726 0.00605962 0.00270850 0.00321862 0.00233561 0.00784089 0.00359735 0.02241996 0.00348408 0.01423299 0.00150040 0.02505236 0.04538818 0.01229677 0.01546994 
0.01220987 0.01071806 0.00606230 0.00281974 0.00317931 0.00241150 0.00771830 0.00362013 0.02255975 0.00353973 0.01416761 0.00149321 0.02480326 0.04446564 0.01197248 0.01597746 
0.01250277 0.01041354 0.00606556 0.00293304 0.00313972 0.00248871 0.00759546 0.00364144 0.02269543 0.00359474 0.01410073 0.00148597 0.02453084 0.04358416 0.01166706 0.01648136 
0.01279813 0.01011429 0.00606929 0.00304806 0.00310001 0.00256703 0.00747294 0.00366122 0.02282748 0.00364886 0.01403259 0.00147864 0.02423637 0.04274813 0.01138160 0.01697996 
0.01309474 0.00982090 0.00607337 0.00316447 0.00306035 0.00264620 0.00735132 0.00367941 0.02295642 0.00370184 0.01396343 0.00147121 0.02392127 0.04196193 0.01111715 0.01747158 
0.01339132 0.00953393 0.00607768 0.00328193 0.00302094 0.00272598 0.00723117 0.00369597 0.02308279 0.00375344 0.01389350 0.00146365 0.02358713 0.04122988 0.01087469 0.01795451 
0.01368658 0.00925389 0.00608206 0.00340007 0.00298195 0.00280608 0.00711307 0.00371087 0.02320716 0.00380343 0.01382303 0.00145592 0.02323568 0.04055620 0.01065513 0.01842704 
0.01397921 0.00898130 0.00608635 0.00351853 0.00294359 0.00288624 0.00699761 0.00372406 0.02333007 0.00385157 0.01375224 0.00144801 0.02286881 0.03994503 0.01045928 0.01888748 
0.01426787 0.00871662 0.00609036 0.00363696 0.00290607 0.00296617 0.00688535 0.00373553 0.02345211 0.00389766 0.01368134 0.00143990 0.02248852 0.03940036 0.01028788 0.01933413 
0.01455123 0.00846027 0.00609393 0.00375498 0.00286959 0.00304557 0.00677686 0.00374526 0.02357383 0.00394148 0.01361053 0.00143156 0.02209696 0.03892602 0.01014159 0.01976534 
0.01482794 0.00821269 0.00609684 0.00387222 0.00283438 0.00312415 0.00667267 0.00375323 0.02369576 0.00398283 0.01354001 0.00142300 0.02169639 0.03852568 0.01002096 0.02017946 
0.01509669 0.00797423 0.00609889 0.00398832 0.00280065 0.00320159 0.00657332 0.00375945 0.02381842 0.00402153 0.01346995 0.00141419 0.02128917 0.03820279 0.00992646 0.02057488 
0.01535616 0.00774525 0.00609987 0.00410292 0.00276865 0.00327760 0.00647932 0.00376391 0.02394230 0.00405740 0.01340050 0.00140512 0.02087776 0.03796058 0.00985846 0.02095006 
0.01560507 0.00752607 0.00609956 0.00421565 0.00273860 0.00335187 0.00639114 0.00376664 0.02406783 0.00409029 0.01333184 0.00139580 0.02046469 0.03780202 0.00981724 0.02130348 
0.01584219 0.00731699 0.00609774 0.00432617 0.00271074 0.00342409 0.00630925 0.00376764 0.02419540 0.00412005 0.01326408 0.00138622 0.02005258 0.03772981 0.00980297 0.02163368 
0.01606631 0.00711825 0.00609420 0.00443415 0.00268532 0.00349395 0.00623407 0.00376694 0.02432535 0.00414657 0.01319737 0.00137637 0.01964408 0.03774637 0.00981570 0.02193929 
0.01627629 0.00693009 0.00608871 0.00453925 0.00266258 0.00356116 0.00616600 0.00376457 0.02445795 0.00416973 0.01313181 0.00136626 0.01924190 0.03785377 0.00985542 0.02221898 
0.01647106 0.00675273 0.00608104 0.00464117 0.00264276 0.00362542 0.00610538 0.00376057 0.02459343 0.00418943 0.01306750 0.00135590 0.01884874 0.03805378 0.00992198 0.02247152 
0.01664960 0.00658631 0.00607100 0.00473961 0.00262611 0.00368645 0.00605255 0.00375499 0.02473190 0.00420562 0.01300454 0.00134530 0.01846734 0.03834778 0.01001513 0.02269575 
0.01681098 0.00643101 0.00605837 0.00483429 0.00261287 0.00374398 0.00600779 0.00374786 0.02487344 0.00421822 0.01294300 0.00133446 0.01810040 0.03873680 0.01013454 0.02289060 
0.01695435 0.00628692 0.00604296 0.00492496 0.00260329 0.00379774 0.00597134 0.00373926 0.02501802 0.00422722 0.01288297 0.00132339 0.01775062 0.03922148 0.01027976 0.02305510 
0.01707896 0.00615415 0.00602457 0.00501137 0.00259761 0.00384748 0.00594339 0.00372924 0.02516554 0.00423258 0.01282450 0.00131212 0.01742063 0.03980205 0.01045023 0.02318836 
0.01718415 0.00603276 0.00600303 0.00509331 0.00259605 0.00389296 0.00592411 0.00371787 0.02531581 0.00423432 0.01276764 0.00130067 0.01711301 0.04047834 0.01064530 0.02328961 
0.01726936 0.00592277 0.00597819 0.00517059 0.00259886 0.00393398 0.00591361 0.00370521 0.02546856 0.00423245 0.01271246 0.00128904 0.01683026 0.04124974 0.01086422 0.02335819 
0.01733414 0.00582421 0.00594990 0.00524303 0.00260626 0.00397033 0.00591196 0.00369136 0.02562343 0.00422702 0.01265898 0.00127727 0.01657477 0.04211523 0.01110615 0.02339353 
0.01737817 0.00573704 0.00591803 0.00531050 0.00261847 0.00400183 0.00591918 0.00367639 0.02577997 0.00421808 0.01260727 0.00126537 0.01634883 0.04307334 0.01137015 0.02339520 
0.01740121 0.00566124 0.00588247 0.00537288 0.00263569 0.00402832 0.00593526 0.00366040 0.02593764 0.00420571 0.01255735 0.00125338 0.01615459 0.04412215 0.01165519 0.02336284 
0.01740318 0.00559672 0.00584316 0.00543007 0.00265813 0.00404967 0.00596012 0.00364346 0.02609584 0.00419000 0.01250927 0.00124132 0.01599406 0.04525931 0.01196016 0.02329625 
0.01738408 0.00554339 0.00580001 0.00548201 0.00268596 0.00406575 0.00599368 0.00362568 0.02625388 0.00417106 0.01246307 0.00122921 0.01586910 0.04648203 0.01228385 0.02319534 
0.01734406 0.00550113 0.00575300 0.00552867 0.00271937 0.00407649 0.00603578 0.00360717 0.02641098 0.00414902 0.01241878 0.00121709 0.01578135 0.04778708 0.01262500 0.02306012 
0.01728338 0.00546980 0.00570211 0.00557002 0.00275852 0.00408182 0.00608623 0.00358801 0.02656631 0.00412401 0.01237647 0.00120498 0.01573232 0.04917080 0.01298225 0.02289074 
0.01720242 0.00544922 0.00564736 0.00560610 0.00280355 0.00408169 0.00614482 0.00356833 0.02671897 0.00409619 0.01233617 0.00119293 0.01572326 0.05062910 0.01335418 0.02268747 
0.01710167 0.00543921 0.00558878 0.00563693 0.00285459 0.00407609 0.00621127 0.00354823 0.02686800 0.00406571 0.01229795 0.00118094 0.01575526 0.05215747 0.01373932 0.02245068 
0.01698177 0.00543953 0.00552645 0.00566260 0.00291175 0.00406503 0.00628529 0.00352783 0.02701241 0.00403277 0.01226187 0.00116907 0.01582914 0.05375102 0.01413614 0.02218088 
0.01684343 0.00544996 0.00546046 0.00568318 0.00297512 0.00404856 0.00636654 0.00350723 0.02715113 0.00399755 0.01222801 0.00115734 0.01594551 0.05540445 0.01454303 0.02187870 
0.01668750 0.00547022 0.00539094 0.00569880 0.00304477 0.00402674 0.00645467 0.00348656 0.02728310 0.00396024 0.01219644 0.00114578 0.01610473 0.05711210 0.01495836 0.02154487 
0.01651493 0.00550004 0.00531804 0.00570961 0.00312075 0.00399965 0.00654929 0.00346595 0.02740720 0.00392104 0.01216726 0.00113442 0.01630694 0.05886797 0.01538046 0.02118026 
0.01632677 0.00553909 0.00524193 0.00571575 0.00320309 0.00396742 0.00664997 0.00344550 0.02752234 0.00388017 0.01214058 0.00112329 0.01655198 0.06066573 0.01580763 0.02078583 
0.01612414 0.00558706 0.00516283 0.00571741 0.00329179 0.00393018 0.00675629 0.00342534 0.02762739 0.00383784 0.01211651 0.00111242 0.01683948 0.06249873 0.01623813 0.02036267 
0.01590828 0.00564359 0.00508098 0.00571480 0.00338683 0.00388810 0.00686777 0.00340560 0.02772124 0.00379426 0.01209518 0.00110185 0.01716878 0.06436005 0.01667020 0.01991197 
0.01568050 0.00570832 0.00499662 0.00570813 0.00348815 0.00384137 0.00698393 0.00338641 0.02780282 0.00374966 0.01207674 0.00109160 0.01753900 0.06624253 0.01710207 0.01943503 
0.01544217 0.00578085 0.00491006 0.00569764 0.00359568 0.00379020 0.00710429 0.00336788 0.02787106 0.00370426 0.01206133 0.00108170 0.01794897 0.06813879 0.01753199 0.01893324 
0.01519473 0.00586079 0.00482159 0.00568356 0.00370933 0.00373481 0.00722834 0.00335014 0.02792496 0.00365828 0.01204913 0.00107217 0.01839729 0.07004124 0.01795816 0.01840810 
0.01493967 0.00594771 0.00473155 0.00566618 0.00382896 0.00367547 0.00735555 0.00333331 0.02796356 0.00361194 0.01204031 0.00106304 0.01888231 0.07194215 0.01837884 0.01786120 
0.01467853 0.00604118 0.00464030 0.00564574 0.00395441 0.00361245 0.00748540 0.00331753 0.02798597 0.00356544 0.01203508 0.00105434 0.01940215 0.07383367 0.01879227 0.01729422 
0.01441288 0.00614075 0.00454819 0.00562253 0.00408550 0.00354602 0.00761736 0.00330291 0.02799138 0.00351901 0.01203364 0.00104608 0.01995470 0.07570784 0.01919672 0.01670893 
0.01414432 0.00624596 0.00445562 0.00559683 0.00422201 0.00347649 0.00775089 0.00328957 0.02797906 0.00347285 0.01203621 0.00103828 0.02053761 0.07755669 0.01959049 0.01610716 
0.01387444 0.00635633 0.00436300 0.00556892 0.00436370 0.00340418 0.00788547 0.00327763 0.02794838 0.00342714 0.01204302 0.00103098 0.02114834 0.07937219 0.01997192 0.01549085 
0.01360487 0.00647138 0.00427072 0.00553910 0.00451030 0.00332942 0.00802056 0.00326721 0.02789884 0.00338210 0.01205431 0.00102418 0.02178416 0.08114636 0.02033939 0.01486196 
0.01333721 0.00659063 0.00417923 0.00550765 0.00466150 0.00325253 0.00815564 0.00325843 0.02783002 0.00333789 0.01207033 0.00101790 0.02244216 0.08287128 0.02069133 0.01422256 
0.01307304 0.00671359 0.00408894 0.00547484 0.00481699 0.00317387 0.00829017 0.00325139 0.02774166 0.00329470 0.01209135 0.00101215 0.02311925 0.08453913 0.02102621 0.01357475 
0.01281393 0.00683975 0.00400029 0.00544097 0.00497641 0.00309378 0.00842366 0.00324621 0.02763363 0.00325268 0.01211762 0.00100695 0.02381221 0.08614222 0.02134259 0.01292069 
0.01256139 0.00696861 0.00391373 0.00540629 0.00513938 0.00301262 0.00855558 0.00324299 0.02750593 0.00321198 0.01214942 0.00100231 0.02451770 0.08767306 0.02163906 0.01226257 
0.01231689 0.00709969 0.00382968 0.00537108 0.00530549 0.00293073 0.00868547 0.00324182 0.02735871 0.00317275 0.01218702 0.00099824 0.02523224 0.08912435 0.02191431 0.01160262 
0.01208186 0.00723249 0.00374857 0.00533558 0.00547432 0.00284848 0.00881282 0.00324282 0.02719229 0.00313512 0.01223069 0.00099474 0.02595229 0.09048906 0.02216710 0.01094313 
0.01185764 0.00736651 0.00367084 0.00530004 0.00564543 0.00276621 0.00893719 0.00324606 0.02700714 0.00309920 0.01228072 0.00099183 0.02667423 0.09176046 0.02239628 0.01028636 
0.01164551 0.00750128 0.00359690 0.00526467 0.00581834 0.00268427 0.00905811 0.00325163 0.02680387 0.00306510 0.01233737 0.00098950 0.02739441 0.09293214 0.02260077 0.00963462 
0.01144664 0.00763634 0.00352714 0.00522970 0.00599257 0.00260299 0.00917517 0.00325962 0.02658330 0.00303291 0.01240091 0.00098776 0.02810914 0.09399804 0.02277961 0.00899023 
0.01126215 0.00777121 0.00346197 0.00519532 0.00616761 0.00252271 0.00928794 0.00327009 0.02634637 0.00300271 0.01247160 0.00098662 0.02881473 0.09495252 0.02293192 0.00835547 
0.01109302 0.00790547 0.00340175 0.00516170 0.00634294 0.00244375 0.00939603 0.00328312 0.02609420 0.00297456 0.01254969 0.00098607 0.02950751 0.09579037 0.02305692 0.00773265 
0.01094016 0.00803869 0.00334682 0.00512900 0.00651804 0.00236641 0.00949906 0.00329877 0.02582808 0.00294853 0.01263542 0.00098610 0.03018386 0.09650682 0.02315394 0.00712404 
0.01080435 0.00817047 0.00329753 0.00509736 0.00669236 0.00229100 0.00959668 0.00331709 0.02554945 0.00292465 0.01272901 0.00098672 0.03084022 0.09709761 0.02322242 0.00653189 
0.01068625 0.00830044 0.00325416 0.00506691 0.00686537 0.00221778 0.00968855 0.00333812 0.02525990 0.00290297 0.01283066 0.00098793 0.03147313 0.09755899 0.02326191 0.00595842 
0.01058641 0.00842823 0.00321701 0.00503773 0.00703649 0.00214701 0.00977436 0.00336190 0.02496117 0.00288348 0.01294057 0.00098972 0.03207921 0.09788776 0.02327207 0.00540579 
0.01050527 0.00855353 0.00318630 0.00500992 0.00720519 0.00207895 0.00985381 0.00338846 0.02465516 0.00286622 0.01305888 0.00099207 0.03265524 0.09808126 0.02325268 0.00487613 
0.01044311 0.00867604 0.00316226 0.00498352 0.00737091 0.00201382 0.00992665 0.00341783 0.02434386 0.00285117 0.01318574 0.00099500 0.03319812 0.09813744 0.02320363 0.00437147 
0.01040012 0.00879550 0.00314508 0.00495857 0.00753310 0.00195182 0.00999261 0.00345001 0.02402944 0.00283833 0.01332125 0.00099848 0.03370495 0.09805485 0.02312494 0.00389381 
0.01037633 0.00891169 0.00313488 0.00493509 0.00769122 0.00189313 0.01005148 0.00348500 0.02371412 0.00282768 0.01346550 0.00100250 0.03417299 0.09783262 0.02301673 0.00344506 
0.01037168 0.00902442 0.00313180 0.00491308 0.00784472 0.00183791 0.01010305 0.00352280 0.02340028 0.00281919 0.01361851 0.00100707 0.03459971 0.09747055 0.02287926 0.00302702 
0.01038596 0.00913354 0.00313591 0.00489251 0.00799310 0.00178631 0.01014716 0.00356339 0.02309033 0.00281282 0.01378031 0.00101216 0.03498280 0.09696904 0.02271289 0.00264141 
0.01041882 0.00923895 0.00314724 0.00487335 0.00813584 0.00173845 0.01018364 0.00360675 0.02278681 0.00280854 0.01395086 0.00101776 0.03532018 0.09632915 0.02251811 0.00228986 
0.01046983 0.00934057 0.00316579 0.00485553 0.00827245 0.00169440 0.01021237 0.00365282 0.02249226 0.00280630 0.01413009 0.00102387 0.03561001 0.09555257 0.02229552 0.00197385 
0.01053841 0.00943838 0.00319154 0.00483897 0.00840246 0.00165426 0.01023324 0.00370156 0.02220931 0.00280605 0.01431789 0.00103047 0.03585071 0.09464162 0.02204584 0.00169477 
0.01062388 0.00953241 0.00322439 0.00482359 0.00852544 0.00161806 0.01024618 0.00375292 0.02194059 0.00280772 0.01451410 0.00103754 0.03604095 0.09359928 0.02176988 0.00145388 
0.01072545 0.00962273 0.00326425 0.00480928 0.00864094 0.00158583 0.01025113 0.00380682 0.02168874 0.00281127 0.01471852 0.00104508 0.03617971 0.09242912 0.02146860 0.00125227 
0.01084222 0.00970943 0.00331096 0.00479592 0.00874860 0.00155757 0.01024807 0.00386317 0.02145639 0.00281663 0.01493090 0.00105307 0.03626619 0.09113535 0.02114303 0.00109094 
0.01097322 0.00979268 0.00336432 0.00478339 0.00884803 0.00153327 0.01023699 0.00392189 0.02124617 0.00282374 0.01515095 0.00106148 0.03629992 0.08972277 0.02079432 0.00097069 
0.01111737 0.00987269 0.00342413 0.00477154 0.00893892 0.00151288 0.01021792 0.00398287 0.02106061 0.00283253 0.01537833 0.00107032 0.03628068 0.08819676 0.02042370 0.00089219 
0.01127351 0.00994969 0.00349012 0.00476023 0.00902096 0.00149636 0.01019091 0.00404599 0.02090223 0.00284294 0.01561263 0.00107956 0.03620855 0.08656325 0.02003252 0.00085596 
0.01144041 0.01002399 0.00356199 0.00474930 0.00909390 0.00148361 0.01015604 0.00411112 0.02077343 0.00285490 0.01585343 0.00108918 0.03608388 0.08482872 0.01962220 0.00086232 
0.01161680 0.01009590 0.00363943 0.00473859 0.00915751 0.00147454 0.01011342 0.00417813 0.02067653 0.00286836 0.01610022 0.00109918 0.03590731 0.08300014 0.01919425 0.00091145 
0.01180133 0.01016581 0.00372209 0.00472796 0.00921161 0.00146905 0.01006317 0.00424687 0.02061371 0.00288324 0.01635248 0.00110952 0.03567973 0.08108498 0.01875025 0.00100335 
0.01199262 0.01023413 0.00380958 0.00471722 0.00925606 0.00146699 0.01000547 0.00431718 0.02058704 0.00289949 0.01660961 0.00112020 0.03540231 0.07909112 0.01829185 0.00113784 
0.01218925 0.01030131 0.00390150 0.00470623 0.00929076 0.00146824 0.00994050 0.00438889 0.02059841 0.00291705 0.01687100 0.00113120 0.03507648 0.07702688 0.01782079 0.00131456 
0.01238978 0.01036783 0.00399742 0.00469483 0.00931563 0.00147262 0.00986848 0.00446183 0.02064956 0.00293588 0.01713595 0.00114249 0.03470389 0.07490092 0.01733882 0.00153297 
0.01259277 0.01043420 0.00409689 0.00468285 0.00933068 0.00147997 0.00978965 0.00453579 0.02074203 0.00295591 0.01740377 0.00115407 0.03428646 0.07272226 0.01684778 0.00179235 
0.01279676 0.01050098 0.00419943 0.00467016 0.00933591 0.00149011 0.00970430 0.00461060 0.02087717 0.00297710 0.01767368 0.00116591 0.03382629 0.07050017 0.01634954 0.00209182 
0.01300031 0.01056872 0.00430458 0.00465661 0.00933140 0.00150285 0.00961273 0.00468604 0.02105609 0.00299941 0.01794489 0.00117798 0.03332572 0.06824419 0.01584600 0.00243029 
0.01320200 0.01063802 0.00441183 0.00464206 0.00931725 0.00151800 0.00951527 0.00476190 0.02127972 0.00302280 0.01821657 0.00119029 0.03278727 0.06596405 0.01533909 0.00280652 
0.01340042 0.01070948 0.00452067 0.00462641 0.00929360 0.00153536 0.00941229 0.00483796 0.02154870 0.00304723 0.01848787 0.00120279 0.03221361 0.06366961 0.01483076 0.00321908 
0.01359423 0.01078371 0.00463060 0.00460953 0.00926066 0.00155472 0.00930416 0.00491401 0.02186346 0.00307267 0.01875789 0.00121547 0.03160760 0.06137087 0.01432298 0.00366639 
0.01378212 0.01086134 0.00474109 0.00459133 0.00921863 0.00157587 0.00919132 0.00498980 0.02222417 0.00309910 0.01902573 0.00122831 0.03097220 0.05907784 0.01381770 0.00414669 
0.01396284 0.01094299 0.00485164 0.00457172 0.00916780 0.00159860 0.00907420 0.00506512 0.02263071 0.00312648 0.01929046 0.00124129 0.03031053 0.05680055 0.01331688 0.00465808 
0.01413520 0.01102927 0.00496172 0.00455064 0.00910845 0.00162271 0.00895328 0.00513971 0.02308273 0.00315480 0.01955112 0.00125439 0.02962578 0.05454899 0.01282246 0.00519849 
0.01429811 0.01112081 0.00507084 0.00452804 0.00904093 0.00164799 0.00882904 0.00521335 0.02357957 0.00318404 0.01980677 0.00126758 0.02892122 0.05233305 0.01233638 0.00576572 
0.01445053 0.01121819 0.00517848 0.00450387 0.00896559 0.00167423 0.00870201 0.00528580 0.02412034 0.00321418 0.02005644 0.00128084 0.02820018 0.05016246 0.01186050 0.00635744 
0.01459153 0.01132200 0.00528415 0.00447811 0.00888284 0.00170124 0.00857273 0.00535681 0.02470385 0.00324520 0.02029919 0.00129415 0.02746603 0.04804677 0.01139670 0.00697119 
0.01472027 0.01143278 0.00538739 0.00445075 0.00879311 0.00172881 0.00844176 0.00542616 0.02532864 0.00327711 0.02053404 0.00130748 0.02672217 0.04599527 0.01094677 0.00760440 
0.01483602 0.01155106 0.00548773 0.00442182 0.00869684 0.00175675 0.00830968 0.00549361 0.02599299 0.00330988 0.02076008 0.00132081 0.02597197 0.04401699 0.01051247 0.00825439 
0.01493815 0.01167732 0.00558473 0.00439134 0.00859450 0.00178490 0.00817710 0.00555892 0.02669493 0.00334350 0.02097636 0.00133412 0.02521881 0.04212059 0.01009547 0.00891842 
0.01502614 0.01181201 0.00567796 0.00435935 0.00848660 0.00181307 0.00804462 0.00562189 0.02743222 0.00337797 0.02118199 0.00134737 0.02446601 0.04031438 0.00969742 0.00959364 
0.01509958 0.01195551 0.00576705 0.00432592 0.00837363 0.00184111 0.00791287 0.00568228 0.02820238 0.00341327 0.02137609 0.00136056 0.02371682 0.03860623 0.00931984 0.01027715 
0.01515818 0.01210818 0.00585160 0.00429112 0.00825613 0.00186885 0.00778250 0.00573990 0.02900270 0.00344940 0.02155783 0.00137364 0.02297445 0.03700356 0.00896420 0.01096599 
0.01520178 0.01227029 0.00593129 0.00425505 0.00813464 0.00189616 0.00765415 0.00579455 0.02983026 0.00348634 0.02172641 0.00138661 0.02224198 0.03551330 0.00863187 0.01165720 
0.01523032 0.01244207 0.00600579 0.00421781 0.00800968 0.00192291 0.00752847 0.00584603 0.03068191 0.00352407 0.02188107 0.00139942 0.02152239 0.03414183 0.00832414 0.01234777 
0.01524387 0.01262367 0.00607483 0.00417954 0.00788183 0.00194897 0.00740612 0.00589418 0.03155432 0.00356257 0.02202111 0.00141206 0.02081855 0.03289499 0.00804218 0.01303469 
0.01524260 0.01281517 0.00613815 0.00414035 0.00775162 0.00197424 0.00728775 0.00593884 0.03244400 0.00360183 0.02214588 0.00142450 0.02013318 0.03177801 0.00778707 0.01371496 
0.01522681 0.01301660 0.00619553 0.00410040 0.00761962 0.00199863 0.00717402 0.00597985 0.03334728 0.00364182 0.02225479 0.00143673 0.01946884 0.03079551 0.00755977 0.01438563 
0.01519692 0.01322787 0.00624679 0.00405983 0.00748636 0.00202204 0.00706556 0.00601709 0.03426039 0.00368251 0.02234732 0.00144870 0.01882794 0.02995147 0.00736113 0.01504377 
0.01515344 0.01344883 0.00629178 0.00401883 0.00735239 0.00204442 0.00696302 0.00605045 0.03517939 0.00372386 0.02242303 0.00146041 0.01821271 0.02924923 0.00719189 0.01568651 
0.01509698 0.01367927 0.00633038 0.00397755 0.00721824 0.00206570 0.00686700 0.00607983 0.03610031 0.00376582 0.02248153 0.00147182 0.01762521 0.02869143 0.00705266 0.01631106 
0.01502826 0.01391885 0.00636251 0.00393617 0.00708444 0.00208584 0.00677811 0.00610517 0.03701907 0.00380837 0.02252252 0.00148293 0.01706729 0.02828005 0.00694395 0.01691473 
0.01494809 0.01416717 0.00638813 0.00389488 0.00695148 0.00210480 0.00669695 0.00612640 0.03793154 0.00385143 0.02254580 0.00149369 0.01654061 0.02801637 0.00686612 0.01749493 
0.01485737 0.01442375 0.00640723 0.00385385 0.00681986 0.00212256 0.00662405 0.00614351 0.03883358 0.00389496 0.02255123 0.00150410 0.01604664 0.02790096 0.00681941 0.01804918 
0.01475707 0.01468799 0.00641983 0.00381328 0.00669005 0.00213911 0.00655995 0.00615647 0.03972106 0.00393888 0.02253877 0.00151413 0.01558664 0.02793372 0.00680396 0.01857513 
0.01464822 0.01495925 0.00642598 0.00377335 0.00656248 0.00215445 0.00650515 0.00616530 0.04058984 0.00398312 0.02250846 0.00152377 0.01516165 0.02811384 0.00681975 0.01907061 
0.01453193 0.01523677 0.00642578 0.00373424 0.00643760 0.00216858 0.00646011 0.00617005 0.04143586 0.00402761 0.02246044 0.00153300 0.01477251 0.02843983 0.00686667 0.01953357 
0.01440934 0.01551971 0.00641934 0.00369614 0.00631578 0.00218152 0.00642526 0.00617076 0.04225511 0.00407226 0.02239495 0.00154180 0.01441986 0.02890953 0.00694445 0.01996216 
0.01428167 0.01580717 0.00640682 0.00365920 0.00619741 0.00219329 0.00640097 0.00616752 0.04304369 0.00411697 0.02231230 0.00155016 0.01410413 0.02952012 0.00705274 0.02035470 
0.01415013 0.01609814 0.00638838 0.00362360 0.00608283 0.00220394 0.00638759 0.00616045 0.04379780 0.00416165 0.02221292 0.00155806 0.01382553 0.03026812 0.00719102 0.02070971 
0.01401598 0.01639157 0.00636425 0.00358950 0.00597235 0.00221350 0.00638541 0.00614966 0.04451380 0.00420619 0.02209733 0.00156550 0.01358409 0.03114945 0.00735870 0.02102590 
0.01388049 0.01668631 0.00633464 0.00355705 0.00586625 0.00222202 0.00639467 0.00613532 0.04518819 0.00425048 0.02196613 0.00157245 0.01337963 0.03215942 0.00755506 0.02130220 
0.01374492 0.01698118 0.00629981 0.00352637 0.00576478 0.00222954 0.00641555 0.00611761 0.04581766 0.00429440 0.02182001 0.00157893 0.01321178 0.03329277 0.00777926 0.02153776 
0.01361054 0.01727490 0.00626004 0.00349759 0.00566816 0.00223613 0.00644820 0.00609671 0.04639912 0.00433784 0.02165978 0.00158491 0.01308002 0.03454371 0.00803037 0.02173193 
0.01347860 0.01756617 0.00621561 0.00347082 0.00557657 0.00224184 0.00649268 0.00607285 0.04692967 0.00438066 0.02148630 0.00159039 0.01298359 0.03590594 0.00830735 0.02188431 
0.01335031 0.01785364 0.00616684 0.00344616 0.00549016 0.00224673 0.00654901 0.00604627 0.04740667 0.00442275 0.02130054 0.00159537 0.01292163 0.03737267 0.00860906 0.02199472 
0.01322687 0.01813590 0.00611404 0.00342368 0.00540906 0.00225088 0.00661715 0.00601724 0.04782772 0.00446396 0.02110354 0.00159984 0.01289308 0.03893668 0.00893428 0.02206318 
0.01310940 0.01841153 0.00605755 0.00340344 0.00533334 0.00225433 0.00669699 0.00598601 0.04819069 0.00450417 0.02089642 0.00160382 0.01289674 0.04059038 0.00928171 0.02208998 
0.01299901 0.01867910 0.00599773 0.00338549 0.00526307 0.00225715 0.00678838 0.00595290 0.04849372 0.00454325 0.02068038 0.00160729 0.01293127 0.04232580 0.00964996 0.02207562 
0.01289672 0.01893713 0.00593490 0.00336984 0.00519826 0.00225941 0.00689106 0.00591820 0.04873525 0.00458107 0.02045669 0.00161027 0.01299522 0.04413465 0.01003756 0.02202080 
0.01280348 0.01918416 0.00586944 0.00335652 0.00513890 0.00226116 0.00700476 0.00588223 0.04891402 0.00461748 0.02022666 0.00161275 0.01308700 0.04600839 0.01044301 0.02192647 
0.01272017 0.01941873 0.00580170 0.00334549 0.00508495 0.00226247 0.00712912 0.00584533 0.04902906 0.00465237 0.01999169 0.00161475 0.01320492 0.04793824 0.01086471 0.02179377 
0.01264759 0.01963941 0.00573203 0.00333675 0.00503635 0.00226339 0.00726372 0.00580783 0.04907972 0.00468560 0.01975321 0.00161627 0.01334720 0.04991526 0.01130103 0.02162406 
0.01258645 0.01984477 0.00566079 0.00333022 0.00499300 0.00226396 0.00740808 0.00577008 0.04906567 0.00471706 0.01951270 0.00161733 0.01351198 0.05193035 0.01175030 0.02141888 
0.01253735 0.02003342 0.00558833 0.00332585 0.00495477 0.00226424 0.00756167 0.00573243 0.04898689 0.00474664 0.01927168 0.00161793 0.01369732 0.05397433 0.01221080 0.02117996 
0.01250083 0.02020403 0.00551499 0.00332356 0.00492152 0.00226427 0.00772387 0.00569523 0.04884365 0.00477422 0.01903170 0.00161809 0.01390123 0.05603799 0.01268079 0.02090920 
0.01247728 0.02035531 0.00544110 0.00332322 0.00489308 0.00226408 0.00789406 0.00565884 0.04863658 0.00479971 0.01879434 0.00161782 0.01412165 0.05811211 0.01315850 0.02060868 
0.01246703 0.02048605 0.00536699 0.00332473 0.00486926 0.00226370 0.00807150 0.00562360 0.04836657 0.00482302 0.01856118 0.00161714 0.01435651 0.06018751 0.01364216 0.02028060 
0.01247026 0.02059508 0.00529296 0.00332795 0.00484985 0.00226316 0.00825546 0.00558985 0.04803484 0.00484406 0.01833382 0.00161607 0.01460371 0.06225513 0.01412997 0.01992731 
0.01248709 0.02068136 0.00521931 0.00333272 0.00483462 0.00226247 0.00844512 0.00555794 0.04764290 0.00486278 0.01811386 0.00161461 0.01486111 0.06430599 0.01462015 0.01955128 
0.01251750 0.02074391 0.00514632 0.00333888 0.00482333 0.00226165 0.00863964 0.00552818 0.04719253 0.00487911 0.01790288 0.00161279 0.01512660 0.06633134 0.01511091 0.01915506 
0.01256136 0.02078187 0.00507424 0.00334625 0.00481573 0.00226069 0.00883813 0.00550089 0.04668579 0.00489301 0.01770246 0.00161063 0.01539806 0.06832262 0.01560049 0.01874132 
0.01261847 0.02079446 0.00500333 0.00335464 0.00481155 0.00225961 0.00903966 0.00547637 0.04612502 0.00490446 0.01751414 0.00160814 0.01567338 0.07027150 0.01608714 0.01831276 
0.01268849 0.02078107 0.00493381 0.00336385 0.00481053 0.00225838 0.00924329 0.00545490 0.04551278 0.00491345 0.01733943 0.00160535 0.01595050 0.07216997 0.01656915 0.01787216 
0.01277100 0.02074116 0.00486588 0.00337368 0.00481237 0.00225700 0.00944802 0.00543674 0.04485186 0.00491998 0.01717980 0.00160227 0.01622737 0.07401033 0.01704482 0.01742231 
0.01286548 0.02067437 0.00479973 0.00338390 0.00481680 0.00225544 0.00965285 0.00542213 0.04414530 0.00492408 0.01703667 0.00159892 0.01650200 0.07578523 0.01751250 0.01696602 
0.01297133 0.02058044 0.00473551 0.00339430 0.00482353 0.00225367 0.00985676 0.00541129 0.04339629 0.00492577 0.01691138 0.00159533 0.01677244 0.07748772 0.01797061 0.01650612 
0.01308784 0.02045928 0.00467337 0.00340466 0.00483228 0.00225167 0.01005873 0.00540441 0.04260823 0.00492512 0.01680524 0.00159151 0.01703683 0.07911122 0.01841758 0.01604537 
0.01321425 0.02031093 0.00461343 0.00341475 0.00484277 0.00224940 0.01025771 0.00540165 0.04178467 0.00492220 0.01671944 0.00158748 0.01729336 0.08064963 0.01885193 0.01558654 
0.01334970 0.02013560 0.00455578 0.00342435 0.00485473 0.00224681 0.01045266 0.00540315 0.04092929 0.00491710 0.01665513 0.00158325 0.01754028 0.08209728 0.01927223 0.01513231 
0.01349330 0.01993364 0.00450051 0.00343325 0.00486788 0.00224386 0.01064256 0.00540902 0.04004590 0.00490994 0.01661334 0.00157886 0.01777595 0.08344897 0.01967711 0.01468531 
0.01364406 0.01970557 0.00444767 0.00344122 0.00488196 0.00224050 0.01082638 0.00541933 0.03913841 0.00490084 0.01659500 0.00157430 0.01799882 0.08470003 0.02006527 0.01424804 
0.01380098 0.01945206 0.00439731 0.00344806 0.00489672 0.00223668 0.01100313 0.00543412 0.03821078 0.00488994 0.01660096 0.00156961 0.01820741 0.08584624 0.02043551 0.01382295 
0.01396300 0.01917394 0.00434944 0.00345357 0.00491193 0.00223234 0.01117181 0.00545340 0.03726705 0.00487741 0.01663192 0.00156479 0.01840036 0.08688395 0.02078667 0.01341232 
0.01412902 0.01887219 0.00430406 0.00345756 0.00492736 0.00222744 0.01133149 0.00547716 0.03631128 0.00486342 0.01668851 0.00155985 0.01857642 0.08781000 0.02111770 0.01301833 
0.01429793 0.01854796 0.00426115 0.00345984 0.00494281 0.00222190 0.01148124 0.00550533 0.03534753 0.00484817 0.01677119 0.00155482 0.01873443 0.08862177 0.02142762 0.01264299 
0.01446860 0.01820254 0.00422070 0.00346027 0.00495808 0.00221569 0.01162019 0.00553783 0.03437987 0.00483187 0.01688032 0.00154970 0.01887337 0.08931717 0.02171556 0.01228818 
0.01463990 0.01783738 0.00418266 0.00345868 0.00497301 0.00220873 0.01174751 0.00557454 0.03341230 0.00481474 0.01701611 0.00154450 0.01899231 0.08989467 0.02198071 0.01195559 
0.01481069 0.01745406 0.00414696 0.00345494 0.00498744 0.00220099 0.01186242 0.00561530 0.03244881 0.00479702 0.01717866 0.00153923 0.01909046 0.09035323 0.02222236 0.01164673 
0.01497986 0.01705431 0.00411354 0.00344895 0.00500124 0.00219241 0.01196420 0.00565993 0.03149327 0.00477894 0.01736791 0.00153390 0.01916715 0.09069237 0.02243991 0.01136295 
0.01514630 0.01663998 0.00408233 0.00344060 0.00501430 0.00218294 0.01205219 0.00570820 0.03054949 0.00476076 0.01758365 0.00152852 0.01922183 0.09091213 0.02263283 0.01110538 
0.01530895 0.01621307 0.00405325 0.00342982 0.00502653 0.00217254 0.01212579 0.00575989 0.02962115 0.00474275 0.01782555 0.00152309 0.01925408 0.09101304 0.02280071 0.01087499 
0.01546677 0.01577565 0.00402619 0.00341656 0.00503787 0.00216118 0.01218447 0.00581471 0.02871179 0.00472517 0.01809312 0.00151761 0.01926360 0.09099614 0.02294321 0.01067251 
0.01561876 0.01532993 0.00400108 0.00340079 0.00504827 0.00214882 0.01222777 0.00587236 0.02782481 0.00470830 0.01838573 0.00151209 0.01925025 0.09086298 0.02306010 0.01049851 
0.01576400 0.01487821 0.00397781 0.00338250 0.00505772 0.00213544 0.01225534 0.00593252 0.02696345 0.00469240 0.01870260 0.00150654 0.01921399 0.09061555 0.02315125 0.01035334 
0.01590158 0.01442286 0.00395628 0.00336171 0.00506622 0.00212102 0.01226686 0.00599484 0.02613075 0.00467776 0.01904282 0.00150094 0.01915491 0.09025631 0.02321662 0.01023715 
0.01603071 0.01396633 0.00393640 0.00333845 0.00507380 0.00210555 0.01226212 0.00605896 0.02532957 0.00466463 0.01940532 0.00149530 0.01907326 0.08978816 0.02325624 0.01014991 
0.01615062 0.01351113 0.00391807 0.00331279 0.00508052 0.00208902 0.01224101 0.00612450 0.02456255 0.00465330 0.01978891 0.00148962 0.01896938 0.08921442 0.02327029 0.01009137 
0.01626064 0.01305982 0.00390121 0.00328481 0.00508645 0.00207145 0.01220346 0.00619104 0.02383212 0.00464402 0.02019226 0.00148390 0.01884378 0.08853880 0.02325898 0.01006113 
0.01636016 0.01261499 0.00388573 0.00325463 0.00509169 0.00205284 0.01214954 0.00625819 0.02314047 0.00463705 0.02061390 0.00147813 0.01869705 0.08776537 0.02322264 0.01005858 
0.01644868 0.01217924 0.00387155 0.00322238 0.00509635 0.00203323 0.01207938 0.00632551 0.02248956 0.00463261 0.02105226 0.00147230 0.01852996 0.08689858 0.02316169 0.01008297 
0.01652575 0.01175519 0.00385860 0.00318821 0.00510060 0.00201265 0.01199320 0.00639258 0.02188110 0.00463096 0.02150562 0.00146642 0.01834335 0.08594319 0.02307663 0.01013337 
0.01659103 0.01134543 0.00384682 0.00315230 0.00510459 0.00199113 0.01189132 0.00645898 0.02131654 0.00463229 0.02197217 0.00146048 0.01813821 0.08490425 0.02296805 0.01020871 
0.01664424 0.01095255 0.00383616 0.00311485 0.00510850 0.00196875 0.01177414 0.00652425 0.02079708 0.00463679 0.02245000 0.00145448 0.01791564 0.08378709 0.02283659 0.01030776 
0.01668522 0.01057907 0.00382658 0.00307608 0.00511255 0.00194556 0.01164215 0.00658798 0.02032366 0.00464466 0.02293709 0.00144840 0.01767684 0.08259729 0.02268301 0.01042921 
0.01671386 0.01022749 0.00381805 0.00303621 0.00511695 0.00192164 0.01149593 0.00664973 0.01989696 0.00465604 0.02343134 0.00144224 0.01742314 0.08134066 0.02250811 0.01057159 
0.01673016 0.00990022 0.00381055 0.00299551 0.00512194 0.00189707 0.01133615 0.00670910 0.01951738 0.00467106 0.02393057 0.00143599 0.01715596 0.08002318 0.02231278 0.01073337 
0.01673420 0.00959958 0.00380409 0.00295424 0.00512779 0.00187195 0.01116353 0.00676566 0.01918507 0.00468983 0.02443255 0.00142966 0.01687680 0.07865100 0.02209797 0.01091291 
0.01672613 0.00932780 0.00379866 0.00291267 0.00513477 0.00184639 0.01097891 0.00681904 0.01889993 0.00471244 0.02493498 0.00142323 0.01658729 0.07723042 0.02186469 0.01110854 
0.01670619 0.00908702 0.00379430 0.00287111 0.00514315 0.00182051 0.01078318 0.00686884 0.01866160 0.00473892 0.02543551 0.00141671 0.01628910 0.07576783 0.02161400 0.01131850 
0.01667467 0.00887920 0.00379103 0.00282985 0.00515324 0.00179442 0.01057729 0.00691472 0.01846946 0.00476931 0.02593177 0.00141007 0.01598402 0.07426971 0.02134704 0.01154103 
0.01663196 0.00870622 0.00378890 0.00278920 0.00516535 0.00176825 0.01036229 0.00695633 0.01832265 0.00480359 0.02642138 0.00140333 0.01567389 0.07274259 0.02106496 0.01177432 
0.01657849 0.00856978 0.00378797 0.00274948 0.00517978 0.00174216 0.01013926 0.00699337 0.01822008 0.00484174 0.02690193 0.00139648 0.01536060 0.07119303 0.02076900 0.01201659 
0.01651476 0.00847141 0.00378831 0.00271100 0.00519688 0.00171629 0.00990936 0.00702556 0.01816044 0.00488367 0.02737103 0.00138952 0.01504612 0.06962758 0.02046040 0.01226605 
0.01644132 0.00841249 0.00379000 0.00267407 0.00521696 0.00169079 0.00967378 0.00705263 0.01814219 0.00492930 0.02782630 0.00138244 0.01473245 0.06805276 0.02014045 0.01252095 
0.01635877 0.00839420 0.00379314 0.00263903 0.00524037 0.00166582 0.00943377 0.00707437 0.01816358 0.00497848 0.02826541 0.00137525 0.01442163 0.06647504 0.01981048 0.01277959 
0.01626774 0.00841753 0.00379781 0.00260617 0.00526744 0.00164156 0.00919060 0.00709057 0.01822270 0.00503105 0.02868606 0.00136795 0.01411573 0.06490082 0.01947183 0.01304033 
0.01616891 0.00848328 0.00380413 0.00257582 0.00529852 0.00161816 0.00894560 0.00710108 0.01831743 0.00508681 0.02908601 0.00136053 0.01381683 0.06333638 0.01912586 0.01330158 
0.01606297 0.00859203 0.00381220 0.00254825 0.00533394 0.00159581 0.00870010 0.00710577 0.01844550 0.00514553 0.02946309 0.00135301 0.01352702 0.06178786 0.01877395 0.01356186 
0.01595063 0.00874415 0.00382215 0.00252377 0.00537405 0.00157468 0.00845546 0.00710456 0.01860449 0.00520696 0.02981521 0.00134539 0.01324838 0.06026129 0.01841749 0.01381980 
0.01583264 0.00893981 0.00383409 0.00250266 0.00541917 0.00155495 0.00821305 0.00709740 0.01879184 0.00527081 0.03014040 0.00133767 0.01298300 0.05876248 0.01805786 0.01407411 
0.01570972 0.00917894 0.00384815 0.00248516 0.00546964 0.00153679 0.00797426 0.00708426 0.01900489 0.00533676 0.03043678 0.00132987 0.01273290 0.05729708 0.01769645 0.01432363 
0.01558261 0.00946126 0.00386444 0.00247153 0.00552578 0.00152039 0.00774044 0.00706516 0.01924086 0.00540447 0.03070257 0.00132198 0.01250011 0.05587049 0.01733463 0.01456735 
0.01545204 0.00978625 0.00388308 0.00246198 0.00558792 0.00150591 0.00751296 0.00704018 0.01949690 0.00547358 0.03093617 0.00131404 0.01228657 0.05448791 0.01697377 0.01480436 
0.01531872 0.01015319 0.00390420 0.00245674 0.00565635 0.00149353 0.00729318 0.00700940 0.01977010 0.00554369 0.03113608 0.00130603 0.01209418 0.05315427 0.01661522 0.01503393 
0.01518336 0.01056113 0.00392790 0.00245597 0.00573137 0.00148342 0.00708241 0.00697296 0.02005750 0.00561440 0.03130097 0.00129798 0.01192477 0.05187421 0.01626030 0.01525544 
0.01504661 0.01100889 0.00395429 0.00245984 0.00581326 0.00147573 0.00688195 0.00693102 0.02035610 0.00568529 0.03142966 0.00128991 0.01178008 0.05065213 0.01591030 0.01546846 
0.01490912 0.01149510 0.00398345 0.00246848 0.00590230 0.00147064 0.00669306 0.00688378 0.02066291 0.00575590 0.03152116 0.00128182 0.01166175 0.04949210 0.01556648 0.01567268 
0.01477149 0.01201816 0.00401548 0.00248200 0.00599874 0.00146827 0.00651695 0.00683149 0.02097495 0.00582580 0.03157463 0.00127374 0.01157134 0.04839787 0.01523006 0.01586795 
0.01463429 0.01257629 0.00405046 0.00250048 0.00610281 0.00146879 0.00635477 0.00677440 0.02128927 0.00589450 0.03158942 0.00126569 0.01151027 0.04737288 0.01490221 0.01605429 
0.01449803 0.01316752 0.00408842 0.00252397 0.00621474 0.00147231 0.00620765 0.00671282 0.02160294 0.00596156 0.03156509 0.00125767 0.01147984 0.04642024 0.01458407 0.01623185 
0.01436319 0.01378966 0.00412944 0.00255249 0.00633472 0.00147896 0.00607661 0.00664707 0.02191312 0.00602648 0.03150135 0.00124972 0.01148122 0.04554269 0.01427670 0.01640092 
0.01423019 0.01444040 0.00417352 0.00258604 0.00646293 0.00148885 0.00596265 0.00657750 0.02221706 0.00608881 0.03139815 0.00124186 0.01151542 0.04474266 0.01398114 0.01656195 
0.01409939 0.01511724 0.00422068 0.00262457 0.00659953 0.00150207 0.00586666 0.00650449 0.02251208 0.00614807 0.03125560 0.00123410 0.01158332 0.04402218 0.01369833 0.01671550 
0.01397111 0.01581753 0.00427092 0.00266803 0.00674466 0.00151872 0.00578947 0.00642842 0.02279564 0.00620380 0.03107403 0.00122647 0.01168562 0.04338293 0.01342918 0.01686227 
0.01384562 0.01653851 0.00432420 0.00271631 0.00689843 0.00153886 0.00573183 0.00634973 0.02306533 0.00625555 0.03085396 0.00121899 0.01182286 0.04282624 0.01317451 0.01700307 
0.01372311 0.01727727 0.00438048 0.00276929 0.00706091 0.00156256 0.00569439 0.00626883 0.02331886 0.00630288 0.03059610 0.00121168 0.01199540 0.04235306 0.01293508 0.01713880 
0.01360375 0.01803084 0.00443969 0.00282681 0.00723217 0.00158984 0.00567774 0.00618617 0.02355415 0.00634536 0.03030137 0.00120457 0.01220341 0.04196398 0.01271157 0.01727046 
0.01348761 0.01879611 0.00450173 0.00288868 0.00741225 0.00162074 0.00568233 0.00610221 0.02376925 0.00638261 0.02997088 0.00119768 0.01244690 0.04165920 0.01250460 0.01739915 
0.01337476 0.01956994 0.00456650 0.00295470 0.00760113 0.00165527 0.00570857 0.00601741 0.02396241 0.00641424 0.02960589 0.00119104 0.01272567 0.04143860 0.01231470 0.01752600 
0.01326518 0.02034913 0.00463386 0.00302462 0.00779880 0.00169342 0.00575674 0.00593223 0.02413209 0.00643990 0.02920789 0.00118466 0.01303934 0.04130166 0.01214233 0.01765221 
0.01315881 0.02113042 0.00470364 0.00309819 0.00800519 0.00173518 0.00582702 0.00584715 0.02427696 0.00645928 0.02877851 0.00117857 0.01338732 0.04124753 0.01198786 0.01777902 
0.01305557 0.02191057 0.00477568 0.00317510 0.00822023 0.00178049 0.00591951 0.00576263 0.02439588 0.00647207 0.02831956 0.00117279 0.01376885 0.04127502 0.01185159 0.01790767 
0.01295530 0.02268632 0.00484976 0.00325506 0.00844379 0.00182931 0.00603420 0.00567913 0.02448797 0.00647804 0.02783297 0.00116735 0.01418296 0.04138258 0.01173373 0.01803944 
0.01285784 0.02345442 0.00492568 0.00333773 0.00867572 0.00188156 0.00617098 0.00559711 0.02455257 0.00647697 0.02732087 0.00116225 0.01462849 0.04156838 0.01163442 0.01817556 
0.01276296 0.02421168 0.00500319 0.00342277 0.00891584 0.00193716 0.00632965 0.00551702 0.02458924 0.00646867 0.02678547 0.00115753 0.01510411 0.04183022 0.01155372 0.01831726 
0.01267044 0.02495494 0.00508203 0.00350980 0.00916394 0.00199599 0.00650990 0.00543928 0.02459782 0.00645303 0.02622914 0.00115320 0.01560828 0.04216565 0.01149159 0.01846573 
0.01258001 0.02568113 0.00516192 0.00359844 0.00941975 0.00205794 0.00671132 0.00536432 0.02457836 0.00642994 0.02565433 0.00114927 0.01613930 0.04257191 0.01144795 0.01862208 
0.01249139 0.02638728 0.00524257 0.00368831 0.00968300 0.00212286 0.00693343 0.00529254 0.02453118 0.00639937 0.02506361 0.00114576 0.01669530 0.04304598 0.01142260 0.01878738 
0.01240430 0.02707050 0.00532367 0.00377900 0.00995338 0.00219060 0.00717564 0.00522431 0.02445684 0.00636133 0.02445961 0.00114269 0.01727424 0.04358459 0.01141530 0.01896258 
0.01231843 0.02772804 0.00540490 0.00387010 0.01023052 0.00226101 0.00743728 0.00515999 0.02435614 0.00631585 0.02384504 0.00114006 0.01787392 0.04418424 0.01142572 0.01914855 
0.01223349 0.02835729 0.00548592 0.00396119 0.01051405 0.00233388 0.00771759 0.00509992 0.02423014 0.00626304 0.02322265 0.00113789 0.01849203 0.04484119 0.01145346 0.01934604 
0.01214917 0.02895579 0.00556641 0.00405186 0.01080354 0.00240904 0.00801572 0.00504440 0.02408011 0.00620304 0.02259525 0.00113619 0.01912607 0.04555156 0.01149807 0.01955569 
0.01206521 0.02952124 0.00564600 0.00414169 0.01109855 0.00248626 0.00833076 0.00499370 0.02390759 0.00613607 0.02196563 0.00113496 0.01977348 0.04631125 0.01155902 0.01977799 
0.01198132 0.03005152 0.00572435 0.00423027 0.01139859 0.00256534 0.00866173 0.00494809 0.02371431 0.00606235 0.02133664 0.00113420 0.02043155 0.04711604 0.01163573 0.02001328 
0.01189725 0.03054473 0.00580110 0.00431718 0.01170315 0.00264604 0.00900756 0.00490776 0.02350225 0.00598218 0.02071106 0.00113393 0.02109750 0.04796158 0.01172755 0.02026176 
0.01181279 0.03099913 0.00587589 0.00440203 0.01201167 0.00272812 0.00936715 0.00487291 0.02327358 0.00589591 0.02009170 0.00113414 0.02176847 0.04884342 0.01183382 0.02052347 
0.01172774 0.03141323 0.00594837 0.00448441 0.01232358 0.00281133 0.00973931 0.00484369 0.02303069 0.00580391 0.01948128 0.00113482 0.02244152 0.04975702 0.01195377 0.02079827 
0.01164194 0.03178573 0.00601819 0.00456396 0.01263827 0.00289543 0.01012282 0.00482022 0.02277612 0.00570662 0.01888250 0.00113599 0.02311368 0.05069782 0.01208666 0.02108587 
0.01155526 0.03211558 0.00608501 0.00464030 0.01295511 0.00298015 0.01051641 0.00480257 0.02251262 0.00560451 0.01829797 0.00113762 0.02378195 0.05166119 0.01223165 0.02138579 
0.01146762 0.03240194 0.00614849 0.00471309 0.01327342 0.00306522 0.01091878 0.00479081 0.02224308 0.00549810 0.01773023 0.00113972 0.02444332 0.05264254 0.01238792 0.02169739 
0.01137898 0.03264422 0.00620833 0.00478199 0.01359253 0.00315038 0.01132858 0.00478494 0.02197054 0.00538792 0.01718170 0.00114228 0.02509478 0.05363729 0.01255459 0.02201984 
0.01128936 0.03284207 0.00626420 0.00484671 0.01391172 0.00323536 0.01174444 0.00478495 0.02169816 0.00527457 0.01665472 0.00114528 0.02573333 0.05464091 0.01273077 0.02235216 
0.01119880 0.03299538 0.00631582 0.00490694 0.01423026 0.00331987 0.01216499 0.00479079 0.02142924 0.00515867 0.01615146 0.00114871 0.02635603 0.05564893 0.01291557 0.02269319 
0.01110742 0.03310426 0.00636292 0.00496244 0.01454739 0.00340365 0.01258881 0.00480236 0.02116712 0.00504085 0.01567400 0.00115257 0.02696000 0.05665702 0.01310807 0.02304161 
0.01101536 0.03316908 0.00640525 0.00501296 0.01486234 0.00348644 0.01301450 0.00481956 0.02091527 0.00492180 0.01522425 0.00115682 0.02754242 0.05766093 0.01330736 0.02339595 
0.01092284 0.03319043 0.00644258 0.00505829 0.01517433 0.00356795 0.01344065 0.00484223 0.02067717 0.00480219 0.01480397 0.00116146 0.02810057 0.05865659 0.01351253 0.02375459 
0.01083009 0.03316915 0.00647471 0.00509826 0.01548255 0.00364793 0.01386585 0.00487020 0.02045635 0.00468275 0.01441477 0.00116648 0.02863184 0.05964009 0.01372267 0.02411576 
0.01073743 0.03310627 0.00650146 0.00513272 0.01578621 0.00372612 0.01428872 0.00490327 0.02025637 0.00456419 0.01405805 0.00117184 0.02913376 0.06060771 0.01393690 0.02447760 
0.01064520 0.03300306 0.00652269 0.00516153 0.01608447 0.00380227 0.01470787 0.00494120 0.02008076 0.00444725 0.01373508 0.00117753 0.02960398 0.06155596 0.01415433 0.02483810 
0.01055378 0.03286100 0.00653827 0.00518461 0.01637652 0.00387613 0.01512196 0.00498373 0.01993301 0.00433266 0.01344691 0.00118352 0.03004032 0.06248157 0.01437414 0.02519517 
0.01046361 0.03268176 0.00654813 0.00520190 0.01666153 0.00394747 0.01552964 0.00503059 0.01981660 0.00422118 0.01319442 0.00118981 0.03044076 0.06338153 0.01459548 0.02554663 
0.01037516 0.03246719 0.00655220 0.00521338 0.01693868 0.00401606 0.01592964 0.00508148 0.01973490 0.00411352 0.01297830 0.00119635 0.03080349 0.06425309 0.01481759 0.02589021 
0.01028892 0.03221933 0.00655046 0.00521903 0.01720716 0.00408169 0.01632070 0.00513607 0.01969120 0.00401043 0.01279904 0.00120314 0.03112686 0.06509379 0.01503970 0.02622362 
0.01020543 0.03194037 0.00654292 0.00521890 0.01746616 0.00414416 0.01670160 0.00519405 0.01968868 0.00391261 0.01265696 0.00121015 0.03140947 0.06590148 0.01526112 0.02654451 
0.01012522 0.03163266 0.00652962 0.00521304 0.01771488 0.00420327 0.01707118 0.00525506 0.01973038 0.00382077 0.01255215 0.00121735 0.03165010 0.06667430 0.01548118 0.02685051 
0.01004888 0.03129868 0.00651063 0.00520155 0.01795253 0.00425884 0.01742832 0.00531874 0.01981918 0.00373558 0.01248455 0.00122473 0.03184779 0.06741073 0.01569926 0.02713926 
0.00997697 0.03094101 0.00648607 0.00518455 0.01817835 0.00431072 0.01777198 0.00538473 0.01995778 0.00365770 0.01245388 0.00123226 0.03200177 0.06810957 0.01591482 0.02740839 
0.00991009 0.03056237 0.00645608 0.00516219 0.01839160 0.00435876 0.01810114 0.00545266 0.02014870 0.00358774 0.01245971 0.00123991 0.03211156 0.06876994 0.01612735 0.02765560 
0.00984883 0.03016553 0.00642082 0.00513464 0.01859156 0.00440282 0.01841487 0.00552214 0.02039423 0.00352630 0.01250140 0.00124768 0.03217689 0.06939132 0.01633640 0.02787861 
0.00979376 0.02975336 0.00638051 0.00510210 0.01877754 0.00444278 0.01871230 0.00559281 0.02069644 0.00347393 0.01257817 0.00125553 0.03219775 0.06997352 0.01654157 0.02807522 
0.00974545 0.02932875 0.00633538 0.00506479 0.01894888 0.00447855 0.01899263 0.00566428 0.02105713 0.00343113 0.01268906 0.00126345 0.03217437 0.07051667 0.01674254 0.02824332 
0.00970445 0.02889464 0.00628569 0.00502297 0.01910496 0.00451003 0.01925510 0.00573619 0.02147787 0.00339838 0.01283295 0.00127142 0.03210724 0.07102126 0.01693905 0.02838089 
0.00967128 0.02845400 0.00623173 0.00497690 0.01924519 0.00453717 0.01949906 0.00580818 0.02195991 0.00337609 0.01300859 0.00127942 0.03199708 0.07148810 0.01713089 0.02848606 
0.00964644 0.02800977 0.00617382 0.00492685 0.01936904 0.00455990 0.01972392 0.00587987 0.02250423 0.00336461 0.01321458 0.00128744 0.03184486 0.07191830 0.01731791 0.02855706 
0.00963037 0.02756491 0.00611230 0.00487315 0.01947600 0.00457819 0.01992914 0.00595094 0.02311152 0.00336428 0.01344940 0.00129546 0.03165179 0.07231332 0.01750002 0.02859229 
0.00962350 0.02712231 0.00604753 0.00481608 0.01956562 0.00459203 0.02011428 0.00602105 0.02378214 0.00337533 0.01371142 0.00130347 0.03141931 0.07267489 0.01767722 0.02859032 
0.00962617 0.02668484 0.00597990 0.00475600 0.01963750 0.00460141 0.02027898 0.00608988 0.02451612 0.00339798 0.01399891 0.00131146 0.03114908 0.07300502 0.01784952 0.02854989 
0.00963870 0.02625527 0.00590980 0.00469323 0.01969129 0.00460634 0.02042292 0.00615713 0.02531318 0.00343234 0.01431003 0.00131941 0.03084297 0.07330600 0.01801703 0.02846992 
0.00966133 0.02583630 0.00583764 0.00462813 0.01972669 0.00460686 0.02054588 0.00622253 0.02617270 0.00347851 0.01464289 0.00132732 0.03050306 0.07358037 0.01817989 0.02834954 
0.00969424 0.02543055 0.00576385 0.00456103 0.01974347 0.00460301 0.02064771 0.00628582 0.02709372 0.00353649 0.01499551 0.00133518 0.03013162 0.07383087 0.01833830 0.02818810 
0.00973756 0.02504050 0.00568888 0.00449231 0.01974143 0.00459486 0.02072833 0.00634675 0.02807495 0.00360623 0.01536589 0.00134299 0.02973109 0.07406049 0.01849250 0.02798515 
0.00979134 0.02466851 0.00561314 0.00442231 0.01972047 0.00458247 0.02078773 0.00640511 0.02911474 0.00368761 0.01575195 0.00135073 0.02930407 0.07427236 0.01864278 0.02774047 
0.00985553 0.02431681 0.00553710 0.00435140 0.01968051 0.00456594 0.02082597 0.00646072 0.03021115 0.00378046 0.01615164 0.00135842 0.02885333 0.07446978 0.01878948 0.02745408 
0.00993005 0.02398748 0.00546120 0.00427992 0.01962155 0.00454537 0.02084317 0.00651341 0.03136186 0.00388454 0.01656284 0.00136604 0.02838175 0.07465618 0.01893296 0.02712622 
0.01001471 0.02368241 0.00538588 0.00420823 0.01954366 0.00452089 0.02083954 0.00656304 0.03256427 0.00399953 0.01698348 0.00137361 0.02789232 0.07483509 0.01907363 0.02675736 
0.01010927 0.02340336 0.00531157 0.00413666 0.01944695 0.00449261 0.02081533 0.00660950 0.03381542 0.00412507 0.01741148 0.00138111 0.02738812 0.07501011 0.01921191 0.02634822 
0.01021339 0.02315186 0.00523872 0.00406555 0.01933161 0.00446068 0.02077087 0.00665270 0.03511209 0.00426073 0.01784480 0.00138856 0.02687233 0.07518488 0.01934826 0.02589976 
0.01032667 0.02292930 0.00516773 0.00399522 0.01919788 0.00442525 0.02070653 0.00669259 0.03645074 0.00440603 0.01828142 0.00139595 0.02634817 0.07536305 0.01948314 0.02541314 
0.01044863 0.02273685 0.00509901 0.00392599 0.01904607 0.00438648 0.02062275 0.00672913 0.03782755 0.00456043 0.01871939 0.00140330 0.02581889 0.07554826 0.01961702 0.02488978 
0.01057871 0.02257547 0.00503296 0.00385814 0.01887654 0.00434455 0.02052002 0.00676232 0.03923846 0.00472333 0.01915682 0.00141060 0.02528777 0.07574408 0.01975041 0.02433130 
0.01071631 0.02244594 0.00496994 0.00379195 0.01868970 0.00429963 0.02039888 0.00679218 0.04067912 0.00489409 0.01959188 0.00141787 0.02475806 0.07595403 0.01988378 0.02373957 
0.01086073 0.02234881 0.00491031 0.00372769 0.01848604 0.00425191 0.02025993 0.00681876 0.04214501 0.00507201 0.02002283 0.00142512 0.02423302 0.07618148 0.02001762 0.02311662 
0.01101124 0.02228445 0.00485438 0.00366561 0.01826608 0.00420158 0.02010381 0.00684212 0.04363135 0.00525636 0.02044803 0.00143235 0.02371584 0.07642970 0.02015241 0.02246470 
0.01116704 0.02225300 0.00480247 0.00360592 0.01803041 0.00414884 0.01993117 0.00686235 0.04513322 0.00544636 0.02086592 0.00143957 0.02320966 0.07670177 0.02028860 0.02178627 
0.01132728 0.02225439 0.00475483 0.00354884 0.01777966 0.00409390 0.01974275 0.00687958 0.04664550 0.00564121 0.02127504 0.00144679 0.02271751 0.07700056 0.02042664 0.02108394 
0.01149107 0.02228837 0.00471173 0.00349454 0.01751449 0.00403697 0.01953929 0.00689394 0.04816296 0.00584005 0.02167408 0.00145402 0.02224235 0.07732875 0.02056693 0.02036047 
0.01165748 0.02235446 0.00467336 0.00344319 0.01723562 0.00397824 0.01932157 0.00690558 0.04968024 0.00604202 0.02206181 0.00146127 0.02178699 0.07768874 0.02070987 0.01961880 
0.01182557 0.02245201 0.00463990 0.00339493 0.01694381 0.00391794 0.01909040 0.00691468 0.05119192 0.00624623 0.02243714 0.00146855 0.02135412 0.07808269 0.02085580 0.01886198 
0.01199436 0.02258016 0.00461151 0.00334987 0.01663986 0.00385629 0.01884662 0.00692142 0.05269249 0.00645176 0.02279909 0.00147587 0.02094625 0.07851244 0.02100503 0.01809320 
0.01216286 0.02273789 0.00458829 0.00330811 0.01632457 0.00379349 0.01859108 0.00692600 0.05417643 0.00665770 0.02314682 0.00148323 0.02056575 0.07897953 0.02115784 0.01731573 
0.01233008 0.02292398 0.00457033 0.00326972 0.01599880 0.00372975 0.01832466 0.00692864 0.05563821 0.00686312 0.02347961 0.00149064 0.02021476 0.07948517 0.02131445 0.01653294 
0.01249504 0.02313707 0.00455766 0.00323475 0.01566342 0.00366530 0.01804823 0.00692956 0.05707232 0.00706709 0.02379687 0.00149812 0.01989527 0.08003023 0.02147503 0.01574826 
0.01265676 0.02337563 0.00455028 0.00320323 0.01531932 0.00360034 0.01776271 0.00692898 0.05847332 0.00726867 0.02409816 0.00150566 0.01960901 0.08061521 0.02163971 0.01496517 
0.01281428 0.02363799 0.00454817 0.00317515 0.01496741 0.00353507 0.01746898 0.00692714 0.05983585 0.00746696 0.02438313 0.00151328 0.01935752 0.08124027 0.02180855 0.01418718 
0.01296670 0.02392236 0.00455126 0.00315050 0.01460861 0.00346971 0.01716797 0.00692427 0.06115463 0.00766106 0.02465157 0.00152097 0.01914208 0.08190516 0.02198156 0.01341782 
0.01311314 0.02422683 0.00455945 0.00312924 0.01424382 0.00340444 0.01686058 0.00692062 0.06242456 0.00785006 0.02490340 0.00152874 0.01896375 0.08260930 0.02215869 0.01266061 
0.01325275 0.02454937 0.00457261 0.00311131 0.01387399 0.00333946 0.01654773 0.00691641 0.06364067 0.00803312 0.02513865 0.00153660 0.01882332 0.08335170 0.02233985 0.01191905 
0.01338476 0.02488790 0.00459056 0.00309662 0.01350002 0.00327496 0.01623031 0.00691188 0.06479821 0.00820941 0.02535746 0.00154454 0.01872135 0.08413099 0.02252487 0.01119660 
0.01350848 0.02524022 0.00461311 0.00308509 0.01312284 0.00321111 0.01590921 0.00690725 0.06589263 0.00837813 0.02556008 0.00155255 0.01865813 0.08494546 0.02271352 0.01049666 
0.01362325 0.02560410 0.00464002 0.00307658 0.01274336 0.00314809 0.01558534 0.00690273 0.06691962 0.00853851 0.02574686 0.00156065 0.01863369 0.08579301 0.02290552 0.00982255 
0.01372852 0.02597726 0.00467105 0.00307097 0.01236246 0.00308606 0.01525955 0.00689854 0.06787513 0.00868986 0.02591824 0.00156883 0.01864780 0.08667120 0.02310054 0.00917750 
0.01382382 0.02635741 0.00470590 0.00306812 0.01198101 0.00302517 0.01493269 0.00689485 0.06875542 0.00883150 0.02607475 0.00157707 0.01870000 0.08757725 0.02329818 0.00856463 
0.01390878 0.02674221 0.00474426 0.00306784 0.01159988 0.00296557 0.01460562 0.00689186 0.06955701 0.00896283 0.02621699 0.00158538 0.01878953 0.08850806 0.02349799 0.00798693 
0.01398312 0.02712938 0.00478581 0.00306998 0.01121989 0.00290741 0.01427914 0.00688972 0.07027680 0.00908328 0.02634564 0.00159374 0.01891543 0.08946021 0.02369947 0.00744725 
0.01404665 0.02751662 0.00483019 0.00307434 0.01084185 0.00285079 0.01395404 0.00688857 0.07091199 0.00919236 0.02646143 0.00160215 0.01907646 0.09043002 0.02390208 0.00694829 
0.01409931 0.02790168 0.00487703 0.00308073 0.01046653 0.00279584 0.01363109 0.00688855 0.07146014 0.00928963 0.02656517 0.00161060 0.01927117 0.09141353 0.02410523 0.00649258 
0.01414115 0.02828237 0.00492595 0.00308893 0.01009468 0.00274267 0.01331105 0.00688974 0.07191920 0.00937473 0.02665768 0.00161906 0.01949787 0.09240658 0.02430828 0.00608246 
0.01417231 0.02865657 0.00497656 0.00309874 0.00972699 0.00269136 0.01299461 0.00689225 0.07228747 0.00944736 0.02673983 0.00162753 0.01975466 0.09340478 0.02451056 0.00572007 
0.01419306 0.02902224 0.00502846 0.00310993 0.00936415 0.00264200 0.01268246 0.00689612 0.07256368 0.00950728 0.02681251 0.00163599 0.02003945 0.09440357 0.02471139 0.00540737 
0.01420379 0.02937744 0.00508123 0.00312228 0.00900679 0.00259465 0.01237526 0.00690139 0.07274691 0.00955434 0.02687664 0.00164443 0.02034995 0.09539827 0.02491003 0.00514608 
0.01420500 0.02972035 0.00513446 0.00313557 0.00865552 0.00254939 0.01207364 0.00690808 0.07283667 0.00958846 0.02693314 0.00165282 0.02068370 0.09638407 0.02510573 0.00493771 
0.01419729 0.03004927 0.00518775 0.00314957 0.00831089 0.00250625 0.01177817 0.00691618 0.07283285 0.00960961 0.02698292 0.00166114 0.02103807 0.09735612 0.02529774 0.00478353 
0.01418138 0.03036263 0.00524069 0.00316405 0.00797342 0.00246527 0.01148941 0.00692564 0.07273578 0.00961787 0.02702689 0.00166938 0.02141031 0.09830950 0.02548528 0.00468458 
0.01415810 0.03065902 0.00529287 0.00317878 0.00764360 0.00242648 0.01120789 0.00693641 0.07254615 0.00961338 0.02706595 0.00167751 0.02179754 0.09923933 0.02566758 0.00464164 
0.01412840 0.03093720 0.00534391 0.00319354 0.00732187 0.00238989 0.01093409 0.00694841 0.07226507 0.00959634 0.02710096 0.00168551 0.02219677 0.10014073 0.02584386 0.00465527 
0.01409328 0.03119606 0.00539343 0.00320812 0.00700864 0.00235549 0.01066847 0.00696153 0.07189402 0.00956705 0.02713277 0.00169336 0.02260493 0.10100896 0.02601336 0.00472576 
0.01405389 0.03143472 0.00544107 0.00322230 0.00670428 0.00232330 0.01041145 0.00697564 0.07143490 0.00952586 0.02716218 0.00170102 0.02301887 0.10183933 0.02617534 0.00485314 
0.01401142 0.03165244 0.00548648 0.00323588 0.00640912 0.00229328 0.01016340 0.00699060 0.07088994 0.00947320 0.02718993 0.00170849 0.02343541 0.10262736 0.02632905 0.00503720 
0.01396717 0.03184868 0.00552934 0.00324866 0.00612346 0.00226540 0.00992467 0.00700622 0.07026175 0.00940957 0.02721675 0.00171572 0.02385134 0.10336874 0.02647382 0.00527748 
0.01392249 0.03202311 0.00556935 0.00326046 0.00584755 0.00223963 0.00969559 0.00702232 0.06955329 0.00933552 0.02724328 0.00172270 0.02426343 0.10405940 0.02660895 0.00557324 
0.01387880 0.03217559 0.00560624 0.00327109 0.00558164 0.00221592 0.00947643 0.00703870 0.06876783 0.00925170 0.02727011 0.00172940 0.02466850 0.10469554 0.02673385 0.00592353 
0.01383757 0.03230615 0.00563976 0.00328040 0.00532593 0.00219422 0.00926744 0.00705512 0.06790897 0.00915877 0.02729779 0.00173579 0.02506336 0.10527365 0.02684791 0.00632712 
0.01380031 0.03241505 0.00566970 0.00328822 0.00508058 0.00217446 0.00906883 0.00707136 0.06698058 0.00905749 0.02732679 0.00174186 0.02544490 0.10579056 0.02695062 0.00678256 
0.01376855 0.03250273 0.00569588 0.00329443 0.00484575 0.00215656 0.00888079 0.00708716 0.06598683 0.00894864 0.02735750 0.00174756 0.02581009 0.10624349 0.02704150 0.00728816 
0.01374387 0.03256984 0.00571813 0.00329890 0.00462156 0.00214046 0.00870347 0.00710228 0.06493212 0.00883306 0.02739027 0.00175289 0.02615599 0.10663003 0.02712015 0.00784200 
0.01372781 0.03261720 0.00573636 0.00330152 0.00440811 0.00212607 0.00853699 0.00711643 0.06382108 0.00871164 0.02742537 0.00175781 0.02647975 0.10694821 0.02718623 0.00844194 
0.01372195 0.03264583 0.00575047 0.00330220 0.00420549 0.00211330 0.00838144 0.00712935 0.06265854 0.00858530 0.02746300 0.00176231 0.02677867 0.10719650 0.02723946 0.00908562 
0.01372783 0.03265690 0.00576044 0.00330085 0.00401376 0.00210205 0.00823690 0.00714077 0.06144951 0.00845500 0.02750330 0.00176635 0.02705021 0.10737385 0.02727966 0.00977049 
0.01374696 0.03265178 0.00576624 0.00329742 0.00383297 0.00209224 0.00810340 0.00715042 0.06019916 0.00832170 0.02754633 0.00176993 0.02729196 0.10747971 0.02730670 0.01049381 
0.01378083 0.03263200 0.00576791 0.00329187 0.00366317 0.00208376 0.00798094 0.00715801 0.05891276 0.00818643 0.02759210 0.00177302 0.02750172 0.10751401 0.02732057 0.01125266 
0.01383084 0.03259920 0.00576553 0.00328416 0.00350438 0.00207651 0.00786953 0.00716330 0.05759570 0.00805018 0.02764055 0.00177561 0.02767747 0.10747723 0.02732132 0.01204395 
0.01389835 0.03255521 0.00575919 0.00327429 0.00335663 0.00207040 0.00776912 0.00716601 0.05625345 0.00791400 0.02769156 0.00177768 0.02781739 0.10737037 0.02730909 0.01286443 
0.01398465 0.03250195 0.00574904 0.00326226 0.00321992 0.00206532 0.00767965 0.00716590 0.05489150 0.00777892 0.02774498 0.00177921 0.02791988 0.10719496 0.02728411 0.01371071 
0.01409093 0.03244146 0.00573525 0.00324810 0.00309427 0.00206116 0.00760104 0.00716274 0.05351538 0.00764597 0.02780056 0.00178019 0.02798357 0.10695308 0.02724671 0.01457929 
0.01421826 0.03237587 0.00571804 0.00323185 0.00297969 0.00205784 0.00753318 0.00715630 0.05213059 0.00751618 0.02785805 0.00178062 0.02800733 0.10664736 0.02719730 0.01546655 
0.01436765 0.03230742 0.00569765 0.00321357 0.00287616 0.00205526 0.00747597 0.00714638 0.05074262 0.00739055 0.02791713 0.00178048 0.02799026 0.10628096 0.02713640 0.01636878 
0.01453994 0.03223838 0.00567436 0.00319332 0.00278371 0.00205331 0.00742925 0.00713280 0.04935689 0.00727008 0.02797746 0.00177978 0.02793172 0.10585754 0.02706459 0.01728216 
0.01473586 0.03217108 0.00564847 0.00317121 0.00270232 0.00205192 0.00739287 0.00711540 0.04797874 0.00715574 0.02803864 0.00177850 0.02783132 0.10538133 0.02698257 0.01820286 
0.01495602 0.03210789 0.00562031 0.00314732 0.00263200 0.00205099 0.00736664 0.00709403 0.04661340 0.00704847 0.02810027 0.00177666 0.02768893 0.10485702 0.02689110 0.01912696 
0.01520086 0.03205118 0.00559024 0.00312180 0.00257275 0.00205045 0.00735039 0.00706860 0.04526596 0.00694915 0.02816191 0.00177424 0.02750468 0.10428980 0.02679106 0.02005053 
0.01547067 0.03200334 0.00555863 0.00309475 0.00252458 0.00205023 0.00734390 0.00703900 0.04394138 0.00685866 0.02822312 0.00177127 0.02727893 0.10368532 0.02668337 0.02096963 
0.01576559 0.03196671 0.00552589 0.00306634 0.00248748 0.00205026 0.00734694 0.00700520 0.04264442 0.00677781 0.02828344 0.00176774 0.02701234 0.10304967 0.02656906 0.02188032 
0.01608560 0.03194360 0.00549242 0.00303671 0.00246146 0.00205047 0.00735928 0.00696717 0.04137968 0.00670735 0.02834238 0.00176366 0.02670580 0.10238934 0.02644923 0.02277868 
0.01643050 0.03193628 0.00545865 0.00300604 0.00244652 0.00205082 0.00738067 0.00692491 0.04015151 0.00664799 0.02839949 0.00175906 0.02636043 0.10171119 0.02632503 0.02366083 
0.01679992 0.03194691 0.00542502 0.00297451 0.00244266 0.00205125 0.00741084 0.00687846 0.03896407 0.00660038 0.02845430 0.00175395 0.02597763 0.10102243 0.02619769 0.02452297 
0.01719334 0.03197760 0.00539196 0.00294229 0.00244987 0.00205175 0.00744952 0.00682790 0.03782126 0.00656510 0.02850634 0.00174835 0.02555900 0.10033058 0.02606850 0.02536134 
0.01761003 0.03203031 0.00535992 0.00290958 0.00246816 0.00205226 0.00749641 0.00677333 0.03672673 0.00654266 0.02855517 0.00174227 0.02510638 0.09964339 0.02593878 0.02617230 
0.01804911 0.03210689 0.00532934 0.00287658 0.00249749 0.00205278 0.00755122 0.00671490 0.03568384 0.00653350 0.02860035 0.00173576 0.02462183 0.09896885 0.02580993 0.02695232 
0.01850953 0.03220907 0.00530066 0.00284350 0.00253786 0.00205330 0.00761362 0.00665277 0.03469571 0.00653799 0.02864148 0.00172883 0.02410760 0.09831511 0.02568336 0.02769798 
0.01899007 0.03233840 0.00527431 0.00281054 0.00258923 0.00205380 0.00768329 0.00658716 0.03376514 0.00655643 0.02867818 0.00172151 0.02356614 0.09769047 0.02556051 0.02840601 
0.01948932 0.03249626 0.00525070 0.00277791 0.00265155 0.00205431 0.00775989 0.00651831 0.03289466 0.00658902 0.02871006 0.00171385 0.02300007 0.09710327 0.02544285 0.02907330 
0.02000575 0.03268385 0.00523025 0.00274582 0.00272478 0.00205482 0.00784308 0.00644649 0.03208647 0.00663591 0.02873682 0.00170587 0.02241218 0.09656189 0.02533187 0.02969692 
0.02053763 0.03290218 0.00521333 0.00271448 0.00280883 0.00205537 0.00793249 0.00637199 0.03134250 0.00669714 0.02875814 0.00169762 0.02180539 0.09607468 0.02522905 0.03027411 
0.02108312 0.03315206 0.00520031 0.00268410 0.00290361 0.00205598 0.00802775 0.00629516 0.03066435 0.00677268 0.02877376 0.00168914 0.02118276 0.09564992 0.02513586 0.03080234 
0.02164021 0.03343406 0.00519152 0.00265489 0.00300902 0.00205670 0.00812849 0.00621636 0.03005332 0.00686244 0.02878344 0.00168046 0.02054745 0.09529573 0.02505379 0.03127926 
0.02220679 0.03374855 0.00518728 0.00262703 0.00312492 0.00205756 0.00823431 0.00613596 0.02951040 0.00696621 0.02878699 0.00167163 0.01990274 0.09502008 0.02498426 0.03170278 
0.02278060 0.03409566 0.00518785 0.00260073 0.00325115 0.00205862 0.00834481 0.00605438 0.02903627 0.00708373 0.02878424 0.00166271 0.01925196 0.09483066 0.02492869 0.03207103 
0.02335927 0.03447529 0.00519349 0.00257616 0.00338752 0.00205994 0.00845957 0.00597205 0.02863133 0.00721463 0.02877507 0.00165373 0.01859849 0.09473491 0.02488844 0.03238239 
0.02394035 0.03488708 0.00520440 0.00255351 0.00353381 0.00206158 0.00857818 0.00588943 0.02829567 0.00735851 0.02875938 0.00164474 0.01794578 0.09473989 0.02486485 0.03263552 
0.02452129 0.03533045 0.00522075 0.00253294 0.00368979 0.00206361 0.00870021 0.00580697 0.02802908 0.00751484 0.02873713 0.00163580 0.01729725 0.09485227 0.02485915 0.03282931 
0.02509946 0.03580455 0.00524266 0.00251459 0.00385518 0.00206610 0.00882523 0.00572517 0.02783107 0.00768305 0.02870829 0.00162696 0.01665635 0.09507831 0.02487255 0.03296295 
0.02567219 0.03630831 0.00527023 0.00249862 0.00402965 0.00206912 0.00895277 0.00564450 0.02770090 0.00786248 0.02867287 0.00161826 0.01602649 0.09542373 0.02490615 0.03303590 
0.02623674 0.03684039 0.00530350 0.00248514 0.00421288 0.00207276 0.00908240 0.00556549 0.02763752 0.00805243 0.02863091 0.00160976 0.01541105 0.09589375 0.02496097 0.03304791 
0.02679035 0.03739924 0.00534247 0.00247428 0.00440446 0.00207709 0.00921364 0.00548862 0.02763967 0.00825211 0.02858249 0.00160151 0.01481334 0.09649299 0.02503796 0.03299900 
0.02733024 0.03798304 0.00538708 0.00246613 0.00460399 0.00208219 0.00934604 0.00541440 0.02770582 0.00846068 0.02852769 0.00159356 0.01423659 0.09722548 0.02513792 0.03288950 
0.02785363 0.03858977 0.00543725 0.00246076 0.00481100 0.00208815 0.00947912 0.00534335 0.02783421 0.00867724 0.02846666 0.00158596 0.01368393 0.09809456 0.02526158 0.03272002 
0.02835775 0.03921717 0.00549283 0.00245825 0.00502500 0.00209505 0.00961240 0.00527595 0.02802286 0.00890084 0.02839953 0.00157876 0.01315837 0.09910291 0.02540954 0.03249146 
0.02883988 0.03986277 0.00555365 0.00245863 0.00524548 0.00210295 0.00974541 0.00521270 0.02826960 0.00913050 0.02832647 0.00157201 0.01266277 0.10025249 0.02558229 0.03220499 
0.02929730 0.04052389 0.00561947 0.00246193 0.00547185 0.00211194 0.00987765 0.00515408 0.02857205 0.00936518 0.02824766 0.00156575 0.01219988 0.10154452 0.02578017 0.03186207 
0.02972741 0.04119768 0.00569002 0.00246817 0.00570351 0.00212209 0.01000865 0.00510056 0.02892766 0.00960381 0.02816331 0.00156003 0.01177224 0.10297943 0.02600340 0.03146446 
0.03012764 0.04188109 0.00576499 0.00247732 0.00593984 0.00213347 0.01013792 0.00505257 0.02933371 0.00984529 0.02807364 0.00155490 0.01138222 0.10455692 0.02625206 0.03101415 
0.03049553 0.04257092 0.00584401 0.00248936 0.00618017 0.00214614 0.01026497 0.00501054 0.02978733 0.01008850 0.02797885 0.00155039 0.01103200 0.10627587 0.02652611 0.03051342 
0.03082873 0.04326380 0.00592669 0.00250424 0.00642381 0.00216014 0.01038933 0.00497488 0.03028552 0.01033231 0.02787920 0.00154655 0.01072356 0.10813437 0.02682534 0.02996478 
0.03112501 0.04395625 0.00601259 0.00252190 0.00667002 0.00217554 0.01051051 0.00494594 0.03082517 0.01057555 0.02777491 0.00154341 0.01045863 0.11012971 0.02714941 0.02937100 
0.03138226 0.04464465 0.00610124 0.00254223 0.00691806 0.00219238 0.01062804 0.00492409 0.03140304 0.01081709 0.02766624 0.00154100 0.01023874 0.11225837 0.02749783 0.02873505 
0.03159855 0.04532532 0.00619215 0.00256514 0.00716716 0.00221068 0.01074144 0.00490961 0.03201583 0.01105575 0.02755342 0.00153936 0.01006516 0.11451607 0.02786998 0.02806014 
0.03177207 0.04599446 0.00628479 0.00259049 0.00741653 0.00223047 0.01085027 0.00490280 0.03266013 0.01129041 0.02743670 0.00153851 0.00993894 0.11689772 0.02826508 0.02734968 
0.03190122 0.04664823 0.00637859 0.00261816 0.00766538 0.00225177 0.01095407 0.00490388 0.03333250 0.01151991 0.02731634 0.00153848 0.00986084 0.11939751 0.02868222 0.02660722 
0.03198457 0.04728276 0.00647298 0.00264797 0.00791288 0.00227458 0.01105240 0.00491306 0.03402942 0.01174316 0.02719257 0.00153929 0.00983139 0.12200886 0.02912035 0.02583654 
0.03202088 0.04789414 0.00656736 0.00267975 0.00815822 0.00229890 0.01114482 0.00493048 0.03474738 0.01195906 0.02706565 0.00154095 0.00985086 0.12472448 0.02957829 0.02504151 
0.03200913 0.04847849 0.00666112 0.00271331 0.00840057 0.00232470 0.01123094 0.00495627 0.03548281 0.01216656 0.02693579 0.00154349 0.00991926 0.12753644 0.03005471 0.02422615 
0.03194849 0.04903193 0.00675364 0.00274845 0.00863912 0.00235197 0.01131035 0.00499049 0.03623214 0.01236465 0.02680325 0.00154692 0.01003632 0.13043614 0.03054819 0.02339461 
0.03183837 0.04955066 0.00684429 0.00278494 0.00887304 0.00238066 0.01138266 0.00503317 0.03699181 0.01255234 0.02666824 0.00155123 0.01020153 0.13341438 0.03105718 0.02255108 
0.03167840 0.05003090 0.00693244 0.00282255 0.00910154 0.00241072 0.01144752 0.00508429 0.03775829 0.01272872 0.02653101 0.00155643 0.01041413 0.13646142 0.03158001 0.02169985 
0.03146843 0.05046901 0.00701745 0.00286105 0.00932384 0.00244210 0.01150459 0.00514379 0.03852805 0.01289292 0.02639176 0.00156253 0.01067308 0.13956702 0.03211492 0.02084526 
0.03120855 0.05086144 0.00709871 0.00290018 0.00953916 0.00247471 0.01155355 0.00521156 0.03929761 0.01304412 0.02625071 0.00156951 0.01097712 0.14272047 0.03266005 0.01999163 
0.03089909 0.05120477 0.00717560 0.00293969 0.00974677 0.00250848 0.01159410 0.00528744 0.04006355 0.01318159 0.02610809 0.00157738 0.01132475 0.14591069 0.03321348 0.01914332 
0.03054062 0.05149575 0.00724752 0.00297931 0.00994596 0.00254332 0.01162597 0.00537124 0.04082249 0.01330464 0.02596410 0.00158611 0.01171423 0.14912624 0.03377320 0.01830466 
0.03013394 0.05173129 0.00731388 0.00301877 0.01013606 0.00257911 0.01164892 0.00546271 0.04157112 0.01341268 0.02581896 0.00159570 0.01214362 0.15235544 0.03433713 0.01747991 
0.02968009 0.05190851 0.00737414 0.00305781 0.01031643 0.00261573 0.01166273 0.00556158 0.04230623 0.01350517 0.02567287 0.00160612 0.01261075 0.15558638 0.03490318 0.01667329 
0.02918035 0.05202475 0.00742776 0.00309615 0.01048648 0.00265308 0.01166722 0.00566750 0.04302465 0.01358166 0.02552606 0.00161736 0.01311328 0.15880701 0.03546919 0.01588892 
0.02863621 0.05207756 0.00747424 0.00313351 0.01064568 0.00269100 0.01166222 0.00578013 0.04372334 0.01364180 0.02537874 0.00162939 0.01364869 0.16200523 0.03603298 0.01513080 
0.02804940 0.05206477 0.00751311 0.00316964 0.01079352 0.00272935 0.01164761 0.00589905 0.04439934 0.01368530 0.02523112 0.00164218 0.01421426 0.16516890 0.03659237 0.01440280 
0.02742187 0.05198446 0.00754395 0.00320426 0.01092958 0.00276799 0.01162330 0.00602384 0.04504979 0.01371196 0.02508344 0.00165571 0.01480717 0.16828598 0.03714518 0.01370865 
0.02675578 0.05183501 0.00756637 0.00323712 0.01105348 0.00280676 0.01158923 0.00615402 0.04567197 0.01372169 0.02493592 0.00166993 0.01542443 0.17134455 0.03768924 0.01305189 
0.02605347 0.05161509 0.00758002 0.00326796 0.01116490 0.00284548 0.01154537 0.00628909 0.04626323 0.01371446 0.02478882 0.00168481 0.01606297 0.17433290 0.03822241 0.01243587 
0.02531751 0.05132369 0.00758460 0.00329656 0.01126359 0.00288399 0.01149172 0.00642853 0.04682109 0.01369036 0.02464237 0.00170032 0.01671960 0.17723960 0.03874260 0.01186373 
0.02455063 0.05096012 0.00757988 0.00332266 0.01134936 0.00292212 0.01142833 0.00657180 0.04734317 0.01364955 0.02449685 0.00171642 0.01739105 0.18005354 0.03924776 0.01133839 
0.02375571 0.05052402 0.00756565 0.00334607 0.01142210 0.00295968 0.01135528 0.00671831 0.04782721 0.01359228 0.02435253 0.00173306 0.01807402 0.18276405 0.03973593 0.01086253 
0.02293583 0.05001539 0.00754176 0.00336657 0.01148174 0.00299649 0.01127267 0.00686749 0.04827113 0.01351891 0.02420970 0.00175019 0.01876514 0.18536090 0.04020520 0.01043854 
0.02209418 0.04943457 0.00750814 0.00338398 0.01152832 0.00303238 0.01118066 0.00701873 0.04867294 0.01342986 0.02406866 0.00176779 0.01946103 0.18783442 0.04065377 0.01006859 
0.02123410 0.04878226 0.00746475 0.00339813 0.01156190 0.00306715 0.01107943 0.00717142 0.04903083 0.01332566 0.02392973 0.00178579 0.02015833 0.19017550 0.04107994 0.00975453 
0.02035901 0.04805953 0.00741160 0.00340886 0.01158264 0.00310063 0.01096920 0.00732495 0.04934312 0.01320692 0.02379326 0.00180415 0.02085368 0.19237571 0.04148212 0.00949792 
0.01947247 0.04726781 0.00734878 0.00341605 0.01159077 0.00313264 0.01085022 0.00747869 0.04960829 0.01307433 0.02365959 0.00182283 0.02154377 0.19442728 0.04185885 0.00930005 
0.01857810 0.04640889 0.00727643 0.00341959 0.01158657 0.00316299 0.01072278 0.00763203 0.04982497 0.01292866 0.02352910 0.00184177 0.02222535 0.19632320 0.04220881 0.00916187 
0.01767958 0.04548493 0.00719475 0.00341938 0.01157038 0.00319153 0.01058721 0.00778434 0.04999196 0.01277075 0.02340218 0.00186093 0.02289523 0.19805724 0.04253080 0.00908402 
0.01678064 0.04449846 0.00710397 0.00341537 0.01154262 0.00321808 0.01044386 0.00793502 0.05010821 0.01260153 0.02327924 0.00188025 0.02355034 0.19962399 0.04282378 0.00906686 
0.01588504 0.04345237 0.00700441 0.00340750 0.01150377 0.00324247 0.01029312 0.00808347 0.05017285 0.01242197 0.02316070 0.00189970 0.02418772 0.20101889 0.04308688 0.00911038 
0.01499657 0.04234987 0.00689642 0.00339577 0.01145434 0.00326457 0.01013542 0.00822912 0.05018516 0.01223313 0.02304701 0.00191921 0.02480452 0.20223826 0.04331936 0.00921430 
0.01411898 0.04119455 0.00678043 0.00338017 0.01139491 0.00328422 0.00997120 0.00837139 0.05014462 0.01203613 0.02293862 0.00193875 0.02539806 0.20327931 0.04352068 0.00937798 
0.01325602 0.03999032 0.00665687 0.00336075 0.01132611 0.00330128 0.00980094 0.00850974 0.05005086 0.01183211 0.02283602 0.00195826 0.02596581 0.20414018 0.04369043 0.00960052 
0.01241139 0.03874141 0.00652627 0.00333754 0.01124862 0.00331565 0.00962516 0.00864366 0.04990372 0.01162230 0.02273968 0.00197770 0.02650541 0.20481991 0.04382841 0.00988067 
0.01158873 0.03745235 0.00638918 0.00331065 0.01116312 0.00332720 0.00944440 0.00877266 0.04970320 0.01140794 0.02265012 0.00199702 0.02701471 0.20531849 0.04393457 0.01021689 
0.01079161 0.03612799 0.00624619 0.00328016 0.01107038 0.00333584 0.00925920 0.00889626 0.04944950 0.01119033 0.02256784 0.00201619 0.02749174 0.20563682 0.04400903 0.01060737 
0.01002351 0.03477341 0.00609793 0.00324621 0.01097116 0.00334148 0.00907016 0.00901406 0.04914302 0.01097079 0.02249338 0.00203514 0.02793474 0.20577671 0.04405208 0.01104999 
0.00928776 0.03339400 0.00594508 0.00320897 0.01086625 0.00334404 0.00887788 0.00912564 0.04878434 0.01075065 0.02242726 0.00205386 0.02834218 0.20574088 0.04406418 0.01154237 
0.00858762 0.03199535 0.00578834 0.00316859 0.01075646 0.00334349 0.00868299 0.00923066 0.04837425 0.01053129 0.02237003 0.00207228 0.02871274 0.20553291 0.04404595 0.01208189 
0.00792617 0.03058328 0.00562842 0.00312528 0.01064263 0.00333976 0.00848613 0.00932879 0.04791374 0.01031407 0.02232221 0.00209038 0.02904534 0.20515724 0.04399817 0.01266566 
0.00730634 0.02916379 0.00546609 0.00307927 0.01052557 0.00333284 0.00828796 0.00941976 0.04740400 0.01010037 0.02228437 0.00210812 0.02933916 0.20461914 0.04392177 0.01329058 
0.00673089 0.02774307 0.00530210 0.00303079 0.01040612 0.00332271 0.00808916 0.00950334 0.04684643 0.00989155 0.02225704 0.00212546 0.02959357 0.20392465 0.04381782 0.01395334 
0.00620240 0.02632744 0.00513726 0.00298011 0.01028511 0.00330939 0.00789040 0.00957932 0.04624266 0.00968897 0.02224075 0.00214237 0.02980823 0.20308054 0.04368752 0.01465044 
0.00572323 0.02492333 0.00497234 0.00292750 0.01016334 0.00329290 0.00769238 0.00964757 0.04559450 0.00949398 0.02223605 0.00215882 0.02998303 0.20209428 0.04353221 0.01537819 
0.00529556 0.02353726 0.00480816 0.00287326 0.01004163 0.00327328 0.00749581 0.00970796 0.04490401 0.00930790 0.02224344 0.00217478 0.03011807 0.20097397 0.04335331 0.01613277 
0.00492134 0.02217583 0.00464551 0.00281769 0.00992073 0.00325058 0.00730137 0.00976046 0.04417344 0.00913200 0.02226346 0.00219022 0.03021374 0.19972829 0.04315239 0.01691021 
0.00460227 0.02084564 0.00448520 0.00276112 0.00980141 0.00322488 0.00710979 0.00980503 0.04340527 0.00896754 0.02229658 0.00220511 0.03027062 0.19836646 0.04293107 0.01770645 
0.00433983 0.01955331 0.00432800 0.00270388 0.00968438 0.00319628 0.00692175 0.00984171 0.04260219 0.00881572 0.02234328 0.00221944 0.03028954 0.19689812 0.04269106 0.01851730 
0.00413525 0.01830541 0.00417471 0.00264632 0.00957032 0.00316486 0.00673797 0.00987058 0.04176711 0.00867768 0.02240403 0.00223318 0.03027154 0.19533332 0.04243415 0.01933856 
0.00398952 0.01710848 0.00402608 0.00258878 0.00945987 0.00313077 0.00655913 0.00989174 0.04090315 0.00855453 0.02247925 0.00224631 0.03021790 0.19368243 0.04216216 0.02016593 
0.00390334 0.01596893 0.00388285 0.00253161 0.00935363 0.00309413 0.00638591 0.00990536 0.04001365 0.00844729 0.02256934 0.00225881 0.03013007 0.19195607 0.04187696 0.02099512 
0.00387718 0.01489308 0.00374573 0.00247519 0.00925214 0.00305510 0.00621900 0.00991165 0.03910215 0.00835693 0.02267469 0.00227068 0.03000971 0.19016503 0.04158043 0.02182184 
0.00391123 0.01388706 0.00361542 0.00241986 0.00915592 0.00301383 0.00605904 0.00991084 0.03817238 0.00828431 0.02279562 0.00228189 0.02985867 0.18832019 0.04127446 0.02264180 
0.00400541 0.01295685 0.00349255 0.00236598 0.00906538 0.00297051 0.00590668 0.00990321 0.03722830 0.00823027 0.02293246 0.00229243 0.02967895 0.18643248 0.04096093 0.02345078 
0.00415939 0.01210817 0.00337775 0.00231391 0.00898094 0.00292533 0.00576254 0.00988909 0.03627402 0.00819550 0.02308545 0.00230230 0.02947272 0.18451276 0.04064171 0.02424461 
0.00437257 0.01134653 0.00327158 0.00226399 0.00890291 0.00287849 0.00562721 0.00986882 0.03531386 0.00818065 0.02325483 0.00231149 0.02924228 0.18257180 0.04031862 0.02501922 
0.00464406 0.01067715 0.00317459 0.00221658 0.00883156 0.00283019 0.00550127 0.00984280 0.03435229 0.00818625 0.02344076 0.00231999 0.02899006 0.18062016 0.03999343 0.02577063 
0.00497276 0.01010494 0.00308724 0.00217199 0.00876712 0.00278066 0.00538525 0.00981145 0.03339395 0.00821275 0.02364340 0.00232781 0.02871862 0.17866814 0.03966786 0.02649502 
0.00535727 0.00963447 0.00300997 0.00213056 0.00870972 0.00273011 0.00527968 0.00977520 0.03244362 0.00826048 0.02386281 0.00233493 0.02843057 0.17672570 0.03934354 0.02718869 
0.00579598 0.00926996 0.00294317 0.00209259 0.00865946 0.00267879 0.00518502 0.00973454 0.03150622 0.00832970 0.02409902 0.00234136 0.02812864 0.17480243 0.03902202 0.02784812 
0.00628700 0.00901524 0.00288717 0.00205836 0.00861637 0.00262692 0.00510173 0.00968997 0.03058678 0.00842054 0.02435201 0.00234711 0.02781559 0.17290745 0.03870473 0.02846997 
0.00682824 0.00887374 0.00284224 0.00202815 0.00858044 0.00257475 0.00503021 0.00964200 0.02969041 0.00853304 0.02462170 0.00235217 0.02749423 0.17104936 0.03839300 0.02905109 
0.00741736 0.00884845 0.00280858 0.00200222 0.00855156 0.00252252 0.00497082 0.00959117 0.02882234 0.00866711 0.02490794 0.00235655 0.02716741 0.16923620 0.03808806 0.02958858 
0.00805184 0.00894190 0.00278638 0.00198080 0.00852962 0.00247046 0.00492389 0.00953804 0.02798782 0.00882259 0.02521053 0.00236026 0.02683796 0.16747539 0.03779098 0.03007972 
0.00872892 0.00915615 0.00277572 0.00196409 0.00851442 0.00241882 0.00488969 0.00948316 0.02719215 0.00899919 0.02552920 0.00236331 0.02650873 0.16577370 0.03750270 0.03052206 
0.00944569 0.00949279 0.00277664 0.00195229 0.00850572 0.00236784 0.00486845 0.00942712 0.02644065 0.00919651 0.02586363 0.00236572 0.02618252 0.16413717 0.03722403 0.03091342 
0.01019902 0.00995289 0.00278914 0.00194555 0.00850325 0.00231776 0.00486036 0.00937051 0.02573862 0.00941407 0.02621341 0.00236748 0.02586209 0.16257114 0.03695561 0.03125183 
0.01098567 0.01053701 0.00281313 0.00194401 0.00850667 0.00226879 0.00486556 0.00931389 0.02509133 0.00965126 0.02657809 0.00236862 0.02555015 0.16108017 0.03669796 0.03153565 
0.01180221 0.01124518 0.00284848 0.00194778 0.00851562 0.00222116 0.00488412 0.00925787 0.02450398 0.00990739 0.02695712 0.00236916 0.02524932 0.15966803 0.03645141 0.03176347 
0.01264511 0.01207691 0.00289501 0.00195693 0.00852971 0.00217510 0.00491607 0.00920302 0.02398170 0.01018166 0.02734992 0.00236911 0.02496214 0.15833771 0.03621615 0.03193420 
0.01351071 0.01303115 0.00295247 0.00197151 0.00854849 0.00213079 0.00496139 0.00914993 0.02352947 0.01047319 0.02775580 0.00236848 0.02469105 0.15709138 0.03599223 0.03204700 
0.01439526 0.01410633 0.00302056 0.00199154 0.00857152 0.00208845 0.00502001 0.00909916 0.02315214 0.01078101 0.02817403 0.00236731 0.02443834 0.15593040 0.03577951 0.03210134 
0.01529493 0.01530033 0.00309893 0.00201701 0.00859832 0.00204824 0.00509180 0.00905127 0.02285438 0.01110403 0.02860380 0.00236560 0.02420620 0.15485532 0.03557774 0.03209698 
0.01620583 0.01661048 0.00318719 0.00204789 0.00862838 0.00201034 0.00517656 0.00900681 0.02264064 0.01144113 0.02904422 0.00236339 0.02399666 0.15386589 0.03538649 0.03203396 
0.01712403 0.01803359 0.00328489 0.00208409 0.00866121 0.00197491 0.00527406 0.00896631 0.02251516 0.01179109 0.02949436 0.00236069 0.02381160 0.15296108 0.03520520 0.03191262 
0.01804557 0.01956593 0.00339153 0.00212551 0.00869628 0.00194209 0.00538401 0.00893026 0.02248187 0.01215261 0.02995318 0.00235753 0.02365274 0.15213911 0.03503319 0.03173355 
0.01896649 0.02120328 0.00350659 0.00217203 0.00873308 0.00191200 0.00550604 0.00889916 0.02254444 0.01252434 0.03041962 0.00235393 0.02352160 0.15139745 0.03486963 0.03149766 
0.01988283 0.02294088 0.00362949 0.00222349 0.00877108 0.00188475 0.00563976 0.00887345 0.02270618 0.01290488 0.03089250 0.00234992 0.02341955 0.15073287 0.03471359 0.03120610 
0.02079070 0.02477350 0.00375964 0.00227969 0.00880976 0.00186043 0.00578472 0.00885358 0.02297007 0.01329276 0.03137064 0.00234553 0.02334776 0.15014149 0.03456403 0.03086029 
0.02168621 0.02669545 0.00389639 0.00234042 0.00884863 0.00183913 0.00594040 0.00883995 0.02333869 0.01368648 0.03185274 0.00234079 0.02330719 0.14961879 0.03441979 0.03046190 
0.02256557 0.02870058 0.00403908 0.00240544 0.00888719 0.00182088 0.00610626 0.00883291 0.02381420 0.01408451 0.03233748 0.00233572 0.02329862 0.14915969 0.03427967 0.03001286 
0.02342507 0.03078230 0.00418702 0.00247447 0.00892496 0.00180574 0.00628167 0.00883279 0.02439834 0.01448526 0.03282347 0.00233034 0.02332262 0.14875860 0.03414236 0.02951531 
0.02426112 0.03293365 0.00433951 0.00254723 0.00896149 0.00179373 0.00646600 0.00883991 0.02509238 0.01488716 0.03330927 0.00232470 0.02337956 0.14840943 0.03400651 0.02897162 
0.02507022 0.03514728 0.00449582 0.00262339 0.00899635 0.00178483 0.00665855 0.00885450 0.02589711 0.01528860 0.03379339 0.00231880 0.02346960 0.14810572 0.03387072 0.02838436 
0.02584904 0.03741549 0.00465521 0.00270262 0.00902913 0.00177904 0.00685858 0.00887680 0.02681281 0.01568797 0.03427430 0.00231270 0.02359271 0.14784065 0.03373355 0.02775629 
0.02659438 0.03973028 0.00481694 0.00278456 0.00905945 0.00177633 0.00706532 0.00890696 0.02783924 0.01608367 0.03475043 0.00230640 0.02374862 0.14760710 0.03359357 0.02709037 
0.02730322 0.04208338 0.00498026 0.00286884 0.00908697 0.00177663 0.00727795 0.00894513 0.02897564 0.01647409 0.03522019 0.00229995 0.02393692 0.14739776 0.03344932 0.02638968 
0.02797273 0.04446625 0.00514441 0.00295506 0.00911138 0.00177987 0.00749563 0.00899138 0.03022069 0.01685766 0.03568194 0.00229336 0.02415694 0.14720514 0.03329938 0.02565747 
0.02860027 0.04687018 0.00530865 0.00304283 0.00913240 0.00178597 0.00771749 0.00904577 0.03157251 0.01723282 0.03613403 0.00228666 0.02440785 0.14702169 0.03314233 0.02489713 
0.02918340 0.04928627 0.00547224 0.00313172 0.00914979 0.00179482 0.00794264 0.00910828 0.03302866 0.01759806 0.03657479 0.00227988 0.02468865 0.14683982 0.03297681 0.02411212 
0.02971992 0.05170551 0.00563445 0.00322132 0.00916335 0.00180630 0.00817016 0.00917887 0.03458613 0.01795189 0.03700256 0.00227305 0.02499813 0.14665199 0.03280152 0.02330603 
0.03020785 0.05411878 0.00579456 0.00331118 0.00917291 0.00182028 0.00839910 0.00925744 0.03624137 0.01829287 0.03741566 0.00226618 0.02533492 0.14645080 0.03261522 0.02248250 
0.03064544 0.05651694 0.00595187 0.00340088 0.00917833 0.00183660 0.00862852 0.00934385 0.03799023 0.01861964 0.03781243 0.00225931 0.02569749 0.14622898 0.03241675 0.02164526 
0.03103121 0.05889084 0.00610570 0.00348996 0.00917954 0.00185510 0.00885747 0.00943792 0.03982802 0.01893087 0.03819122 0.00225244 0.02608414 0.14597953 0.03220505 0.02079803 
0.03136391 0.06123136 0.00625540 0.00357800 0.00917647 0.00187561 0.00908497 0.00953939 0.04174953 0.01922530 0.03855040 0.00224561 0.02649306 0.14569573 0.03197919 0.01994460 
0.03164258 0.06352947 0.00640034 0.00366455 0.00916910 0.00189793 0.00931006 0.00964800 0.04374898 0.01950177 0.03888839 0.00223882 0.02692228 0.14537122 0.03173831 0.01908873 
0.03186648 0.06577627 0.00653992 0.00374918 0.00915744 0.00192189 0.00953178 0.00976343 0.04582012 0.01975917 0.03920363 0.00223210 0.02736970 0.14500002 0.03148173 0.01823419 
0.03203517 0.06796302 0.00667357 0.00383146 0.00914155 0.00194726 0.00974919 0.00988530 0.04795618 0.01999649 0.03949463 0.00222547 0.02783314 0.14457664 0.03120886 0.01738470 
0.03214846 0.07008118 0.00680077 0.00391097 0.00912149 0.00197385 0.00996134 0.01001322 0.05014995 0.02021280 0.03975995 0.00221893 0.02831029 0.14409605 0.03091929 0.01654396 
0.03220645 0.07212247 0.00692100 0.00398731 0.00909738 0.00200143 0.01016731 0.01014674 0.05239378 0.02040726 0.03999823 0.00221249 0.02879879 0.14355378 0.03061274 0.01571557 
0.03220946 0.07407890 0.00703382 0.00406008 0.00906934 0.00202979 0.01036621 0.01028536 0.05467962 0.02057913 0.04020818 0.00220618 0.02929618 0.14294590 0.03028909 0.01490308 
0.03215812 0.07594279 0.00713879 0.00412890 0.00903754 0.00205871 0.01055715 0.01042859 0.05699906 0.02072778 0.04038861 0.00219998 0.02979995 0.14226909 0.02994838 0.01410993 
0.03205329 0.07770686 0.00723555 0.00419341 0.00900215 0.00208794 0.01073931 0.01057586 0.05934336 0.02085267 0.04053842 0.00219392 0.03030754 0.14152068 0.02959082 0.01333947 
0.03189608 0.07936418 0.00732375 0.00425327 0.00896337 0.00211729 0.01091186 0.01072660 0.06170350 0.02095335 0.04065662 0.00218799 0.03081636 0.14069860 0.02921675 0.01259491 
0.03168787 0.08090829 0.00740308 0.00430815 0.00892141 0.00214651 0.01107405 0.01088019 0.06407024 0.02102952 0.04074234 0.00218220 0.03132381 0.13980146 0.02882672 0.01187932 
0.03143025 0.08233319 0.00747331 0.00435776 0.00887650 0.00217539 0.01122514 0.01103601 0.06643413 0.02108094 0.04079485 0.00217655 0.03182728 0.13882852 0.02842139 0.01119565 
0.03112505 0.08363335 0.00753421 0.00440181 0.00882887 0.00220372 0.01136446 0.01119340 0.06878558 0.02110749 0.04081353 0.00217103 0.03232417 0.13777971 0.02800163 0.01054666 
0.03077432 0.08480381 0.00758562 0.00444007 0.00877877 0.00223128 0.01149138 0.01135170 0.07111494 0.02110918 0.04079793 0.00216564 0.03281188 0.13665560 0.02756841 0.00993497 
0.03038030 0.08584010 0.00762740 0.00447231 0.00872644 0.00225787 0.01160532 0.01151021 0.07341249 0.02108610 0.04074774 0.00216038 0.03328789 0.13545744 0.02712289 0.00936298 
0.02994545 0.08673835 0.00765949 0.00449833 0.00867214 0.00228330 0.01170575 0.01166825 0.07566856 0.02103845 0.04066279 0.00215525 0.03374969 0.13418710 0.02666634 0.00883295 
0.02947240 0.08749529 0.00768184 0.00451797 0.00861611 0.00230737 0.01179222 0.01182510 0.07787354 0.02096655 0.04054312 0.00215022 0.03419485 0.13284705 0.02620018 0.00834692 
0.02896392 0.08810821 0.00769444 0.00453109 0.00855859 0.00232991 0.01186433 0.01198008 0.08001797 0.02087079 0.04038889 0.00214531 0.03462100 0.13144038 0.02572595 0.00790671 
0.02842297 0.08857506 0.00769734 0.00453759 0.00849984 0.00235075 0.01192173 0.01213247 0.08209254 0.02075169 0.04020049 0.00214049 0.03502586 0.12997072 0.02524528 0.00751396 
0.02785261 0.08889440 0.00769062 0.00453738 0.00844007 0.00236975 0.01196415 0.01228157 0.08408823 0.02060985 0.03997845 0.00213575 0.03540725 0.12844223 0.02475993 0.00717009 
0.02725605 0.08906542 0.00767439 0.00453044 0.00837951 0.00238675 0.01199139 0.01242671 0.08599629 0.02044596 0.03972350 0.00213109 0.03576309 0.12685956 0.02427174 0.00687629 
0.02663658 0.08908795 0.00764881 0.00451674 0.00831837 0.00240165 0.01200329 0.01256719 0.08780833 0.02026081 0.03943655 0.00212648 0.03609143 0.12522780 0.02378261 0.00663354 
0.02599757 0.08896248 0.00761407 0.00449632 0.00825684 0.00241431 0.01199980 0.01270238 0.08951638 0.02005526 0.03911872 0.00212193 0.03639042 0.12355245 0.02329451 0.00644258 
0.02534248 0.08869011 0.00757038 0.00446921 0.00819511 0.00242465 0.01198089 0.01283162 0.09111290 0.01983024 0.03877129 0.00211742 0.03665837 0.12183935 0.02280947 0.00630395 
0.02467480 0.08827258 0.00751801 0.00443550 0.00813333 0.00243258 0.01194664 0.01295431 0.09259089 0.01958679 0.03839575 0.00211293 0.03689372 0.12009463 0.02232953 0.00621796 
0.02399806 0.08771227 0.00745724 0.00439532 0.00807166 0.00243805 0.01189718 0.01306987 0.09394386 0.01932598 0.03799376 0.00210845 0.03709508 0.11832470 0.02185674 0.00618467 
0.02331578 0.08701216 0.00738836 0.00434879 0.00801022 0.00244099 0.01183271 0.01317775 0.09516595 0.01904895 0.03756717 0.00210398 0.03726118 0.11653614 0.02139319 0.00620395 
0.02263152 0.08617582 0.00731173 0.00429610 0.00794913 0.00244138 0.01175348 0.01327743 0.09625192 0.01875691 0.03711802 0.00209950 0.03739094 0.11473565 0.02094091 0.00627543 
0.02194877 0.08520742 0.00722770 0.00423745 0.00788848 0.00243921 0.01165983 0.01336844 0.09719720 0.01845110 0.03664851 0.00209501 0.03748345 0.11293006 0.02050192 0.00639854 
0.02127100 0.08411168 0.00713664 0.00417307 0.00782835 0.00243447 0.01155216 0.01345036 0.09799793 0.01813283 0.03616100 0.00209049 0.03753796 0.11112616 0.02007820 0.00657248 
0.02060163 0.08289384 0.00703897 0.00410321 0.00776879 0.00242718 0.01143091 0.01352279 0.09865097 0.01780342 0.03565802 0.00208593 0.03755391 0.10933076 0.01967165 0.00679624 
0.01994400 0.08155969 0.00693509 0.00402817 0.00770987 0.00241738 0.01129660 0.01358539 0.09915395 0.01746422 0.03514226 0.00208135 0.03753090 0.10755056 0.01928410 0.00706864 
0.01930134 0.08011548 0.00682543 0.00394824 0.00765160 0.00240511 0.01114980 0.01363790 0.09950525 0.01711663 0.03461651 0.00207673 0.03746872 0.10579211 0.01891729 0.00738828 
0.01867681 0.07856791 0.00671045 0.00386376 0.00759400 0.00239044 0.01099113 0.01368006 0.09970407 0.01676205 0.03408374 0.00207206 0.03736735 0.10406178 0.01857287 0.00775357 
0.01807343 0.07692412 0.00659059 0.00377507 0.00753708 0.00237345 0.01082126 0.01371171 0.09975037 0.01640188 0.03354698 0.00206736 0.03722693 0.10236571 0.01825234 0.00816275 
0.01749408 0.07519162 0.00646632 0.00368256 0.00748082 0.00235423 0.01064091 0.01373272 0.09964494 0.01603753 0.03300941 0.00206263 0.03704779 0.10070970 0.01795709 0.00861390 
0.01694151 0.07337829 0.00633812 0.00358659 0.00742523 0.00233290 0.01045085 0.01374304 0.09938935 0.01567042 0.03247426 0.00205787 0.03683045 0.09909928 0.01768836 0.00910492 
0.01641829 0.07149230 0.00620644 0.00348759 0.00737027 0.00230958 0.01025188 0.01374265 0.09898599 0.01530195 0.03194483 0.00205310 0.03657558 0.09753955 0.01744726 0.00963358 
0.01592683 0.06954213 0.00607178 0.00338596 0.00731591 0.00228439 0.01004483 0.01373161 0.09843801 0.01493350 0.03142450 0.00204831 0.03628404 0.09603524 0.01723471 0.01019749 
0.01546937 0.06753647 0.00593462 0.00328213 0.00726214 0.00225750 0.00983058 0.01371004 0.09774934 0.01456643 0.03091667 0.00204354 0.03595686 0.09459061 0.01705148 0.01079414 
0.01504794 0.06548421 0.00579542 0.00317655 0.00720892 0.00222904 0.00961002 0.01367812 0.09692464 0.01420207 0.03042473 0.00203879 0.03559522 0.09320944 0.01689816 0.01142093 
0.01466438 0.06339440 0.00565467 0.00306965 0.00715623 0.00219920 0.00938408 0.01363606 0.09596931 0.01384173 0.02995212 0.00203408 0.03520046 0.09189506 0.01677515 0.01207511 
0.01432034 0.06127619 0.00551284 0.00296190 0.00710405 0.00216814 0.00915368 0.01358417 0.09488942 0.01348667 0.02950220 0.00202944 0.03477407 0.09065023 0.01668268 0.01275388 
0.01401724 0.05913882 0.00537039 0.00285375 0.00705236 0.00213605 0.00891980 0.01352279 0.09369171 0.01313810 0.02907834 0.00202490 0.03431769 0.08947722 0.01662078 0.01345434 
0.01375629 0.05699154 0.00522780 0.00274566 0.00700116 0.00210312 0.00868338 0.01345232 0.09238353 0.01279718 0.02868381 0.00202047 0.03383308 0.08837774 0.01658932 0.01417354 
0.01353848 0.05484358 0.00508549 0.00263808 0.00695047 0.00206954 0.00844539 0.01337321 0.09097280 0.01246504 0.02832181 0.00201619 0.03332213 0.08735296 0.01658794 0.01490848 
0.01336459 0.05270413 0.00494393 0.00253147 0.00690029 0.00203551 0.00820681 0.01328597 0.08946798 0.01214271 0.02799545 0.00201209 0.03278685 0.08640353 0.01661613 0.01565610 
0.01323516 0.05058228 0.00480355 0.00242629 0.00685066 0.00200124 0.00796861 0.01319114 0.08787797 0.01183120 0.02770768 0.00200821 0.03222937 0.08552955 0.01667318 0.01641334 
0.01315054 0.04848696 0.00466475 0.00232297 0.00680165 0.00196692 0.00773173 0.01308933 0.08621213 0.01153144 0.02746135 0.00200458 0.03165188 0.08473059 0.01675821 0.01717715 
0.01311082 0.04642694 0.00452796 0.00222195 0.00675331 0.00193276 0.00749713 0.01298117 0.08448017 0.01124427 0.02725911 0.00200124 0.03105669 0.08400572 0.01687017 0.01794444 
0.01311591 0.04441078 0.00439357 0.00212366 0.00670576 0.00189897 0.00726573 0.01286732 0.08269210 0.01097048 0.02710345 0.00199822 0.03044617 0.08335353 0.01700784 0.01871218 
0.01316548 0.04244676 0.00426195 0.00202851 0.00665910 0.00186575 0.00703845 0.01274851 0.08085820 0.01071078 0.02699665 0.00199558 0.02982275 0.08277212 0.01716984 0.01947736 
0.01325901 0.04054288 0.00413347 0.00193690 0.00661347 0.00183330 0.00681618 0.01262546 0.07898892 0.01046581 0.02694076 0.00199335 0.02918891 0.08225920 0.01735466 0.02023702 
0.01339577 0.03870683 0.00400850 0.00184922 0.00656903 0.00180181 0.00659977 0.01249893 0.07709484 0.01023613 0.02693762 0.00199156 0.02854718 0.08181202 0.01756065 0.02098827 
0.01357482 0.03694592 0.00388735 0.00176582 0.00652596 0.00177149 0.00639006 0.01236971 0.07518661 0.01002220 0.02698879 0.00199028 0.02790012 0.08142753 0.01778603 0.02172827 
0.01379505 0.03526708 0.00377034 0.00168706 0.00648449 0.00174250 0.00618783 0.01223859 0.07327489 0.00982444 0.02709559 0.00198952 0.02725028 0.08110229 0.01802891 0.02245431 
0.01405517 0.03367683 0.00365779 0.00161325 0.00644483 0.00171504 0.00599385 0.01210638 0.07137025 0.00964314 0.02725903 0.00198935 0.02660023 0.08083262 0.01828733 0.02316375 
0.01435371 0.03218124 0.00354997 0.00154472 0.00640725 0.00168928 0.00580884 0.01197389 0.06948316 0.00947855 0.02747986 0.00198979 0.02595253 0.08061457 0.01855921 0.02385407 
0.01468904 0.03078592 0.00344714 0.00148173 0.00637203 0.00166537 0.00563347 0.01184194 0.06762390 0.00933083 0.02775851 0.00199089 0.02530972 0.08044402 0.01884243 0.02452289 
0.01505939 0.02949598 0.00334957 0.00142454 0.00633946 0.00164347 0.00546839 0.01171133 0.06580252 0.00920004 0.02809509 0.00199268 0.02467430 0.08031668 0.01913481 0.02516795 
0.01546285 0.02831603 0.00325746 0.00137339 0.00630987 0.00162373 0.00531417 0.01158286 0.06402875 0.00908619 0.02848943 0.00199520 0.02404873 0.08022817 0.01943415 0.02578714 
0.01589737 0.02725015 0.00317105 0.00132848 0.00628359 0.00160627 0.00517135 0.01145733 0.06231199 0.00898918 0.02894099 0.00199849 0.02343540 0.08017406 0.01973821 0.02637851 
0.01636080 0.02630188 0.00309051 0.00128998 0.00626099 0.00159121 0.00504043 0.01133550 0.06066123 0.00890888 0.02944895 0.00200256 0.02283665 0.08014991 0.02004477 0.02694027 
0.01685090 0.02547421 0.00301602 0.00125806 0.00624243 0.00157867 0.00492184 0.01121812 0.05908499 0.00884503 0.03001213 0.00200746 0.02225473 0.08015134 0.02035161 0.02747081 
0.01736532 0.02476958 0.00294774 0.00123282 0.00622830 0.00156874 0.00481598 0.01110590 0.05759132 0.00879734 0.03062904 0.00201321 0.02169180 0.08017406 0.02065654 0.02796868 
0.01790165 0.02418985 0.00288580 0.00121436 0.00621898 0.00156149 0.00472317 0.01099953 0.05618771 0.00876545 0.03129786 0.00201982 0.02114993 0.08021390 0.02095743 0.02843264 
0.01845742 0.02373630 0.00283032 0.00120276 0.00621488 0.00155701 0.00464371 0.01089965 0.05488109 0.00874890 0.03201647 0.00202730 0.02063108 0.08026691 0.02125220 0.02886163 
0.01903011 0.02340966 0.00278140 0.00119803 0.00621640 0.00155535 0.00457781 0.01080689 0.05367775 0.00874720 0.03278242 0.00203568 0.02013709 0.08032933 0.02153884 0.02925476 
0.01961717 0.02321008 0.00273910 0.00120019 0.00622394 0.00155653 0.00452567 0.01072179 0.05258337 0.00875979 0.03359296 0.00204496 0.01966967 0.08039769 0.02181547 0.02961138 
0.02021605 0.02313713 0.00270349 0.00120922 0.00623790 0.00156060 0.00448741 0.01064489 0.05160294 0.00878605 0.03444506 0.00205514 0.01923041 0.08046881 0.02208026 0.02993101 
0.02082416 0.02318983 0.00267461 0.00122505 0.00625867 0.00156757 0.00446310 0.01057665 0.05074077 0.00882532 0.03533541 0.00206621 0.01882076 0.08053986 0.02233154 0.03021337 
0.02143894 0.02336666 0.00265247 0.00124762 0.00628662 0.00157743 0.00445276 0.01051748 0.05000046 0.00887688 0.03626042 0.00207817 0.01844201 0.08060836 0.02256776 0.03045838 
0.02205787 0.02366555 0.00263708 0.00127680 0.00632214 0.00159016 0.00445637 0.01046775 0.04938491 0.00893997 0.03721628 0.00209099 0.01809531 0.08067222 0.02278748 0.03066617 
0.02267843 0.02408388 0.00262840 0.00131247 0.00636556 0.00160575 0.00447385 0.01042777 0.04889627 0.00901380 0.03819893 0.00210467 0.01778168 0.08072978 0.02298945 0.03083705 
0.02329817 0.02461856 0.00262640 0.00135446 0.00641722 0.00162413 0.00450509 0.01039777 0.04853596 0.00909752 0.03920412 0.00211917 0.01750194 0.08077979 0.02317255 0.03097152 
0.02391470 0.02526598 0.00263102 0.00140258 0.00647741 0.00164527 0.00454991 0.01037795 0.04830471 0.00919029 0.04022741 0.00213446 0.01725679 0.08082146 0.02333585 0.03107027 
0.02452569 0.02602206 0.00264217 0.00145662 0.00654641 0.00166908 0.00460809 0.01036844 0.04820247 0.00929121 0.04126420 0.00215050 0.01704673 0.08085443 0.02347855 0.03113418 
0.02512890 0.02688229 0.00265975 0.00151634 0.00662446 0.00169549 0.00467940 0.01036929 0.04822853 0.00939937 0.04230973 0.00216724 0.01687213 0.08087880 0.02360007 0.03116428 
0.02572218 0.02784171 0.00268365 0.00158148 0.00671176 0.00172440 0.00476353 0.01038053 0.04838145 0.00951385 0.04335916 0.00218464 0.01673318 0.08089514 0.02369996 0.03116178 
0.02630348 0.02889497 0.00271372 0.00165175 0.00680848 0.00175571 0.00486015 0.01040210 0.04865910 0.00963371 0.04440755 0.00220264 0.01662991 0.08090445 0.02377799 0.03112805 
0.02687087 0.03003634 0.00274980 0.00172685 0.00691474 0.00178929 0.00496889 0.01043388 0.04905872 0.00975801 0.04544989 0.00222117 0.01656220 0.08090815 0.02383407 0.03106459 
0.02742252 0.03125977 0.00279171 0.00180647 0.00703063 0.00182503 0.00508935 0.01047571 0.04957690 0.00988581 0.04648116 0.00224017 0.01652975 0.08090811 0.02386832 0.03097307 
0.02795674 0.03255886 0.00283924 0.00189026 0.00715618 0.00186278 0.00522109 0.01052736 0.05020959 0.01001617 0.04749633 0.00225956 0.01653212 0.08090658 0.02388101 0.03085524 
0.02847195 0.03392695 0.00289219 0.00197787 0.00729136 0.00190241 0.00536366 0.01058856 0.05095222 0.01014815 0.04849040 0.00227926 0.01656873 0.08090618 0.02387259 0.03071301 
0.02896675 0.03535715 0.00295031 0.00206893 0.00743612 0.00194375 0.00551657 0.01065896 0.05179961 0.01028084 0.04945841 0.00229919 0.01663881 0.08090989 0.02384366 0.03054835 
0.02943982 0.03684230 0.00301335 0.00216307 0.00759033 0.00198665 0.00567929 0.01073819 0.05274613 0.01041333 0.05039551 0.00231927 0.01674149 0.08092101 0.02379499 0.03036336 
0.02989003 0.03837511 0.00308103 0.00225988 0.00775382 0.00203094 0.00585130 0.01082583 0.05378564 0.01054474 0.05129694 0.00233939 0.01687575 0.08094311 0.02372749 0.03016019 
0.03031637 0.03994811 0.00315305 0.00235898 0.00792636 0.00207645 0.00603204 0.01092139 0.05491158 0.01067421 0.05215809 0.00235946 0.01704043 0.08097999 0.02364222 0.02994105 
0.03071800 0.04155373 0.00322912 0.00245996 0.00810767 0.00212300 0.00622094 0.01102437 0.05611700 0.01080091 0.05297452 0.00237938 0.01723427 0.08103566 0.02354034 0.02970823 
0.03109420 0.04318433 0.00330889 0.00256240 0.00829741 0.00217042 0.00641741 0.01113422 0.05739460 0.01092406 0.05374197 0.00239905 0.01745586 0.08111428 0.02342315 0.02946402 
0.03144441 0.04483222 0.00339204 0.00266590 0.00849519 0.00221852 0.00662085 0.01125035 0.05873678 0.01104288 0.05445642 0.00241837 0.01770372 0.08122014 0.02329205 0.02921076 
0.03176821 0.04648969 0.00347820 0.00277003 0.00870057 0.00226711 0.00683065 0.01137215 0.06013568 0.01115666 0.05511407 0.00243722 0.01797624 0.08135757 0.02314853 0.02895078 
0.03206535 0.04814908 0.00356700 0.00287439 0.00891304 0.00231602 0.00704620 0.01149899 0.06158321 0.01126473 0.05571140 0.00245551 0.01827175 0.08153091 0.02299415 0.02868641 
0.03233567 0.04980279 0.00365806 0.00297856 0.00913206 0.00236505 0.00726686 0.01163020 0.06307113 0.01136644 0.05624517 0.00247311 0.01858847 0.08174448 0.02283054 0.02841998 
0.03257920 0.05144330 0.00375097 0.00308214 0.00935703 0.00241402 0.00749201 0.01176511 0.06459108 0.01146123 0.05671244 0.00248993 0.01892458 0.08200250 0.02265938 0.02815376 
0.03279605 0.05306325 0.00384535 0.00318473 0.00958731 0.00246276 0.00772101 0.01190302 0.06613459 0.01154855 0.05711060 0.00250585 0.01927817 0.08230906 0.02248237 0.02789000 
0.03298649 0.05465541 0.00394076 0.00328593 0.00982221 0.00251107 0.00795324 0.01204324 0.06769318 0.01162792 0.05743736 0.00252077 0.01964729 0.08266807 0.02230123 0.02763090 
0.03315089 0.05621278 0.00403678 0.00338536 0.01006101 0.00255878 0.00818806 0.01218507 0.06925838 0.01169893 0.05769079 0.00253459 0.02002997 0.08308319 0.02211770 0.02737855 
0.03328975 0.05772854 0.00413298 0.00348266 0.01030294 0.00260572 0.00842485 0.01232779 0.07082176 0.01176119 0.05786932 0.00254720 0.02042417 0.08355782 0.02193348 0.02713503 
0.03340367 0.05919618 0.00422892 0.00357746 0.01054722 0.00265173 0.00866297 0.01247070 0.07237497 0.01181440 0.05797175 0.00255850 0.02082786 0.08409504 0.02175027 0.02690227 
0.03349332 0.06060943 0.00432416 0.00366942 0.01079301 0.00269663 0.00890181 0.01261310 0.07390981 0.01185831 0.05799725 0.00256839 0.02123900 0.08469754 0.02156970 0.02668214 
0.03355950 0.06196234 0.00441827 0.00375822 0.01103946 0.00274028 0.00914075 0.01275432 0.07541826 0.01189270 0.05794538 0.00257680 0.02165553 0.08536764 0.02139337 0.02647639 
0.03360305 0.06324931 0.00451079 0.00384354 0.01128572 0.00278253 0.00937919 0.01289368 0.07689249 0.01191746 0.05781605 0.00258362 0.02207542 0.08610718 0.02122279 0.02628668 
0.03362492 0.06446506 0.00460129 0.00392511 0.01153089 0.00282324 0.00961652 0.01303053 0.07832491 0.01193248 0.05760958 0.00258879 0.02249665 0.08691757 0.02105939 0.02611451 
0.03362609 0.06560472 0.00468933 0.00400264 0.01177409 0.00286228 0.00985217 0.01316423 0.07970823 0.01193777 0.05732666 0.00259223 0.02291723 0.08779969 0.02090451 0.02596130 
0.03360760 0.06666380 0.00477448 0.00407588 0.01201442 0.00289951 0.01008555 0.01329417 0.08103544 0.01193335 0.05696833 0.00259388 0.02333521 0.08875391 0.02075939 0.02582831 
0.03357054 0.06763823 0.00485632 0.00414463 0.01225099 0.00293483 0.01031609 0.01341978 0.08229990 0.01191931 0.05653603 0.00259367 0.02374869 0.08978005 0.02062513 0.02571668 
0.03351602 0.06852437 0.00493443 0.00420866 0.01248291 0.00296813 0.01054325 0.01354050 0.08349531 0.01189581 0.05603151 0.00259155 0.02415583 0.09087737 0.02050273 0.02562740 
0.03344518 0.06931900 0.00500841 0.00426780 0.01270929 0.00299932 0.01076647 0.01365582 0.08461578 0.01186305 0.05545689 0.00258750 0.02455484 0.09204457 0.02039305 0.02556134 
0.03335918 0.07001937 0.00507788 0.00432190 0.01292928 0.00302831 0.01098523 0.01376525 0.08565582 0.01182128 0.05481460 0.00258146 0.02494401 0.09327976 0.02029681 0.02551921 
0.03325918 0.07062318 0.00514247 0.00437082 0.01314205 0.00305503 0.01119901 0.01386834 0.08661041 0.01177081 0.05410741 0.00257343 0.02532172 0.09458049 0.02021456 0.02550159 
0.03314633 0.07112861 0.00520182 0.00441447 0.01334678 0.00307940 0.01140732 0.01396468 0.08747494 0.01171201 0.05333834 0.00256339 0.02568641 0.09594372 0.02014675 0.02550893 
0.03302178 0.07153430 0.00525560 0.00445276 0.01354268 0.00310139 0.01160965 0.01405390 0.08824532 0.01164526 0.05251072 0.00255134 0.02603663 0.09736587 0.02009365 0.02554153 
0.03288664 0.07183934 0.00530351 0.00448564 0.01372903 0.00312093 0.01180555 0.01413568 0.08891791 0.01157101 0.05162811 0.00253729 0.02637103 0.09884279 0.02005536 0.02559955 
0.03274200 0.07204333 0.00534525 0.00451307 0.01390511 0.00313801 0.01199454 0.01420971 0.08948959 0.01148976 0.05069432 0.00252125 0.02668834 0.10036982 0.02003187 0.02568305 
0.03258894 0.07214630 0.00538056 0.00453507 0.01407028 0.00315260 0.01217620 0.01427576 0.08995776 0.01140202 0.04971336 0.00250327 0.02698741 0.10194179 0.02002298 0.02579193 
0.03242846 0.07214875 0.00540922 0.00455164 0.01422392 0.00316468 0.01235009 0.01433363 0.09032033 0.01130835 0.04868942 0.00248337 0.02726719 0.10355306 0.02002837 0.02592599 
0.03226153 0.07205166 0.00543103 0.00456284 0.01436548 0.00317426 0.01251581 0.01438314 0.09057572 0.01120933 0.04762686 0.00246163 0.02752676 0.10519755 0.02004756 0.02608489 
0.03208908 0.07185641 0.00544579 0.00456874 0.01449447 0.00318133 0.01267295 0.01442418 0.09072292 0.01110559 0.04653016 0.00243810 0.02776529 0.10686877 0.02007995 0.02626821 
0.03191195 0.07156484 0.00545339 0.00456943 0.01461044 0.00318593 0.01282116 0.01445668 0.09076142 0.01099775 0.04540393 0.00241287 0.02798208 0.10855989 0.02012478 0.02647542 
0.03173095 0.07117921 0.00545371 0.00456503 0.01471303 0.00318808 0.01296006 0.01448059 0.09069125 0.01088649 0.04425284 0.00238601 0.02817653 0.11026375 0.02018118 0.02670587 
0.03154681 0.07070217 0.00544668 0.00455568 0.01480191 0.00318781 0.01308933 0.01449592 0.09051297 0.01077247 0.04308162 0.00235763 0.02834817 0.11197292 0.02024819 0.02695886 
0.03136021 0.07013675 0.00543226 0.00454153 0.01487683 0.00318516 0.01320863 0.01450271 0.09022767 0.01065637 0.04189506 0.00232785 0.02849664 0.11367977 0.02032472 0.02723359 
0.03117173 0.06948637 0.00541046 0.00452276 0.01493763 0.00318020 0.01331767 0.01450103 0.08983694 0.01053890 0.04069791 0.00229678 0.02862170 0.11537650 0.02040958 0.02752920 
0.03098191 0.06875477 0.00538129 0.00449957 0.01498417 0.00317299 0.01341617 0.01449102 0.08934291 0.01042074 0.03949494 0.00226455 0.02872319 0.11705522 0.02050153 0.02784474 
0.03079120 0.06794603 0.00534485 0.00447218 0.01501641 0.00316359 0.01350386 0.01447281 0.08874819 0.01030260 0.03829086 0.00223131 0.02880111 0.11870799 0.02059924 0.02817926 
0.03060001 0.06706452 0.00530123 0.00444081 0.01503437 0.00315207 0.01358051 0.01444658 0.08805587 0.01018517 0.03709029 0.00219721 0.02885553 0.12032688 0.02070133 0.02853171 
0.03040864 0.06611489 0.00525058 0.00440570 0.01503812 0.00313853 0.01364590 0.01441255 0.08726952 0.01006912 0.03589780 0.00216240 0.02888663 0.12190404 0.02080638 0.02890104 
0.03021737 0.06510203 0.00519309 0.00436711 0.01502781 0.00312304 0.01369982 0.01437095 0.08639318 0.00995514 0.03471783 0.00212706 0.02889469 0.12343175 0.02091295 0.02928616 
0.03002637 0.06403107 0.00512896 0.00432531 0.01500364 0.00310571 0.01374212 0.01432206 0.08543131 0.00984386 0.03355467 0.00209135 0.02888009 0.12490249 0.02101958 0.02968597 
0.02983579 0.06290733 0.00505846 0.00428057 0.01496589 0.00308663 0.01377263 0.01426615 0.08438879 0.00973593 0.03241249 0.00205546 0.02884330 0.12630900 0.02112483 0.03009934 
0.02964570 0.06173627 0.00498186 0.00423317 0.01491487 0.00306591 0.01379125 0.01420353 0.08327088 0.00963196 0.03129526 0.00201958 0.02878486 0.12764432 0.02122725 0.03052517 
0.02945613 0.06052353 0.00489949 0.00418341 0.01485096 0.00304364 0.01379785 0.01413452 0.08208325 0.00953252 0.03020678 0.00198389 0.02870541 0.12890187 0.02132545 0.03096233 
0.02926704 0.05927484 0.00481169 0.00413156 0.01477459 0.00301994 0.01379239 0.01405947 0.08083188 0.00943817 0.02915065 0.00194860 0.02860564 0.13007548 0.02141806 0.03140973 
0.02907838 0.05799601 0.00471884 0.00407794 0.01468621 0.00299493 0.01377480 0.01397872 0.07952308 0.00934941 0.02813024 0.00191389 0.02848633 0.13115947 0.02150380 0.03186628 
0.02889003 0.05669291 0.00462135 0.00402284 0.01458636 0.00296871 0.01374507 0.01389263 0.07816344 0.00926672 0.02714872 0.00187997 0.02834831 0.13214868 0.02158144 0.03233091 
0.02870185 0.05537143 0.00451966 0.00396654 0.01447558 0.00294140 0.01370322 0.01380157 0.07675984 0.00919054 0.02620899 0.00184704 0.02819246 0.13303851 0.02164985 0.03280261 
0.02851368 0.05403747 0.00441421 0.00390935 0.01435445 0.00291311 0.01364927 0.01370590 0.07531934 0.00912125 0.02531373 0.00181529 0.02801971 0.13382497 0.02170799 0.03328037 
0.02832533 0.05269687 0.00430549 0.00385155 0.01422358 0.00288397 0.01358330 0.01360599 0.07384924 0.00905921 0.02446536 0.00178493 0.02783104 0.13450472 0.02175495 0.03376323 
0.02813660 0.05135545 0.00419399 0.00379342 0.01408361 0.00285408 0.01350541 0.01350222 0.07235696 0.00900470 0.02366604 0.00175615 0.02762745 0.13507509 0.02178990 0.03425029 
0.02794727 0.05001893 0.00408022 0.00373525 0.01393519 0.00282357 0.01341572 0.01339494 0.07085006 0.00895797 0.02291768 0.00172914 0.02740997 0.13553412 0.02181218 0.03474065 
0.02775714 0.04869291 0.00396471 0.00367728 0.01377898 0.00279254 0.01331440 0.01328450 0.06933620 0.00891922 0.02222191 0.00170409 0.02717966 0.13588057 0.02182125 0.03523350 
