0.01093446 0.00602276 0.00137258 0.00652186 0.00550038 0.00041301 0.00287533 0.00377296 0.01394387 0.00458145 0.00185922 0.00410043 0.00241749 0.00630772 0.00536452 0.00172234 
0.01099385 0.00590847 0.00137525 0.00647787 0.00530429 0.00034447 0.00284187 0.00364832 0.01414170 0.00438888 0.00181350 0.00404994 0.00237177 0.00625998 0.00536596 0.00170867 
0.01104989 0.00578843 0.00137895 0.00643161 0.00511768 0.00030698 0.00280664 0.00352562 0.01431350 0.00422750 0.00176893 0.00399907 0.00232810 0.00621233 0.00537080 0.00169418 
0.01110273 0.00566316 0.00138361 0.00638300 0.00494123 0.00030011 0.00276974 0.00340537 0.01445826 0.00409730 0.00172562 0.00394809 0.00228665 0.00616504 0.00537900 0.00167893 
0.01115252 0.00553316 0.00138917 0.00633198 0.00477555 0.00032329 0.00273126 0.00328804 0.01457510 0.00399813 0.00168372 0.00389724 0.00224761 0.00611836 0.00539051 0.00166303 
0.01119940 0.00539897 0.00139553 0.00627850 0.00462118 0.00037588 0.00269131 0.00317407 0.01466333 0.00392973 0.00164334 0.00384679 0.00221116 0.00607253 0.00540525 0.00164655 
0.01124351 0.00526112 0.00140260 0.00622252 0.00447861 0.00045712 0.00265000 0.00306390 0.01472238 0.00389173 0.00160460 0.00379698 0.00217748 0.00602777 0.00542316 0.00162960 
0.01128495 0.00512015 0.00141028 0.00616404 0.00434826 0.00056613 0.00260744 0.00295793 0.01475187 0.00388362 0.00156761 0.00374804 0.00214671 0.00598430 0.00544415 0.00161225 
0.01132382 0.00497661 0.00141846 0.00610306 0.00423048 0.00070197 0.00256377 0.00285653 0.01475159 0.00390480 0.00153245 0.00370020 0.00211902 0.00594230 0.00546811 0.00159460 
0.01136018 0.00483104 0.00142701 0.00603958 0.00412555 0.00086360 0.00251914 0.00276005 0.01472149 0.00395455 0.00149922 0.00365365 0.00209453 0.00590195 0.00549493 0.00157674 
0.01139408 0.00468398 0.00143581 0.00597364 0.00403368 0.00104989 0.00247368 0.00266881 0.01466168 0.00403206 0.00146799 0.00360861 0.00207339 0.00586339 0.00552449 0.00155876 
0.01142554 0.00453597 0.00144473 0.00590528 0.00395500 0.00125964 0.00242756 0.00258309 0.01457246 0.00413641 0.00143884 0.00356524 0.00205570 0.00582676 0.00555665 0.00154074 
0.01145454 0.00438755 0.00145362 0.00583458 0.00388958 0.00149159 0.00238092 0.00250312 0.01445430 0.00426660 0.00141183 0.00352373 0.00204157 0.00579217 0.00559125 0.00152278 
0.01148104 0.00423922 0.00146235 0.00576159 0.00383741 0.00174439 0.00233394 0.00242913 0.01430782 0.00442154 0.00138699 0.00348421 0.00203110 0.00575970 0.00562816 0.00150495 
0.01150496 0.00409152 0.00147075 0.00568642 0.00379839 0.00201666 0.00228678 0.00236128 0.01413383 0.00460003 0.00136438 0.00344683 0.00202436 0.00572942 0.00566718 0.00148734 
0.01152618 0.00394492 0.00147868 0.00560916 0.00377238 0.00230696 0.00223963 0.00229972 0.01393328 0.00480083 0.00134401 0.00341170 0.00202143 0.00570138 0.00570815 0.00147001 
0.01154457 0.00379992 0.00148598 0.00552992 0.00375916 0.00261379 0.00219265 0.00224454 0.01370729 0.00502260 0.00132591 0.00337891 0.00202235 0.00567560 0.00575088 0.00145305 
0.01155995 0.00365698 0.00149249 0.00544884 0.00375842 0.00293564 0.00214602 0.00219580 0.01345713 0.00526396 0.00131007 0.00334856 0.00202716 0.00565208 0.00579518 0.00143653 
0.01157210 0.00351654 0.00149805 0.00536605 0.00376981 0.00327094 0.00209994 0.00215354 0.01318421 0.00552345 0.00129649 0.00332070 0.00203590 0.00563081 0.00584084 0.00142050 
0.01158080 0.00337902 0.00150251 0.00528169 0.00379290 0.00361812 0.00205457 0.00211773 0.01289006 0.00579957 0.00128516 0.00329539 0.00204858 0.00561175 0.00588765 0.00140504 
0.01158577 0.00324484 0.00150572 0.00519592 0.00382720 0.00397556 0.00201010 0.00208833 0.01257638 0.00609076 0.00127605 0.00327264 0.00206519 0.00559484 0.00593540 0.00139019 
0.01158672 0.00311437 0.00150751 0.00510890 0.00387217 0.00434165 0.00196670 0.00206525 0.01224494 0.00639543 0.00126913 0.00325247 0.00208571 0.00558002 0.00598388 0.00137600 
0.01158335 0.00298797 0.00150774 0.00502079 0.00392720 0.00471478 0.00192455 0.00204837 0.01189764 0.00671195 0.00126434 0.00323487 0.00211013 0.00556720 0.00603286 0.00136253 
0.01157532 0.00286596 0.00150627 0.00493177 0.00399164 0.00509330 0.00188383 0.00203755 0.01153649 0.00703866 0.00126163 0.00321983 0.00213839 0.00555628 0.00608212 0.00134980 
0.01156229 0.00274866 0.00150295 0.00484202 0.00406478 0.00547561 0.00184469 0.00203260 0.01116354 0.00737389 0.00126094 0.00320730 0.00217045 0.00554714 0.00613144 0.00133786 
0.01154390 0.00263634 0.00149768 0.00475173 0.00414588 0.00586009 0.00180731 0.00203330 0.01078097 0.00771594 0.00126218 0.00319723 0.00220622 0.00553968 0.00618060 0.00132674 
0.01151980 0.00252925 0.00149031 0.00466106 0.00423417 0.00624514 0.00177183 0.00203941 0.01039097 0.00806311 0.00126528 0.00318956 0.00224564 0.00553375 0.00622938 0.00131645 
0.01148963 0.00242761 0.00148076 0.00457022 0.00432880 0.00662920 0.00173841 0.00205066 0.00999580 0.00841371 0.00127014 0.00318420 0.00228859 0.00552922 0.00627757 0.00130702 
0.01145305 0.00233163 0.00146891 0.00447938 0.00442895 0.00701071 0.00170719 0.00206675 0.00959776 0.00876602 0.00127667 0.00318108 0.00233498 0.00552595 0.00632494 0.00129845 
0.01140971 0.00224147 0.00145470 0.00438874 0.00453373 0.00738816 0.00167828 0.00208738 0.00919916 0.00911836 0.00128476 0.00318008 0.00238468 0.00552380 0.00637130 0.00129076 
0.01135929 0.00215727 0.00143805 0.00429848 0.00464225 0.00776006 0.00165182 0.00211221 0.00880230 0.00946905 0.00129430 0.00318110 0.00243756 0.00552263 0.00641645 0.00128395 
0.01130151 0.00207914 0.00141891 0.00420878 0.00475361 0.00812499 0.00162792 0.00214088 0.00840950 0.00981645 0.00130517 0.00318402 0.00249348 0.00552230 0.00646019 0.00127800 
0.01123610 0.00200716 0.00139725 0.00411983 0.00486688 0.00848154 0.00160666 0.00217302 0.00802304 0.01015894 0.00131725 0.00318871 0.00255229 0.00552268 0.00650235 0.00127292 
0.01116285 0.00194141 0.00137305 0.00403181 0.00498115 0.00882838 0.00158814 0.00220827 0.00764518 0.01049493 0.00133041 0.00319506 0.00261381 0.00552365 0.00654276 0.00126868 
0.01108158 0.00188191 0.00134631 0.00394489 0.00509550 0.00916420 0.00157242 0.00224622 0.00727811 0.01082286 0.00134454 0.00320293 0.00267788 0.00552509 0.00658125 0.00126527 
0.01099216 0.00182866 0.00131706 0.00385924 0.00520902 0.00948780 0.00155957 0.00228650 0.00692397 0.01114125 0.00135948 0.00321217 0.00274431 0.00552689 0.00661769 0.00126267 
0.01089452 0.00178166 0.00128533 0.00377504 0.00532080 0.00979798 0.00154963 0.00232869 0.00658483 0.01144864 0.00137512 0.00322267 0.00281292 0.00552898 0.00665194 0.00126084 
0.01078867 0.00174085 0.00125120 0.00369245 0.00542997 0.01009365 0.00154263 0.00237241 0.00626266 0.01174364 0.00139132 0.00323429 0.00288349 0.00553127 0.00668389 0.00125975 
0.01067467 0.00170618 0.00121474 0.00361161 0.00553567 0.01037377 0.00153859 0.00241725 0.00595933 0.01202492 0.00140794 0.00324689 0.00295583 0.00553372 0.00671343 0.00125937 
0.01055267 0.00167757 0.00117607 0.00353270 0.00563707 0.01063737 0.00153750 0.00246283 0.00567661 0.01229120 0.00142485 0.00326035 0.00302972 0.00553628 0.00674047 0.00125966 
0.01042289 0.00165490 0.00113533 0.00345584 0.00573335 0.01088357 0.00153935 0.00250876 0.00541614 0.01254130 0.00144192 0.00327454 0.00310494 0.00553894 0.00676495 0.00126057 
0.01028564 0.00163805 0.00109265 0.00338119 0.00582377 0.01111155 0.00154412 0.00255467 0.00517944 0.01277409 0.00145902 0.00328936 0.00318127 0.00554171 0.00678682 0.00126206 
0.01014133 0.00162688 0.00104824 0.00330888 0.00590759 0.01132056 0.00155175 0.00260018 0.00496786 0.01298853 0.00147603 0.00330470 0.00325847 0.00554461 0.00680603 0.00126408 
0.00999044 0.00162123 0.00100227 0.00323902 0.00598413 0.01150995 0.00156220 0.00264496 0.00478263 0.01318366 0.00149281 0.00332044 0.00333632 0.00554771 0.00682256 0.00126658 
0.00983357 0.00162092 0.00095499 0.00317176 0.00605277 0.01167915 0.00157538 0.00268866 0.00462481 0.01335859 0.00150926 0.00333652 0.00341458 0.00555109 0.00683642 0.00126950 
0.00967142 0.00162577 0.00090663 0.00310719 0.00611291 0.01182765 0.00159120 0.00273098 0.00449530 0.01351255 0.00152525 0.00335284 0.00349301 0.00555484 0.00684762 0.00127280 
0.00950476 0.00163558 0.00085746 0.00304543 0.00616405 0.01195506 0.00160958 0.00277162 0.00439483 0.01364484 0.00154068 0.00336934 0.00357137 0.00555910 0.00685618 0.00127642 
0.00933451 0.00165013 0.00080778 0.00298657 0.00620571 0.01206104 0.00163038 0.00281030 0.00432396 0.01375486 0.00155545 0.00338597 0.00364941 0.00556402 0.00686216 0.00128029 
0.00916165 0.00166921 0.00075789 0.00293072 0.00623748 0.01214536 0.00165349 0.00284678 0.00428306 0.01384209 0.00156946 0.00340267 0.00372690 0.00556978 0.00686562 0.00128438 
0.00898728 0.00169259 0.00070812 0.00287796 0.00625901 0.01220786 0.00167876 0.00288083 0.00427234 0.01390612 0.00158263 0.00341943 0.00380359 0.00557659 0.00686663 0.00128861 
0.00881261 0.00172004 0.00065882 0.00282836 0.00627003 0.01224846 0.00170605 0.00291225 0.00429181 0.01394665 0.00159487 0.00343623 0.00387924 0.00558466 0.00686529 0.00129293 
0.00863893 0.00175131 0.00061036 0.00278201 0.00627031 0.01226719 0.00173518 0.00294085 0.00434132 0.01396346 0.00160611 0.00345305 0.00395362 0.00559426 0.00686169 0.00129729 
0.00846765 0.00178617 0.00056310 0.00273897 0.00625971 0.01226414 0.00176600 0.00296651 0.00442052 0.01395643 0.00161628 0.00346992 0.00402649 0.00560564 0.00685596 0.00130163 
0.00830024 0.00182437 0.00051744 0.00269929 0.00623813 0.01223948 0.00179832 0.00298909 0.00452891 0.01392555 0.00162533 0.00348686 0.00409761 0.00561909 0.00684821 0.00130589 
0.00813827 0.00186568 0.00047379 0.00266303 0.00620556 0.01219348 0.00183196 0.00300850 0.00466579 0.01387090 0.00163322 0.00350390 0.00416675 0.00563492 0.00683859 0.00131004 
0.00798342 0.00190984 0.00043255 0.00263023 0.00616204 0.01212647 0.00186672 0.00302467 0.00483030 0.01379267 0.00163990 0.00352109 0.00423370 0.00565344 0.00682724 0.00131401 
0.00783740 0.00195664 0.00039415 0.00260094 0.00610769 0.01203886 0.00190241 0.00303757 0.00502142 0.01369112 0.00164534 0.00353849 0.00429823 0.00567497 0.00681431 0.00131775 
0.00770201 0.00200582 0.00035900 0.00257517 0.00604268 0.01193115 0.00193883 0.00304719 0.00523797 0.01356664 0.00164952 0.00355618 0.00436012 0.00569986 0.00679996 0.00132123 
0.00757912 0.00205716 0.00032754 0.00255295 0.00596725 0.01180389 0.00197577 0.00305353 0.00547862 0.01341969 0.00165243 0.00357423 0.00441918 0.00572844 0.00678434 0.00132439 
0.00747063 0.00211045 0.00030018 0.00253429 0.00588169 0.01165771 0.00201304 0.00305664 0.00574189 0.01325083 0.00165407 0.00359274 0.00447519 0.00576106 0.00676762 0.00132721 
0.00737850 0.00216546 0.00027737 0.00251921 0.00578637 0.01149331 0.00205043 0.00305658 0.00602618 0.01306069 0.00165444 0.00361182 0.00452798 0.00579806 0.00674995 0.00132963 
0.00730471 0.00222200 0.00025950 0.00250769 0.00568170 0.01131142 0.00208774 0.00305344 0.00632977 0.01285002 0.00165355 0.00363155 0.00457734 0.00583978 0.00673151 0.00133163 
0.00725127 0.00227988 0.00024700 0.00249972 0.00556815 0.01111287 0.00212478 0.00304732 0.00665081 0.01261961 0.00165142 0.00365206 0.00462312 0.00588654 0.00671245 0.00133317 
0.00722019 0.00233890 0.00024026 0.00249530 0.00544623 0.01089853 0.00216134 0.00303835 0.00698737 0.01237035 0.00164809 0.00367347 0.00466514 0.00593867 0.00669291 0.00133423 
0.00721350 0.00239891 0.00023967 0.00249438 0.00531652 0.01066929 0.00219725 0.00302669 0.00733742 0.01210320 0.00164358 0.00369589 0.00470325 0.00599647 0.00667306 0.00133478 
0.00723320 0.00245975 0.00024561 0.00249693 0.00517962 0.01042613 0.00223233 0.00301249 0.00769887 0.01181919 0.00163794 0.00371945 0.00473731 0.00606023 0.00665303 0.00133481 
0.00728127 0.00252128 0.00025842 0.00250291 0.00503618 0.01017004 0.00226641 0.00299593 0.00806955 0.01151940 0.00163122 0.00374426 0.00476717 0.00613021 0.00663295 0.00133430 
0.00735963 0.00258336 0.00027844 0.00251226 0.00488688 0.00990206 0.00229932 0.00297720 0.00844726 0.01120497 0.00162347 0.00377044 0.00479274 0.00620663 0.00661295 0.00133324 
0.00747020 0.00264590 0.00030597 0.00252492 0.00473244 0.00962325 0.00233091 0.00295652 0.00882976 0.01087711 0.00161475 0.00379812 0.00481389 0.00628973 0.00659313 0.00133161 
0.00761478 0.00270878 0.00034130 0.00254081 0.00457361 0.00933470 0.00236106 0.00293409 0.00921478 0.01053704 0.00160512 0.00382739 0.00483052 0.00637965 0.00657359 0.00132941 
0.00779514 0.00277195 0.00038468 0.00255985 0.00441114 0.00903752 0.00238964 0.00291013 0.00960007 0.01018607 0.00159465 0.00385837 0.00484257 0.00647656 0.00655442 0.00132665 
0.00801293 0.00283533 0.00043633 0.00258194 0.00424582 0.00873284 0.00241653 0.00288486 0.00998338 0.00982548 0.00158341 0.00389115 0.00484996 0.00658053 0.00653570 0.00132333 
0.00826971 0.00289888 0.00049643 0.00260699 0.00407844 0.00842180 0.00244165 0.00285852 0.01036247 0.00945664 0.00157147 0.00392581 0.00485264 0.00669164 0.00651746 0.00131945 
0.00856693 0.00296258 0.00056515 0.00263489 0.00390982 0.00810554 0.00246492 0.00283133 0.01073516 0.00908090 0.00155891 0.00396243 0.00485057 0.00680990 0.00649975 0.00131503 
0.00890589 0.00302642 0.00064259 0.00266551 0.00374075 0.00778520 0.00248629 0.00280352 0.01109932 0.00869964 0.00154581 0.00400108 0.00484373 0.00693528 0.00648260 0.00131008 
0.00928780 0.00309039 0.00072884 0.00269872 0.00357205 0.00746192 0.00250570 0.00277531 0.01145287 0.00831423 0.00153223 0.00404179 0.00483211 0.00706769 0.00646601 0.00130462 
0.00971366 0.00315454 0.00082394 0.00273438 0.00340451 0.00713682 0.00252313 0.00274692 0.01179385 0.00792608 0.00151826 0.00408461 0.00481572 0.00720701 0.00644997 0.00129867 
0.01018437 0.00321890 0.00092788 0.00277235 0.00323893 0.00681103 0.00253858 0.00271856 0.01212034 0.00753655 0.00150397 0.00412955 0.00479459 0.00735305 0.00643445 0.00129227 
0.01070061 0.00328353 0.00104061 0.00281246 0.00307608 0.00648562 0.00255206 0.00269044 0.01243057 0.00714701 0.00148944 0.00417660 0.00476875 0.00750558 0.00641940 0.00128543 
0.01126291 0.00334852 0.00116205 0.00285456 0.00291672 0.00616168 0.00256360 0.00266275 0.01272288 0.00675881 0.00147473 0.00422575 0.00473827 0.00766432 0.00640478 0.00127819 
0.01187162 0.00341395 0.00129207 0.00289847 0.00276159 0.00584024 0.00257325 0.00263567 0.01299572 0.00637328 0.00145993 0.00427696 0.00470321 0.00782892 0.00639049 0.00127059 
0.01252686 0.00347993 0.00143050 0.00294401 0.00261138 0.00552231 0.00258109 0.00260936 0.01324769 0.00599171 0.00144508 0.00433016 0.00466368 0.00799901 0.00637645 0.00126266 
0.01322859 0.00354659 0.00157712 0.00299100 0.00246678 0.00520887 0.00258719 0.00258398 0.01347755 0.00561535 0.00143026 0.00438529 0.00461977 0.00817413 0.00636255 0.00125444 
0.01397653 0.00361408 0.00173166 0.00303924 0.00232843 0.00490083 0.00259167 0.00255968 0.01368420 0.00524542 0.00141552 0.00444225 0.00457162 0.00835379 0.00634868 0.00124598 
0.01477022 0.00368253 0.00189384 0.00308853 0.00219692 0.00459909 0.00259464 0.00253656 0.01386672 0.00488309 0.00140092 0.00450090 0.00451936 0.00853745 0.00633470 0.00123731 
0.01560896 0.00375212 0.00206330 0.00313869 0.00207282 0.00430448 0.00259625 0.00251473 0.01402435 0.00452947 0.00138651 0.00456112 0.00446315 0.00872454 0.00632047 0.00122849 
0.01649184 0.00382303 0.00223967 0.00318949 0.00195666 0.00401781 0.00259665 0.00249429 0.01415649 0.00418561 0.00137232 0.00462275 0.00440317 0.00891440 0.00630585 0.00121957 
0.01741774 0.00389545 0.00242253 0.00324073 0.00184888 0.00373979 0.00259600 0.00247530 0.01426276 0.00385252 0.00135841 0.00468559 0.00433960 0.00910637 0.00629067 0.00121058 
0.01838532 0.00396958 0.00261141 0.00329220 0.00174993 0.00347112 0.00259451 0.00245781 0.01434293 0.00353111 0.00134479 0.00474947 0.00427264 0.00929973 0.00627476 0.00120159 
0.01939302 0.00404563 0.00280585 0.00334370 0.00166017 0.00321242 0.00259235 0.00244186 0.01439697 0.00322225 0.00133149 0.00481414 0.00420252 0.00949375 0.00625796 0.00119264 
0.02043907 0.00412381 0.00300530 0.00339500 0.00157991 0.00296425 0.00258974 0.00242746 0.01442503 0.00292672 0.00131854 0.00487939 0.00412946 0.00968763 0.00624010 0.00118378 
0.02152149 0.00420436 0.00320923 0.00344591 0.00150943 0.00272712 0.00258689 0.00241462 0.01442743 0.00264524 0.00130595 0.00494496 0.00405371 0.00988057 0.00622101 0.00117507 
0.02263810 0.00428750 0.00341706 0.00349622 0.00144892 0.00250148 0.00258403 0.00240331 0.01440469 0.00237843 0.00129373 0.00501058 0.00397554 0.01007174 0.00620051 0.00116655 
0.02378650 0.00437347 0.00362820 0.00354571 0.00139855 0.00228771 0.00258140 0.00239351 0.01435752 0.00212684 0.00128187 0.00507598 0.00389520 0.01026030 0.00617843 0.00115827 
0.02496413 0.00446252 0.00384203 0.00359420 0.00135842 0.00208613 0.00257922 0.00238516 0.01428677 0.00189095 0.00127038 0.00514085 0.00381298 0.01044539 0.00615462 0.00115028 
0.02616822 0.00455487 0.00405791 0.00364149 0.00132856 0.00189700 0.00257775 0.00237820 0.01419348 0.00167115 0.00125924 0.00520489 0.00372917 0.01062613 0.00612892 0.00114264 
0.02739584 0.00465078 0.00427521 0.00368740 0.00130896 0.00172052 0.00257721 0.00237256 0.01407886 0.00146772 0.00124845 0.00526780 0.00364408 0.01080165 0.00610118 0.00113539 
0.02864390 0.00475049 0.00449327 0.00373174 0.00129955 0.00155683 0.00257787 0.00236815 0.01394426 0.00128090 0.00123797 0.00532924 0.00355799 0.01097109 0.00607126 0.00112858 
0.02990915 0.00485423 0.00471144 0.00377436 0.00130022 0.00140599 0.00257995 0.00236489 0.01379118 0.00111083 0.00122779 0.00538890 0.00347124 0.01113359 0.00603905 0.00112224 
0.03118820 0.00496225 0.00492906 0.00381508 0.00131078 0.00126804 0.00258369 0.00236266 0.01362126 0.00095755 0.00121788 0.00544645 0.00338413 0.01128829 0.00600444 0.00111643 
0.03247755 0.00507477 0.00514548 0.00385377 0.00133101 0.00114293 0.00258931 0.00236136 0.01343626 0.00082104 0.00120820 0.00550155 0.00329698 0.01143436 0.00596733 0.00111118 
0.03377356 0.00519202 0.00536006 0.00389029 0.00136063 0.00103057 0.00259705 0.00236087 0.01323806 0.00070119 0.00119872 0.00555388 0.00321013 0.01157101 0.00592765 0.00110652 
0.03507253 0.00531423 0.00557217 0.00392451 0.00139932 0.00093080 0.00260712 0.00236108 0.01302863 0.00059783 0.00118941 0.00560312 0.00312390 0.01169745 0.00588534 0.00110251 
0.03637065 0.00544160 0.00578120 0.00395633 0.00144671 0.00084344 0.00261970 0.00236187 0.01281005 0.00051068 0.00118023 0.00564894 0.00303860 0.01181294 0.00584038 0.00109916 
0.03766406 0.00557432 0.00598654 0.00398564 0.00150239 0.00076822 0.00263499 0.00236313 0.01258446 0.00043943 0.00117112 0.00569103 0.00295457 0.01191678 0.00579274 0.00109651 
0.03894884 0.00571260 0.00618765 0.00401239 0.00156591 0.00070485 0.00265316 0.00236473 0.01235406 0.00038366 0.00116206 0.00572909 0.00287212 0.01200831 0.00574245 0.00109458 
0.04022106 0.00585661 0.00638396 0.00403649 0.00163678 0.00065301 0.00267437 0.00236657 0.01212111 0.00034292 0.00115301 0.00576283 0.00279157 0.01208691 0.00568952 0.00109339 
0.04147676 0.00600650 0.00657498 0.00405789 0.00171448 0.00061229 0.00269873 0.00236855 0.01188789 0.00031668 0.00114392 0.00579197 0.00271323 0.01215204 0.00563403 0.00109298 
0.04271198 0.00616243 0.00676023 0.00407658 0.00179845 0.00058230 0.00272639 0.00237058 0.01165670 0.00030435 0.00113476 0.00581625 0.00263738 0.01220318 0.00557606 0.00109334 
0.04392279 0.00632453 0.00693929 0.00409254 0.00188811 0.00056257 0.00275741 0.00237256 0.01142985 0.00030529 0.00112549 0.00583543 0.00256434 0.01223989 0.00551570 0.00109450 
0.04510530 0.00649291 0.00711175 0.00410575 0.00198287 0.00055264 0.00279188 0.00237444 0.01120964 0.00031882 0.00111608 0.00584929 0.00249436 0.01226180 0.00545309 0.00109646 
0.04625567 0.00666768 0.00727727 0.00411625 0.00208209 0.00055197 0.00282984 0.00237613 0.01099832 0.00034421 0.00110651 0.00585762 0.00242773 0.01226858 0.00538839 0.00109923 
0.04737014 0.00684890 0.00743556 0.00412407 0.00218513 0.00056005 0.00287130 0.00237761 0.01079812 0.00038070 0.00109674 0.00586024 0.00236469 0.01225999 0.00532178 0.00110281 
0.04844505 0.00703664 0.00758636 0.00412925 0.00229135 0.00057632 0.00291628 0.00237884 0.01061121 0.00042747 0.00108677 0.00585701 0.00230548 0.01223585 0.00525346 0.00110719 
0.04947681 0.00723092 0.00772947 0.00413187 0.00240008 0.00060020 0.00296472 0.00237982 0.01043968 0.00048369 0.00107659 0.00584779 0.00225032 0.01219605 0.00518366 0.00111238 
0.05046201 0.00743178 0.00786474 0.00413200 0.00251065 0.00063111 0.00301658 0.00238053 0.01028554 0.00054852 0.00106618 0.00583247 0.00219942 0.01214055 0.00511262 0.00111837 
0.05139733 0.00763919 0.00799208 0.00412975 0.00262238 0.00066845 0.00307177 0.00238101 0.01015071 0.00062108 0.00105556 0.00581098 0.00215296 0.01206940 0.00504061 0.00112513 
0.05227964 0.00785314 0.00811145 0.00412521 0.00273462 0.00071163 0.00313017 0.00238130 0.01003700 0.00070049 0.00104473 0.00578328 0.00211111 0.01198268 0.00496791 0.00113265 
0.05310595 0.00807356 0.00822287 0.00411851 0.00284669 0.00076002 0.00319164 0.00238147 0.00994609 0.00078586 0.00103372 0.00574935 0.00207400 0.01188058 0.00489484 0.00114092 
0.05387347 0.00830037 0.00832639 0.00410979 0.00295795 0.00081303 0.00325601 0.00238158 0.00987952 0.00087629 0.00102256 0.00570919 0.00204176 0.01176336 0.00482171 0.00114991 
0.05457962 0.00853349 0.00842215 0.00409919 0.00306775 0.00087005 0.00332310 0.00238175 0.00983872 0.00097089 0.00101128 0.00566284 0.00201449 0.01163131 0.00474884 0.00115959 
0.05522199 0.00877278 0.00851032 0.00408686 0.00317546 0.00093048 0.00339267 0.00238209 0.00982493 0.00106880 0.00099993 0.00561037 0.00199227 0.01148482 0.00467658 0.00116994 
0.05579843 0.00901809 0.00859112 0.00407297 0.00328048 0.00099373 0.00346448 0.00238275 0.00983928 0.00116912 0.00098858 0.00555189 0.00197514 0.01132434 0.00460528 0.00118091 
0.05630699 0.00926925 0.00866483 0.00405768 0.00338222 0.00105921 0.00353827 0.00238387 0.00988268 0.00127103 0.00097729 0.00548750 0.00196313 0.01115037 0.00453530 0.00119249 
0.05674596 0.00952606 0.00873176 0.00404117 0.00348012 0.00112637 0.00361373 0.00238564 0.00995591 0.00137369 0.00096615 0.00541737 0.00195624 0.01096348 0.00446699 0.00120461 
0.05711388 0.00978830 0.00879229 0.00402361 0.00357364 0.00119465 0.00369057 0.00238825 0.01005957 0.00147630 0.00095524 0.00534168 0.00195446 0.01076429 0.00440071 0.00121726 
0.05740956 0.01005571 0.00884682 0.00400519 0.00366228 0.00126352 0.00376844 0.00239190 0.01019406 0.00157811 0.00094467 0.00526063 0.00195772 0.01055346 0.00433684 0.00123038 
0.05763204 0.01032803 0.00889579 0.00398609 0.00374557 0.00133248 0.00384700 0.00239680 0.01035961 0.00167836 0.00093455 0.00517445 0.00196596 0.01033171 0.00427571 0.00124393 
0.05778063 0.01060496 0.00893967 0.00396648 0.00382306 0.00140103 0.00392588 0.00240320 0.01055628 0.00177638 0.00092500 0.00508339 0.00197908 0.01009979 0.00421768 0.00125786 
0.05785490 0.01088617 0.00897899 0.00394654 0.00389437 0.00146871 0.00400472 0.00241133 0.01078394 0.00187152 0.00091616 0.00498773 0.00199696 0.00985851 0.00416308 0.00127212 
0.05785470 0.01117133 0.00901427 0.00392645 0.00395911 0.00153509 0.00408312 0.00242144 0.01104227 0.00196316 0.00090817 0.00488776 0.00201944 0.00960870 0.00411224 0.00128667 
0.05778014 0.01146008 0.00904606 0.00390637 0.00401696 0.00159975 0.00416069 0.00243378 0.01133079 0.00205075 0.00090119 0.00478380 0.00204636 0.00935120 0.00406547 0.00130146 
0.05763158 0.01175202 0.00907494 0.00388646 0.00406764 0.00166233 0.00423705 0.00244862 0.01164884 0.00213379 0.00089536 0.00467618 0.00207752 0.00908691 0.00402306 0.00131642 
0.05740967 0.01204674 0.00910149 0.00386688 0.00411091 0.00172246 0.00431178 0.00246621 0.01199558 0.00221181 0.00089087 0.00456524 0.00211271 0.00881671 0.00398528 0.00133152 
0.05711530 0.01234383 0.00912629 0.00384776 0.00414655 0.00177983 0.00438449 0.00248681 0.01237002 0.00228443 0.00088790 0.00445135 0.00215170 0.00854151 0.00395238 0.00134668 
0.05674963 0.01264282 0.00914994 0.00382924 0.00417440 0.00183415 0.00445480 0.00251068 0.01277101 0.00235130 0.00088662 0.00433486 0.00219421 0.00826225 0.00392458 0.00136187 
0.05631404 0.01294326 0.00917302 0.00381142 0.00419436 0.00188517 0.00452232 0.00253806 0.01319725 0.00241213 0.00088722 0.00421616 0.00223998 0.00797983 0.00390208 0.00137703 
0.05581020 0.01324465 0.00919610 0.00379442 0.00420633 0.00193266 0.00458669 0.00256918 0.01364729 0.00246669 0.00088991 0.00409563 0.00228871 0.00769517 0.00388505 0.00139210 
0.05523997 0.01354651 0.00921975 0.00377832 0.00421029 0.00197643 0.00464755 0.00260429 0.01411958 0.00251480 0.00089488 0.00397367 0.00234010 0.00740919 0.00387362 0.00140704 
0.05460546 0.01384830 0.00924450 0.00376320 0.00420625 0.00201633 0.00470456 0.00264358 0.01461241 0.00255637 0.00090235 0.00385065 0.00239382 0.00712279 0.00386790 0.00142177 
0.05390901 0.01414951 0.00927087 0.00374909 0.00419424 0.00205222 0.00475742 0.00268726 0.01512399 0.00259132 0.00091250 0.00372697 0.00244954 0.00683684 0.00386795 0.00143627 
0.05315313 0.01444957 0.00929935 0.00373605 0.00417436 0.00208401 0.00480585 0.00273550 0.01565243 0.00261966 0.00092556 0.00360301 0.00250690 0.00655222 0.00387382 0.00145046 
0.05234054 0.01474795 0.00933038 0.00372408 0.00414674 0.00211164 0.00484958 0.00278845 0.01619574 0.00264143 0.00094173 0.00347916 0.00256555 0.00626975 0.00388549 0.00146431 
0.05147414 0.01504406 0.00936437 0.00371319 0.00411154 0.00213507 0.00488840 0.00284625 0.01675186 0.00265676 0.00096122 0.00335580 0.00262512 0.00599025 0.00390294 0.00147775 
0.05055701 0.01533733 0.00940169 0.00370336 0.00406897 0.00215431 0.00492211 0.00290899 0.01731869 0.00266580 0.00098423 0.00323329 0.00268525 0.00571450 0.00392609 0.00149075 
0.04959236 0.01562718 0.00944266 0.00369454 0.00401925 0.00216937 0.00495059 0.00297676 0.01789406 0.00266877 0.00101096 0.00311199 0.00274556 0.00544322 0.00395483 0.00150325 
0.04858355 0.01591300 0.00948754 0.00368668 0.00396265 0.00218032 0.00497371 0.00304958 0.01847579 0.00266592 0.00104162 0.00299224 0.00280567 0.00517713 0.00398902 0.00151521 
0.04753405 0.01619420 0.00953656 0.00367970 0.00389948 0.00218723 0.00499143 0.00312748 0.01906164 0.00265756 0.00107639 0.00287438 0.00286520 0.00491688 0.00402846 0.00152659 
0.04644747 0.01647018 0.00958985 0.00367350 0.00383006 0.00219021 0.00500373 0.00321043 0.01964941 0.00264404 0.00111545 0.00275871 0.00292380 0.00466309 0.00407294 0.00153733 
0.04532746 0.01674033 0.00964753 0.00366797 0.00375475 0.00218939 0.00501067 0.00329838 0.02023689 0.00262575 0.00115899 0.00264555 0.00298107 0.00441632 0.00412220 0.00154741 
0.04417779 0.01700404 0.00970963 0.00366297 0.00367393 0.00218492 0.00501233 0.00339122 0.02082187 0.00260313 0.00120718 0.00253516 0.00303667 0.00417710 0.00417595 0.00155677 
0.04300225 0.01726071 0.00977612 0.00365835 0.00358799 0.00217698 0.00500886 0.00348883 0.02140221 0.00257662 0.00126016 0.00242782 0.00309023 0.00394590 0.00423388 0.00156538 
0.04180470 0.01750973 0.00984691 0.00365395 0.00349735 0.00216576 0.00500049 0.00359104 0.02197578 0.00254672 0.00131809 0.00232375 0.00314142 0.00372314 0.00429563 0.00157321 
0.04058899 0.01775049 0.00992184 0.00364959 0.00340245 0.00215147 0.00498746 0.00369765 0.02254054 0.00251395 0.00138109 0.00222317 0.00318990 0.00350919 0.00436083 0.00158023 
0.03935901 0.01798240 0.01000070 0.00364507 0.00330374 0.00213434 0.00497012 0.00380840 0.02309449 0.00247885 0.00144929 0.00212629 0.00323534 0.00330437 0.00442906 0.00158639 
0.03811861 0.01820487 0.01008321 0.00364018 0.00320169 0.00211462 0.00494884 0.00392301 0.02363574 0.00244199 0.00152279 0.00203327 0.00327746 0.00310894 0.00449988 0.00159167 
0.03687162 0.01841732 0.01016903 0.00363472 0.00309675 0.00209255 0.00492407 0.00404117 0.02416247 0.00240394 0.00160167 0.00194426 0.00331596 0.00292312 0.00457286 0.00159605 
0.03562183 0.01861918 0.01025776 0.00362844 0.00298941 0.00206842 0.00489633 0.00416253 0.02467297 0.00236529 0.00168602 0.00185939 0.00335057 0.00274707 0.00464751 0.00159949 
0.03437296 0.01880988 0.01034894 0.00362113 0.00288014 0.00204248 0.00486617 0.00428669 0.02516563 0.00232663 0.00177588 0.00177876 0.00338106 0.00258091 0.00472335 0.00160198 
0.03312867 0.01898888 0.01044206 0.00361253 0.00276944 0.00201504 0.00483424 0.00441322 0.02563898 0.00228856 0.00187130 0.00170244 0.00340719 0.00242470 0.00479986 0.00160350 
0.03189251 0.01915565 0.01053655 0.00360241 0.00265776 0.00198637 0.00480120 0.00454169 0.02609167 0.00225169 0.00197229 0.00163049 0.00342878 0.00227845 0.00487654 0.00160401 
0.03066792 0.01930967 0.01063182 0.00359052 0.00254560 0.00195678 0.00476782 0.00467159 0.02652247 0.00221661 0.00207885 0.00156294 0.00344563 0.00214213 0.00495285 0.00160352 
0.02945825 0.01945046 0.01072721 0.00357662 0.00243341 0.00192655 0.00473488 0.00480243 0.02693030 0.00218390 0.00219096 0.00149979 0.00345762 0.00201568 0.00502828 0.00160200 
0.02826668 0.01957752 0.01082203 0.00356047 0.00232166 0.00189599 0.00470323 0.00493367 0.02731422 0.00215415 0.00230858 0.00144104 0.00346460 0.00189896 0.00510229 0.00159945 
0.02709626 0.01969042 0.01091556 0.00354182 0.00221078 0.00186539 0.00467377 0.00506475 0.02767345 0.00212791 0.00243165 0.00138664 0.00346650 0.00179183 0.00517436 0.00159585 
0.02594989 0.01978872 0.01100706 0.00352044 0.00210122 0.00183505 0.00464745 0.00519510 0.02800736 0.00210573 0.00256009 0.00133653 0.00346324 0.00169408 0.00524395 0.00159120 
0.02483029 0.01987203 0.01109575 0.00349612 0.00199340 0.00180526 0.00462524 0.00532412 0.02831545 0.00208812 0.00269381 0.00129065 0.00345479 0.00160548 0.00531056 0.00158549 
0.02374000 0.01993996 0.01118087 0.00346864 0.00188770 0.00177629 0.00460817 0.00545122 0.02859741 0.00207557 0.00283267 0.00124888 0.00344114 0.00152576 0.00537369 0.00157872 
0.02268139 0.01999217 0.01126162 0.00343780 0.00178452 0.00174844 0.00459729 0.00557579 0.02885306 0.00206856 0.00297654 0.00121113 0.00342231 0.00145463 0.00543284 0.00157090 
0.02165662 0.02002836 0.01133721 0.00340341 0.00168420 0.00172195 0.00459369 0.00569721 0.02908240 0.00206751 0.00312525 0.00117726 0.00339836 0.00139176 0.00548754 0.00156203 
0.02066766 0.02004824 0.01140686 0.00336531 0.00158710 0.00169710 0.00459846 0.00581487 0.02928557 0.00207283 0.00327863 0.00114712 0.00336937 0.00133680 0.00553733 0.00155211 
0.01971627 0.02005156 0.01146980 0.00332334 0.00149352 0.00167413 0.00461274 0.00592816 0.02946285 0.00208487 0.00343647 0.00112056 0.00333545 0.00128937 0.00558180 0.00154115 
0.01880399 0.02003812 0.01152526 0.00327738 0.00140374 0.00165327 0.00463763 0.00603647 0.02961471 0.00210396 0.00359855 0.00109741 0.00329675 0.00124909 0.00562053 0.00152917 
0.01793218 0.02000776 0.01157254 0.00322732 0.00131804 0.00163474 0.00467429 0.00613921 0.02974171 0.00213038 0.00376464 0.00107750 0.00325343 0.00121554 0.00565316 0.00151618 
0.01710194 0.01996034 0.01161093 0.00317307 0.00123664 0.00161876 0.00472384 0.00623580 0.02984461 0.00216438 0.00393448 0.00106063 0.00320570 0.00118831 0.00567933 0.00150219 
0.01631419 0.01989578 0.01163978 0.00311458 0.00115975 0.00160550 0.00478739 0.00632570 0.02992426 0.00220613 0.00410779 0.00104661 0.00315378 0.00116695 0.00569874 0.00148724 
0.01556962 0.01981404 0.01165849 0.00305180 0.00108756 0.00159515 0.00486605 0.00640835 0.02998166 0.00225581 0.00428429 0.00103525 0.00309792 0.00115102 0.00571110 0.00147133 
0.01486870 0.01971513 0.01166650 0.00298474 0.00102021 0.00158786 0.00496090 0.00648326 0.03001794 0.00231350 0.00446367 0.00102634 0.00303840 0.00114008 0.00571618 0.00145451 
0.01421170 0.01959911 0.01166331 0.00291342 0.00095782 0.00158376 0.00507298 0.00654995 0.03003432 0.00237926 0.00464561 0.00101969 0.00297553 0.00113368 0.00571377 0.00143679 
0.01359868 0.01946606 0.01164850 0.00283789 0.00090049 0.00158299 0.00520329 0.00660798 0.03003216 0.00245309 0.00482979 0.00101508 0.00290964 0.00113136 0.00570370 0.00141821 
0.01302948 0.01931616 0.01162171 0.00275823 0.00084828 0.00158563 0.00535279 0.00665694 0.03001291 0.00253496 0.00501584 0.00101234 0.00284106 0.00113268 0.00568585 0.00139881 
0.01250377 0.01914961 0.01158265 0.00267456 0.00080123 0.00159177 0.00552239 0.00669647 0.02997809 0.00262478 0.00520343 0.00101125 0.00277016 0.00113719 0.00566014 0.00137862 
0.01202100 0.01896667 0.01153110 0.00258702 0.00075934 0.00160148 0.00571291 0.00672625 0.02992932 0.00272240 0.00539218 0.00101165 0.00269733 0.00114445 0.00562653 0.00135770 
0.01158046 0.01876766 0.01146696 0.00249578 0.00072260 0.00161479 0.00592514 0.00674600 0.02986830 0.00282765 0.00558172 0.00101334 0.00262298 0.00115404 0.00558500 0.00133607 
0.01118125 0.01855295 0.01139017 0.00240106 0.00069096 0.00163172 0.00615977 0.00675549 0.02979677 0.00294028 0.00577166 0.00101616 0.00254750 0.00116555 0.00553560 0.00131379 
0.01082229 0.01832298 0.01130080 0.00230309 0.00066435 0.00165228 0.00641740 0.00675456 0.02971653 0.00306002 0.00596162 0.00101995 0.00247134 0.00117856 0.00547841 0.00129091 
0.01050238 0.01807824 0.01119897 0.00220214 0.00064268 0.00167645 0.00669855 0.00674307 0.02962943 0.00318656 0.00615120 0.00102458 0.00239492 0.00119269 0.00541355 0.00126749 
0.01022014 0.01781928 0.01108494 0.00209851 0.00062582 0.00170418 0.00700364 0.00672096 0.02953735 0.00331951 0.00634000 0.00102992 0.00231870 0.00120756 0.00534118 0.00124358 
0.00997406 0.01754672 0.01095903 0.00199252 0.00061364 0.00173542 0.00733299 0.00668820 0.02944216 0.00345848 0.00652762 0.00103585 0.00224311 0.00122283 0.00526151 0.00121923 
0.00976252 0.01726124 0.01082166 0.00188454 0.00060597 0.00177009 0.00768681 0.00664485 0.02934579 0.00360302 0.00671366 0.00104228 0.00216861 0.00123815 0.00517476 0.00119452 
0.00958377 0.01696357 0.01067336 0.00177495 0.00060263 0.00180809 0.00806519 0.00659099 0.02925011 0.00375266 0.00689771 0.00104915 0.00209566 0.00125321 0.00508123 0.00116950 
0.00943598 0.01665452 0.01051472 0.00166416 0.00060343 0.00184930 0.00846812 0.00652677 0.02915701 0.00390686 0.00707938 0.00105641 0.00202470 0.00126771 0.00498121 0.00114425 
0.00931720 0.01633495 0.01034647 0.00155260 0.00060814 0.00189360 0.00889544 0.00645239 0.02906837 0.00406509 0.00725826 0.00106402 0.00195618 0.00128139 0.00487504 0.00111882 
0.00922545 0.01600578 0.01016937 0.00144072 0.00061655 0.00194082 0.00934688 0.00636812 0.02898599 0.00422676 0.00743396 0.00107200 0.00189054 0.00129400 0.00476311 0.00109330 
0.00915865 0.01566801 0.00998431 0.00132902 0.00062839 0.00199081 0.00982205 0.00627426 0.02891166 0.00439128 0.00760608 0.00108036 0.00182822 0.00130531 0.00464582 0.00106775 
0.00911469 0.01532269 0.00979225 0.00121797 0.00064343 0.00204338 0.01032042 0.00617118 0.02884710 0.00455801 0.00777425 0.00108915 0.00176962 0.00131512 0.00452359 0.00104225 
0.00909142 0.01497093 0.00959423 0.00110810 0.00066140 0.00209832 0.01084133 0.00605928 0.02879396 0.00472631 0.00793809 0.00109846 0.00171517 0.00132325 0.00439689 0.00101688 
0.00908668 0.01461390 0.00939133 0.00099993 0.00068203 0.00215544 0.01138398 0.00593902 0.02875383 0.00489551 0.00809722 0.00110839 0.00166524 0.00132957 0.00426618 0.00099170 
0.00909828 0.01425282 0.00918476 0.00089400 0.00070504 0.00221450 0.01194745 0.00581091 0.02872820 0.00506494 0.00825129 0.00111908 0.00162020 0.00133393 0.00413196 0.00096681 
0.00912406 0.01388899 0.00897572 0.00079086 0.00073015 0.00227527 0.01253069 0.00567548 0.02871847 0.00523391 0.00839996 0.00113070 0.00158042 0.00133624 0.00399475 0.00094227 
0.00916186 0.01352374 0.00876552 0.00069107 0.00075708 0.00233750 0.01313252 0.00553333 0.02872594 0.00540171 0.00854287 0.00114345 0.00154621 0.00133643 0.00385508 0.00091816 
0.00920955 0.01315847 0.00855549 0.00059517 0.00078554 0.00240093 0.01375162 0.00538506 0.02875180 0.00556767 0.00867972 0.00115756 0.00151788 0.00133444 0.00371347 0.00089457 
0.00926505 0.01279461 0.00834700 0.00050373 0.00081526 0.00246530 0.01438657 0.00523132 0.02879710 0.00573107 0.00881019 0.00117330 0.00149571 0.00133025 0.00357048 0.00087157 
0.00932633 0.01243365 0.00814145 0.00041731 0.00084596 0.00253034 0.01503581 0.00507279 0.02886280 0.00589123 0.00893399 0.00119097 0.00147994 0.00132385 0.00342666 0.00084923 
0.00939141 0.01207712 0.00794028 0.00033645 0.00087735 0.00259578 0.01569769 0.00491017 0.02894970 0.00604745 0.00905084 0.00121090 0.00147079 0.00131527 0.00328257 0.00082764 
0.00945841 0.01172657 0.00774492 0.00026170 0.00090918 0.00266133 0.01637044 0.00474418 0.02905848 0.00619908 0.00916048 0.00123344 0.00146845 0.00130454 0.00313875 0.00080686 
0.00952552 0.01138361 0.00755682 0.00019359 0.00094119 0.00272670 0.01705218 0.00457555 0.02918966 0.00634543 0.00926266 0.00125901 0.00147307 0.00129175 0.00299576 0.00078697 
0.00959103 0.01104987 0.00737744 0.00013264 0.00097311 0.00279163 0.01774097 0.00440502 0.02934362 0.00648589 0.00935716 0.00128803 0.00148478 0.00127697 0.00285414 0.00076805 
0.00965332 0.01072699 0.00720819 0.00007935 0.00100472 0.00285581 0.01843475 0.00423335 0.02952060 0.00661981 0.00944377 0.00132097 0.00150365 0.00126031 0.00271444 0.00075015 
0.00971089 0.01041666 0.00705048 0.00003420 0.00103577 0.00291897 0.01913141 0.00406129 0.02972067 0.00674662 0.00952230 0.00135833 0.00152973 0.00124190 0.00257718 0.00073335 
0.00976236 0.01012054 0.00690571 0.00000236 0.00106607 0.00298083 0.01982876 0.00388958 0.02994375 0.00686573 0.00959259 0.00140064 0.00156305 0.00122190 0.00244288 0.00071770 
0.00980648 0.00984033 0.00677520 0.00002990 0.00109539 0.00304111 0.02052456 0.00371898 0.03018959 0.00697661 0.00965449 0.00144845 0.00160357 0.00120045 0.00231204 0.00070326 
0.00984211 0.00957772 0.00666024 0.00004801 0.00112356 0.00309954 0.02121653 0.00355021 0.03045782 0.00707876 0.00970789 0.00150237 0.00165124 0.00117776 0.00218514 0.00069010 
0.00986827 0.00933439 0.00656206 0.00005633 0.00115041 0.00315586 0.02190235 0.00338400 0.03074786 0.00717171 0.00975266 0.00156301 0.00170595 0.00115401 0.00206264 0.00067825 
0.00988409 0.00911201 0.00648185 0.00005451 0.00117577 0.00320981 0.02257968 0.00322104 0.03105900 0.00725502 0.00978875 0.00163104 0.00176756 0.00112943 0.00194499 0.00066776 
0.00988888 0.00891224 0.00642067 0.00004227 0.00119951 0.00326115 0.02324616 0.00306200 0.03139038 0.00732831 0.00981608 0.00170713 0.00183592 0.00110423 0.00183261 0.00065869 
0.00988206 0.00873670 0.00637955 0.00001934 0.00122150 0.00330964 0.02389945 0.00290754 0.03174097 0.00739122 0.00983462 0.00179199 0.00191081 0.00107866 0.00172590 0.00065105 
0.00986322 0.00858697 0.00635940 0.00001449 0.00124165 0.00335506 0.02453722 0.00275828 0.03210961 0.00744347 0.00984437 0.00188636 0.00199198 0.00105296 0.00162522 0.00064489 
0.00983209 0.00846459 0.00636104 0.00005939 0.00125987 0.00339720 0.02515715 0.00261478 0.03249498 0.00748478 0.00984534 0.00199099 0.00207915 0.00102740 0.00153092 0.00064022 
0.00978854 0.00837106 0.00638521 0.00011551 0.00127609 0.00343586 0.02575698 0.00247761 0.03289561 0.00751495 0.00983755 0.00210666 0.00217203 0.00100226 0.00144331 0.00063708 
0.00973260 0.00830782 0.00643250 0.00018291 0.00129027 0.00347087 0.02633450 0.00234728 0.03330993 0.00753382 0.00982108 0.00223416 0.00227025 0.00097780 0.00136269 0.00063546 
0.00966444 0.00827622 0.00650343 0.00026163 0.00130236 0.00350206 0.02688754 0.00222423 0.03373622 0.00754127 0.00979600 0.00237432 0.00237346 0.00095430 0.00128931 0.00063539 
0.00958436 0.00827757 0.00659836 0.00035167 0.00131237 0.00352928 0.02741403 0.00210891 0.03417264 0.00753726 0.00976242 0.00252797 0.00248125 0.00093207 0.00122340 0.00063686 
0.00949283 0.00831306 0.00671756 0.00045294 0.00132029 0.00355241 0.02791198 0.00200168 0.03461724 0.00752176 0.00972047 0.00269594 0.00259318 0.00091139 0.00116516 0.00063987 
0.00939043 0.00838383 0.00686117 0.00056535 0.00132614 0.00357132 0.02837950 0.00190287 0.03506798 0.00749482 0.00967029 0.00287909 0.00270881 0.00089255 0.00111476 0.00064440 
0.00927788 0.00849088 0.00702918 0.00068871 0.00132997 0.00358594 0.02881480 0.00181276 0.03552271 0.00745653 0.00961206 0.00307829 0.00282766 0.00087585 0.00107233 0.00065045 
0.00915602 0.00863513 0.00722147 0.00082282 0.00133184 0.00359617 0.02921622 0.00173158 0.03597922 0.00740703 0.00954598 0.00329439 0.00294924 0.00086158 0.00103798 0.00065799 
0.00902582 0.00881739 0.00743779 0.00096741 0.00133180 0.00360198 0.02958223 0.00165950 0.03643521 0.00734650 0.00947226 0.00352825 0.00307303 0.00085005 0.00101180 0.00066700 
0.00888836 0.00903833 0.00767775 0.00112214 0.00132995 0.00360333 0.02991143 0.00159666 0.03688832 0.00727520 0.00939113 0.00378075 0.00319850 0.00084153 0.00099382 0.00067743 
0.00874482 0.00929852 0.00794085 0.00128667 0.00132638 0.00360020 0.03020257 0.00154313 0.03733617 0.00719340 0.00930286 0.00405273 0.00332511 0.00083631 0.00098408 0.00068925 
0.00859648 0.00959838 0.00822643 0.00146056 0.00132120 0.00359260 0.03045456 0.00149893 0.03777631 0.00710144 0.00920771 0.00434504 0.00345231 0.00083468 0.00098256 0.00070241 
0.00844472 0.00993819 0.00853374 0.00164335 0.00131455 0.00358056 0.03066646 0.00146404 0.03820629 0.00699969 0.00910599 0.00465851 0.00357955 0.00083690 0.00098923 0.00071687 
0.00829099 0.01031810 0.00886189 0.00183453 0.00130654 0.00356413 0.03083749 0.00143840 0.03862364 0.00688858 0.00899799 0.00499395 0.00370626 0.00084324 0.00100402 0.00073257 
0.00813682 0.01073810 0.00920986 0.00203354 0.00129733 0.00354336 0.03096706 0.00142188 0.03902590 0.00676855 0.00888404 0.00535214 0.00383188 0.00085396 0.00102685 0.00074944 
0.00798379 0.01119806 0.00957653 0.00223979 0.00128706 0.00351835 0.03105475 0.00141431 0.03941064 0.00664011 0.00876449 0.00573385 0.00395585 0.00086930 0.00105761 0.00076743 
0.00783356 0.01169765 0.00996069 0.00245263 0.00127590 0.00348921 0.03110030 0.00141549 0.03977543 0.00650379 0.00863968 0.00613981 0.00407762 0.00088949 0.00109615 0.00078645 
0.00768781 0.01223641 0.01036098 0.00267139 0.00126399 0.00345604 0.03110365 0.00142517 0.04011791 0.00636015 0.00850999 0.00657071 0.00419664 0.00091474 0.00114233 0.00080645 
0.00754825 0.01281373 0.01077599 0.00289536 0.00125152 0.00341901 0.03106489 0.00144304 0.04043578 0.00620979 0.00837578 0.00702720 0.00431236 0.00094527 0.00119596 0.00082734 
0.00741663 0.01342883 0.01120420 0.00312380 0.00123866 0.00337825 0.03098431 0.00146880 0.04072680 0.00605332 0.00823744 0.00750989 0.00442428 0.00098126 0.00125684 0.00084904 
0.00729470 0.01408076 0.01164401 0.00335592 0.00122557 0.00333395 0.03086238 0.00150206 0.04098881 0.00589139 0.00809537 0.00801934 0.00453188 0.00102288 0.00132477 0.00087148 
0.00718421 0.01476843 0.01209374 0.00359095 0.00121242 0.00328629 0.03069973 0.00154243 0.04121976 0.00572466 0.00794996 0.00855604 0.00463467 0.00107028 0.00139949 0.00089455 
0.00708691 0.01549059 0.01255167 0.00382805 0.00119940 0.00323548 0.03049716 0.00158950 0.04141770 0.00555382 0.00780162 0.00912045 0.00473218 0.00112360 0.00148077 0.00091819 
0.00700453 0.01624582 0.01301600 0.00406640 0.00118666 0.00318173 0.03025564 0.00164281 0.04158082 0.00537954 0.00765075 0.00971292 0.00482398 0.00118296 0.00156835 0.00094229 
0.00693875 0.01703257 0.01348490 0.00430514 0.00117437 0.00312527 0.02997631 0.00170188 0.04170742 0.00520254 0.00749777 0.01033378 0.00490965 0.00124843 0.00166193 0.00096678 
0.00689122 0.01784912 0.01395651 0.00454342 0.00116270 0.00306634 0.02966045 0.00176622 0.04179595 0.00502352 0.00734308 0.01098324 0.00498879 0.00132011 0.00176123 0.00099155 
0.00686356 0.01869363 0.01442891 0.00478036 0.00115180 0.00300518 0.02930948 0.00183532 0.04184501 0.00484320 0.00718709 0.01166146 0.00506105 0.00139803 0.00186596 0.00101653 
0.00685730 0.01956410 0.01490021 0.00501510 0.00114181 0.00294205 0.02892497 0.00190866 0.04185338 0.00466227 0.00703019 0.01236852 0.00512611 0.00148222 0.00197580 0.00104161 
0.00687391 0.02045842 0.01536848 0.00524677 0.00113288 0.00287720 0.02850861 0.00198571 0.04181999 0.00448145 0.00687280 0.01310438 0.00518367 0.00157268 0.00209044 0.00106672 
0.00691477 0.02137434 0.01583182 0.00547452 0.00112514 0.00281092 0.02806222 0.00206592 0.04174394 0.00430142 0.00671529 0.01386895 0.00523348 0.00166939 0.00220954 0.00109175 
0.00698120 0.02230950 0.01628833 0.00569749 0.00111870 0.00274346 0.02758772 0.00214875 0.04162454 0.00412288 0.00655806 0.01466201 0.00527531 0.00177231 0.00233279 0.00111664 
0.00707438 0.02326143 0.01673614 0.00591485 0.00111368 0.00267510 0.02708711 0.00223367 0.04146128 0.00394648 0.00640147 0.01548325 0.00530899 0.00188135 0.00245984 0.00114128 
0.00719543 0.02422757 0.01717342 0.00612578 0.00111017 0.00260612 0.02656251 0.00232012 0.04125383 0.00377287 0.00624589 0.01633226 0.00533437 0.00199642 0.00259035 0.00116560 
0.00734533 0.02520526 0.01759837 0.00632949 0.00110826 0.00253678 0.02601609 0.00240757 0.04100207 0.00360268 0.00609166 0.01720853 0.00535135 0.00211740 0.00272398 0.00118953 
0.00752493 0.02619176 0.01800927 0.00652521 0.00110801 0.00246737 0.02545009 0.00249550 0.04070607 0.00343651 0.00593912 0.01811143 0.00535985 0.00224413 0.00286040 0.00121298 
0.00773499 0.02718428 0.01840444 0.00671221 0.00110950 0.00239814 0.02486679 0.00258338 0.04036611 0.00327493 0.00578859 0.01904023 0.00535987 0.00237644 0.00299924 0.00123587 
0.00797610 0.02817995 0.01878227 0.00688979 0.00111275 0.00232937 0.02426851 0.00267073 0.03998265 0.00311849 0.00564037 0.01999407 0.00535141 0.00251413 0.00314018 0.00125816 
0.00824875 0.02917588 0.01914127 0.00705727 0.00111780 0.00226130 0.02365761 0.00275705 0.03955638 0.00296768 0.00549475 0.02097200 0.00533452 0.00265696 0.00328286 0.00127975 
0.00855326 0.03016913 0.01947999 0.00721405 0.00112467 0.00219421 0.02303643 0.00284187 0.03908815 0.00282298 0.00535199 0.02197292 0.00530930 0.00280469 0.00342695 0.00130061 
0.00888982 0.03115674 0.01979709 0.00735953 0.00113335 0.00212831 0.02240732 0.00292476 0.03857902 0.00268484 0.00521234 0.02299566 0.00527588 0.00295703 0.00357210 0.00132066 
0.00925848 0.03213575 0.02009136 0.00749319 0.00114384 0.00206386 0.02177264 0.00300528 0.03803025 0.00255363 0.00507602 0.02403889 0.00523443 0.00311369 0.00371797 0.00133986 
0.00965911 0.03310321 0.02036165 0.00761455 0.00115609 0.00200107 0.02113469 0.00308304 0.03744325 0.00242971 0.00494325 0.02510120 0.00518516 0.00327434 0.00386424 0.00135816 
0.01009148 0.03405616 0.02060697 0.00772317 0.00117007 0.00194016 0.02049575 0.00315766 0.03681963 0.00231340 0.00481419 0.02618103 0.00512830 0.00343863 0.00401056 0.00137552 
0.01055516 0.03499170 0.02082641 0.00781867 0.00118572 0.00188133 0.01985804 0.00322880 0.03616117 0.00220496 0.00468902 0.02727675 0.00506414 0.00360618 0.00415663 0.00139191 
0.01104959 0.03590696 0.02101920 0.00790074 0.00120296 0.00182475 0.01922373 0.00329614 0.03546978 0.00210462 0.00456788 0.02838659 0.00499298 0.00377662 0.00430211 0.00140728 
0.01157408 0.03679912 0.02118471 0.00796911 0.00122172 0.00177061 0.01859490 0.00335939 0.03474756 0.00201254 0.00445087 0.02950868 0.00491515 0.00394952 0.00444669 0.00142162 
0.01212775 0.03766544 0.02132240 0.00802357 0.00124189 0.00171906 0.01797357 0.00341829 0.03399673 0.00192886 0.00433810 0.03064106 0.00483104 0.00412445 0.00459006 0.00143491 
0.01270962 0.03850323 0.02143188 0.00806399 0.00126337 0.00167025 0.01736166 0.00347262 0.03321961 0.00185367 0.00422963 0.03178164 0.00474102 0.00430098 0.00473193 0.00144712 
0.01331854 0.03930993 0.02151290 0.00809027 0.00128603 0.00162429 0.01676098 0.00352217 0.03241870 0.00178700 0.00412552 0.03292828 0.00464552 0.00447863 0.00487199 0.00145826 
0.01395323 0.04008304 0.02156532 0.00810239 0.00130974 0.00158131 0.01617326 0.00356678 0.03159654 0.00172885 0.00402579 0.03407871 0.00454497 0.00465693 0.00500995 0.00146830 
0.01461228 0.04082020 0.02158915 0.00810039 0.00133436 0.00154140 0.01560008 0.00360631 0.03075580 0.00167916 0.00393044 0.03523062 0.00443985 0.00483540 0.00514554 0.00147726 
0.01529416 0.04151916 0.02158450 0.00808436 0.00135974 0.00150462 0.01504294 0.00364067 0.02989922 0.00163785 0.00383948 0.03638159 0.00433062 0.00501352 0.00527849 0.00148514 
0.01599720 0.04217779 0.02155164 0.00805445 0.00138573 0.00147106 0.01450318 0.00366978 0.02902961 0.00160478 0.00375285 0.03752914 0.00421779 0.00519080 0.00540852 0.00149194 
0.01671965 0.04279412 0.02149094 0.00801088 0.00141215 0.00144074 0.01398203 0.00369359 0.02814981 0.00157976 0.00367051 0.03867075 0.00410185 0.00536671 0.00553537 0.00149769 
0.01745962 0.04336632 0.02140289 0.00795392 0.00143884 0.00141370 0.01348059 0.00371209 0.02726272 0.00156258 0.00359238 0.03980383 0.00398333 0.00554074 0.00565881 0.00150240 
0.01821514 0.04389269 0.02128812 0.00788388 0.00146562 0.00138995 0.01299979 0.00372529 0.02637126 0.00155298 0.00351838 0.04092576 0.00386275 0.00571235 0.00577859 0.00150609 
0.01898416 0.04437174 0.02114735 0.00780116 0.00149232 0.00136948 0.01254048 0.00373325 0.02547834 0.00155068 0.00344839 0.04203387 0.00374064 0.00588103 0.00589448 0.00150879 
0.01976453 0.04480209 0.02098142 0.00770617 0.00151876 0.00135227 0.01210331 0.00373603 0.02458690 0.00155536 0.00338230 0.04312548 0.00361754 0.00604625 0.00600626 0.00151054 
0.02055406 0.04518258 0.02079125 0.00759940 0.00154476 0.00133829 0.01168884 0.00373372 0.02369983 0.00156665 0.00331997 0.04419792 0.00349397 0.00620749 0.00611372 0.00151136 
0.02135047 0.04551219 0.02057789 0.00748136 0.00157014 0.00132749 0.01129746 0.00372645 0.02282000 0.00158417 0.00326125 0.04524847 0.00337047 0.00636423 0.00621666 0.00151129 
0.02215146 0.04579011 0.02034246 0.00735264 0.00159471 0.00131980 0.01092945 0.00371436 0.02195025 0.00160752 0.00320599 0.04627447 0.00324756 0.00651597 0.00631488 0.00151039 
0.02295466 0.04601570 0.02008615 0.00721383 0.00161831 0.00131514 0.01058492 0.00369762 0.02109332 0.00163626 0.00315401 0.04727326 0.00312576 0.00666219 0.00640820 0.00150868 
0.02375771 0.04618849 0.01981025 0.00706558 0.00164077 0.00131342 0.01026390 0.00367641 0.02025194 0.00166994 0.00310514 0.04824220 0.00300558 0.00680243 0.00649646 0.00150622 
0.02455821 0.04630822 0.01951611 0.00690856 0.00166191 0.00131454 0.00996624 0.00365094 0.01942871 0.00170809 0.00305919 0.04917872 0.00288753 0.00693620 0.00657950 0.00150305 
0.02535376 0.04637479 0.01920512 0.00674349 0.00168158 0.00131838 0.00969172 0.00362142 0.01862615 0.00175023 0.00301596 0.05008029 0.00277208 0.00706305 0.00665717 0.00149922 
0.02614197 0.04638831 0.01887876 0.00657110 0.00169962 0.00132482 0.00943995 0.00358811 0.01784670 0.00179586 0.00297527 0.05094447 0.00265971 0.00718253 0.00672933 0.00149479 
0.02692047 0.04634906 0.01853851 0.00639214 0.00171589 0.00133372 0.00921048 0.00355125 0.01709265 0.00184449 0.00293691 0.05176887 0.00255086 0.00729424 0.00679587 0.00148981 
0.02768692 0.04625750 0.01818593 0.00620738 0.00173025 0.00134494 0.00900272 0.00351111 0.01636621 0.00189560 0.00290068 0.05255121 0.00244597 0.00739776 0.00685666 0.00148433 
0.02843901 0.04611427 0.01782257 0.00601762 0.00174258 0.00135832 0.00881600 0.00346797 0.01566942 0.00194869 0.00286638 0.05328933 0.00234546 0.00749274 0.00691161 0.00147841 
0.02917449 0.04592019 0.01745003 0.00582365 0.00175277 0.00137372 0.00864957 0.00342211 0.01500421 0.00200324 0.00283381 0.05398115 0.00224970 0.00757882 0.00696063 0.00147210 
0.02989118 0.04567624 0.01706990 0.00562628 0.00176070 0.00139097 0.00850256 0.00337383 0.01437237 0.00205876 0.00280276 0.05462475 0.00215907 0.00765569 0.00700365 0.00146545 
0.03058694 0.04538358 0.01668377 0.00542632 0.00176629 0.00140989 0.00837407 0.00332343 0.01377551 0.00211475 0.00277306 0.05521831 0.00207391 0.00772305 0.00704060 0.00145853 
0.03125975 0.04504352 0.01629326 0.00522456 0.00176945 0.00143032 0.00826310 0.00327121 0.01321512 0.00217072 0.00274449 0.05576019 0.00199453 0.00778064 0.00707145 0.00145138 
0.03190764 0.04465752 0.01589993 0.00502181 0.00177013 0.00145209 0.00816863 0.00321749 0.01269252 0.00222619 0.00271688 0.05624889 0.00192122 0.00782825 0.00709615 0.00144405 
0.03252878 0.04422720 0.01550535 0.00481886 0.00176826 0.00147501 0.00808955 0.00316257 0.01220886 0.00228071 0.00269004 0.05668307 0.00185423 0.00786567 0.00711468 0.00143661 
0.03312140 0.04375430 0.01511106 0.00461649 0.00176382 0.00149891 0.00802474 0.00310677 0.01176514 0.00233384 0.00266381 0.05706159 0.00179380 0.00789274 0.00712704 0.00142909 
0.03368389 0.04324070 0.01471857 0.00441546 0.00175677 0.00152361 0.00797303 0.00305040 0.01136219 0.00238515 0.00263802 0.05738345 0.00174013 0.00790935 0.00713322 0.00142155 
0.03421473 0.04268841 0.01432932 0.00421650 0.00174711 0.00154893 0.00793326 0.00299377 0.01100068 0.00243424 0.00261250 0.05764786 0.00169339 0.00791540 0.00713327 0.00141403 
0.03471253 0.04209955 0.01394473 0.00402033 0.00173484 0.00157471 0.00790421 0.00293717 0.01068110 0.00248074 0.00258713 0.05785423 0.00165372 0.00791085 0.00712719 0.00140659 
0.03517604 0.04147633 0.01356617 0.00382765 0.00171997 0.00160077 0.00788470 0.00288092 0.01040380 0.00252430 0.00256175 0.05800216 0.00162123 0.00789568 0.00711505 0.00139925 
0.03560413 0.04082107 0.01319493 0.00363911 0.00170254 0.00162693 0.00787351 0.00282530 0.01016894 0.00256458 0.00253625 0.05809144 0.00159600 0.00786991 0.00709691 0.00139207 
0.03599583 0.04013618 0.01283225 0.00345535 0.00168260 0.00165305 0.00786947 0.00277060 0.00997655 0.00260131 0.00251050 0.05812209 0.00157808 0.00783362 0.00707284 0.00138508 
0.03635030 0.03942414 0.01247930 0.00327695 0.00166020 0.00167895 0.00787140 0.00271710 0.00982649 0.00263421 0.00248441 0.05809432 0.00156749 0.00778690 0.00704293 0.00137831 
0.03666683 0.03868747 0.01213716 0.00310447 0.00163541 0.00170448 0.00787817 0.00266508 0.00971845 0.00266305 0.00245788 0.05800857 0.00156422 0.00772990 0.00700728 0.00137180 
0.03694489 0.03792877 0.01180686 0.00293843 0.00160832 0.00172949 0.00788866 0.00261478 0.00965199 0.00268763 0.00243083 0.05786546 0.00156823 0.00766278 0.00696602 0.00136557 
0.03718405 0.03715069 0.01148934 0.00277931 0.00157903 0.00175385 0.00790180 0.00256645 0.00962654 0.00270778 0.00240320 0.05766584 0.00157945 0.00758577 0.00691926 0.00135966 
0.03738408 0.03635590 0.01118544 0.00262754 0.00154763 0.00177742 0.00791658 0.00252034 0.00964135 0.00272335 0.00237492 0.05741078 0.00159778 0.00749912 0.00686716 0.00135407 
0.03754484 0.03554707 0.01089593 0.00248351 0.00151425 0.00180006 0.00793202 0.00247666 0.00969557 0.00273425 0.00234595 0.05710154 0.00162310 0.00740311 0.00680986 0.00134884 
0.03766636 0.03472692 0.01062150 0.00234757 0.00147902 0.00182166 0.00794720 0.00243563 0.00978821 0.00274040 0.00231626 0.05673957 0.00165526 0.00729806 0.00674754 0.00134398 
0.03774880 0.03389815 0.01036273 0.00222001 0.00144207 0.00184211 0.00796127 0.00239745 0.00991817 0.00274176 0.00228582 0.05632656 0.00169408 0.00718434 0.00668038 0.00133950 
0.03779248 0.03306345 0.01012013 0.00210109 0.00140355 0.00186131 0.00797343 0.00236229 0.01008421 0.00273833 0.00225463 0.05586435 0.00173936 0.00706233 0.00660856 0.00133540 
0.03779781 0.03222549 0.00989410 0.00199102 0.00136360 0.00187916 0.00798297 0.00233032 0.01028502 0.00273012 0.00222267 0.05535499 0.00179087 0.00693245 0.00653230 0.00133171 
0.03776535 0.03138691 0.00968497 0.00188996 0.00132240 0.00189557 0.00798924 0.00230171 0.01051916 0.00271719 0.00218996 0.05480071 0.00184837 0.00679515 0.00645180 0.00132841 
0.03769579 0.03055031 0.00949296 0.00179802 0.00128009 0.00191046 0.00799167 0.00227657 0.01078511 0.00269963 0.00215652 0.05420391 0.00191159 0.00665091 0.00636729 0.00132551 
0.03758991 0.02971823 0.00931822 0.00171527 0.00123685 0.00192377 0.00798974 0.00225505 0.01108126 0.00267753 0.00212238 0.05356715 0.00198024 0.00650023 0.00627900 0.00132301 
0.03744863 0.02889316 0.00916079 0.00164174 0.00119286 0.00193545 0.00798304 0.00223723 0.01140592 0.00265105 0.00208757 0.05289316 0.00205401 0.00634364 0.00618719 0.00132089 
0.03727295 0.02807752 0.00902065 0.00157740 0.00114828 0.00194542 0.00797122 0.00222322 0.01175735 0.00262035 0.00205214 0.05218479 0.00213257 0.00618168 0.00609209 0.00131915 
0.03706398 0.02727363 0.00889768 0.00152220 0.00110329 0.00195367 0.00795401 0.00221308 0.01213373 0.00258560 0.00201614 0.05144505 0.00221560 0.00601493 0.00599397 0.00131777 
0.03682290 0.02648375 0.00879169 0.00147602 0.00105807 0.00196015 0.00793122 0.00220688 0.01253317 0.00254703 0.00197963 0.05067705 0.00230272 0.00584396 0.00589310 0.00131675 
0.03655098 0.02571003 0.00870238 0.00143872 0.00101280 0.00196483 0.00790275 0.00220465 0.01295378 0.00250486 0.00194268 0.04988404 0.00239358 0.00566939 0.00578975 0.00131605 
0.03624958 0.02495452 0.00862943 0.00141012 0.00096765 0.00196771 0.00786854 0.00220642 0.01339358 0.00245934 0.00190537 0.04906934 0.00248780 0.00549183 0.00568421 0.00131567 
0.03592010 0.02421917 0.00857239 0.00139000 0.00092279 0.00196877 0.00782863 0.00221220 0.01385060 0.00241074 0.00186777 0.04823636 0.00258499 0.00531189 0.00557676 0.00131557 
0.03556401 0.02350579 0.00853078 0.00137811 0.00087840 0.00196801 0.00778312 0.00222198 0.01432282 0.00235933 0.00182996 0.04738859 0.00268476 0.00513022 0.00546769 0.00131574 
0.03518282 0.02281608 0.00850405 0.00137415 0.00083463 0.00196544 0.00773219 0.00223575 0.01480820 0.00230541 0.00179203 0.04652959 0.00278670 0.00494745 0.00535730 0.00131614 
0.03477809 0.02215162 0.00849158 0.00137781 0.00079167 0.00196109 0.00767607 0.00225347 0.01530472 0.00224928 0.00175408 0.04566293 0.00289041 0.00476422 0.00524590 0.00131675 
0.03435140 0.02151385 0.00849270 0.00138874 0.00074965 0.00195496 0.00761506 0.00227508 0.01581034 0.00219126 0.00171619 0.04479226 0.00299548 0.00458117 0.00513377 0.00131754 
0.03390438 0.02090407 0.00850670 0.00140658 0.00070872 0.00194709 0.00754952 0.00230053 0.01632301 0.00213165 0.00167846 0.04392119 0.00310151 0.00439894 0.00502123 0.00131847 
0.03343865 0.02032345 0.00853280 0.00143093 0.00066905 0.00193751 0.00747984 0.00232973 0.01684071 0.00207078 0.00164100 0.04305337 0.00320807 0.00421816 0.00490859 0.00131952 
0.03295586 0.01977300 0.00857021 0.00146138 0.00063075 0.00192628 0.00740648 0.00236259 0.01736144 0.00200897 0.00160389 0.04219244 0.00331477 0.00403945 0.00479615 0.00132065 
0.03245765 0.01925361 0.00861808 0.00149750 0.00059395 0.00191343 0.00732995 0.00239902 0.01788322 0.00194655 0.00156724 0.04134198 0.00342121 0.00386342 0.00468421 0.00132183 
0.03194566 0.01876598 0.00867555 0.00153883 0.00055878 0.00189903 0.00725077 0.00243888 0.01840409 0.00188383 0.00153116 0.04050555 0.00352697 0.00369068 0.00457309 0.00132302 
0.03142152 0.01831072 0.00874171 0.00158493 0.00052535 0.00188312 0.00716952 0.00248206 0.01892214 0.00182114 0.00149573 0.03968666 0.00363168 0.00352182 0.00446309 0.00132419 
0.03088686 0.01788824 0.00881566 0.00163533 0.00049375 0.00186579 0.00708679 0.00252842 0.01943550 0.00175879 0.00146106 0.03888873 0.00373495 0.00335739 0.00435450 0.00132530 
0.03034327 0.01749883 0.00889645 0.00168955 0.00046408 0.00184709 0.00700320 0.00257781 0.01994234 0.00169707 0.00142725 0.03811512 0.00383641 0.00319795 0.00424764 0.00132633 
0.02979231 0.01714263 0.00898316 0.00174711 0.00043642 0.00182709 0.00691940 0.00263007 0.02044090 0.00163628 0.00139439 0.03736906 0.00393570 0.00304403 0.00414280 0.00132724 
0.02923553 0.01681962 0.00907484 0.00180754 0.00041083 0.00180589 0.00683602 0.00268503 0.02092945 0.00157671 0.00136258 0.03665371 0.00403246 0.00289612 0.00404027 0.00132799 
0.02867444 0.01652967 0.00917054 0.00187035 0.00038738 0.00178356 0.00675373 0.00274253 0.02140636 0.00151863 0.00133191 0.03597207 0.00412637 0.00275470 0.00394033 0.00132856 
0.02811050 0.01627247 0.00926933 0.00193506 0.00036612 0.00176018 0.00667318 0.00280238 0.02187003 0.00146229 0.00130247 0.03532703 0.00421710 0.00262021 0.00384328 0.00132892 
0.02754514 0.01604760 0.00937027 0.00200121 0.00034709 0.00173584 0.00659502 0.00286439 0.02231895 0.00140794 0.00127435 0.03472131 0.00430435 0.00249307 0.00374939 0.00132904 
0.02697974 0.01585451 0.00947246 0.00206832 0.00033030 0.00171063 0.00651989 0.00292838 0.02275169 0.00135580 0.00124763 0.03415749 0.00438784 0.00237366 0.00365893 0.00132890 
0.02641564 0.01569251 0.00957500 0.00213595 0.00031579 0.00168465 0.00644842 0.00299414 0.02316690 0.00130608 0.00122239 0.03363798 0.00446729 0.00226235 0.00357216 0.00132846 
0.02585413 0.01556079 0.00967702 0.00220366 0.00030356 0.00165799 0.00638122 0.00306148 0.02356329 0.00125897 0.00119870 0.03316500 0.00454247 0.00215943 0.00348934 0.00132771 
0.02529644 0.01545843 0.00977768 0.00227101 0.00029360 0.00163074 0.00631887 0.00313019 0.02393969 0.00121464 0.00117664 0.03274058 0.00461315 0.00206520 0.00341073 0.00132664 
0.02474377 0.01538440 0.00987616 0.00233758 0.00028591 0.00160300 0.00626192 0.00320007 0.02429499 0.00117325 0.00115628 0.03236658 0.00467911 0.00197990 0.00333655 0.00132521 
0.02419727 0.01533757 0.00997169 0.00240299 0.00028045 0.00157487 0.00621090 0.00327090 0.02462819 0.00113493 0.00113767 0.03204463 0.00474018 0.00190373 0.00326705 0.00132342 
0.02365802 0.01531671 0.01006352 0.00246686 0.00027719 0.00154645 0.00616629 0.00334249 0.02493838 0.00109979 0.00112088 0.03177617 0.00479619 0.00183686 0.00320244 0.00132126 
0.02312706 0.01532051 0.01015095 0.00252882 0.00027609 0.00151783 0.00612853 0.00341462 0.02522474 0.00106793 0.00110596 0.03156240 0.00484702 0.00177943 0.00314294 0.00131872 
0.02260540 0.01534756 0.01023333 0.00258854 0.00027711 0.00148912 0.00609803 0.00348709 0.02548655 0.00103941 0.00109296 0.03140433 0.00489253 0.00173152 0.00308875 0.00131579 
0.02209398 0.01539640 0.01031005 0.00264569 0.00028017 0.00146040 0.00607515 0.00355970 0.02572319 0.00101429 0.00108192 0.03130272 0.00493265 0.00169318 0.00304007 0.00131247 
0.02159369 0.01546552 0.01038055 0.00270000 0.00028521 0.00143178 0.00606019 0.00363223 0.02593414 0.00099261 0.00107288 0.03125812 0.00496730 0.00166442 0.00299709 0.00130876 
0.02110541 0.01555331 0.01044430 0.00275118 0.00029216 0.00140335 0.00605339 0.00370451 0.02611899 0.00097437 0.00106587 0.03127086 0.00499645 0.00164523 0.00295996 0.00130467 
0.02062994 0.01565817 0.01050086 0.00279899 0.00030094 0.00137520 0.00605498 0.00377632 0.02627741 0.00095956 0.00106093 0.03134102 0.00502007 0.00163552 0.00292885 0.00130020 
0.02016806 0.01577842 0.01054980 0.00284321 0.00031144 0.00134742 0.00606509 0.00384748 0.02640920 0.00094817 0.00105806 0.03146846 0.00503816 0.00163521 0.00290392 0.00129537 
0.01972051 0.01591239 0.01059078 0.00288365 0.00032358 0.00132010 0.00608381 0.00391780 0.02651423 0.00094014 0.00105729 0.03165282 0.00505077 0.00164413 0.00288530 0.00129018 
0.01928800 0.01605837 0.01062348 0.00292012 0.00033726 0.00129333 0.00611119 0.00398711 0.02659250 0.00093543 0.00105863 0.03189352 0.00505794 0.00166213 0.00287312 0.00128465 
0.01887119 0.01621464 0.01064766 0.00295248 0.00035237 0.00126719 0.00614719 0.00405523 0.02664409 0.00093394 0.00106209 0.03218975 0.00505974 0.00168897 0.00286748 0.00127881 
0.01847072 0.01637951 0.01066312 0.00298062 0.00036880 0.00124176 0.00619176 0.00412199 0.02666919 0.00093559 0.00106765 0.03254048 0.00505627 0.00172442 0.00286850 0.00127268 
0.01808722 0.01655129 0.01066972 0.00300443 0.00038643 0.00121711 0.00624475 0.00418723 0.02666807 0.00094027 0.00107531 0.03294448 0.00504766 0.00176819 0.00287627 0.00126627 
0.01772126 0.01672828 0.01066738 0.00302383 0.00040514 0.00119331 0.00630599 0.00425081 0.02664111 0.00094785 0.00108507 0.03340032 0.00503404 0.00181997 0.00289085 0.00125963 
0.01737342 0.01690886 0.01065604 0.00303879 0.00042482 0.00117044 0.00637522 0.00431257 0.02658879 0.00095821 0.00109689 0.03390637 0.00501558 0.00187941 0.00291231 0.00125277 
0.01704424 0.01709141 0.01063573 0.00304927 0.00044535 0.00114854 0.00645217 0.00437239 0.02651166 0.00097120 0.00111076 0.03446081 0.00499245 0.00194615 0.00294070 0.00124574 
0.01673426 0.01727438 0.01060651 0.00305526 0.00046659 0.00112769 0.00653649 0.00443013 0.02641037 0.00098667 0.00112665 0.03506165 0.00496486 0.00201978 0.00297606 0.00123857 
0.01644400 0.01745627 0.01056849 0.00305680 0.00048843 0.00110792 0.00662780 0.00448567 0.02628566 0.00100444 0.00114450 0.03570671 0.00493302 0.00209989 0.00301841 0.00123129 
0.01617396 0.01763563 0.01052183 0.00305391 0.00051073 0.00108930 0.00672566 0.00453891 0.02613833 0.00102436 0.00116429 0.03639369 0.00489717 0.00218604 0.00306775 0.00122395 
0.01592463 0.01781109 0.01046672 0.00304665 0.00053338 0.00107185 0.00682960 0.00458975 0.02596928 0.00104624 0.00118597 0.03712012 0.00485756 0.00227775 0.00312408 0.00121659 
0.01569651 0.01798137 0.01040341 0.00303511 0.00055625 0.00105561 0.00693911 0.00463809 0.02577947 0.00106989 0.00120947 0.03788341 0.00481444 0.00237455 0.00318738 0.00120925 
0.01549008 0.01814526 0.01033218 0.00301938 0.00057921 0.00104062 0.00705365 0.00468386 0.02556992 0.00109514 0.00123474 0.03868084 0.00476810 0.00247594 0.00325761 0.00120196 
0.01530581 0.01830163 0.01025336 0.00299958 0.00060215 0.00102689 0.00717264 0.00472697 0.02534175 0.00112179 0.00126172 0.03950959 0.00471882 0.00258142 0.00333472 0.00119479 
0.01514419 0.01844948 0.01016729 0.00297583 0.00062494 0.00101445 0.00729547 0.00476739 0.02509609 0.00114965 0.00129032 0.04036676 0.00466691 0.00269046 0.00341864 0.00118776 
0.01500569 0.01858786 0.01007437 0.00294829 0.00064747 0.00100330 0.00742153 0.00480504 0.02483417 0.00117853 0.00132048 0.04124935 0.00461267 0.00280253 0.00350928 0.00118093 
0.01489078 0.01871598 0.00997501 0.00291712 0.00066964 0.00099345 0.00755016 0.00483990 0.02455725 0.00120824 0.00135212 0.04215431 0.00455641 0.00291711 0.00360655 0.00117433 
0.01479995 0.01883311 0.00986966 0.00288248 0.00069132 0.00098489 0.00768072 0.00487192 0.02426662 0.00123860 0.00138514 0.04307855 0.00449846 0.00303367 0.00371032 0.00116802 
0.01473366 0.01893867 0.00975877 0.00284457 0.00071242 0.00097763 0.00781252 0.00490109 0.02396364 0.00126942 0.00141947 0.04401893 0.00443913 0.00315165 0.00382047 0.00116204 
0.01469240 0.01903217 0.00964284 0.00280358 0.00073283 0.00097164 0.00794490 0.00492740 0.02364968 0.00130051 0.00145499 0.04497230 0.00437877 0.00327054 0.00393683 0.00115643 
0.01467664 0.01911323 0.00952238 0.00275971 0.00075247 0.00096691 0.00807719 0.00495085 0.02332615 0.00133171 0.00149163 0.04593552 0.00431770 0.00338980 0.00405924 0.00115123 
0.01468687 0.01918162 0.00939790 0.00271320 0.00077124 0.00096341 0.00820870 0.00497144 0.02299446 0.00136285 0.00152926 0.04690543 0.00425624 0.00350891 0.00418750 0.00114648 
0.01472358 0.01923719 0.00926994 0.00266425 0.00078906 0.00096111 0.00833880 0.00498919 0.02265607 0.00139377 0.00156780 0.04787892 0.00419474 0.00362736 0.00432141 0.00114222 
0.01478723 0.01927992 0.00913905 0.00261310 0.00080585 0.00095998 0.00846682 0.00500414 0.02231244 0.00142430 0.00160712 0.04885291 0.00413350 0.00374465 0.00446075 0.00113848 
0.01487831 0.01930990 0.00900576 0.00255999 0.00082155 0.00095997 0.00859213 0.00501632 0.02196500 0.00145432 0.00164713 0.04982438 0.00407287 0.00386030 0.00460525 0.00113530 
0.01499731 0.01932736 0.00887065 0.00250516 0.00083609 0.00096104 0.00871413 0.00502578 0.02161524 0.00148367 0.00168771 0.05079036 0.00401314 0.00397383 0.00475467 0.00113271 
0.01514468 0.01933260 0.00873426 0.00244885 0.00084942 0.00096315 0.00883223 0.00503257 0.02126458 0.00151225 0.00172874 0.05174797 0.00395464 0.00408479 0.00490871 0.00113074 
0.01532091 0.01932605 0.00859716 0.00239131 0.00086148 0.00096622 0.00894588 0.00503677 0.02091448 0.00153993 0.00177011 0.05269442 0.00389766 0.00419275 0.00506707 0.00112942 
0.01552644 0.01930824 0.00845989 0.00233280 0.00087223 0.00097022 0.00905455 0.00503844 0.02056635 0.00156660 0.00181171 0.05362701 0.00384248 0.00429731 0.00522941 0.00112875 
0.01576173 0.01927981 0.00832301 0.00227356 0.00088164 0.00097507 0.00915776 0.00503767 0.02022159 0.00159219 0.00185343 0.05454316 0.00378940 0.00439807 0.00539541 0.00112878 
0.01602721 0.01924146 0.00818707 0.00221384 0.00088968 0.00098073 0.00925507 0.00503455 0.01988155 0.00161660 0.00189514 0.05544039 0.00373868 0.00449467 0.00556468 0.00112950 
0.01632330 0.01919402 0.00805258 0.00215391 0.00089633 0.00098711 0.00934607 0.00502918 0.01954759 0.00163977 0.00193673 0.05631638 0.00369056 0.00458678 0.00573685 0.00113094 
0.01665039 0.01913838 0.00792009 0.00209401 0.00090158 0.00099416 0.00943041 0.00502167 0.01922097 0.00166163 0.00197810 0.05716891 0.00364530 0.00467409 0.00591150 0.00113309 
0.01700886 0.01907549 0.00779009 0.00203439 0.00090543 0.00100181 0.00950777 0.00501213 0.01890297 0.00168215 0.00201913 0.05799590 0.00360310 0.00475633 0.00608823 0.00113597 
0.01739904 0.01900640 0.00766309 0.00197530 0.00090788 0.00100999 0.00957789 0.00500069 0.01859476 0.00170129 0.00205971 0.05879545 0.00356419 0.00483324 0.00626657 0.00113957 
0.01782126 0.01893220 0.00753956 0.00191699 0.00090894 0.00101863 0.00964055 0.00498748 0.01829751 0.00171903 0.00209975 0.05956578 0.00352874 0.00490460 0.00644608 0.00114390 
0.01827579 0.01885404 0.00741998 0.00185969 0.00090863 0.00102768 0.00969561 0.00497262 0.01801230 0.00173536 0.00213914 0.06030525 0.00349693 0.00497023 0.00662626 0.00114893 
0.01876287 0.01877309 0.00730478 0.00180364 0.00090698 0.00103705 0.00974295 0.00495626 0.01774016 0.00175027 0.00217779 0.06101241 0.00346891 0.00502997 0.00680664 0.00115467 
0.01928269 0.01869060 0.00719441 0.00174909 0.00090401 0.00104670 0.00978252 0.00493855 0.01748204 0.00176379 0.00221561 0.06168592 0.00344482 0.00508370 0.00698669 0.00116109 
0.01983540 0.01860780 0.00708926 0.00169625 0.00089978 0.00105655 0.00981431 0.00491964 0.01723886 0.00177592 0.00225250 0.06232462 0.00342475 0.00513132 0.00716590 0.00116818 
0.02042107 0.01852596 0.00698974 0.00164535 0.00089432 0.00106655 0.00983837 0.00489967 0.01701142 0.00178671 0.00228839 0.06292751 0.00340881 0.00517277 0.00734372 0.00117592 
0.02103974 0.01844636 0.00689619 0.00159661 0.00088770 0.00107665 0.00985481 0.00487882 0.01680048 0.00179620 0.00232321 0.06349371 0.00339705 0.00520802 0.00751960 0.00118427 
0.02169138 0.01837025 0.00680899 0.00155023 0.00087997 0.00108680 0.00986378 0.00485725 0.01660672 0.00180444 0.00235689 0.06402249 0.00338955 0.00523708 0.00769298 0.00119321 
0.02237587 0.01829890 0.00672844 0.00150643 0.00087119 0.00109694 0.00986548 0.00483510 0.01643073 0.00181149 0.00238936 0.06451329 0.00338630 0.00525998 0.00786330 0.00120271 
0.02309304 0.01823354 0.00665485 0.00146539 0.00086144 0.00110704 0.00986016 0.00481257 0.01627302 0.00181741 0.00242058 0.06496566 0.00338734 0.00527678 0.00802997 0.00121272 
0.02384263 0.01817537 0.00658851 0.00142731 0.00085080 0.00111706 0.00984811 0.00478980 0.01613404 0.00182229 0.00245050 0.06537928 0.00339262 0.00528756 0.00819242 0.00122322 
0.02462429 0.01812556 0.00652967 0.00139237 0.00083935 0.00112697 0.00982967 0.00476697 0.01601413 0.00182620 0.00247908 0.06575396 0.00340213 0.00529246 0.00835006 0.00123415 
0.02543758 0.01808523 0.00647856 0.00136073 0.00082718 0.00113675 0.00980521 0.00474424 0.01591357 0.00182923 0.00250629 0.06608963 0.00341580 0.00529161 0.00850232 0.00124548 
0.02628198 0.01805543 0.00643540 0.00133257 0.00081437 0.00114637 0.00977516 0.00472178 0.01583254 0.00183147 0.00253210 0.06638631 0.00343356 0.00528520 0.00864860 0.00125716 
0.02715686 0.01803715 0.00640038 0.00130803 0.00080102 0.00115582 0.00973995 0.00469976 0.01577115 0.00183303 0.00255651 0.06664415 0.00345530 0.00527342 0.00878833 0.00126913 
0.02806149 0.01803132 0.00637366 0.00128727 0.00078722 0.00116509 0.00970006 0.00467833 0.01572941 0.00183399 0.00257951 0.06686336 0.00348090 0.00525649 0.00892095 0.00128136 
0.02899503 0.01803878 0.00635539 0.00127041 0.00077309 0.00117419 0.00965600 0.00465765 0.01570727 0.00183447 0.00260110 0.06704425 0.00351023 0.00523466 0.00904590 0.00129379 
0.02995654 0.01806028 0.00634569 0.00125758 0.00075871 0.00118312 0.00960829 0.00463788 0.01570459 0.00183457 0.00262129 0.06718721 0.00354314 0.00520819 0.00916263 0.00130637 
0.03094495 0.01809648 0.00634466 0.00124889 0.00074419 0.00119190 0.00955748 0.00461916 0.01572114 0.00183440 0.00264010 0.06729267 0.00357944 0.00517737 0.00927061 0.00131904 
0.03195909 0.01814794 0.00635237 0.00124444 0.00072965 0.00120053 0.00950411 0.00460164 0.01575663 0.00183405 0.00265755 0.06736114 0.00361896 0.00514251 0.00936933 0.00133175 
0.03299766 0.01821513 0.00636888 0.00124432 0.00071517 0.00120905 0.00944876 0.00458544 0.01581068 0.00183365 0.00267369 0.06739317 0.00366148 0.00510391 0.00945832 0.00134445 
0.03405925 0.01829839 0.00639422 0.00124862 0.00070088 0.00121749 0.00939200 0.00457070 0.01588284 0.00183329 0.00268854 0.06738935 0.00370680 0.00506192 0.00953710 0.00135709 
0.03514232 0.01839798 0.00642839 0.00125738 0.00068686 0.00122588 0.00933440 0.00455754 0.01597260 0.00183307 0.00270217 0.06735029 0.00375467 0.00501689 0.00960524 0.00136962 
0.03624522 0.01851401 0.00647139 0.00127068 0.00067323 0.00123427 0.00927654 0.00454607 0.01607937 0.00183309 0.00271462 0.06727664 0.00380486 0.00496918 0.00966235 0.00138197 
0.03736615 0.01864651 0.00652317 0.00128853 0.00066009 0.00124270 0.00921896 0.00453638 0.01620250 0.00183346 0.00272596 0.06716904 0.00385711 0.00491914 0.00970806 0.00139411 
0.03850324 0.01879539 0.00658368 0.00131098 0.00064754 0.00125122 0.00916224 0.00452858 0.01634127 0.00183427 0.00273625 0.06702818 0.00391117 0.00486717 0.00974205 0.00140597 
0.03965444 0.01896042 0.00665284 0.00133802 0.00063568 0.00125989 0.00910689 0.00452273 0.01649492 0.00183559 0.00274557 0.06685471 0.00396675 0.00481364 0.00976402 0.00141753 
0.04081765 0.01914128 0.00673054 0.00136967 0.00062459 0.00126876 0.00905343 0.00451891 0.01666262 0.00183752 0.00275399 0.06664932 0.00402360 0.00475895 0.00977373 0.00142872 
0.04199060 0.01933754 0.00681665 0.00140589 0.00061437 0.00127789 0.00900235 0.00451717 0.01684350 0.00184013 0.00276159 0.06641265 0.00408143 0.00470349 0.00977100 0.00143950 
0.04317093 0.01954865 0.00691103 0.00144665 0.00060510 0.00128735 0.00895412 0.00451756 0.01703665 0.00184350 0.00276846 0.06614536 0.00413995 0.00464766 0.00975567 0.00144984 
0.04435620 0.01977397 0.00701351 0.00149191 0.00059687 0.00129720 0.00890915 0.00452011 0.01724110 0.00184767 0.00277468 0.06584811 0.00419888 0.00459185 0.00972766 0.00145968 
0.04554385 0.02001273 0.00712389 0.00154160 0.00058975 0.00130751 0.00886786 0.00452483 0.01745587 0.00185272 0.00278034 0.06552151 0.00425794 0.00453646 0.00968691 0.00146901 
0.04673122 0.02026410 0.00724195 0.00159564 0.00058381 0.00131833 0.00883059 0.00453172 0.01767993 0.00185869 0.00278553 0.06516619 0.00431684 0.00448189 0.00963346 0.00147778 
0.04791557 0.02052714 0.00736746 0.00165394 0.00057911 0.00132974 0.00879767 0.00454079 0.01791222 0.00186562 0.00279034 0.06478274 0.00437531 0.00442853 0.00956737 0.00148596 
0.04909411 0.02080084 0.00750014 0.00171638 0.00057571 0.00134179 0.00876937 0.00455200 0.01815168 0.00187354 0.00279485 0.06437177 0.00443306 0.00437677 0.00948877 0.00149352 
0.05026395 0.02108410 0.00763973 0.00178284 0.00057366 0.00135454 0.00874592 0.00456532 0.01839722 0.00188248 0.00279917 0.06393385 0.00448984 0.00432700 0.00939788 0.00150044 
0.05142216 0.02137576 0.00778589 0.00185317 0.00057301 0.00136805 0.00872750 0.00458070 0.01864774 0.00189245 0.00280337 0.06346957 0.00454536 0.00427958 0.00929494 0.00150670 
0.05256575 0.02167462 0.00793831 0.00192722 0.00057378 0.00138237 0.00871426 0.00459808 0.01890214 0.00190346 0.00280753 0.06297950 0.00459938 0.00423490 0.00918028 0.00151228 
0.05369171 0.02197942 0.00809663 0.00200480 0.00057601 0.00139755 0.00870629 0.00461736 0.01915931 0.00191550 0.00281175 0.06246423 0.00465166 0.00419331 0.00905427 0.00151716 
0.05479700 0.02228884 0.00826047 0.00208573 0.00057971 0.00141362 0.00870362 0.00463848 0.01941816 0.00192857 0.00281608 0.06192435 0.00470195 0.00415517 0.00891738 0.00152134 
0.05587857 0.02260156 0.00842944 0.00216981 0.00058491 0.00143063 0.00870624 0.00466132 0.01967759 0.00194264 0.00282061 0.06136048 0.00475003 0.00412082 0.00877010 0.00152481 
0.05693336 0.02291625 0.00860310 0.00225681 0.00059159 0.00144860 0.00871409 0.00468576 0.01993652 0.00195769 0.00282541 0.06077326 0.00479570 0.00409060 0.00861302 0.00152755 
0.05795834 0.02323153 0.00878102 0.00234649 0.00059975 0.00146755 0.00872707 0.00471169 0.02019392 0.00197368 0.00283053 0.06016335 0.00483875 0.00406483 0.00844676 0.00152958 
0.05895049 0.02354608 0.00896273 0.00243862 0.00060939 0.00148750 0.00874501 0.00473895 0.02044873 0.00199056 0.00283602 0.05953148 0.00487899 0.00404383 0.00827202 0.00153089 
0.05990686 0.02385854 0.00914775 0.00253292 0.00062047 0.00150845 0.00876772 0.00476741 0.02069996 0.00200829 0.00284193 0.05887841 0.00491627 0.00402789 0.00808956 0.00153148 
0.06082454 0.02416763 0.00933558 0.00262912 0.00063297 0.00153039 0.00879495 0.00479690 0.02094665 0.00202679 0.00284831 0.05820498 0.00495042 0.00401730 0.00790019 0.00153138 
0.06170068 0.02447207 0.00952570 0.00272693 0.00064684 0.00155331 0.00882641 0.00482727 0.02118785 0.00204602 0.00285518 0.05751210 0.00498132 0.00401233 0.00770476 0.00153058 
0.06253254 0.02477063 0.00971756 0.00282606 0.00066204 0.00157719 0.00886175 0.00485832 0.02142267 0.00206588 0.00286257 0.05680075 0.00500882 0.00401324 0.00750419 0.00152910 
0.06331746 0.02506217 0.00991061 0.00292620 0.00067850 0.00160199 0.00890063 0.00488989 0.02165028 0.00208631 0.00287049 0.05607203 0.00503284 0.00402028 0.00729944 0.00152697 
0.06405291 0.02534557 0.01010429 0.00302703 0.00069618 0.00162766 0.00894263 0.00492179 0.02186987 0.00210721 0.00287894 0.05532711 0.00505328 0.00403368 0.00709152 0.00152419 
0.06473648 0.02561983 0.01029800 0.00312823 0.00071498 0.00165416 0.00898731 0.00495381 0.02208069 0.00212849 0.00288793 0.05456730 0.00507007 0.00405364 0.00688146 0.00152080 
0.06536591 0.02588402 0.01049117 0.00322946 0.00073484 0.00168142 0.00903421 0.00498577 0.02228207 0.00215006 0.00289744 0.05379402 0.00508316 0.00408038 0.00667036 0.00151681 
0.06593909 0.02613729 0.01068318 0.00333039 0.00075566 0.00170937 0.00908285 0.00501747 0.02247335 0.00217182 0.00290744 0.05300885 0.00509249 0.00411408 0.00645932 0.00151227 
0.06645407 0.02637893 0.01087343 0.00343066 0.00077736 0.00173791 0.00913272 0.00504871 0.02265397 0.00219367 0.00291792 0.05221346 0.00509806 0.00415489 0.00624947 0.00150718 
0.06690911 0.02660830 0.01106130 0.00352995 0.00079983 0.00176695 0.00918329 0.00507929 0.02282341 0.00221550 0.00292883 0.05140973 0.00509984 0.00420297 0.00604198 0.00150160 
0.06730263 0.02682491 0.01124617 0.00362789 0.00082296 0.00179640 0.00923404 0.00510900 0.02298122 0.00223721 0.00294012 0.05059965 0.00509785 0.00425845 0.00583802 0.00149554 
0.06763328 0.02702835 0.01142743 0.00372414 0.00084665 0.00182614 0.00928442 0.00513765 0.02312701 0.00225868 0.00295174 0.04978539 0.00509211 0.00432144 0.00563877 0.00148905 
0.06789990 0.02721838 0.01160447 0.00381836 0.00087078 0.00185605 0.00933389 0.00516505 0.02326046 0.00227980 0.00296362 0.04896930 0.00508265 0.00439203 0.00544542 0.00148216 
0.06810158 0.02739486 0.01177666 0.00391019 0.00089522 0.00188600 0.00938192 0.00519100 0.02338131 0.00230048 0.00297570 0.04815387 0.00506951 0.00447031 0.00525916 0.00147492 
0.06823761 0.02755778 0.01194341 0.00399931 0.00091986 0.00191585 0.00942798 0.00521532 0.02348936 0.00232060 0.00298789 0.04734181 0.00505277 0.00455633 0.00508116 0.00146734 
0.06830754 0.02770728 0.01210412 0.00408537 0.00094456 0.00194548 0.00947156 0.00523784 0.02358449 0.00234005 0.00300013 0.04653595 0.00503248 0.00465011 0.00491258 0.00145949 
0.06831116 0.02784361 0.01225822 0.00416804 0.00096920 0.00197473 0.00951216 0.00525839 0.02366663 0.00235874 0.00301231 0.04573934 0.00500873 0.00475168 0.00475457 0.00145140 
0.06824850 0.02796715 0.01240513 0.00424701 0.00099365 0.00200345 0.00954931 0.00527680 0.02373578 0.00237657 0.00302434 0.04495519 0.00498161 0.00486104 0.00460825 0.00144310 
0.06811985 0.02807843 0.01254432 0.00432198 0.00101777 0.00203150 0.00958257 0.00529292 0.02379199 0.00239343 0.00303613 0.04418687 0.00495123 0.00497814 0.00447469 0.00143465 
0.06792575 0.02817808 0.01267526 0.00439263 0.00104143 0.00205872 0.00961153 0.00530662 0.02383539 0.00240925 0.00304758 0.04343791 0.00491768 0.00510294 0.00435494 0.00142607 
0.06766700 0.02826686 0.01279745 0.00445870 0.00106449 0.00208496 0.00963583 0.00531777 0.02386616 0.00242392 0.00305859 0.04271202 0.00488109 0.00523537 0.00425000 0.00141742 
0.06734464 0.02834564 0.01291042 0.00451991 0.00108684 0.00211006 0.00965513 0.00532625 0.02388451 0.00243739 0.00306905 0.04201305 0.00484157 0.00537532 0.00416081 0.00140874 
0.06695999 0.02841540 0.01301373 0.00457600 0.00110833 0.00213387 0.00966916 0.00533197 0.02389075 0.00244956 0.00307886 0.04134498 0.00479926 0.00552269 0.00408827 0.00140006 
0.06651459 0.02847721 0.01310697 0.00462675 0.00112884 0.00215625 0.00967769 0.00533483 0.02388521 0.00246039 0.00308792 0.04071193 0.00475427 0.00567733 0.00403319 0.00139143 
0.06601024 0.02853223 0.01318977 0.00467195 0.00114826 0.00217705 0.00968055 0.00533478 0.02386827 0.00246981 0.00309613 0.04011811 0.00470676 0.00583906 0.00399635 0.00138289 
0.06544898 0.02858173 0.01326179 0.00471138 0.00116645 0.00219614 0.00967763 0.00533174 0.02384035 0.00247777 0.00310339 0.03956786 0.00465684 0.00600769 0.00397841 0.00137448 
0.06483308 0.02862700 0.01332273 0.00474488 0.00118331 0.00221338 0.00966886 0.00532569 0.02380192 0.00248424 0.00310961 0.03906558 0.00460467 0.00618301 0.00397999 0.00136623 
0.06416503 0.02866944 0.01337235 0.00477230 0.00119873 0.00222865 0.00965427 0.00531661 0.02375349 0.00248919 0.00311470 0.03861574 0.00455037 0.00636478 0.00400162 0.00135819 
0.06344755 0.02871046 0.01341043 0.00479351 0.00121260 0.00224184 0.00963394 0.00530448 0.02369559 0.00249259 0.00311858 0.03822285 0.00449410 0.00655272 0.00404373 0.00135039 
0.06268354 0.02875152 0.01343680 0.00480840 0.00122484 0.00225284 0.00960800 0.00528932 0.02362879 0.00249444 0.00312116 0.03789145 0.00443598 0.00674654 0.00410666 0.00134287 
0.06187611 0.02879410 0.01345136 0.00481690 0.00123534 0.00226158 0.00957669 0.00527116 0.02355367 0.00249474 0.00312240 0.03762605 0.00437616 0.00694593 0.00419068 0.00133567 
0.06102854 0.02883968 0.01345404 0.00481895 0.00124404 0.00226796 0.00954028 0.00525005 0.02347085 0.00249350 0.00312221 0.03743117 0.00431479 0.00715055 0.00429594 0.00132880 
0.06014430 0.02888977 0.01344480 0.00481451 0.00125086 0.00227193 0.00949914 0.00522604 0.02338096 0.00249074 0.00312056 0.03731126 0.00425199 0.00736003 0.00442250 0.00132232 
0.05922697 0.02894582 0.01342369 0.00480360 0.00125574 0.00227343 0.00945370 0.00519923 0.02328463 0.00248649 0.00311741 0.03727069 0.00418790 0.00757397 0.00457033 0.00131625 
0.05828029 0.02900926 0.01339079 0.00478623 0.00125863 0.00227245 0.00940445 0.00516970 0.02318251 0.00248080 0.00311272 0.03731374 0.00412266 0.00779197 0.00473927 0.00131062 
0.05730812 0.02908150 0.01334621 0.00476245 0.00125949 0.00226895 0.00935197 0.00513757 0.02307525 0.00247372 0.00310648 0.03744455 0.00405639 0.00801360 0.00492910 0.00130545 
0.05631442 0.02916385 0.01329014 0.00473234 0.00125828 0.00226294 0.00929690 0.00510297 0.02296351 0.00246532 0.00309869 0.03766711 0.00398924 0.00823838 0.00513946 0.00130077 
0.05530323 0.02925759 0.01322282 0.00469601 0.00125499 0.00225444 0.00923994 0.00506604 0.02284793 0.00245568 0.00308936 0.03798520 0.00392133 0.00846586 0.00536993 0.00129660 
0.05427864 0.02936388 0.01314451 0.00465359 0.00124961 0.00224348 0.00918185 0.00502694 0.02272915 0.00244487 0.00307850 0.03840241 0.00385279 0.00869552 0.00561994 0.00129298 
0.05324483 0.02948381 0.01305554 0.00460523 0.00124213 0.00223012 0.00912347 0.00498584 0.02260781 0.00243300 0.00306615 0.03892207 0.00378374 0.00892686 0.00588887 0.00128990 
0.05220596 0.02961835 0.01295627 0.00455112 0.00123259 0.00221444 0.00906566 0.00494292 0.02248452 0.00242017 0.00305235 0.03954724 0.00371431 0.00915934 0.00617598 0.00128741 
0.05116623 0.02976836 0.01284713 0.00449146 0.00122099 0.00219651 0.00900936 0.00489839 0.02235988 0.00240649 0.00303719 0.04028069 0.00364462 0.00939242 0.00648044 0.00128550 
0.05012983 0.02993456 0.01272857 0.00442648 0.00120739 0.00217646 0.00895555 0.00485244 0.02223446 0.00239210 0.00302071 0.04112484 0.00357480 0.00962554 0.00680134 0.00128419 
0.04910089 0.03011755 0.01260107 0.00435643 0.00119183 0.00215441 0.00890523 0.00480529 0.02210882 0.00237711 0.00300303 0.04208178 0.00350497 0.00985812 0.00713767 0.00128350 
0.04808353 0.03031777 0.01246517 0.00428160 0.00117438 0.00213050 0.00885947 0.00475716 0.02198349 0.00236166 0.00298424 0.04315320 0.00343526 0.01008958 0.00748836 0.00128344 
0.04708179 0.03053552 0.01232144 0.00420226 0.00115510 0.00210490 0.00881934 0.00470829 0.02185896 0.00234591 0.00296446 0.04434040 0.00336579 0.01031935 0.00785224 0.00128400 
0.04609960 0.03077093 0.01217047 0.00411875 0.00113409 0.00207778 0.00878594 0.00465890 0.02173570 0.00232999 0.00294381 0.04564425 0.00329668 0.01054681 0.00822810 0.00128520 
0.04514083 0.03102400 0.01201288 0.00403139 0.00111144 0.00204933 0.00876039 0.00460925 0.02161414 0.00231407 0.00292245 0.04706518 0.00322807 0.01077138 0.00861465 0.00128704 
0.04420920 0.03129453 0.01184932 0.00394053 0.00108727 0.00201976 0.00874379 0.00455955 0.02149469 0.00229831 0.00290052 0.04860313 0.00316007 0.01099246 0.00901053 0.00128952 
0.04330830 0.03158217 0.01168045 0.00384654 0.00106169 0.00198930 0.00873728 0.00451008 0.02137771 0.00228286 0.00287818 0.05025758 0.00309283 0.01120945 0.00941436 0.00129264 
0.04244156 0.03188641 0.01150697 0.00374980 0.00103484 0.00195817 0.00874197 0.00446105 0.02126353 0.00226789 0.00285562 0.05202750 0.00302647 0.01142176 0.00982470 0.00129639 
0.04161225 0.03220658 0.01132957 0.00365069 0.00100685 0.00192661 0.00875894 0.00441273 0.02115244 0.00225356 0.00283301 0.05391135 0.00296112 0.01162880 0.01024008 0.00130077 
0.04082345 0.03254184 0.01114896 0.00354963 0.00097787 0.00189489 0.00878926 0.00436533 0.02104469 0.00224005 0.00281055 0.05590707 0.00289694 0.01183001 0.01065898 0.00130577 
0.04007804 0.03289118 0.01096585 0.00344700 0.00094807 0.00186324 0.00883398 0.00431911 0.02094050 0.00222751 0.00278844 0.05801206 0.00283406 0.01202482 0.01107990 0.00131137 
0.03937868 0.03325347 0.01078095 0.00334324 0.00091761 0.00183195 0.00889407 0.00427429 0.02084005 0.00221612 0.00276687 0.06022319 0.00277263 0.01221268 0.01150130 0.00131757 
0.03872784 0.03362740 0.01059498 0.00323877 0.00088667 0.00180127 0.00897049 0.00423108 0.02074348 0.00220602 0.00274607 0.06253680 0.00271279 0.01239306 0.01192165 0.00132435 
0.03812773 0.03401155 0.01040863 0.00313400 0.00085542 0.00177148 0.00906412 0.00418971 0.02065089 0.00219737 0.00272624 0.06494867 0.00265470 0.01256545 0.01233941 0.00133168 
0.03758032 0.03440436 0.01022261 0.00302936 0.00082406 0.00174285 0.00917577 0.00415038 0.02056235 0.00219033 0.00270759 0.06745407 0.00259851 0.01272937 0.01275306 0.00133956 
0.03708733 0.03480415 0.01003760 0.00292529 0.00079277 0.00171565 0.00930619 0.00411328 0.02047789 0.00218504 0.00269035 0.07004773 0.00254437 0.01288435 0.01316111 0.00134796 
0.03665024 0.03520915 0.00985426 0.00282219 0.00076176 0.00169014 0.00945603 0.00407859 0.02039751 0.00218165 0.00267473 0.07272387 0.00249246 0.01302996 0.01356210 0.00135685 
0.03627023 0.03561748 0.00967324 0.00272049 0.00073122 0.00166659 0.00962588 0.00404647 0.02032118 0.00218026 0.00266094 0.07547620 0.00244293 0.01316580 0.01395458 0.00136621 
0.03594825 0.03602719 0.00949514 0.00262061 0.00070136 0.00164525 0.00981620 0.00401710 0.02024884 0.00218102 0.00264919 0.07829795 0.00239595 0.01329149 0.01433719 0.00137600 
0.03568495 0.03643625 0.00932058 0.00252294 0.00067238 0.00162635 0.01002738 0.00399060 0.02018039 0.00218403 0.00263968 0.08118186 0.00235167 0.01340670 0.01470857 0.00138621 
0.03548073 0.03684261 0.00915010 0.00242788 0.00064449 0.00161015 0.01025968 0.00396710 0.02011570 0.00218938 0.00263261 0.08412025 0.00231027 0.01351113 0.01506747 0.00139680 
0.03533571 0.03724416 0.00898424 0.00233582 0.00061789 0.00159684 0.01051325 0.00394671 0.02005465 0.00219718 0.00262818 0.08710502 0.00227191 0.01360452 0.01541267 0.00140773 
0.03524972 0.03763878 0.00882349 0.00224712 0.00059277 0.00158665 0.01078814 0.00392952 0.01999706 0.00220748 0.00262655 0.09012764 0.00223675 0.01368664 0.01574305 0.00141897 
0.03522233 0.03802435 0.00866832 0.00216215 0.00056935 0.00157976 0.01108425 0.00391562 0.01994274 0.00222036 0.00262791 0.09317927 0.00220494 0.01375731 0.01605754 0.00143048 
0.03525285 0.03839877 0.00851915 0.00208124 0.00054782 0.00157634 0.01140138 0.00390505 0.01989149 0.00223587 0.00263241 0.09625072 0.00217666 0.01381640 0.01635518 0.00144222 
0.03534031 0.03875998 0.00837636 0.00200472 0.00052836 0.00157655 0.01173920 0.00389786 0.01984308 0.00225403 0.00264018 0.09933250 0.00215204 0.01386382 0.01663509 0.00145416 
0.03548350 0.03910594 0.00824030 0.00193290 0.00051116 0.00158051 0.01209724 0.00389408 0.01979729 0.00227486 0.00265137 0.10241489 0.00213123 0.01389951 0.01689648 0.00146625 
0.03568093 0.03943472 0.00811125 0.00186607 0.00049640 0.00158834 0.01247492 0.00389371 0.01975386 0.00229837 0.00266609 0.10548796 0.00211437 0.01392348 0.01713867 0.00147845 
0.03593089 0.03974444 0.00798949 0.00180448 0.00048425 0.00160013 0.01287150 0.00389675 0.01971255 0.00232455 0.00268442 0.10854160 0.00210159 0.01393576 0.01736107 0.00149073 
0.03623142 0.04003334 0.00787524 0.00174839 0.00047487 0.00161593 0.01328615 0.00390316 0.01967309 0.00235337 0.00270646 0.11156561 0.00209301 0.01393645 0.01756320 0.00150302 
0.03658033 0.04029976 0.00776867 0.00169802 0.00046840 0.00163579 0.01371789 0.00391291 0.01963522 0.00238477 0.00273225 0.11454970 0.00208873 0.01392568 0.01774468 0.00151530 
0.03697523 0.04054219 0.00766991 0.00165356 0.00046500 0.00165971 0.01416562 0.00392593 0.01959867 0.00241871 0.00276185 0.11748355 0.00208885 0.01390364 0.01790524 0.00152752 
0.03741350 0.04075924 0.00757907 0.00161519 0.00046479 0.00168770 0.01462811 0.00394215 0.01956320 0.00245510 0.00279527 0.12035689 0.00209344 0.01387055 0.01804473 0.00153963 
0.03789234 0.04094970 0.00749620 0.00158305 0.00046787 0.00171971 0.01510405 0.00396149 0.01952853 0.00249385 0.00283251 0.12315953 0.00210258 0.01382668 0.01816310 0.00155159 
0.03840878 0.04111251 0.00742132 0.00155728 0.00047436 0.00175567 0.01559197 0.00398385 0.01949442 0.00253485 0.00287355 0.12588138 0.00211632 0.01377236 0.01826040 0.00156335 
0.03895965 0.04124681 0.00735442 0.00153797 0.00048434 0.00179551 0.01609035 0.00400909 0.01946062 0.00257797 0.00291835 0.12851258 0.00213467 0.01370793 0.01833681 0.00157488 
0.03954165 0.04135191 0.00729546 0.00152519 0.00049789 0.00183910 0.01659752 0.00403712 0.01942689 0.00262307 0.00296684 0.13104347 0.00215766 0.01363381 0.01839259 0.00158612 
0.04015133 0.04142734 0.00724434 0.00151898 0.00051505 0.00188630 0.01711175 0.00406777 0.01939303 0.00267001 0.00301894 0.13346470 0.00218528 0.01355043 0.01842812 0.00159703 
0.04078513 0.04147281 0.00720097 0.00151938 0.00053587 0.00193695 0.01763124 0.00410091 0.01935880 0.00271860 0.00307454 0.13576723 0.00221750 0.01345826 0.01844388 0.00160757 
0.04143935 0.04148825 0.00716521 0.00152636 0.00056038 0.00199086 0.01815407 0.00413639 0.01932404 0.00276867 0.00313351 0.13794243 0.00225426 0.01335783 0.01844044 0.00161771 
0.04211023 0.04147381 0.00713689 0.00153990 0.00058857 0.00204783 0.01867831 0.00417403 0.01928856 0.00282003 0.00319569 0.13998211 0.00229550 0.01324968 0.01841847 0.00162739 
0.04279390 0.04142985 0.00711584 0.00155993 0.00062044 0.00210762 0.01920195 0.00421367 0.01925220 0.00287245 0.00326092 0.14187854 0.00234112 0.01313439 0.01837872 0.00163659 
0.04348646 0.04135694 0.00710186 0.00158638 0.00065597 0.00216999 0.01972294 0.00425513 0.01921483 0.00292574 0.00332900 0.14362455 0.00239100 0.01301255 0.01832204 0.00164526 
0.04418392 0.04125586 0.00709473 0.00161912 0.00069509 0.00223465 0.02023921 0.00429824 0.01917633 0.00297966 0.00339973 0.14521352 0.00244499 0.01288482 0.01824934 0.00165338 
0.04488231 0.04112761 0.00709423 0.00165804 0.00073776 0.00230133 0.02074865 0.00434282 0.01913662 0.00303398 0.00347287 0.14663945 0.00250294 0.01275182 0.01816162 0.00166090 
0.04557761 0.04097340 0.00710011 0.00170296 0.00078388 0.00236973 0.02124916 0.00438867 0.01909563 0.00308845 0.00354818 0.14789699 0.00256465 0.01261425 0.01805992 0.00166780 
0.04626581 0.04079462 0.00711213 0.00175370 0.00083335 0.00243953 0.02173864 0.00443563 0.01905330 0.00314283 0.00362539 0.14898148 0.00262991 0.01247279 0.01794537 0.00167405 
0.04694293 0.04059287 0.00713005 0.00181007 0.00088607 0.00251040 0.02221501 0.00448351 0.01900962 0.00319686 0.00370422 0.14988897 0.00269848 0.01232814 0.01781915 0.00167962 
0.04760501 0.04036992 0.00715361 0.00187183 0.00094188 0.00258202 0.02267621 0.00453212 0.01896459 0.00325029 0.00378439 0.15061626 0.00277011 0.01218100 0.01768245 0.00168449 
0.04824816 0.04012772 0.00718256 0.00193873 0.00100065 0.00265404 0.02312022 0.00458130 0.01891825 0.00330287 0.00386558 0.15116092 0.00284451 0.01203211 0.01753654 0.00168864 
0.04886853 0.03986837 0.00721665 0.00201052 0.00106220 0.00272611 0.02354509 0.00463086 0.01887064 0.00335432 0.00394747 0.15152130 0.00292140 0.01188216 0.01738270 0.00169206 
0.04946239 0.03959411 0.00725564 0.00208690 0.00112635 0.00279789 0.02394891 0.00468065 0.01882185 0.00340440 0.00402974 0.15169656 0.00300044 0.01173189 0.01722225 0.00169472 
0.05002607 0.03930731 0.00729931 0.00216757 0.00119289 0.00286903 0.02432985 0.00473051 0.01877198 0.00345286 0.00411206 0.15168668 0.00308132 0.01158201 0.01705650 0.00169661 
0.05055604 0.03901047 0.00734742 0.00225222 0.00126162 0.00293918 0.02468619 0.00478027 0.01872116 0.00349944 0.00419408 0.15149245 0.00316367 0.01143321 0.01688679 0.00169774 
0.05104888 0.03870617 0.00739976 0.00234052 0.00133231 0.00300800 0.02501628 0.00482980 0.01866954 0.00354389 0.00427546 0.15111550 0.00324713 0.01128618 0.01671444 0.00169808 
0.05150132 0.03839705 0.00745614 0.00243211 0.00140472 0.00307515 0.02531859 0.00487895 0.01861730 0.00358598 0.00435584 0.15055828 0.00333133 0.01114161 0.01654080 0.00169764 
0.05191026 0.03808585 0.00751635 0.00252665 0.00147860 0.00314030 0.02559171 0.00492760 0.01856464 0.00362548 0.00443488 0.14982405 0.00341588 0.01100014 0.01636716 0.00169643 
0.05227275 0.03777532 0.00758024 0.00262377 0.00155368 0.00320315 0.02583433 0.00497563 0.01851178 0.00366217 0.00451223 0.14891687 0.00350038 0.01086241 0.01619482 0.00169444 
0.05258603 0.03746822 0.00764765 0.00272309 0.00162969 0.00326338 0.02604531 0.00502292 0.01845895 0.00369584 0.00458754 0.14784161 0.00358444 0.01072903 0.01602503 0.00169169 
0.05284755 0.03716733 0.00771843 0.00282423 0.00170637 0.00332070 0.02622362 0.00506938 0.01840641 0.00372629 0.00466047 0.14660387 0.00366765 0.01060056 0.01585903 0.00168818 
0.05305495 0.03687539 0.00779245 0.00292680 0.00178341 0.00337485 0.02636839 0.00511492 0.01835445 0.00375333 0.00473068 0.14521003 0.00374960 0.01047756 0.01569798 0.00168393 
0.05320610 0.03659512 0.00786961 0.00303042 0.00186053 0.00342557 0.02647891 0.00515946 0.01830335 0.00377681 0.00479784 0.14366715 0.00382990 0.01036053 0.01554302 0.00167895 
0.05329910 0.03632914 0.00794981 0.00313469 0.00193743 0.00347263 0.02655460 0.00520292 0.01825341 0.00379655 0.00486164 0.14198298 0.00390815 0.01024995 0.01539523 0.00167328 
0.05333228 0.03608001 0.00803297 0.00323923 0.00201382 0.00351581 0.02659507 0.00524526 0.01820497 0.00381243 0.00492177 0.14016589 0.00398395 0.01014623 0.01525562 0.00166693 
0.05330425 0.03585019 0.00811902 0.00334363 0.00208939 0.00355492 0.02660007 0.00528641 0.01815833 0.00382433 0.00497793 0.13822488 0.00405693 0.01004978 0.01512514 0.00165993 
0.05321386 0.03564201 0.00820791 0.00344751 0.00216385 0.00358980 0.02656953 0.00532635 0.01811385 0.00383214 0.00502985 0.13616944 0.00412672 0.00996093 0.01500466 0.00165230 
0.05306023 0.03545764 0.00829958 0.00355049 0.00223689 0.00362031 0.02650352 0.00536503 0.01807186 0.00383578 0.00507727 0.13400962 0.00419296 0.00987997 0.01489498 0.00164409 
0.05284277 0.03529912 0.00839401 0.00365220 0.00230823 0.00364633 0.02640231 0.00540244 0.01803271 0.00383518 0.00511993 0.13175586 0.00425532 0.00980715 0.01479683 0.00163533 
0.05256116 0.03516829 0.00849116 0.00375226 0.00237757 0.00366777 0.02626630 0.00543856 0.01799676 0.00383030 0.00515762 0.12941901 0.00431348 0.00974266 0.01471084 0.00162605 
0.05221537 0.03506683 0.00859101 0.00385031 0.00244463 0.00368456 0.02609607 0.00547339 0.01796435 0.00382111 0.00519012 0.12701026 0.00436716 0.00968666 0.01463755 0.00161630 
0.05180568 0.03499617 0.00869354 0.00394601 0.00250913 0.00369669 0.02589234 0.00550691 0.01793584 0.00380760 0.00521726 0.12454104 0.00441608 0.00963922 0.01457744 0.00160612 
0.05133265 0.03495757 0.00879874 0.00403902 0.00257080 0.00370412 0.02565599 0.00553915 0.01791157 0.00378980 0.00523887 0.12202299 0.00445999 0.00960039 0.01453086 0.00159555 
0.05079715 0.03495202 0.00890659 0.00412901 0.00262939 0.00370690 0.02538806 0.00557011 0.01789188 0.00376772 0.00525481 0.11946792 0.00449870 0.00957015 0.01449809 0.00158463 
0.05020037 0.03498030 0.00901707 0.00421569 0.00268465 0.00370504 0.02508969 0.00559981 0.01787710 0.00374144 0.00526498 0.11688766 0.00453201 0.00954843 0.01447931 0.00157342 
0.04954379 0.03504293 0.00913014 0.00429875 0.00273634 0.00369864 0.02476220 0.00562825 0.01786755 0.00371101 0.00526928 0.11429410 0.00455978 0.00953511 0.01447461 0.00156196 
0.04882918 0.03514018 0.00924579 0.00437793 0.00278423 0.00368778 0.02440701 0.00565548 0.01786354 0.00367653 0.00526765 0.11169905 0.00458188 0.00953002 0.01448397 0.00155031 
0.04805865 0.03527206 0.00936397 0.00445298 0.00282814 0.00367258 0.02402565 0.00568150 0.01786536 0.00363811 0.00526004 0.10911418 0.00459823 0.00953293 0.01450730 0.00153850 
0.04723459 0.03543833 0.00948462 0.00452365 0.00286786 0.00365320 0.02361979 0.00570635 0.01787329 0.00359588 0.00524646 0.10655101 0.00460880 0.00954356 0.01454439 0.00152660 
0.04635968 0.03563849 0.00960769 0.00458973 0.00290323 0.00362978 0.02319115 0.00573005 0.01788758 0.00354999 0.00522691 0.10402078 0.00461356 0.00956159 0.01459496 0.00151465 
0.04543691 0.03587176 0.00973309 0.00465103 0.00293408 0.00360253 0.02274159 0.00575261 0.01790849 0.00350059 0.00520144 0.10153443 0.00461254 0.00958664 0.01465863 0.00150269 
0.04446956 0.03613714 0.00986073 0.00470738 0.00296028 0.00357165 0.02227300 0.00577408 0.01793621 0.00344785 0.00517011 0.09910251 0.00460582 0.00961830 0.01473494 0.00149080 
0.04346117 0.03643335 0.00999049 0.00475863 0.00298171 0.00353735 0.02178737 0.00579446 0.01797095 0.00339198 0.00513301 0.09673515 0.00459347 0.00965610 0.01482332 0.00147900 
0.04241557 0.03675888 0.01012224 0.00480466 0.00299827 0.00349989 0.02128673 0.00581377 0.01801287 0.00333317 0.00509026 0.09444199 0.00457565 0.00969955 0.01492316 0.00146735 
0.04133682 0.03711199 0.01025584 0.00484536 0.00300988 0.00345952 0.02077315 0.00583204 0.01806211 0.00327164 0.00504201 0.09223215 0.00455252 0.00974809 0.01503375 0.00145590 
0.04022927 0.03749071 0.01039110 0.00488066 0.00301650 0.00341651 0.02024875 0.00584926 0.01811880 0.00320761 0.00498841 0.09011413 0.00452429 0.00980116 0.01515430 0.00144469 
0.03909748 0.03789286 0.01052783 0.00491051 0.00301806 0.00337113 0.01971566 0.00586545 0.01818300 0.00314132 0.00492966 0.08809582 0.00449120 0.00985815 0.01528397 0.00143376 
0.03794622 0.03831607 0.01066583 0.00493487 0.00301457 0.00332368 0.01917600 0.00588061 0.01825479 0.00307301 0.00486597 0.08618444 0.00445353 0.00991843 0.01542186 0.00142316 
0.03678049 0.03875779 0.01080484 0.00495375 0.00300603 0.00327444 0.01863193 0.00589474 0.01833419 0.00300293 0.00479757 0.08438651 0.00441158 0.00998133 0.01556699 0.00141293 
0.03560547 0.03921529 0.01094462 0.00496716 0.00299245 0.00322372 0.01808555 0.00590782 0.01842118 0.00293135 0.00472472 0.08270780 0.00436567 0.01004618 0.01571835 0.00140311 
0.03442648 0.03968571 0.01108489 0.00497515 0.00297388 0.00317182 0.01753898 0.00591985 0.01851574 0.00285851 0.00464768 0.08115333 0.00431618 0.01011229 0.01587488 0.00139372 
0.03324904 0.04016608 0.01122536 0.00497779 0.00295040 0.00311904 0.01699426 0.00593081 0.01861780 0.00278468 0.00456675 0.07972734 0.00426348 0.01017893 0.01603548 0.00138480 
0.03207875 0.04065329 0.01136570 0.00497516 0.00292207 0.00306568 0.01645342 0.00594068 0.01872726 0.00271013 0.00448222 0.07843326 0.00420799 0.01024540 0.01619902 0.00137638 
0.03092134 0.04114418 0.01150559 0.00496739 0.00288902 0.00301205 0.01591843 0.00594942 0.01884398 0.00263512 0.00439443 0.07727374 0.00415013 0.01031098 0.01636434 0.00136848 
0.02978261 0.04163551 0.01164468 0.00495460 0.00285136 0.00295843 0.01539117 0.00595701 0.01896780 0.00255991 0.00430369 0.07625059 0.00409034 0.01037494 0.01653028 0.00136113 
0.02866843 0.04212402 0.01178261 0.00493695 0.00280923 0.00290511 0.01487347 0.00596341 0.01909852 0.00248477 0.00421036 0.07536484 0.00402908 0.01043657 0.01669566 0.00135434 
0.02758469 0.04260643 0.01191902 0.00491463 0.00276279 0.00285237 0.01436708 0.00596857 0.01923593 0.00240995 0.00411479 0.07461670 0.00396682 0.01049517 0.01685928 0.00134813 
0.02653728 0.04307947 0.01205352 0.00488783 0.00271222 0.00280048 0.01387365 0.00597246 0.01937976 0.00233570 0.00401733 0.07400560 0.00390403 0.01055004 0.01701997 0.00134250 
0.02553208 0.04353991 0.01218574 0.00485677 0.00265771 0.00274969 0.01339473 0.00597503 0.01952973 0.00226226 0.00391837 0.07353020 0.00384120 0.01060052 0.01717656 0.00133747 
0.02457491 0.04398458 0.01231528 0.00482167 0.00259946 0.00270024 0.01293178 0.00597623 0.01968553 0.00218989 0.00381826 0.07318841 0.00377881 0.01064594 0.01732791 0.00133304 
0.02367152 0.04441039 0.01244177 0.00478279 0.00253769 0.00265236 0.01248616 0.00597602 0.01984680 0.00211880 0.00371738 0.07297742 0.00371734 0.01068569 0.01747289 0.00132920 
0.02282755 0.04481437 0.01256482 0.00474039 0.00247264 0.00260626 0.01205909 0.00597433 0.02001319 0.00204922 0.00361611 0.07289374 0.00365726 0.01071916 0.01761042 0.00132595 
0.02204848 0.04519365 0.01268405 0.00469476 0.00240454 0.00256213 0.01165169 0.00597114 0.02018429 0.00198136 0.00351483 0.07293322 0.00359904 0.01074581 0.01773945 0.00132329 
0.02133966 0.04554556 0.01279910 0.00464618 0.00233366 0.00252015 0.01126496 0.00596638 0.02035968 0.00191541 0.00341390 0.07309111 0.00354314 0.01076512 0.01785900 0.00132119 
0.02070622 0.04586756 0.01290962 0.00459496 0.00226024 0.00248048 0.01089978 0.00596002 0.02053894 0.00185158 0.00331370 0.07336209 0.00349000 0.01077660 0.01796811 0.00131964 
0.02015308 0.04615732 0.01301527 0.00454140 0.00218457 0.00244324 0.01055690 0.00595202 0.02072159 0.00179002 0.00321459 0.07374035 0.00344003 0.01077982 0.01806590 0.00131862 
0.01968489 0.04641274 0.01311573 0.00448583 0.00210692 0.00240856 0.01023695 0.00594233 0.02090715 0.00173092 0.00311692 0.07421959 0.00339364 0.01077440 0.01815158 0.00131810 
0.01930603 0.04663191 0.01321070 0.00442858 0.00202758 0.00237653 0.00994043 0.00593093 0.02109513 0.00167440 0.00302103 0.07479312 0.00335122 0.01076001 0.01822440 0.00131807 
0.01902058 0.04681319 0.01329991 0.00436997 0.00194682 0.00234723 0.00966771 0.00591780 0.02128500 0.00162062 0.00292727 0.07545391 0.00331312 0.01073637 0.01828370 0.00131847 
0.01883227 0.04695521 0.01338313 0.00431034 0.00186495 0.00232071 0.00941906 0.00590291 0.02147625 0.00156969 0.00283596 0.07619462 0.00327965 0.01070326 0.01832891 0.00131929 
0.01874447 0.04705685 0.01346014 0.00425004 0.00178225 0.00229701 0.00919460 0.00588627 0.02166833 0.00152171 0.00274740 0.07700770 0.00325112 0.01066052 0.01835954 0.00132048 
0.01876019 0.04711727 0.01353075 0.00418940 0.00169902 0.00227612 0.00899435 0.00586787 0.02186068 0.00147679 0.00266190 0.07788543 0.00322780 0.01060804 0.01837521 0.00132200 
0.01888200 0.04713594 0.01359483 0.00412875 0.00161554 0.00225805 0.00881820 0.00584771 0.02205276 0.00143499 0.00257972 0.07882000 0.00320990 0.01054579 0.01837562 0.00132381 
0.01911206 0.04711260 0.01365227 0.00406844 0.00153211 0.00224277 0.00866594 0.00582583 0.02224400 0.00139639 0.00250114 0.07980354 0.00319763 0.01047378 0.01836057 0.00132586 
0.01945209 0.04704732 0.01370300 0.00400880 0.00144901 0.00223024 0.00853724 0.00580226 0.02243383 0.00136102 0.00242640 0.08082820 0.00319114 0.01039210 0.01832996 0.00132811 
0.01990333 0.04694043 0.01374700 0.00395014 0.00136654 0.00222037 0.00843167 0.00577704 0.02262168 0.00132892 0.00235572 0.08188624 0.00319056 0.01030090 0.01828381 0.00133050 
0.02046655 0.04679260 0.01378427 0.00389280 0.00128497 0.00221310 0.00834872 0.00575022 0.02280698 0.00130011 0.00228930 0.08297004 0.00319595 0.01020037 0.01822224 0.00133300 
0.02114202 0.04660476 0.01381487 0.00383708 0.00120456 0.00220831 0.00828776 0.00572188 0.02298917 0.00127459 0.00222735 0.08407218 0.00320738 0.01009081 0.01814545 0.00133553 
0.02192951 0.04637817 0.01383890 0.00378327 0.00112560 0.00220590 0.00824809 0.00569209 0.02316768 0.00125236 0.00217001 0.08518551 0.00322483 0.00997253 0.01805377 0.00133806 
0.02282830 0.04611435 0.01385650 0.00373169 0.00104833 0.00220573 0.00822892 0.00566096 0.02334196 0.00123339 0.00211743 0.08630317 0.00324829 0.00984592 0.01794763 0.00134054 
0.02383711 0.04581509 0.01386784 0.00368259 0.00097301 0.00220767 0.00822941 0.00562860 0.02351146 0.00121765 0.00206973 0.08741868 0.00327766 0.00971145 0.01782757 0.00134290 
0.02495417 0.04548246 0.01387315 0.00363624 0.00089987 0.00221155 0.00824862 0.00559512 0.02367566 0.00120509 0.00202701 0.08852594 0.00331285 0.00956960 0.01769420 0.00134510 
0.02617718 0.04511876 0.01387269 0.00359289 0.00082916 0.00221720 0.00828558 0.00556065 0.02383401 0.00119565 0.00198936 0.08961930 0.00335371 0.00942094 0.01754827 0.00134709 
0.02750333 0.04472655 0.01386675 0.00355278 0.00076108 0.00222446 0.00833926 0.00552535 0.02398602 0.00118925 0.00195682 0.09069361 0.00340005 0.00926607 0.01739058 0.00134881 
0.02892929 0.04430856 0.01385568 0.00351612 0.00069585 0.00223314 0.00840857 0.00548938 0.02413119 0.00118582 0.00192942 0.09174420 0.00345165 0.00910565 0.01722206 0.00135023 
0.03045122 0.04386776 0.01383984 0.00348311 0.00063367 0.00224305 0.00849242 0.00545290 0.02426904 0.00118527 0.00190718 0.09276699 0.00350827 0.00894037 0.01704370 0.00135129 
0.03206480 0.04340728 0.01381963 0.00345392 0.00057471 0.00225400 0.00858965 0.00541609 0.02439912 0.00118750 0.00189010 0.09375842 0.00356963 0.00877096 0.01685658 0.00135194 
0.03376521 0.04293038 0.01379548 0.00342872 0.00051915 0.00226578 0.00869910 0.00537915 0.02452100 0.00119239 0.00187813 0.09471553 0.00363542 0.00859820 0.01666184 0.00135216 
0.03554718 0.04244047 0.01376784 0.00340764 0.00046715 0.00227821 0.00881961 0.00534227 0.02463426 0.00119982 0.00187122 0.09563597 0.00370531 0.00842289 0.01646069 0.00135190 
0.03740501 0.04194106 0.01373720 0.00339080 0.00041885 0.00229108 0.00894997 0.00530567 0.02473851 0.00120968 0.00186932 0.09651798 0.00377893 0.00824584 0.01625442 0.00135112 
0.03933255 0.04143572 0.01370403 0.00337829 0.00037439 0.00230419 0.00908903 0.00526955 0.02483338 0.00122184 0.00187232 0.09736040 0.00385591 0.00806791 0.01604435 0.00134979 
0.04132327 0.04092809 0.01366886 0.00337019 0.00033387 0.00231736 0.00923559 0.00523413 0.02491855 0.00123615 0.00188011 0.09816267 0.00393585 0.00788996 0.01583185 0.00134788 
0.04337027 0.04042181 0.01363220 0.00336654 0.00029741 0.00233038 0.00938850 0.00519965 0.02499369 0.00125247 0.00189258 0.09892484 0.00401834 0.00771285 0.01561832 0.00134538 
0.04546630 0.03992054 0.01359457 0.00336738 0.00026508 0.00234307 0.00954662 0.00516631 0.02505853 0.00127066 0.00190958 0.09964750 0.00410295 0.00753747 0.01540520 0.00134226 
0.04760383 0.03942788 0.01355650 0.00337270 0.00023697 0.00235525 0.00970884 0.00513436 0.02511281 0.00129058 0.00193095 0.10033184 0.00418926 0.00736468 0.01519392 0.00133851 
0.04977501 0.03894738 0.01351851 0.00338248 0.00021313 0.00236675 0.00987408 0.00510400 0.02515630 0.00131207 0.00195652 0.10097954 0.00427681 0.00719537 0.01498596 0.00133411 
0.05197180 0.03848251 0.01348113 0.00339667 0.00019360 0.00237741 0.01004130 0.00507548 0.02518883 0.00133497 0.00198611 0.10159280 0.00436516 0.00703039 0.01478274 0.00132906 
0.05418592 0.03803662 0.01344484 0.00341522 0.00017842 0.00238707 0.01020950 0.00504901 0.02521021 0.00135914 0.00201951 0.10217429 0.00445386 0.00687059 0.01458573 0.00132337 
0.05640896 0.03761289 0.01341015 0.00343803 0.00016759 0.00239560 0.01037773 0.00502480 0.02522033 0.00138441 0.00205654 0.10272712 0.00454249 0.00671678 0.01439634 0.00131702 
0.05863238 0.03721438 0.01337753 0.00346499 0.00016112 0.00240286 0.01054508 0.00500307 0.02521908 0.00141064 0.00209695 0.10325475 0.00463059 0.00656976 0.01421595 0.00131004 
0.06084754 0.03684393 0.01334740 0.00349595 0.00015900 0.00240873 0.01071073 0.00498400 0.02520639 0.00143767 0.00214054 0.10376101 0.00471774 0.00643029 0.01404592 0.00130244 
0.06304580 0.03650417 0.01332019 0.00353076 0.00016119 0.00241311 0.01087388 0.00496780 0.02518225 0.00146535 0.00218707 0.10425004 0.00480353 0.00629910 0.01388754 0.00129424 
0.06521849 0.03619750 0.01329628 0.00356924 0.00016766 0.00241590 0.01103381 0.00495464 0.02514664 0.00149354 0.00223631 0.10472618 0.00488754 0.00617687 0.01374206 0.00128545 
0.06735702 0.03592607 0.01327602 0.00361119 0.00017835 0.00241703 0.01118987 0.00494467 0.02509960 0.00152207 0.00228800 0.10519399 0.00496940 0.00606423 0.01361063 0.00127612 
0.06945287 0.03569173 0.01325971 0.00365639 0.00019318 0.00241644 0.01134146 0.00493806 0.02504120 0.00155081 0.00234191 0.10565817 0.00504874 0.00596179 0.01349437 0.00126627 
0.07149767 0.03549609 0.01324762 0.00370459 0.00021209 0.00241406 0.01148807 0.00493493 0.02497154 0.00157963 0.00239779 0.10612349 0.00512520 0.00587006 0.01339427 0.00125595 
0.07348322 0.03534042 0.01323995 0.00375554 0.00023497 0.00240988 0.01162922 0.00493539 0.02489076 0.00160838 0.00245539 0.10659473 0.00519848 0.00578952 0.01331125 0.00124519 
0.07540153 0.03522569 0.01323689 0.00380896 0.00026171 0.00240387 0.01176454 0.00493955 0.02479902 0.00163693 0.00251447 0.10707668 0.00526826 0.00572060 0.01324613 0.00123405 
0.07724489 0.03515255 0.01323854 0.00386456 0.00029220 0.00239601 0.01189371 0.00494748 0.02469653 0.00166517 0.00257478 0.10757401 0.00533429 0.00566364 0.01319963 0.00122258 
0.07900588 0.03512132 0.01324499 0.00392203 0.00032631 0.00238632 0.01201647 0.00495924 0.02458354 0.00169297 0.00263608 0.10809126 0.00539631 0.00561893 0.01317235 0.00121082 
0.08067740 0.03513200 0.01325623 0.00398105 0.00036389 0.00237483 0.01213265 0.00497485 0.02446030 0.00172021 0.00269813 0.10863280 0.00545411 0.00558669 0.01316477 0.00119885 
0.08225277 0.03518423 0.01327222 0.00404130 0.00040479 0.00236156 0.01224212 0.00499434 0.02432714 0.00174680 0.00276070 0.10920271 0.00550752 0.00556706 0.01317726 0.00118671 
0.08372566 0.03527733 0.01329288 0.00410242 0.00044886 0.00234656 0.01234482 0.00501768 0.02418439 0.00177262 0.00282356 0.10980483 0.00555638 0.00556013 0.01321006 0.00117448 
0.08509021 0.03541031 0.01331805 0.00416407 0.00049592 0.00232989 0.01244077 0.00504485 0.02403243 0.00179760 0.00288649 0.11044262 0.00560058 0.00556590 0.01326329 0.00116222 
0.08634103 0.03558183 0.01334752 0.00422588 0.00054578 0.00231163 0.01253003 0.00507578 0.02387168 0.00182164 0.00294928 0.11111921 0.00564001 0.00558431 0.01333693 0.00115000 
0.08747321 0.03579023 0.01338103 0.00428750 0.00059827 0.00229186 0.01261272 0.00511038 0.02370258 0.00184466 0.00301172 0.11183727 0.00567464 0.00561523 0.01343085 0.00113789 
0.08848237 0.03603358 0.01341828 0.00434856 0.00065318 0.00227066 0.01268901 0.00514857 0.02352562 0.00186660 0.00307362 0.11259904 0.00570443 0.00565845 0.01354477 0.00112596 
0.08936468 0.03630963 0.01345889 0.00440867 0.00071031 0.00224814 0.01275912 0.00519019 0.02334132 0.00188739 0.00313479 0.11340630 0.00572940 0.00571370 0.01367830 0.00111428 
0.09011682 0.03661586 0.01350247 0.00446749 0.00076944 0.00222442 0.01282333 0.00523511 0.02315023 0.00190697 0.00319505 0.11426028 0.00574958 0.00578065 0.01383091 0.00110291 
0.09073611 0.03694950 0.01354854 0.00452462 0.00083037 0.00219961 0.01288194 0.00528314 0.02295293 0.00192531 0.00325424 0.11516175 0.00576504 0.00585888 0.01400197 0.00109194 
0.09122039 0.03730753 0.01359662 0.00457972 0.00089286 0.00217383 0.01293529 0.00533408 0.02275006 0.00194235 0.00331220 0.11611088 0.00577589 0.00594792 0.01419069 0.00108144 
0.09156814 0.03768672 0.01364615 0.00463242 0.00095670 0.00214721 0.01298376 0.00538773 0.02254228 0.00195808 0.00336878 0.11710734 0.00578223 0.00604726 0.01439620 0.00107146 
0.09177840 0.03808365 0.01369657 0.00468237 0.00102165 0.00211989 0.01302775 0.00544383 0.02233029 0.00197246 0.00342386 0.11815023 0.00578424 0.00615631 0.01461752 0.00106208 
0.09185082 0.03849473 0.01374728 0.00472922 0.00108749 0.00209202 0.01306770 0.00550213 0.02211481 0.00198549 0.00347731 0.11923812 0.00578207 0.00627443 0.01485354 0.00105336 
0.09178565 0.03891622 0.01379762 0.00477264 0.00115396 0.00206372 0.01310405 0.00556236 0.02189661 0.00199716 0.00352902 0.12036901 0.00577594 0.00640093 0.01510307 0.00104536 
0.09158373 0.03934427 0.01384695 0.00481232 0.00122085 0.00203514 0.01313725 0.00562422 0.02167649 0.00200747 0.00357890 0.12154040 0.00576607 0.00653510 0.01536484 0.00103815 
0.09124646 0.03977495 0.01389460 0.00484795 0.00128790 0.00200642 0.01316778 0.00568742 0.02145528 0.00201643 0.00362684 0.12274926 0.00575268 0.00667615 0.01563749 0.00103177 
0.09077582 0.04020427 0.01393988 0.00487924 0.00135489 0.00197772 0.01319611 0.00575163 0.02123386 0.00202405 0.00367278 0.12399209 0.00573604 0.00682328 0.01591957 0.00102629 
0.09017435 0.04062821 0.01398208 0.00490592 0.00142158 0.00194917 0.01322272 0.00581654 0.02101312 0.00203037 0.00371665 0.12526493 0.00571642 0.00697567 0.01620959 0.00102174 
0.08944510 0.04104275 0.01402053 0.00492775 0.00148773 0.00192090 0.01324806 0.00588179 0.02079399 0.00203542 0.00375839 0.12656337 0.00569410 0.00713245 0.01650600 0.00101817 
0.08859164 0.04144392 0.01405453 0.00494449 0.00155311 0.00189307 0.01327260 0.00594705 0.02057743 0.00203922 0.00379796 0.12788262 0.00566938 0.00729274 0.01680721 0.00101561 
0.08761805 0.04182780 0.01408339 0.00495595 0.00161750 0.00186580 0.01329679 0.00601198 0.02036443 0.00204184 0.00383532 0.12921755 0.00564256 0.00745565 0.01711160 0.00101411 
0.08652882 0.04219058 0.01410646 0.00496194 0.00168066 0.00183922 0.01332104 0.00607622 0.02015599 0.00204333 0.00387045 0.13056271 0.00561394 0.00762029 0.01741750 0.00101369 
0.08532891 0.04252854 0.01412309 0.00496230 0.00174239 0.00181346 0.01334578 0.00613942 0.01995317 0.00204374 0.00390332 0.13191239 0.00558384 0.00778574 0.01772327 0.00101436 
0.08402367 0.04283817 0.01413265 0.00495691 0.00180247 0.00178863 0.01337138 0.00620124 0.01975700 0.00204314 0.00393393 0.13326066 0.00555257 0.00795111 0.01802724 0.00101615 
0.08261881 0.04311609 0.01413458 0.00494568 0.00186070 0.00176485 0.01339819 0.00626133 0.01956858 0.00204160 0.00396229 0.13460144 0.00552044 0.00811550 0.01832776 0.00101906 
0.08112035 0.04335916 0.01412833 0.00492852 0.00191688 0.00174222 0.01342655 0.00631936 0.01938899 0.00203921 0.00398838 0.13592854 0.00548777 0.00827805 0.01862321 0.00102310 
0.07953465 0.04356447 0.01411338 0.00490540 0.00197081 0.00172085 0.01345674 0.00637500 0.01921934 0.00203603 0.00401224 0.13723570 0.00545484 0.00843788 0.01891199 0.00102827 
0.07786827 0.04372935 0.01408929 0.00487631 0.00202233 0.00170081 0.01348902 0.00642793 0.01906075 0.00203216 0.00403388 0.13851668 0.00542197 0.00859417 0.01919254 0.00103456 
0.07612802 0.04385143 0.01405566 0.00484127 0.00207126 0.00168221 0.01352362 0.00647785 0.01891432 0.00202769 0.00405332 0.13976527 0.00538943 0.00874610 0.01946337 0.00104196 
0.07432088 0.04392864 0.01401215 0.00480032 0.00211745 0.00166510 0.01356071 0.00652447 0.01878119 0.00202271 0.00407060 0.14097539 0.00535751 0.00889292 0.01972303 0.00105043 
0.07245396 0.04395924 0.01395847 0.00475356 0.00216074 0.00164957 0.01360043 0.00656751 0.01866247 0.00201731 0.00408575 0.14214109 0.00532646 0.00903387 0.01997016 0.00105997 
0.07053446 0.04394179 0.01389440 0.00470109 0.00220101 0.00163566 0.01364290 0.00660672 0.01855927 0.00201161 0.00409882 0.14325666 0.00529654 0.00916829 0.02020346 0.00107054 
0.06856966 0.04387526 0.01381981 0.00464305 0.00223814 0.00162344 0.01368816 0.00664187 0.01847268 0.00200570 0.00410985 0.14431662 0.00526799 0.00929551 0.02042174 0.00108209 
0.06656683 0.04375893 0.01373461 0.00457961 0.00227201 0.00161293 0.01373624 0.00667275 0.01840378 0.00199968 0.00411888 0.14531582 0.00524101 0.00941496 0.02062389 0.00109459 
0.06453322 0.04359248 0.01363880 0.00451099 0.00230253 0.00160418 0.01378712 0.00669916 0.01835362 0.00199367 0.00412597 0.14624943 0.00521582 0.00952609 0.02080890 0.00110799 
0.06247603 0.04337596 0.01353246 0.00443741 0.00232963 0.00159722 0.01384073 0.00672094 0.01832323 0.00198776 0.00413118 0.14711302 0.00519259 0.00962842 0.02097587 0.00112224 
0.06040235 0.04310982 0.01341573 0.00435914 0.00235323 0.00159205 0.01389699 0.00673796 0.01831359 0.00198206 0.00413454 0.14790259 0.00517149 0.00972153 0.02112403 0.00113728 
0.05831915 0.04279489 0.01328886 0.00427644 0.00237330 0.00158870 0.01395574 0.00675009 0.01832564 0.00197668 0.00413613 0.14861458 0.00515266 0.00980505 0.02125269 0.00115304 
0.05623323 0.04243237 0.01315215 0.00418965 0.00238979 0.00158716 0.01401683 0.00675726 0.01836028 0.00197172 0.00413601 0.14924591 0.00513623 0.00987870 0.02136131 0.00116947 
0.05415118 0.04202385 0.01300598 0.00409909 0.00240268 0.00158744 0.01408004 0.00675941 0.01841835 0.00196728 0.00413421 0.14979403 0.00512230 0.00994222 0.02144946 0.00118650 
0.05207936 0.04157130 0.01285082 0.00400511 0.00241198 0.00158953 0.01414514 0.00675651 0.01850062 0.00196347 0.00413082 0.15025686 0.00511094 0.00999546 0.02151682 0.00120404 
0.05002389 0.04107707 0.01268721 0.00390811 0.00241769 0.00159340 0.01421185 0.00674856 0.01860782 0.00196037 0.00412588 0.15063291 0.00510223 0.01003831 0.02156323 0.00122204 
0.04799059 0.04054383 0.01251576 0.00380846 0.00241984 0.00159905 0.01427989 0.00673559 0.01874056 0.00195808 0.00411946 0.15092120 0.00509620 0.01007073 0.02158861 0.00124042 
0.04598498 0.03997461 0.01233717 0.00370659 0.00241848 0.00160644 0.01434895 0.00671764 0.01889942 0.00195670 0.00411161 0.15112129 0.00509287 0.01009275 0.02159303 0.00125909 
0.04401226 0.03937277 0.01215219 0.00360292 0.00241367 0.00161554 0.01441868 0.00669482 0.01908485 0.00195630 0.00410239 0.15123330 0.00509225 0.01010445 0.02157666 0.00127798 
0.04207729 0.03874197 0.01196164 0.00349789 0.00240547 0.00162633 0.01448873 0.00666722 0.01929723 0.00195696 0.00409186 0.15125787 0.00509431 0.01010599 0.02153981 0.00129701 
0.04018454 0.03808614 0.01176641 0.00339194 0.00239398 0.00163875 0.01455875 0.00663498 0.01953684 0.00195877 0.00408008 0.15119618 0.00509902 0.01009757 0.02148287 0.00131609 
0.03833815 0.03740949 0.01156742 0.00328553 0.00237930 0.00165277 0.01462835 0.00659827 0.01980384 0.00196178 0.00406711 0.15104988 0.00510632 0.01007948 0.02140637 0.00133516 
0.03654185 0.03671647 0.01136568 0.00317911 0.00236154 0.00166835 0.01469716 0.00655727 0.02009828 0.00196606 0.00405299 0.15082113 0.00511614 0.01005204 0.02131092 0.00135413 
0.03479901 0.03601170 0.01116221 0.00307316 0.00234084 0.00168543 0.01476480 0.00651219 0.02042012 0.00197165 0.00403779 0.15051255 0.00512839 0.01001563 0.02119722 0.00137292 
0.03311259 0.03530003 0.01095810 0.00296812 0.00231733 0.00170397 0.01483089 0.00646327 0.02076916 0.00197861 0.00402155 0.15012717 0.00514297 0.00997068 0.02106609 0.00139146 
