0.00868629 0.01208711 0.00712461 0.00452886 0.01501814 0.00284003 0.00719195 0.00271021 0.02565612 0.00316423 0.02441681 0.00097199 0.01074873 0.05880993 0.01835166 0.00535457 
0.00885490 0.01190751 0.00713167 0.00452305 0.01482149 0.00284637 0.00755595 0.00270212 0.02522708 0.00316662 0.02470415 0.00096098 0.01079691 0.05890989 0.01840190 0.00573769 
0.00904353 0.01173572 0.00713768 0.00451533 0.01461665 0.00285284 0.00793041 0.00269931 0.02479509 0.00316888 0.02496080 0.00095049 0.01086049 0.05895824 0.01843165 0.00613260 
0.00925206 0.01157290 0.00714254 0.00450586 0.01440473 0.00285945 0.00831403 0.00270186 0.02436151 0.00317092 0.02518576 0.00094057 0.01093879 0.05895472 0.01844044 0.00653880 
0.00948031 0.01142017 0.00714612 0.00449479 0.01418684 0.00286617 0.00870548 0.00270979 0.02392766 0.00317267 0.02537817 0.00093126 0.01103115 0.05889958 0.01842800 0.00695584 
0.00972805 0.01127859 0.00714828 0.00448232 0.01396409 0.00287299 0.00910337 0.00272314 0.02349483 0.00317404 0.02553730 0.00092261 0.01113686 0.05879352 0.01839420 0.00738327 
0.00999503 0.01114919 0.00714889 0.00446861 0.01373758 0.00287989 0.00950628 0.00274190 0.02306424 0.00317496 0.02566256 0.00091466 0.01125522 0.05863775 0.01833911 0.00782064 
0.01028092 0.01103293 0.00714779 0.00445385 0.01350838 0.00288686 0.00991275 0.00276606 0.02263708 0.00317535 0.02575350 0.00090745 0.01138554 0.05843398 0.01826295 0.00826753 
0.01058538 0.01093073 0.00714485 0.00443822 0.01327756 0.00289388 0.01032131 0.00279558 0.02221449 0.00317514 0.02580981 0.00090102 0.01152713 0.05818437 0.01816614 0.00872353 
0.01090801 0.01084341 0.00713990 0.00442192 0.01304614 0.00290094 0.01073047 0.00283039 0.02179753 0.00317427 0.02583136 0.00089538 0.01167934 0.05789155 0.01804924 0.00918821 
0.01124836 0.01077174 0.00713280 0.00440514 0.01281512 0.00290802 0.01113870 0.00287042 0.02138723 0.00317267 0.02581816 0.00089057 0.01184153 0.05755861 0.01791300 0.00966116 
0.01160595 0.01071639 0.00712340 0.00438806 0.01258543 0.00291512 0.01154449 0.00291557 0.02098453 0.00317028 0.02577035 0.00088662 0.01201313 0.05718905 0.01775835 0.01014198 
0.01198026 0.01067797 0.00711154 0.00437088 0.01235799 0.00292221 0.01194633 0.00296572 0.02059031 0.00316705 0.02568828 0.00088354 0.01219358 0.05678678 0.01758636 0.01063024 
0.01237071 0.01065698 0.00709708 0.00435378 0.01213365 0.00292929 0.01234269 0.00302073 0.02020539 0.00316294 0.02557241 0.00088135 0.01238241 0.05635608 0.01739826 0.01112553 
0.01277671 0.01065384 0.00707988 0.00433695 0.01191319 0.00293636 0.01273210 0.00308044 0.01983052 0.00315792 0.02542339 0.00088005 0.01257918 0.05590159 0.01719543 0.01162742 
0.01319758 0.01066886 0.00705979 0.00432056 0.01169737 0.00294340 0.01311306 0.00314470 0.01946637 0.00315194 0.02524200 0.00087967 0.01278355 0.05542825 0.01697939 0.01213547 
0.01363264 0.01070225 0.00703670 0.00430478 0.01148685 0.00295042 0.01348413 0.00321331 0.01911356 0.00314498 0.02502918 0.00088020 0.01299522 0.05494129 0.01675180 0.01264922 
0.01408115 0.01075415 0.00701048 0.00428978 0.01128224 0.00295741 0.01384390 0.00328607 0.01877262 0.00313704 0.02478602 0.00088164 0.01321399 0.05444617 0.01651442 0.01316818 
0.01454233 0.01082455 0.00698102 0.00427573 0.01108408 0.00296437 0.01419098 0.00336276 0.01844403 0.00312810 0.02451375 0.00088400 0.01343971 0.05394855 0.01626912 0.01369188 
0.01501536 0.01091337 0.00694822 0.00426276 0.01089284 0.00297132 0.01452405 0.00344315 0.01812820 0.00311817 0.02421374 0.00088725 0.01367235 0.05345426 0.01601787 0.01421979 
0.01549937 0.01102042 0.00691200 0.00425103 0.01070893 0.00297826 0.01484183 0.00352701 0.01782547 0.00310726 0.02388750 0.00089141 0.01391192 0.05296923 0.01576272 0.01475135 
0.01599346 0.01114538 0.00687229 0.00424065 0.01053267 0.00298520 0.01514311 0.00361407 0.01753612 0.00309540 0.02353663 0.00089644 0.01415854 0.05249946 0.01550580 0.01528601 
0.01649668 0.01128787 0.00682902 0.00423176 0.01036431 0.00299215 0.01542671 0.00370408 0.01726038 0.00308261 0.02316289 0.00090233 0.01441240 0.05205100 0.01524926 0.01582314 
0.01700803 0.01144738 0.00678216 0.00422445 0.01020405 0.00299914 0.01569157 0.00379677 0.01699840 0.00306893 0.02276811 0.00090907 0.01467376 0.05162985 0.01499533 0.01636213 
0.01752649 0.01162330 0.00673168 0.00421883 0.01005200 0.00300617 0.01593665 0.00389185 0.01675031 0.00305442 0.02235423 0.00091662 0.01494297 0.05124195 0.01474621 0.01690228 
0.01805099 0.01181494 0.00667756 0.00421497 0.00990820 0.00301326 0.01616104 0.00398905 0.01651616 0.00303914 0.02192328 0.00092497 0.01522044 0.05089312 0.01450416 0.01744289 
0.01858042 0.01202150 0.00661981 0.00421294 0.00977264 0.00302045 0.01636386 0.00408806 0.01629597 0.00302316 0.02147736 0.00093409 0.01550664 0.05058903 0.01427139 0.01798323 
0.01911363 0.01224211 0.00655847 0.00421281 0.00964522 0.00302776 0.01654437 0.00418860 0.01608970 0.00300655 0.02101864 0.00094393 0.01580210 0.05033514 0.01405010 0.01852249 
0.01964944 0.01247579 0.00649356 0.00421461 0.00952581 0.00303521 0.01670188 0.00429036 0.01589731 0.00298942 0.02054933 0.00095448 0.01610742 0.05013665 0.01384245 0.01905986 
0.02018662 0.01272153 0.00642514 0.00421837 0.00941420 0.00304283 0.01683580 0.00439305 0.01571866 0.00297185 0.02007168 0.00096568 0.01642321 0.04999849 0.01365054 0.01959448 
0.02072393 0.01297819 0.00635331 0.00422411 0.00931012 0.00305064 0.01694566 0.00449636 0.01555364 0.00295395 0.01958799 0.00097751 0.01675015 0.04992524 0.01347639 0.02012545 
0.02126008 0.01324461 0.00627814 0.00423182 0.00921327 0.00305869 0.01703105 0.00460000 0.01540207 0.00293583 0.01910053 0.00098992 0.01708890 0.04992111 0.01332193 0.02065182 
0.02179376 0.01351954 0.00619974 0.00424150 0.00912328 0.00306699 0.01709168 0.00470367 0.01526377 0.00291763 0.01861162 0.00100288 0.01744018 0.04998991 0.01318902 0.02117262 
0.02232364 0.01380171 0.00611826 0.00425312 0.00903977 0.00307558 0.01712737 0.00480707 0.01513851 0.00289947 0.01812353 0.00101633 0.01780466 0.05013501 0.01307935 0.02168683 
0.02284836 0.01408978 0.00603383 0.00426663 0.00896228 0.00308448 0.01713802 0.00490992 0.01502606 0.00288148 0.01763852 0.00103023 0.01818306 0.05035929 0.01299452 0.02219341 
0.02336654 0.01438240 0.00594661 0.00428198 0.00889035 0.00309373 0.01712364 0.00501192 0.01492618 0.00286380 0.01715880 0.00104455 0.01857602 0.05066517 0.01293598 0.02269126 
0.02387678 0.01467816 0.00585679 0.00429911 0.00882348 0.00310335 0.01708434 0.00511280 0.01483859 0.00284660 0.01668654 0.00105922 0.01898417 0.05105453 0.01290502 0.02317928 
0.02437769 0.01497568 0.00576454 0.00431793 0.00876115 0.00311336 0.01702033 0.00521228 0.01476302 0.00283000 0.01622384 0.00107421 0.01940811 0.05152868 0.01290277 0.02365631 
0.02486786 0.01527353 0.00567008 0.00433837 0.00870283 0.00312380 0.01693191 0.00531011 0.01469918 0.00281418 0.01577272 0.00108947 0.01984836 0.05208843 0.01293018 0.02412120 
0.02534587 0.01557029 0.00557361 0.00436031 0.00864797 0.00313468 0.01681950 0.00540602 0.01464678 0.00279928 0.01533513 0.00110494 0.02030537 0.05273398 0.01298803 0.02457274 
0.02581032 0.01586458 0.00547538 0.00438365 0.00859601 0.00314602 0.01668359 0.00549978 0.01460551 0.00278546 0.01491289 0.00112059 0.02077950 0.05346497 0.01307692 0.02500972 
0.02625980 0.01615500 0.00537561 0.00440827 0.00854639 0.00315784 0.01652477 0.00559113 0.01457507 0.00277289 0.01450773 0.00113636 0.02127103 0.05428045 0.01319722 0.02543092 
0.02669294 0.01644021 0.00527456 0.00443404 0.00849857 0.00317015 0.01634372 0.00567988 0.01455515 0.00276172 0.01412126 0.00115221 0.02178012 0.05517889 0.01334914 0.02583510 
0.02710836 0.01671889 0.00517247 0.00446082 0.00845200 0.00318295 0.01614121 0.00576579 0.01454544 0.00275211 0.01375495 0.00116809 0.02230682 0.05615819 0.01353266 0.02622101 
0.02750473 0.01698977 0.00506962 0.00448847 0.00840615 0.00319627 0.01591808 0.00584867 0.01454561 0.00274422 0.01341014 0.00118396 0.02285104 0.05721567 0.01374759 0.02658740 
0.02788074 0.01725164 0.00496627 0.00451684 0.00836051 0.00321008 0.01567526 0.00592834 0.01455535 0.00273820 0.01308804 0.00119976 0.02341256 0.05834810 0.01399351 0.02693304 
0.02823510 0.01750336 0.00486269 0.00454578 0.00831459 0.00322441 0.01541375 0.00600462 0.01457433 0.00273420 0.01278967 0.00121547 0.02399101 0.05955171 0.01426981 0.02725669 
0.02856661 0.01774386 0.00475916 0.00457514 0.00826793 0.00323922 0.01513460 0.00607736 0.01460223 0.00273236 0.01251593 0.00123102 0.02458587 0.06082221 0.01457566 0.02755713 
0.02887407 0.01797214 0.00465595 0.00460475 0.00822011 0.00325452 0.01483894 0.00614641 0.01463871 0.00273282 0.01226755 0.00124640 0.02519646 0.06215481 0.01491007 0.02783317 
0.02915636 0.01818730 0.00455334 0.00463445 0.00817072 0.00327029 0.01452796 0.00621163 0.01468344 0.00273572 0.01204508 0.00126154 0.02582192 0.06354424 0.01527183 0.02808364 
0.02941243 0.01838855 0.00445161 0.00466409 0.00811941 0.00328651 0.01420290 0.00627292 0.01473607 0.00274117 0.01184893 0.00127643 0.02646124 0.06498480 0.01565955 0.02830739 
0.02964128 0.01857517 0.00435104 0.00469350 0.00806586 0.00330315 0.01386502 0.00633018 0.01479626 0.00274929 0.01167933 0.00129101 0.02711323 0.06647039 0.01607168 0.02850334 
0.02984199 0.01874657 0.00425188 0.00472252 0.00800979 0.00332019 0.01351566 0.00638331 0.01486364 0.00276019 0.01153632 0.00130526 0.02777652 0.06799453 0.01650648 0.02867044 
0.03001373 0.01890227 0.00415442 0.00475101 0.00795098 0.00333758 0.01315617 0.00643225 0.01493784 0.00277396 0.01141982 0.00131915 0.02844959 0.06955039 0.01696207 0.02880770 
0.03015573 0.01904191 0.00405891 0.00477879 0.00788923 0.00335529 0.01278793 0.00647693 0.01501849 0.00279069 0.01132955 0.00133265 0.02913071 0.07113089 0.01743641 0.02891417 
0.03026734 0.01916523 0.00396559 0.00480574 0.00782443 0.00337328 0.01241235 0.00651732 0.01510519 0.00281046 0.01126508 0.00134573 0.02981803 0.07272867 0.01792732 0.02898900 
0.03034798 0.01927214 0.00387473 0.00483170 0.00775647 0.00339149 0.01203084 0.00655338 0.01519754 0.00283332 0.01122583 0.00135836 0.03050951 0.07433618 0.01843252 0.02903139 
0.03039719 0.01936262 0.00378655 0.00485653 0.00768532 0.00340988 0.01164484 0.00658510 0.01529511 0.00285933 0.01121106 0.00137052 0.03120296 0.07594569 0.01894959 0.02904064 
0.03041461 0.01943683 0.00370128 0.00488012 0.00761101 0.00342840 0.01125576 0.00661248 0.01539747 0.00288852 0.01121989 0.00138220 0.03189604 0.07754939 0.01947605 0.02901612 
0.03039996 0.01949502 0.00361914 0.00490233 0.00753358 0.00344698 0.01086505 0.00663553 0.01550415 0.00292093 0.01125130 0.00139338 0.03258629 0.07913937 0.02000931 0.02895731 
0.03035312 0.01953759 0.00354034 0.00492306 0.00745315 0.00346556 0.01047412 0.00665426 0.01561469 0.00295655 0.01130415 0.00140404 0.03327111 0.08070773 0.02054673 0.02886379 
0.03027404 0.01956506 0.00346505 0.00494219 0.00736989 0.00348408 0.01008437 0.00666872 0.01572859 0.00299540 0.01137716 0.00141416 0.03394779 0.08224660 0.02108561 0.02873523 
0.03016280 0.01957807 0.00339347 0.00495964 0.00728400 0.00350247 0.00969718 0.00667895 0.01584534 0.00303746 0.01146897 0.00142375 0.03461351 0.08374816 0.02162322 0.02857143 
0.03001962 0.01957741 0.00332576 0.00497532 0.00719572 0.00352066 0.00931392 0.00668500 0.01596441 0.00308269 0.01157810 0.00143279 0.03526539 0.08520473 0.02215683 0.02837231 
0.02984480 0.01956394 0.00326207 0.00498916 0.00710536 0.00353858 0.00893589 0.00668695 0.01608525 0.00313106 0.01170298 0.00144128 0.03590046 0.08660881 0.02268367 0.02813790 
0.02963879 0.01953867 0.00320253 0.00500108 0.00701325 0.00355616 0.00856440 0.00668486 0.01620728 0.00318252 0.01184198 0.00144922 0.03651572 0.08795308 0.02320103 0.02786838 
0.02940213 0.01950270 0.00314728 0.00501105 0.00691976 0.00357333 0.00820069 0.00667882 0.01632993 0.00323699 0.01199338 0.00145661 0.03710811 0.08923051 0.02370619 0.02756404 
0.02913552 0.01945725 0.00309641 0.00501901 0.00682530 0.00359001 0.00784595 0.00666892 0.01645259 0.00329440 0.01215544 0.00146344 0.03767460 0.09043433 0.02419651 0.02722532 
0.02883974 0.01940361 0.00305001 0.00502494 0.00673032 0.00360613 0.00750134 0.00665526 0.01657464 0.00335466 0.01232637 0.00146974 0.03821212 0.09155814 0.02466937 0.02685279 
0.02851570 0.01934317 0.00300817 0.00502882 0.00663527 0.00362161 0.00716794 0.00663795 0.01669545 0.00341765 0.01250433 0.00147550 0.03871765 0.09259587 0.02512228 0.02644717 
0.02816441 0.01927740 0.00297095 0.00503063 0.00654065 0.00363638 0.00684680 0.00661710 0.01681438 0.00348328 0.01268751 0.00148073 0.03918823 0.09354187 0.02555278 0.02600932 
0.02778702 0.01920781 0.00293838 0.00503038 0.00644699 0.00365037 0.00653888 0.00659282 0.01693077 0.00355142 0.01287406 0.00148545 0.03962095 0.09439093 0.02595856 0.02554024 
0.02738476 0.01913601 0.00291049 0.00502808 0.00635480 0.00366350 0.00624510 0.00656523 0.01704397 0.00362192 0.01306218 0.00148967 0.04001299 0.09513828 0.02633741 0.02504108 
0.02695896 0.01906362 0.00288731 0.00502375 0.00626464 0.00367572 0.00596629 0.00653445 0.01715332 0.00369465 0.01325007 0.00149341 0.04036166 0.09577965 0.02668725 0.02451312 
0.02651106 0.01899232 0.00286882 0.00501743 0.00617706 0.00368694 0.00570324 0.00650062 0.01725817 0.00376946 0.01343597 0.00149668 0.04066438 0.09631126 0.02700612 0.02395781 
0.02604258 0.01892379 0.00285501 0.00500915 0.00609263 0.00369711 0.00545663 0.00646386 0.01735787 0.00384618 0.01361820 0.00149951 0.04091873 0.09672987 0.02729224 0.02337672 
0.02555513 0.01885974 0.00284585 0.00499896 0.00601190 0.00370617 0.00522708 0.00642430 0.01745177 0.00392465 0.01379512 0.00150191 0.04112246 0.09703276 0.02754396 0.02277155 
0.02505040 0.01880188 0.00284129 0.00498693 0.00593544 0.00371405 0.00501517 0.00638207 0.01753925 0.00400470 0.01396516 0.00150391 0.04127352 0.09721776 0.02775983 0.02214414 
0.02453016 0.01875189 0.00284126 0.00497311 0.00586379 0.00372070 0.00482134 0.00633731 0.01761971 0.00408616 0.01412684 0.00150553 0.04137005 0.09728328 0.02793855 0.02149647 
0.02399621 0.01871143 0.00284569 0.00495757 0.00579750 0.00372607 0.00464601 0.00629015 0.01769256 0.00416884 0.01427880 0.00150679 0.04141042 0.09722826 0.02807900 0.02083062 
0.02345045 0.01868214 0.00285450 0.00494040 0.00573710 0.00373011 0.00448949 0.00624071 0.01775725 0.00425256 0.01441975 0.00150771 0.04139325 0.09705222 0.02818025 0.02014880 
0.02289479 0.01866557 0.00286758 0.00492167 0.00568310 0.00373278 0.00435202 0.00618914 0.01781326 0.00433713 0.01454853 0.00150833 0.04131742 0.09675523 0.02824156 0.01945334 
0.02233121 0.01866325 0.00288481 0.00490147 0.00563597 0.00373403 0.00423378 0.00613556 0.01786013 0.00442237 0.01466411 0.00150867 0.04118204 0.09633792 0.02826239 0.01874663 
0.02176170 0.01867659 0.00290607 0.00487989 0.00559618 0.00373384 0.00413484 0.00608010 0.01789742 0.00450809 0.01476556 0.00150876 0.04098655 0.09580146 0.02824237 0.01803120 
0.02118828 0.01870695 0.00293122 0.00485703 0.00556415 0.00373217 0.00405522 0.00602289 0.01792474 0.00459410 0.01485211 0.00150861 0.04073064 0.09514755 0.02818134 0.01730961 
0.02061297 0.01875556 0.00296011 0.00483297 0.00554029 0.00372899 0.00399486 0.00596406 0.01794179 0.00468022 0.01492312 0.00150826 0.04041431 0.09437843 0.02807934 0.01658455 
0.02003782 0.01882355 0.00299259 0.00480782 0.00552495 0.00372429 0.00395362 0.00590372 0.01794829 0.00476626 0.01497810 0.00150773 0.04003786 0.09349683 0.02793659 0.01585871 
0.01946484 0.01891192 0.00302848 0.00478167 0.00551845 0.00371805 0.00393131 0.00584201 0.01794405 0.00485204 0.01501667 0.00150704 0.03960190 0.09250595 0.02775349 0.01513487 
0.01889606 0.01902157 0.00306761 0.00475461 0.00552108 0.00371026 0.00392763 0.00577905 0.01792896 0.00493738 0.01503865 0.00150622 0.03910734 0.09140948 0.02753064 0.01441583 
0.01833345 0.01915320 0.00310979 0.00472675 0.00553308 0.00370090 0.00394226 0.00571494 0.01790296 0.00502212 0.01504396 0.00150529 0.03855540 0.09021152 0.02726881 0.01370442 
0.01777897 0.01930741 0.00315483 0.00469816 0.00555462 0.00368999 0.00397478 0.00564982 0.01786608 0.00510607 0.01503269 0.00150428 0.03794761 0.08891660 0.02696896 0.01300347 
0.01723453 0.01948463 0.00320252 0.00466895 0.00558587 0.00367751 0.00402473 0.00558380 0.01781845 0.00518909 0.01500508 0.00150320 0.03728581 0.08752962 0.02663220 0.01231581 
0.01670199 0.01968510 0.00325267 0.00463920 0.00562691 0.00366349 0.00409157 0.00551700 0.01776026 0.00527101 0.01496149 0.00150207 0.03657211 0.08605585 0.02625980 0.01164427 
0.01618313 0.01990892 0.00330506 0.00460900 0.00567779 0.00364792 0.00417472 0.00544952 0.01769181 0.00535167 0.01490244 0.00150091 0.03580892 0.08450088 0.02585321 0.01099163 
0.01567970 0.02015601 0.00335947 0.00457841 0.00573851 0.00363083 0.00427354 0.00538149 0.01761349 0.00543094 0.01482857 0.00149973 0.03499894 0.08287058 0.02541399 0.01036062 
0.01519333 0.02042610 0.00341568 0.00454753 0.00580900 0.00361223 0.00438734 0.00531302 0.01752576 0.00550868 0.01474065 0.00149855 0.03414513 0.08117109 0.02494385 0.00975394 
0.01472559 0.02071875 0.00347348 0.00451640 0.00588917 0.00359216 0.00451539 0.00524423 0.01742922 0.00558474 0.01463958 0.00149739 0.03325067 0.07940879 0.02444463 0.00917420 
0.01427795 0.02103333 0.00353263 0.00448511 0.00597885 0.00357063 0.00465691 0.00517523 0.01732451 0.00565902 0.01452637 0.00149624 0.03231903 0.07759023 0.02391827 0.00862391 
0.01385180 0.02136904 0.00359290 0.00445370 0.00607784 0.00354768 0.00481108 0.00510613 0.01721240 0.00573139 0.01440214 0.00149513 0.03135385 0.07572214 0.02336682 0.00810552 
0.01344838 0.02172489 0.00365407 0.00442223 0.00618588 0.00352335 0.00497704 0.00503706 0.01709375 0.00580174 0.01426810 0.00149405 0.03035900 0.07381137 0.02279244 0.00762132 
0.01306888 0.02209972 0.00371591 0.00439073 0.00630265 0.00349767 0.00515392 0.00496814 0.01696950 0.00586998 0.01412556 0.00149301 0.02933852 0.07186485 0.02219734 0.00717351 
0.01271431 0.02249220 0.00377819 0.00435926 0.00642781 0.00347069 0.00534079 0.00489949 0.01684069 0.00593599 0.01397589 0.00149202 0.02829660 0.06988959 0.02158381 0.00676415 
0.01238562 0.02290081 0.00384068 0.00432783 0.00656094 0.00344245 0.00553673 0.00483123 0.01670843 0.00599970 0.01382054 0.00149106 0.02723757 0.06789262 0.02095421 0.00639512 
0.01208358 0.02332391 0.00390316 0.00429648 0.00670161 0.00341298 0.00574077 0.00476350 0.01657394 0.00606102 0.01366103 0.00149015 0.02616588 0.06588095 0.02031094 0.00606817 
0.01180888 0.02375966 0.00396540 0.00426522 0.00684933 0.00338236 0.00595194 0.00469642 0.01643847 0.00611988 0.01349888 0.00148927 0.02508605 0.06386156 0.01965643 0.00578488 
0.01156204 0.02420610 0.00402718 0.00423406 0.00700356 0.00335061 0.00616925 0.00463014 0.01630339 0.00617620 0.01333570 0.00148842 0.02400268 0.06184139 0.01899312 0.00554664 
0.01134349 0.02466114 0.00408829 0.00420301 0.00716375 0.00331780 0.00639171 0.00456478 0.01617011 0.00622993 0.01317309 0.00148760 0.02292038 0.05982724 0.01832349 0.00535464 
0.01115348 0.02512255 0.00414851 0.00417207 0.00732930 0.00328398 0.00661832 0.00450051 0.01604009 0.00628099 0.01301265 0.00148679 0.02184381 0.05782580 0.01764999 0.00520990 
0.01099217 0.02558800 0.00420765 0.00414123 0.00749957 0.00324921 0.00684809 0.00443746 0.01591486 0.00632935 0.01285600 0.00148598 0.02077757 0.05584363 0.01697508 0.00511321 
0.01085955 0.02605506 0.00426549 0.00411048 0.00767392 0.00321353 0.00708001 0.00437578 0.01579598 0.00637494 0.01270473 0.00148516 0.01972623 0.05388707 0.01630118 0.00506517 
0.01075550 0.02652120 0.00432185 0.00407979 0.00785166 0.00317701 0.00731310 0.00431564 0.01568504 0.00641773 0.01256041 0.00148431 0.01869430 0.05196231 0.01563068 0.00506617 
0.01067977 0.02698384 0.00437655 0.00404916 0.00803208 0.00313969 0.00754637 0.00425719 0.01558365 0.00645766 0.01242458 0.00148343 0.01768619 0.05007526 0.01496593 0.00511637 
0.01063196 0.02744033 0.00442940 0.00401855 0.00821448 0.00310165 0.00777888 0.00420061 0.01549344 0.00649471 0.01229871 0.00148249 0.01670619 0.04823163 0.01430922 0.00521571 
0.01061157 0.02788799 0.00448023 0.00398793 0.00839813 0.00306293 0.00800966 0.00414606 0.01541605 0.00652884 0.01218422 0.00148149 0.01575843 0.04643685 0.01366278 0.00536393 
0.01061797 0.02832410 0.00452889 0.00395727 0.00858227 0.00302359 0.00823781 0.00409371 0.01535310 0.00656001 0.01208247 0.00148039 0.01484687 0.04469605 0.01302877 0.00556052 
0.01065041 0.02874597 0.00457522 0.00392653 0.00876618 0.00298369 0.00846241 0.00404375 0.01530619 0.00658819 0.01199473 0.00147919 0.01397531 0.04301410 0.01240927 0.00580477 
0.01070802 0.02915089 0.00461908 0.00389567 0.00894911 0.00294328 0.00868260 0.00399634 0.01527690 0.00661336 0.01192217 0.00147787 0.01314730 0.04139554 0.01180626 0.00609576 
0.01078984 0.02953618 0.00466036 0.00386466 0.00913032 0.00290242 0.00889753 0.00395167 0.01526674 0.00663547 0.01186587 0.00147641 0.01236616 0.03984457 0.01122163 0.00643235 
0.01089479 0.02989922 0.00469891 0.00383344 0.00930907 0.00286116 0.00910641 0.00390992 0.01527721 0.00665452 0.01182682 0.00147479 0.01163496 0.03836507 0.01065717 0.00681318 
0.01102173 0.03023745 0.00473465 0.00380199 0.00948464 0.00281956 0.00930846 0.00387128 0.01530970 0.00667046 0.01180587 0.00147300 0.01095650 0.03696060 0.01011456 0.00723671 
0.01116940 0.03054838 0.00476747 0.00377025 0.00965633 0.00277767 0.00950296 0.00383592 0.01536554 0.00668328 0.01180377 0.00147102 0.01033330 0.03563434 0.00959537 0.00770119 
0.01133647 0.03082963 0.00479729 0.00373818 0.00982346 0.00273553 0.00968921 0.00380403 0.01544600 0.00669294 0.01182113 0.00146883 0.00976755 0.03438912 0.00910104 0.00820469 
0.01152155 0.03107892 0.00482404 0.00370575 0.00998536 0.00269320 0.00986657 0.00377577 0.01555220 0.00669943 0.01185844 0.00146642 0.00926115 0.03322741 0.00863289 0.00874511 
0.01172319 0.03129411 0.00484767 0.00367291 0.01014140 0.00265073 0.01003444 0.00375133 0.01568519 0.00670271 0.01191606 0.00146379 0.00881566 0.03215135 0.00819213 0.00932016 
0.01193986 0.03147321 0.00486812 0.00363962 0.01029096 0.00260816 0.01019228 0.00373088 0.01584587 0.00670277 0.01199420 0.00146091 0.00843232 0.03116268 0.00777982 0.00992742 
0.01217001 0.03161437 0.00488538 0.00360586 0.01043349 0.00256555 0.01033958 0.00371456 0.01603504 0.00669958 0.01209296 0.00145777 0.00811201 0.03026279 0.00739689 0.01056433 
0.01241206 0.03171593 0.00489942 0.00357158 0.01056845 0.00252293 0.01047590 0.00370255 0.01625335 0.00669312 0.01221226 0.00145438 0.00785528 0.02945274 0.00704417 0.01122817 
0.01266438 0.03177642 0.00491023 0.00353677 0.01069533 0.00248034 0.01060083 0.00369498 0.01650128 0.00668336 0.01235193 0.00145071 0.00766233 0.02873320 0.00672230 0.01191613 
0.01292534 0.03179456 0.00491783 0.00350138 0.01081371 0.00243784 0.01071405 0.00369199 0.01677918 0.00667030 0.01251163 0.00144677 0.00753300 0.02810451 0.00643184 0.01262529 
0.01319332 0.03176926 0.00492223 0.00346541 0.01092315 0.00239546 0.01081525 0.00369370 0.01708725 0.00665390 0.01269090 0.00144256 0.00746680 0.02756668 0.00617318 0.01335265 
0.01346666 0.03169968 0.00492348 0.00342884 0.01102332 0.00235325 0.01090420 0.00370021 0.01742548 0.00663415 0.01288913 0.00143807 0.00746289 0.02711938 0.00594660 0.01409514 
0.01374374 0.03158519 0.00492162 0.00339165 0.01111389 0.00231123 0.01098073 0.00371163 0.01779373 0.00661104 0.01310562 0.00143330 0.00752010 0.02676193 0.00575223 0.01484962 
0.01402297 0.03142540 0.00491671 0.00335383 0.01119461 0.00226945 0.01104472 0.00372803 0.01819167 0.00658457 0.01333950 0.00142826 0.00763693 0.02649339 0.00559009 0.01561293 
0.01430277 0.03122015 0.00490883 0.00331539 0.01126526 0.00222795 0.01109609 0.00374948 0.01861877 0.00655471 0.01358983 0.00142295 0.00781156 0.02631248 0.00546006 0.01638188 
0.01458160 0.03096952 0.00489805 0.00327632 0.01132571 0.00218675 0.01113484 0.00377601 0.01907435 0.00652148 0.01385551 0.00141739 0.00804186 0.02621764 0.00536191 0.01715328 
0.01485799 0.03067385 0.00488448 0.00323664 0.01137583 0.00214590 0.01116101 0.00380765 0.01955753 0.00648488 0.01413538 0.00141157 0.00832542 0.02620703 0.00529527 0.01792393 
0.01513051 0.03033372 0.00486823 0.00319635 0.01141559 0.00210542 0.01117470 0.00384439 0.02006725 0.00644491 0.01442816 0.00140551 0.00865955 0.02627857 0.00525967 0.01869070 
0.01539778 0.02994996 0.00484940 0.00315548 0.01144499 0.00206536 0.01117605 0.00388622 0.02060229 0.00640160 0.01473248 0.00139923 0.00904129 0.02642991 0.00525454 0.01945047 
0.01565852 0.02952363 0.00482814 0.00311405 0.01146409 0.00202574 0.01116527 0.00393309 0.02116123 0.00635497 0.01504689 0.00139274 0.00946747 0.02665847 0.00527917 0.02020018 
0.01591150 0.02905605 0.00480457 0.00307208 0.01147301 0.00198659 0.01114261 0.00398494 0.02174249 0.00630505 0.01536989 0.00138605 0.00993467 0.02696147 0.00533277 0.02093689 
0.01615560 0.02854876 0.00477884 0.00302962 0.01147189 0.00194795 0.01110837 0.00404166 0.02234431 0.00625189 0.01569990 0.00137918 0.01043928 0.02733593 0.00541446 0.02165770 
0.01638976 0.02800353 0.00475111 0.00298671 0.01146096 0.00190984 0.01106289 0.00410315 0.02296480 0.00619554 0.01603528 0.00137216 0.01097753 0.02777866 0.00552326 0.02235984 
0.01661304 0.02742238 0.00472153 0.00294337 0.01144047 0.00187230 0.01100658 0.00416925 0.02360189 0.00613607 0.01637437 0.00136500 0.01154548 0.02828634 0.00565811 0.02304067 
0.01682457 0.02680751 0.00469026 0.00289968 0.01141074 0.00183536 0.01093987 0.00423979 0.02425337 0.00607355 0.01671547 0.00135772 0.01213908 0.02885550 0.00581787 0.02369767 
0.01702362 0.02616134 0.00465748 0.00285566 0.01137211 0.00179904 0.01086322 0.00431459 0.02491692 0.00600807 0.01705685 0.00135035 0.01275416 0.02948251 0.00600133 0.02432847 
0.01720953 0.02548647 0.00462337 0.00281140 0.01132498 0.00176337 0.01077716 0.00439342 0.02559006 0.00593974 0.01739679 0.00134291 0.01338650 0.03016366 0.00620722 0.02493087 
0.01738175 0.02478569 0.00458809 0.00276693 0.01126978 0.00172838 0.01068223 0.00447603 0.02627023 0.00586868 0.01773355 0.00133542 0.01403181 0.03089515 0.00643420 0.02550283 
0.01753987 0.02406195 0.00455182 0.00272234 0.01120697 0.00169411 0.01057901 0.00456215 0.02695476 0.00579502 0.01806541 0.00132791 0.01468578 0.03167308 0.00668089 0.02604249 
0.01768355 0.02331835 0.00451475 0.00267768 0.01113707 0.00166057 0.01046810 0.00465149 0.02764089 0.00571891 0.01839067 0.00132039 0.01534412 0.03249351 0.00694586 0.02654818 
0.01781257 0.02255811 0.00447706 0.00263302 0.01106059 0.00162780 0.01035015 0.00474372 0.02832581 0.00564051 0.01870766 0.00131290 0.01600257 0.03335247 0.00722766 0.02701843 
0.01792683 0.02178460 0.00443892 0.00258844 0.01097810 0.00159582 0.01022581 0.00483851 0.02900663 0.00556002 0.01901474 0.00130545 0.01665690 0.03424595 0.00752478 0.02745197 
0.01802633 0.02100125 0.00440050 0.00254401 0.01089018 0.00156466 0.01009576 0.00493548 0.02968044 0.00547762 0.01931035 0.00129808 0.01730300 0.03516995 0.00783572 0.02784772 
0.01811116 0.02021159 0.00436199 0.00249980 0.01079741 0.00153434 0.00996069 0.00503428 0.03034430 0.00539354 0.01959294 0.00129079 0.01793685 0.03612048 0.00815893 0.02820485 
0.01818153 0.01941922 0.00432355 0.00245590 0.01070041 0.00150490 0.00982129 0.00513448 0.03099526 0.00530802 0.01986108 0.00128362 0.01855455 0.03709358 0.00849289 0.02852270 
0.01823773 0.01862775 0.00428534 0.00241237 0.01059981 0.00147636 0.00967830 0.00523569 0.03163037 0.00522130 0.02011336 0.00127657 0.01915239 0.03808535 0.00883605 0.02880086 
0.01828017 0.01784086 0.00424752 0.00236929 0.01049624 0.00144874 0.00953242 0.00533747 0.03224674 0.00513367 0.02034851 0.00126968 0.01972681 0.03909195 0.00918687 0.02903912 
0.01830931 0.01706219 0.00421024 0.00232674 0.01039031 0.00142206 0.00938438 0.00543939 0.03284149 0.00504540 0.02056529 0.00126296 0.02027447 0.04010959 0.00954382 0.02923748 
0.01832572 0.01629540 0.00417364 0.00228480 0.01028268 0.00139636 0.00923489 0.00554099 0.03341181 0.00495682 0.02076260 0.00125642 0.02079224 0.04113462 0.00990539 0.02939617 
0.01833004 0.01554407 0.00413787 0.00224354 0.01017396 0.00137165 0.00908468 0.00564184 0.03395496 0.00486825 0.02093942 0.00125008 0.02127722 0.04216347 0.01027010 0.02951559 
0.01832298 0.01481177 0.00410303 0.00220302 0.01006476 0.00134795 0.00893445 0.00574146 0.03446832 0.00478003 0.02109484 0.00124396 0.02172679 0.04319269 0.01063648 0.02959639 
0.01830531 0.01410196 0.00406925 0.00216333 0.00995571 0.00132529 0.00878489 0.00583942 0.03494934 0.00469251 0.02122805 0.00123806 0.02213858 0.04421899 0.01100312 0.02963940 
0.01827785 0.01341803 0.00403664 0.00212453 0.00984738 0.00130368 0.00863669 0.00593524 0.03539561 0.00460608 0.02133838 0.00123240 0.02251052 0.04523918 0.01136863 0.02964561 
0.01824149 0.01276324 0.00400528 0.00208669 0.00974034 0.00128315 0.00849050 0.00602848 0.03580487 0.00452112 0.02142524 0.00122698 0.02284082 0.04625028 0.01173167 0.02961624 
0.01819714 0.01214073 0.00397526 0.00204986 0.00963514 0.00126371 0.00834698 0.00611871 0.03617500 0.00443804 0.02148819 0.00122180 0.02312799 0.04724944 0.01209095 0.02955264 
0.01814575 0.01155348 0.00394665 0.00201411 0.00953231 0.00124537 0.00820673 0.00620549 0.03650403 0.00435724 0.02152689 0.00121689 0.02337089 0.04823400 0.01244525 0.02945636 
0.01808830 0.01100432 0.00391950 0.00197949 0.00943234 0.00122815 0.00807035 0.00628840 0.03679019 0.00427916 0.02154113 0.00121223 0.02356864 0.04920148 0.01279338 0.02932906 
0.01802578 0.01049589 0.00389387 0.00194605 0.00933568 0.00121206 0.00793840 0.00636705 0.03703190 0.00420423 0.02153082 0.00120784 0.02372074 0.05014959 0.01313424 0.02917258 
0.01795919 0.01003064 0.00386979 0.00191384 0.00924278 0.00119711 0.00781141 0.00644107 0.03722775 0.00413288 0.02149598 0.00120370 0.02382696 0.05107625 0.01346677 0.02898886 
0.01788953 0.00961080 0.00384728 0.00188290 0.00915401 0.00118331 0.00768989 0.00651008 0.03737656 0.00406557 0.02143677 0.00119983 0.02388744 0.05197956 0.01379000 0.02877995 
0.01781780 0.00923840 0.00382636 0.00185327 0.00906975 0.00117067 0.00757427 0.00657378 0.03747735 0.00400276 0.02135345 0.00119621 0.02390258 0.05285784 0.01410302 0.02854801 
0.01774497 0.00891523 0.00380701 0.00182498 0.00899030 0.00115918 0.00746500 0.00663184 0.03752938 0.00394487 0.02124639 0.00119285 0.02387315 0.05370962 0.01440500 0.02829529 
0.01767201 0.00864283 0.00378923 0.00179807 0.00891594 0.00114886 0.00736246 0.00668401 0.03753212 0.00389239 0.02111610 0.00118974 0.02380020 0.05453364 0.01469519 0.02802409 
0.01759985 0.00842249 0.00377299 0.00177254 0.00884692 0.00113969 0.00726697 0.00673005 0.03748526 0.00384574 0.02096316 0.00118688 0.02368506 0.05532883 0.01497290 0.02773678 
0.01752937 0.00825525 0.00375826 0.00174842 0.00878341 0.00113168 0.00717886 0.00676976 0.03738874 0.00380537 0.02078829 0.00118425 0.02352936 0.05609435 0.01523754 0.02743577 
0.01746142 0.00814190 0.00374499 0.00172572 0.00872558 0.00112483 0.00709836 0.00680296 0.03724271 0.00377172 0.02059229 0.00118185 0.02333502 0.05682957 0.01548859 0.02712347 
0.01739681 0.00808293 0.00373313 0.00170444 0.00867353 0.00111911 0.00702570 0.00682955 0.03704759 0.00374522 0.02037605 0.00117968 0.02310418 0.05753406 0.01572561 0.02680234 
0.01733628 0.00807858 0.00372262 0.00168459 0.00862733 0.00111453 0.00696105 0.00684942 0.03680399 0.00372627 0.02014056 0.00117772 0.02283924 0.05820757 0.01594823 0.02647479 
0.01728053 0.00812882 0.00371337 0.00166617 0.00858700 0.00111107 0.00690451 0.00686254 0.03651275 0.00371527 0.01988689 0.00117598 0.02254282 0.05885007 0.01615619 0.02614324 
0.01723017 0.00823334 0.00370533 0.00164915 0.00855251 0.00110872 0.00685618 0.00686891 0.03617496 0.00371261 0.01961620 0.00117443 0.02221775 0.05946172 0.01634928 0.02581005 
0.01718576 0.00839155 0.00369839 0.00163354 0.00852382 0.00110745 0.00681609 0.00686856 0.03579191 0.00371863 0.01932969 0.00117308 0.02186701 0.06004283 0.01652739 0.02547754 
0.01714780 0.00860262 0.00369247 0.00161930 0.00850083 0.00110725 0.00678422 0.00686159 0.03536508 0.00373368 0.01902865 0.00117191 0.02149377 0.06059392 0.01669045 0.02514798 
0.01711670 0.00886543 0.00368747 0.00160641 0.00848338 0.00110809 0.00676052 0.00684813 0.03489618 0.00375806 0.01871441 0.00117092 0.02110134 0.06111565 0.01683852 0.02482353 
0.01709279 0.00917862 0.00368329 0.00159485 0.00847132 0.00110995 0.00674488 0.00682834 0.03438710 0.00379205 0.01838838 0.00117010 0.02069310 0.06160883 0.01697169 0.02450627 
0.01707634 0.00954057 0.00367983 0.00158458 0.00846443 0.00111280 0.00673718 0.00680244 0.03383990 0.00383590 0.01805197 0.00116945 0.02027256 0.06207442 0.01709013 0.02419819 
0.01706755 0.00994941 0.00367698 0.00157555 0.00846246 0.00111662 0.00673722 0.00677069 0.03325683 0.00388982 0.01770667 0.00116896 0.01984327 0.06251352 0.01719409 0.02390116 
0.01706651 0.01040306 0.00367464 0.00156773 0.00846515 0.00112136 0.00674478 0.00673338 0.03264029 0.00395400 0.01735396 0.00116862 0.01940882 0.06292733 0.01728388 0.02361691 
0.01707327 0.01089921 0.00367271 0.00156108 0.00847219 0.00112701 0.00675961 0.00669085 0.03199282 0.00402858 0.01699536 0.00116844 0.01897282 0.06331715 0.01735986 0.02334706 
0.01708779 0.01143533 0.00367107 0.00155554 0.00848324 0.00113351 0.00678141 0.00664347 0.03131708 0.00411366 0.01663241 0.00116842 0.01853885 0.06368438 0.01742247 0.02309305 
0.01710994 0.01200870 0.00366963 0.00155105 0.00849797 0.00114084 0.00680984 0.00659165 0.03061588 0.00420931 0.01626664 0.00116854 0.01811046 0.06403050 0.01747218 0.02285621 
0.01713956 0.01261644 0.00366828 0.00154757 0.00851598 0.00114896 0.00684455 0.00653583 0.02989211 0.00431553 0.01589959 0.00116881 0.01769113 0.06435703 0.01750952 0.02263769 
0.01717637 0.01325547 0.00366694 0.00154503 0.00853689 0.00115782 0.00688514 0.00647647 0.02914874 0.00443231 0.01553280 0.00116923 0.01728425 0.06466556 0.01753508 0.02243849 
0.01722008 0.01392258 0.00366549 0.00154338 0.00856029 0.00116739 0.00693119 0.00641408 0.02838883 0.00455957 0.01516778 0.00116981 0.01689310 0.06495768 0.01754947 0.02225941 
0.01727029 0.01461442 0.00366387 0.00154254 0.00858576 0.00117762 0.00698227 0.00634916 0.02761548 0.00469720 0.01480602 0.00117055 0.01652081 0.06523502 0.01755335 0.02210113 
0.01732657 0.01532755 0.00366198 0.00154247 0.00861285 0.00118848 0.00703789 0.00628226 0.02683185 0.00484502 0.01444901 0.00117144 0.01617038 0.06549921 0.01754740 0.02196412 
0.01738844 0.01605839 0.00365976 0.00154309 0.00864114 0.00119991 0.00709758 0.00621394 0.02604111 0.00500283 0.01409816 0.00117251 0.01584460 0.06575184 0.01753235 0.02184868 
0.01745536 0.01680331 0.00365713 0.00154433 0.00867018 0.00121188 0.00716084 0.00614476 0.02524645 0.00517036 0.01375489 0.00117374 0.01554608 0.06599449 0.01750893 0.02175496 
0.01752675 0.01755863 0.00365404 0.00154614 0.00869953 0.00122434 0.00722714 0.00607529 0.02445104 0.00534730 0.01342055 0.00117516 0.01527720 0.06622869 0.01747790 0.02168293 
0.01760199 0.01832060 0.00365042 0.00154845 0.00872873 0.00123725 0.00729595 0.00600612 0.02365805 0.00553330 0.01309643 0.00117676 0.01504013 0.06645591 0.01744002 0.02163236 
0.01768045 0.01908548 0.00364625 0.00155119 0.00875735 0.00125057 0.00736676 0.00593783 0.02287061 0.00572794 0.01278380 0.00117856 0.01483677 0.06667754 0.01739607 0.02160291 
0.01776145 0.01984951 0.00364148 0.00155430 0.00878496 0.00126424 0.00743901 0.00587100 0.02209178 0.00593079 0.01248383 0.00118057 0.01466876 0.06689490 0.01734684 0.02159403 
0.01784429 0.02060896 0.00363608 0.00155772 0.00881113 0.00127824 0.00751217 0.00580619 0.02132460 0.00614133 0.01219766 0.00118278 0.01453750 0.06710920 0.01729309 0.02160505 
0.01792828 0.02136013 0.00363004 0.00156139 0.00883545 0.00129252 0.00758569 0.00574396 0.02057199 0.00635904 0.01192634 0.00118522 0.01444408 0.06732154 0.01723560 0.02163513 
0.01801270 0.02209940 0.00362335 0.00156526 0.00885752 0.00130704 0.00765904 0.00568486 0.01983683 0.00658333 0.01167086 0.00118789 0.01438931 0.06753289 0.01717513 0.02168332 
0.01809682 0.02282320 0.00361602 0.00156926 0.00887697 0.00132177 0.00773170 0.00562942 0.01912186 0.00681359 0.01143215 0.00119080 0.01437372 0.06774412 0.01711242 0.02174851 
0.01817995 0.02352807 0.00360804 0.00157335 0.00889344 0.00133666 0.00780315 0.00557811 0.01842975 0.00704914 0.01121102 0.00119395 0.01439755 0.06795594 0.01704818 0.02182949 
0.01826137 0.02421068 0.00359944 0.00157747 0.00890658 0.00135168 0.00787288 0.00553143 0.01776302 0.00728930 0.01100825 0.00119736 0.01446072 0.06816892 0.01698312 0.02192493 
0.01834040 0.02486780 0.00359024 0.00158160 0.00891609 0.00136679 0.00794041 0.00548981 0.01712408 0.00753335 0.01082451 0.00120103 0.01456288 0.06838347 0.01691791 0.02203341 
0.01841637 0.02549637 0.00358048 0.00158567 0.00892166 0.00138198 0.00800527 0.00545365 0.01651521 0.00778053 0.01066039 0.00120496 0.01470341 0.06859985 0.01685316 0.02215342 
0.01848862 0.02609348 0.00357020 0.00158967 0.00892305 0.00139720 0.00806703 0.00542332 0.01593853 0.00803007 0.01051640 0.00120915 0.01488136 0.06881817 0.01678949 0.02228339 
0.01855653 0.02665642 0.00355946 0.00159356 0.00892001 0.00141243 0.00812525 0.00539915 0.01539603 0.00828115 0.01039296 0.00121362 0.01509555 0.06903836 0.01672745 0.02242168 
0.01861954 0.02718266 0.00354830 0.00159731 0.00891235 0.00142765 0.00817954 0.00538141 0.01488953 0.00853297 0.01029040 0.00121836 0.01534451 0.06926019 0.01666756 0.02256659 
0.01867707 0.02766987 0.00353680 0.00160090 0.00889988 0.00144284 0.00822953 0.00537036 0.01442072 0.00878470 0.01020898 0.00122337 0.01562653 0.06948329 0.01661027 0.02271643 
0.01872863 0.02811595 0.00352502 0.00160433 0.00888247 0.00145797 0.00827490 0.00536618 0.01399109 0.00903548 0.01014886 0.00122864 0.01593966 0.06970709 0.01655602 0.02286945 
0.01877374 0.02851903 0.00351303 0.00160758 0.00886001 0.00147303 0.00831534 0.00536901 0.01360200 0.00928447 0.01011011 0.00123417 0.01628172 0.06993090 0.01650517 0.02302392 
0.01881199 0.02887747 0.00350093 0.00161064 0.00883243 0.00148800 0.00835059 0.00537893 0.01325461 0.00953082 0.01009273 0.00123995 0.01665033 0.07015387 0.01645805 0.02317811 
0.01884300 0.02918988 0.00348880 0.00161353 0.00879969 0.00150288 0.00838041 0.00539599 0.01294994 0.00977368 0.01009660 0.00124597 0.01704292 0.07037497 0.01641492 0.02333034 
0.01886645 0.02945514 0.00347671 0.00161624 0.00876178 0.00151765 0.00840462 0.00542018 0.01268884 0.01001221 0.01012156 0.00125221 0.01745674 0.07059309 0.01637599 0.02347895 
0.01888207 0.02967236 0.00346478 0.00161880 0.00871872 0.00153230 0.00842306 0.00545141 0.01247196 0.01024558 0.01016735 0.00125867 0.01788890 0.07080694 0.01634142 0.02362233 
0.01888963 0.02984093 0.00345308 0.00162123 0.00867059 0.00154684 0.00843561 0.00548958 0.01229982 0.01047299 0.01023360 0.00126532 0.01833639 0.07101513 0.01631132 0.02375895 
0.01888896 0.02996052 0.00344173 0.00162355 0.00861748 0.00156127 0.00844221 0.00553452 0.01217276 0.01069363 0.01031991 0.00127214 0.01879608 0.07121618 0.01628574 0.02388735 
0.01887996 0.03003104 0.00343081 0.00162579 0.00855952 0.00157557 0.00844282 0.00558599 0.01209095 0.01090674 0.01042577 0.00127910 0.01926476 0.07140849 0.01626466 0.02400618 
0.01886255 0.03005269 0.00342044 0.00162800 0.00849686 0.00158976 0.00843746 0.00564372 0.01205439 0.01111158 0.01055060 0.00128618 0.01973917 0.07159039 0.01624805 0.02411418 
0.01883672 0.03002593 0.00341071 0.00163022 0.00842971 0.00160385 0.00842617 0.00570740 0.01206295 0.01130745 0.01069376 0.00129335 0.02021601 0.07176015 0.01623579 0.02421021 
0.01880250 0.02995147 0.00340171 0.00163250 0.00835828 0.00161783 0.00840906 0.00577665 0.01211631 0.01149367 0.01085452 0.00130058 0.02069197 0.07191597 0.01622773 0.02429325 
0.01875999 0.02983031 0.00339357 0.00163489 0.00828283 0.00163172 0.00838625 0.00585105 0.01221404 0.01166961 0.01103211 0.00130783 0.02116375 0.07205604 0.01622367 0.02436243 
0.01870931 0.02966369 0.00338636 0.00163745 0.00820364 0.00164553 0.00835791 0.00593017 0.01235551 0.01183470 0.01122568 0.00131507 0.02162809 0.07217853 0.01622336 0.02441700 
0.01865064 0.02945308 0.00338020 0.00164026 0.00812101 0.00165928 0.00832427 0.00601349 0.01253999 0.01198839 0.01143431 0.00132225 0.02208178 0.07228160 0.01622652 0.02445638 
0.01858420 0.02920021 0.00337519 0.00164337 0.00803528 0.00167297 0.00828558 0.00610050 0.01276660 0.01213020 0.01165704 0.00132934 0.02252171 0.07236344 0.01623283 0.02448014 
0.01851023 0.02890703 0.00337142 0.00164685 0.00794678 0.00168662 0.00824212 0.00619063 0.01303432 0.01225969 0.01189287 0.00133628 0.02294485 0.07242228 0.01624192 0.02448800 
0.01842903 0.02857572 0.00336898 0.00165080 0.00785590 0.00170025 0.00819422 0.00628330 0.01334199 0.01237648 0.01214071 0.00134305 0.02334832 0.07245640 0.01625343 0.02447986 
0.01834093 0.02820866 0.00336797 0.00165527 0.00776301 0.00171388 0.00814224 0.00637790 0.01368836 0.01248026 0.01239947 0.00134958 0.02372936 0.07246416 0.01626692 0.02445577 
0.01824626 0.02780841 0.00336848 0.00166036 0.00766853 0.00172752 0.00808657 0.00647379 0.01407204 0.01257076 0.01266799 0.00135583 0.02408539 0.07244404 0.01628198 0.02441596 
0.01814542 0.02737774 0.00337061 0.00166614 0.00757286 0.00174120 0.00802763 0.00657032 0.01449153 0.01264778 0.01294508 0.00136176 0.02441401 0.07239459 0.01629816 0.02436081 
0.01803880 0.02691957 0.00337443 0.00167271 0.00747643 0.00175492 0.00796586 0.00666684 0.01494523 0.01271117 0.01322952 0.00136731 0.02471300 0.07231454 0.01631498 0.02429087 
0.01792681 0.02643695 0.00338003 0.00168013 0.00737968 0.00176871 0.00790174 0.00676269 0.01543143 0.01276087 0.01352008 0.00137243 0.02498037 0.07220274 0.01633200 0.02420687 
0.01780989 0.02593310 0.00338749 0.00168851 0.00728302 0.00178259 0.00783576 0.00685720 0.01594834 0.01279685 0.01381547 0.00137708 0.02521434 0.07205821 0.01634873 0.02410966 
0.01768847 0.02541132 0.00339690 0.00169792 0.00718691 0.00179657 0.00776843 0.00694970 0.01649408 0.01281917 0.01411441 0.00138121 0.02541337 0.07188017 0.01636471 0.02400026 
0.01756299 0.02487504 0.00340832 0.00170844 0.00709177 0.00181067 0.00770028 0.00703955 0.01706667 0.01282792 0.01441560 0.00138477 0.02557616 0.07166802 0.01637948 0.02387984 
0.01743391 0.02432775 0.00342184 0.00172016 0.00699804 0.00182490 0.00763184 0.00712610 0.01766407 0.01282329 0.01471774 0.00138771 0.02570167 0.07142141 0.01639260 0.02374968 
0.01730166 0.02377299 0.00343752 0.00173315 0.00690613 0.00183928 0.00756367 0.00720873 0.01828417 0.01280549 0.01501951 0.00138999 0.02578910 0.07114016 0.01640365 0.02361121 
0.01716669 0.02321436 0.00345543 0.00174749 0.00681647 0.00185382 0.00749632 0.00728683 0.01892480 0.01277481 0.01531960 0.00139157 0.02583792 0.07082438 0.01641222 0.02346595 
0.01702942 0.02265548 0.00347564 0.00176324 0.00672943 0.00186854 0.00743034 0.00735983 0.01958373 0.01273160 0.01561672 0.00139240 0.02584787 0.07047439 0.01641793 0.02331554 
0.01689028 0.02209996 0.00349820 0.00178048 0.00664542 0.00188343 0.00736629 0.00742718 0.02025868 0.01267624 0.01590958 0.00139245 0.02581892 0.07009080 0.01642045 0.02316170 
0.01674966 0.02155139 0.00352319 0.00179927 0.00656478 0.00189852 0.00730472 0.00748836 0.02094732 0.01260919 0.01619691 0.00139168 0.02575133 0.06967444 0.01641947 0.02300623 
0.01660795 0.02101335 0.00355064 0.00181965 0.00648787 0.00191379 0.00724617 0.00754292 0.02164729 0.01253092 0.01647748 0.00139006 0.02564560 0.06922644 0.01641471 0.02285099 
0.01646551 0.02048933 0.00358061 0.00184168 0.00641499 0.00192926 0.00719117 0.00759040 0.02235623 0.01244199 0.01675005 0.00138757 0.02550248 0.06874818 0.01640597 0.02269790 
0.01632268 0.01998275 0.00361316 0.00186539 0.00634645 0.00194492 0.00714024 0.00763042 0.02307171 0.01234295 0.01701347 0.00138417 0.02532296 0.06824132 0.01639305 0.02254889 
0.01617977 0.01949695 0.00364833 0.00189082 0.00628250 0.00196077 0.00709386 0.00766265 0.02379131 0.01223443 0.01726659 0.00137985 0.02510827 0.06770779 0.01637585 0.02240592 
0.01603707 0.01903515 0.00368614 0.00191800 0.00622336 0.00197681 0.00705251 0.00768679 0.02451263 0.01211707 0.01750832 0.00137460 0.02485984 0.06714977 0.01635429 0.02227095 
0.01589484 0.01860043 0.00372665 0.00194694 0.00616925 0.00199302 0.00701663 0.00770261 0.02523323 0.01199153 0.01773762 0.00136840 0.02457933 0.06656971 0.01632835 0.02214592 
0.01575330 0.01819572 0.00376988 0.00197765 0.00612032 0.00200940 0.00698665 0.00770993 0.02595070 0.01185852 0.01795352 0.00136125 0.02426858 0.06597030 0.01629808 0.02203276 
0.01561265 0.01782379 0.00381585 0.00201012 0.00607671 0.00202593 0.00696293 0.00770861 0.02666266 0.01171874 0.01815510 0.00135315 0.02392962 0.06535448 0.01626356 0.02193332 
0.01547306 0.01748724 0.00386458 0.00204434 0.00603849 0.00204259 0.00694584 0.00769860 0.02736674 0.01157293 0.01834150 0.00134411 0.02356464 0.06472541 0.01622495 0.02184941 
0.01533466 0.01718847 0.00391609 0.00208029 0.00600572 0.00205937 0.00693569 0.00767987 0.02806063 0.01142182 0.01851195 0.00133414 0.02317597 0.06408646 0.01618248 0.02178275 
0.01519755 0.01692964 0.00397037 0.00211793 0.00597842 0.00207623 0.00693274 0.00765249 0.02874203 0.01126616 0.01866575 0.00132325 0.02276607 0.06344122 0.01613641 0.02173500 
0.01506180 0.01671274 0.00402743 0.00215722 0.00595655 0.00209315 0.00693721 0.00761656 0.02940874 0.01110669 0.01880230 0.00131147 0.02233752 0.06279343 0.01608706 0.02170767 
0.01492746 0.01653949 0.00408724 0.00219811 0.00594005 0.00211011 0.00694930 0.00757224 0.03005860 0.01094414 0.01892104 0.00129883 0.02189298 0.06214700 0.01603483 0.02170218 
0.01479455 0.01641137 0.00414979 0.00224052 0.00592881 0.00212707 0.00696913 0.00751976 0.03068952 0.01077925 0.01902156 0.00128536 0.02143519 0.06150598 0.01598015 0.02171982 
0.01466304 0.01632963 0.00421505 0.00228439 0.00592267 0.00214399 0.00699680 0.00745939 0.03129950 0.01061273 0.01910351 0.00127110 0.02096694 0.06087453 0.01592350 0.02176172 
0.01453291 0.01629523 0.00428296 0.00232961 0.00592146 0.00216084 0.00703233 0.00739147 0.03188665 0.01044529 0.01916665 0.00125610 0.02049104 0.06025689 0.01586543 0.02182888 
0.01440408 0.01630888 0.00435349 0.00237611 0.00592493 0.00217757 0.00707571 0.00731639 0.03244916 0.01027760 0.01921082 0.00124042 0.02001032 0.05965737 0.01580651 0.02192212 
0.01427648 0.01637103 0.00442656 0.00242376 0.00593283 0.00219415 0.00712687 0.00723458 0.03298535 0.01011032 0.01923601 0.00122410 0.01952761 0.05908031 0.01574735 0.02204211 
0.01415001 0.01648182 0.00450208 0.00247245 0.00594486 0.00221054 0.00718570 0.00714653 0.03349366 0.00994407 0.01924227 0.00120721 0.01904570 0.05853005 0.01568863 0.02218932 
0.01402455 0.01664115 0.00457998 0.00252206 0.00596067 0.00222667 0.00725201 0.00705276 0.03397265 0.00977944 0.01922979 0.00118983 0.01856735 0.05801090 0.01563101 0.02236407 
0.01389998 0.01684862 0.00466013 0.00257244 0.00597990 0.00224252 0.00732558 0.00695385 0.03442103 0.00961699 0.01919885 0.00117202 0.01809524 0.05752713 0.01557522 0.02256647 
0.01377614 0.01710357 0.00474242 0.00262345 0.00600214 0.00225803 0.00740614 0.00685040 0.03483767 0.00945725 0.01914985 0.00115385 0.01763198 0.05708291 0.01552197 0.02279647 
0.01365291 0.01740505 0.00482671 0.00267495 0.00602697 0.00227314 0.00749336 0.00674306 0.03522157 0.00930068 0.01908331 0.00113542 0.01718008 0.05668229 0.01547202 0.02305380 
0.01353014 0.01775185 0.00491284 0.00272676 0.00605393 0.00228782 0.00758685 0.00663249 0.03557194 0.00914774 0.01899985 0.00111680 0.01674194 0.05632917 0.01542612 0.02333804 
0.01340767 0.01814250 0.00500065 0.00277873 0.00608253 0.00230200 0.00768618 0.00651940 0.03588811 0.00899880 0.01890020 0.00109809 0.01631981 0.05602728 0.01538501 0.02364856 
0.01328537 0.01857527 0.00508994 0.00283069 0.00611227 0.00231564 0.00779089 0.00640449 0.03616965 0.00885422 0.01878519 0.00107937 0.01591585 0.05578011 0.01534944 0.02398457 
0.01316309 0.01904817 0.00518052 0.00288245 0.00614265 0.00232869 0.00790046 0.00628851 0.03641626 0.00871430 0.01865579 0.00106074 0.01553201 0.05559095 0.01532015 0.02434508 
0.01304072 0.01955899 0.00527216 0.00293385 0.00617312 0.00234110 0.00801431 0.00617219 0.03662787 0.00857930 0.01851303 0.00104230 0.01517012 0.05546277 0.01529785 0.02472895 
0.01291814 0.02010528 0.00536462 0.00298470 0.00620315 0.00235282 0.00813185 0.00605630 0.03680460 0.00844942 0.01835807 0.00102413 0.01483182 0.05539829 0.01528322 0.02513488 
0.01279526 0.02068439 0.00545765 0.00303481 0.00623217 0.00236381 0.00825243 0.00594157 0.03694675 0.00832482 0.01819216 0.00100634 0.01451858 0.05539987 0.01527693 0.02556142 
0.01267201 0.02129345 0.00555098 0.00308401 0.00625964 0.00237401 0.00837539 0.00582877 0.03705486 0.00820562 0.01801664 0.00098903 0.01423166 0.05546954 0.01527959 0.02600695 
0.01254832 0.02192944 0.00564433 0.00313212 0.00628501 0.00238339 0.00850003 0.00571863 0.03712963 0.00809188 0.01783293 0.00097229 0.01397217 0.05560893 0.01529177 0.02646977 
0.01242418 0.02258913 0.00573739 0.00317895 0.00630772 0.00239191 0.00862560 0.00561188 0.03717200 0.00798363 0.01764255 0.00095623 0.01374098 0.05581931 0.01531399 0.02694802 
0.01229959 0.02326917 0.00582984 0.00322433 0.00632723 0.00239953 0.00875136 0.00550923 0.03718309 0.00788084 0.01744707 0.00094093 0.01353881 0.05610151 0.01534670 0.02743975 
0.01217457 0.02396608 0.00592137 0.00326809 0.00634302 0.00240622 0.00887655 0.00541138 0.03716426 0.00778347 0.01724814 0.00092648 0.01336616 0.05645595 0.01539031 0.02794294 
0.01204919 0.02467624 0.00601162 0.00331006 0.00635456 0.00241195 0.00900037 0.00531898 0.03711702 0.00769139 0.01704748 0.00091299 0.01322332 0.05688258 0.01544514 0.02845545 
0.01192355 0.02539597 0.00610025 0.00335008 0.00636135 0.00241669 0.00912203 0.00523267 0.03704311 0.00760448 0.01684683 0.00090053 0.01311043 0.05738092 0.01551146 0.02897514 
0.01179778 0.02612150 0.00618690 0.00338799 0.00636294 0.00242043 0.00924073 0.00515304 0.03694445 0.00752257 0.01664800 0.00088919 0.01302740 0.05795002 0.01558943 0.02949977 
0.01167205 0.02684902 0.00627121 0.00342367 0.00635886 0.00242316 0.00935567 0.00508064 0.03682313 0.00744545 0.01645283 0.00087905 0.01297399 0.05858847 0.01567915 0.03002711 
0.01154656 0.02757469 0.00635279 0.00345696 0.00634870 0.00242485 0.00946606 0.00501599 0.03668144 0.00737289 0.01626318 0.00087018 0.01294976 0.05929438 0.01578064 0.03055492 
0.01142155 0.02829467 0.00643127 0.00348776 0.00633208 0.00242552 0.00957112 0.00495956 0.03652180 0.00730463 0.01608092 0.00086266 0.01295411 0.06006539 0.01589382 0.03108093 
0.01129729 0.02900515 0.00650628 0.00351595 0.00630865 0.00242515 0.00967006 0.00491176 0.03634682 0.00724040 0.01590793 0.00085653 0.01298630 0.06089870 0.01601853 0.03160294 
0.01117411 0.02970233 0.00657744 0.00354144 0.00627810 0.00242377 0.00976214 0.00487295 0.03615922 0.00717990 0.01574608 0.00085186 0.01304542 0.06179104 0.01615453 0.03211876 
0.01105234 0.03038251 0.00664436 0.00356413 0.00624016 0.00242138 0.00984663 0.00484345 0.03596187 0.00712281 0.01559723 0.00084870 0.01313042 0.06273871 0.01630146 0.03262625 
0.01093236 0.03104206 0.00670669 0.00358398 0.00619461 0.00241800 0.00992283 0.00482351 0.03575772 0.00706882 0.01546319 0.00084709 0.01324014 0.06373756 0.01645890 0.03312338 
0.01081460 0.03167746 0.00676407 0.00360091 0.00614127 0.00241367 0.00999006 0.00481331 0.03554987 0.00701760 0.01534577 0.00084706 0.01337328 0.06478307 0.01662633 0.03360815 
0.01069949 0.03228532 0.00681614 0.00361490 0.00608002 0.00240842 0.01004770 0.00481300 0.03534144 0.00696882 0.01524668 0.00084863 0.01352847 0.06587030 0.01680315 0.03407871 
0.01058751 0.03286242 0.00686256 0.00362592 0.00601077 0.00240229 0.01009516 0.00482263 0.03513565 0.00692213 0.01516762 0.00085183 0.01370424 0.06699398 0.01698867 0.03453329 
0.01047914 0.03340570 0.00690302 0.00363397 0.00593351 0.00239533 0.01013189 0.00484223 0.03493575 0.00687723 0.01511019 0.00085665 0.01389904 0.06814850 0.01718213 0.03497026 
0.01037491 0.03391229 0.00693722 0.00363907 0.00584826 0.00238760 0.01015740 0.00487175 0.03474501 0.00683379 0.01507591 0.00086311 0.01411126 0.06932794 0.01738268 0.03538811 
0.01027536 0.03437955 0.00696486 0.00364124 0.00575511 0.00237915 0.01017124 0.00491105 0.03456671 0.00679150 0.01506621 0.00087118 0.01433927 0.07052613 0.01758941 0.03578549 
0.01018103 0.03480505 0.00698571 0.00364053 0.00565419 0.00237005 0.01017303 0.00495997 0.03440411 0.00675006 0.01508243 0.00088085 0.01458136 0.07173667 0.01780135 0.03616121 
0.01009250 0.03518663 0.00699952 0.00363700 0.00554569 0.00236038 0.01016244 0.00501827 0.03426044 0.00670922 0.01512579 0.00089208 0.01483586 0.07295298 0.01801744 0.03651422 
0.01001032 0.03552237 0.00700609 0.00363075 0.00542985 0.00235022 0.01013920 0.00508566 0.03413883 0.00666870 0.01519738 0.00090485 0.01510107 0.07416832 0.01823662 0.03684366 
0.00993508 0.03581064 0.00700526 0.00362186 0.00530699 0.00233965 0.01010311 0.00516177 0.03404239 0.00662829 0.01529817 0.00091910 0.01537528 0.07537586 0.01845773 0.03714883 
0.00986735 0.03605010 0.00699688 0.00361044 0.00517745 0.00232876 0.01005404 0.00524619 0.03397406 0.00658778 0.01542901 0.00093477 0.01565685 0.07656871 0.01867962 0.03742920 
0.00980770 0.03623969 0.00698086 0.00359664 0.00504163 0.00231766 0.00999191 0.00533848 0.03393672 0.00654701 0.01559058 0.00095180 0.01594415 0.07773999 0.01890108 0.03768444 
0.00975667 0.03637868 0.00695713 0.00358059 0.00490000 0.00230643 0.00991673 0.00543810 0.03393304 0.00650582 0.01578343 0.00097011 0.01623560 0.07888283 0.01912089 0.03791436 
0.00971483 0.03646664 0.00692566 0.00356245 0.00475306 0.00229518 0.00982857 0.00554449 0.03396558 0.00646412 0.01600794 0.00098962 0.01652969 0.07999048 0.01933783 0.03811899 
0.00968268 0.03650346 0.00688649 0.00354240 0.00460137 0.00228402 0.00972755 0.00565706 0.03403667 0.00642183 0.01626435 0.00101024 0.01682497 0.08105631 0.01955067 0.03829848 
0.00966074 0.03648935 0.00683965 0.00352061 0.00444552 0.00227306 0.00961390 0.00577515 0.03414847 0.00637892 0.01655270 0.00103187 0.01712010 0.08207388 0.01975818 0.03845319 
0.00964946 0.03642484 0.00678525 0.00349729 0.00428615 0.00226240 0.00948789 0.00589809 0.03430289 0.00633539 0.01687292 0.00105440 0.01741379 0.08303700 0.01995917 0.03858362 
0.00964930 0.03631080 0.00672345 0.00347263 0.00412394 0.00225216 0.00934986 0.00602515 0.03450161 0.00629129 0.01722471 0.00107773 0.01770487 0.08393977 0.02015246 0.03869043 
0.00966064 0.03614839 0.00665441 0.00344686 0.00395962 0.00224245 0.00920023 0.00615559 0.03474606 0.00624670 0.01760765 0.00110172 0.01799230 0.08477659 0.02033692 0.03877443 
0.00968386 0.03593909 0.00657839 0.00342018 0.00379392 0.00223338 0.00903948 0.00628865 0.03503741 0.00620175 0.01802111 0.00112626 0.01827510 0.08554229 0.02051145 0.03883654 
0.00971927 0.03568470 0.00649566 0.00339282 0.00362763 0.00222505 0.00886815 0.00642354 0.03537652 0.00615658 0.01846433 0.00115122 0.01855245 0.08623209 0.02067504 0.03887784 
0.00976713 0.03538730 0.00640653 0.00336501 0.00346156 0.00221759 0.00868684 0.00655946 0.03576399 0.00611141 0.01893636 0.00117646 0.01882364 0.08684168 0.02082671 0.03889951 
0.00982766 0.03504926 0.00631137 0.00333699 0.00329652 0.00221108 0.00849621 0.00669561 0.03620011 0.00606648 0.01943610 0.00120185 0.01908807 0.08736728 0.02096558 0.03890280 
0.00990103 0.03467321 0.00621060 0.00330898 0.00313337 0.00220563 0.00829698 0.00683117 0.03668486 0.00602205 0.01996226 0.00122725 0.01934529 0.08780563 0.02109085 0.03888908 
0.00998733 0.03426205 0.00610465 0.00328122 0.00297295 0.00220134 0.00808991 0.00696533 0.03721791 0.00597845 0.02051344 0.00125252 0.01959494 0.08815407 0.02120179 0.03885978 
0.01008661 0.03381892 0.00599401 0.00325393 0.00281614 0.00219830 0.00787582 0.00709729 0.03779862 0.00593602 0.02108807 0.00127752 0.01983682 0.08841053 0.02129781 0.03881639 
0.01019885 0.03334715 0.00587920 0.00322734 0.00266380 0.00219659 0.00765555 0.00722626 0.03842605 0.00589513 0.02168444 0.00130210 0.02007083 0.08857358 0.02137839 0.03876041 
0.01032398 0.03285029 0.00576078 0.00320167 0.00251680 0.00219629 0.00743001 0.00735147 0.03909893 0.00585621 0.02230070 0.00132613 0.02029701 0.08864246 0.02144313 0.03869341 
0.01046184 0.03233209 0.00563935 0.00317713 0.00237601 0.00219747 0.00720013 0.00747215 0.03981570 0.00581969 0.02293489 0.00134946 0.02051549 0.08861708 0.02149177 0.03861694 
0.01061223 0.03179641 0.00551551 0.00315392 0.00224228 0.00220019 0.00696685 0.00758758 0.04057449 0.00578602 0.02358493 0.00137197 0.02072654 0.08849805 0.02152414 0.03853254 
0.01077486 0.03124726 0.00538992 0.00313223 0.00211645 0.00220450 0.00673117 0.00769707 0.04137314 0.00575571 0.02424863 0.00139352 0.02093053 0.08828667 0.02154021 0.03844175 
0.01094941 0.03068877 0.00526324 0.00311225 0.00199934 0.00221044 0.00649407 0.00779995 0.04220923 0.00572924 0.02492373 0.00141399 0.02112791 0.08798495 0.02154008 0.03834605 
0.01113547 0.03012512 0.00513616 0.00309414 0.00189175 0.00221805 0.00625657 0.00789561 0.04308006 0.00570715 0.02560785 0.00143324 0.02131923 0.08759562 0.02152398 0.03824687 
0.01133258 0.02956056 0.00500938 0.00307806 0.00179444 0.00222735 0.00601969 0.00798347 0.04398267 0.00568996 0.02629858 0.00145118 0.02150515 0.08712210 0.02149227 0.03814560 
0.01154019 0.02899937 0.00488361 0.00306413 0.00170816 0.00223835 0.00578445 0.00806301 0.04491389 0.00567822 0.02699343 0.00146768 0.02168638 0.08656851 0.02144543 0.03804350 
0.01175774 0.02844579 0.00475958 0.00305249 0.00163359 0.00225105 0.00555186 0.00813374 0.04587032 0.00567248 0.02768988 0.00148264 0.02186369 0.08593963 0.02138407 0.03794180 
0.01198457 0.02790407 0.00463801 0.00304324 0.00157141 0.00226542 0.00532294 0.00819525 0.04684839 0.00567328 0.02838537 0.00149599 0.02203793 0.08524093 0.02130895 0.03784157 
0.01221999 0.02737839 0.00451963 0.00303645 0.00152222 0.00228146 0.00509867 0.00824718 0.04784434 0.00568117 0.02907734 0.00150763 0.02220998 0.08447850 0.02122093 0.03774380 
0.01246325 0.02687283 0.00440514 0.00303220 0.00148659 0.00229911 0.00488003 0.00828922 0.04885428 0.00569668 0.02976321 0.00151749 0.02238076 0.08365902 0.02112099 0.03764936 
0.01271355 0.02639136 0.00429526 0.00303054 0.00146503 0.00231834 0.00466797 0.00832113 0.04987419 0.00572035 0.03044043 0.00152551 0.02255121 0.08278977 0.02101024 0.03755896 
0.01297007 0.02593782 0.00419069 0.00303148 0.00145799 0.00233907 0.00446339 0.00834274 0.05089998 0.00575269 0.03110646 0.00153164 0.02272229 0.08187853 0.02088989 0.03747321 
0.01323192 0.02551588 0.00409209 0.00303504 0.00146587 0.00236124 0.00426719 0.00835394 0.05192746 0.00579419 0.03175881 0.00153585 0.02289496 0.08093360 0.02076124 0.03739255 
0.01349820 0.02512901 0.00400011 0.00304120 0.00148901 0.00238476 0.00408020 0.00835469 0.05295244 0.00584533 0.03239505 0.00153809 0.02307018 0.07996371 0.02062570 0.03731731 
0.01376797 0.02478047 0.00391538 0.00304992 0.00152767 0.00240954 0.00390321 0.00834502 0.05397071 0.00590654 0.03301280 0.00153837 0.02324888 0.07897798 0.02048475 0.03724763 
0.01404026 0.02447328 0.00383849 0.00306115 0.00158207 0.00243545 0.00373698 0.00832502 0.05497808 0.00597824 0.03360977 0.00153668 0.02343196 0.07798586 0.02033996 0.03718354 
0.01431409 0.02421022 0.00376999 0.00307482 0.00165234 0.00246239 0.00358219 0.00829486 0.05597041 0.00606081 0.03418377 0.00153302 0.02362028 0.07699711 0.02019295 0.03712491 
0.01458848 0.02399376 0.00371040 0.00309083 0.00173854 0.00249024 0.00343948 0.00825476 0.05694365 0.00615459 0.03473271 0.00152743 0.02381465 0.07602169 0.02004541 0.03707147 
0.01486243 0.02382609 0.00366020 0.00310906 0.00184067 0.00251884 0.00330942 0.00820503 0.05789384 0.00625989 0.03525459 0.00151994 0.02401584 0.07506972 0.01989905 0.03702283 
0.01513492 0.02370910 0.00361979 0.00312940 0.00195865 0.00254805 0.00319254 0.00814602 0.05881718 0.00637694 0.03574758 0.00151060 0.02422452 0.07415141 0.01975564 0.03697844 
0.01540496 0.02364434 0.00358956 0.00315168 0.00209234 0.00257773 0.00308927 0.00807816 0.05971001 0.00650597 0.03620995 0.00149947 0.02444129 0.07327701 0.01961694 0.03693765 
0.01567156 0.02363303 0.00356983 0.00317575 0.00224151 0.00260771 0.00300000 0.00800194 0.06056887 0.00664713 0.03664014 0.00148663 0.02466669 0.07245673 0.01948473 0.03689968 
0.01593375 0.02367605 0.00356086 0.00320142 0.00240586 0.00263782 0.00292503 0.00791791 0.06139052 0.00680051 0.03703671 0.00147216 0.02490112 0.07170066 0.01936078 0.03686366 
0.01619057 0.02377390 0.00356287 0.00322850 0.00258503 0.00266790 0.00286460 0.00782665 0.06217193 0.00696618 0.03739842 0.00145617 0.02514493 0.07101873 0.01924685 0.03682862 
0.01644110 0.02392675 0.00357598 0.00325679 0.00277859 0.00269777 0.00281888 0.00772884 0.06291035 0.00714411 0.03772416 0.00143876 0.02539834 0.07042061 0.01914464 0.03679352 
0.01668444 0.02413440 0.00360030 0.00328608 0.00298603 0.00272726 0.00278797 0.00762515 0.06360329 0.00733424 0.03801302 0.00142004 0.02566145 0.06991568 0.01905584 0.03675722 
0.01691974 0.02439628 0.00363584 0.00331613 0.00320677 0.00275618 0.00277189 0.00751635 0.06424854 0.00753645 0.03826423 0.00140016 0.02593427 0.06951292 0.01898206 0.03671857 
0.01714616 0.02471148 0.00368256 0.00334672 0.00344017 0.00278437 0.00277058 0.00740322 0.06484423 0.00775054 0.03847723 0.00137926 0.02621668 0.06922089 0.01892483 0.03667635 
0.01736295 0.02507871 0.00374035 0.00337760 0.00368553 0.00281164 0.00278394 0.00728657 0.06538876 0.00797626 0.03865163 0.00135747 0.02650844 0.06904763 0.01888563 0.03662935 
0.01756937 0.02549635 0.00380904 0.00340853 0.00394210 0.00283782 0.00281175 0.00716726 0.06588089 0.00821329 0.03878720 0.00133495 0.02680920 0.06900061 0.01886581 0.03657632 
0.01776476 0.02596244 0.00388841 0.00343926 0.00420904 0.00286274 0.00285378 0.00704617 0.06631970 0.00846127 0.03888392 0.00131186 0.02711849 0.06908671 0.01886663 0.03651604 
0.01794850 0.02647467 0.00397814 0.00346956 0.00448549 0.00288624 0.00290968 0.00692419 0.06670459 0.00871975 0.03894193 0.00128838 0.02743570 0.06931210 0.01888924 0.03644731 
0.01812006 0.02703044 0.00407787 0.00349917 0.00477052 0.00290815 0.00297907 0.00680223 0.06703533 0.00898824 0.03896155 0.00126468 0.02776013 0.06968224 0.01893464 0.03636899 
0.01827893 0.02762685 0.00418720 0.00352784 0.00506316 0.00292833 0.00306150 0.00668122 0.06731200 0.00926618 0.03894327 0.00124092 0.02809095 0.07020182 0.01900373 0.03627999 
0.01842469 0.02826070 0.00430563 0.00355535 0.00536241 0.00294664 0.00315646 0.00656208 0.06753502 0.00955295 0.03888776 0.00121728 0.02842721 0.07087471 0.01909724 0.03617930 
0.01855701 0.02892853 0.00443264 0.00358144 0.00566722 0.00296294 0.00326338 0.00644574 0.06770512 0.00984790 0.03879582 0.00119395 0.02876789 0.07170394 0.01921575 0.03606598 
0.01867558 0.02962665 0.00456763 0.00360591 0.00597650 0.00297710 0.00338164 0.00633311 0.06782335 0.01015028 0.03866844 0.00117111 0.02911181 0.07269165 0.01935970 0.03593925 
0.01878020 0.03035115 0.00470996 0.00362853 0.00628914 0.00298903 0.00351058 0.00622510 0.06789108 0.01045934 0.03850676 0.00114893 0.02945776 0.07383908 0.01952935 0.03579841 
0.01887072 0.03109791 0.00485896 0.00364910 0.00660403 0.00299861 0.00364949 0.00612259 0.06790995 0.01077424 0.03831202 0.00112758 0.02980439 0.07514654 0.01972481 0.03564291 
0.01894708 0.03186265 0.00501387 0.00366741 0.00692002 0.00300577 0.00379762 0.00602645 0.06788185 0.01109412 0.03808564 0.00110725 0.03015030 0.07661340 0.01994600 0.03547236 
0.01900927 0.03264093 0.00517395 0.00368330 0.00723594 0.00301044 0.00395420 0.00593750 0.06780897 0.01141808 0.03782913 0.00108810 0.03049400 0.07823808 0.02019269 0.03528652 
0.01905737 0.03342823 0.00533838 0.00369659 0.00755064 0.00301256 0.00411840 0.00585655 0.06769367 0.01174518 0.03754414 0.00107029 0.03083394 0.08001805 0.02046448 0.03508534 
0.01909151 0.03421990 0.00550633 0.00370713 0.00786295 0.00301209 0.00428939 0.00578435 0.06753856 0.01207443 0.03723239 0.00105398 0.03116853 0.08194983 0.02076078 0.03486893 
0.01911191 0.03501126 0.00567694 0.00371479 0.00817171 0.00300900 0.00446631 0.00572160 0.06734642 0.01240484 0.03689571 0.00103931 0.03149612 0.08402899 0.02108083 0.03463760 
0.01911885 0.03579756 0.00584933 0.00371944 0.00847579 0.00300330 0.00464830 0.00566898 0.06712017 0.01273539 0.03653600 0.00102643 0.03181503 0.08625018 0.02142374 0.03439187 
0.01911266 0.03657410 0.00602260 0.00372100 0.00877404 0.00299498 0.00483446 0.00562710 0.06686287 0.01306502 0.03615525 0.00101547 0.03212357 0.08860716 0.02178842 0.03413244 
0.01909374 0.03733616 0.00619585 0.00371939 0.00906537 0.00298408 0.00502391 0.00559649 0.06657768 0.01339269 0.03575549 0.00100655 0.03242002 0.09109280 0.02217364 0.03386024 
0.01906256 0.03807910 0.00636817 0.00371453 0.00934868 0.00297064 0.00521575 0.00557766 0.06626782 0.01371733 0.03533877 0.00099977 0.03270267 0.09369914 0.02257801 0.03357637 
0.01901964 0.03879836 0.00653865 0.00370639 0.00962293 0.00295471 0.00540911 0.00557103 0.06593656 0.01403788 0.03490722 0.00099523 0.03296983 0.09641741 0.02300002 0.03328218 
0.01896553 0.03948950 0.00670638 0.00369496 0.00988711 0.00293638 0.00560311 0.00557695 0.06558718 0.01435327 0.03446294 0.00099301 0.03321980 0.09923809 0.02343801 0.03297918 
0.01890086 0.04014821 0.00687047 0.00368022 0.01014025 0.00291573 0.00579688 0.00559570 0.06522294 0.01466244 0.03400808 0.00099320 0.03345096 0.10215094 0.02389020 0.03266912 
0.01882630 0.04077034 0.00703004 0.00366219 0.01038143 0.00289286 0.00598958 0.00562750 0.06484707 0.01496436 0.03354476 0.00099583 0.03366171 0.10514509 0.02435469 0.03235392 
0.01874253 0.04135195 0.00718425 0.00364092 0.01060978 0.00286791 0.00618039 0.00567248 0.06446269 0.01525801 0.03307509 0.00100095 0.03385049 0.10820904 0.02482950 0.03203568 
0.01865030 0.04188930 0.00733227 0.00361646 0.01082448 0.00284101 0.00636852 0.00573071 0.06407285 0.01554238 0.03260114 0.00100859 0.03401585 0.11133080 0.02531253 0.03171670 
0.01855038 0.04237892 0.00747330 0.00358889 0.01102478 0.00281229 0.00655319 0.00580216 0.06368047 0.01581650 0.03212497 0.00101876 0.03415638 0.11449789 0.02580163 0.03139943 
0.01844356 0.04281756 0.00760660 0.00355830 0.01120998 0.00278194 0.00673368 0.00588673 0.06328831 0.01607945 0.03164855 0.00103146 0.03427077 0.11769745 0.02629457 0.03108647 
0.01833066 0.04320228 0.00773144 0.00352481 0.01137947 0.00275011 0.00690930 0.00598427 0.06289895 0.01633033 0.03117384 0.00104667 0.03435782 0.12091628 0.02678908 0.03078059 
0.01821252 0.04353044 0.00784717 0.00348853 0.01153268 0.00271700 0.00707938 0.00609450 0.06251479 0.01656828 0.03070268 0.00106434 0.03441644 0.12414096 0.02728285 0.03048464 
0.01808998 0.04379969 0.00795316 0.00344962 0.01166912 0.00268278 0.00724333 0.00621711 0.06213800 0.01679250 0.03023687 0.00108444 0.03444562 0.12735789 0.02777357 0.03020159 
0.01796390 0.04400805 0.00804886 0.00340822 0.01178839 0.00264767 0.00740056 0.00635168 0.06177055 0.01700224 0.02977811 0.00110690 0.03444451 0.13055338 0.02825889 0.02993451 
0.01783515 0.04415385 0.00813377 0.00336453 0.01189016 0.00261187 0.00755057 0.00649775 0.06141412 0.01719680 0.02932799 0.00113164 0.03441239 0.13371374 0.02873650 0.02968652 
0.01770458 0.04423579 0.00820745 0.00331871 0.01197415 0.00257558 0.00769288 0.00665476 0.06107018 0.01737555 0.02888803 0.00115856 0.03434865 0.13682535 0.02920410 0.02946079 
0.01757304 0.04425292 0.00826952 0.00327096 0.01204019 0.00253903 0.00782707 0.00682209 0.06073990 0.01753790 0.02845962 0.00118757 0.03425285 0.13987473 0.02965943 0.02926051 
0.01744138 0.04420468 0.00831967 0.00322149 0.01208817 0.00250243 0.00795278 0.00699906 0.06042421 0.01768334 0.02804405 0.00121853 0.03412469 0.14284864 0.03010029 0.02908887 
0.01731042 0.04409087 0.00835768 0.00317051 0.01211807 0.00246599 0.00806969 0.00718492 0.06012373 0.01781144 0.02764249 0.00125132 0.03396403 0.14573415 0.03052455 0.02894902 
0.01718097 0.04391165 0.00838336 0.00311824 0.01212993 0.00242993 0.00817752 0.00737886 0.05983883 0.01792181 0.02725598 0.00128579 0.03377087 0.14851872 0.03093014 0.02884409 
0.01705383 0.04366758 0.00839663 0.00306490 0.01212389 0.00239447 0.00827608 0.00758004 0.05956960 0.01801414 0.02688545 0.00132178 0.03354538 0.15119025 0.03131512 0.02877711 
0.01692976 0.04335957 0.00839747 0.00301074 0.01210015 0.00235982 0.00836519 0.00778753 0.05931586 0.01808820 0.02653170 0.00135915 0.03328788 0.15373720 0.03167764 0.02875101 
0.01680948 0.04298892 0.00838592 0.00295597 0.01205898 0.00232618 0.00844476 0.00800039 0.05907718 0.01814383 0.02619540 0.00139770 0.03299887 0.15614860 0.03201596 0.02876860 
0.01669369 0.04255725 0.00836211 0.00290084 0.01200074 0.00229375 0.00851471 0.00821762 0.05885287 0.01818093 0.02587711 0.00143726 0.03267899 0.15841417 0.03232848 0.02883255 
0.01658306 0.04206658 0.00832624 0.00284557 0.01192584 0.00226272 0.00857504 0.00843820 0.05864199 0.01819948 0.02557723 0.00147764 0.03232904 0.16052433 0.03261374 0.02894532 
0.01647821 0.04151924 0.00827858 0.00279041 0.01183476 0.00223327 0.00862579 0.00866108 0.05844340 0.01819952 0.02529607 0.00151866 0.03195000 0.16247030 0.03287044 0.02910919 
0.01637972 0.04091790 0.00821947 0.00273559 0.01172807 0.00220557 0.00866704 0.00888517 0.05825575 0.01818117 0.02503379 0.00156010 0.03154296 0.16424413 0.03309742 0.02932623 
0.01628813 0.04026553 0.00814932 0.00268132 0.01160637 0.00217978 0.00869891 0.00910940 0.05807750 0.01814461 0.02479045 0.00160177 0.03110919 0.16583873 0.03329370 0.02959824 
0.01620393 0.03956541 0.00806860 0.00262784 0.01147033 0.00215605 0.00872157 0.00933265 0.05790693 0.01809010 0.02456599 0.00164347 0.03065011 0.16724795 0.03345844 0.02992674 
0.01612757 0.03882110 0.00797787 0.00257535 0.01132066 0.00213451 0.00873524 0.00955382 0.05774220 0.01801795 0.02436021 0.00168500 0.03016724 0.16846657 0.03359102 0.03031300 
0.01605944 0.03803641 0.00787771 0.00252408 0.01115814 0.00211527 0.00874015 0.00977182 0.05758136 0.01792851 0.02417283 0.00172614 0.02966227 0.16949038 0.03369097 0.03075795 
0.01599989 0.03721540 0.00776879 0.00247421 0.01098358 0.00209844 0.00873658 0.00998555 0.05742234 0.01782224 0.02400347 0.00176671 0.02913698 0.17031616 0.03375800 0.03126219 
0.01594921 0.03636234 0.00765181 0.00242595 0.01079784 0.00208410 0.00872485 0.01019394 0.05726303 0.01769960 0.02385164 0.00180651 0.02859330 0.17094170 0.03379201 0.03182601 
0.01590764 0.03548170 0.00752755 0.00237947 0.01060180 0.00207232 0.00870527 0.01039595 0.05710128 0.01756113 0.02371675 0.00184534 0.02803324 0.17136584 0.03379309 0.03244930 
0.01587537 0.03457812 0.00739681 0.00233495 0.01039638 0.00206316 0.00867823 0.01059054 0.05693490 0.01740742 0.02359816 0.00188301 0.02745891 0.17158845 0.03376148 0.03313162 
0.01585254 0.03365638 0.00726043 0.00229254 0.01018254 0.00205665 0.00864411 0.01077674 0.05676177 0.01723908 0.02349511 0.00191935 0.02687251 0.17161043 0.03369764 0.03387214 
0.01583924 0.03272140 0.00711931 0.00225239 0.00996124 0.00205281 0.00860329 0.01095360 0.05657977 0.01705678 0.02340680 0.00195418 0.02627631 0.17143370 0.03360216 0.03466964 
0.01583549 0.03177816 0.00697436 0.00221465 0.00973345 0.00205163 0.00855622 0.01112023 0.05638689 0.01686120 0.02333237 0.00198734 0.02567265 0.17106119 0.03347584 0.03552251 
0.01584127 0.03083176 0.00682651 0.00217943 0.00950019 0.00205310 0.00850331 0.01127579 0.05618119 0.01665309 0.02327089 0.00201868 0.02506392 0.17049681 0.03331960 0.03642876 
0.01585652 0.02988729 0.00667673 0.00214684 0.00926243 0.00205719 0.00844501 0.01141949 0.05596087 0.01643319 0.02322141 0.00204805 0.02445255 0.16974545 0.03313456 0.03738601 
0.01588111 0.02894989 0.00652598 0.00211698 0.00902119 0.00206384 0.00838177 0.01155061 0.05572429 0.01620227 0.02318292 0.00207532 0.02384100 0.16881290 0.03292196 0.03839149 
0.01591488 0.02802467 0.00637527 0.00208994 0.00877746 0.00207299 0.00831405 0.01166851 0.05546997 0.01596113 0.02315439 0.00210037 0.02323175 0.16770584 0.03268317 0.03944203 
0.01595761 0.02711672 0.00622556 0.00206579 0.00853224 0.00208454 0.00824229 0.01177260 0.05519664 0.01571057 0.02313479 0.00212310 0.02262726 0.16643179 0.03241971 0.04053411 
0.01600904 0.02623106 0.00607784 0.00204459 0.00828649 0.00209842 0.00816697 0.01186239 0.05490324 0.01545141 0.02312305 0.00214341 0.02203002 0.16499907 0.03213322 0.04166384 
0.01606886 0.02537263 0.00593308 0.00202637 0.00804118 0.00211449 0.00808853 0.01193746 0.05458893 0.01518445 0.02311813 0.00216123 0.02144245 0.16341673 0.03182543 0.04282699 
0.01613672 0.02454623 0.00579225 0.00201118 0.00779725 0.00213264 0.00800742 0.01199746 0.05425315 0.01491053 0.02311897 0.00217649 0.02086699 0.16169450 0.03149816 0.04401897 
0.01621224 0.02375657 0.00565627 0.00199903 0.00755560 0.00215273 0.00792408 0.01204215 0.05389558 0.01463046 0.02312453 0.00218915 0.02030599 0.15984273 0.03115334 0.04523492 
0.01629500 0.02300815 0.00552607 0.00198994 0.00731713 0.00217461 0.00783894 0.01207136 0.05351619 0.01434504 0.02313381 0.00219918 0.01976177 0.15787229 0.03079294 0.04646965 
0.01638453 0.02230534 0.00540252 0.00198389 0.00708269 0.00219812 0.00775244 0.01208502 0.05311522 0.01405509 0.02314583 0.00220655 0.01923655 0.15579458 0.03041900 0.04771773 
0.01648034 0.02165226 0.00528647 0.00198088 0.00685309 0.00222309 0.00766497 0.01208315 0.05269319 0.01376139 0.02315965 0.00221126 0.01873252 0.15362138 0.03003360 0.04897346 
0.01658190 0.02105285 0.00517872 0.00198088 0.00662912 0.00224936 0.00757695 0.01206584 0.05225095 0.01346473 0.02317437 0.00221332 0.01825172 0.15136480 0.02963884 0.05023096 
0.01668867 0.02051078 0.00508003 0.00198385 0.00641152 0.00227673 0.00748876 0.01203330 0.05178960 0.01316585 0.02318913 0.00221277 0.01779613 0.14903724 0.02923686 0.05148414 
0.01680006 0.02002948 0.00499110 0.00198975 0.00620099 0.00230503 0.00740076 0.01198581 0.05131055 0.01286549 0.02320317 0.00220965 0.01736761 0.14665126 0.02882977 0.05272677 
0.01691548 0.01961209 0.00491259 0.00199854 0.00599818 0.00233407 0.00731333 0.01192375 0.05081548 0.01256439 0.02321574 0.00220401 0.01696790 0.14421953 0.02841969 0.05395250 
0.01703430 0.01926149 0.00484509 0.00201014 0.00580371 0.00236365 0.00722679 0.01184757 0.05030635 0.01226322 0.02322620 0.00219592 0.01659860 0.14175478 0.02800869 0.05515490 
0.01715589 0.01898024 0.00478913 0.00202449 0.00561813 0.00239360 0.00714148 0.01175781 0.04978539 0.01196267 0.02323396 0.00218546 0.01626119 0.13926967 0.02759882 0.05632749 
0.01727959 0.01877060 0.00474517 0.00204151 0.00544195 0.00242371 0.00705771 0.01165511 0.04925507 0.01166339 0.02323850 0.00217274 0.01595700 0.13677674 0.02719209 0.05746379 
0.01740475 0.01863450 0.00471362 0.00206113 0.00527566 0.00245381 0.00697579 0.01154017 0.04871809 0.01136599 0.02323941 0.00215787 0.01568723 0.13428837 0.02679042 0.05855732 
0.01753069 0.01857354 0.00469479 0.00208325 0.00511967 0.00248371 0.00689599 0.01141374 0.04817737 0.01107107 0.02323634 0.00214095 0.01545291 0.13181664 0.02639566 0.05960169 
0.01765672 0.01858901 0.00468896 0.00210780 0.00497434 0.00251324 0.00681858 0.01127669 0.04763603 0.01077921 0.02322902 0.00212212 0.01525491 0.12937331 0.02600959 0.06059063 
0.01778218 0.01868184 0.00469628 0.00213466 0.00484001 0.00254222 0.00674383 0.01112991 0.04709734 0.01049094 0.02321729 0.00210151 0.01509396 0.12696975 0.02563388 0.06151797 
0.01790637 0.01885262 0.00471688 0.00216376 0.00471695 0.00257050 0.00667199 0.01097437 0.04656475 0.01020680 0.02320104 0.00207929 0.01497062 0.12461686 0.02527009 0.06237775 
0.01802862 0.01910161 0.00475077 0.00219497 0.00460539 0.00259792 0.00660329 0.01081108 0.04604179 0.00992727 0.02318029 0.00205559 0.01488528 0.12232501 0.02491970 0.06316424 
0.01814826 0.01942873 0.00479792 0.00222821 0.00450552 0.00262433 0.00653796 0.01064111 0.04553211 0.00965283 0.02315511 0.00203057 0.01483818 0.12010401 0.02458402 0.06387192 
0.01826462 0.01983353 0.00485821 0.00226338 0.00441748 0.00264961 0.00647621 0.01046555 0.04503940 0.00938393 0.02312569 0.00200442 0.01482937 0.11796302 0.02426426 0.06449561 
0.01837704 0.02031526 0.00493144 0.00230035 0.00434137 0.00267363 0.00641827 0.01028553 0.04456740 0.00912099 0.02309228 0.00197728 0.01485878 0.11591053 0.02396149 0.06503043 
0.01848489 0.02087282 0.00501733 0.00233904 0.00427726 0.00269629 0.00636433 0.01010223 0.04411985 0.00886441 0.02305521 0.00194934 0.01492615 0.11395431 0.02367665 0.06547187 
0.01858754 0.02150479 0.00511555 0.00237932 0.00422517 0.00271750 0.00631460 0.00991681 0.04370045 0.00861459 0.02301491 0.00192077 0.01503106 0.11210138 0.02341052 0.06581580 
0.01868438 0.02220943 0.00522568 0.00242111 0.00418509 0.00273716 0.00626927 0.00973045 0.04331284 0.00837188 0.02297188 0.00189174 0.01517296 0.11035796 0.02316375 0.06605851 
0.01877483 0.02298469 0.00534725 0.00246430 0.00415697 0.00275521 0.00622854 0.00954436 0.04296058 0.00813665 0.02292668 0.00186242 0.01535114 0.10872945 0.02293683 0.06619675 
0.01885834 0.02382824 0.00547971 0.00250878 0.00414073 0.00277160 0.00619261 0.00935972 0.04264710 0.00790922 0.02287995 0.00183300 0.01556473 0.10722042 0.02273011 0.06622773 
0.01893437 0.02473742 0.00562245 0.00255444 0.00413628 0.00278629 0.00616166 0.00917769 0.04237566 0.00768991 0.02283240 0.00180363 0.01581274 0.10583458 0.02254378 0.06614916 
0.01900242 0.02570935 0.00577480 0.00260120 0.00414348 0.00279925 0.00613588 0.00899944 0.04214936 0.00747904 0.02278478 0.00177448 0.01609406 0.10457478 0.02237790 0.06595924 
0.01906201 0.02674085 0.00593604 0.00264895 0.00416217 0.00281048 0.00611548 0.00882610 0.04197108 0.00727689 0.02273793 0.00174572 0.01640742 0.10344300 0.02223237 0.06565674 
0.01911271 0.02782852 0.00610540 0.00269760 0.00419218 0.00281999 0.00610065 0.00865875 0.04184346 0.00708375 0.02269269 0.00171749 0.01675147 0.10244034 0.02210696 0.06524095 
0.01915413 0.02896870 0.00628207 0.00274704 0.00423332 0.00282778 0.00609158 0.00849845 0.04176888 0.00689989 0.02264997 0.00168995 0.01712472 0.10156705 0.02200129 0.06471172 
0.01918589 0.03015753 0.00646517 0.00279719 0.00428536 0.00283389 0.00608848 0.00834621 0.04174943 0.00672558 0.02261072 0.00166323 0.01752560 0.10082251 0.02191485 0.06406945 
0.01920768 0.03139097 0.00665381 0.00284795 0.00434810 0.00283837 0.00609154 0.00820298 0.04178689 0.00656108 0.02257592 0.00163748 0.01795245 0.10020528 0.02184701 0.06331513 
0.01921921 0.03266477 0.00684706 0.00289924 0.00442128 0.00284127 0.00610097 0.00806964 0.04188271 0.00640663 0.02254655 0.00161280 0.01840351 0.09971310 0.02179701 0.06245032 
0.01922026 0.03397453 0.00704396 0.00295097 0.00450466 0.00284267 0.00611698 0.00794703 0.04203800 0.00626247 0.02252362 0.00158932 0.01887695 0.09934292 0.02176398 0.06147713 
0.01921064 0.03531571 0.00724352 0.00300305 0.00459799 0.00284264 0.00613978 0.00783590 0.04225351 0.00612884 0.02250816 0.00156715 0.01937089 0.09909092 0.02174694 0.06039823 
0.01919020 0.03668362 0.00744474 0.00305539 0.00470099 0.00284127 0.00616957 0.00773692 0.04252962 0.00600597 0.02250118 0.00154636 0.01988337 0.09895259 0.02174481 0.05921688 
0.01915886 0.03807349 0.00764662 0.00310791 0.00481342 0.00283866 0.00620657 0.00765069 0.04286632 0.00589408 0.02250371 0.00152705 0.02041240 0.09892270 0.02175642 0.05793685 
0.01911658 0.03948043 0.00784814 0.00316053 0.00493499 0.00283491 0.00625097 0.00757773 0.04326322 0.00579337 0.02251673 0.00150928 0.02095596 0.09899540 0.02178053 0.05656245 
0.01906336 0.04089952 0.00804827 0.00321316 0.00506545 0.00283015 0.00630300 0.00751845 0.04371954 0.00570406 0.02254125 0.00149312 0.02151199 0.09916426 0.02181582 0.05509852 
0.01899928 0.04232575 0.00824600 0.00326573 0.00520450 0.00282448 0.00636284 0.00747320 0.04423411 0.00562634 0.02257820 0.00147861 0.02207840 0.09942227 0.02186091 0.05355038 
0.01892446 0.04375409 0.00844032 0.00331815 0.00535190 0.00281804 0.00643070 0.00744220 0.04480537 0.00556039 0.02262853 0.00146579 0.02265311 0.09976197 0.02191438 0.05192382 
0.01883906 0.04517951 0.00863025 0.00337035 0.00550736 0.00281094 0.00650676 0.00742562 0.04543139 0.00550639 0.02269310 0.00145468 0.02323404 0.10017544 0.02197476 0.05022508 
0.01874331 0.04659696 0.00881480 0.00342223 0.00567063 0.00280332 0.00659121 0.00742351 0.04610984 0.00546450 0.02277276 0.00144529 0.02381911 0.10065439 0.02204055 0.04846083 
0.01863751 0.04800142 0.00899302 0.00347372 0.00584143 0.00279530 0.00668421 0.00743581 0.04683806 0.00543487 0.02286830 0.00143763 0.02440623 0.10119021 0.02211024 0.04663811 
0.01852197 0.04938792 0.00916401 0.00352474 0.00601951 0.00278701 0.00678592 0.00746240 0.04761301 0.00541762 0.02298044 0.00143167 0.02499337 0.10177405 0.02218231 0.04476433 
0.01839710 0.05075154 0.00932685 0.00357520 0.00620461 0.00277859 0.00689648 0.00750304 0.04843134 0.00541289 0.02310984 0.00142741 0.02557852 0.10239684 0.02225525 0.04284722 
0.01826333 0.05208743 0.00948071 0.00362502 0.00639647 0.00277014 0.00701601 0.00755742 0.04928939 0.00542075 0.02325710 0.00142481 0.02615968 0.10304939 0.02232756 0.04089480 
0.01812117 0.05339086 0.00962477 0.00367411 0.00659484 0.00276179 0.00714462 0.00762510 0.05018320 0.00544129 0.02342273 0.00142383 0.02673492 0.10372245 0.02239775 0.03891535 
0.01797116 0.05465716 0.00975826 0.00372239 0.00679947 0.00275366 0.00728237 0.00770561 0.05110854 0.00547456 0.02360719 0.00142442 0.02730235 0.10440673 0.02246439 0.03691734 
0.01781389 0.05588182 0.00988047 0.00376977 0.00701011 0.00274585 0.00742933 0.00779835 0.05206095 0.00552059 0.02381082 0.00142651 0.02786012 0.10509303 0.02252609 0.03490942 
0.01765002 0.05706047 0.00999072 0.00381616 0.00722650 0.00273846 0.00758552 0.00790265 0.05303577 0.00557937 0.02403390 0.00143004 0.02840645 0.10577225 0.02258151 0.03290039 
0.01748024 0.05818887 0.01008840 0.00386147 0.00744840 0.00273158 0.00775093 0.00801779 0.05402813 0.00565088 0.02427661 0.00143493 0.02893962 0.10643547 0.02262937 0.03089911 
0.01730527 0.05926298 0.01017295 0.00390560 0.00767556 0.00272530 0.00792554 0.00814294 0.05503304 0.00573505 0.02453904 0.00144111 0.02945797 0.10707400 0.02266848 0.02891450 
0.01712589 0.06027892 0.01024386 0.00394847 0.00790773 0.00271970 0.00810926 0.00827723 0.05604538 0.00583179 0.02482118 0.00144847 0.02995990 0.10767943 0.02269770 0.02695548 
0.01694292 0.06123301 0.01030071 0.00398998 0.00814464 0.00271482 0.00830200 0.00841974 0.05705995 0.00594097 0.02512295 0.00145694 0.03044390 0.10824373 0.02271602 0.02503095 
0.01675720 0.06212178 0.01034311 0.00403004 0.00838604 0.00271073 0.00850360 0.00856946 0.05807150 0.00606242 0.02544413 0.00146640 0.03090852 0.10875922 0.02272250 0.02314971 
0.01656961 0.06294198 0.01037074 0.00406853 0.00863167 0.00270747 0.00871388 0.00872538 0.05907477 0.00619593 0.02578443 0.00147677 0.03135239 0.10921869 0.02271631 0.02132044 
0.01638106 0.06369060 0.01038335 0.00410538 0.00888124 0.00270507 0.00893262 0.00888641 0.06006452 0.00634126 0.02614345 0.00148793 0.03177421 0.10961543 0.02269672 0.01955165 
0.01619247 0.06436486 0.01038075 0.00414048 0.00913448 0.00270353 0.00915954 0.00905145 0.06103557 0.00649812 0.02652070 0.00149978 0.03217276 0.10994324 0.02266313 0.01785165 
0.01600479 0.06496224 0.01036282 0.00417373 0.00939111 0.00270287 0.00939432 0.00921937 0.06198285 0.00666617 0.02691559 0.00151221 0.03254690 0.11019651 0.02261505 0.01622850 
0.01581898 0.06548047 0.01032950 0.00420503 0.00965081 0.00270308 0.00963662 0.00938902 0.06290139 0.00684504 0.02732744 0.00152512 0.03289557 0.11037022 0.02255211 0.01468998 
0.01563602 0.06591756 0.01028080 0.00423429 0.00991328 0.00270414 0.00988602 0.00955925 0.06378641 0.00703430 0.02775546 0.00153840 0.03321779 0.11045999 0.02247407 0.01324354 
0.01545689 0.06627179 0.01021679 0.00426141 0.01017820 0.00270601 0.01014208 0.00972889 0.06463331 0.00723350 0.02819877 0.00155194 0.03351265 0.11046211 0.02238080 0.01189625 
0.01528255 0.06654174 0.01013760 0.00428629 0.01044524 0.00270866 0.01040429 0.00989680 0.06543774 0.00744210 0.02865642 0.00156564 0.03377933 0.11037354 0.02227232 0.01065483 
0.01511398 0.06672627 0.01004342 0.00430885 0.01071404 0.00271203 0.01067213 0.01006182 0.06619558 0.00765957 0.02912736 0.00157941 0.03401710 0.11019196 0.02214877 0.00952552 
0.01495215 0.06682452 0.00993451 0.00432899 0.01098424 0.00271605 0.01094500 0.01022284 0.06690301 0.00788528 0.02961046 0.00159314 0.03422527 0.10991574 0.02201042 0.00851414 
0.01479800 0.06683597 0.00981120 0.00434663 0.01125547 0.00272065 0.01122227 0.01037877 0.06755655 0.00811859 0.03010452 0.00160675 0.03440327 0.10954400 0.02185765 0.00762598 
0.01465246 0.06676037 0.00967385 0.00436168 0.01152733 0.00272575 0.01150329 0.01052854 0.06815302 0.00835882 0.03060825 0.00162014 0.03455060 0.10907656 0.02169099 0.00686585 
0.01451642 0.06659780 0.00952289 0.00437407 0.01179941 0.00273125 0.01178733 0.01067116 0.06868964 0.00860522 0.03112032 0.00163324 0.03466681 0.10851397 0.02151107 0.00623801 
0.01439077 0.06634863 0.00935881 0.00438372 0.01207130 0.00273706 0.01207365 0.01080564 0.06916399 0.00885702 0.03163933 0.00164596 0.03475158 0.10785751 0.02131865 0.00574613 
0.01427634 0.06601357 0.00918215 0.00439056 0.01234256 0.00274306 0.01236148 0.01093108 0.06957407 0.00911340 0.03216381 0.00165825 0.03480461 0.10710916 0.02111460 0.00539332 
0.01417392 0.06559362 0.00899349 0.00439454 0.01261273 0.00274914 0.01264998 0.01104664 0.06991827 0.00937351 0.03269225 0.00167003 0.03482574 0.10627159 0.02089991 0.00518210 
0.01408426 0.06509011 0.00879347 0.00439561 0.01288135 0.00275519 0.01293833 0.01115153 0.07019543 0.00963648 0.03322311 0.00168125 0.03481483 0.10534813 0.02067564 0.00511435 
0.01400807 0.06450465 0.00858277 0.00439371 0.01314793 0.00276108 0.01322564 0.01124504 0.07040484 0.00990138 0.03375482 0.00169187 0.03477186 0.10434278 0.02044299 0.00519135 
0.01394598 0.06383919 0.00836210 0.00438881 0.01341200 0.00276670 0.01351102 0.01132654 0.07054621 0.01016727 0.03428575 0.00170183 0.03469688 0.10326014 0.02020322 0.00541372 
0.01389861 0.06309596 0.00813224 0.00438089 0.01367304 0.00277192 0.01379356 0.01139548 0.07061970 0.01043319 0.03481429 0.00171111 0.03459001 0.10210542 0.01995766 0.00578146 
0.01386646 0.06227752 0.00789397 0.00436993 0.01393054 0.00277662 0.01407233 0.01145140 0.07062595 0.01069815 0.03533881 0.00171968 0.03445147 0.10088437 0.01970776 0.00629393 
0.01385001 0.06138669 0.00764814 0.00435592 0.01418398 0.00278067 0.01434640 0.01149391 0.07056600 0.01096114 0.03585765 0.00172752 0.03428153 0.09960324 0.01945498 0.00694985 
0.01384965 0.06042659 0.00739559 0.00433886 0.01443282 0.00278395 0.01461482 0.01152273 0.07044136 0.01122116 0.03636920 0.00173462 0.03408058 0.09826877 0.01920086 0.00774728 
0.01386570 0.05940062 0.00713724 0.00431878 0.01467655 0.00278636 0.01487664 0.01153766 0.07025397 0.01147718 0.03687184 0.00174097 0.03384906 0.09688812 0.01894700 0.00868368 
0.01389843 0.05831246 0.00687398 0.00429569 0.01491461 0.00278778 0.01513093 0.01153861 0.07000619 0.01172819 0.03736398 0.00174659 0.03358753 0.09546883 0.01869500 0.00975587 
0.01394800 0.05716602 0.00660677 0.00426965 0.01514647 0.00278810 0.01537674 0.01152556 0.06970078 0.01197315 0.03784405 0.00175147 0.03329661 0.09401876 0.01844652 0.01096009 
0.01401453 0.05596548 0.00633657 0.00424071 0.01537158 0.00278724 0.01561317 0.01149860 0.06934088 0.01221106 0.03831054 0.00175564 0.03297701 0.09254605 0.01820320 0.01229195 
0.01409803 0.05471525 0.00606434 0.00420892 0.01558941 0.00278510 0.01583930 0.01145792 0.06893001 0.01244092 0.03876198 0.00175912 0.03262953 0.09105906 0.01796670 0.01374653 
0.01419847 0.05341995 0.00579107 0.00417439 0.01579943 0.00278161 0.01605425 0.01140377 0.06847204 0.01266174 0.03919695 0.00176194 0.03225507 0.08956633 0.01773869 0.01531831 
0.01431570 0.05208441 0.00551777 0.00413718 0.01600111 0.00277669 0.01625719 0.01133654 0.06797114 0.01287257 0.03961411 0.00176414 0.03185461 0.08807650 0.01752078 0.01700130 
0.01444954 0.05071366 0.00524545 0.00409743 0.01619394 0.00277030 0.01644728 0.01125667 0.06743180 0.01307249 0.04001219 0.00176575 0.03142921 0.08659827 0.01731460 0.01878896 
0.01459969 0.04931289 0.00497511 0.00405524 0.01637741 0.00276238 0.01662375 0.01116470 0.06685875 0.01326058 0.04039000 0.00176683 0.03098005 0.08514033 0.01712170 0.02067431 
0.01476581 0.04788743 0.00470776 0.00401075 0.01655103 0.00275292 0.01678585 0.01106125 0.06625697 0.01343601 0.04074643 0.00176741 0.03050836 0.08371134 0.01694361 0.02264993 
0.01494748 0.04644275 0.00444442 0.00396412 0.01671433 0.00274189 0.01693290 0.01094701 0.06563162 0.01359795 0.04108047 0.00176756 0.03001550 0.08231982 0.01678177 0.02470796 
0.01514419 0.04498446 0.00418608 0.00391549 0.01686687 0.00272929 0.01706426 0.01082276 0.06498806 0.01374564 0.04139122 0.00176733 0.02950290 0.08097416 0.01663758 0.02684023 
0.01535539 0.04351821 0.00393375 0.00386506 0.01700819 0.00271513 0.01717932 0.01068934 0.06433174 0.01387838 0.04167787 0.00176679 0.02897208 0.07968249 0.01651235 0.02903818 
0.01558045 0.04204975 0.00368841 0.00381299 0.01713791 0.00269944 0.01727758 0.01054765 0.06366823 0.01399550 0.04193975 0.00176598 0.02842465 0.07845270 0.01640729 0.03129300 
0.01581870 0.04058486 0.00345104 0.00375950 0.01725563 0.00268227 0.01735855 0.01039865 0.06300316 0.01409643 0.04217627 0.00176499 0.02786231 0.07729237 0.01632354 0.03359561 
0.01606938 0.03912936 0.00322257 0.00370480 0.01736101 0.00266366 0.01742183 0.01024334 0.06234217 0.01418064 0.04238700 0.00176386 0.02728685 0.07620869 0.01626211 0.03593673 
0.01633172 0.03768904 0.00300396 0.00364910 0.01745371 0.00264371 0.01746709 0.01008279 0.06169087 0.01424767 0.04257160 0.00176267 0.02670012 0.07520848 0.01622391 0.03830691 
0.01660487 0.03626968 0.00279610 0.00359263 0.01753346 0.00262249 0.01749405 0.00991808 0.06105485 0.01429715 0.04272988 0.00176148 0.02610406 0.07429807 0.01620975 0.04069659 
0.01688795 0.03487699 0.00259987 0.00353564 0.01759999 0.00260011 0.01750253 0.00975033 0.06043957 0.01432877 0.04286178 0.00176035 0.02550070 0.07348333 0.01622028 0.04309612 
0.01718006 0.03351662 0.00241614 0.00347836 0.01765309 0.00257668 0.01749238 0.00958069 0.05985039 0.01434231 0.04296734 0.00175935 0.02489211 0.07276960 0.01625606 0.04549583 
0.01748024 0.03219408 0.00224572 0.00342107 0.01769256 0.00255235 0.01746357 0.00941031 0.05929251 0.01433763 0.04304677 0.00175854 0.02428044 0.07216170 0.01631749 0.04788608 
0.01778752 0.03091479 0.00208939 0.00336401 0.01771827 0.00252726 0.01741612 0.00924036 0.05877090 0.01431466 0.04310039 0.00175798 0.02366790 0.07166382 0.01640485 0.05025725 
0.01810092 0.02968397 0.00194790 0.00330745 0.01773010 0.00250157 0.01735012 0.00907202 0.05829032 0.01427343 0.04312864 0.00175772 0.02305674 0.07127959 0.01651827 0.05259989 
0.01841942 0.02850671 0.00182194 0.00325165 0.01772799 0.00247544 0.01726575 0.00890643 0.05785528 0.01421404 0.04313210 0.00175782 0.02244927 0.07101200 0.01665775 0.05490464 
0.01874201 0.02738784 0.00171219 0.00319690 0.01771191 0.00244907 0.01716325 0.00874474 0.05746997 0.01413669 0.04311146 0.00175833 0.02184783 0.07086344 0.01682314 0.05716239 
0.01906768 0.02633199 0.00161924 0.00314346 0.01768188 0.00242265 0.01704293 0.00858808 0.05713828 0.01404166 0.04306755 0.00175929 0.02125479 0.07083560 0.01701417 0.05936422 
0.01939541 0.02534354 0.00154365 0.00309160 0.01763796 0.00239638 0.01690520 0.00843754 0.05686375 0.01392930 0.04300129 0.00176075 0.02067253 0.07092957 0.01723040 0.06150154 
0.01972420 0.02442657 0.00148594 0.00304160 0.01758024 0.00237047 0.01675050 0.00829417 0.05664955 0.01380007 0.04291372 0.00176275 0.02010345 0.07114577 0.01747127 0.06356606 
0.02005306 0.02358488 0.00144655 0.00299371 0.01750887 0.00234513 0.01657936 0.00815899 0.05649847 0.01365448 0.04280598 0.00176532 0.01954996 0.07148396 0.01773608 0.06554983 
0.02038101 0.02282195 0.00142587 0.00294819 0.01742403 0.00232060 0.01639237 0.00803296 0.05641287 0.01349315 0.04267930 0.00176849 0.01901444 0.07194327 0.01802401 0.06744534 
0.02070711 0.02214092 0.00142423 0.00290531 0.01732594 0.00229709 0.01619018 0.00791698 0.05639473 0.01331675 0.04253501 0.00177227 0.01849927 0.07252219 0.01833409 0.06924548 
0.02103045 0.02154458 0.00144190 0.00286531 0.01721486 0.00227483 0.01597349 0.00781191 0.05644555 0.01312605 0.04237451 0.00177670 0.01800678 0.07321860 0.01866525 0.07094362 
0.02135013 0.02103535 0.00147908 0.00282842 0.01709109 0.00225406 0.01574308 0.00771851 0.05656642 0.01292187 0.04219926 0.00178178 0.01753927 0.07402976 0.01901628 0.07253361 
0.02166532 0.02061526 0.00153590 0.00279488 0.01695498 0.00223500 0.01549975 0.00763749 0.05675797 0.01270511 0.04201080 0.00178752 0.01709897 0.07495237 0.01938589 0.07400984 
0.02197520 0.02028596 0.00161244 0.00276489 0.01680689 0.00221788 0.01524436 0.00756948 0.05702039 0.01247672 0.04181072 0.00179392 0.01668808 0.07598257 0.01977267 0.07536723 
0.02227901 0.02004868 0.00170867 0.00273867 0.01664724 0.00220292 0.01497781 0.00751503 0.05735339 0.01223773 0.04160063 0.00180098 0.01630868 0.07711597 0.02017511 0.07660128 
0.02257606 0.01990424 0.00182454 0.00271639 0.01647646 0.00219035 0.01470104 0.00747460 0.05775627 0.01198920 0.04138219 0.00180869 0.01596278 0.07834769 0.02059162 0.07770807 
0.02286566 0.01985305 0.00195987 0.00269823 0.01629505 0.00218036 0.01441502 0.00744856 0.05822786 0.01173225 0.04115706 0.00181704 0.01565229 0.07967240 0.02102054 0.07868426 
0.02314722 0.01989508 0.00211445 0.00268434 0.01610349 0.00217316 0.01412074 0.00743721 0.05876657 0.01146805 0.04092694 0.00182600 0.01537900 0.08108434 0.02146013 0.07952716 
0.02342018 0.02002990 0.00228798 0.00267485 0.01590232 0.00216894 0.01381922 0.00744073 0.05937039 0.01119780 0.04069349 0.00183556 0.01514459 0.08257736 0.02190860 0.08023467 
0.02368405 0.02025662 0.00248008 0.00266989 0.01569210 0.00216788 0.01351151 0.00745923 0.06003691 0.01092273 0.04045838 0.00184569 0.01495059 0.08414498 0.02236412 0.08080532 
0.02393838 0.02057395 0.00269030 0.00266955 0.01547341 0.00217015 0.01319863 0.00749271 0.06076332 0.01064410 0.04022325 0.00185634 0.01479839 0.08578041 0.02282482 0.08123827 
0.02418279 0.02098020 0.00291811 0.00267389 0.01524686 0.00217590 0.01288167 0.00754111 0.06154644 0.01036320 0.03998970 0.00186750 0.01468921 0.08747661 0.02328878 0.08153331 
0.02441695 0.02147324 0.00316292 0.00268298 0.01501305 0.00218527 0.01256166 0.00760422 0.06238277 0.01008131 0.03975930 0.00187911 0.01462414 0.08922633 0.02375409 0.08169084 
0.02464060 0.02205055 0.00342404 0.00269684 0.01477264 0.00219836 0.01223966 0.00768180 0.06326848 0.00979974 0.03953354 0.00189113 0.01460405 0.09102217 0.02421885 0.08171187 
0.02485353 0.02270924 0.00370073 0.00271547 0.01452626 0.00221529 0.01191672 0.00777349 0.06419943 0.00951980 0.03931387 0.00190351 0.01462967 0.09285658 0.02468113 0.08159802 
0.02505557 0.02344602 0.00399218 0.00273887 0.01427459 0.00223613 0.01159387 0.00787883 0.06517123 0.00924278 0.03910165 0.00191620 0.01470150 0.09472196 0.02513904 0.08135149 
0.02524662 0.02425727 0.00429749 0.00276698 0.01401828 0.00226095 0.01127212 0.00799731 0.06617927 0.00896999 0.03889816 0.00192916 0.01481988 0.09661069 0.02559072 0.08097503 
0.02542664 0.02513901 0.00461571 0.00279973 0.01375803 0.00228977 0.01095247 0.00812832 0.06721871 0.00870269 0.03870459 0.00194232 0.01498492 0.09851516 0.02603434 0.08047195 
0.02559561 0.02608695 0.00494584 0.00283704 0.01349451 0.00232262 0.01063588 0.00827116 0.06828457 0.00844214 0.03852204 0.00195562 0.01519653 0.10042782 0.02646813 0.07984608 
0.02575358 0.02709652 0.00528678 0.00287879 0.01322840 0.00235949 0.01032330 0.00842510 0.06937170 0.00818957 0.03835149 0.00196902 0.01545442 0.10234124 0.02689037 0.07910175 
0.02590065 0.02816285 0.00563741 0.00292484 0.01296039 0.00240036 0.01001561 0.00858929 0.07047489 0.00794617 0.03819383 0.00198245 0.01575808 0.10424814 0.02729943 0.07824374 
0.02603694 0.02928084 0.00599653 0.00297502 0.01269116 0.00244516 0.00971369 0.00876285 0.07158884 0.00771310 0.03804981 0.00199586 0.01610678 0.10614143 0.02769373 0.07727727 
0.02616262 0.03044518 0.00636291 0.00302915 0.01242137 0.00249382 0.00941836 0.00894485 0.07270821 0.00749147 0.03792009 0.00200918 0.01649958 0.10801425 0.02807180 0.07620798 
0.02627789 0.03165034 0.00673527 0.00308702 0.01215170 0.00254625 0.00913040 0.00913429 0.07382768 0.00728235 0.03780518 0.00202236 0.01693533 0.10986001 0.02843225 0.07504186 
0.02638299 0.03289067 0.00711228 0.00314839 0.01188281 0.00260232 0.00885054 0.00933013 0.07494196 0.00708675 0.03770547 0.00203534 0.01741267 0.11167242 0.02877380 0.07378524 
0.02647817 0.03416034 0.00749259 0.00321301 0.01161534 0.00266187 0.00857946 0.00953130 0.07604583 0.00690564 0.03762124 0.00204806 0.01793002 0.11344552 0.02909530 0.07244475 
0.02656373 0.03545347 0.00787480 0.00328061 0.01134992 0.00272475 0.00831781 0.00973670 0.07713418 0.00673990 0.03755263 0.00206048 0.01848561 0.11517373 0.02939568 0.07102724 
0.02663998 0.03676408 0.00825750 0.00335090 0.01108718 0.00279076 0.00806615 0.00994519 0.07820202 0.00659036 0.03749964 0.00207254 0.01907747 0.11685184 0.02967402 0.06953984 
0.02670722 0.03808616 0.00863927 0.00342356 0.01082770 0.00285969 0.00782501 0.01015563 0.07924454 0.00645781 0.03746218 0.00208419 0.01970343 0.11847507 0.02992952 0.06798981 
0.02676581 0.03941370 0.00901866 0.00349826 0.01057209 0.00293130 0.00759488 0.01036687 0.08025710 0.00634293 0.03744000 0.00209538 0.02036115 0.12003907 0.03016149 0.06638456 
0.02681607 0.04074072 0.00939422 0.00357468 0.01032089 0.00300535 0.00737616 0.01057776 0.08123531 0.00624635 0.03743275 0.00210608 0.02104812 0.12153994 0.03036941 0.06473160 
0.02685837 0.04206130 0.00976450 0.00365246 0.01007466 0.00308155 0.00716921 0.01078714 0.08217500 0.00616862 0.03743995 0.00211625 0.02176167 0.12297425 0.03055286 0.06303851 
0.02689306 0.04336961 0.01012806 0.00373122 0.00983391 0.00315962 0.00697433 0.01099386 0.08307228 0.00611022 0.03746101 0.00212584 0.02249897 0.12433903 0.03071159 0.06131289 
0.02692049 0.04465995 0.01048347 0.00381061 0.00959915 0.00323926 0.00679178 0.01119682 0.08392353 0.00607154 0.03749524 0.00213483 0.02325705 0.12563181 0.03084546 0.05956230 
0.02694100 0.04592677 0.01082932 0.00389023 0.00937083 0.00332015 0.00662175 0.01139492 0.08472545 0.00605291 0.03754183 0.00214319 0.02403285 0.12685062 0.03095449 0.05779426 
0.02695495 0.04716471 0.01116423 0.00396971 0.00914941 0.00340196 0.00646438 0.01158710 0.08547505 0.00605457 0.03759989 0.00215091 0.02482317 0.12799396 0.03103883 0.05601623 
0.02696265 0.04836861 0.01148685 0.00404864 0.00893531 0.00348435 0.00631974 0.01177233 0.08616969 0.00607667 0.03766843 0.00215795 0.02562473 0.12906082 0.03109874 0.05423549 
0.02696443 0.04953356 0.01179587 0.00412665 0.00872892 0.00356697 0.00618787 0.01194964 0.08680705 0.00611931 0.03774639 0.00216431 0.02643419 0.13005068 0.03113466 0.05245921 
0.02696060 0.05065492 0.01209003 0.00420334 0.00853062 0.00364946 0.00606875 0.01211810 0.08738518 0.00618250 0.03783263 0.00216998 0.02724812 0.13096350 0.03114712 0.05069435 
0.02695145 0.05172831 0.01236812 0.00427832 0.00834072 0.00373147 0.00596232 0.01227684 0.08790247 0.00626614 0.03792593 0.00217496 0.02806308 0.13179970 0.03113679 0.04894767 
0.02693724 0.05274970 0.01262898 0.00435121 0.00815955 0.00381262 0.00586844 0.01242505 0.08835767 0.00637011 0.03802504 0.00217924 0.02887560 0.13256014 0.03110445 0.04722568 
0.02691824 0.05371536 0.01287154 0.00442164 0.00798739 0.00389255 0.00578697 0.01256199 0.08874990 0.00649418 0.03812865 0.00218284 0.02968220 0.13324612 0.03105101 0.04553462 
0.02689468 0.05462192 0.01309477 0.00448924 0.00782447 0.00397091 0.00571770 0.01268700 0.08907862 0.00663805 0.03823540 0.00218576 0.03047942 0.13385937 0.03097749 0.04388044 
0.02686677 0.05546637 0.01329774 0.00455365 0.00767104 0.00404732 0.00566038 0.01279946 0.08934364 0.00680134 0.03834392 0.00218802 0.03126384 0.13440201 0.03088498 0.04226880 
0.02683470 0.05624607 0.01347958 0.00461454 0.00752726 0.00412144 0.00561472 0.01289886 0.08954512 0.00698363 0.03845282 0.00218963 0.03203209 0.13487651 0.03077470 0.04070501 
0.02679864 0.05695878 0.01363952 0.00467158 0.00739331 0.00419292 0.00558040 0.01298476 0.08968354 0.00718441 0.03856069 0.00219063 0.03278086 0.13528571 0.03064794 0.03919406 
0.02675874 0.05760265 0.01377688 0.00472446 0.00726932 0.00426142 0.00555707 0.01305680 0.08975971 0.00740310 0.03866613 0.00219104 0.03350696 0.13563276 0.03050606 0.03774057 
0.02671514 0.05817624 0.01389105 0.00477289 0.00715537 0.00432662 0.00554434 0.01311470 0.08977474 0.00763908 0.03876773 0.00219090 0.03420729 0.13592111 0.03035051 0.03634881 
0.02666793 0.05867849 0.01398156 0.00481660 0.00705155 0.00438820 0.00554180 0.01315828 0.08973001 0.00789166 0.03886412 0.00219023 0.03487888 0.13615447 0.03018278 0.03502266 
0.02661721 0.05910877 0.01404799 0.00485535 0.00695789 0.00444587 0.00554899 0.01318742 0.08962721 0.00816008 0.03895396 0.00218908 0.03551890 0.13633678 0.03000442 0.03376565 
0.02656305 0.05946685 0.01409006 0.00488890 0.00687441 0.00449935 0.00556547 0.01320211 0.08946824 0.00844356 0.03903593 0.00218748 0.03612469 0.13647218 0.02981703 0.03258089 
0.02650550 0.05975290 0.01410757 0.00491708 0.00680107 0.00454837 0.00559073 0.01320242 0.08925525 0.00874124 0.03910876 0.00218549 0.03669376 0.13656499 0.02962222 0.03147116 
0.02644460 0.05996748 0.01410044 0.00493969 0.00673782 0.00459270 0.00562428 0.01318849 0.08899061 0.00905223 0.03917125 0.00218316 0.03722383 0.13661966 0.02942166 0.03043881 
0.02638038 0.06011154 0.01406869 0.00495660 0.00668460 0.00463212 0.00566559 0.01316056 0.08867687 0.00937559 0.03922226 0.00218052 0.03771280 0.13664075 0.02921699 0.02948584 
0.02631285 0.06018640 0.01401243 0.00496768 0.00664128 0.00466642 0.00571413 0.01311894 0.08831673 0.00971036 0.03926069 0.00217763 0.03815880 0.13663289 0.02900987 0.02861386 
0.02624201 0.06019373 0.01393190 0.00497286 0.00660773 0.00469544 0.00576936 0.01306401 0.08791305 0.01005551 0.03928556 0.00217454 0.03856018 0.13660076 0.02880197 0.02782414 
0.02616788 0.06013558 0.01382744 0.00497206 0.00658377 0.00471903 0.00583071 0.01299624 0.08746882 0.01041002 0.03929595 0.00217132 0.03891556 0.13654905 0.02859492 0.02711756 
0.02609043 0.06001428 0.01369946 0.00496526 0.00656921 0.00473707 0.00589763 0.01291617 0.08698709 0.01077280 0.03929103 0.00216800 0.03922377 0.13648242 0.02839034 0.02649466 
0.02600967 0.05983251 0.01354852 0.00495246 0.00656383 0.00474945 0.00596955 0.01282441 0.08647101 0.01114278 0.03927008 0.00216465 0.03948391 0.13640550 0.02818982 0.02595565 
0.02592558 0.05959320 0.01337524 0.00493369 0.00656737 0.00475612 0.00604589 0.01272160 0.08592379 0.01151884 0.03923246 0.00216131 0.03969535 0.13632283 0.02799489 0.02550040 
0.02583817 0.05929958 0.01318035 0.00490900 0.00657955 0.00475703 0.00612610 0.01260849 0.08534864 0.01189985 0.03917767 0.00215805 0.03985772 0.13623886 0.02780705 0.02512847 
0.02574743 0.05895510 0.01296466 0.00487849 0.00660006 0.00475217 0.00620959 0.01248585 0.08474881 0.01228467 0.03910529 0.00215492 0.03997090 0.13615791 0.02762773 0.02483911 
0.02565338 0.05856341 0.01272907 0.00484226 0.00662857 0.00474154 0.00629580 0.01235450 0.08412751 0.01267216 0.03901502 0.00215196 0.04003506 0.13608412 0.02745829 0.02463130 
0.02555604 0.05812838 0.01247458 0.00480047 0.00666471 0.00472519 0.00638416 0.01221531 0.08348794 0.01306115 0.03890670 0.00214923 0.04005062 0.13602148 0.02730003 0.02450372 
0.02545543 0.05765402 0.01220223 0.00475327 0.00670812 0.00470319 0.00647412 0.01206919 0.08283325 0.01345049 0.03878025 0.00214678 0.04001829 0.13597379 0.02715418 0.02445481 
0.02535162 0.05714447 0.01191317 0.00470087 0.00675837 0.00467562 0.00656512 0.01191707 0.08216652 0.01383903 0.03863575 0.00214464 0.03993901 0.13594462 0.02702185 0.02448276 
0.02524466 0.05660399 0.01160858 0.00464349 0.00681503 0.00464261 0.00665662 0.01175992 0.08149077 0.01422562 0.03847338 0.00214287 0.03981399 0.13593730 0.02690410 0.02458553 
0.02513465 0.05603690 0.01128971 0.00458137 0.00687766 0.00460430 0.00674808 0.01159871 0.08080891 0.01460912 0.03829346 0.00214151 0.03964468 0.13595492 0.02680188 0.02476086 
0.02502168 0.05544757 0.01095788 0.00451477 0.00694577 0.00456085 0.00683897 0.01143444 0.08012377 0.01498841 0.03809640 0.00214059 0.03943277 0.13600032 0.02671603 0.02500630 
0.02490589 0.05484040 0.01061442 0.00444399 0.00701887 0.00451246 0.00692879 0.01126810 0.07943805 0.01536236 0.03788278 0.00214015 0.03918018 0.13607605 0.02664732 0.02531921 
0.02478743 0.05421976 0.01026074 0.00436933 0.00709644 0.00445933 0.00701702 0.01110070 0.07875436 0.01572989 0.03765327 0.00214022 0.03888904 0.13618438 0.02659638 0.02569677 
0.02466648 0.05358999 0.00989824 0.00429110 0.00717795 0.00440169 0.00710318 0.01093322 0.07807515 0.01608994 0.03740866 0.00214083 0.03856168 0.13632729 0.02656376 0.02613603 
0.02454324 0.05295536 0.00952836 0.00420965 0.00726286 0.00433980 0.00718680 0.01076665 0.07740279 0.01644145 0.03714987 0.00214200 0.03820063 0.13650647 0.02654989 0.02663388 
0.02441794 0.05232006 0.00915256 0.00412532 0.00735059 0.00427392 0.00726742 0.01060194 0.07673947 0.01678341 0.03687794 0.00214375 0.03780856 0.13672331 0.02655509 0.02718707 
0.02429083 0.05168814 0.00877231 0.00403847 0.00744057 0.00420433 0.00734459 0.01044005 0.07608729 0.01711484 0.03659399 0.00214609 0.03738831 0.13697888 0.02657958 0.02779226 
0.02416219 0.05106353 0.00838907 0.00394947 0.00753222 0.00413132 0.00741788 0.01028187 0.07544822 0.01743479 0.03629929 0.00214904 0.03694287 0.13727397 0.02662347 0.02844598 
0.02403233 0.05044997 0.00800430 0.00385870 0.00762492 0.00405522 0.00748689 0.01012828 0.07482407 0.01774235 0.03599518 0.00215260 0.03647531 0.13760906 0.02668675 0.02914470 
0.02390158 0.04985103 0.00761944 0.00376654 0.00771807 0.00397632 0.00755122 0.00998012 0.07421657 0.01803664 0.03568311 0.00215679 0.03598883 0.13798434 0.02676931 0.02988478 
0.02377029 0.04927006 0.00723592 0.00367337 0.00781106 0.00389496 0.00761051 0.00983817 0.07362730 0.01831686 0.03536464 0.00216159 0.03548668 0.13839968 0.02687094 0.03066252 
0.02363883 0.04871020 0.00685512 0.00357957 0.00790327 0.00381147 0.00766439 0.00970318 0.07305775 0.01858220 0.03504138 0.00216699 0.03497218 0.13885470 0.02699131 0.03147418 
0.02350761 0.04817433 0.00647842 0.00348552 0.00799407 0.00372618 0.00771254 0.00957585 0.07250929 0.01883195 0.03471506 0.00217300 0.03444867 0.13934871 0.02713002 0.03231595 
0.02337702 0.04766508 0.00610712 0.00339160 0.00808285 0.00363944 0.00775465 0.00945679 0.07198323 0.01906543 0.03438745 0.00217960 0.03391952 0.13988076 0.02728655 0.03318400 
0.02324751 0.04718481 0.00574250 0.00329818 0.00816899 0.00355159 0.00779042 0.00934659 0.07148074 0.01928200 0.03406042 0.00218676 0.03338806 0.14044963 0.02746029 0.03407445 
0.02311951 0.04673560 0.00538577 0.00320564 0.00825187 0.00346296 0.00781960 0.00924576 0.07100296 0.01948111 0.03373586 0.00219447 0.03285762 0.14105386 0.02765053 0.03498342 
0.02299347 0.04631924 0.00503810 0.00311431 0.00833089 0.00337390 0.00784194 0.00915474 0.07055094 0.01966223 0.03341575 0.00220270 0.03233146 0.14169173 0.02785651 0.03590703 
0.02286987 0.04593722 0.00470058 0.00302454 0.00840545 0.00328473 0.00785724 0.00907392 0.07012568 0.01982493 0.03310210 0.00221141 0.03181276 0.14236132 0.02807735 0.03684137 
0.02274915 0.04559073 0.00437423 0.00293667 0.00847497 0.00319579 0.00786529 0.00900361 0.06972814 0.01996880 0.03279694 0.00222059 0.03130462 0.14306045 0.02831211 0.03778258 
0.02263179 0.04528068 0.00406001 0.00285101 0.00853888 0.00310739 0.00786593 0.00894406 0.06935923 0.02009354 0.03250235 0.00223018 0.03081003 0.14378676 0.02855979 0.03872679 
0.02251825 0.04500763 0.00375880 0.00276785 0.00859663 0.00301985 0.00785904 0.00889543 0.06901984 0.02019888 0.03222041 0.00224015 0.03033183 0.14453771 0.02881931 0.03967018 
0.02240900 0.04477189 0.00347139 0.00268749 0.00864769 0.00293346 0.00784449 0.00885784 0.06871084 0.02028463 0.03195321 0.00225046 0.02987272 0.14531056 0.02908953 0.04060894 
0.02230447 0.04457345 0.00319849 0.00261018 0.00869156 0.00284851 0.00782222 0.00883132 0.06843311 0.02035068 0.03170285 0.00226105 0.02943524 0.14610242 0.02936926 0.04153935 
0.02220511 0.04441200 0.00294075 0.00253617 0.00872774 0.00276528 0.00779218 0.00881584 0.06818750 0.02039697 0.03147141 0.00227189 0.02902173 0.14691023 0.02965726 0.04245771 
0.02211134 0.04428696 0.00269870 0.00246567 0.00875579 0.00268403 0.00775435 0.00881131 0.06797489 0.02042352 0.03126094 0.00228292 0.02863435 0.14773081 0.02995224 0.04336041 
0.02202356 0.04419749 0.00247281 0.00239890 0.00877529 0.00260501 0.00770875 0.00881756 0.06779616 0.02043042 0.03107347 0.00229410 0.02827503 0.14856086 0.03025289 0.04424393 
0.02194216 0.04414247 0.00226344 0.00233602 0.00878585 0.00252844 0.00765541 0.00883436 0.06765221 0.02041783 0.03091100 0.00230535 0.02794550 0.14939695 0.03055785 0.04510481 
0.02186747 0.04412053 0.00207088 0.00227721 0.00878712 0.00245455 0.00759443 0.00886143 0.06754398 0.02038600 0.03077545 0.00231664 0.02764725 0.15023559 0.03086574 0.04593972 
0.02179983 0.04413010 0.00189532 0.00222258 0.00877879 0.00238353 0.00752592 0.00889844 0.06747240 0.02033521 0.03066870 0.00232791 0.02738151 0.15107316 0.03117516 0.04674543 
0.02173953 0.04416935 0.00173686 0.00217225 0.00876059 0.00231556 0.00745003 0.00894497 0.06743846 0.02026585 0.03059256 0.00233909 0.02714929 0.15190602 0.03148469 0.04751883 
0.02168683 0.04423630 0.00159555 0.00212631 0.00873229 0.00225079 0.00736693 0.00900060 0.06744315 0.02017837 0.03054874 0.00235013 0.02695133 0.15273043 0.03179291 0.04825697 
0.02164194 0.04432874 0.00147131 0.00208481 0.00869371 0.00218938 0.00727684 0.00906481 0.06748751 0.02007327 0.03053889 0.00236098 0.02678812 0.15354264 0.03209838 0.04895702 
0.02160505 0.04444435 0.00136401 0.00204781 0.00864471 0.00213145 0.00718002 0.00913708 0.06757257 0.01995115 0.03056453 0.00237157 0.02665988 0.15433884 0.03239969 0.04961633 
0.02157630 0.04458065 0.00127343 0.00201532 0.00858522 0.00207709 0.00707676 0.00921684 0.06769941 0.01981263 0.03062708 0.00238186 0.02656659 0.15511523 0.03269541 0.05023242 
0.02155579 0.04473503 0.00119928 0.00198733 0.00851519 0.00202641 0.00696737 0.00930348 0.06786911 0.01965844 0.03072785 0.00239177 0.02650795 0.15586798 0.03298412 0.05080299 
0.02154357 0.04490481 0.00114119 0.00196382 0.00843465 0.00197945 0.00685221 0.00939636 0.06808272 0.01948935 0.03086802 0.00240127 0.02648342 0.15659328 0.03326444 0.05132594 
0.02153965 0.04508722 0.00109874 0.00194474 0.00834368 0.00193629 0.00673167 0.00949483 0.06834135 0.01930617 0.03104862 0.00241029 0.02649221 0.15728732 0.03353499 0.05179941 
0.02154401 0.04527947 0.00107143 0.00193002 0.00824238 0.00189694 0.00660616 0.00959821 0.06864604 0.01910980 0.03127055 0.00241879 0.02653327 0.15794633 0.03379443 0.05222171 
0.02155655 0.04547872 0.00105871 0.00191959 0.00813096 0.00186142 0.00647615 0.00970582 0.06899783 0.01890117 0.03153456 0.00242672 0.02660534 0.15856658 0.03404144 0.05259143 
0.02157716 0.04568212 0.00105997 0.00191333 0.00800964 0.00182973 0.00634212 0.00981695 0.06939773 0.01868125 0.03184122 0.00243402 0.02670691 0.15914437 0.03427475 0.05290738 
0.02160566 0.04588687 0.00107457 0.00191112 0.00787872 0.00180185 0.00620459 0.00993092 0.06984668 0.01845107 0.03219096 0.00244066 0.02683626 0.15967608 0.03449310 0.05316864 
0.02164186 0.04609018 0.00110181 0.00191283 0.00773855 0.00177774 0.00606409 0.01004701 0.07034556 0.01821168 0.03258402 0.00244659 0.02699148 0.16015816 0.03469532 0.05337456 
0.02168550 0.04628935 0.00114094 0.00191831 0.00758954 0.00175735 0.00592120 0.01016454 0.07089520 0.01796419 0.03302047 0.00245177 0.02717046 0.16058714 0.03488024 0.05352476 
0.02173629 0.04648174 0.00119121 0.00192739 0.00743213 0.00174062 0.00577651 0.01028283 0.07149630 0.01770971 0.03350019 0.00245617 0.02737091 0.16095965 0.03504677 0.05361913 
0.02179390 0.04666484 0.00125182 0.00193990 0.00726684 0.00172748 0.00563064 0.01040122 0.07214947 0.01744940 0.03402289 0.00245976 0.02759039 0.16127240 0.03519387 0.05365789 
0.02185798 0.04683625 0.00132194 0.00195564 0.00709424 0.00171782 0.00548423 0.01051906 0.07285520 0.01718440 0.03458808 0.00246251 0.02782633 0.16152226 0.03532055 0.05364151 
0.02192812 0.04699369 0.00140076 0.00197443 0.00691493 0.00171155 0.00533794 0.01063575 0.07361384 0.01691590 0.03519506 0.00246439 0.02807601 0.16170619 0.03542590 0.05357080 
0.02200391 0.04713508 0.00148742 0.00199606 0.00672959 0.00170855 0.00519242 0.01075069 0.07442558 0.01664508 0.03584297 0.00246539 0.02833661 0.16182131 0.03550905 0.05344687 
0.02208489 0.04725848 0.00158109 0.00202031 0.00653891 0.00170870 0.00504838 0.01086333 0.07529045 0.01637312 0.03653072 0.00246548 0.02860525 0.16186490 0.03556923 0.05327112 
0.02217061 0.04736215 0.00168090 0.00204698 0.00634365 0.00171187 0.00490649 0.01097316 0.07620829 0.01610119 0.03725705 0.00246466 0.02887895 0.16183439 0.03560571 0.05304527 
0.02226057 0.04744454 0.00178602 0.00207584 0.00614461 0.00171792 0.00476747 0.01107969 0.07717874 0.01583046 0.03802050 0.00246292 0.02915470 0.16172738 0.03561786 0.05277135 
0.02235426 0.04750431 0.00189562 0.00210667 0.00594259 0.00172670 0.00463201 0.01118250 0.07820124 0.01556207 0.03881939 0.00246025 0.02942946 0.16154170 0.03560512 0.05245168 
0.02245118 0.04754034 0.00200887 0.00213925 0.00573848 0.00173805 0.00450081 0.01128119 0.07927500 0.01529714 0.03965188 0.00245667 0.02970019 0.16127534 0.03556699 0.05208888 
0.02255080 0.04755174 0.00212499 0.00217335 0.00553316 0.00175183 0.00437458 0.01137543 0.08039901 0.01503676 0.04051594 0.00245216 0.02996386 0.16092654 0.03550308 0.05168588 
0.02265260 0.04753783 0.00224319 0.00220877 0.00532755 0.00176786 0.00425401 0.01146492 0.08157201 0.01478198 0.04140933 0.00244675 0.03021748 0.16049375 0.03541308 0.05124587 
0.02275607 0.04749819 0.00236274 0.00224527 0.00512259 0.00178599 0.00413977 0.01154941 0.08279248 0.01453382 0.04232967 0.00244044 0.03045812 0.15997566 0.03529674 0.05077231 
0.02286068 0.04743262 0.00248293 0.00228264 0.00491922 0.00180603 0.00403253 0.01162871 0.08405865 0.01429324 0.04327437 0.00243326 0.03068290 0.15937125 0.03515394 0.05026893 
0.02296594 0.04734115 0.00260306 0.00232067 0.00471843 0.00182783 0.00393293 0.01170269 0.08536850 0.01406116 0.04424071 0.00242523 0.03088907 0.15867973 0.03498462 0.04973968 
0.02307134 0.04722404 0.00272251 0.00235916 0.00452117 0.00185121 0.00384161 0.01177125 0.08671973 0.01383842 0.04522579 0.00241638 0.03107397 0.15790062 0.03478883 0.04918876 
0.02317641 0.04708179 0.00284068 0.00239790 0.00432844 0.00187599 0.00375915 0.01183435 0.08810977 0.01362583 0.04622657 0.00240674 0.03123509 0.15703371 0.03456668 0.04862055 
0.02328071 0.04691512 0.00295702 0.00243671 0.00414120 0.00190202 0.00368613 0.01189201 0.08953581 0.01342410 0.04723989 0.00239635 0.03137006 0.15607913 0.03431843 0.04803962 
0.02338379 0.04672496 0.00307101 0.00247540 0.00396041 0.00192911 0.00362308 0.01194429 0.09099474 0.01323390 0.04826243 0.00238524 0.03147667 0.15503731 0.03404438 0.04745072 
0.02348526 0.04651246 0.00318220 0.00251380 0.00378703 0.00195711 0.00357050 0.01199130 0.09248322 0.01305579 0.04929079 0.00237347 0.03155291 0.15390899 0.03374495 0.04685870 
0.02358473 0.04627895 0.00329018 0.00255173 0.00362199 0.00198584 0.00352884 0.01203319 0.09399764 0.01289029 0.05032145 0.00236107 0.03159695 0.15269528 0.03342067 0.04626855 
0.02368187 0.04602595 0.00339459 0.00258905 0.00346620 0.00201514 0.00349853 0.01207016 0.09553416 0.01273782 0.05135082 0.00234810 0.03160718 0.15139762 0.03307213 0.04568532 
0.02377636 0.04575516 0.00349511 0.00262559 0.00332053 0.00204486 0.00347993 0.01210245 0.09708869 0.01259872 0.05237520 0.00233461 0.03158219 0.15001781 0.03270004 0.04511412 
0.02386793 0.04546843 0.00359149 0.00266123 0.00318583 0.00207483 0.00347335 0.01213035 0.09865691 0.01247324 0.05339087 0.00232065 0.03152083 0.14855801 0.03230520 0.04456009 
0.02395634 0.04516777 0.00368352 0.00269584 0.00306290 0.00210491 0.00347908 0.01215416 0.10023432 0.01236156 0.05439406 0.00230630 0.03142218 0.14702073 0.03188849 0.04402835 
0.02404139 0.04485528 0.00377104 0.00272929 0.00295250 0.00213496 0.00349731 0.01217423 0.10181621 0.01226377 0.05538095 0.00229159 0.03128556 0.14540886 0.03145091 0.04352397 
0.02412290 0.04453322 0.00385395 0.00276147 0.00285533 0.00216482 0.00352820 0.01219093 0.10339768 0.01217985 0.05634773 0.00227661 0.03111054 0.14372566 0.03099351 0.04305197 
0.02420077 0.04420389 0.00393217 0.00279230 0.00277204 0.00219436 0.00357187 0.01220468 0.10497370 0.01210973 0.05729058 0.00226142 0.03089698 0.14197476 0.03051745 0.04261723 
0.02427488 0.04386970 0.00400571 0.00282168 0.00270323 0.00222346 0.00362833 0.01221588 0.10653907 0.01205322 0.05820573 0.00224607 0.03064496 0.14016012 0.03002398 0.04222451 
0.02434520 0.04353311 0.00407459 0.00284952 0.00264943 0.00225198 0.00369758 0.01222497 0.10808851 0.01201009 0.05908941 0.00223064 0.03035485 0.13828611 0.02951441 0.04187841 
0.02441169 0.04319660 0.00413889 0.00287578 0.00261109 0.00227981 0.00377954 0.01223240 0.10961663 0.01197999 0.05993794 0.00221520 0.03002728 0.13635741 0.02899014 0.04158328 
0.02447439 0.04286268 0.00419871 0.00290037 0.00258862 0.00230683 0.00387405 0.01223864 0.11111795 0.01196250 0.06074769 0.00219980 0.02966313 0.13437906 0.02845264 0.04134326 
0.02453331 0.04253385 0.00425423 0.00292326 0.00258233 0.00233294 0.00398091 0.01224414 0.11258699 0.01195714 0.06151515 0.00218453 0.02926355 0.13235642 0.02790345 0.04116222 
0.02458856 0.04221261 0.00430563 0.00294439 0.00259245 0.00235802 0.00409986 0.01224936 0.11401819 0.01196334 0.06223688 0.00216945 0.02882993 0.13029517 0.02734416 0.04104373 
0.02464021 0.04190138 0.00435313 0.00296374 0.00261916 0.00238200 0.00423056 0.01225476 0.11540606 0.01198046 0.06290960 0.00215462 0.02836393 0.12820127 0.02677643 0.04099100 
0.02468839 0.04160257 0.00439698 0.00298129 0.00266253 0.00240477 0.00437263 0.01226079 0.11674510 0.01200782 0.06353015 0.00214012 0.02786740 0.12608100 0.02620198 0.04100693 
0.02473325 0.04131848 0.00443748 0.00299700 0.00272256 0.00242625 0.00452563 0.01226789 0.11802987 0.01204465 0.06409553 0.00212600 0.02734248 0.12394084 0.02562254 0.04109399 
0.02477494 0.04105133 0.00447491 0.00301087 0.00279917 0.00244637 0.00468904 0.01227646 0.11925502 0.01209015 0.06460292 0.00211233 0.02679147 0.12178754 0.02503991 0.04125427 
0.02481363 0.04080323 0.00450961 0.00302290 0.00289219 0.00246505 0.00486232 0.01228691 0.12041533 0.01214345 0.06504967 0.00209917 0.02621691 0.11962803 0.02445592 0.04148942 
0.02484949 0.04057617 0.00454191 0.00303308 0.00300137 0.00248224 0.00504485 0.01229962 0.12150567 0.01220364 0.06543335 0.00208659 0.02562152 0.11746945 0.02387241 0.04180066 
0.02488272 0.04037201 0.00457217 0.00304143 0.00312637 0.00249786 0.00523597 0.01231491 0.12252111 0.01226980 0.06575174 0.00207462 0.02500819 0.11531904 0.02329123 0.04218872 
0.02491348 0.04019245 0.00460075 0.00304795 0.00326676 0.00251188 0.00543500 0.01233311 0.12345688 0.01234095 0.06600282 0.00206334 0.02437999 0.11318418 0.02271426 0.04265386 
0.02494196 0.04003902 0.00462802 0.00305266 0.00342207 0.00252424 0.00564117 0.01235449 0.12430844 0.01241609 0.06618484 0.00205278 0.02374010 0.11107233 0.02214337 0.04319586 
0.02496832 0.03991310 0.00465435 0.00305559 0.00359169 0.00253490 0.00585370 0.01237929 0.12507144 0.01249420 0.06629628 0.00204300 0.02309185 0.10899097 0.02158041 0.04381400 
0.02499272 0.03981587 0.00468011 0.00305676 0.00377499 0.00254383 0.00607179 0.01240772 0.12574182 0.01257427 0.06633586 0.00203404 0.02243868 0.10694762 0.02102722 0.04450704 
0.02501529 0.03974834 0.00470568 0.00305620 0.00397122 0.00255101 0.00629459 0.01243993 0.12631578 0.01265526 0.06630260 0.00202594 0.02178409 0.10494973 0.02048563 0.04527327 
