0.14753568 0.02123776 0.00367055 0.00202428 0.00128947 0.00112752 0.00510797 0.00410239 0.03447465 0.00138122 0.00218817 0.04268353 0.00231366 0.00232081 0.00421361 0.00124131 
0.14931007 0.02112344 0.00388355 0.00201800 0.00124539 0.00113189 0.00516092 0.00408581 0.03477493 0.00137819 0.00215673 0.04292741 0.00235864 0.00234483 0.00426327 0.00124180 
0.15086795 0.02100285 0.00414009 0.00201139 0.00120278 0.00113819 0.00522044 0.00406723 0.03503998 0.00137798 0.00212456 0.04315837 0.00240962 0.00237119 0.00431399 0.00124242 
0.15220254 0.02087619 0.00443889 0.00200464 0.00116179 0.00114642 0.00528643 0.00404670 0.03526878 0.00138062 0.00209176 0.04337560 0.00246665 0.00239989 0.00436570 0.00124316 
0.15330801 0.02074374 0.00477845 0.00199796 0.00112257 0.00115655 0.00535877 0.00402431 0.03546043 0.00138615 0.00205847 0.04357830 0.00252973 0.00243093 0.00441832 0.00124400 
0.15417950 0.02060593 0.00515709 0.00199158 0.00108527 0.00116855 0.00543728 0.00400013 0.03561415 0.00139459 0.00202480 0.04376558 0.00259884 0.00246428 0.00447178 0.00124493 
0.15481316 0.02046332 0.00557295 0.00198570 0.00105002 0.00118239 0.00552176 0.00397424 0.03572933 0.00140592 0.00199086 0.04393658 0.00267393 0.00249993 0.00452599 0.00124596 
0.15520620 0.02031658 0.00602400 0.00198058 0.00101695 0.00119801 0.00561196 0.00394672 0.03580548 0.00142013 0.00195677 0.04409036 0.00275489 0.00253786 0.00458087 0.00124705 
0.15535688 0.02016651 0.00650805 0.00197643 0.00098616 0.00121535 0.00570759 0.00391766 0.03584225 0.00143718 0.00192264 0.04422599 0.00284160 0.00257803 0.00463631 0.00124822 
0.15526453 0.02001403 0.00702275 0.00197350 0.00095778 0.00123434 0.00580834 0.00388715 0.03583945 0.00145700 0.00188858 0.04434250 0.00293389 0.00262042 0.00469223 0.00124944 
0.15492961 0.01986019 0.00756564 0.00197203 0.00093188 0.00125488 0.00591385 0.00385526 0.03579706 0.00147952 0.00185468 0.04443893 0.00303156 0.00266497 0.00474853 0.00125070 
0.15435365 0.01970615 0.00813411 0.00197224 0.00090856 0.00127690 0.00602372 0.00382208 0.03571517 0.00150464 0.00182106 0.04451429 0.00313439 0.00271164 0.00480510 0.00125199 
0.15353932 0.01955320 0.00872544 0.00197439 0.00088788 0.00130029 0.00613755 0.00378771 0.03559406 0.00153225 0.00178780 0.04456760 0.00324209 0.00276038 0.00486184 0.00125331 
0.15249036 0.01940272 0.00933682 0.00197869 0.00086991 0.00132494 0.00625488 0.00375222 0.03543415 0.00156223 0.00175499 0.04459789 0.00335438 0.00281113 0.00491866 0.00125464 
0.15121159 0.01925620 0.00996535 0.00198537 0.00085470 0.00135073 0.00637523 0.00371569 0.03523600 0.00159443 0.00172272 0.04460418 0.00347093 0.00286383 0.00497544 0.00125597 
0.14970891 0.01911523 0.01060807 0.00199465 0.00084229 0.00137754 0.00649812 0.00367821 0.03500035 0.00162868 0.00169107 0.04458553 0.00359136 0.00291842 0.00503209 0.00125729 
0.14798927 0.01898148 0.01126194 0.00200674 0.00083270 0.00140523 0.00662301 0.00363986 0.03472807 0.00166483 0.00166011 0.04454101 0.00371530 0.00297481 0.00508849 0.00125860 
0.14606059 0.01885670 0.01192390 0.00202182 0.00082595 0.00143367 0.00674938 0.00360072 0.03442016 0.00170267 0.00162992 0.04446973 0.00384233 0.00303295 0.00514454 0.00125989 
0.14393181 0.01874273 0.01259085 0.00204008 0.00082205 0.00146272 0.00687667 0.00356085 0.03407780 0.00174202 0.00160057 0.04437084 0.00397202 0.00309273 0.00520015 0.00126114 
0.14161277 0.01864143 0.01325969 0.00206169 0.00082100 0.00149222 0.00700433 0.00352035 0.03370227 0.00178266 0.00157210 0.04424353 0.00410389 0.00315408 0.00525520 0.00126235 
0.13911419 0.01855474 0.01392731 0.00208680 0.00082277 0.00152204 0.00713177 0.00347926 0.03329499 0.00182438 0.00154459 0.04408706 0.00423748 0.00321692 0.00530960 0.00126351 
0.13644763 0.01848462 0.01459061 0.00211554 0.00082733 0.00155201 0.00725842 0.00343768 0.03285752 0.00186696 0.00151807 0.04390073 0.00437229 0.00328114 0.00536324 0.00126462 
0.13362540 0.01843307 0.01524656 0.00214804 0.00083466 0.00158199 0.00738370 0.00339565 0.03239152 0.00191015 0.00149259 0.04368395 0.00450781 0.00334666 0.00541604 0.00126568 
0.13066054 0.01840209 0.01589213 0.00218437 0.00084470 0.00161182 0.00750703 0.00335325 0.03189877 0.00195373 0.00146819 0.04343617 0.00464351 0.00341337 0.00546789 0.00126667 
0.12756671 0.01839367 0.01652437 0.00222462 0.00085740 0.00164135 0.00762784 0.00331054 0.03138113 0.00199746 0.00144492 0.04315695 0.00477887 0.00348117 0.00551870 0.00126760 
0.12435814 0.01840981 0.01714040 0.00226884 0.00087269 0.00167042 0.00774556 0.00326758 0.03084057 0.00204110 0.00142279 0.04284593 0.00491335 0.00354995 0.00556839 0.00126846 
0.12104955 0.01845247 0.01773744 0.00231706 0.00089049 0.00169889 0.00785963 0.00322442 0.03027915 0.00208439 0.00140184 0.04250287 0.00504642 0.00361962 0.00561686 0.00126925 
0.11765609 0.01852357 0.01831279 0.00236928 0.00091071 0.00172661 0.00796951 0.00318112 0.02969898 0.00212711 0.00138209 0.04212762 0.00517753 0.00369005 0.00566405 0.00126997 
0.11419322 0.01862498 0.01886386 0.00242549 0.00093328 0.00175344 0.00807467 0.00313775 0.02910226 0.00216901 0.00136356 0.04172017 0.00530616 0.00376114 0.00570986 0.00127063 
0.11067667 0.01875849 0.01938821 0.00248563 0.00095807 0.00177924 0.00817461 0.00309435 0.02849121 0.00220987 0.00134625 0.04128061 0.00543178 0.00383278 0.00575422 0.00127121 
0.10712233 0.01892584 0.01988349 0.00254964 0.00098499 0.00180389 0.00826883 0.00305097 0.02786811 0.00224945 0.00133017 0.04080918 0.00555388 0.00390485 0.00579707 0.00127173 
0.10354618 0.01912865 0.02034753 0.00261743 0.00101392 0.00182725 0.00835689 0.00300768 0.02723527 0.00228754 0.00131535 0.04030623 0.00567195 0.00397724 0.00583834 0.00127218 
0.09996421 0.01936845 0.02077830 0.00268886 0.00104473 0.00184923 0.00843835 0.00296453 0.02659502 0.00232392 0.00130176 0.03977228 0.00578550 0.00404982 0.00587796 0.00127257 
0.09639229 0.01964666 0.02117392 0.00276381 0.00107730 0.00186970 0.00851281 0.00292158 0.02594970 0.00235840 0.00128942 0.03920798 0.00589408 0.00412249 0.00591587 0.00127291 
0.09284616 0.01996455 0.02153270 0.00284208 0.00111149 0.00188857 0.00857991 0.00287888 0.02530164 0.00239079 0.00127832 0.03861412 0.00599724 0.00419513 0.00595203 0.00127319 
0.08934128 0.02032327 0.02185310 0.00292350 0.00114715 0.00190576 0.00863929 0.00283650 0.02465316 0.00242091 0.00126845 0.03799165 0.00609454 0.00426762 0.00598639 0.00127343 
0.08589279 0.02072383 0.02213378 0.00300783 0.00118416 0.00192118 0.00869068 0.00279450 0.02400656 0.00244861 0.00125979 0.03734169 0.00618561 0.00433984 0.00601890 0.00127364 
0.08251542 0.02116707 0.02237358 0.00309484 0.00122235 0.00193478 0.00873380 0.00275294 0.02336409 0.00247374 0.00125234 0.03666549 0.00627008 0.00441169 0.00604952 0.00127381 
0.07922339 0.02165366 0.02257154 0.00318426 0.00126159 0.00194650 0.00876845 0.00271190 0.02272797 0.00249617 0.00124608 0.03596448 0.00634761 0.00448305 0.00607823 0.00127396 
0.07603038 0.02218410 0.02272686 0.00327581 0.00130170 0.00195630 0.00879444 0.00267144 0.02210037 0.00251580 0.00124098 0.03524023 0.00641791 0.00455381 0.00610499 0.00127410 
0.07294941 0.02275874 0.02283898 0.00336916 0.00134254 0.00196415 0.00881163 0.00263166 0.02148338 0.00253252 0.00123703 0.03449448 0.00648070 0.00462385 0.00612979 0.00127423 
0.06999282 0.02337769 0.02290750 0.00346400 0.00138395 0.00197003 0.00881993 0.00259262 0.02087903 0.00254626 0.00123420 0.03372912 0.00653577 0.00469308 0.00615261 0.00127436 
0.06717218 0.02404093 0.02293224 0.00355999 0.00142576 0.00197395 0.00881929 0.00255443 0.02028925 0.00255698 0.00123246 0.03294619 0.00658292 0.00476138 0.00617343 0.00127451 
0.06449824 0.02474820 0.02291320 0.00365676 0.00146783 0.00197590 0.00880970 0.00251716 0.01971589 0.00256464 0.00123178 0.03214789 0.00662201 0.00482865 0.00619225 0.00127468 
0.06198087 0.02549908 0.02285059 0.00375394 0.00150999 0.00197592 0.00879121 0.00248094 0.01916070 0.00256921 0.00123213 0.03133657 0.00665291 0.00489480 0.00620907 0.00127488 
0.05962904 0.02629292 0.02274480 0.00385114 0.00155207 0.00197404 0.00876388 0.00244585 0.01862534 0.00257072 0.00123347 0.03051469 0.00667557 0.00495971 0.00622389 0.00127512 
0.05745073 0.02712890 0.02259641 0.00394797 0.00159394 0.00197030 0.00872786 0.00241201 0.01811134 0.00256918 0.00123578 0.02968487 0.00668995 0.00502331 0.00623673 0.00127542 
0.05545294 0.02800598 0.02240618 0.00404401 0.00163542 0.00196478 0.00868330 0.00237955 0.01762011 0.00256464 0.00123900 0.02884986 0.00669606 0.00508549 0.00624761 0.00127578 
0.05364165 0.02892295 0.02217508 0.00413887 0.00167638 0.00195754 0.00863042 0.00234857 0.01715296 0.00255717 0.00124310 0.02801252 0.00669396 0.00514618 0.00625653 0.00127622 
0.05202179 0.02987840 0.02190421 0.00423211 0.00171665 0.00194866 0.00856947 0.00231923 0.01671106 0.00254686 0.00124803 0.02717582 0.00668373 0.00520528 0.00626354 0.00127673 
0.05059719 0.03087071 0.02159487 0.00432333 0.00175610 0.00193825 0.00850075 0.00229165 0.01629545 0.00253381 0.00125375 0.02634284 0.00666551 0.00526271 0.00626866 0.00127734 
0.04937065 0.03189811 0.02124850 0.00441209 0.00179459 0.00192641 0.00842459 0.00226597 0.01590704 0.00251814 0.00126021 0.02551673 0.00663946 0.00531840 0.00627192 0.00127805 
0.04834385 0.03295863 0.02086670 0.00449800 0.00183197 0.00191326 0.00834136 0.00224234 0.01554661 0.00250000 0.00126737 0.02470074 0.00660580 0.00537228 0.00627338 0.00127886 
0.04751740 0.03405014 0.02045121 0.00458063 0.00186813 0.00189892 0.00825146 0.00222092 0.01521480 0.00247955 0.00127516 0.02389818 0.00656476 0.00542426 0.00627307 0.00127980 
0.04689083 0.03517035 0.02000393 0.00465959 0.00190293 0.00188353 0.00815534 0.00220186 0.01491212 0.00245696 0.00128355 0.02311242 0.00651662 0.00547430 0.00627106 0.00128085 
0.04646263 0.03631679 0.01952684 0.00473448 0.00193626 0.00186723 0.00805348 0.00218532 0.01463894 0.00243242 0.00129246 0.02234686 0.00646169 0.00552232 0.00626738 0.00128204 
0.04623022 0.03748689 0.01902207 0.00480491 0.00196800 0.00185018 0.00794636 0.00217147 0.01439550 0.00240613 0.00130185 0.02160494 0.00640030 0.00556826 0.00626210 0.00128337 
0.04619003 0.03867791 0.01849184 0.00487052 0.00199807 0.00183252 0.00783453 0.00216046 0.01418189 0.00237832 0.00131166 0.02089010 0.00633282 0.00561207 0.00625529 0.00128484 
0.04633748 0.03988700 0.01793847 0.00493095 0.00202635 0.00181443 0.00771854 0.00215247 0.01399809 0.00234919 0.00132182 0.02020579 0.00625963 0.00565369 0.00624702 0.00128646 
0.04666706 0.04111119 0.01736437 0.00498588 0.00205277 0.00179606 0.00759897 0.00214766 0.01384394 0.00231900 0.00133228 0.01955544 0.00618117 0.00569308 0.00623734 0.00128822 
0.04717235 0.04234743 0.01677199 0.00503500 0.00207725 0.00177758 0.00747640 0.00214619 0.01371915 0.00228798 0.00134297 0.01894245 0.00609785 0.00573019 0.00622633 0.00129015 
0.04784608 0.04359257 0.01616388 0.00507800 0.00209971 0.00175916 0.00735146 0.00214823 0.01362332 0.00225638 0.00135383 0.01837017 0.00601013 0.00576497 0.00621408 0.00129223 
0.04868013 0.04484337 0.01554262 0.00511463 0.00212010 0.00174098 0.00722477 0.00215394 0.01355593 0.00222446 0.00136479 0.01784188 0.00591847 0.00579739 0.00620064 0.00129446 
0.04966568 0.04609657 0.01491082 0.00514466 0.00213836 0.00172320 0.00709698 0.00216347 0.01351635 0.00219247 0.00137578 0.01736079 0.00582335 0.00582741 0.00618611 0.00129686 
0.05079317 0.04734882 0.01427113 0.00516787 0.00215446 0.00170599 0.00696871 0.00217698 0.01350383 0.00216067 0.00138675 0.01693003 0.00572526 0.00585499 0.00617056 0.00129941 
0.05205243 0.04859676 0.01362620 0.00518408 0.00216835 0.00168953 0.00684063 0.00219459 0.01351752 0.00212933 0.00139762 0.01655258 0.00562469 0.00588011 0.00615407 0.00130212 
0.05343270 0.04983702 0.01297870 0.00519315 0.00218003 0.00167397 0.00671337 0.00221645 0.01355649 0.00209869 0.00140832 0.01623132 0.00552213 0.00590272 0.00613673 0.00130498 
0.05492274 0.05106620 0.01233126 0.00519497 0.00218947 0.00165947 0.00658760 0.00224267 0.01361971 0.00206901 0.00141879 0.01596900 0.00541807 0.00592281 0.00611860 0.00130799 
0.05651085 0.05228092 0.01168654 0.00518945 0.00219668 0.00164618 0.00646395 0.00227337 0.01370606 0.00204053 0.00142895 0.01576819 0.00531302 0.00594035 0.00609978 0.00131114 
0.05818497 0.05347783 0.01104710 0.00517655 0.00220165 0.00163426 0.00634306 0.00230864 0.01381437 0.00201350 0.00143876 0.01563131 0.00520745 0.00595531 0.00608034 0.00131443 
0.05993278 0.05465361 0.01041553 0.00515627 0.00220442 0.00162384 0.00622555 0.00234856 0.01394336 0.00198814 0.00144812 0.01556057 0.00510185 0.00596768 0.00606036 0.00131786 
0.06174169 0.05580499 0.00979431 0.00512863 0.00220499 0.00161506 0.00611203 0.00239320 0.01409172 0.00196468 0.00145700 0.01555802 0.00499668 0.00597744 0.00603992 0.00132140 
0.06359899 0.05692877 0.00918588 0.00509370 0.00220342 0.00160803 0.00600309 0.00244262 0.01425808 0.00194331 0.00146531 0.01562546 0.00489239 0.00598457 0.00601908 0.00132507 
0.06549190 0.05802182 0.00859262 0.00505158 0.00219973 0.00160287 0.00589930 0.00249683 0.01444102 0.00192425 0.00147300 0.01576451 0.00478942 0.00598906 0.00599792 0.00132884 
0.06740763 0.05908110 0.00801681 0.00500242 0.00219399 0.00159968 0.00580121 0.00255585 0.01463907 0.00190766 0.00148002 0.01597653 0.00468819 0.00599089 0.00597650 0.00133271 
0.06933343 0.06010366 0.00746065 0.00494639 0.00218626 0.00159855 0.00570934 0.00261967 0.01485073 0.00189372 0.00148631 0.01626264 0.00458910 0.00599006 0.00595489 0.00133666 
0.07125674 0.06108669 0.00692623 0.00488371 0.00217661 0.00159956 0.00562418 0.00268825 0.01507450 0.00188257 0.00149181 0.01662372 0.00449253 0.00598655 0.00593314 0.00134069 
0.07316516 0.06202747 0.00641554 0.00481463 0.00216510 0.00160276 0.00554620 0.00276154 0.01530882 0.00187434 0.00149647 0.01706038 0.00439884 0.00598037 0.00591132 0.00134477 
0.07504658 0.06292344 0.00593047 0.00473944 0.00215184 0.00160823 0.00547582 0.00283945 0.01555216 0.00186914 0.00150026 0.01757298 0.00430835 0.00597150 0.00588946 0.00134891 
0.07688922 0.06377216 0.00547277 0.00465847 0.00213691 0.00161598 0.00541343 0.00292189 0.01580295 0.00186707 0.00150313 0.01816158 0.00422137 0.00595996 0.00586763 0.00135308 
0.07868169 0.06457136 0.00504408 0.00457207 0.00212040 0.00162606 0.00535940 0.00300871 0.01605964 0.00186819 0.00150505 0.01882598 0.00413818 0.00594574 0.00584585 0.00135727 
0.08041305 0.06531892 0.00464590 0.00448062 0.00210243 0.00163847 0.00531404 0.00309977 0.01632070 0.00187256 0.00150599 0.01956571 0.00405904 0.00592885 0.00582415 0.00136147 
0.08207287 0.06601288 0.00427960 0.00438456 0.00208310 0.00165322 0.00527763 0.00319487 0.01658459 0.00188020 0.00150592 0.02037999 0.00398415 0.00590929 0.00580258 0.00136566 
0.08365127 0.06665147 0.00394640 0.00428432 0.00206252 0.00167028 0.00525040 0.00329382 0.01684982 0.00189113 0.00150482 0.02126776 0.00391373 0.00588709 0.00578115 0.00136982 
0.08513897 0.06723308 0.00364740 0.00418038 0.00204081 0.00168962 0.00523253 0.00339637 0.01711490 0.00190533 0.00150269 0.02222770 0.00384793 0.00586225 0.00575988 0.00137394 
0.08652732 0.06775630 0.00338352 0.00407324 0.00201810 0.00171121 0.00522418 0.00350226 0.01737840 0.00192276 0.00149951 0.02325817 0.00378689 0.00583479 0.00573877 0.00137800 
0.08780838 0.06821989 0.00315557 0.00396344 0.00199450 0.00173499 0.00522545 0.00361120 0.01763892 0.00194337 0.00149528 0.02435728 0.00373073 0.00580475 0.00571784 0.00138200 
0.08897489 0.06862281 0.00296418 0.00385149 0.00197015 0.00176088 0.00523640 0.00372289 0.01789509 0.00196709 0.00149002 0.02552282 0.00367953 0.00577214 0.00569708 0.00138590 
0.09002036 0.06896421 0.00280983 0.00373798 0.00194517 0.00178882 0.00525702 0.00383698 0.01814562 0.00199381 0.00148374 0.02675235 0.00363334 0.00573700 0.00567649 0.00138970 
0.09093904 0.06924343 0.00269289 0.00362347 0.00191969 0.00181869 0.00528729 0.00395311 0.01838925 0.00202341 0.00147647 0.02804314 0.00359221 0.00569937 0.00565605 0.00139338 
0.09172600 0.06946002 0.00261352 0.00350855 0.00189385 0.00185041 0.00532712 0.00407091 0.01862479 0.00205577 0.00146823 0.02939219 0.00355614 0.00565930 0.00563574 0.00139692 
0.09237707 0.06961370 0.00257177 0.00339382 0.00186776 0.00188385 0.00537639 0.00418996 0.01885112 0.00209072 0.00145905 0.03079625 0.00352511 0.00561682 0.00561554 0.00140031 
0.09288894 0.06970439 0.00256753 0.00327987 0.00184157 0.00191889 0.00543492 0.00430985 0.01906718 0.00212810 0.00144900 0.03225185 0.00349910 0.00557199 0.00559543 0.00140353 
0.09325908 0.06973222 0.00260055 0.00316732 0.00181539 0.00195538 0.00550250 0.00443013 0.01927197 0.00216771 0.00143811 0.03375526 0.00347804 0.00552487 0.00557537 0.00140657 
0.09348579 0.06969747 0.00267042 0.00305677 0.00178936 0.00199320 0.00557886 0.00455035 0.01946459 0.00220935 0.00142646 0.03530254 0.00346187 0.00547553 0.00555531 0.00140942 
0.09356820 0.06960064 0.00277661 0.00294882 0.00176359 0.00203218 0.00566371 0.00467005 0.01964420 0.00225280 0.00141411 0.03688953 0.00345049 0.00542403 0.00553523 0.00141205 
0.09350624 0.06944238 0.00291844 0.00284407 0.00173820 0.00207216 0.00575670 0.00478873 0.01981005 0.00229783 0.00140113 0.03851189 0.00344381 0.00537046 0.00551508 0.00141446 
0.09330063 0.06922354 0.00309511 0.00274310 0.00171332 0.00211299 0.00585745 0.00490591 0.01996147 0.00234420 0.00138761 0.04016509 0.00344171 0.00531489 0.00549481 0.00141664 
0.09295290 0.06894513 0.00330567 0.00264648 0.00168905 0.00215449 0.00596554 0.00502109 0.02009788 0.00239166 0.00137365 0.04184444 0.00344406 0.00525741 0.00547436 0.00141857 
0.09246529 0.06860831 0.00354907 0.00255478 0.00166550 0.00219649 0.00608053 0.00513377 0.02021877 0.00243995 0.00135933 0.04354508 0.00345073 0.00519812 0.00545370 0.00142025 
0.09184084 0.06821441 0.00382412 0.00246853 0.00164277 0.00223882 0.00620192 0.00524345 0.02032373 0.00248881 0.00134476 0.04526205 0.00346159 0.00513711 0.00543277 0.00142165 
0.09108324 0.06776491 0.00412955 0.00238825 0.00162096 0.00228128 0.00632921 0.00534964 0.02041246 0.00253795 0.00133005 0.04699026 0.00347648 0.00507449 0.00541151 0.00142279 
0.09019691 0.06726141 0.00446396 0.00231444 0.00160016 0.00232372 0.00646184 0.00545182 0.02048472 0.00258713 0.00131531 0.04872452 0.00349527 0.00501037 0.00538989 0.00142364 
0.08918690 0.06670567 0.00482586 0.00224754 0.00158047 0.00236594 0.00659925 0.00554953 0.02054038 0.00263604 0.00130066 0.05045958 0.00351780 0.00494487 0.00536783 0.00142419 
0.08805884 0.06609956 0.00521366 0.00218801 0.00156194 0.00240777 0.00674086 0.00564226 0.02057939 0.00268443 0.00128623 0.05219012 0.00354392 0.00487810 0.00534531 0.00142446 
0.08681898 0.06544505 0.00562570 0.00213623 0.00154466 0.00244903 0.00688605 0.00572957 0.02060181 0.00273203 0.00127215 0.05391078 0.00357350 0.00481019 0.00532228 0.00142442 
0.08547406 0.06474425 0.00606024 0.00209259 0.00152870 0.00248956 0.00703419 0.00581101 0.02060776 0.00277855 0.00125853 0.05561620 0.00360640 0.00474128 0.00529869 0.00142408 
0.08403131 0.06399933 0.00651546 0.00205739 0.00151410 0.00252918 0.00718464 0.00588613 0.02059749 0.00282375 0.00124552 0.05730101 0.00364247 0.00467148 0.00527450 0.00142344 
0.08249841 0.06321256 0.00698949 0.00203095 0.00150093 0.00256773 0.00733676 0.00595454 0.02057130 0.00286736 0.00123324 0.05895989 0.00368160 0.00460094 0.00524970 0.00142248 
0.08088341 0.06238629 0.00748040 0.00201349 0.00148922 0.00260505 0.00748989 0.00601584 0.02052962 0.00290914 0.00122183 0.06058754 0.00372367 0.00452979 0.00522425 0.00142123 
0.07919473 0.06152293 0.00798623 0.00200524 0.00147901 0.00264100 0.00764337 0.00606969 0.02047292 0.00294885 0.00121143 0.06217875 0.00376855 0.00445818 0.00519814 0.00141967 
0.07744104 0.06062495 0.00850496 0.00200634 0.00147033 0.00267543 0.00779653 0.00611576 0.02040180 0.00298627 0.00120216 0.06372838 0.00381617 0.00438625 0.00517136 0.00141780 
0.07563127 0.05969485 0.00903457 0.00201692 0.00146320 0.00270821 0.00794871 0.00615374 0.02031690 0.00302118 0.00119415 0.06523143 0.00386641 0.00431413 0.00514390 0.00141564 
0.07377454 0.05873519 0.00957299 0.00203704 0.00145763 0.00273920 0.00809925 0.00618339 0.02021897 0.00305338 0.00118754 0.06668299 0.00391920 0.00424198 0.00511578 0.00141319 
0.07188010 0.05774854 0.01011817 0.00206672 0.00145363 0.00276831 0.00824752 0.00620448 0.02010882 0.00308270 0.00118244 0.06807836 0.00397448 0.00416992 0.00508702 0.00141045 
0.06995727 0.05673748 0.01066804 0.00210595 0.00145119 0.00279541 0.00839288 0.00621682 0.01998734 0.00310896 0.00117898 0.06941296 0.00403217 0.00409811 0.00505764 0.00140744 
0.06801542 0.05570461 0.01122054 0.00215463 0.00145031 0.00282041 0.00853469 0.00622027 0.01985547 0.00313201 0.00117726 0.07068243 0.00409223 0.00402669 0.00502769 0.00140416 
0.06606387 0.05465252 0.01177361 0.00221266 0.00145097 0.00284323 0.00867237 0.00621473 0.01971423 0.00315172 0.00117740 0.07188261 0.00415462 0.00395578 0.00499722 0.00140062 
0.06411190 0.05358379 0.01232524 0.00227986 0.00145314 0.00286380 0.00880532 0.00620013 0.01956470 0.00316799 0.00117950 0.07300959 0.00421931 0.00388553 0.00496631 0.00139683 
0.06216864 0.05250099 0.01287344 0.00235602 0.00145680 0.00288205 0.00893298 0.00617646 0.01940801 0.00318070 0.00118364 0.07405969 0.00428627 0.00381606 0.00493503 0.00139281 
0.06024307 0.05140663 0.01341624 0.00244087 0.00146191 0.00289794 0.00905482 0.00614375 0.01924534 0.00318980 0.00118990 0.07502949 0.00435549 0.00374750 0.00490347 0.00138857 
0.05834393 0.05030321 0.01395173 0.00253410 0.00146843 0.00291142 0.00917032 0.00610208 0.01907790 0.00319522 0.00119837 0.07591587 0.00442695 0.00367997 0.00487175 0.00138412 
0.05647971 0.04919318 0.01447807 0.00263536 0.00147630 0.00292247 0.00927900 0.00605155 0.01890695 0.00319693 0.00120911 0.07671598 0.00450065 0.00361359 0.00483999 0.00137948 
0.05465859 0.04807895 0.01499345 0.00274425 0.00148548 0.00293107 0.00938043 0.00599234 0.01873378 0.00319491 0.00122216 0.07742729 0.00457659 0.00354845 0.00480833 0.00137467 
0.05288840 0.04696285 0.01549614 0.00286035 0.00149589 0.00293722 0.00947417 0.00592465 0.01855970 0.00318918 0.00123756 0.07804760 0.00465476 0.00348468 0.00477693 0.00136970 
0.05117659 0.04584715 0.01598449 0.00298317 0.00150748 0.00294093 0.00955985 0.00584874 0.01838605 0.00317975 0.00125535 0.07857502 0.00473517 0.00342234 0.00474596 0.00136459 
0.04953016 0.04473407 0.01645691 0.00311220 0.00152017 0.00294221 0.00963712 0.00576491 0.01821415 0.00316667 0.00127553 0.07900802 0.00481780 0.00336155 0.00471560 0.00135935 
0.04795569 0.04362573 0.01691192 0.00324691 0.00153388 0.00294110 0.00970568 0.00567349 0.01804537 0.00315001 0.00129812 0.07934540 0.00490267 0.00330237 0.00468605 0.00135402 
0.04645922 0.04252420 0.01734811 0.00338670 0.00154855 0.00293764 0.00976526 0.00557486 0.01788102 0.00312984 0.00132309 0.07958631 0.00498975 0.00324487 0.00465753 0.00134860 
0.04504632 0.04143145 0.01776417 0.00353099 0.00156407 0.00293187 0.00981563 0.00546944 0.01772246 0.00310628 0.00135043 0.07973030 0.00507904 0.00318913 0.00463028 0.00134312 
0.04372198 0.04034936 0.01815890 0.00367913 0.00158038 0.00292386 0.00985660 0.00535770 0.01757098 0.00307943 0.00138009 0.07977722 0.00517049 0.00313518 0.00460454 0.00133759 
0.04249063 0.03927973 0.01853118 0.00383049 0.00159736 0.00291368 0.00988802 0.00524010 0.01742787 0.00304943 0.00141202 0.07972734 0.00526408 0.00308308 0.00458056 0.00133204 
0.04135614 0.03822427 0.01888002 0.00398437 0.00161494 0.00290140 0.00990979 0.00511719 0.01729438 0.00301644 0.00144615 0.07958126 0.00535975 0.00303286 0.00455863 0.00132649 
0.04032174 0.03718460 0.01920452 0.00414011 0.00163302 0.00288710 0.00992185 0.00498951 0.01717173 0.00298061 0.00148241 0.07933995 0.00545745 0.00298454 0.00453903 0.00132096 
0.03939006 0.03616222 0.01950390 0.00429699 0.00165150 0.00287089 0.00992416 0.00485764 0.01706108 0.00294212 0.00152070 0.07900474 0.00555709 0.00293815 0.00452205 0.00131546 
0.03856313 0.03515858 0.01977750 0.00445431 0.00167027 0.00285285 0.00991674 0.00472219 0.01696354 0.00290116 0.00156090 0.07857731 0.00565858 0.00289369 0.00450800 0.00131002 
0.03784233 0.03417500 0.02002476 0.00461137 0.00168924 0.00283310 0.00989965 0.00458377 0.01688015 0.00285794 0.00160291 0.07805969 0.00576180 0.00285116 0.00449720 0.00130466 
0.03722840 0.03321271 0.02024523 0.00476744 0.00170832 0.00281173 0.00987299 0.00444304 0.01681190 0.00281266 0.00164658 0.07745424 0.00586663 0.00281055 0.00448998 0.00129939 
0.03672148 0.03227286 0.02043861 0.00492182 0.00172739 0.00278887 0.00983689 0.00430064 0.01675968 0.00276554 0.00169176 0.07676364 0.00597290 0.00277185 0.00448667 0.00129424 
0.03632106 0.03135650 0.02060467 0.00507381 0.00174636 0.00276463 0.00979151 0.00415723 0.01672431 0.00271681 0.00173831 0.07599090 0.00608045 0.00273504 0.00448760 0.00128923 
0.03602604 0.03046457 0.02074331 0.00522270 0.00176512 0.00273913 0.00973707 0.00401350 0.01670653 0.00266670 0.00178605 0.07513933 0.00618907 0.00270007 0.00449311 0.00128437 
0.03583470 0.02959796 0.02085456 0.00536783 0.00178358 0.00271249 0.00967382 0.00387012 0.01670699 0.00261544 0.00183481 0.07421251 0.00629855 0.00266691 0.00450355 0.00127968 
0.03574474 0.02875743 0.02093853 0.00550854 0.00180163 0.00268484 0.00960202 0.00372775 0.01672621 0.00256327 0.00188440 0.07321429 0.00640864 0.00263553 0.00451925 0.00127517 
0.03575329 0.02794368 0.02099546 0.00564418 0.00181919 0.00265629 0.00952198 0.00358707 0.01676465 0.00251044 0.00193461 0.07214879 0.00651908 0.00260586 0.00454055 0.00127086 
0.03585694 0.02715732 0.02102568 0.00577414 0.00183615 0.00262697 0.00943406 0.00344875 0.01682264 0.00245719 0.00198526 0.07102035 0.00662958 0.00257785 0.00456778 0.00126677 
0.03605176 0.02639888 0.02102962 0.00589783 0.00185243 0.00259701 0.00933860 0.00331342 0.01690041 0.00240374 0.00203612 0.06983352 0.00673983 0.00255144 0.00460127 0.00126291 
0.03633331 0.02566881 0.02100782 0.00601471 0.00186792 0.00256652 0.00923602 0.00318173 0.01699806 0.00235036 0.00208699 0.06859304 0.00684950 0.00252658 0.00464133 0.00125929 
0.03669670 0.02496749 0.02096089 0.00612425 0.00188256 0.00253562 0.00912672 0.00305430 0.01711560 0.00229725 0.00213765 0.06730383 0.00695824 0.00250318 0.00468827 0.00125593 
0.03713661 0.02429523 0.02088956 0.00622597 0.00189625 0.00250442 0.00901115 0.00293170 0.01725290 0.00224467 0.00218788 0.06597094 0.00706567 0.00248119 0.00474236 0.00125283 
0.03764732 0.02365227 0.02079461 0.00631943 0.00190891 0.00247305 0.00888978 0.00281451 0.01740975 0.00219283 0.00223746 0.06459955 0.00717141 0.00246053 0.00480387 0.00124999 
0.03822277 0.02303879 0.02067691 0.00640423 0.00192047 0.00244161 0.00876308 0.00270328 0.01758577 0.00214194 0.00228616 0.06319495 0.00727505 0.00244114 0.00487307 0.00124744 
0.03885655 0.02245492 0.02053739 0.00648002 0.00193086 0.00241020 0.00863156 0.00259850 0.01778051 0.00209223 0.00233376 0.06176247 0.00737618 0.00242293 0.00495015 0.00124518 
0.03954202 0.02190071 0.02037707 0.00654649 0.00194001 0.00237892 0.00849573 0.00250065 0.01799337 0.00204388 0.00238005 0.06030753 0.00747436 0.00240585 0.00503533 0.00124321 
0.04027227 0.02137618 0.02019700 0.00660338 0.00194786 0.00234787 0.00835612 0.00241017 0.01822367 0.00199709 0.00242481 0.05883555 0.00756914 0.00238982 0.00512877 0.00124153 
0.04104022 0.02088129 0.01999830 0.00665049 0.00195436 0.00231714 0.00821326 0.00232744 0.01847058 0.00195204 0.00246784 0.05735196 0.00766009 0.00237477 0.00523061 0.00124015 
0.04183865 0.02041596 0.01978211 0.00668767 0.00195945 0.00228681 0.00806770 0.00225283 0.01873320 0.00190891 0.00250892 0.05586215 0.00774674 0.00236064 0.00534093 0.00123907 
0.04266023 0.01998006 0.01954964 0.00671479 0.00196309 0.00225696 0.00791999 0.00218665 0.01901051 0.00186783 0.00254786 0.05437148 0.00782865 0.00234737 0.00545981 0.00123829 
0.04349760 0.01957344 0.01930211 0.00673183 0.00196524 0.00222766 0.00777068 0.00212916 0.01930137 0.00182897 0.00258447 0.05288522 0.00790535 0.00233490 0.00558727 0.00123780 
0.04434340 0.01919589 0.01904077 0.00673877 0.00196587 0.00219898 0.00762034 0.00208058 0.01960457 0.00179245 0.00261858 0.05140857 0.00797640 0.00232317 0.00572326 0.00123761 
0.04519029 0.01884719 0.01876689 0.00673567 0.00196494 0.00217097 0.00746951 0.00204109 0.01991882 0.00175839 0.00265002 0.04994658 0.00804134 0.00231215 0.00586774 0.00123771 
0.04603105 0.01852708 0.01848173 0.00672265 0.00196245 0.00214369 0.00731877 0.00201081 0.02024272 0.00172689 0.00267863 0.04850418 0.00809976 0.00230179 0.00602057 0.00123809 
0.04685860 0.01823526 0.01818659 0.00669985 0.00195837 0.00211719 0.00716865 0.00198981 0.02057481 0.00169805 0.00270427 0.04708614 0.00815123 0.00229205 0.00618159 0.00123876 
0.04766603 0.01797143 0.01788273 0.00666750 0.00195269 0.00209151 0.00701971 0.00197813 0.02091357 0.00167193 0.00272682 0.04569704 0.00819535 0.00228289 0.00635057 0.00123969 
0.04844667 0.01773524 0.01757142 0.00662584 0.00194541 0.00206669 0.00687248 0.00197574 0.02125740 0.00164860 0.00274615 0.04434128 0.00823173 0.00227431 0.00652724 0.00124089 
0.04919412 0.01752633 0.01725391 0.00657519 0.00193654 0.00204274 0.00672750 0.00198257 0.02160466 0.00162811 0.00276217 0.04302302 0.00826003 0.00226627 0.00671126 0.00124234 
0.04990230 0.01734433 0.01693142 0.00651591 0.00192609 0.00201970 0.00658528 0.00199850 0.02195367 0.00161049 0.00277480 0.04174620 0.00827991 0.00225877 0.00690223 0.00124403 
0.05056547 0.01718883 0.01660515 0.00644839 0.00191407 0.00199759 0.00644633 0.00202337 0.02230272 0.00159574 0.00278396 0.04051453 0.00829107 0.00225180 0.00709971 0.00124595 
0.05117832 0.01705941 0.01627627 0.00637307 0.00190051 0.00197641 0.00631114 0.00205697 0.02265005 0.00158389 0.00278962 0.03933144 0.00829326 0.00224537 0.00730318 0.00124809 
0.05173592 0.01695564 0.01594589 0.00629043 0.00188543 0.00195618 0.00618019 0.00209905 0.02299392 0.00157491 0.00279174 0.03820010 0.00828623 0.00223949 0.00751208 0.00125044 
0.05223383 0.01687706 0.01561511 0.00620100 0.00186888 0.00193690 0.00605394 0.00214930 0.02333256 0.00156878 0.00279030 0.03712342 0.00826981 0.00223417 0.00772577 0.00125297 
0.05266809 0.01682320 0.01528495 0.00610530 0.00185088 0.00191857 0.00593284 0.00220739 0.02366421 0.00156546 0.00278530 0.03610398 0.00824385 0.00222944 0.00794357 0.00125569 
0.05303527 0.01679355 0.01495638 0.00600394 0.00183149 0.00190118 0.00581730 0.00227295 0.02398714 0.00156490 0.00277677 0.03514412 0.00820824 0.00222531 0.00816472 0.00125856 
0.05333246 0.01678761 0.01463034 0.00589750 0.00181075 0.00188472 0.00570773 0.00234557 0.02429962 0.00156704 0.00276475 0.03424584 0.00816295 0.00222184 0.00838843 0.00126158 
0.05355732 0.01680484 0.01430769 0.00578662 0.00178872 0.00186919 0.00560451 0.00242480 0.02459996 0.00157179 0.00274929 0.03341087 0.00810795 0.00221906 0.00861384 0.00126474 
0.05370810 0.01684469 0.01398922 0.00567193 0.00176547 0.00185457 0.00550801 0.00251017 0.02488653 0.00157908 0.00273047 0.03264062 0.00804330 0.00221701 0.00884003 0.00126801 
0.05378363 0.01690658 0.01367569 0.00555411 0.00174104 0.00184085 0.00541855 0.00260118 0.02515773 0.00158881 0.00270837 0.03193620 0.00796910 0.00221574 0.00906604 0.00127138 
0.05378333 0.01698991 0.01336774 0.00543383 0.00171553 0.00182799 0.00533644 0.00269731 0.02541203 0.00160086 0.00268310 0.03129843 0.00788551 0.00221532 0.00929088 0.00127483 
0.05370723 0.01709404 0.01306600 0.00531175 0.00168899 0.00181600 0.00526198 0.00279800 0.02564799 0.00161512 0.00265479 0.03072784 0.00779273 0.00221579 0.00951348 0.00127835 
0.05355599 0.01721832 0.01277099 0.00518857 0.00166150 0.00180484 0.00519541 0.00290269 0.02586421 0.00163146 0.00262356 0.03022465 0.00769103 0.00221721 0.00973277 0.00128192 
0.05333085 0.01736206 0.01248318 0.00506495 0.00163314 0.00179449 0.00513699 0.00301081 0.02605941 0.00164975 0.00258958 0.02978882 0.00758073 0.00221966 0.00994762 0.00128553 
0.05303366 0.01752455 0.01220297 0.00494158 0.00160398 0.00178493 0.00508690 0.00312177 0.02623238 0.00166984 0.00255301 0.02942001 0.00746220 0.00222319 0.01015689 0.00128916 
0.05266685 0.01770504 0.01193069 0.00481912 0.00157412 0.00177613 0.00504534 0.00323498 0.02638203 0.00169160 0.00251402 0.02911764 0.00733589 0.00222787 0.01035941 0.00129279 
0.05223343 0.01790274 0.01166660 0.00469821 0.00154364 0.00176808 0.00501245 0.00334982 0.02650738 0.00171485 0.00247281 0.02888085 0.00720227 0.00223376 0.01055399 0.00129642 
0.05173697 0.01811682 0.01141088 0.00457950 0.00151261 0.00176075 0.00498836 0.00346572 0.02660753 0.00173945 0.00242957 0.02870854 0.00706188 0.00224093 0.01073944 0.00130003 
0.05118157 0.01834643 0.01116369 0.00446359 0.00148113 0.00175412 0.00497316 0.00358205 0.02668175 0.00176523 0.00238452 0.02859940 0.00691531 0.00224945 0.01091457 0.00130360 
0.05057185 0.01859067 0.01092507 0.00435107 0.00144929 0.00174818 0.00496691 0.00369825 0.02672938 0.00179202 0.00233787 0.02855188 0.00676321 0.00225938 0.01107819 0.00130712 
0.04991290 0.01884859 0.01069505 0.00424250 0.00141716 0.00174289 0.00496965 0.00381373 0.02674993 0.00181966 0.00228985 0.02856423 0.00660625 0.00227077 0.01122914 0.00131058 
0.04921028 0.01911920 0.01047357 0.00413840 0.00138484 0.00173824 0.00498140 0.00392792 0.02674301 0.00184798 0.00224068 0.02863452 0.00644518 0.00228368 0.01136626 0.00131397 
0.04846994 0.01940148 0.01026055 0.00403927 0.00135240 0.00173422 0.00500212 0.00404027 0.02670837 0.00187680 0.00219061 0.02876064 0.00628077 0.00229817 0.01148844 0.00131728 
0.04769824 0.01969436 0.01005581 0.00394556 0.00131994 0.00173081 0.00503177 0.00415026 0.02664592 0.00190597 0.00213987 0.02894032 0.00611382 0.00231428 0.01159460 0.00132049 
0.04690185 0.01999672 0.00985918 0.00385770 0.00128753 0.00172800 0.00507026 0.00425737 0.02655566 0.00193530 0.00208869 0.02917116 0.00594518 0.00233206 0.01168373 0.00132361 
0.04608774 0.02030740 0.00967041 0.00377604 0.00125525 0.00172578 0.00511750 0.00436111 0.02643776 0.00196463 0.00203732 0.02945064 0.00577573 0.00235154 0.01175486 0.00132661 
0.04526314 0.02062519 0.00948923 0.00370092 0.00122319 0.00172414 0.00517334 0.00446104 0.02629250 0.00199380 0.00198601 0.02977613 0.00560637 0.00237275 0.01180709 0.00132950 
0.04443548 0.02094887 0.00931533 0.00363263 0.00119141 0.00172307 0.00523761 0.00455673 0.02612032 0.00202265 0.00193498 0.03014489 0.00543802 0.00239572 0.01183962 0.00133228 
0.04361235 0.02127713 0.00914838 0.00357139 0.00115998 0.00172257 0.00531013 0.00464777 0.02592176 0.00205101 0.00188447 0.03055416 0.00527162 0.00242046 0.01185171 0.00133492 
0.04280144 0.02160866 0.00898800 0.00351740 0.00112898 0.00172263 0.00539067 0.00473380 0.02569751 0.00207874 0.00183471 0.03100107 0.00510812 0.00244699 0.01184274 0.00133743 
0.04201048 0.02194210 0.00883383 0.00347079 0.00109847 0.00172325 0.00547898 0.00481450 0.02544837 0.00210569 0.00178592 0.03148276 0.00494848 0.00247530 0.01181218 0.00133981 
0.04124722 0.02227607 0.00868547 0.00343165 0.00106851 0.00172444 0.00557480 0.00488957 0.02517527 0.00213173 0.00173831 0.03199632 0.00479365 0.00250538 0.01175963 0.00134205 
0.04051937 0.02260916 0.00854252 0.00340002 0.00103916 0.00172619 0.00567781 0.00495876 0.02487925 0.00215671 0.00169210 0.03253884 0.00464459 0.00253723 0.01168482 0.00134416 
0.03983451 0.02293991 0.00840456 0.00337589 0.00101047 0.00172851 0.00578770 0.00502185 0.02456145 0.00218052 0.00164749 0.03310742 0.00450223 0.00257081 0.01158758 0.00134612 
0.03920010 0.02326689 0.00827120 0.00335919 0.00098249 0.00173141 0.00590411 0.00507865 0.02422311 0.00220303 0.00160466 0.03369922 0.00436752 0.00260609 0.01146791 0.00134795 
0.03862337 0.02358862 0.00814204 0.00334981 0.00095527 0.00173488 0.00602668 0.00512902 0.02386560 0.00222414 0.00156378 0.03431138 0.00424134 0.00264303 0.01132596 0.00134963 
0.03811132 0.02390362 0.00801667 0.00334761 0.00092884 0.00173893 0.00615500 0.00517287 0.02349033 0.00224374 0.00152502 0.03494114 0.00412457 0.00268159 0.01116200 0.00135118 
0.03767062 0.02421043 0.00789473 0.00335238 0.00090325 0.00174358 0.00628865 0.00521012 0.02309883 0.00226176 0.00148853 0.03558580 0.00401807 0.00272169 0.01097650 0.00135260 
0.03730763 0.02450758 0.00777585 0.00336387 0.00087854 0.00174883 0.00642721 0.00524075 0.02269267 0.00227810 0.00145446 0.03624271 0.00392263 0.00276328 0.01077007 0.00135388 
0.03702829 0.02479362 0.00765970 0.00338179 0.00085471 0.00175468 0.00657020 0.00526476 0.02227349 0.00229270 0.00142291 0.03690935 0.00383901 0.00280628 0.01054349 0.00135504 
0.03683812 0.02506712 0.00754597 0.00340582 0.00083182 0.00176115 0.00671716 0.00528220 0.02184300 0.00230550 0.00139400 0.03758326 0.00376793 0.00285060 0.01029771 0.00135607 
0.03674214 0.02532670 0.00743437 0.00343561 0.00080987 0.00176823 0.00686759 0.00529316 0.02140294 0.00231645 0.00136781 0.03826213 0.00371005 0.00289615 0.01003386 0.00135698 
0.03674489 0.02557099 0.00732467 0.00347074 0.00078888 0.00177594 0.00702098 0.00529773 0.02095509 0.00232552 0.00134444 0.03894372 0.00366595 0.00294284 0.00975323 0.00135778 
0.03685033 0.02579871 0.00721665 0.00351078 0.00076888 0.00178428 0.00717681 0.00529607 0.02050124 0.00233267 0.00132392 0.03962596 0.00363619 0.00299055 0.00945731 0.00135846 
0.03706188 0.02600861 0.00711013 0.00355530 0.00074987 0.00179326 0.00733454 0.00528835 0.02004321 0.00233790 0.00130631 0.04030686 0.00362122 0.00303918 0.00914774 0.00135904 
0.03738233 0.02619952 0.00700499 0.00360380 0.00073186 0.00180287 0.00749363 0.00527478 0.01958283 0.00234120 0.00129164 0.04098461 0.00362144 0.00308861 0.00882633 0.00135952 
0.03781383 0.02637035 0.00690114 0.00365578 0.00071486 0.00181311 0.00765351 0.00525558 0.01912190 0.00234258 0.00127991 0.04165751 0.00363718 0.00313871 0.00849506 0.00135991 
0.03835792 0.02652010 0.00679854 0.00371072 0.00069888 0.00182399 0.00781363 0.00523100 0.01866223 0.00234205 0.00127112 0.04232401 0.00366868 0.00318937 0.00815607 0.00136021 
0.03901543 0.02664788 0.00669719 0.00376810 0.00068392 0.00183549 0.00797341 0.00520133 0.01820559 0.00233965 0.00126524 0.04298271 0.00371610 0.00324044 0.00781166 0.00136042 
0.03978654 0.02675288 0.00659713 0.00382736 0.00066997 0.00184762 0.00813227 0.00516684 0.01775372 0.00233542 0.00126224 0.04363233 0.00377952 0.00329180 0.00746427 0.00136056 
0.04067075 0.02683445 0.00649847 0.00388797 0.00065705 0.00186035 0.00828965 0.00512786 0.01730831 0.00232942 0.00126206 0.04427177 0.00385895 0.00334332 0.00711647 0.00136062 
0.04166686 0.02689203 0.00640134 0.00394938 0.00064515 0.00187367 0.00844496 0.00508470 0.01687102 0.00232169 0.00126464 0.04490003 0.00395429 0.00339485 0.00677098 0.00136062 
0.04277297 0.02692522 0.00630594 0.00401103 0.00063426 0.00188758 0.00859763 0.00503770 0.01644342 0.00231232 0.00126989 0.04551630 0.00406538 0.00344625 0.00643061 0.00136056 
0.04398653 0.02693375 0.00621249 0.00407239 0.00062440 0.00190204 0.00874708 0.00498720 0.01602702 0.00230138 0.00127772 0.04611986 0.00419195 0.00349740 0.00609830 0.00136044 
0.04530429 0.02691753 0.00612128 0.00413292 0.00061555 0.00191703 0.00889276 0.00493356 0.01562326 0.00228897 0.00128801 0.04671017 0.00433367 0.00354816 0.00577706 0.00136027 
0.04672236 0.02687659 0.00603262 0.00419210 0.00060772 0.00193253 0.00903409 0.00487713 0.01523350 0.00227519 0.00130065 0.04728679 0.00449011 0.00359839 0.00546998 0.00136005 
0.04823619 0.02681117 0.00594689 0.00424944 0.00060091 0.00194850 0.00917054 0.00481826 0.01485898 0.00226014 0.00131550 0.04784942 0.00466076 0.00364796 0.00518020 0.00135979 
0.04984063 0.02672164 0.00586446 0.00430445 0.00059513 0.00196491 0.00930157 0.00475731 0.01450089 0.00224395 0.00133242 0.04839788 0.00484503 0.00369675 0.00491093 0.00135948 
0.05152992 0.02660859 0.00578579 0.00435667 0.00059036 0.00198172 0.00942666 0.00469463 0.01416027 0.00222672 0.00135125 0.04893210 0.00504226 0.00374463 0.00466539 0.00135913 
0.05329775 0.02647276 0.00571134 0.00440566 0.00058662 0.00199888 0.00954530 0.00463056 0.01383808 0.00220860 0.00137183 0.04945213 0.00525171 0.00379148 0.00444678 0.00135875 
0.05513726 0.02631509 0.00564159 0.00445104 0.00058391 0.00201635 0.00965701 0.00456544 0.01353517 0.00218971 0.00139400 0.04995812 0.00547257 0.00383721 0.00425833 0.00135833 
0.05704110 0.02613669 0.00557707 0.00449241 0.00058225 0.00203408 0.00976133 0.00449960 0.01325227 0.00217020 0.00141758 0.05045031 0.00570397 0.00388169 0.00410322 0.00135788 
0.05900147 0.02593888 0.00551832 0.00452945 0.00058164 0.00205202 0.00985782 0.00443336 0.01298999 0.00215021 0.00144239 0.05092904 0.00594497 0.00392484 0.00398456 0.00135740 
0.06101014 0.02572316 0.00546590 0.00456184 0.00058209 0.00207010 0.00994605 0.00436701 0.01274882 0.00212988 0.00146825 0.05139471 0.00619458 0.00396657 0.00390540 0.00135688 
0.06305854 0.02549120 0.00542037 0.00458934 0.00058362 0.00208827 0.01002565 0.00430084 0.01252915 0.00210937 0.00149496 0.05184781 0.00645175 0.00400680 0.00386872 0.00135632 
0.06513775 0.02524485 0.00538231 0.00461170 0.00058625 0.00210646 0.01009624 0.00423512 0.01233123 0.00208882 0.00152235 0.05228889 0.00671540 0.00404545 0.00387734 0.00135574 
0.06723857 0.02498617 0.00535229 0.00462875 0.00058999 0.00212461 0.01015751 0.00417010 0.01215519 0.00206840 0.00155021 0.05271857 0.00698440 0.00408248 0.00393397 0.00135511 
0.06935159 0.02471737 0.00533090 0.00464034 0.00059488 0.00214265 0.01020916 0.00410602 0.01200106 0.00204825 0.00157837 0.05313749 0.00725760 0.00411783 0.00404117 0.00135445 
0.07146723 0.02444081 0.00531870 0.00464638 0.00060092 0.00216051 0.01025091 0.00404309 0.01186875 0.00202852 0.00160663 0.05354636 0.00753381 0.00415147 0.00420130 0.00135374 
0.07357579 0.02415902 0.00531623 0.00464679 0.00060816 0.00217811 0.01028256 0.00398149 0.01175804 0.00200937 0.00163482 0.05394590 0.00781183 0.00418336 0.00441655 0.00135299 
0.07566748 0.02387470 0.00532406 0.00464157 0.00061661 0.00219539 0.01030390 0.00392141 0.01166862 0.00199094 0.00166275 0.05433687 0.00809045 0.00421350 0.00468887 0.00135220 
0.07773253 0.02359065 0.00534267 0.00463074 0.00062631 0.00221228 0.01031478 0.00386298 0.01160007 0.00197339 0.00169025 0.05472005 0.00836847 0.00424189 0.00502000 0.00135135 
0.07976120 0.02330981 0.00537257 0.00461437 0.00063729 0.00222869 0.01031510 0.00380634 0.01155185 0.00195685 0.00171714 0.05509621 0.00864466 0.00426852 0.00541142 0.00135045 
0.08174383 0.02303522 0.00541420 0.00459256 0.00064958 0.00224455 0.01030478 0.00375159 0.01152337 0.00194146 0.00174327 0.05546615 0.00891784 0.00429343 0.00586433 0.00134948 
0.08367094 0.02277005 0.00546798 0.00456546 0.00066322 0.00225980 0.01028378 0.00369882 0.01151390 0.00192735 0.00176848 0.05583063 0.00918682 0.00431665 0.00637967 0.00134846 
0.08553322 0.02251750 0.00553429 0.00453325 0.00067824 0.00227435 0.01025212 0.00364808 0.01152265 0.00191465 0.00179263 0.05619044 0.00945045 0.00433823 0.00695806 0.00134736 
0.08732162 0.02228087 0.00561345 0.00449616 0.00069468 0.00228814 0.01020985 0.00359942 0.01154876 0.00190349 0.00181557 0.05654631 0.00970760 0.00435823 0.00759985 0.00134619 
0.08902741 0.02206349 0.00570573 0.00445443 0.00071257 0.00230110 0.01015706 0.00355287 0.01159130 0.00189396 0.00183719 0.05689898 0.00995721 0.00437670 0.00830504 0.00134495 
0.09064219 0.02186873 0.00581136 0.00440836 0.00073194 0.00231316 0.01009388 0.00350842 0.01164926 0.00188617 0.00185736 0.05724915 0.01019824 0.00439375 0.00907331 0.00134361 
0.09215795 0.02169994 0.00593050 0.00435827 0.00075283 0.00232425 0.01002050 0.00346606 0.01172160 0.00188022 0.00187598 0.05759747 0.01042971 0.00440946 0.00990401 0.00134220 
0.09356713 0.02156049 0.00606325 0.00430448 0.00077527 0.00233433 0.00993712 0.00342576 0.01180721 0.00187620 0.00189296 0.05794456 0.01065070 0.00442393 0.01079615 0.00134068 
0.09486263 0.02145370 0.00620966 0.00424738 0.00079929 0.00234332 0.00984400 0.00338746 0.01190498 0.00187419 0.00190822 0.05829101 0.01086036 0.00443728 0.01174839 0.00133907 
0.09603787 0.02138283 0.00636968 0.00418734 0.00082491 0.00235119 0.00974145 0.00335112 0.01201373 0.00187423 0.00192168 0.05863732 0.01105791 0.00444963 0.01275907 0.00133736 
0.09708683 0.02135108 0.00654321 0.00412479 0.00085217 0.00235789 0.00962979 0.00331665 0.01213230 0.00187641 0.00193329 0.05898398 0.01124264 0.00446112 0.01382616 0.00133555 
0.09800406 0.02136153 0.00673010 0.00406013 0.00088107 0.00236337 0.00950940 0.00328396 0.01225948 0.00188075 0.00194301 0.05933140 0.01141392 0.00447188 0.01494731 0.00133362 
0.09878469 0.02141716 0.00693009 0.00399380 0.00091164 0.00236759 0.00938069 0.00325297 0.01239408 0.00188729 0.00195081 0.05967993 0.01157122 0.00448205 0.01611982 0.00133158 
0.09942453 0.02152081 0.00714287 0.00392625 0.00094389 0.00237054 0.00924409 0.00322356 0.01253492 0.00189605 0.00195666 0.06002986 0.01171407 0.00449181 0.01734068 0.00132943 
0.09992000 0.02167513 0.00736806 0.00385791 0.00097783 0.00237219 0.00910010 0.00319563 0.01268083 0.00190704 0.00196056 0.06038141 0.01184212 0.00450129 0.01860654 0.00132716 
0.10026820 0.02188263 0.00760520 0.00378925 0.00101345 0.00237251 0.00894920 0.00316905 0.01283065 0.00192027 0.00196251 0.06073475 0.01195509 0.00451067 0.01991378 0.00132477 
0.10046691 0.02214558 0.00785375 0.00372070 0.00105076 0.00237152 0.00879195 0.00314372 0.01298326 0.00193572 0.00196254 0.06108995 0.01205280 0.00452011 0.02125844 0.00132226 
0.10051461 0.02246604 0.00811310 0.00365271 0.00108973 0.00236919 0.00862889 0.00311950 0.01313759 0.00195335 0.00196067 0.06144704 0.01213516 0.00452978 0.02263633 0.00131963 
0.10041044 0.02284584 0.00838260 0.00358571 0.00113035 0.00236555 0.00846062 0.00309628 0.01329259 0.00197314 0.00195695 0.06180596 0.01220220 0.00453985 0.02404297 0.00131688 
0.10015428 0.02328652 0.00866151 0.00352013 0.00117260 0.00236060 0.00828773 0.00307395 0.01344729 0.00199504 0.00195142 0.06216660 0.01225401 0.00455048 0.02547365 0.00131401 
0.09974666 0.02378938 0.00894901 0.00345637 0.00121644 0.00235436 0.00811087 0.00305238 0.01360074 0.00201898 0.00194415 0.06252876 0.01229079 0.00456185 0.02692345 0.00131103 
0.09918882 0.02435540 0.00924426 0.00339483 0.00126183 0.00234688 0.00793067 0.00303147 0.01375209 0.00204490 0.00193522 0.06289218 0.01231283 0.00457412 0.02838725 0.00130793 
0.09848266 0.02498528 0.00954633 0.00333587 0.00130872 0.00233818 0.00774778 0.00301112 0.01390055 0.00207271 0.00192470 0.06325654 0.01232051 0.00458745 0.02985975 0.00130471 
0.09763076 0.02567938 0.00985426 0.00327984 0.00135706 0.00232832 0.00756288 0.00299123 0.01404538 0.00210232 0.00191268 0.06362144 0.01231431 0.00460201 0.03133553 0.00130139 
0.09663634 0.02643774 0.01016702 0.00322707 0.00140677 0.00231734 0.00737664 0.00297171 0.01418595 0.00213362 0.00189926 0.06398644 0.01229476 0.00461793 0.03280902 0.00129797 
0.09550323 0.02726009 0.01048355 0.00317786 0.00145778 0.00230532 0.00718975 0.00295250 0.01432169 0.00216651 0.00188456 0.06435100 0.01226251 0.00463536 0.03427459 0.00129445 
0.09423588 0.02814577 0.01080275 0.00313246 0.00151001 0.00229232 0.00700288 0.00293352 0.01445211 0.00220086 0.00186866 0.06471458 0.01221825 0.00465445 0.03572653 0.00129084 
0.09283930 0.02909382 0.01112350 0.00309111 0.00156336 0.00227841 0.00681672 0.00291473 0.01457683 0.00223654 0.00185171 0.06507654 0.01216276 0.00467531 0.03715913 0.00128715 
0.09131906 0.03010289 0.01144463 0.00305402 0.00161773 0.00226369 0.00663196 0.00289610 0.01469553 0.00227341 0.00183381 0.06543621 0.01209687 0.00469806 0.03856664 0.00128338 
0.08968124 0.03117132 0.01176497 0.00302135 0.00167302 0.00224825 0.00644926 0.00287759 0.01480800 0.00231134 0.00181509 0.06579289 0.01202150 0.00472280 0.03994338 0.00127955 
0.08793239 0.03229707 0.01208333 0.00299324 0.00172910 0.00223218 0.00626929 0.00285921 0.01491409 0.00235016 0.00179568 0.06614582 0.01193758 0.00474963 0.04128372 0.00127565 
0.08607953 0.03347778 0.01239850 0.00296978 0.00178585 0.00221559 0.00609271 0.00284095 0.01501377 0.00238973 0.00177572 0.06649422 0.01184611 0.00477863 0.04258211 0.00127172 
0.08413006 0.03471073 0.01270929 0.00295103 0.00184314 0.00219859 0.00592016 0.00282284 0.01510706 0.00242988 0.00175533 0.06683729 0.01174813 0.00480986 0.04383315 0.00126774 
0.08209176 0.03599289 0.01301452 0.00293703 0.00190081 0.00218129 0.00575227 0.00280493 0.01519410 0.00247044 0.00173464 0.06717421 0.01164471 0.00484337 0.04503158 0.00126374 
0.07997274 0.03732092 0.01331300 0.00292774 0.00195873 0.00216381 0.00558963 0.00278725 0.01527509 0.00251125 0.00171381 0.06750413 0.01153693 0.00487919 0.04617233 0.00125973 
0.07778139 0.03869114 0.01360358 0.00292314 0.00201674 0.00214628 0.00543284 0.00276989 0.01535030 0.00255214 0.00169294 0.06782623 0.01142592 0.00491735 0.04725054 0.00125572 
0.07552635 0.04009963 0.01388513 0.00292312 0.00207468 0.00212882 0.00528246 0.00275293 0.01542009 0.00259293 0.00167218 0.06813967 0.01131279 0.00495785 0.04826160 0.00125172 
0.07321646 0.04154215 0.01415657 0.00292758 0.00213238 0.00211156 0.00513903 0.00273646 0.01548490 0.00263346 0.00165166 0.06844364 0.01119865 0.00500068 0.04920116 0.00124775 
0.07086070 0.04301425 0.01441683 0.00293636 0.00218968 0.00209464 0.00500305 0.00272060 0.01554519 0.00267356 0.00163150 0.06873733 0.01108465 0.00504580 0.05006517 0.00124382 
0.06846818 0.04451123 0.01466491 0.00294928 0.00224639 0.00207818 0.00487500 0.00270547 0.01560154 0.00271304 0.00161182 0.06901999 0.01097187 0.00509317 0.05084990 0.00123994 
0.06604807 0.04602818 0.01489987 0.00296612 0.00230234 0.00206232 0.00475535 0.00269122 0.01565452 0.00275176 0.00159275 0.06929089 0.01086141 0.00514273 0.05155196 0.00123613 
0.06360958 0.04756002 0.01512083 0.00298663 0.00235734 0.00204720 0.00464450 0.00267799 0.01570481 0.00278953 0.00157439 0.06954934 0.01075434 0.00519440 0.05216829 0.00123240 
0.06116187 0.04910151 0.01532695 0.00301054 0.00241123 0.00203294 0.00454284 0.00266594 0.01575307 0.00282621 0.00155685 0.06979475 0.01065168 0.00524808 0.05269625 0.00122877 
0.05871409 0.05064730 0.01551749 0.00303756 0.00246381 0.00201968 0.00445073 0.00265525 0.01580004 0.00286164 0.00154025 0.07002654 0.01055443 0.00530366 0.05313357 0.00122525 
0.05627524 0.05219190 0.01569177 0.00306736 0.00251491 0.00200755 0.00436848 0.00264608 0.01584647 0.00289567 0.00152467 0.07024426 0.01046353 0.00536101 0.05347837 0.00122186 
0.05385422 0.05372981 0.01584921 0.00309961 0.00256434 0.00199667 0.00429637 0.00263862 0.01589312 0.00292816 0.00151020 0.07044752 0.01037988 0.00542000 0.05372922 0.00121860 
0.05145974 0.05525544 0.01598930 0.00313396 0.00261193 0.00198717 0.00423464 0.00263307 0.01594077 0.00295898 0.00149693 0.07063602 0.01030433 0.00548046 0.05388510 0.00121549 
0.04910028 0.05676325 0.01611162 0.00317002 0.00265749 0.00197916 0.00418351 0.00262960 0.01599020 0.00298800 0.00148494 0.07080958 0.01023765 0.00554223 0.05394540 0.00121255 
0.04678411 0.05824769 0.01621584 0.00320743 0.00270086 0.00197275 0.00414315 0.00262842 0.01604220 0.00301510 0.00147429 0.07096812 0.01018057 0.00560512 0.05390998 0.00120979 
0.04451919 0.05970329 0.01630174 0.00324578 0.00274187 0.00196807 0.00411368 0.00262972 0.01609752 0.00304018 0.00146505 0.07111168 0.01013373 0.00566895 0.05377910 0.00120722 
0.04231318 0.06112468 0.01636917 0.00328468 0.00278036 0.00196519 0.00409521 0.00263368 0.01615691 0.00306315 0.00145727 0.07124044 0.01009770 0.00573352 0.05355348 0.00120485 
0.04017339 0.06250660 0.01641812 0.00332374 0.00281617 0.00196424 0.00408778 0.00264050 0.01622108 0.00308391 0.00145100 0.07135468 0.01007299 0.00579860 0.05323426 0.00120269 
0.03810678 0.06384396 0.01644863 0.00336255 0.00284917 0.00196528 0.00409143 0.00265037 0.01629073 0.00310239 0.00144627 0.07145487 0.01006002 0.00586398 0.05282300 0.00120076 
0.03611990 0.06513186 0.01646086 0.00340072 0.00287920 0.00196840 0.00410613 0.00266344 0.01636649 0.00311852 0.00144311 0.07154156 0.01005915 0.00592944 0.05232166 0.00119906 
0.03421890 0.06636564 0.01645509 0.00343786 0.00290614 0.00197367 0.00413183 0.00267990 0.01644895 0.00313227 0.00144156 0.07161550 0.01007062 0.00599475 0.05173263 0.00119760 
0.03240951 0.06754088 0.01643165 0.00347359 0.00292988 0.00198116 0.00416845 0.00269990 0.01653864 0.00314358 0.00144162 0.07167756 0.01009463 0.00605967 0.05105865 0.00119640 
0.03069699 0.06865342 0.01639101 0.00350754 0.00295030 0.00199091 0.00421586 0.00272359 0.01663603 0.00315244 0.00144330 0.07172877 0.01013128 0.00612397 0.05030287 0.00119545 
0.02908615 0.06969944 0.01633370 0.00353938 0.00296732 0.00200299 0.00427390 0.00275110 0.01674154 0.00315883 0.00144659 0.07177032 0.01018060 0.00618741 0.04946876 0.00119476 
0.02758132 0.07067543 0.01626037 0.00356875 0.00298084 0.00201741 0.00434239 0.00278255 0.01685548 0.00316274 0.00145151 0.07180352 0.01024253 0.00624975 0.04856014 0.00119435 
0.02618635 0.07157827 0.01617172 0.00359534 0.00299080 0.00203421 0.00442110 0.00281804 0.01697811 0.00316419 0.00145801 0.07182986 0.01031693 0.00631076 0.04758112 0.00119420 
0.02490461 0.07240517 0.01606856 0.00361888 0.00299713 0.00205340 0.00450978 0.00285765 0.01710960 0.00316321 0.00146610 0.07185097 0.01040361 0.00637022 0.04653614 0.00119433 
0.02373896 0.07315377 0.01595176 0.00363908 0.00299981 0.00207499 0.00460815 0.00290145 0.01725001 0.00315983 0.00147573 0.07186860 0.01050227 0.00642790 0.04542984 0.00119474 
0.02269177 0.07382212 0.01582227 0.00365571 0.00299879 0.00209898 0.00471589 0.00294949 0.01739935 0.00315409 0.00148687 0.07188466 0.01061257 0.00648358 0.04426715 0.00119542 
0.02176492 0.07440869 0.01568111 0.00366857 0.00299406 0.00212536 0.00483266 0.00300179 0.01755751 0.00314607 0.00149949 0.07190118 0.01073408 0.00653705 0.04305317 0.00119638 
0.02095979 0.07491239 0.01552936 0.00367746 0.00298563 0.00215409 0.00495809 0.00305836 0.01772429 0.00313582 0.00151352 0.07192028 0.01086632 0.00658812 0.04179320 0.00119762 
0.02027727 0.07533257 0.01536812 0.00368225 0.00297352 0.00218516 0.00509180 0.00311918 0.01789938 0.00312344 0.00152893 0.07194423 0.01100876 0.00663659 0.04049268 0.00119912 
0.01971779 0.07566905 0.01519859 0.00368282 0.00295775 0.00221852 0.00523337 0.00318420 0.01808241 0.00310901 0.00154564 0.07197536 0.01116079 0.00668230 0.03915717 0.00120090 
0.01928130 0.07592209 0.01502197 0.00367908 0.00293837 0.00225412 0.00538236 0.00325336 0.01827287 0.00309264 0.00156361 0.07201609 0.01132177 0.00672507 0.03779232 0.00120293 
0.01896726 0.07609241 0.01483950 0.00367098 0.00291545 0.00229189 0.00553831 0.00332658 0.01847019 0.00307444 0.00158275 0.07206892 0.01149100 0.00676476 0.03640384 0.00120522 
0.01877474 0.07618118 0.01465245 0.00365853 0.00288906 0.00233178 0.00570074 0.00340374 0.01867367 0.00305454 0.00160301 0.07213639 0.01166776 0.00680124 0.03499747 0.00120776 
0.01870233 0.07619003 0.01446209 0.00364173 0.00285930 0.00237371 0.00586915 0.00348471 0.01888255 0.00303305 0.00162429 0.07222106 0.01185128 0.00683438 0.03357894 0.00121054 
0.01874823 0.07612100 0.01426972 0.00362064 0.00282627 0.00241759 0.00604304 0.00356933 0.01909596 0.00301012 0.00164652 0.07232553 0.01204075 0.00686408 0.03215398 0.00121355 
0.01891024 0.07597658 0.01407663 0.00359537 0.00279010 0.00246334 0.00622187 0.00365741 0.01931295 0.00298589 0.00166963 0.07245238 0.01223535 0.00689026 0.03072822 0.00121678 
0.01918577 0.07575966 0.01388408 0.00356602 0.00275092 0.00251086 0.00640510 0.00374876 0.01953250 0.00296050 0.00169351 0.07260418 0.01243425 0.00691285 0.02930722 0.00122021 
0.01957189 0.07547351 0.01369334 0.00353277 0.00270889 0.00256005 0.00659217 0.00384314 0.01975350 0.00293411 0.00171809 0.07278343 0.01263659 0.00693180 0.02789643 0.00122384 
0.02006530 0.07512180 0.01350564 0.00349580 0.00266416 0.00261080 0.00678251 0.00394031 0.01997476 0.00290688 0.00174327 0.07299258 0.01284150 0.00694707 0.02650116 0.00122765 
0.02066244 0.07470851 0.01332220 0.00345533 0.00261691 0.00266299 0.00697556 0.00404000 0.02019505 0.00287896 0.00176896 0.07323400 0.01304811 0.00695865 0.02512653 0.00123163 
0.02135941 0.07423798 0.01314417 0.00341162 0.00256734 0.00271651 0.00717073 0.00414192 0.02041307 0.00285051 0.00179507 0.07350993 0.01325556 0.00696654 0.02377750 0.00123576 
0.02215205 0.07371482 0.01297266 0.00336495 0.00251563 0.00277123 0.00736742 0.00424578 0.02062748 0.00282170 0.00182150 0.07382248 0.01346300 0.00697075 0.02245881 0.00124003 
0.02303599 0.07314392 0.01280874 0.00331561 0.00246199 0.00282704 0.00756505 0.00435124 0.02083687 0.00279268 0.00184815 0.07417362 0.01366956 0.00697134 0.02117495 0.00124441 
0.02400660 0.07253038 0.01265342 0.00326394 0.00240664 0.00288380 0.00776301 0.00445797 0.02103984 0.00276362 0.00187493 0.07456514 0.01387442 0.00696833 0.01993017 0.00124891 
0.02505907 0.07187954 0.01250761 0.00321029 0.00234982 0.00294139 0.00796070 0.00456563 0.02123493 0.00273468 0.00190175 0.07499860 0.01407677 0.00696182 0.01872845 0.00125349 
0.02618844 0.07119688 0.01237219 0.00315503 0.00229174 0.00299966 0.00815753 0.00467386 0.02142069 0.00270600 0.00192850 0.07547539 0.01427582 0.00695186 0.01757349 0.00125813 
0.02738957 0.07048800 0.01224794 0.00309854 0.00223265 0.00305850 0.00835290 0.00478228 0.02159565 0.00267776 0.00195509 0.07599663 0.01447081 0.00693857 0.01646870 0.00126284 
0.02865722 0.06975862 0.01213556 0.00304121 0.00217279 0.00311776 0.00854621 0.00489051 0.02175835 0.00265008 0.00198143 0.07656317 0.01466101 0.00692205 0.01541714 0.00126757 
0.02998606 0.06901450 0.01203566 0.00298347 0.00211241 0.00317732 0.00873686 0.00499818 0.02190735 0.00262312 0.00200742 0.07717563 0.01484573 0.00690242 0.01442160 0.00127232 
0.03137067 0.06826141 0.01194878 0.00292572 0.00205176 0.00323703 0.00892428 0.00510489 0.02204123 0.00259702 0.00203297 0.07783428 0.01502430 0.00687981 0.01348452 0.00127708 
0.03280560 0.06750511 0.01187534 0.00286839 0.00199110 0.00329676 0.00910789 0.00521025 0.02215861 0.00257190 0.00205798 0.07853912 0.01519612 0.00685437 0.01260801 0.00128181 
0.03428535 0.06675130 0.01181569 0.00281190 0.00193068 0.00335639 0.00928712 0.00531389 0.02225816 0.00254788 0.00208239 0.07928983 0.01536060 0.00682624 0.01179383 0.00128651 
0.03580444 0.06600559 0.01177006 0.00275668 0.00187075 0.00341578 0.00946141 0.00541541 0.02233860 0.00252508 0.00210608 0.08008573 0.01551722 0.00679558 0.01104342 0.00129115 
0.03735739 0.06527343 0.01173861 0.00270315 0.00181158 0.00347481 0.00963022 0.00551443 0.02239872 0.00250361 0.00212899 0.08092583 0.01566548 0.00676255 0.01035789 0.00129573 
0.03893876 0.06456013 0.01172139 0.00265173 0.00175340 0.00353334 0.00979303 0.00561057 0.02243740 0.00248356 0.00215103 0.08180877 0.01580495 0.00672732 0.00973798 0.00130022 
0.04054318 0.06387077 0.01171833 0.00260281 0.00169647 0.00359125 0.00994932 0.00570348 0.02245360 0.00246501 0.00217213 0.08273286 0.01593522 0.00669007 0.00918414 0.00130460 
0.04216534 0.06321019 0.01172931 0.00255680 0.00164103 0.00364842 0.01009859 0.00579280 0.02244636 0.00244805 0.00219221 0.08369603 0.01605596 0.00665096 0.00869645 0.00130887 
0.04380003 0.06258298 0.01175408 0.00251406 0.00158732 0.00370474 0.01024038 0.00587819 0.02241487 0.00243274 0.00221120 0.08469587 0.01616685 0.00661017 0.00827471 0.00131301 
0.04544213 0.06199341 0.01179232 0.00247496 0.00153557 0.00376007 0.01037423 0.00595932 0.02235839 0.00241913 0.00222904 0.08572961 0.01626765 0.00656786 0.00791837 0.00131701 
0.04708668 0.06144541 0.01184359 0.00243983 0.00148601 0.00381432 0.01049970 0.00603588 0.02227633 0.00240727 0.00224566 0.08679416 0.01635815 0.00652422 0.00762662 0.00132084 
0.04872882 0.06094256 0.01190741 0.00240900 0.00143884 0.00386737 0.01061640 0.00610759 0.02216824 0.00239718 0.00226101 0.08788605 0.01643818 0.00647941 0.00739833 0.00132451 
0.05036386 0.06048807 0.01198317 0.00238275 0.00139428 0.00391911 0.01072395 0.00617418 0.02203378 0.00238889 0.00227504 0.08900153 0.01650762 0.00643359 0.00723211 0.00132799 
0.05198727 0.06008472 0.01207022 0.00236135 0.00135253 0.00396944 0.01082198 0.00623540 0.02187277 0.00238241 0.00228769 0.09013649 0.01656640 0.00638693 0.00712630 0.00133128 
0.05359467 0.05973489 0.01216782 0.00234504 0.00131376 0.00401825 0.01091019 0.00629103 0.02168519 0.00237772 0.00229893 0.09128655 0.01661448 0.00633957 0.00707899 0.00133437 
0.05518189 0.05944050 0.01227516 0.00233402 0.00127816 0.00406546 0.01098828 0.00634088 0.02147116 0.00237483 0.00230871 0.09244706 0.01665187 0.00629167 0.00708807 0.00133725 
0.05674492 0.05920304 0.01239136 0.00232846 0.00124588 0.00411096 0.01105599 0.00638476 0.02123097 0.00237369 0.00231701 0.09361309 0.01667860 0.00624337 0.00715117 0.00133991 
0.05827995 0.05902353 0.01251552 0.00232851 0.00121707 0.00415467 0.01111309 0.00642254 0.02096506 0.00237428 0.00232380 0.09477949 0.01669475 0.00619479 0.00726575 0.00134235 
0.05978339 0.05890251 0.01264665 0.00233426 0.00119187 0.00419648 0.01115940 0.00645411 0.02067405 0.00237653 0.00232905 0.09594090 0.01670044 0.00614607 0.00742911 0.00134457 
0.06125182 0.05884008 0.01278373 0.00234579 0.00117040 0.00423633 0.01119475 0.00647937 0.02035870 0.00238040 0.00233275 0.09709176 0.01669580 0.00609731 0.00763835 0.00134655 
0.06268204 0.05883583 0.01292570 0.00236314 0.00115276 0.00427413 0.01121903 0.00649826 0.02001997 0.00238582 0.00233490 0.09822639 0.01668101 0.00604862 0.00789046 0.00134829 
0.06407105 0.05888891 0.01307149 0.00238629 0.00113905 0.00430979 0.01123216 0.00651077 0.01965894 0.00239270 0.00233548 0.09933898 0.01665625 0.00600011 0.00818231 0.00134981 
0.06541607 0.05899800 0.01321997 0.00241522 0.00112933 0.00434324 0.01123410 0.00651690 0.01927690 0.00240096 0.00233450 0.10042362 0.01662175 0.00595186 0.00851066 0.00135108 
0.06671450 0.05916133 0.01337003 0.00244985 0.00112368 0.00437440 0.01122483 0.00651667 0.01887524 0.00241049 0.00233196 0.10147437 0.01657775 0.00590394 0.00887220 0.00135212 
0.06796397 0.05937668 0.01352052 0.00249007 0.00112214 0.00440320 0.01120440 0.00651015 0.01845556 0.00242120 0.00232789 0.10248525 0.01652450 0.00585644 0.00926354 0.00135293 
0.06916230 0.05964142 0.01367031 0.00253573 0.00112473 0.00442958 0.01117289 0.00649744 0.01801956 0.00243296 0.00232229 0.10345031 0.01646229 0.00580940 0.00968127 0.00135350 
0.07030752 0.05995252 0.01381825 0.00258665 0.00113147 0.00445345 0.01113040 0.00647866 0.01756912 0.00244567 0.00231520 0.10436367 0.01639139 0.00576290 0.01012196 0.00135385 
0.07139782 0.06030654 0.01396322 0.00264263 0.00114236 0.00447477 0.01107709 0.00645395 0.01710623 0.00245919 0.00230665 0.10521953 0.01631211 0.00571696 0.01058214 0.00135398 
0.07243162 0.06069972 0.01410410 0.00270341 0.00115736 0.00449346 0.01101316 0.00642350 0.01663300 0.00247339 0.00229666 0.10601221 0.01622476 0.00567164 0.01105841 0.00135389 
0.07340752 0.06112794 0.01423981 0.00276873 0.00117646 0.00450947 0.01093885 0.00638751 0.01615169 0.00248813 0.00228529 0.10673624 0.01612966 0.00562696 0.01154735 0.00135360 
0.07432427 0.06158681 0.01436928 0.00283827 0.00119961 0.00452274 0.01085443 0.00634622 0.01566462 0.00250329 0.00227259 0.10738630 0.01602713 0.00558295 0.01204563 0.00135310 
0.07518082 0.06207163 0.01449150 0.00291172 0.00122672 0.00453322 0.01076020 0.00629987 0.01517424 0.00251870 0.00225859 0.10795737 0.01591750 0.00553964 0.01254997 0.00135241 
0.07597628 0.06257751 0.01460547 0.00298871 0.00125773 0.00454085 0.01065653 0.00624875 0.01468305 0.00253424 0.00224337 0.10844466 0.01580110 0.00549703 0.01305715 0.00135154 
0.07670991 0.06309932 0.01471024 0.00306886 0.00129254 0.00454558 0.01054379 0.00619316 0.01419366 0.00254974 0.00222698 0.10884371 0.01567826 0.00545516 0.01356408 0.00135050 
0.07738114 0.06363181 0.01480493 0.00315179 0.00133104 0.00454738 0.01042242 0.00613340 0.01370869 0.00256508 0.00220948 0.10915043 0.01554932 0.00541403 0.01406777 0.00134929 
0.07798953 0.06416958 0.01488870 0.00323708 0.00137311 0.00454619 0.01029285 0.00606984 0.01323083 0.00258010 0.00219096 0.10936107 0.01541460 0.00537365 0.01456533 0.00134794 
0.07853479 0.06470715 0.01496077 0.00332430 0.00141861 0.00454198 0.01015559 0.00600280 0.01276278 0.00259465 0.00217149 0.10947229 0.01527443 0.00533404 0.01505403 0.00134644 
0.07901674 0.06523902 0.01502040 0.00341300 0.00146739 0.00453471 0.01001114 0.00593267 0.01230727 0.00260860 0.00215113 0.10948121 0.01512915 0.00529520 0.01553129 0.00134482 
0.07943535 0.06575967 0.01506696 0.00350275 0.00151930 0.00452437 0.00986006 0.00585981 0.01186701 0.00262180 0.00212998 0.10938539 0.01497907 0.00525715 0.01599464 0.00134309 
0.07979068 0.06626363 0.01509984 0.00359308 0.00157416 0.00451091 0.00970292 0.00578463 0.01144469 0.00263412 0.00210812 0.10918286 0.01482452 0.00521991 0.01644184 0.00134125 
0.08008291 0.06674551 0.01511853 0.00368353 0.00163179 0.00449432 0.00954031 0.00570751 0.01104297 0.00264544 0.00208563 0.10887217 0.01466581 0.00518350 0.01687076 0.00133933 
0.08031234 0.06720005 0.01512258 0.00377365 0.00169200 0.00447459 0.00937285 0.00562886 0.01066445 0.00265562 0.00206261 0.10845238 0.01450326 0.00514793 0.01727948 0.00133733 
0.08047934 0.06762215 0.01511162 0.00386297 0.00175459 0.00445171 0.00920118 0.00554908 0.01031166 0.00266455 0.00203913 0.10792308 0.01433718 0.00511324 0.01766625 0.00133527 
0.08058438 0.06800693 0.01508535 0.00395105 0.00181936 0.00442567 0.00902595 0.00546858 0.00998706 0.00267211 0.00201531 0.10728442 0.01416788 0.00507947 0.01802953 0.00133316 
0.08062802 0.06834973 0.01504355 0.00403745 0.00188608 0.00439648 0.00884783 0.00538776 0.00969298 0.00267821 0.00199122 0.10653708 0.01399567 0.00504665 0.01836793 0.00133101 
0.08061089 0.06864619 0.01498606 0.00412172 0.00195454 0.00436415 0.00866750 0.00530703 0.00943167 0.00268275 0.00196696 0.10568230 0.01382084 0.00501483 0.01868030 0.00132885 
0.08053370 0.06889226 0.01491282 0.00420345 0.00202450 0.00432870 0.00848563 0.00522678 0.00920522 0.00268563 0.00194262 0.10472189 0.01364371 0.00498407 0.01896564 0.00132667 
0.08039724 0.06908426 0.01482384 0.00428223 0.00209575 0.00429016 0.00830293 0.00514741 0.00901558 0.00268680 0.00191830 0.10365822 0.01346457 0.00495442 0.01922318 0.00132449 
0.08020234 0.06921887 0.01471919 0.00435769 0.00216804 0.00424856 0.00812009 0.00506928 0.00886455 0.00268617 0.00189408 0.10249420 0.01328373 0.00492597 0.01945232 0.00132233 
0.07994993 0.06929318 0.01459903 0.00442946 0.00224113 0.00420396 0.00793779 0.00499278 0.00875375 0.00268370 0.00187006 0.10123329 0.01310149 0.00489879 0.01965266 0.00132019 
0.07964097 0.06930474 0.01446358 0.00449720 0.00231479 0.00415639 0.00775672 0.00491825 0.00868460 0.00267933 0.00184633 0.09987949 0.01291815 0.00487297 0.01982399 0.00131808 
0.07927650 0.06925154 0.01431316 0.00456059 0.00238878 0.00410593 0.00757757 0.00484603 0.00865835 0.00267304 0.00182297 0.09843731 0.01273403 0.00484860 0.01996627 0.00131603 
0.07885761 0.06913206 0.01414813 0.00461935 0.00246286 0.00405266 0.00740101 0.00477645 0.00867602 0.00266481 0.00180006 0.09691178 0.01254943 0.00482580 0.02007968 0.00131402 
0.07838545 0.06894527 0.01396894 0.00467322 0.00253680 0.00399665 0.00722768 0.00470981 0.00873843 0.00265462 0.00177768 0.09530839 0.01236466 0.00480467 0.02016452 0.00131208 
0.07786123 0.06869068 0.01377608 0.00472196 0.00261034 0.00393801 0.00705823 0.00464640 0.00884615 0.00264248 0.00175592 0.09363311 0.01218004 0.00478535 0.02022131 0.00131021 
0.07728620 0.06836829 0.01357014 0.00476538 0.00268327 0.00387683 0.00689328 0.00458647 0.00899955 0.00262840 0.00173485 0.09189234 0.01199590 0.00476795 0.02025071 0.00130841 
0.07666171 0.06797865 0.01335174 0.00480331 0.00275535 0.00381324 0.00673344 0.00453028 0.00919872 0.00261242 0.00171453 0.09009287 0.01181255 0.00475261 0.02025353 0.00130670 
0.07598911 0.06752283 0.01312157 0.00483562 0.00282636 0.00374737 0.00657927 0.00447803 0.00944355 0.00259456 0.00169504 0.08824190 0.01163033 0.00473949 0.02023074 0.00130508 
0.07526988 0.06700243 0.01288039 0.00486221 0.00289608 0.00367935 0.00643132 0.00442992 0.00973365 0.00257489 0.00167643 0.08634694 0.01144957 0.00472872 0.02018344 0.00130355 
0.07450550 0.06641959 0.01262899 0.00488302 0.00296429 0.00360935 0.00629011 0.00438611 0.01006841 0.00255346 0.00165876 0.08441584 0.01127062 0.00472047 0.02011286 0.00130212 
0.07369755 0.06577697 0.01236821 0.00489801 0.00303079 0.00353751 0.00615613 0.00434675 0.01044694 0.00253036 0.00164207 0.08245668 0.01109381 0.00471489 0.02002037 0.00130079 
0.07284768 0.06507771 0.01209896 0.00490718 0.00309538 0.00346402 0.00602983 0.00431195 0.01086813 0.00250567 0.00162643 0.08047782 0.01091951 0.00471215 0.01990741 0.00129956 
0.07195761 0.06432549 0.01182216 0.00491057 0.00315788 0.00338907 0.00591164 0.00428181 0.01133062 0.00247948 0.00161186 0.07848779 0.01074805 0.00471240 0.01977556 0.00129843 
0.07102911 0.06352441 0.01153880 0.00490824 0.00321809 0.00331284 0.00580192 0.00425637 0.01183280 0.00245193 0.00159840 0.07649527 0.01057979 0.00471582 0.01962647 0.00129741 
0.07006407 0.06267905 0.01124987 0.00490030 0.00327585 0.00323556 0.00570103 0.00423568 0.01237284 0.00242311 0.00158607 0.07450906 0.01041511 0.00472257 0.01946188 0.00129648 
0.06906443 0.06179441 0.01095643 0.00488688 0.00333100 0.00315742 0.00560926 0.00421974 0.01294867 0.00239317 0.00157492 0.07253803 0.01025434 0.00473282 0.01928357 0.00129566 
0.06803223 0.06087589 0.01065953 0.00486814 0.00338338 0.00307867 0.00552688 0.00420854 0.01355801 0.00236224 0.00156494 0.07059109 0.01009785 0.00474673 0.01909341 0.00129494 
0.06696959 0.05992924 0.01036027 0.00484426 0.00343287 0.00299953 0.00545410 0.00420202 0.01419838 0.00233047 0.00155615 0.06867709 0.00994601 0.00476446 0.01889329 0.00129430 
0.06587873 0.05896057 0.01005976 0.00481547 0.00347931 0.00292025 0.00539111 0.00420013 0.01486709 0.00229803 0.00154856 0.06680487 0.00979915 0.00478616 0.01868515 0.00129376 
0.06476197 0.05797624 0.00975911 0.00478199 0.00352261 0.00284108 0.00533803 0.00420277 0.01556127 0.00226507 0.00154217 0.06498314 0.00965764 0.00481199 0.01847094 0.00129331 
0.06362172 0.05698289 0.00945946 0.00474411 0.00356266 0.00276229 0.00529497 0.00420980 0.01627788 0.00223177 0.00153696 0.06322046 0.00952182 0.00484207 0.01825264 0.00129293 
0.06246049 0.05598739 0.00916195 0.00470209 0.00359935 0.00268413 0.00526197 0.00422111 0.01701374 0.00219830 0.00153293 0.06152521 0.00939202 0.00487655 0.01803220 0.00129263 
0.06128089 0.05499673 0.00886773 0.00465625 0.00363262 0.00260687 0.00523903 0.00423652 0.01776552 0.00216486 0.00153007 0.05990554 0.00926858 0.00491555 0.01781157 0.00129240 
0.06008565 0.05401808 0.00857792 0.00460690 0.00366240 0.00253079 0.00522612 0.00425585 0.01852976 0.00213162 0.00152834 0.05836933 0.00915179 0.00495918 0.01759270 0.00129222 
0.05887759 0.05305866 0.00829367 0.00455439 0.00368862 0.00245617 0.00522317 0.00427889 0.01930292 0.00209877 0.00152773 0.05692416 0.00904197 0.00500754 0.01737747 0.00129211 
0.05765965 0.05212573 0.00801609 0.00449904 0.00371124 0.00238329 0.00523006 0.00430543 0.02008137 0.00206651 0.00152819 0.05557723 0.00893940 0.00506071 0.01716774 0.00129204 
0.05643487 0.05122653 0.00774630 0.00444123 0.00373024 0.00231242 0.00524663 0.00433524 0.02086142 0.00203503 0.00152969 0.05433541 0.00884434 0.00511876 0.01696531 0.00129201 
0.05520639 0.05036827 0.00748538 0.00438131 0.00374559 0.00224385 0.00527270 0.00436805 0.02163931 0.00200452 0.00153219 0.05320510 0.00875705 0.00518175 0.01677193 0.00129201 
0.05397745 0.04955803 0.00723439 0.00431966 0.00375729 0.00217785 0.00530803 0.00440361 0.02241131 0.00197518 0.00153565 0.05219230 0.00867774 0.00524971 0.01658925 0.00129204 
0.05275142 0.04880274 0.00699437 0.00425663 0.00376534 0.00211471 0.00535236 0.00444164 0.02317365 0.00194720 0.00154001 0.05130250 0.00860662 0.00532267 0.01641886 0.00129209 
0.05153174 0.04810915 0.00676632 0.00419261 0.00376976 0.00205468 0.00540540 0.00448185 0.02392260 0.00192075 0.00154522 0.05054070 0.00854386 0.00540063 0.01626226 0.00129214 
0.05032196 0.04748375 0.00655122 0.00412795 0.00377057 0.00199804 0.00546683 0.00452397 0.02465446 0.00189603 0.00155123 0.04991137 0.00848961 0.00548357 0.01612084 0.00129220 
0.04912570 0.04693277 0.00634999 0.00406302 0.00376782 0.00194506 0.00553629 0.00456768 0.02536560 0.00187322 0.00155798 0.04941842 0.00844400 0.00557145 0.01599590 0.00129225 
0.04794668 0.04646210 0.00616352 0.00399818 0.00376155 0.00189597 0.00561340 0.00461269 0.02605249 0.00185248 0.00156540 0.04906520 0.00840710 0.00566422 0.01588864 0.00129229 
0.04678869 0.04607726 0.00599263 0.00393375 0.00375182 0.00185103 0.00569778 0.00465869 0.02671167 0.00183399 0.00157344 0.04885448 0.00837897 0.00576179 0.01580011 0.00129231 
0.04565560 0.04578339 0.00583813 0.00387009 0.00373870 0.00181047 0.00578898 0.00470539 0.02733986 0.00181789 0.00158203 0.04878842 0.00835965 0.00586408 0.01573127 0.00129231 
0.04455131 0.04558520 0.00570073 0.00380750 0.00372227 0.00177451 0.00588659 0.00475248 0.02793387 0.00180434 0.00159111 0.04886857 0.00834910 0.00597095 0.01568294 0.00129227 
0.04347980 0.04548690 0.00558111 0.00374628 0.00370262 0.00174336 0.00599014 0.00479966 0.02849071 0.00179348 0.00160060 0.04909586 0.00834730 0.00608227 0.01565582 0.00129220 
0.04244507 0.04549224 0.00547988 0.00368673 0.00367983 0.00171721 0.00609916 0.00484665 0.02900757 0.00178543 0.00161045 0.04947062 0.00835416 0.00619788 0.01565047 0.00129209 
0.04145115 0.04560443 0.00539759 0.00362912 0.00365401 0.00169625 0.00621319 0.00489314 0.02948183 0.00178031 0.00162059 0.04999254 0.00836957 0.00631759 0.01566731 0.00129194 
0.04050207 0.04582616 0.00533471 0.00357367 0.00362528 0.00168063 0.00633174 0.00493888 0.02991110 0.00177822 0.00163095 0.05066069 0.00839336 0.00644120 0.01570666 0.00129174 
0.03960187 0.04615953 0.00529165 0.00352063 0.00359374 0.00167051 0.00645433 0.00498359 0.03029321 0.00177925 0.00164147 0.05147354 0.00842536 0.00656848 0.01576866 0.00129149 
0.03875458 0.04660608 0.00526874 0.00347018 0.00355952 0.00166602 0.00658045 0.00502701 0.03062624 0.00178349 0.00165208 0.05242894 0.00846533 0.00669920 0.01585333 0.00129119 
0.03796418 0.04716676 0.00526624 0.00342252 0.00352274 0.00166726 0.00670964 0.00506891 0.03090852 0.00179099 0.00166273 0.05352417 0.00851303 0.00683310 0.01596057 0.00129084 
0.03723461 0.04784192 0.00528434 0.00337779 0.00348355 0.00167432 0.00684139 0.00510905 0.03113866 0.00180180 0.00167335 0.05475591 0.00856816 0.00696989 0.01609013 0.00129043 
0.03656974 0.04863130 0.00532313 0.00333613 0.00344206 0.00168728 0.00697524 0.00514723 0.03131553 0.00181595 0.00168389 0.05612029 0.00863038 0.00710927 0.01624163 0.00128998 
0.03597336 0.04953405 0.00538265 0.00329763 0.00339843 0.00170618 0.00711072 0.00518324 0.03143830 0.00183347 0.00169429 0.05761290 0.00869935 0.00725095 0.01641458 0.00128947 
0.03544915 0.05054871 0.00546284 0.00326239 0.00335280 0.00173105 0.00724736 0.00521691 0.03150643 0.00185436 0.00170451 0.05922880 0.00877468 0.00739458 0.01660833 0.00128892 
0.03500067 0.05167322 0.00556354 0.00323044 0.00330531 0.00176190 0.00738472 0.00524808 0.03151964 0.00187859 0.00171449 0.06096258 0.00885595 0.00753984 0.01682215 0.00128833 
0.03463135 0.05290495 0.00568455 0.00320182 0.00325611 0.00179870 0.00752236 0.00527660 0.03147799 0.00190615 0.00172418 0.06280836 0.00894271 0.00768637 0.01705518 0.00128769 
0.03434443 0.05424069 0.00582556 0.00317654 0.00320536 0.00184141 0.00765987 0.00530235 0.03138180 0.00193698 0.00173356 0.06475981 0.00903451 0.00783381 0.01730644 0.00128702 
0.03414299 0.05567666 0.00598619 0.00315457 0.00315320 0.00188998 0.00779685 0.00532523 0.03123171 0.00197103 0.00174257 0.06681023 0.00913084 0.00798179 0.01757486 0.00128632 
0.03402992 0.05720857 0.00616595 0.00313587 0.00309978 0.00194431 0.00793292 0.00534515 0.03102862 0.00200821 0.00175120 0.06895253 0.00923120 0.00812993 0.01785927 0.00128560 
0.03400787 0.05883161 0.00636432 0.00312039 0.00304527 0.00200429 0.00806771 0.00536204 0.03077374 0.00204844 0.00175940 0.07117930 0.00933505 0.00827785 0.01815843 0.00128485 
0.03407924 0.06054045 0.00658065 0.00310802 0.00298980 0.00206980 0.00820090 0.00537587 0.03046855 0.00209160 0.00176715 0.07348283 0.00944187 0.00842516 0.01847099 0.00128410 
0.03424621 0.06232935 0.00681425 0.00309867 0.00293354 0.00214066 0.00833217 0.00538661 0.03011478 0.00213758 0.00177444 0.07585517 0.00955108 0.00857146 0.01879555 0.00128334 
0.03451065 0.06419211 0.00706433 0.00309222 0.00287664 0.00221672 0.00846122 0.00539424 0.02971446 0.00218623 0.00178124 0.07828814 0.00966212 0.00871637 0.01913063 0.00128259 
0.03487413 0.06612214 0.00733004 0.00308851 0.00281924 0.00229777 0.00858779 0.00539879 0.02926982 0.00223742 0.00178754 0.08077338 0.00977443 0.00885949 0.01947472 0.00128186 
0.03533793 0.06811249 0.00761046 0.00308740 0.00276150 0.00238358 0.00871163 0.00540028 0.02878335 0.00229096 0.00179335 0.08330242 0.00988742 0.00900045 0.01982624 0.00128114 
0.03590300 0.07015589 0.00790459 0.00308871 0.00270356 0.00247391 0.00883252 0.00539876 0.02825775 0.00234669 0.00179865 0.08586666 0.01000052 0.00913884 0.02018358 0.00128046 
0.03656991 0.07224478 0.00821139 0.00309225 0.00264557 0.00256851 0.00895027 0.00539430 0.02769593 0.00240443 0.00180344 0.08845749 0.01011315 0.00927430 0.02054511 0.00127982 
0.03733892 0.07437136 0.00852973 0.00309784 0.00258768 0.00266709 0.00906470 0.00538697 0.02710096 0.00246397 0.00180773 0.09106624 0.01022474 0.00940645 0.02090919 0.00127924 
0.03820988 0.07652762 0.00885846 0.00310527 0.00253002 0.00276936 0.00917566 0.00537687 0.02647611 0.00252511 0.00181153 0.09368430 0.01033473 0.00953494 0.02127414 0.00127871 
0.03918227 0.07870539 0.00919634 0.00311433 0.00247273 0.00287500 0.00928303 0.00536410 0.02582476 0.00258763 0.00181485 0.09630311 0.01044257 0.00965940 0.02163833 0.00127826 
0.04025517 0.08089637 0.00954211 0.00312481 0.00241595 0.00298367 0.00938671 0.00534879 0.02515043 0.00265132 0.00181771 0.09891423 0.01054772 0.00977951 0.02200009 0.00127788 
0.04142727 0.08309220 0.00989446 0.00313648 0.00235981 0.00309504 0.00948661 0.00533107 0.02445675 0.00271594 0.00182012 0.10150935 0.01064967 0.00989493 0.02235781 0.00127760 
0.04269684 0.08528447 0.01025205 0.00314914 0.00230444 0.00320874 0.00958266 0.00531107 0.02374742 0.00278126 0.00182212 0.10408032 0.01074790 0.01000536 0.02270988 0.00127742 
0.04406173 0.08746476 0.01061350 0.00316256 0.00224997 0.00332441 0.00967484 0.00528895 0.02302620 0.00284704 0.00182372 0.10661924 0.01084193 0.01011050 0.02305476 0.00127734 
0.04551939 0.08962474 0.01097741 0.00317653 0.00219652 0.00344167 0.00976311 0.00526487 0.02229689 0.00291304 0.00182496 0.10911841 0.01093131 0.01021007 0.02339092 0.00127738 
0.04706685 0.09175612 0.01134237 0.00319084 0.00214421 0.00356011 0.00984746 0.00523898 0.02156329 0.00297902 0.00182586 0.11157044 0.01101560 0.01030382 0.02371690 0.00127755 
0.04870070 0.09385078 0.01170692 0.00320529 0.00209315 0.00367936 0.00992791 0.00521146 0.02082922 0.00304473 0.00182646 0.11396822 0.01109440 0.01039150 0.02403132 0.00127785 
0.05041713 0.09590072 0.01206964 0.00321967 0.00204346 0.00379900 0.01000448 0.00518247 0.02009843 0.00310994 0.00182680 0.11630498 0.01116734 0.01047290 0.02433283 0.00127829 
0.05221193 0.09789818 0.01242908 0.00323381 0.00199524 0.00391863 0.01007719 0.00515219 0.01937463 0.00317440 0.00182690 0.11857428 0.01123407 0.01054780 0.02462019 0.00127888 
0.05408047 0.09983563 0.01278380 0.00324752 0.00194861 0.00403785 0.01014611 0.00512079 0.01866145 0.00323787 0.00182681 0.12077007 0.01129427 0.01061605 0.02489222 0.00127962 
0.05601776 0.10170581 0.01313236 0.00326066 0.00190364 0.00415623 0.01021128 0.00508844 0.01796243 0.00330013 0.00182657 0.12288669 0.01134768 0.01067748 0.02514784 0.00128052 
0.05801838 0.10350175 0.01347337 0.00327306 0.00186046 0.00427339 0.01027277 0.00505531 0.01728096 0.00336094 0.00182621 0.12491888 0.01139405 0.01073195 0.02538604 0.00128158 
0.06007660 0.10521685 0.01380543 0.00328459 0.00181913 0.00438890 0.01033064 0.00502158 0.01662033 0.00342008 0.00182577 0.12686182 0.01143318 0.01077936 0.02560594 0.00128281 
0.06218630 0.10684483 0.01412717 0.00329514 0.00177975 0.00450237 0.01038499 0.00498741 0.01598363 0.00347735 0.00182530 0.12871108 0.01146490 0.01081962 0.02580672 0.00128421 
0.06434104 0.10837984 0.01443728 0.00330460 0.00174240 0.00461340 0.01043588 0.00495295 0.01537380 0.00353253 0.00182482 0.13046272 0.01148907 0.01085267 0.02598769 0.00128577 
0.06653409 0.10981640 0.01473446 0.00331289 0.00170716 0.00472162 0.01048339 0.00491837 0.01479356 0.00358543 0.00182439 0.13211320 0.01150561 0.01087846 0.02614826 0.00128751 
0.06875840 0.11114951 0.01501747 0.00331995 0.00167410 0.00482664 0.01052762 0.00488380 0.01424544 0.00363586 0.00182403 0.13365946 0.01151446 0.01089698 0.02628795 0.00128942 
0.07100668 0.11237457 0.01528513 0.00332573 0.00164328 0.00492810 0.01056864 0.00484940 0.01373174 0.00368366 0.00182378 0.13509887 0.01151561 0.01090823 0.02640637 0.00129150 
0.07327139 0.11348748 0.01553629 0.00333019 0.00161477 0.00502565 0.01060653 0.00481530 0.01325451 0.00372865 0.00182367 0.13642926 0.01150906 0.01091224 0.02650325 0.00129374 
0.07554481 0.11448461 0.01576990 0.00333333 0.00158861 0.00511894 0.01064138 0.00478162 0.01281557 0.00377070 0.00182374 0.13764888 0.01149488 0.01090907 0.02657843 0.00129615 
0.07781899 0.11536281 0.01598493 0.00333516 0.00156487 0.00520767 0.01067324 0.00474848 0.01241646 0.00380966 0.00182401 0.13875646 0.01147317 0.01089878 0.02663185 0.00129872 
0.08008588 0.11611945 0.01618045 0.00333571 0.00154358 0.00529152 0.01070221 0.00471600 0.01205846 0.00384542 0.00182452 0.13975111 0.01144405 0.01088146 0.02666358 0.00130145 
0.08233730 0.11675239 0.01635559 0.00333502 0.00152479 0.00537021 0.01072832 0.00468427 0.01174261 0.00387787 0.00182529 0.14063238 0.01140768 0.01085725 0.02667376 0.00130433 
0.08456499 0.11726000 0.01650956 0.00333315 0.00150852 0.00544347 0.01075165 0.00465339 0.01146962 0.00390691 0.00182634 0.14140022 0.01136426 0.01082627 0.02666264 0.00130735 
0.08676062 0.11764115 0.01664166 0.00333018 0.00149481 0.00551106 0.01077224 0.00462345 0.01123997 0.00393248 0.00182769 0.14205497 0.01131401 0.01078868 0.02663060 0.00131050 
0.08891590 0.11789523 0.01675125 0.00332622 0.00148366 0.00557275 0.01079014 0.00459452 0.01105384 0.00395451 0.00182936 0.14259736 0.01125720 0.01074466 0.02657808 0.00131378 
0.09102252 0.11802213 0.01683781 0.00332137 0.00147511 0.00562836 0.01080537 0.00456667 0.01091113 0.00397296 0.00183137 0.14302845 0.01119410 0.01069441 0.02650562 0.00131718 
0.09307225 0.11802223 0.01690086 0.00331576 0.00146914 0.00567769 0.01081796 0.00453997 0.01081148 0.00398780 0.00183371 0.14334966 0.01112504 0.01063814 0.02641386 0.00132069 
0.09505697 0.11789639 0.01694006 0.00330952 0.00146577 0.00572061 0.01082792 0.00451447 0.01075425 0.00399901 0.00183640 0.14356273 0.01105034 0.01057608 0.02630351 0.00132429 
0.09696867 0.11764599 0.01695513 0.00330282 0.00146499 0.00575699 0.01083527 0.00449022 0.01073854 0.00400660 0.00183945 0.14366969 0.01097038 0.01050849 0.02617538 0.00132798 
0.09879955 0.11727281 0.01694588 0.00329581 0.00146677 0.00578672 0.01083999 0.00446727 0.01076321 0.00401059 0.00184285 0.14367287 0.01088551 0.01043563 0.02603031 0.00133173 
0.10054199 0.11677915 0.01691222 0.00328865 0.00147111 0.00580974 0.01084208 0.00444566 0.01082687 0.00401102 0.00184661 0.14357484 0.01079615 0.01035778 0.02586926 0.00133555 
0.10218863 0.11616769 0.01685416 0.00328154 0.00147797 0.00582600 0.01084152 0.00442541 0.01092790 0.00400792 0.00185071 0.14337842 0.01070272 0.01027524 0.02569322 0.00133941 
0.10373240 0.11544158 0.01677179 0.00327464 0.00148732 0.00583549 0.01083828 0.00440657 0.01106446 0.00400137 0.00185515 0.14308664 0.01060562 0.01018832 0.02550324 0.00134330 
0.10516652 0.11460432 0.01666530 0.00326816 0.00149912 0.00583820 0.01083233 0.00438915 0.01123452 0.00399144 0.00185992 0.14270274 0.01050532 0.01009735 0.02530043 0.00134721 
0.10648459 0.11365983 0.01653497 0.00326227 0.00151332 0.00583417 0.01082362 0.00437319 0.01143586 0.00397823 0.00186500 0.14223012 0.01040225 0.01000267 0.02508594 0.00135113 
0.10768056 0.11261237 0.01638115 0.00325718 0.00152985 0.00582346 0.01081211 0.00435870 0.01166608 0.00396184 0.00187038 0.14167235 0.01029686 0.00990462 0.02486097 0.00135503 
0.10874883 0.11146654 0.01620431 0.00325307 0.00154866 0.00580617 0.01079774 0.00434572 0.01192264 0.00394238 0.00187603 0.14103312 0.01018963 0.00980356 0.02462674 0.00135891 
0.10968421 0.11022727 0.01600497 0.00325012 0.00156967 0.00578240 0.01078045 0.00433427 0.01220288 0.00391999 0.00188193 0.14031625 0.01008101 0.00969987 0.02438449 0.00136274 
0.11048198 0.10889975 0.01578378 0.00324853 0.00159281 0.00575229 0.01076018 0.00432438 0.01250401 0.00389481 0.00188806 0.13952564 0.00997147 0.00959393 0.02413551 0.00136652 
0.11113794 0.10748946 0.01554142 0.00324848 0.00161799 0.00571600 0.01073687 0.00431606 0.01282318 0.00386699 0.00189440 0.13866530 0.00986146 0.00948613 0.02388108 0.00137022 
0.11164837 0.10600210 0.01527869 0.00325013 0.00164512 0.00567373 0.01071046 0.00430935 0.01315743 0.00383668 0.00190091 0.13773925 0.00975143 0.00937686 0.02362251 0.00137385 
0.11201009 0.10444359 0.01499644 0.00325364 0.00167409 0.00562567 0.01068086 0.00430429 0.01350381 0.00380406 0.00190757 0.13675162 0.00964184 0.00926653 0.02336110 0.00137737 
0.11222050 0.10282005 0.01469560 0.00325917 0.00170481 0.00557206 0.01064802 0.00430090 0.01385929 0.00376930 0.00191434 0.13570652 0.00953312 0.00915556 0.02309815 0.00138078 
0.11227754 0.10113774 0.01437719 0.00326685 0.00173716 0.00551315 0.01061188 0.00429923 0.01422087 0.00373258 0.00192119 0.13460811 0.00942570 0.00904435 0.02283497 0.00138406 
0.11217975 0.09940305 0.01404226 0.00327682 0.00177101 0.00544921 0.01057237 0.00429931 0.01458558 0.00369409 0.00192809 0.13346054 0.00932000 0.00893334 0.02257285 0.00138720 
0.11192624 0.09762250 0.01369195 0.00328919 0.00180626 0.00538053 0.01052944 0.00430120 0.01495046 0.00365403 0.00193501 0.13226796 0.00921642 0.00882295 0.02231306 0.00139019 
0.11151673 0.09580267 0.01332744 0.00330405 0.00184276 0.00530741 0.01048303 0.00430495 0.01531264 0.00361258 0.00194192 0.13103450 0.00911535 0.00871360 0.02205687 0.00139301 
0.11095154 0.09395018 0.01294999 0.00332149 0.00188038 0.00523018 0.01043311 0.00431062 0.01566932 0.00356995 0.00194878 0.12976428 0.00901714 0.00860573 0.02180551 0.00139566 
0.11023161 0.09207169 0.01256088 0.00334156 0.00191899 0.00514917 0.01037965 0.00431826 0.01601782 0.00352634 0.00195556 0.12846137 0.00892216 0.00849977 0.02156018 0.00139813 
0.10935846 0.09017387 0.01216146 0.00336432 0.00195844 0.00506474 0.01032260 0.00432794 0.01635557 0.00348195 0.00196222 0.12712981 0.00883072 0.00839614 0.02132206 0.00140040 
0.10833421 0.08826333 0.01175311 0.00338980 0.00199857 0.00497722 0.01026197 0.00433974 0.01668015 0.00343698 0.00196875 0.12577360 0.00874314 0.00829529 0.02109231 0.00140247 
0.10716160 0.08634664 0.01133727 0.00341800 0.00203924 0.00488700 0.01019775 0.00435372 0.01698929 0.00339163 0.00197511 0.12439669 0.00865970 0.00819763 0.02087203 0.00140432 
0.10584390 0.08443030 0.01091538 0.00344891 0.00208030 0.00479445 0.01012996 0.00436998 0.01728090 0.00334609 0.00198127 0.12300298 0.00858067 0.00810359 0.02066227 0.00140597 
0.10438501 0.08252069 0.01048895 0.00348250 0.00212158 0.00469995 0.01005861 0.00438858 0.01755309 0.00330055 0.00198722 0.12159629 0.00850627 0.00801358 0.02046408 0.00140739 
0.10278934 0.08062407 0.01005948 0.00351873 0.00216293 0.00460389 0.00998376 0.00440961 0.01780417 0.00325522 0.00199291 0.12018042 0.00843673 0.00792803 0.02027843 0.00140858 
0.10106187 0.07874655 0.00962852 0.00355752 0.00220418 0.00450664 0.00990546 0.00443317 0.01803265 0.00321026 0.00199834 0.11875909 0.00837223 0.00784732 0.02010626 0.00140955 
0.09920806 0.07689408 0.00919762 0.00359879 0.00224518 0.00440861 0.00982378 0.00445934 0.01823729 0.00316586 0.00200349 0.11733597 0.00831293 0.00777185 0.01994844 0.00141028 
0.09723390 0.07507238 0.00876836 0.00364243 0.00228577 0.00431017 0.00973883 0.00448821 0.01841706 0.00312219 0.00200834 0.11591465 0.00825897 0.00770202 0.01980582 0.00141078 
0.09514584 0.07328700 0.00834232 0.00368833 0.00232577 0.00421171 0.00965072 0.00451987 0.01857117 0.00307940 0.00201288 0.11449869 0.00821047 0.00763818 0.01967917 0.00141105 
0.09295077 0.07154322 0.00792108 0.00373633 0.00236504 0.00411361 0.00955957 0.00455441 0.01869911 0.00303767 0.00201710 0.11309156 0.00816751 0.00758070 0.01956921 0.00141109 
0.09065599 0.06984610 0.00750624 0.00378630 0.00240341 0.00401625 0.00946555 0.00459191 0.01880058 0.00299712 0.00202099 0.11169670 0.00813015 0.00752992 0.01947663 0.00141090 
0.08826919 0.06820041 0.00709939 0.00383804 0.00244072 0.00391999 0.00936882 0.00463246 0.01887555 0.00295789 0.00202455 0.11031747 0.00809842 0.00748616 0.01940203 0.00141048 
0.08579843 0.06661066 0.00670210 0.00389138 0.00247683 0.00382519 0.00926958 0.00467615 0.01892424 0.00292012 0.00202777 0.10895716 0.00807234 0.00744973 0.01934596 0.00140985 
0.08325206 0.06508106 0.00631595 0.00394613 0.00251158 0.00373220 0.00916805 0.00472303 0.01894709 0.00288392 0.00203068 0.10761904 0.00805189 0.00742092 0.01930893 0.00140899 
0.08063874 0.06361549 0.00594249 0.00400206 0.00254482 0.00364135 0.00906445 0.00477318 0.01894482 0.00284938 0.00203326 0.10630627 0.00803704 0.00739999 0.01929136 0.00140793 
0.07796736 0.06221755 0.00558326 0.00405897 0.00257642 0.00355297 0.00895905 0.00482667 0.01891836 0.00281660 0.00203552 0.10502199 0.00802772 0.00738718 0.01929363 0.00140667 
0.07524704 0.06089049 0.00523979 0.00411662 0.00260624 0.00346736 0.00885213 0.00488354 0.01886889 0.00278567 0.00203750 0.10376926 0.00802385 0.00738270 0.01931606 0.00140522 
0.07248705 0.05963723 0.00491356 0.00417478 0.00263414 0.00338482 0.00874396 0.00494383 0.01879778 0.00275664 0.00203918 0.10255108 0.00802534 0.00738675 0.01935888 0.00140359 
0.06969683 0.05846035 0.00460603 0.00423321 0.00266001 0.00330562 0.00863488 0.00500758 0.01870664 0.00272957 0.00204061 0.10137037 0.00803205 0.00739949 0.01942228 0.00140178 
0.06688589 0.05736209 0.00431862 0.00429167 0.00268373 0.00323002 0.00852520 0.00507481 0.01859726 0.00270451 0.00204179 0.10023000 0.00804385 0.00742104 0.01950638 0.00139980 
0.06406380 0.05634434 0.00405273 0.00434992 0.00270519 0.00315827 0.00841529 0.00514551 0.01847160 0.00268149 0.00204276 0.09913276 0.00806057 0.00745151 0.01961122 0.00139768 
0.06124018 0.05540865 0.00380970 0.00440770 0.00272428 0.00309057 0.00830549 0.00521969 0.01833180 0.00266052 0.00204354 0.09808137 0.00808203 0.00749097 0.01973681 0.00139542 
0.05842460 0.05455622 0.00359084 0.00446478 0.00274092 0.00302714 0.00819620 0.00529732 0.01818016 0.00264161 0.00204415 0.09707844 0.00810805 0.00753944 0.01988304 0.00139303 
0.05562657 0.05378789 0.00339738 0.00452093 0.00275503 0.00296815 0.00808780 0.00537835 0.01801909 0.00262476 0.00204464 0.09612654 0.00813841 0.00759692 0.02004978 0.00139052 
0.05285555 0.05310419 0.00323052 0.00457590 0.00276652 0.00291375 0.00798069 0.00546274 0.01785111 0.00260994 0.00204503 0.09522810 0.00817289 0.00766338 0.02023680 0.00138791 
0.05012081 0.05250529 0.00309140 0.00462947 0.00277535 0.00286410 0.00787529 0.00555042 0.01767886 0.00259712 0.00204536 0.09438549 0.00821126 0.00773875 0.02044382 0.00138522 
0.04743150 0.05199106 0.00298109 0.00468144 0.00278144 0.00281929 0.00777202 0.00564128 0.01750503 0.00258627 0.00204567 0.09360095 0.00825327 0.00782290 0.02067047 0.00138245 
0.04479655 0.05156101 0.00290061 0.00473159 0.00278476 0.00277942 0.00767130 0.00573521 0.01733236 0.00257733 0.00204598 0.09287660 0.00829867 0.00791570 0.02091634 0.00137962 
0.04222464 0.05121439 0.00285087 0.00477973 0.00278528 0.00274456 0.00757356 0.00583209 0.01716363 0.00257023 0.00204635 0.09221446 0.00834720 0.00801694 0.02118091 0.00137674 
0.03972419 0.05095013 0.00283275 0.00482569 0.00278297 0.00271476 0.00747924 0.00593177 0.01700163 0.00256492 0.00204680 0.09161641 0.00839858 0.00812641 0.02146363 0.00137382 
0.03730333 0.05076688 0.00284701 0.00486930 0.00277783 0.00269003 0.00738876 0.00603407 0.01684913 0.00256129 0.00204738 0.09108419 0.00845255 0.00824384 0.02176384 0.00137088 
0.03496983 0.05066301 0.00289437 0.00491042 0.00276985 0.00267039 0.00730256 0.00613881 0.01670886 0.00255927 0.00204812 0.09061938 0.00850883 0.00836892 0.02208086 0.00136793 
0.03273114 0.05063666 0.00297543 0.00494891 0.00275905 0.00265581 0.00722105 0.00624578 0.01658351 0.00255876 0.00204906 0.09022342 0.00856713 0.00850130 0.02241388 0.00136499 
0.03059429 0.05068573 0.00309071 0.00498467 0.00274545 0.00264624 0.00714465 0.00635474 0.01647567 0.00255966 0.00205024 0.08989758 0.00862717 0.00864061 0.02276207 0.00136206 
0.02856590 0.05080787 0.00324063 0.00501761 0.00272908 0.00264162 0.00707376 0.00646545 0.01638784 0.00256184 0.00205168 0.08964295 0.00868867 0.00878642 0.02312452 0.00135915 
0.02665217 0.05100057 0.00342552 0.00504767 0.00270999 0.00264187 0.00700879 0.00657763 0.01632242 0.00256520 0.00205343 0.08946045 0.00875134 0.00893829 0.02350022 0.00135628 
0.02485883 0.05126111 0.00364559 0.00507478 0.00268824 0.00264689 0.00695009 0.00669101 0.01628165 0.00256962 0.00205552 0.08935080 0.00881491 0.00909572 0.02388815 0.00135345 
0.02319115 0.05158662 0.00390097 0.00509894 0.00266389 0.00265653 0.00689803 0.00680527 0.01626760 0.00257497 0.00205797 0.08931452 0.00887911 0.00925819 0.02428718 0.00135068 
0.02165388 0.05197409 0.00419166 0.00512012 0.00263701 0.00267067 0.00685296 0.00692009 0.01628221 0.00258113 0.00206081 0.08935194 0.00894365 0.00942516 0.02469614 0.00134797 
0.02025129 0.05242037 0.00451756 0.00513836 0.00260770 0.00268913 0.00681518 0.00703514 0.01632718 0.00258797 0.00206406 0.08946317 0.00900828 0.00959602 0.02511380 0.00134533 
0.01898711 0.05292223 0.00487844 0.00515369 0.00257606 0.00271175 0.00678499 0.00715007 0.01640405 0.00259536 0.00206775 0.08964809 0.00907274 0.00977019 0.02553887 0.00134276 
0.01786455 0.05347633 0.00527396 0.00516616 0.00254218 0.00273831 0.00676266 0.00726450 0.01651411 0.00260317 0.00207190 0.08990640 0.00913678 0.00994701 0.02597001 0.00134028 
0.01688627 0.05407929 0.00570367 0.00517587 0.00250619 0.00276862 0.00674841 0.00737807 0.01665844 0.00261128 0.00207651 0.09023753 0.00920014 0.01012585 0.02640582 0.00133788 
0.01605440 0.05472767 0.00616699 0.00518292 0.00246821 0.00280244 0.00674246 0.00749037 0.01683786 0.00261956 0.00208161 0.09064073 0.00926262 0.01030603 0.02684488 0.00133557 
0.01537048 0.05541803 0.00666320 0.00518742 0.00242837 0.00283954 0.00674497 0.00760103 0.01705295 0.00262788 0.00208719 0.09111499 0.00932397 0.01048685 0.02728570 0.00133336 
0.01483554 0.05614689 0.00719149 0.00518952 0.00238681 0.00287967 0.00675609 0.00770963 0.01730404 0.00263613 0.00209326 0.09165909 0.00938400 0.01066761 0.02772678 0.00133123 
0.01445003 0.05691081 0.00775090 0.00518938 0.00234368 0.00292256 0.00677592 0.00781577 0.01759119 0.00264420 0.00209982 0.09227159 0.00944251 0.01084761 0.02816658 0.00132920 
0.01421387 0.05770636 0.00834034 0.00518717 0.00229914 0.00296795 0.00680452 0.00791904 0.01791421 0.00265198 0.00210686 0.09295083 0.00949930 0.01102613 0.02860353 0.00132727 
0.01412640 0.05853016 0.00895861 0.00518308 0.00225333 0.00301556 0.00684191 0.00801903 0.01827262 0.00265936 0.00211439 0.09369493 0.00955423 0.01120246 0.02903605 0.00132542 
0.01418646 0.05937891 0.00960439 0.00517731 0.00220643 0.00306511 0.00688810 0.00811533 0.01866570 0.00266626 0.00212238 0.09450178 0.00960712 0.01137588 0.02946256 0.00132367 
0.01439231 0.06024935 0.01027622 0.00517008 0.00215860 0.00311630 0.00694301 0.00820754 0.01909244 0.00267258 0.00213083 0.09536912 0.00965784 0.01154568 0.02988144 0.00132200 
0.01474173 0.06113833 0.01097252 0.00516161 0.00211001 0.00316885 0.00700657 0.00829528 0.01955159 0.00267824 0.00213970 0.09629443 0.00970627 0.01171116 0.03029111 0.00132042 
0.01523197 0.06204278 0.01169161 0.00515214 0.00206084 0.00322245 0.00707863 0.00837814 0.02004164 0.00268319 0.00214898 0.09727506 0.00975229 0.01187165 0.03068999 0.00131891 
0.01585979 0.06295975 0.01243167 0.00514191 0.00201128 0.00327682 0.00715901 0.00845577 0.02056084 0.00268735 0.00215865 0.09830816 0.00979581 0.01202648 0.03107652 0.00131747 
0.01662145 0.06388640 0.01319079 0.00513115 0.00196149 0.00333166 0.00724752 0.00852779 0.02110719 0.00269068 0.00216866 0.09939072 0.00983677 0.01217501 0.03144914 0.00131610 
0.01751278 0.06482001 0.01396693 0.00512011 0.00191166 0.00338667 0.00734388 0.00859388 0.02167848 0.00269315 0.00217899 0.10051959 0.00987509 0.01231663 0.03180637 0.00131479 
0.01852914 0.06575799 0.01475797 0.00510905 0.00186196 0.00344157 0.00744780 0.00865371 0.02227228 0.00269471 0.00218961 0.10169148 0.00991074 0.01245074 0.03214674 0.00131353 
0.01966548 0.06669788 0.01556167 0.00509819 0.00181259 0.00349607 0.00755894 0.00870700 0.02288596 0.00269536 0.00220046 0.10290298 0.00994369 0.01257681 0.03246884 0.00131232 
0.02091634 0.06763736 0.01637573 0.00508778 0.00176372 0.00354989 0.00767694 0.00875345 0.02351671 0.00269510 0.00221152 0.10415059 0.00997394 0.01269431 0.03277133 0.00131113 
0.02227588 0.06857425 0.01719773 0.00507804 0.00171553 0.00360276 0.00780139 0.00879285 0.02416155 0.00269391 0.00222274 0.10543071 0.01000149 0.01280278 0.03305291 0.00130998 
0.02373792 0.06950648 0.01802520 0.00506922 0.00166819 0.00365443 0.00793184 0.00882497 0.02481736 0.00269183 0.00223407 0.10673968 0.01002638 0.01290179 0.03331237 0.00130884 
0.02529595 0.07043214 0.01885558 0.00506150 0.00162188 0.00370463 0.00806781 0.00884963 0.02548089 0.00268888 0.00224548 0.10807379 0.01004863 0.01299096 0.03354861 0.00130772 
0.02694314 0.07134945 0.01968628 0.00505511 0.00157676 0.00375314 0.00820880 0.00886670 0.02614877 0.00268510 0.00225690 0.10942929 0.01006832 0.01306996 0.03376056 0.00130659 
0.02867241 0.07225674 0.02051463 0.00505022 0.00153301 0.00379972 0.00835427 0.00887607 0.02681755 0.00268054 0.00226829 0.11080243 0.01008552 0.01313851 0.03394731 0.00130546 
0.03047643 0.07315248 0.02133794 0.00504700 0.00149078 0.00384416 0.00850365 0.00887768 0.02748372 0.00267527 0.00227961 0.11218945 0.01010031 0.01319639 0.03410801 0.00130431 
0.03234766 0.07403526 0.02215347 0.00504561 0.00145024 0.00388626 0.00865637 0.00887150 0.02814371 0.00266934 0.00229081 0.11358662 0.01011281 0.01324344 0.03424194 0.00130313 
0.03427835 0.07490377 0.02295847 0.00504618 0.00141152 0.00392585 0.00881182 0.00885756 0.02879393 0.00266286 0.00230184 0.11499025 0.01012314 0.01327953 0.03434848 0.00130192 
0.03626064 0.07575682 0.02375019 0.00504883 0.00137478 0.00396275 0.00896936 0.00883592 0.02943081 0.00265590 0.00231265 0.11639669 0.01013142 0.01330463 0.03442716 0.00130067 
0.03828651 0.07659329 0.02452587 0.00505364 0.00134015 0.00399682 0.00912835 0.00880669 0.03005078 0.00264857 0.00232320 0.11780239 0.01013781 0.01331873 0.03447759 0.00129937 
0.04034788 0.07741217 0.02528276 0.00506069 0.00130777 0.00402794 0.00928815 0.00877003 0.03065033 0.00264097 0.00233346 0.11920387 0.01014246 0.01332192 0.03449956 0.00129802 
0.04243657 0.07821254 0.02601815 0.00507002 0.00127776 0.00405598 0.00944808 0.00872615 0.03122600 0.00263322 0.00234337 0.12059775 0.01014555 0.01331431 0.03449294 0.00129661 
0.04454442 0.07899353 0.02672936 0.00508165 0.00125023 0.00408087 0.00960749 0.00867531 0.03177444 0.00262545 0.00235290 0.12198077 0.01014725 0.01329609 0.03445777 0.00129513 
0.04666323 0.07975436 0.02741374 0.00509558 0.00122530 0.00410254 0.00976569 0.00861780 0.03229239 0.00261778 0.00236202 0.12334982 0.01014776 0.01326752 0.03439420 0.00129359 
0.04878487 0.08049427 0.02806875 0.00511179 0.00120307 0.00412092 0.00992201 0.00855399 0.03277673 0.00261035 0.00237069 0.12470190 0.01014728 0.01322888 0.03430253 0.00129197 
0.05090125 0.08121258 0.02869187 0.00513021 0.00118363 0.00413600 0.01007580 0.00848428 0.03322450 0.00260329 0.00237889 0.12603417 0.01014601 0.01318053 0.03418319 0.00129028 
0.05300439 0.08190864 0.02928070 0.00515078 0.00116707 0.00414777 0.01022638 0.00840911 0.03363288 0.00259674 0.00238660 0.12734395 0.01014416 0.01312289 0.03403674 0.00128851 
0.05508643 0.08258184 0.02983293 0.00517339 0.00115346 0.00415624 0.01037310 0.00832898 0.03399927 0.00259086 0.00239380 0.12862874 0.01014195 0.01305641 0.03386386 0.00128667 
0.05713966 0.08323158 0.03034635 0.00519792 0.00114287 0.00416145 0.01051535 0.00824444 0.03432126 0.00258578 0.00240046 0.12988618 0.01013960 0.01298160 0.03366538 0.00128475 
0.05915657 0.08385729 0.03081887 0.00522421 0.00113537 0.00416344 0.01065248 0.00815607 0.03459664 0.00258165 0.00240659 0.13111412 0.01013733 0.01289902 0.03344223 0.00128276 
0.06112984 0.08445842 0.03124856 0.00525211 0.00113100 0.00416229 0.01078391 0.00806450 0.03482345 0.00257862 0.00241218 0.13231055 0.01013538 0.01280925 0.03319546 0.00128070 
0.06305240 0.08503443 0.03163358 0.00528141 0.00112980 0.00415811 0.01090906 0.00797039 0.03499998 0.00257683 0.00241723 0.13347367 0.01013395 0.01271292 0.03292625 0.00127858 
0.06491744 0.08558479 0.03197229 0.00531190 0.00113181 0.00415099 0.01102738 0.00787445 0.03512476 0.00257642 0.00242174 0.13460185 0.01013328 0.01261070 0.03263586 0.00127639 
0.06671842 0.08610896 0.03226318 0.00534336 0.00113706 0.00414107 0.01113835 0.00777743 0.03519658 0.00257753 0.00242573 0.13569363 0.01013358 0.01250328 0.03232567 0.00127415 
0.06844914 0.08660642 0.03250491 0.00537554 0.00114556 0.00412849 0.01124149 0.00768008 0.03521452 0.00258030 0.00242922 0.13674772 0.01013507 0.01239138 0.03199712 0.00127186 
0.07010368 0.08707665 0.03269634 0.00540818 0.00115732 0.00411343 0.01133633 0.00758322 0.03517792 0.00258485 0.00243221 0.13776301 0.01013795 0.01227574 0.03165177 0.00126954 
0.07167653 0.08751911 0.03283648 0.00544101 0.00117234 0.00409606 0.01142247 0.00748765 0.03508640 0.00259131 0.00243475 0.13873855 0.01014244 0.01215710 0.03129121 0.00126718 
0.07316249 0.08793331 0.03292455 0.00547374 0.00119061 0.00407658 0.01149951 0.00739422 0.03493987 0.00259980 0.00243686 0.13967353 0.01014872 0.01203623 0.03091712 0.00126480 
0.07455678 0.08831872 0.03295997 0.00550607 0.00121212 0.00405519 0.01156714 0.00730379 0.03473853 0.00261041 0.00243858 0.14056732 0.01015697 0.01191390 0.03053123 0.00126242 
0.07585500 0.08867485 0.03294234 0.00553772 0.00123684 0.00403211 0.01162504 0.00721722 0.03448285 0.00262326 0.00243994 0.14141939 0.01016739 0.01179087 0.03013528 0.00126004 
0.07705317 0.08900120 0.03287146 0.00556838 0.00126474 0.00400758 0.01167297 0.00713539 0.03417359 0.00263843 0.00244100 0.14222937 0.01018012 0.01166792 0.02973109 0.00125768 
0.07814773 0.08929729 0.03274736 0.00559774 0.00129579 0.00398182 0.01171072 0.00705917 0.03381177 0.00265600 0.00244180 0.14299700 0.01019531 0.01154580 0.02932046 0.00125535 
0.07913553 0.08956269 0.03257026 0.00562550 0.00132992 0.00395508 0.01173813 0.00698943 0.03339869 0.00267605 0.00244239 0.14372213 0.01021311 0.01142525 0.02890520 0.00125307 
0.08001390 0.08979696 0.03234057 0.00565135 0.00136710 0.00392761 0.01175509 0.00692704 0.03293591 0.00269863 0.00244283 0.14440472 0.01023363 0.01130700 0.02848714 0.00125084 
0.08078057 0.08999971 0.03205893 0.00567501 0.00140726 0.00389967 0.01176153 0.00687284 0.03242524 0.00272380 0.00244317 0.14504479 0.01025698 0.01119176 0.02806808 0.00124869 
0.08143375 0.09017060 0.03172617 0.00569618 0.00145032 0.00387152 0.01175745 0.00682767 0.03186874 0.00275158 0.00244348 0.14564248 0.01028325 0.01108020 0.02764979 0.00124663 
0.08197208 0.09030930 0.03134333 0.00571459 0.00149623 0.00384340 0.01174287 0.00679232 0.03126869 0.00278202 0.00244382 0.14619797 0.01031251 0.01097296 0.02723401 0.00124468 
0.08239466 0.09041559 0.03091164 0.00572997 0.00154488 0.00381558 0.01171787 0.00676757 0.03062759 0.00281511 0.00244424 0.14671149 0.01034482 0.01087067 0.02682245 0.00124285 
0.08270103 0.09048925 0.03043251 0.00574206 0.00159620 0.00378830 0.01168260 0.00675417 0.02994814 0.00285086 0.00244482 0.14718336 0.01038021 0.01077390 0.02641673 0.00124116 
0.08289117 0.09053018 0.02990754 0.00575064 0.00165009 0.00376182 0.01163721 0.00675281 0.02923323 0.00288926 0.00244560 0.14761390 0.01041869 0.01068318 0.02601844 0.00123962 
0.08296552 0.09053832 0.02933854 0.00575550 0.00170645 0.00373638 0.01158195 0.00676416 0.02848592 0.00293028 0.00244667 0.14800347 0.01046028 0.01059901 0.02562907 0.00123825 
0.08292494 0.09051370 0.02872744 0.00575642 0.00176518 0.00371221 0.01151709 0.00678881 0.02770943 0.00297390 0.00244806 0.14835247 0.01050493 0.01052184 0.02525004 0.00123706 
0.08277069 0.09045644 0.02807636 0.00575325 0.00182615 0.00368953 0.01144294 0.00682731 0.02690710 0.00302005 0.00244985 0.14866131 0.01055263 0.01045206 0.02488269 0.00123608 
0.08250448 0.09036676 0.02738758 0.00574583 0.00188926 0.00366856 0.01135986 0.00688018 0.02608241 0.00306869 0.00245209 0.14893041 0.01060329 0.01039003 0.02452823 0.00123530 
0.08212840 0.09024496 0.02666349 0.00573404 0.00195437 0.00364950 0.01126826 0.00694782 0.02523891 0.00311975 0.00245482 0.14916019 0.01065685 0.01033604 0.02418781 0.00123476 
0.08164493 0.09009147 0.02590665 0.00571778 0.00202137 0.00363254 0.01116858 0.00703062 0.02438025 0.00317313 0.00245811 0.14935109 0.01071320 0.01029036 0.02386245 0.00123445 
0.08105694 0.08990679 0.02511971 0.00569698 0.00209012 0.00361783 0.01106132 0.00712886 0.02351014 0.00322876 0.00246198 0.14950355 0.01077224 0.01025317 0.02355305 0.00123439 
0.08036763 0.08969155 0.02430544 0.00567159 0.00216047 0.00360556 0.01094697 0.00724278 0.02263232 0.00328652 0.00246649 0.14961799 0.01083381 0.01022462 0.02326041 0.00123460 
0.07958056 0.08944651 0.02346670 0.00564161 0.00223229 0.00359583 0.01082611 0.00737251 0.02175055 0.00334630 0.00247167 0.14969487 0.01089777 0.01020482 0.02298522 0.00123508 
0.07869962 0.08917250 0.02260642 0.00560705 0.00230542 0.00358879 0.01069931 0.00751813 0.02086860 0.00340799 0.00247754 0.14973460 0.01096395 0.01019379 0.02272802 0.00123583 
0.07772899 0.08887051 0.02172762 0.00556794 0.00237971 0.00358452 0.01056720 0.00767963 0.01999022 0.00347146 0.00248412 0.14973764 0.01103216 0.01019153 0.02248927 0.00123688 
0.07667314 0.08854162 0.02083336 0.00552437 0.00245502 0.00358311 0.01043040 0.00785692 0.01911911 0.00353656 0.00249143 0.14970443 0.01110220 0.01019799 0.02226927 0.00123822 
0.07553682 0.08818701 0.01992674 0.00547644 0.00253116 0.00358461 0.01028958 0.00804983 0.01825893 0.00360316 0.00249948 0.14963543 0.01117384 0.01021306 0.02206824 0.00123985 
0.07432500 0.08780799 0.01901089 0.00542428 0.00260799 0.00358906 0.01014542 0.00825811 0.01741325 0.00367110 0.00250826 0.14953112 0.01124687 0.01023660 0.02188625 0.00124178 
0.07304289 0.08740597 0.01808894 0.00536804 0.00268533 0.00359648 0.00999863 0.00848143 0.01658555 0.00374023 0.00251777 0.14939197 0.01132103 0.01026841 0.02172328 0.00124402 
0.07169589 0.08698246 0.01716402 0.00530792 0.00276302 0.00360686 0.00984991 0.00871936 0.01577922 0.00381040 0.00252798 0.14921852 0.01139608 0.01030825 0.02157918 0.00124655 
0.07028960 0.08653906 0.01623926 0.00524411 0.00284087 0.00362017 0.00970000 0.00897141 0.01499750 0.00388142 0.00253889 0.14901131 0.01147174 0.01035586 0.02145371 0.00124939 
0.06882976 0.08607748 0.01531775 0.00517686 0.00291870 0.00363638 0.00954961 0.00923702 0.01424351 0.00395314 0.00255045 0.14877093 0.01154775 0.01041092 0.02134653 0.00125252 
0.06732224 0.08559949 0.01440251 0.00510643 0.00299635 0.00365539 0.00939948 0.00951552 0.01352019 0.00402539 0.00256262 0.14849801 0.01162382 0.01047309 0.02125718 0.00125594 
0.06577304 0.08510694 0.01349655 0.00503309 0.00307362 0.00367714 0.00925035 0.00980619 0.01283035 0.00409799 0.00257535 0.14819325 0.01169968 0.01054199 0.02118514 0.00125964 
0.06418823 0.08460176 0.01260277 0.00495714 0.00315034 0.00370150 0.00910294 0.01010824 0.01217658 0.00417077 0.00258859 0.14785740 0.01177504 0.01061723 0.02112979 0.00126362 
0.06257395 0.08408592 0.01172400 0.00487890 0.00322631 0.00372834 0.00895798 0.01042081 0.01156132 0.00424355 0.00260228 0.14749127 0.01184960 0.01069838 0.02109044 0.00126786 
0.06093640 0.08356144 0.01086299 0.00479870 0.00330135 0.00375753 0.00881617 0.01074296 0.01098676 0.00431617 0.00261633 0.14709576 0.01192308 0.01078500 0.02106633 0.00127235 
0.05928179 0.08303038 0.01002237 0.00471689 0.00337527 0.00378888 0.00867822 0.01107372 0.01045493 0.00438844 0.00263068 0.14667186 0.01199519 0.01087662 0.02105664 0.00127708 
0.05761632 0.08249483 0.00920466 0.00463381 0.00344789 0.00382223 0.00854480 0.01141204 0.00996761 0.00446019 0.00264523 0.14622062 0.01206565 0.01097276 0.02106050 0.00128203 
0.05594619 0.08195688 0.00841224 0.00454985 0.00351902 0.00385737 0.00841656 0.01175683 0.00952638 0.00453126 0.00265989 0.14574321 0.01213417 0.01107294 0.02107698 0.00128719 
0.05427754 0.08141864 0.00764739 0.00446536 0.00358846 0.00389409 0.00829416 0.01210696 0.00913256 0.00460147 0.00267457 0.14524090 0.01220048 0.01117665 0.02110515 0.00129254 
0.05261647 0.08088219 0.00691222 0.00438072 0.00365605 0.00393217 0.00817818 0.01246126 0.00878728 0.00467066 0.00268916 0.14471504 0.01226431 0.01128339 0.02114401 0.00129806 
0.05096896 0.08034960 0.00620870 0.00429631 0.00372158 0.00397137 0.00806920 0.01281852 0.00849140 0.00473866 0.00270355 0.14416712 0.01232542 0.01139265 0.02119257 0.00130372 
0.04934094 0.07982291 0.00553865 0.00421250 0.00378488 0.00401146 0.00796777 0.01317750 0.00824555 0.00480532 0.00271764 0.14359873 0.01238355 0.01150394 0.02124982 0.00130951 
0.04773818 0.07930410 0.00490371 0.00412967 0.00384578 0.00405217 0.00787439 0.01353697 0.00805014 0.00487048 0.00273130 0.14301155 0.01243848 0.01161673 0.02131474 0.00131540 
0.04616633 0.07879510 0.00430538 0.00404817 0.00390409 0.00409325 0.00778952 0.01389565 0.00790534 0.00493399 0.00274443 0.14240742 0.01249000 0.01173054 0.02138633 0.00132138 
0.04463087 0.07829779 0.00374497 0.00396837 0.00395964 0.00413444 0.00771360 0.01425227 0.00781107 0.00499569 0.00275690 0.14178825 0.01253790 0.01184487 0.02146360 0.00132740 
0.04313714 0.07781395 0.00322363 0.00389061 0.00401228 0.00417547 0.00764699 0.01460556 0.00776704 0.00505545 0.00276859 0.14115608 0.01258200 0.01195924 0.02154555 0.00133345 
0.04169027 0.07734526 0.00274235 0.00381523 0.00406183 0.00421609 0.00759003 0.01495425 0.00777272 0.00511313 0.00277939 0.14051308 0.01262214 0.01207317 0.02163126 0.00133951 
0.04029519 0.07689332 0.00230190 0.00374253 0.00410815 0.00425601 0.00754301 0.01529709 0.00782738 0.00516859 0.00278917 0.13986148 0.01265817 0.01218620 0.02171978 0.00134554 
0.03895662 0.07645963 0.00190292 0.00367283 0.00415109 0.00429499 0.00750617 0.01563285 0.00793005 0.00522170 0.00279783 0.13920366 0.01268999 0.01229789 0.02181026 0.00135152 
0.03767907 0.07604554 0.00154586 0.00360639 0.00419051 0.00433277 0.00747968 0.01596031 0.00807959 0.00527234 0.00280525 0.13854206 0.01271747 0.01240780 0.02190184 0.00135742 
0.03646677 0.07565229 0.00123100 0.00354349 0.00422627 0.00436908 0.00746367 0.01627831 0.00827462 0.00532040 0.00281132 0.13787922 0.01274056 0.01251552 0.02199375 0.00136322 
0.03532375 0.07528100 0.00095843 0.00348436 0.00425825 0.00440370 0.00745824 0.01658570 0.00851361 0.00536575 0.00281594 0.13721778 0.01275919 0.01262064 0.02208524 0.00136888 
0.03425374 0.07493262 0.00072810 0.00342921 0.00428635 0.00443637 0.00746338 0.01688138 0.00879483 0.00540829 0.00281901 0.13656041 0.01277334 0.01272279 0.02217563 0.00137438 
0.03326022 0.07460799 0.00053978 0.00337823 0.00431045 0.00446689 0.00747909 0.01716432 0.00911639 0.00544791 0.00282044 0.13590989 0.01278299 0.01282159 0.02226431 0.00137970 
0.03234638 0.07430777 0.00039309 0.00333159 0.00433047 0.00449502 0.00750526 0.01743351 0.00947625 0.00548452 0.00282015 0.13526901 0.01278817 0.01291669 0.02235070 0.00138481 
0.03151514 0.07403247 0.00028749 0.00328941 0.00434632 0.00452058 0.00754177 0.01768804 0.00987222 0.00551801 0.00281805 0.13464061 0.01278892 0.01300777 0.02243432 0.00138968 
0.03076912 0.07378246 0.00022230 0.00325181 0.00435794 0.00454338 0.00758840 0.01792703 0.01030199 0.00554831 0.00281409 0.13402757 0.01278529 0.01309451 0.02251472 0.00139429 
0.03011063 0.07355794 0.00019668 0.00321887 0.00436528 0.00456325 0.00764492 0.01814968 0.01076312 0.00557534 0.00280820 0.13343275 0.01277739 0.01317660 0.02259154 0.00139862 
0.02954172 0.07335894 0.00020969 0.00319064 0.00436828 0.00458004 0.00771102 0.01835526 0.01125307 0.00559900 0.00280035 0.13285905 0.01276532 0.01325377 0.02266445 0.00140264 
0.02906408 0.07318536 0.00026022 0.00316713 0.00436693 0.00459360 0.00778635 0.01854313 0.01176922 0.00561923 0.00279048 0.13230931 0.01274921 0.01332575 0.02273323 0.00140634 
0.02867914 0.07303690 0.00034707 0.00314836 0.00436120 0.00460381 0.00787051 0.01871271 0.01230886 0.00563597 0.00277858 0.13178636 0.01272922 0.01339229 0.02279768 0.00140969 
0.02838798 0.07291315 0.00046892 0.00313427 0.00435110 0.00461059 0.00796303 0.01886350 0.01286924 0.00564915 0.00276463 0.13129298 0.01270552 0.01345315 0.02285768 0.00141268 
0.02819142 0.07281350 0.00062435 0.00312482 0.00433665 0.00461385 0.00806344 0.01899509 0.01344755 0.00565872 0.00274863 0.13083186 0.01267830 0.01350810 0.02291316 0.00141530 
0.02808991 0.07273723 0.00081184 0.00311991 0.00431787 0.00461351 0.00817119 0.01910715 0.01404094 0.00566462 0.00273060 0.13040565 0.01264778 0.01355693 0.02296411 0.00141753 
0.02808365 0.07268346 0.00102979 0.00311943 0.00429482 0.00460955 0.00828569 0.01919944 0.01464656 0.00566683 0.00271055 0.13001687 0.01261418 0.01359945 0.02301057 0.00141935 
0.02817249 0.07265117 0.00127651 0.00312325 0.00426754 0.00460194 0.00840634 0.01927180 0.01526156 0.00566529 0.00268852 0.12966793 0.01257773 0.01363547 0.02305262 0.00142075 
0.02835601 0.07263921 0.00155026 0.00313121 0.00423613 0.00459067 0.00853248 0.01932416 0.01588309 0.00565998 0.00266457 0.12936111 0.01253871 0.01366480 0.02309041 0.00142174 
0.02863346 0.07264630 0.00184924 0.00314311 0.00420067 0.00457576 0.00866342 0.01935652 0.01650833 0.00565088 0.00263874 0.12909855 0.01249735 0.01368729 0.02312408 0.00142230 
0.02900383 0.07267107 0.00217159 0.00315877 0.00416127 0.00455724 0.00879846 0.01936897 0.01713452 0.00563798 0.00261113 0.12888222 0.01245395 0.01370276 0.02315386 0.00142242 
0.02946579 0.07271201 0.00251542 0.00317796 0.00411806 0.00453517 0.00893687 0.01936169 0.01775892 0.00562125 0.00258181 0.12871389 0.01240878 0.01371108 0.02317998 0.00142211 
0.03001775 0.07276753 0.00287880 0.00320044 0.00407117 0.00450962 0.00907789 0.01933494 0.01837890 0.00560071 0.00255088 0.12859518 0.01236212 0.01371210 0.02320270 0.00142137 
0.03065784 0.07283597 0.00325979 0.00322597 0.00402076 0.00448067 0.00922076 0.01928904 0.01899187 0.00557637 0.00251845 0.12852747 0.01231426 0.01370568 0.02322230 0.00142020 
0.03138393 0.07291557 0.00365643 0.00325427 0.00396699 0.00444843 0.00936470 0.01922441 0.01959537 0.00554823 0.00248465 0.12851191 0.01226550 0.01369170 0.02323909 0.00141860 
0.03219361 0.07300451 0.00406675 0.00328507 0.00391004 0.00441303 0.00950892 0.01914151 0.02018703 0.00551633 0.00244961 0.12854943 0.01221611 0.01367004 0.02325337 0.00141658 
0.03308424 0.07310095 0.00448879 0.00331809 0.00385012 0.00437458 0.00965264 0.01904089 0.02076458 0.00548070 0.00241347 0.12864073 0.01216638 0.01364060 0.02326548 0.00141415 
0.03405296 0.07320298 0.00492060 0.00335303 0.00378742 0.00433326 0.00979508 0.01892317 0.02132591 0.00544138 0.00237638 0.12878621 0.01211660 0.01360326 0.02327572 0.00141133 
0.03509665 0.07330867 0.00536025 0.00338961 0.00372217 0.00428921 0.00993546 0.01878901 0.02186904 0.00539844 0.00233850 0.12898603 0.01206703 0.01355794 0.02328442 0.00140811 
0.03621200 0.07341610 0.00580584 0.00342752 0.00365459 0.00424261 0.01007301 0.01863914 0.02239211 0.00535193 0.00230001 0.12924008 0.01201795 0.01350454 0.02329189 0.00140453 
0.03739549 0.07352332 0.00625549 0.00346646 0.00358492 0.00419365 0.01020700 0.01847434 0.02289346 0.00530193 0.00226107 0.12954794 0.01196959 0.01344300 0.02329842 0.00140059 
0.03864341 0.07362843 0.00670737 0.00350615 0.00351341 0.00414251 0.01033668 0.01829542 0.02337155 0.00524853 0.00222188 0.12990892 0.01192221 0.01337325 0.02330432 0.00139632 
0.03995188 0.07372953 0.00715971 0.00354628 0.00344031 0.00408941 0.01046137 0.01810324 0.02382504 0.00519183 0.00218261 0.13032202 0.01187603 0.01329524 0.02330984 0.00139174 
0.04131685 0.07382478 0.00761076 0.00358658 0.00336589 0.00403455 0.01058038 0.01789872 0.02425275 0.00513193 0.00214347 0.13078598 0.01183126 0.01320891 0.02331523 0.00138686 
0.04273414 0.07391239 0.00805885 0.00362676 0.00329042 0.00397814 0.01069309 0.01768277 0.02465369 0.00506896 0.00210463 0.13129919 0.01178810 0.01311425 0.02332072 0.00138172 
0.04419940 0.07399063 0.00850237 0.00366656 0.00321416 0.00392040 0.01079888 0.01745635 0.02502706 0.00500305 0.00206631 0.13185979 0.01174672 0.01301124 0.02332650 0.00137633 
0.04570821 0.07405787 0.00893977 0.00370571 0.00313740 0.00386156 0.01089720 0.01722044 0.02537222 0.00493434 0.00202870 0.13246561 0.01170729 0.01289988 0.02333273 0.00137073 
0.04725600 0.07411256 0.00936958 0.00374398 0.00306041 0.00380184 0.01098753 0.01697602 0.02568874 0.00486299 0.00199200 0.13311416 0.01166993 0.01278020 0.02333955 0.00136494 
0.04883814 0.07415326 0.00979039 0.00378112 0.00298346 0.00374146 0.01106940 0.01672408 0.02597639 0.00478916 0.00195641 0.13380271 0.01163478 0.01265221 0.02334705 0.00135899 
0.05044993 0.07417865 0.01020088 0.00381693 0.00290684 0.00368064 0.01114240 0.01646564 0.02623510 0.00471303 0.00192211 0.13452823 0.01160192 0.01251600 0.02335531 0.00135291 
0.05208658 0.07418753 0.01059980 0.00385120 0.00283082 0.00361962 0.01120616 0.01620169 0.02646503 0.00463480 0.00188931 0.13528741 0.01157144 0.01237162 0.02336435 0.00134673 
0.05374329 0.07417884 0.01098600 0.00388375 0.00275568 0.00355859 0.01126036 0.01593321 0.02666648 0.00455464 0.00185819 0.13607672 0.01154337 0.01221920 0.02337416 0.00134048 
0.05541522 0.07415167 0.01135839 0.00391441 0.00268167 0.00349779 0.01130476 0.01566120 0.02683997 0.00447279 0.00182893 0.13689235 0.01151777 0.01205884 0.02338472 0.00133418 
0.05709750 0.07410527 0.01171598 0.00394304 0.00260906 0.00343742 0.01133916 0.01538660 0.02698618 0.00438946 0.00180171 0.13773027 0.01149463 0.01189070 0.02339593 0.00132788 
0.05878530 0.07403903 0.01205787 0.00396950 0.00253812 0.00337767 0.01136342 0.01511037 0.02710598 0.00430486 0.00177669 0.13858625 0.01147394 0.01171496 0.02340770 0.00132160 
0.06047376 0.07395252 0.01238325 0.00399369 0.00246907 0.00331876 0.01137746 0.01483341 0.02720038 0.00421925 0.00175405 0.13945585 0.01145567 0.01153182 0.02341987 0.00131537 
0.06215810 0.07384550 0.01269137 0.00401551 0.00240216 0.00326086 0.01138128 0.01455661 0.02727059 0.00413286 0.00173392 0.14033446 0.01143977 0.01134151 0.02343227 0.00130922 
0.06383354 0.07371788 0.01298159 0.00403489 0.00233762 0.00320415 0.01137492 0.01428082 0.02731793 0.00404595 0.00171646 0.14121730 0.01142616 0.01114431 0.02344469 0.00130318 
0.06549538 0.07356976 0.01325336 0.00405178 0.00227565 0.00314880 0.01135848 0.01400685 0.02734390 0.00395876 0.00170178 0.14209948 0.01141475 0.01094051 0.02345690 0.00129728 
0.06713900 0.07340142 0.01350621 0.00406614 0.00221647 0.00309498 0.01133212 0.01373547 0.02735011 0.00387157 0.00169001 0.14297600 0.01140543 0.01073042 0.02346862 0.00129155 
0.06875984 0.07321332 0.01373975 0.00407795 0.00216026 0.00304283 0.01129607 0.01346742 0.02733830 0.00378464 0.00168126 0.14384176 0.01139806 0.01051441 0.02347958 0.00128601 
0.07035345 0.07300612 0.01395367 0.00408721 0.00210719 0.00299248 0.01125059 0.01320336 0.02731033 0.00369823 0.00167561 0.14469161 0.01139251 0.01029286 0.02348945 0.00128069 
