0.03427902 0.04119751 0.01682071 0.00410873 0.00157813 0.00310853 0.00428012 0.00437485 0.01675858 0.00173897 0.00144970 0.04556647 0.00715474 0.00627101 0.01043386 0.00130514 
0.03430260 0.04089721 0.01742528 0.00403550 0.00156328 0.00315989 0.00422807 0.00434234 0.01649922 0.00177219 0.00145519 0.04466331 0.00706814 0.00636318 0.01067699 0.00130048 
0.03429764 0.04056641 0.01802859 0.00396176 0.00154745 0.00320953 0.00417517 0.00430985 0.01624035 0.00180508 0.00146036 0.04376735 0.00698697 0.00645618 0.01088827 0.00129563 
0.03426487 0.04020656 0.01862834 0.00388797 0.00153075 0.00325720 0.00412166 0.00427748 0.01598289 0.00183755 0.00146516 0.04288180 0.00691220 0.00654976 0.01106590 0.00129063 
0.03420517 0.03981925 0.01922217 0.00381458 0.00151330 0.00330272 0.00406784 0.00424535 0.01572777 0.00186948 0.00146956 0.04200974 0.00684475 0.00664364 0.01120839 0.00128548 
0.03411964 0.03940615 0.01980771 0.00374203 0.00149521 0.00334589 0.00401399 0.00421355 0.01547598 0.00190077 0.00147353 0.04115421 0.00678557 0.00673753 0.01131453 0.00128022 
0.03400951 0.03896908 0.02038257 0.00367076 0.00147661 0.00338655 0.00396044 0.00418219 0.01522850 0.00193133 0.00147701 0.04031811 0.00673552 0.00683113 0.01138341 0.00127486 
0.03387619 0.03850994 0.02094436 0.00360119 0.00145765 0.00342453 0.00390753 0.00415139 0.01498632 0.00196106 0.00147998 0.03950424 0.00669548 0.00692417 0.01141441 0.00126944 
0.03372125 0.03803072 0.02149069 0.00353374 0.00143845 0.00345971 0.00385561 0.00412125 0.01475044 0.00198989 0.00148242 0.03871528 0.00666627 0.00701633 0.01140723 0.00126399 
0.03354639 0.03753351 0.02201922 0.00346881 0.00141915 0.00349197 0.00380504 0.00409189 0.01452188 0.00201774 0.00148428 0.03795379 0.00664864 0.00710732 0.01136190 0.00125853 
0.03335345 0.03702047 0.02252764 0.00340677 0.00139990 0.00352122 0.00375620 0.00406342 0.01430162 0.00204453 0.00148555 0.03722217 0.00664333 0.00719683 0.01127876 0.00125310 
0.03314440 0.03649381 0.02301368 0.00334799 0.00138083 0.00354739 0.00370949 0.00403596 0.01409066 0.00207020 0.00148620 0.03652273 0.00665099 0.00728457 0.01115848 0.00124772 
0.03292131 0.03595581 0.02347514 0.00329281 0.00136210 0.00357043 0.00366532 0.00400961 0.01388995 0.00209471 0.00148623 0.03585760 0.00667225 0.00737024 0.01100204 0.00124244 
0.03268635 0.03540881 0.02390992 0.00324155 0.00134384 0.00359032 0.00362409 0.00398451 0.01370044 0.00211800 0.00148561 0.03522879 0.00670763 0.00745354 0.01081076 0.00123729 
0.03244178 0.03485515 0.02431598 0.00319450 0.00132619 0.00360705 0.00358623 0.00396074 0.01352306 0.00214003 0.00148435 0.03463813 0.00675762 0.00753419 0.01058627 0.00123230 
0.03218992 0.03429723 0.02469140 0.00315193 0.00130931 0.00362064 0.00355216 0.00393844 0.01335868 0.00216078 0.00148244 0.03408735 0.00682261 0.00761191 0.01033051 0.00122750 
0.03193314 0.03373743 0.02503437 0.00311407 0.00129332 0.00363112 0.00352230 0.00391772 0.01320814 0.00218023 0.00147989 0.03357799 0.00690293 0.00768642 0.01004573 0.00122293 
0.03167387 0.03317817 0.02534321 0.00308113 0.00127836 0.00363856 0.00349709 0.00389867 0.01307226 0.00219836 0.00147670 0.03311146 0.00699883 0.00775745 0.00973445 0.00121863 
0.03141453 0.03262182 0.02561636 0.00305330 0.00126457 0.00364305 0.00347696 0.00388142 0.01295177 0.00221518 0.00147288 0.03268902 0.00711049 0.00782476 0.00939950 0.00121462 
0.03115759 0.03207077 0.02585243 0.00303073 0.00125206 0.00364467 0.00346233 0.00386606 0.01284739 0.00223069 0.00146845 0.03231179 0.00723799 0.00788811 0.00904397 0.00121094 
0.03090546 0.03152736 0.02605015 0.00301353 0.00124096 0.00364356 0.00345362 0.00385271 0.01275974 0.00224491 0.00146345 0.03198072 0.00738135 0.00794726 0.00867119 0.00120763 
0.03066057 0.03099388 0.02620845 0.00300179 0.00123138 0.00363985 0.00345124 0.00384146 0.01268942 0.00225786 0.00145788 0.03169664 0.00754049 0.00800201 0.00828474 0.00120471 
0.03042527 0.03047257 0.02632639 0.00299556 0.00122343 0.00363371 0.00345561 0.00383242 0.01263693 0.00226959 0.00145180 0.03146023 0.00771525 0.00805215 0.00788839 0.00120222 
0.03020187 0.02996563 0.02640324 0.00299487 0.00121721 0.00362530 0.00346710 0.00382568 0.01260272 0.00228012 0.00144523 0.03127203 0.00790540 0.00809751 0.00748613 0.00120017 
0.02999261 0.02947514 0.02643842 0.00299970 0.00121280 0.00361483 0.00348611 0.00382133 0.01258717 0.00228952 0.00143822 0.03113246 0.00811062 0.00813793 0.00708210 0.00119860 
0.02979963 0.02900313 0.02643155 0.00301001 0.00121030 0.00360248 0.00351298 0.00381948 0.01259057 0.00229784 0.00143081 0.03104178 0.00833049 0.00817326 0.00668059 0.00119753 
0.02962496 0.02855152 0.02638241 0.00302573 0.00120976 0.00358849 0.00354806 0.00382019 0.01261315 0.00230514 0.00142306 0.03100016 0.00856455 0.00820338 0.00628603 0.00119697 
0.02947052 0.02812212 0.02629101 0.00304676 0.00121126 0.00357307 0.00359167 0.00382356 0.01265505 0.00231151 0.00141503 0.03100762 0.00881224 0.00822818 0.00590293 0.00119696 
0.02933809 0.02771661 0.02615751 0.00307296 0.00121484 0.00355647 0.00364411 0.00382966 0.01271633 0.00231702 0.00140676 0.03106406 0.00907292 0.00824758 0.00553585 0.00119749 
0.02922931 0.02733658 0.02598226 0.00310417 0.00122054 0.00353893 0.00370564 0.00383857 0.01279697 0.00232176 0.00139833 0.03116929 0.00934588 0.00826153 0.00518943 0.00119859 
0.02914565 0.02698344 0.02576581 0.00314020 0.00122840 0.00352071 0.00377651 0.00385036 0.01289687 0.00232582 0.00138980 0.03132297 0.00963036 0.00826998 0.00486827 0.00120026 
0.02908841 0.02665848 0.02550889 0.00318084 0.00123842 0.00350204 0.00385694 0.00386509 0.01301585 0.00232929 0.00138124 0.03152469 0.00992550 0.00827291 0.00457699 0.00120251 
0.02905873 0.02636284 0.02521239 0.00322584 0.00125063 0.00348320 0.00394709 0.00388282 0.01315363 0.00233227 0.00137272 0.03177391 0.01023042 0.00827034 0.00432014 0.00120535 
0.02905755 0.02609748 0.02487740 0.00327494 0.00126500 0.00346444 0.00404711 0.00390361 0.01330987 0.00233488 0.00136430 0.03207000 0.01054415 0.00826229 0.00410219 0.00120876 
0.02908561 0.02586322 0.02450514 0.00332785 0.00128152 0.00344602 0.00415711 0.00392750 0.01348414 0.00233721 0.00135607 0.03241223 0.01086567 0.00824882 0.00392750 0.00121276 
0.02914346 0.02566068 0.02409702 0.00338428 0.00130017 0.00342819 0.00427715 0.00395453 0.01367592 0.00233937 0.00134810 0.03279978 0.01119394 0.00822999 0.00380029 0.00121732 
0.02923144 0.02549032 0.02365459 0.00344390 0.00132089 0.00341120 0.00440727 0.00398475 0.01388462 0.00234148 0.00134046 0.03323173 0.01152784 0.00820591 0.00372459 0.00122244 
0.02934969 0.02535242 0.02317956 0.00350637 0.00134363 0.00339529 0.00454744 0.00401817 0.01410957 0.00234363 0.00133323 0.03370708 0.01186622 0.00817669 0.00370425 0.00122811 
0.02949813 0.02524706 0.02267373 0.00357134 0.00136833 0.00338068 0.00469761 0.00405482 0.01435004 0.00234593 0.00132647 0.03422473 0.01220792 0.00814248 0.00374288 0.00123430 
0.02967648 0.02517416 0.02213907 0.00363846 0.00139491 0.00336762 0.00485768 0.00409472 0.01460522 0.00234850 0.00132027 0.03478351 0.01255173 0.00810344 0.00384383 0.00124100 
0.02988427 0.02513342 0.02157764 0.00370734 0.00142327 0.00335629 0.00502749 0.00413786 0.01487423 0.00235144 0.00131470 0.03538217 0.01289643 0.00805975 0.00401015 0.00124818 
0.03012080 0.02512438 0.02099160 0.00377762 0.00145333 0.00334691 0.00520685 0.00418425 0.01515612 0.00235484 0.00130981 0.03601935 0.01324076 0.00801161 0.00424461 0.00125581 
0.03038520 0.02514637 0.02038320 0.00384890 0.00148495 0.00333965 0.00539551 0.00423387 0.01544989 0.00235880 0.00130568 0.03669364 0.01358349 0.00795926 0.00454960 0.00126387 
0.03067640 0.02519855 0.01975478 0.00392081 0.00151804 0.00333467 0.00559318 0.00428670 0.01575450 0.00236341 0.00130237 0.03740353 0.01392335 0.00790293 0.00492719 0.00127231 
0.03099317 0.02527991 0.01910872 0.00399296 0.00155244 0.00333213 0.00579952 0.00434271 0.01606883 0.00236875 0.00129994 0.03814745 0.01425908 0.00784288 0.00537905 0.00128111 
0.03133408 0.02538922 0.01844747 0.00406496 0.00158803 0.00333216 0.00601413 0.00440185 0.01639174 0.00237491 0.00129844 0.03892372 0.01458944 0.00777938 0.00590645 0.00129023 
0.03169758 0.02552513 0.01777351 0.00413645 0.00162466 0.00333486 0.00623658 0.00446408 0.01672203 0.00238194 0.00129792 0.03973063 0.01491318 0.00771274 0.00651025 0.00129962 
0.03208195 0.02568608 0.01708934 0.00420703 0.00166216 0.00334032 0.00646639 0.00452933 0.01705849 0.00238992 0.00129843 0.04056634 0.01522910 0.00764324 0.00719089 0.00130924 
0.03248537 0.02587039 0.01639748 0.00427636 0.00170037 0.00334860 0.00670300 0.00459753 0.01739986 0.00239888 0.00130000 0.04142897 0.01553599 0.00757122 0.00794833 0.00131905 
0.03290587 0.02607619 0.01570044 0.00434407 0.00173912 0.00335977 0.00694586 0.00466859 0.01774486 0.00240888 0.00130267 0.04231654 0.01583269 0.00749699 0.00878213 0.00132901 
0.03334143 0.02630151 0.01500073 0.00440982 0.00177825 0.00337383 0.00719432 0.00474241 0.01809221 0.00241995 0.00130647 0.04322702 0.01611808 0.00742091 0.00969135 0.00133906 
0.03378994 0.02654422 0.01430080 0.00447329 0.00181756 0.00339078 0.00744773 0.00481889 0.01844061 0.00243209 0.00131140 0.04415827 0.01639106 0.00734331 0.01067461 0.00134917 
0.03424921 0.02680210 0.01360310 0.00453415 0.00185687 0.00341062 0.00770537 0.00489789 0.01878875 0.00244533 0.00131750 0.04510810 0.01665058 0.00726455 0.01173006 0.00135927 
0.03471706 0.02707279 0.01291001 0.00459212 0.00189599 0.00343328 0.00796649 0.00497929 0.01913533 0.00245965 0.00132476 0.04607423 0.01689566 0.00718500 0.01285539 0.00136933 
0.03519126 0.02735387 0.01222385 0.00464690 0.00193475 0.00345871 0.00823031 0.00506293 0.01947907 0.00247505 0.00133319 0.04705432 0.01712536 0.00710501 0.01404782 0.00137929 
0.03566959 0.02764284 0.01154685 0.00469825 0.00197294 0.00348680 0.00849601 0.00514866 0.01981868 0.00249149 0.00134277 0.04804596 0.01733879 0.00702497 0.01530413 0.00138912 
0.03614988 0.02793711 0.01088119 0.00474592 0.00201037 0.00351747 0.00876273 0.00523630 0.02015292 0.00250893 0.00135349 0.04904664 0.01753513 0.00694522 0.01662067 0.00139875 
0.03662999 0.02823408 0.01022892 0.00478969 0.00204686 0.00355055 0.00902959 0.00532567 0.02048056 0.00252732 0.00136534 0.05005382 0.01771365 0.00686614 0.01799334 0.00140815 
0.03710785 0.02853110 0.00959203 0.00482937 0.00208222 0.00358592 0.00929571 0.00541656 0.02080041 0.00254659 0.00137827 0.05106487 0.01787365 0.00678810 0.01941765 0.00141727 
0.03758151 0.02882550 0.00897235 0.00486478 0.00211627 0.00362339 0.00956014 0.00550877 0.02111133 0.00256666 0.00139225 0.05207712 0.01801454 0.00671145 0.02088871 0.00142607 
0.03804909 0.02911463 0.00837164 0.00489578 0.00214882 0.00366278 0.00982195 0.00560207 0.02141221 0.00258744 0.00140724 0.05308782 0.01813577 0.00663655 0.02240126 0.00143450 
0.03850888 0.02939585 0.00779151 0.00492224 0.00217969 0.00370388 0.01008018 0.00569623 0.02170200 0.00260883 0.00142318 0.05409418 0.01823692 0.00656374 0.02394969 0.00144253 
0.03895930 0.02966656 0.00723345 0.00494405 0.00220873 0.00374646 0.01033388 0.00579101 0.02197972 0.00263071 0.00144003 0.05509336 0.01831759 0.00649337 0.02552808 0.00145012 
0.03939895 0.02992422 0.00669882 0.00496114 0.00223575 0.00379029 0.01058208 0.00588615 0.02224445 0.00265295 0.00145771 0.05608248 0.01837752 0.00642575 0.02713023 0.00145723 
0.03982663 0.03016636 0.00618882 0.00497345 0.00226062 0.00383513 0.01082381 0.00598139 0.02249531 0.00267543 0.00147615 0.05705861 0.01841649 0.00636120 0.02874966 0.00146383 
0.04024132 0.03039058 0.00570453 0.00498095 0.00228317 0.00388071 0.01105813 0.00607646 0.02273152 0.00269798 0.00149529 0.05801882 0.01843441 0.00630003 0.03037967 0.00146989 
0.04064224 0.03059462 0.00524691 0.00498365 0.00230328 0.00392677 0.01128407 0.00617107 0.02295238 0.00272047 0.00151503 0.05896013 0.01843122 0.00624252 0.03201339 0.00147539 
0.04102883 0.03077633 0.00481672 0.00498154 0.00232082 0.00397303 0.01150072 0.00626495 0.02315725 0.00274272 0.00153530 0.05987957 0.01840700 0.00618893 0.03364379 0.00148031 
0.04140076 0.03093368 0.00441463 0.00497469 0.00233566 0.00401920 0.01170716 0.00635781 0.02334559 0.00276456 0.00155600 0.06077414 0.01836190 0.00613951 0.03526372 0.00148461 
0.04175798 0.03106482 0.00404114 0.00496313 0.00234771 0.00406501 0.01190250 0.00644936 0.02351695 0.00278583 0.00157705 0.06164088 0.01829613 0.00609451 0.03686596 0.00148829 
0.04210068 0.03116806 0.00369662 0.00494697 0.00235686 0.00411018 0.01208590 0.00653929 0.02367094 0.00280633 0.00159834 0.06247683 0.01821003 0.00605412 0.03844328 0.00149133 
0.04242931 0.03124189 0.00338129 0.00492631 0.00236305 0.00415440 0.01225653 0.00662732 0.02380731 0.00282589 0.00161977 0.06327904 0.01810399 0.00601854 0.03998842 0.00149373 
0.04274458 0.03128498 0.00309524 0.00490126 0.00236621 0.00419741 0.01241362 0.00671315 0.02392585 0.00284433 0.00164125 0.06404463 0.01797849 0.00598793 0.04149420 0.00149547 
0.04304749 0.03129623 0.00283844 0.00487197 0.00236627 0.00423892 0.01255644 0.00679649 0.02402648 0.00286144 0.00166267 0.06477076 0.01783411 0.00596244 0.04295354 0.00149656 
0.04333928 0.03127475 0.00261071 0.00483861 0.00236322 0.00427867 0.01268429 0.00687707 0.02410920 0.00287706 0.00168394 0.06545465 0.01767148 0.00594218 0.04435948 0.00149699 
0.04362144 0.03121986 0.00241178 0.00480134 0.00235702 0.00431639 0.01279656 0.00695459 0.02417410 0.00289099 0.00170494 0.06609359 0.01749133 0.00592725 0.04570525 0.00149677 
0.04389574 0.03113113 0.00224122 0.00476036 0.00234767 0.00435182 0.01289267 0.00702878 0.02422139 0.00290306 0.00172558 0.06668499 0.01729445 0.00591772 0.04698430 0.00149591 
0.04416417 0.03100836 0.00209852 0.00471588 0.00233518 0.00438473 0.01297211 0.00709940 0.02425133 0.00291309 0.00174575 0.06722633 0.01708170 0.00591362 0.04819032 0.00149442 
0.04442894 0.03085159 0.00198307 0.00466812 0.00231958 0.00441489 0.01303444 0.00716619 0.02426430 0.00292092 0.00176537 0.06771523 0.01685400 0.00591498 0.04931733 0.00149231 
0.04469250 0.03066112 0.00189414 0.00461731 0.00230090 0.00444209 0.01307929 0.00722892 0.02426077 0.00292638 0.00178433 0.06814942 0.01661234 0.00592178 0.05035968 0.00148960 
0.04495747 0.03043749 0.00183093 0.00456369 0.00227920 0.00446612 0.01310635 0.00728737 0.02424128 0.00292932 0.00180254 0.06852680 0.01635778 0.00593398 0.05131206 0.00148631 
0.04522666 0.03018149 0.00179255 0.00450751 0.00225456 0.00448683 0.01311540 0.00734134 0.02420646 0.00292962 0.00181991 0.06884542 0.01609140 0.00595152 0.05216962 0.00148247 
0.04550306 0.02989415 0.00177805 0.00444904 0.00222706 0.00450403 0.01310628 0.00739065 0.02415703 0.00292713 0.00183636 0.06910349 0.01581435 0.00597432 0.05292792 0.00147809 
0.04578975 0.02957675 0.00178638 0.00438853 0.00219681 0.00451761 0.01307892 0.00743515 0.02409376 0.00292174 0.00185181 0.06929944 0.01552781 0.00600224 0.05358297 0.00147322 
0.04608995 0.02923081 0.00181649 0.00432627 0.00216394 0.00452744 0.01303333 0.00747470 0.02401751 0.00291337 0.00186619 0.06943187 0.01523301 0.00603516 0.05413132 0.00146787 
0.04640697 0.02885807 0.00186722 0.00426252 0.00212858 0.00453343 0.01296959 0.00750919 0.02392921 0.00290192 0.00187944 0.06949961 0.01493121 0.00607290 0.05457000 0.00146208 
0.04674415 0.02846051 0.00193741 0.00419757 0.00209087 0.00453550 0.01288787 0.00753854 0.02382983 0.00288733 0.00189148 0.06950171 0.01462367 0.00611526 0.05489659 0.00145589 
0.04710487 0.02804030 0.00202587 0.00413170 0.00205099 0.00453363 0.01278841 0.00756270 0.02372041 0.00286957 0.00190226 0.06943747 0.01431169 0.00616205 0.05510924 0.00144933 
0.04749250 0.02759984 0.00213136 0.00406518 0.00200911 0.00452777 0.01267156 0.00758162 0.02360204 0.00284860 0.00191175 0.06930643 0.01399660 0.00621301 0.05520666 0.00144245 
0.04791040 0.02714171 0.00225263 0.00399830 0.00196542 0.00451794 0.01253771 0.00759533 0.02347584 0.00282441 0.00191990 0.06910839 0.01367970 0.00626789 0.05518814 0.00143527 
0.04836184 0.02666864 0.00238845 0.00393133 0.00192013 0.00450415 0.01238736 0.00760385 0.02334298 0.00279703 0.00192667 0.06884343 0.01336230 0.00632640 0.05505355 0.00142783 
0.04884999 0.02618355 0.00253757 0.00386455 0.00187346 0.00448647 0.01222105 0.00760724 0.02320465 0.00276648 0.00193205 0.06851190 0.01304573 0.00638826 0.05480337 0.00142019 
0.04937791 0.02568949 0.00269873 0.00379823 0.00182563 0.00446496 0.01203944 0.00760559 0.02306207 0.00273284 0.00193602 0.06811446 0.01273128 0.00645315 0.05443866 0.00141238 
0.04994849 0.02518963 0.00287072 0.00373264 0.00177687 0.00443972 0.01184322 0.00759905 0.02291647 0.00269617 0.00193857 0.06765204 0.01242022 0.00652073 0.05396107 0.00140443 
0.05056442 0.02468726 0.00305232 0.00366803 0.00172744 0.00441087 0.01163318 0.00758775 0.02276908 0.00265659 0.00193970 0.06712588 0.01211383 0.00659066 0.05337284 0.00139640 
0.05122819 0.02418573 0.00324235 0.00360467 0.00167758 0.00437855 0.01141014 0.00757190 0.02262116 0.00261422 0.00193941 0.06653752 0.01181331 0.00666259 0.05267676 0.00138831 
0.05194201 0.02368848 0.00343967 0.00354278 0.00162756 0.00434292 0.01117502 0.00755170 0.02247393 0.00256920 0.00193773 0.06588882 0.01151986 0.00673615 0.05187619 0.00138022 
0.05270783 0.02319896 0.00364316 0.00348262 0.00157763 0.00430418 0.01092875 0.00752741 0.02232861 0.00252172 0.00193468 0.06518194 0.01123462 0.00681096 0.05097501 0.00137215 
0.05352730 0.02272069 0.00385176 0.00342440 0.00152807 0.00426251 0.01067235 0.00749931 0.02218641 0.00247196 0.00193028 0.06441934 0.01095869 0.00688664 0.04997764 0.00136416 
0.05440170 0.02225713 0.00406443 0.00336834 0.00147916 0.00421814 0.01040687 0.00746770 0.02204849 0.00242013 0.00192458 0.06360381 0.01069311 0.00696281 0.04888896 0.00135626 
0.05533201 0.02181176 0.00428022 0.00331465 0.00143115 0.00417130 0.01013340 0.00743291 0.02191601 0.00236647 0.00191762 0.06273843 0.01043887 0.00703908 0.04771434 0.00134851 
0.05631878 0.02138799 0.00449819 0.00326352 0.00138433 0.00412224 0.00985307 0.00739529 0.02179005 0.00231123 0.00190945 0.06182657 0.01019689 0.00711507 0.04645956 0.00134094 
0.05736221 0.02098916 0.00471749 0.00321514 0.00133897 0.00407122 0.00956702 0.00735522 0.02167168 0.00225468 0.00190012 0.06087190 0.00996802 0.00719039 0.04513080 0.00133356 
0.05846207 0.02061854 0.00493730 0.00316965 0.00129534 0.00401852 0.00927644 0.00731309 0.02156189 0.00219711 0.00188971 0.05987838 0.00975304 0.00726466 0.04373461 0.00132643 
0.05961770 0.02027925 0.00515689 0.00312724 0.00125370 0.00396441 0.00898252 0.00726932 0.02146161 0.00213882 0.00187828 0.05885025 0.00955265 0.00733750 0.04227786 0.00131956 
0.06082801 0.01997430 0.00537557 0.00308803 0.00121432 0.00390919 0.00868647 0.00722433 0.02137174 0.00208012 0.00186589 0.05779197 0.00936749 0.00740855 0.04076770 0.00131299 
0.06209149 0.01970653 0.00559271 0.00305215 0.00117745 0.00385314 0.00838950 0.00717856 0.02129308 0.00202135 0.00185264 0.05670830 0.00919809 0.00747747 0.03921153 0.00130673 
0.06340615 0.01947861 0.00580775 0.00301971 0.00114334 0.00379657 0.00809282 0.00713246 0.02122636 0.00196284 0.00183859 0.05560420 0.00904492 0.00754389 0.03761694 0.00130080 
0.06476957 0.01929301 0.00602019 0.00299081 0.00111222 0.00373978 0.00779762 0.00708648 0.02117225 0.00190495 0.00182383 0.05448484 0.00890834 0.00760751 0.03599166 0.00129524 
0.06617889 0.01915199 0.00622959 0.00296554 0.00108432 0.00368305 0.00750510 0.00704108 0.02113131 0.00184802 0.00180844 0.05335561 0.00878865 0.00766801 0.03434356 0.00129005 
0.06763080 0.01905757 0.00643556 0.00294395 0.00105985 0.00362669 0.00721641 0.00699671 0.02110405 0.00179242 0.00179252 0.05222205 0.00868603 0.00772509 0.03268054 0.00128524 
0.06912156 0.01901153 0.00663778 0.00292611 0.00103902 0.00357099 0.00693271 0.00695382 0.02109087 0.00173850 0.00177615 0.05108985 0.00860060 0.00777849 0.03101054 0.00128084 
0.07064702 0.01901538 0.00683597 0.00291205 0.00102201 0.00351623 0.00665509 0.00691287 0.02109208 0.00168664 0.00175943 0.04996486 0.00853236 0.00782795 0.02934145 0.00127684 
0.07220261 0.01907037 0.00702993 0.00290178 0.00100899 0.00346269 0.00638462 0.00687426 0.02110792 0.00163719 0.00174243 0.04885299 0.00848126 0.00787324 0.02768109 0.00127326 
0.07378338 0.01917747 0.00721949 0.00289532 0.00100011 0.00341063 0.00612234 0.00683844 0.02113853 0.00159050 0.00172525 0.04776025 0.00844712 0.00791417 0.02603716 0.00127009 
0.07538401 0.01933732 0.00740452 0.00289264 0.00099551 0.00336031 0.00586923 0.00680580 0.02118395 0.00154694 0.00170798 0.04669269 0.00842971 0.00795055 0.02441720 0.00126735 
0.07699886 0.01955031 0.00758495 0.00289373 0.00099531 0.00331198 0.00562620 0.00677672 0.02124414 0.00150684 0.00169071 0.04565638 0.00842869 0.00798223 0.02282853 0.00126503 
0.07862194 0.01981650 0.00776075 0.00289855 0.00099959 0.00326585 0.00539414 0.00675155 0.02131895 0.00147052 0.00167351 0.04465738 0.00844364 0.00800908 0.02127822 0.00126312 
0.08024701 0.02013563 0.00793192 0.00290703 0.00100845 0.00322214 0.00517384 0.00673064 0.02140818 0.00143832 0.00165647 0.04370170 0.00847409 0.00803100 0.01977306 0.00126162 
0.08186754 0.02050715 0.00809850 0.00291912 0.00102192 0.00318104 0.00496606 0.00671428 0.02151150 0.00141053 0.00163967 0.04279528 0.00851946 0.00804793 0.01831949 0.00126053 
0.08347682 0.02093020 0.00826056 0.00293471 0.00104005 0.00314272 0.00477147 0.00670273 0.02162852 0.00138744 0.00162319 0.04194396 0.00857911 0.00805981 0.01692361 0.00125982 
0.08506792 0.02140360 0.00841819 0.00295371 0.00106284 0.00310735 0.00459067 0.00669625 0.02175876 0.00136932 0.00160709 0.04115343 0.00865234 0.00806663 0.01559111 0.00125950 
0.08663380 0.02192587 0.00857151 0.00297601 0.00109029 0.00307506 0.00442421 0.00669502 0.02190167 0.00135641 0.00159144 0.04042922 0.00873838 0.00806840 0.01432725 0.00125954 
0.08816727 0.02249526 0.00872065 0.00300149 0.00112234 0.00304595 0.00427253 0.00669921 0.02205662 0.00134894 0.00157631 0.03977666 0.00883642 0.00806516 0.01313684 0.00125992 
0.08966112 0.02310969 0.00886577 0.00303000 0.00115895 0.00302012 0.00413602 0.00670894 0.02222290 0.00134710 0.00156175 0.03920083 0.00894557 0.00805698 0.01202421 0.00126065 
0.09110810 0.02376683 0.00900703 0.00306139 0.00120003 0.00299765 0.00401499 0.00672429 0.02239974 0.00135107 0.00154782 0.03870656 0.00906492 0.00804395 0.01099318 0.00126168 
0.09250096 0.02446410 0.00914459 0.00309550 0.00124547 0.00297857 0.00390965 0.00674530 0.02258632 0.00136098 0.00153457 0.03829837 0.00919350 0.00802618 0.01004706 0.00126301 
0.09383255 0.02519864 0.00927863 0.00313216 0.00129515 0.00296291 0.00382017 0.00677196 0.02278176 0.00137697 0.00152203 0.03798047 0.00933033 0.00800382 0.00918863 0.00126461 
0.09509578 0.02596737 0.00940933 0.00317119 0.00134892 0.00295068 0.00374660 0.00680423 0.02298511 0.00139911 0.00151025 0.03775671 0.00947437 0.00797702 0.00842011 0.00126645 
0.09628375 0.02676701 0.00953686 0.00321239 0.00140659 0.00294185 0.00368895 0.00684201 0.02319541 0.00142745 0.00149926 0.03763056 0.00962460 0.00794598 0.00774319 0.00126852 
0.09738973 0.02759405 0.00966138 0.00325556 0.00146798 0.00293638 0.00364713 0.00688518 0.02341163 0.00146203 0.00148907 0.03760507 0.00977995 0.00791091 0.00715897 0.00127080 
0.09840722 0.02844484 0.00978305 0.00330049 0.00153286 0.00293420 0.00362098 0.00693354 0.02363274 0.00150282 0.00147973 0.03768288 0.00993937 0.00787202 0.00666803 0.00127325 
0.09933000 0.02931555 0.00990201 0.00334697 0.00160100 0.00293523 0.00361028 0.00698689 0.02385765 0.00154980 0.00147123 0.03786618 0.01010180 0.00782956 0.00627037 0.00127585 
0.10015217 0.03020222 0.01001842 0.00339479 0.00167214 0.00293937 0.00361474 0.00704497 0.02408529 0.00160288 0.00146359 0.03815667 0.01026617 0.00778379 0.00596545 0.00127858 
0.10086817 0.03110081 0.01013237 0.00344370 0.00174602 0.00294649 0.00363398 0.00710747 0.02431454 0.00166196 0.00145681 0.03855557 0.01043146 0.00773497 0.00575220 0.00128142 
0.10147282 0.03200717 0.01024398 0.00349349 0.00182233 0.00295644 0.00366759 0.00717407 0.02454431 0.00172690 0.00145089 0.03906360 0.01059664 0.00768339 0.00562902 0.00128433 
0.10196138 0.03291710 0.01035332 0.00354392 0.00190078 0.00296907 0.00371507 0.00724439 0.02477349 0.00179752 0.00144583 0.03968097 0.01076071 0.00762934 0.00559381 0.00128730 
0.10232956 0.03382637 0.01046046 0.00359476 0.00198104 0.00298420 0.00377589 0.00731803 0.02500098 0.00187362 0.00144161 0.04040735 0.01092272 0.00757312 0.00564398 0.00129029 
0.10257352 0.03473076 0.01056544 0.00364577 0.00206278 0.00300164 0.00384944 0.00739457 0.02522570 0.00195498 0.00143822 0.04124191 0.01108174 0.00751503 0.00577647 0.00129329 
0.10268998 0.03562606 0.01066828 0.00369673 0.00214566 0.00302119 0.00393510 0.00747353 0.02544661 0.00204131 0.00143564 0.04218324 0.01123689 0.00745538 0.00598780 0.00129628 
0.10267616 0.03650811 0.01076897 0.00374739 0.00222932 0.00304262 0.00403218 0.00755444 0.02566265 0.00213233 0.00143385 0.04322944 0.01138734 0.00739448 0.00627408 0.00129923 
0.10252982 0.03737283 0.01086749 0.00379752 0.00231340 0.00306572 0.00413995 0.00763680 0.02587284 0.00222773 0.00143282 0.04437805 0.01153233 0.00733264 0.00663103 0.00130212 
0.10224933 0.03821624 0.01096379 0.00384691 0.00239755 0.00309025 0.00425765 0.00772008 0.02607621 0.00232715 0.00143251 0.04562610 0.01167113 0.00727016 0.00705403 0.00130494 
0.10183362 0.03903450 0.01105780 0.00389532 0.00248138 0.00311598 0.00438452 0.00780375 0.02627186 0.00243023 0.00143290 0.04697010 0.01180309 0.00720734 0.00753817 0.00130766 
0.10128221 0.03982391 0.01114942 0.00394253 0.00256452 0.00314264 0.00451973 0.00788727 0.02645891 0.00253657 0.00143394 0.04840605 0.01192763 0.00714449 0.00807825 0.00131026 
0.10059522 0.04058096 0.01123853 0.00398835 0.00264661 0.00317001 0.00466248 0.00797009 0.02663655 0.00264576 0.00143560 0.04992945 0.01204423 0.00708187 0.00866885 0.00131274 
0.09977340 0.04130234 0.01132501 0.00403256 0.00272727 0.00319782 0.00481192 0.00805166 0.02680403 0.00275738 0.00143784 0.05153536 0.01215245 0.00701978 0.00930436 0.00131508 
0.09881808 0.04198494 0.01140869 0.00407498 0.00280614 0.00322582 0.00496720 0.00813142 0.02696066 0.00287099 0.00144061 0.05321837 0.01225191 0.00695846 0.00997901 0.00131726 
0.09773121 0.04262594 0.01148939 0.00411541 0.00288286 0.00325378 0.00512750 0.00820884 0.02710581 0.00298611 0.00144387 0.05497264 0.01234233 0.00689818 0.01068694 0.00131927 
0.09651531 0.04322274 0.01156694 0.00415367 0.00295707 0.00328144 0.00529195 0.00828337 0.02723892 0.00310229 0.00144757 0.05679193 0.01242349 0.00683917 0.01142221 0.00132111 
0.09517350 0.04377305 0.01164111 0.00418962 0.00302843 0.00330856 0.00545974 0.00835449 0.02735951 0.00321906 0.00145167 0.05866964 0.01249524 0.00678164 0.01217886 0.00132276 
0.09370948 0.04427487 0.01171170 0.00422308 0.00309662 0.00333492 0.00563003 0.00842170 0.02746716 0.00333592 0.00145612 0.06059883 0.01255754 0.00672580 0.01295096 0.00132423 
0.09212747 0.04472650 0.01177846 0.00425394 0.00316130 0.00336029 0.00580203 0.00848452 0.02756154 0.00345240 0.00146087 0.06257225 0.01261039 0.00667184 0.01373262 0.00132549 
0.09043226 0.04512659 0.01184115 0.00428204 0.00322218 0.00338445 0.00597496 0.00854247 0.02764238 0.00356801 0.00146588 0.06458238 0.01265387 0.00661992 0.01451808 0.00132656 
0.08862912 0.04547408 0.01189954 0.00430730 0.00327898 0.00340720 0.00614806 0.00859512 0.02770950 0.00368227 0.00147111 0.06662147 0.01268817 0.00657017 0.01530170 0.00132743 
0.08672380 0.04576830 0.01195335 0.00432959 0.00333142 0.00342835 0.00632061 0.00864207 0.02776278 0.00379470 0.00147650 0.06868157 0.01271350 0.00652274 0.01607804 0.00132809 
0.08472253 0.04600889 0.01200234 0.00434885 0.00337926 0.00344773 0.00649191 0.00868294 0.02780219 0.00390484 0.00148202 0.07075459 0.01273016 0.00647771 0.01684186 0.00132856 
0.08263192 0.04619585 0.01204625 0.00436500 0.00342227 0.00346518 0.00666132 0.00871739 0.02782777 0.00401223 0.00148763 0.07283232 0.01273853 0.00643517 0.01758819 0.00132882 
0.08045900 0.04632955 0.01208481 0.00437799 0.00346025 0.00348054 0.00682823 0.00874512 0.02783963 0.00411643 0.00149328 0.07490650 0.01273902 0.00639519 0.01831235 0.00132890 
0.07821112 0.04641067 0.01211778 0.00438778 0.00349302 0.00349369 0.00699207 0.00876586 0.02783797 0.00421700 0.00149894 0.07696881 0.01273212 0.00635780 0.01900997 0.00132878 
0.07589597 0.04644028 0.01214490 0.00439435 0.00352041 0.00350453 0.00715231 0.00877939 0.02782302 0.00431353 0.00150458 0.07901097 0.01271836 0.00632301 0.01967702 0.00132847 
0.07352147 0.04641974 0.01216595 0.00439769 0.00354231 0.00351294 0.00730849 0.00878554 0.02779513 0.00440564 0.00151016 0.08102476 0.01269832 0.00629083 0.02030988 0.00132799 
0.07109581 0.04635078 0.01218068 0.00439780 0.00355860 0.00351887 0.00746018 0.00878416 0.02775467 0.00449295 0.00151565 0.08300205 0.01267260 0.00626124 0.02090528 0.00132734 
0.06862733 0.04623543 0.01218890 0.00439473 0.00356922 0.00352225 0.00760702 0.00877516 0.02770209 0.00457513 0.00152104 0.08493487 0.01264187 0.00623418 0.02146040 0.00132654 
0.06612454 0.04607602 0.01219038 0.00438849 0.00357412 0.00352305 0.00774868 0.00875850 0.02763790 0.00465184 0.00152629 0.08681541 0.01260681 0.00620959 0.02197286 0.00132558 
0.06359602 0.04587520 0.01218496 0.00437915 0.00357326 0.00352125 0.00788490 0.00873416 0.02756265 0.00472281 0.00153138 0.08863611 0.01256812 0.00618741 0.02244070 0.00132448 
0.06105044 0.04563585 0.01217248 0.00436678 0.00356667 0.00351686 0.00801547 0.00870220 0.02747695 0.00478776 0.00153631 0.09038967 0.01252651 0.00616752 0.02286243 0.00132326 
0.05849643 0.04536113 0.01215278 0.00435145 0.00355438 0.00350989 0.00814023 0.00866269 0.02738145 0.00484648 0.00154106 0.09206907 0.01248272 0.00614981 0.02323705 0.00132191 
0.05594263 0.04505443 0.01212575 0.00433328 0.00353644 0.00350038 0.00825907 0.00861577 0.02727684 0.00489875 0.00154562 0.09366765 0.01243748 0.00613416 0.02356400 0.00132047 
0.05339758 0.04471935 0.01209129 0.00431235 0.00351297 0.00348840 0.00837195 0.00856161 0.02716384 0.00494442 0.00154999 0.09517910 0.01239150 0.00612043 0.02384319 0.00131893 
0.05086968 0.04435967 0.01204934 0.00428881 0.00348406 0.00347402 0.00847884 0.00850042 0.02704321 0.00498335 0.00155417 0.09659751 0.01234552 0.00610846 0.02407501 0.00131731 
0.04836720 0.04397933 0.01199986 0.00426277 0.00344987 0.00345733 0.00857981 0.00843246 0.02691572 0.00501544 0.00155816 0.09791741 0.01230023 0.00609809 0.02426031 0.00131562 
0.04589818 0.04358239 0.01194284 0.00423439 0.00341058 0.00343845 0.00867494 0.00835802 0.02678217 0.00504062 0.00156197 0.09913377 0.01225631 0.00608914 0.02440037 0.00131388 
0.04347043 0.04317304 0.01187829 0.00420381 0.00336637 0.00341749 0.00876437 0.00827743 0.02664338 0.00505887 0.00156560 0.10024204 0.01221440 0.00608144 0.02449692 0.00131209 
0.04109146 0.04275552 0.01180626 0.00417120 0.00331746 0.00339461 0.00884827 0.00819105 0.02650016 0.00507019 0.00156908 0.10123816 0.01217512 0.00607481 0.02455210 0.00131028 
0.03876847 0.04233413 0.01172683 0.00413674 0.00326412 0.00336995 0.00892686 0.00809928 0.02635333 0.00507461 0.00157243 0.10211859 0.01213905 0.00606905 0.02456844 0.00130844 
0.03650831 0.04191317 0.01164013 0.00410059 0.00320659 0.00334368 0.00900039 0.00800254 0.02620372 0.00507221 0.00157565 0.10288031 0.01210670 0.00606397 0.02454885 0.00130660 
0.03431745 0.04149694 0.01154628 0.00406295 0.00314516 0.00331598 0.00906914 0.00790127 0.02605213 0.00506309 0.00157879 0.10352084 0.01207856 0.00605940 0.02449660 0.00130477 
0.03220194 0.04108968 0.01144547 0.00402399 0.00308015 0.00328703 0.00913342 0.00779596 0.02589937 0.00504738 0.00158187 0.10403824 0.01205506 0.00605513 0.02441525 0.00130295 
0.03016740 0.04069557 0.01133792 0.00398392 0.00301187 0.00325703 0.00919357 0.00768709 0.02574622 0.00502525 0.00158491 0.10443113 0.01203654 0.00605099 0.02430866 0.00130115 
0.02821898 0.04031866 0.01122386 0.00394293 0.00294065 0.00322619 0.00924994 0.00757519 0.02559344 0.00499690 0.00158796 0.10469866 0.01202332 0.00604679 0.02418095 0.00129939 
0.02636136 0.03996289 0.01110357 0.00390121 0.00286687 0.00319472 0.00930291 0.00746076 0.02544177 0.00496254 0.00159105 0.10484057 0.01201563 0.00604238 0.02403645 0.00129767 
0.02459871 0.03963201 0.01097736 0.00385897 0.00279087 0.00316282 0.00935285 0.00734434 0.02529191 0.00492244 0.00159422 0.10485710 0.01201364 0.00603758 0.02387967 0.00129601 
0.02293468 0.03932961 0.01084556 0.00381639 0.00271303 0.00313071 0.00940016 0.00722648 0.02514452 0.00487685 0.00159751 0.10474905 0.01201744 0.00603224 0.02371526 0.00129440 
0.02137243 0.03905903 0.01070855 0.00377368 0.00263374 0.00309862 0.00944523 0.00710773 0.02500025 0.00482609 0.00160096 0.10451774 0.01202707 0.00602623 0.02354797 0.00129286 
0.01991454 0.03882339 0.01056670 0.00373103 0.00255338 0.00306675 0.00948844 0.00698862 0.02485967 0.00477047 0.00160462 0.10416502 0.01204247 0.00601942 0.02338264 0.00129139 
0.01856309 0.03862553 0.01042046 0.00368863 0.00247235 0.00303532 0.00953020 0.00686970 0.02472333 0.00471032 0.00160853 0.10369322 0.01206354 0.00601171 0.02322408 0.00129000 
0.01731961 0.03846803 0.01027025 0.00364666 0.00239104 0.00300456 0.00957086 0.00675151 0.02459172 0.00464600 0.00161274 0.10310516 0.01209007 0.00600299 0.02307713 0.00128869 
0.01618508 0.03835313 0.01011656 0.00360531 0.00230985 0.00297465 0.00961080 0.00663458 0.02446529 0.00457788 0.00161729 0.10240412 0.01212181 0.00599319 0.02294654 0.00128746 
0.01515996 0.03828277 0.00995988 0.00356475 0.00222918 0.00294581 0.00965035 0.00651942 0.02434442 0.00450634 0.00162224 0.10159381 0.01215843 0.00598226 0.02283695 0.00128632 
0.01424419 0.03825854 0.00980071 0.00352514 0.00214941 0.00291823 0.00968985 0.00640653 0.02422945 0.00443177 0.00162761 0.10067836 0.01219952 0.00597015 0.02275290 0.00128527 
0.01343717 0.03828169 0.00963959 0.00348665 0.00207093 0.00289210 0.00972958 0.00629639 0.02412066 0.00435456 0.00163347 0.09966230 0.01224464 0.00595685 0.02269869 0.00128430 
0.01273783 0.03835310 0.00947705 0.00344942 0.00199413 0.00286758 0.00976982 0.00618947 0.02401827 0.00427513 0.00163985 0.09855048 0.01229324 0.00594236 0.02267846 0.00128343 
0.01214460 0.03847329 0.00931365 0.00341361 0.00191936 0.00284485 0.00981080 0.00608619 0.02392244 0.00419387 0.00164680 0.09734812 0.01234476 0.00592670 0.02269604 0.00128264 
0.01165544 0.03864240 0.00914996 0.00337933 0.00184699 0.00282406 0.00985272 0.00598697 0.02383327 0.00411119 0.00165435 0.09606072 0.01239855 0.00590992 0.02275502 0.00128194 
0.01126786 0.03886021 0.00898655 0.00334672 0.00177736 0.00280534 0.00989575 0.00589220 0.02375081 0.00402749 0.00166254 0.09469405 0.01245392 0.00589209 0.02285863 0.00128132 
0.01097896 0.03912610 0.00882400 0.00331589 0.00171080 0.00278883 0.00994002 0.00580221 0.02367505 0.00394318 0.00167141 0.09325410 0.01251015 0.00587328 0.02300976 0.00128079 
0.01078544 0.03943909 0.00866287 0.00328694 0.00164763 0.00277462 0.00998560 0.00571734 0.02360591 0.00385864 0.00168098 0.09174709 0.01256646 0.00585362 0.02321094 0.00128034 
0.01068363 0.03979785 0.00850375 0.00325996 0.00158814 0.00276282 0.01003254 0.00563786 0.02354328 0.00377426 0.00169129 0.09017939 0.01262206 0.00583322 0.02346427 0.00127996 
0.01066953 0.04020067 0.00834721 0.00323503 0.00153261 0.00275350 0.01008085 0.00556403 0.02348697 0.00369040 0.00170236 0.08855751 0.01267612 0.00581224 0.02377145 0.00127966 
0.01073882 0.04064551 0.00819381 0.00321222 0.00148130 0.00274672 0.01013047 0.00549605 0.02343675 0.00360745 0.00171420 0.08688806 0.01272779 0.00579084 0.02413371 0.00127942 
0.01088690 0.04112998 0.00804410 0.00319159 0.00143443 0.00274253 0.01018131 0.00543410 0.02339235 0.00352572 0.00172684 0.08517772 0.01277621 0.00576921 0.02455184 0.00127924 
0.01110894 0.04165140 0.00789862 0.00317319 0.00139224 0.00274094 0.01023326 0.00537831 0.02335343 0.00344556 0.00174028 0.08343321 0.01282050 0.00574755 0.02502617 0.00127912 
0.01139991 0.04220678 0.00775789 0.00315705 0.00135490 0.00274197 0.01028612 0.00532879 0.02331963 0.00336728 0.00175452 0.08166124 0.01285980 0.00572608 0.02555654 0.00127906 
0.01175459 0.04279284 0.00762243 0.00314320 0.00132258 0.00274561 0.01033968 0.00528558 0.02329053 0.00329116 0.00176957 0.07986851 0.01289326 0.00570504 0.02614231 0.00127904 
0.01216762 0.04340608 0.00749271 0.00313165 0.00129541 0.00275182 0.01039369 0.00524871 0.02326570 0.00321748 0.00178543 0.07806165 0.01292001 0.00568466 0.02678236 0.00127906 
0.01263355 0.04404275 0.00736919 0.00312242 0.00127352 0.00276057 0.01044784 0.00521816 0.02324464 0.00314649 0.00180206 0.07624721 0.01293924 0.00566520 0.02747510 0.00127912 
0.01314688 0.04469890 0.00725231 0.00311551 0.00125698 0.00277178 0.01050181 0.00519386 0.02322686 0.00307840 0.00181948 0.07443163 0.01295015 0.00564694 0.02821847 0.00127920 
0.01370204 0.04537042 0.00714246 0.00311089 0.00124587 0.00278538 0.01055523 0.00517571 0.02321182 0.00301343 0.00183763 0.07262120 0.01295197 0.00563013 0.02900993 0.00127931 
0.01429350 0.04605305 0.00704003 0.00310856 0.00124021 0.00280126 0.01060769 0.00516359 0.02319898 0.00295175 0.00185651 0.07082206 0.01294400 0.00561506 0.02984652 0.00127944 
0.01491576 0.04674244 0.00694534 0.00310847 0.00124000 0.00281932 0.01065877 0.00515731 0.02318777 0.00289351 0.00187607 0.06904014 0.01292555 0.00560201 0.03072484 0.00127959 
0.01556340 0.04743413 0.00685871 0.00311061 0.00124524 0.00283942 0.01070802 0.00515667 0.02317762 0.00283884 0.00189627 0.06728118 0.01289601 0.00559125 0.03164107 0.00127974 
0.01623109 0.04812364 0.00678041 0.00311493 0.00125587 0.00286142 0.01075496 0.00516143 0.02316796 0.00278783 0.00191706 0.06555069 0.01285482 0.00558308 0.03259103 0.00127989 
0.01691365 0.04880647 0.00671066 0.00312139 0.00127182 0.00288516 0.01079912 0.00517131 0.02315820 0.00274058 0.00193840 0.06385392 0.01280149 0.00557776 0.03357016 0.00128005 
0.01760608 0.04947817 0.00664966 0.00312993 0.00129298 0.00291046 0.01083999 0.00518602 0.02314778 0.00269712 0.00196022 0.06219587 0.01273559 0.00557556 0.03457359 0.00128020 
0.01830356 0.05013430 0.00659756 0.00314051 0.00131925 0.00293716 0.01087706 0.00520522 0.02313613 0.00265749 0.00198246 0.06058128 0.01265680 0.00557675 0.03559615 0.00128035 
0.01900150 0.05077056 0.00655448 0.00315305 0.00135045 0.00296505 0.01090982 0.00522857 0.02312272 0.00262169 0.00200505 0.05901458 0.01256483 0.00558157 0.03663241 0.00128048 
0.01969556 0.05138274 0.00652049 0.00316751 0.00138643 0.00299393 0.01093777 0.00525567 0.02310701 0.00258969 0.00202793 0.05749991 0.01245950 0.00559027 0.03767671 0.00128061 
0.02038168 0.05196683 0.00649562 0.00318383 0.00142699 0.00302359 0.01096038 0.00528612 0.02308851 0.00256145 0.00205100 0.05604113 0.01234073 0.00560307 0.03872321 0.00128072 
0.02105608 0.05251896 0.00647986 0.00320193 0.00147190 0.00305381 0.01097719 0.00531952 0.02306674 0.00253691 0.00207420 0.05464178 0.01220849 0.00562018 0.03976592 0.00128081 
0.02171530 0.05303552 0.00647317 0.00322176 0.00152093 0.00308437 0.01098769 0.00535543 0.02304126 0.00251597 0.00209743 0.05330508 0.01206288 0.00564179 0.04079877 0.00128088 
0.02235621 0.05351315 0.00647547 0.00324325 0.00157383 0.00311504 0.01099145 0.00539340 0.02301168 0.00249854 0.00212061 0.05203395 0.01190405 0.00566806 0.04181561 0.00128094 
0.02297601 0.05394875 0.00648661 0.00326634 0.00163031 0.00314559 0.01098802 0.00543297 0.02297762 0.00248450 0.00214365 0.05083102 0.01173229 0.00569914 0.04281026 0.00128098 
0.02357227 0.05433953 0.00650645 0.00329097 0.00169008 0.00317579 0.01097700 0.00547368 0.02293877 0.00247369 0.00216645 0.04969858 0.01154794 0.00573516 0.04377658 0.00128100 
0.02414291 0.05468305 0.00653479 0.00331708 0.00175284 0.00320541 0.01095801 0.00551507 0.02289485 0.00246596 0.00218892 0.04863865 0.01135146 0.00577621 0.04470850 0.00128101 
0.02468622 0.05497719 0.00657138 0.00334462 0.00181826 0.00323422 0.01093073 0.00555666 0.02284563 0.00246115 0.00221097 0.04765293 0.01114339 0.00582236 0.04560006 0.00128101 
0.02520087 0.05522024 0.00661597 0.00337353 0.00188601 0.00326199 0.01089486 0.00559800 0.02279094 0.00245908 0.00223249 0.04674286 0.01092434 0.00587365 0.04644545 0.00128099 
0.02568590 0.05541084 0.00666827 0.00340376 0.00195575 0.00328850 0.01085015 0.00563861 0.02273065 0.00245954 0.00225340 0.04590957 0.01069504 0.00593011 0.04723905 0.00128096 
0.02614071 0.05554805 0.00672795 0.00343527 0.00202713 0.00331354 0.01079640 0.00567805 0.02266469 0.00246235 0.00227359 0.04515394 0.01045628 0.00599171 0.04797547 0.00128093 
0.02656508 0.05563134 0.00679466 0.00346802 0.00209978 0.00333689 0.01073346 0.00571588 0.02259304 0.00246730 0.00229298 0.04447660 0.01020894 0.00605842 0.04864960 0.00128090 
0.02695915 0.05566061 0.00686804 0.00350196 0.00217335 0.00335836 0.01066123 0.00575166 0.02251572 0.00247418 0.00231147 0.04387794 0.00995397 0.00613015 0.04925664 0.00128087 
0.02732341 0.05563618 0.00694769 0.00353706 0.00224747 0.00337776 0.01057967 0.00578498 0.02243283 0.00248276 0.00232897 0.04335809 0.00969238 0.00620681 0.04979213 0.00128084 
0.02765869 0.05555879 0.00703320 0.00357330 0.00232177 0.00339491 0.01048879 0.00581546 0.02234450 0.00249285 0.00234539 0.04291700 0.00942527 0.00628827 0.05025197 0.00128083 
0.02796616 0.05542963 0.00712416 0.00361064 0.00239590 0.00340965 0.01038866 0.00584271 0.02225091 0.00250422 0.00236065 0.04255439 0.00915377 0.00637437 0.05063247 0.00128083 
0.02824730 0.05525031 0.00722012 0.00364907 0.00246948 0.00342182 0.01027943 0.00586641 0.02215231 0.00251667 0.00237468 0.04226982 0.00887909 0.00646491 0.05093039 0.00128085 
0.02850386 0.05502285 0.00732066 0.00368857 0.00254216 0.00343129 0.01016127 0.00588621 0.02204897 0.00252998 0.00238740 0.04206266 0.00860247 0.00655969 0.05114291 0.00128090 
0.02873790 0.05474968 0.00742533 0.00372913 0.00261359 0.00343793 0.01003445 0.00590184 0.02194122 0.00254395 0.00239874 0.04193213 0.00832520 0.00665845 0.05126769 0.00128098 
0.02895172 0.05443364 0.00753367 0.00377074 0.00268343 0.00344165 0.00989927 0.00591303 0.02182942 0.00255840 0.00240864 0.04187731 0.00804858 0.00676094 0.05130290 0.00128110 
0.02914786 0.05407792 0.00764525 0.00381338 0.00275135 0.00344236 0.00975611 0.00591956 0.02171399 0.00257312 0.00241704 0.04189715 0.00777397 0.00686686 0.05124718 0.00128126 
0.02932906 0.05368612 0.00775962 0.00385706 0.00281702 0.00343999 0.00960539 0.00592122 0.02159536 0.00258795 0.00242390 0.04199049 0.00750272 0.00697589 0.05109972 0.00128146 
0.02949826 0.05326213 0.00787635 0.00390178 0.00288015 0.00343448 0.00944761 0.00591788 0.02147400 0.00260273 0.00242916 0.04215607 0.00723621 0.00708772 0.05086020 0.00128172 
0.02965853 0.05281018 0.00799503 0.00394753 0.00294044 0.00342581 0.00928330 0.00590939 0.02135041 0.00261730 0.00243281 0.04239255 0.00697580 0.00720199 0.05052883 0.00128203 
0.02981310 0.05233479 0.00811523 0.00399431 0.00299762 0.00341397 0.00911305 0.00589569 0.02122509 0.00263151 0.00243480 0.04269851 0.00672287 0.00731834 0.05010634 0.00128240 
0.02996528 0.05184074 0.00823658 0.00404213 0.00305143 0.00339896 0.00893751 0.00587672 0.02109860 0.00264526 0.00243513 0.04307248 0.00647875 0.00743638 0.04959399 0.00128284 
0.03011848 0.05133302 0.00835869 0.00409099 0.00310164 0.00338082 0.00875737 0.00585249 0.02097148 0.00265843 0.00243377 0.04351293 0.00624479 0.00755573 0.04899354 0.00128335 
0.03027614 0.05081683 0.00848122 0.00414089 0.00314804 0.00335958 0.00857335 0.00582302 0.02084428 0.00267092 0.00243074 0.04401829 0.00602229 0.00767600 0.04830724 0.00128393 
0.03044172 0.05029754 0.00860384 0.00419183 0.00319043 0.00333533 0.00838622 0.00578840 0.02071757 0.00268267 0.00242604 0.04458696 0.00581250 0.00779678 0.04753783 0.00128458 
0.03061868 0.04978063 0.00872626 0.00424381 0.00322864 0.00330815 0.00819680 0.00574874 0.02059191 0.00269361 0.00241969 0.04521733 0.00561665 0.00791766 0.04668854 0.00128532 
0.03081041 0.04927167 0.00884819 0.00429681 0.00326253 0.00327814 0.00800591 0.00570419 0.02046784 0.00270370 0.00241171 0.04590774 0.00543590 0.00803824 0.04576300 0.00128613 
0.03102027 0.04877628 0.00896939 0.00435084 0.00329197 0.00324543 0.00781443 0.00565496 0.02034592 0.00271292 0.00240214 0.04665655 0.00527136 0.00815813 0.04476530 0.00128702 
0.03125152 0.04830010 0.00908966 0.00440588 0.00331687 0.00321016 0.00762323 0.00560126 0.02022668 0.00272125 0.00239102 0.04746209 0.00512408 0.00827691 0.04369993 0.00128800 
0.03150727 0.04784871 0.00920880 0.00446191 0.00333715 0.00317249 0.00743322 0.00554338 0.02011063 0.00272872 0.00237841 0.04832268 0.00499502 0.00839420 0.04257171 0.00128905 
0.03179053 0.04742766 0.00932666 0.00451892 0.00335278 0.00313261 0.00724531 0.00548162 0.01999826 0.00273534 0.00236436 0.04923667 0.00488507 0.00850962 0.04138584 0.00129019 
0.03210409 0.04704236 0.00944314 0.00457686 0.00336372 0.00309070 0.00706043 0.00541632 0.01989004 0.00274115 0.00234895 0.05020236 0.00479504 0.00862281 0.04014779 0.00129141 
0.03245060 0.04669808 0.00955814 0.00463572 0.00336999 0.00304697 0.00687949 0.00534785 0.01978640 0.00274623 0.00233227 0.05121808 0.00472566 0.00873341 0.03886334 0.00129271 
0.03283244 0.04639990 0.00967161 0.00469544 0.00337161 0.00300165 0.00670340 0.00527662 0.01968776 0.00275063 0.00231438 0.05228215 0.00467756 0.00884109 0.03753846 0.00129408 
0.03325181 0.04615269 0.00978353 0.00475597 0.00336865 0.00295496 0.00653310 0.00520305 0.01959448 0.00275445 0.00229540 0.05339286 0.00465125 0.00894552 0.03617935 0.00129552 
0.03371061 0.04596103 0.00989391 0.00481726 0.00336118 0.00290716 0.00636945 0.00512762 0.01950691 0.00275778 0.00227542 0.05454853 0.00464718 0.00904643 0.03479235 0.00129703 
0.03421050 0.04582923 0.01000279 0.00487925 0.00334931 0.00285848 0.00621335 0.00505080 0.01942534 0.00276075 0.00225456 0.05574743 0.00466567 0.00914354 0.03338394 0.00129861 
0.03475284 0.04576125 0.01011025 0.00494186 0.00333316 0.00280921 0.00606565 0.00497310 0.01935004 0.00276346 0.00223292 0.05698783 0.00470694 0.00923660 0.03196065 0.00130025 
0.03533871 0.04576070 0.01021638 0.00500500 0.00331289 0.00275961 0.00592716 0.00489504 0.01928123 0.00276606 0.00221064 0.05826799 0.00477110 0.00932539 0.03052908 0.00130193 
0.03596887 0.04583079 0.01032129 0.00506860 0.00328867 0.00270995 0.00579868 0.00481716 0.01921908 0.00276869 0.00218783 0.05958612 0.00485817 0.00940973 0.02909582 0.00130367 
0.03664375 0.04597430 0.01042515 0.00513253 0.00326069 0.00266052 0.00568095 0.00474003 0.01916375 0.00277149 0.00216463 0.06094042 0.00496805 0.00948946 0.02766742 0.00130544 
0.03736349 0.04619360 0.01052810 0.00519671 0.00322915 0.00261159 0.00557468 0.00466419 0.01911534 0.00277461 0.00214119 0.06232903 0.00510052 0.00956444 0.02625035 0.00130724 
0.03812787 0.04649056 0.01063034 0.00526101 0.00319429 0.00256345 0.00548053 0.00459022 0.01907392 0.00277821 0.00211762 0.06375008 0.00525526 0.00963456 0.02485098 0.00130907 
0.03893637 0.04686659 0.01073206 0.00532531 0.00315636 0.00251637 0.00539911 0.00451870 0.01903951 0.00278245 0.00209409 0.06520164 0.00543185 0.00969976 0.02347552 0.00131092 
0.03978812 0.04732258 0.01083346 0.00538947 0.00311560 0.00247065 0.00533097 0.00445019 0.01901211 0.00278749 0.00207073 0.06668172 0.00562976 0.00976000 0.02212998 0.00131277 
0.04068192 0.04785893 0.01093478 0.00545335 0.00307228 0.00242655 0.00527660 0.00438528 0.01899170 0.00279349 0.00204769 0.06818829 0.00584836 0.00981527 0.02082017 0.00131462 
0.04161627 0.04847551 0.01103623 0.00551680 0.00302669 0.00238434 0.00523644 0.00432451 0.01897819 0.00280060 0.00202511 0.06971926 0.00608693 0.00986557 0.01955166 0.00131647 
0.04258932 0.04917166 0.01113803 0.00557967 0.00297912 0.00234429 0.00521084 0.00426845 0.01897150 0.00280897 0.00200315 0.07127249 0.00634463 0.00991097 0.01832969 0.00131829 
0.04359894 0.04994618 0.01124040 0.00564179 0.00292987 0.00230665 0.00520013 0.00421764 0.01897151 0.00281874 0.00198195 0.07284575 0.00662056 0.00995154 0.01715924 0.00132008 
0.04464270 0.05079738 0.01134357 0.00570299 0.00287922 0.00227167 0.00520452 0.00417260 0.01897809 0.00283007 0.00196165 0.07443678 0.00691371 0.00998738 0.01604494 0.00132184 
0.04571786 0.05172300 0.01144773 0.00576311 0.00282749 0.00223957 0.00522418 0.00413384 0.01899109 0.00284306 0.00194239 0.07604324 0.00722301 0.01001862 0.01499103 0.00132355 
0.04682143 0.05272030 0.01155308 0.00582196 0.00277499 0.00221059 0.00525920 0.00410183 0.01901033 0.00285785 0.00192431 0.07766272 0.00754729 0.01004543 0.01400141 0.00132521 
0.04795015 0.05378604 0.01165979 0.00587936 0.00272201 0.00218492 0.00530959 0.00407705 0.01903565 0.00287454 0.00190754 0.07929277 0.00788534 0.01006797 0.01307957 0.00132680 
0.04910054 0.05491646 0.01176801 0.00593513 0.00266886 0.00216277 0.00537532 0.00405991 0.01906687 0.00289322 0.00189222 0.08093087 0.00823586 0.01008646 0.01222858 0.00132832 
0.05026887 0.05610737 0.01187789 0.00598908 0.00261583 0.00214429 0.00545624 0.00405081 0.01910381 0.00291397 0.00187847 0.08257444 0.00859751 0.01010110 0.01145107 0.00132975 
0.05145122 0.05735411 0.01198950 0.00604103 0.00256322 0.00212966 0.00555216 0.00405012 0.01914629 0.00293686 0.00186640 0.08422088 0.00896890 0.01011215 0.01074927 0.00133110 
0.05264351 0.05865161 0.01210293 0.00609079 0.00251130 0.00211902 0.00566281 0.00405816 0.01919415 0.00296194 0.00185612 0.08586750 0.00934859 0.01011985 0.01012493 0.00133236 
0.05384147 0.05999440 0.01221822 0.00613817 0.00246035 0.00211248 0.00578785 0.00407522 0.01924723 0.00298923 0.00184773 0.08751163 0.00973513 0.01012447 0.00957937 0.00133351 
0.05504071 0.06137665 0.01233536 0.00618299 0.00241062 0.00211015 0.00592686 0.00410156 0.01930539 0.00301876 0.00184133 0.08915053 0.01012701 0.01012629 0.00911346 0.00133455 
0.05623673 0.06279223 0.01245431 0.00622508 0.00236237 0.00211211 0.00607937 0.00413736 0.01936851 0.00305051 0.00183701 0.09078146 0.01052273 0.01012559 0.00872761 0.00133548 
0.05742494 0.06423467 0.01257499 0.00626426 0.00231582 0.00211843 0.00624483 0.00418280 0.01943649 0.00308447 0.00183483 0.09240167 0.01092077 0.01012268 0.00842179 0.00133629 
0.05860069 0.06569728 0.01269727 0.00630035 0.00227119 0.00212914 0.00642264 0.00423800 0.01950926 0.00312060 0.00183487 0.09400843 0.01131960 0.01011784 0.00819553 0.00133698 
0.05975928 0.06717315 0.01282100 0.00633321 0.00222869 0.00214427 0.00661214 0.00430301 0.01958677 0.00315884 0.00183717 0.09559902 0.01171770 0.01011138 0.00804794 0.00133754 
0.06089600 0.06865521 0.01294594 0.00636266 0.00218848 0.00216382 0.00681261 0.00437786 0.01966900 0.00319910 0.00184177 0.09717074 0.01211357 0.01010360 0.00797770 0.00133797 
0.06200616 0.07013624 0.01307184 0.00638856 0.00215073 0.00218776 0.00702327 0.00446253 0.01975597 0.00324130 0.00184872 0.09872094 0.01250574 0.01009479 0.00798309 0.00133827 
0.06308511 0.07160896 0.01319839 0.00641078 0.00211559 0.00221606 0.00724330 0.00455693 0.01984773 0.00328531 0.00185803 0.10024704 0.01289274 0.01008525 0.00806200 0.00133844 
0.06412825 0.07306605 0.01332524 0.00642919 0.00208317 0.00224865 0.00747184 0.00466095 0.01994437 0.00333101 0.00186970 0.10174654 0.01327316 0.01007526 0.00821197 0.00133848 
0.06513106 0.07450018 0.01345197 0.00644367 0.00205358 0.00228544 0.00770799 0.00477441 0.02004600 0.00337825 0.00188374 0.10321700 0.01364562 0.01006509 0.00843015 0.00133838 
0.06608916 0.07590410 0.01357814 0.00645412 0.00202689 0.00232634 0.00795081 0.00489708 0.02015278 0.00342686 0.00190011 0.10465612 0.01400881 0.01005502 0.00871341 0.00133816 
0.06699827 0.07727066 0.01370325 0.00646045 0.00200317 0.00237122 0.00819933 0.00502870 0.02026491 0.00347666 0.00191880 0.10606171 0.01436145 0.01004528 0.00905828 0.00133781 
0.06785427 0.07859286 0.01382678 0.00646259 0.00198244 0.00241994 0.00845255 0.00516896 0.02038260 0.00352746 0.00193975 0.10743172 0.01470235 0.01003613 0.00946103 0.00133733 
0.06865323 0.07986389 0.01394814 0.00646047 0.00196474 0.00247234 0.00870946 0.00531748 0.02050613 0.00357906 0.00196292 0.10876424 0.01503037 0.01002779 0.00991768 0.00133673 
0.06939141 0.08107718 0.01406672 0.00645405 0.00195005 0.00252825 0.00896905 0.00547386 0.02063577 0.00363123 0.00198822 0.11005755 0.01534445 0.01002045 0.01042402 0.00133602 
0.07006528 0.08222644 0.01418188 0.00644329 0.00193835 0.00258748 0.00923026 0.00563766 0.02077185 0.00368375 0.00201559 0.11131011 0.01564360 0.01001432 0.01097565 0.00133519 
0.07067154 0.08330573 0.01429294 0.00642819 0.00192960 0.00264981 0.00949206 0.00580837 0.02091471 0.00373638 0.00204492 0.11252057 0.01592695 0.01000956 0.01156799 0.00133426 
0.07120716 0.08430945 0.01439920 0.00640874 0.00192375 0.00271503 0.00975342 0.00598549 0.02106473 0.00378888 0.00207611 0.11368780 0.01619366 0.01000633 0.01219636 0.00133322 
0.07166935 0.08523241 0.01449993 0.00638498 0.00192070 0.00278290 0.01001330 0.00616843 0.02122228 0.00384101 0.00210903 0.11481090 0.01644303 0.01000476 0.01285593 0.00133209 
0.07205562 0.08606988 0.01459439 0.00635692 0.00192038 0.00285319 0.01027069 0.00635661 0.02138779 0.00389252 0.00214357 0.11588921 0.01667443 0.01000496 0.01354183 0.00133088 
0.07236377 0.08681758 0.01468183 0.00632464 0.00192268 0.00292563 0.01052460 0.00654939 0.02156165 0.00394314 0.00217958 0.11692229 0.01688733 0.01000703 0.01424913 0.00132958 
0.07259190 0.08747174 0.01476149 0.00628821 0.00192746 0.00299997 0.01077404 0.00674612 0.02174430 0.00399265 0.00221690 0.11791000 0.01708130 0.01001104 0.01497290 0.00132822 
0.07273841 0.08802913 0.01483260 0.00624771 0.00193461 0.00307593 0.01101808 0.00694611 0.02193616 0.00404078 0.00225538 0.11885244 0.01725601 0.01001706 0.01570820 0.00132679 
0.07280205 0.08848707 0.01489442 0.00620326 0.00194399 0.00315324 0.01125581 0.00714866 0.02213764 0.00408729 0.00229484 0.11975000 0.01741121 0.01002512 0.01645016 0.00132530 
0.07278189 0.08884346 0.01494620 0.00615499 0.00195543 0.00323161 0.01148635 0.00735306 0.02234915 0.00413196 0.00233511 0.12060333 0.01754678 0.01003524 0.01719397 0.00132377 
0.07267734 0.08909680 0.01498722 0.00610305 0.00196879 0.00331077 0.01170889 0.00755856 0.02257109 0.00417454 0.00237599 0.12141338 0.01766268 0.01004744 0.01793493 0.00132220 
0.07248812 0.08924618 0.01501678 0.00604759 0.00198391 0.00339043 0.01192264 0.00776442 0.02280383 0.00421483 0.00241729 0.12218137 0.01775896 0.01006169 0.01866848 0.00132060 
0.07221434 0.08929134 0.01503420 0.00598880 0.00200062 0.00347031 0.01212689 0.00796989 0.02304771 0.00425261 0.00245881 0.12290883 0.01783578 0.01007799 0.01939019 0.00131898 
0.07185642 0.08923260 0.01503886 0.00592688 0.00201875 0.00355012 0.01232097 0.00817420 0.02330306 0.00428770 0.00250035 0.12359756 0.01789338 0.01009629 0.02009581 0.00131735 
0.07141513 0.08907095 0.01503016 0.00586205 0.00203816 0.00362958 0.01250427 0.00837661 0.02357014 0.00431993 0.00254169 0.12424962 0.01793210 0.01011656 0.02078132 0.00131571 
0.07089159 0.08880797 0.01500758 0.00579453 0.00205866 0.00370842 0.01267625 0.00857636 0.02384919 0.00434912 0.00258262 0.12486738 0.01795237 0.01013873 0.02144288 0.00131407 
0.07028727 0.08844590 0.01497061 0.00572457 0.00208011 0.00378636 0.01283644 0.00877271 0.02414039 0.00437514 0.00262293 0.12545345 0.01795467 0.01016275 0.02207694 0.00131244 
0.06960393 0.08798754 0.01491885 0.00565243 0.00210237 0.00386315 0.01298443 0.00896493 0.02444386 0.00439787 0.00266238 0.12601072 0.01793961 0.01018854 0.02268017 0.00131083 
0.06884372 0.08743634 0.01485194 0.00557839 0.00212527 0.00393852 0.01311989 0.00915229 0.02475968 0.00441721 0.00270077 0.12654232 0.01790782 0.01021605 0.02324954 0.00130924 
0.06800906 0.08679628 0.01476961 0.00550273 0.00214871 0.00401224 0.01324257 0.00933412 0.02508786 0.00443307 0.00273788 0.12705161 0.01786004 0.01024519 0.02378229 0.00130767 
0.06710271 0.08607193 0.01467164 0.00542576 0.00217255 0.00408406 0.01335228 0.00950972 0.02542832 0.00444541 0.00277348 0.12754217 0.01779704 0.01027589 0.02427599 0.00130615 
0.06612774 0.08526838 0.01455793 0.00534779 0.00219668 0.00415377 0.01344892 0.00967846 0.02578093 0.00445420 0.00280738 0.12801778 0.01771968 0.01030808 0.02472848 0.00130466 
0.06508749 0.08439124 0.01442845 0.00526913 0.00222101 0.00422116 0.01353245 0.00983973 0.02614549 0.00445941 0.00283935 0.12848242 0.01762884 0.01034169 0.02513797 0.00130322 
0.06398561 0.08344659 0.01428325 0.00519012 0.00224547 0.00428603 0.01360293 0.00999293 0.02652171 0.00446108 0.00286919 0.12894021 0.01752545 0.01037665 0.02550297 0.00130182 
0.06282600 0.08244095 0.01412250 0.00511109 0.00226998 0.00434819 0.01366047 0.01013753 0.02690921 0.00445924 0.00289671 0.12939542 0.01741050 0.01041292 0.02582231 0.00130047 
0.06161283 0.08138124 0.01394643 0.00503240 0.00229451 0.00440749 0.01370529 0.01027303 0.02730756 0.00445397 0.00292171 0.12985244 0.01728499 0.01045043 0.02609517 0.00129918 
0.06035050 0.08027476 0.01375542 0.00495439 0.00231902 0.00446376 0.01373766 0.01039895 0.02771622 0.00444534 0.00294401 0.13031576 0.01714996 0.01048914 0.02632107 0.00129794 
0.05904363 0.07912912 0.01354990 0.00487741 0.00234350 0.00451689 0.01375792 0.01051488 0.02813458 0.00443348 0.00296345 0.13078990 0.01700644 0.01052903 0.02649983 0.00129676 
0.05769707 0.07795222 0.01333043 0.00480182 0.00236797 0.00456675 0.01376650 0.01062046 0.02856195 0.00441854 0.00297985 0.13127946 0.01685551 0.01057007 0.02663162 0.00129564 
0.05631585 0.07675219 0.01309767 0.00472798 0.00239244 0.00461325 0.01376390 0.01071537 0.02899754 0.00440066 0.00299308 0.13178901 0.01669823 0.01061225 0.02671693 0.00129457 
0.05490517 0.07553734 0.01285238 0.00465625 0.00241696 0.00465630 0.01375065 0.01079933 0.02944051 0.00438004 0.00300298 0.13232311 0.01653567 0.01065557 0.02675655 0.00129356 
0.05347037 0.07431615 0.01259540 0.00458697 0.00244159 0.00469584 0.01372738 0.01087214 0.02988993 0.00435690 0.00300944 0.13288626 0.01636888 0.01070005 0.02675157 0.00129260 
0.05201697 0.07309714 0.01232770 0.00452052 0.00246643 0.00473184 0.01369478 0.01093363 0.03034478 0.00433144 0.00301235 0.13348289 0.01619892 0.01074571 0.02670340 0.00129169 
0.05055054 0.07188892 0.01205033 0.00445722 0.00249155 0.00476426 0.01365356 0.01098370 0.03080400 0.00430394 0.00301161 0.13411729 0.01602680 0.01079260 0.02661369 0.00129084 
0.04907679 0.07070006 0.01176442 0.00439743 0.00251709 0.00479309 0.01360450 0.01102232 0.03126645 0.00427464 0.00300716 0.13479360 0.01585353 0.01084075 0.02648438 0.00129004 
0.04760148 0.06953907 0.01147120 0.00434146 0.00254317 0.00481836 0.01354844 0.01104948 0.03173092 0.00424383 0.00299891 0.13551577 0.01568009 0.01089023 0.02631765 0.00128928 
0.04613041 0.06841436 0.01117199 0.00428966 0.00256994 0.00484008 0.01348624 0.01106526 0.03219616 0.00421182 0.00298685 0.13628755 0.01550739 0.01094112 0.02611589 0.00128856 
0.04466942 0.06733416 0.01086819 0.00424232 0.00259755 0.00485830 0.01341879 0.01106978 0.03266087 0.00417891 0.00297093 0.13711241 0.01533636 0.01099350 0.02588175 0.00128788 
0.04322434 0.06630652 0.01056124 0.00419975 0.00262617 0.00487310 0.01334702 0.01106323 0.03312369 0.00414541 0.00295115 0.13799357 0.01516783 0.01104745 0.02561802 0.00128724 
0.04180098 0.06533921 0.01025268 0.00416223 0.00265599 0.00488454 0.01327189 0.01104585 0.03358325 0.00411167 0.00292753 0.13893391 0.01500261 0.01110308 0.02532769 0.00128663 
0.04040510 0.06443969 0.00994409 0.00413003 0.00268720 0.00489272 0.01319434 0.01101793 0.03403814 0.00407801 0.00290009 0.13993596 0.01484146 0.01116048 0.02501389 0.00128604 
0.03904238 0.06361508 0.00963712 0.00410339 0.00271998 0.00489776 0.01311537 0.01097982 0.03448692 0.00404478 0.00286889 0.14100191 0.01468509 0.01121977 0.02467990 0.00128548 
0.03771843 0.06287213 0.00933344 0.00408256 0.00275454 0.00489978 0.01303594 0.01093193 0.03492814 0.00401232 0.00283401 0.14213350 0.01453413 0.01128105 0.02432908 0.00128493 
0.03643872 0.06221712 0.00903476 0.00406773 0.00279109 0.00489891 0.01295703 0.01087470 0.03536037 0.00398098 0.00279553 0.14333208 0.01438918 0.01134443 0.02396489 0.00128440 
0.03520856 0.06165588 0.00874282 0.00405909 0.00282981 0.00489532 0.01287960 0.01080865 0.03578216 0.00395109 0.00275356 0.14459854 0.01425077 0.01141001 0.02359083 0.00128388 
0.03403312 0.06119374 0.00845937 0.00405682 0.00287092 0.00488917 0.01280459 0.01073430 0.03619207 0.00392300 0.00270823 0.14593328 0.01411937 0.01147789 0.02321047 0.00128337 
0.03291736 0.06083547 0.00818618 0.00406104 0.00291462 0.00488062 0.01273294 0.01065227 0.03658870 0.00389704 0.00265970 0.14733623 0.01399537 0.01154818 0.02282736 0.00128285 
0.03186603 0.06058529 0.00792500 0.00407188 0.00296108 0.00486987 0.01266552 0.01056317 0.03697067 0.00387353 0.00260813 0.14880679 0.01387915 0.01162095 0.02244506 0.00128234 
0.03088363 0.06044682 0.00767756 0.00408942 0.00301049 0.00485711 0.01260319 0.01046768 0.03733662 0.00385278 0.00255371 0.15034385 0.01377097 0.01169629 0.02206710 0.00128183 
0.02997441 0.06042306 0.00744560 0.00411372 0.00306303 0.00484253 0.01254677 0.01036650 0.03768527 0.00383509 0.00249665 0.15194576 0.01367106 0.01177424 0.02169694 0.00128131 
0.02914232 0.06051636 0.00723080 0.00414482 0.00311885 0.00482635 0.01249701 0.01026037 0.03801538 0.00382075 0.00243716 0.15361033 0.01357960 0.01185486 0.02133799 0.00128079 
0.02839100 0.06072844 0.00703479 0.00418271 0.00317809 0.00480878 0.01245463 0.01015004 0.03832575 0.00381002 0.00237549 0.15533481 0.01349670 0.01193816 0.02099354 0.00128025 
0.02772379 0.06106034 0.00685917 0.00422736 0.00324089 0.00479004 0.01242027 0.01003629 0.03861527 0.00380316 0.00231190 0.15711592 0.01342241 0.01202416 0.02066676 0.00127971 
0.02714367 0.06151240 0.00670545 0.00427872 0.00330733 0.00477034 0.01239451 0.00991994 0.03888291 0.00380040 0.00224664 0.15894983 0.01335674 0.01211284 0.02036071 0.00127916 
0.02665323 0.06208432 0.00657511 0.00433669 0.00337753 0.00474990 0.01237786 0.00980179 0.03912771 0.00380193 0.00218001 0.16083215 0.01329963 0.01220415 0.02007828 0.00127859 
0.02625473 0.06277507 0.00646950 0.00440117 0.00345152 0.00472895 0.01237076 0.00968268 0.03934880 0.00380795 0.00211229 0.16275798 0.01325100 0.01229803 0.01982218 0.00127803 
0.02594998 0.06358298 0.00638992 0.00447199 0.00352936 0.00470771 0.01237356 0.00956343 0.03954541 0.00381862 0.00204380 0.16472189 0.01321071 0.01239439 0.01959494 0.00127745 
0.02574042 0.06450567 0.00633753 0.00454897 0.00361106 0.00468641 0.01238655 0.00944488 0.03971685 0.00383406 0.00197485 0.16671796 0.01317856 0.01249308 0.01939889 0.00127687 
0.02562705 0.06554010 0.00631344 0.00463191 0.00369660 0.00466524 0.01240990 0.00932787 0.03986255 0.00385439 0.00190576 0.16873978 0.01315435 0.01259397 0.01923613 0.00127629 
0.02561044 0.06668258 0.00631858 0.00472056 0.00378595 0.00464444 0.01244372 0.00921321 0.03998205 0.00387969 0.00183686 0.17078050 0.01313781 0.01269687 0.01910856 0.00127571 
0.02569071 0.06792878 0.00635382 0.00481465 0.00387903 0.00462420 0.01248803 0.00910173 0.04007497 0.00391000 0.00176850 0.17283281 0.01312867 0.01280155 0.01901781 0.00127514 
0.02586755 0.06927375 0.00641987 0.00491389 0.00397575 0.00460472 0.01254275 0.00899422 0.04014107 0.00394534 0.00170101 0.17488904 0.01312660 0.01290778 0.01896528 0.00127458 
0.02614018 0.07071194 0.00651732 0.00501794 0.00407599 0.00458621 0.01260772 0.00889145 0.04018020 0.00398572 0.00163472 0.17694113 0.01313128 0.01301526 0.01895210 0.00127404 
0.02650736 0.07223723 0.00664662 0.00512646 0.00417957 0.00456885 0.01268266 0.00879418 0.04019234 0.00403108 0.00157000 0.17898071 0.01314235 0.01312369 0.01897917 0.00127351 
0.02696741 0.07384297 0.00680807 0.00523906 0.00428632 0.00455281 0.01276724 0.00870313 0.04017758 0.00408137 0.00150717 0.18099914 0.01315943 0.01323272 0.01904708 0.00127302 
0.02751819 0.07552199 0.00700185 0.00535536 0.00439603 0.00453826 0.01286102 0.00861899 0.04013611 0.00413650 0.00144657 0.18298752 0.01318214 0.01334198 0.01915618 0.00127257 
0.02815710 0.07726664 0.00722798 0.00547492 0.00450845 0.00452536 0.01296347 0.00854242 0.04006824 0.00419632 0.00138854 0.18493676 0.01321008 0.01345107 0.01930656 0.00127215 
0.02888111 0.07906886 0.00748633 0.00559730 0.00462331 0.00451426 0.01307398 0.00847403 0.03997439 0.00426070 0.00133340 0.18683765 0.01324286 0.01355955 0.01949800 0.00127179 
0.02968674 0.08092019 0.00777664 0.00572206 0.00474031 0.00450508 0.01319187 0.00841438 0.03985508 0.00432946 0.00128147 0.18868086 0.01328007 0.01366698 0.01973006 0.00127148 
0.03057010 0.08281179 0.00809847 0.00584870 0.00485913 0.00449796 0.01331636 0.00836400 0.03971093 0.00440238 0.00123306 0.19045704 0.01332130 0.01377288 0.02000201 0.00127124 
0.03152687 0.08473453 0.00845125 0.00597676 0.00497943 0.00449299 0.01344662 0.00832336 0.03954267 0.00447924 0.00118847 0.19215686 0.01336617 0.01387675 0.02031288 0.00127108 
0.03255235 0.08667904 0.00883429 0.00610571 0.00510085 0.00449028 0.01358173 0.00829288 0.03935112 0.00455977 0.00114798 0.19377104 0.01341427 0.01397807 0.02066142 0.00127099 
0.03364145 0.08863570 0.00924671 0.00623507 0.00522298 0.00448990 0.01372072 0.00827292 0.03913718 0.00464371 0.00111185 0.19529046 0.01346522 0.01407633 0.02104616 0.00127100 
0.03478874 0.09059475 0.00968752 0.00636430 0.00534544 0.00449192 0.01386257 0.00826377 0.03890184 0.00473075 0.00108034 0.19670614 0.01351866 0.01417098 0.02146541 0.00127111 
0.03598844 0.09254629 0.01015559 0.00649290 0.00546780 0.00449640 0.01400619 0.00826569 0.03864616 0.00482057 0.00105367 0.19800939 0.01357422 0.01426149 0.02191723 0.00127132 
0.03723446 0.09448038 0.01064965 0.00662034 0.00558962 0.00450337 0.01415047 0.00827884 0.03837129 0.00491283 0.00103207 0.19919180 0.01363155 0.01434729 0.02239949 0.00127165 
0.03852044 0.09638706 0.01116831 0.00674611 0.00571047 0.00451286 0.01429423 0.00830335 0.03807843 0.00500718 0.00101572 0.20024529 0.01369034 0.01442785 0.02290985 0.00127209 
0.03983973 0.09825640 0.01171007 0.00686969 0.00582989 0.00452487 0.01443629 0.00833926 0.03776883 0.00510325 0.00100479 0.20116223 0.01375026 0.01450263 0.02344581 0.00127267 
0.04118550 0.10007857 0.01227330 0.00699056 0.00594743 0.00453940 0.01457543 0.00838655 0.03744380 0.00520066 0.00099943 0.20193543 0.01381103 0.01457109 0.02400468 0.00127338 
0.04255070 0.10184388 0.01285628 0.00710824 0.00606263 0.00455644 0.01471044 0.00844515 0.03710469 0.00529902 0.00099976 0.20255820 0.01387237 0.01463273 0.02458364 0.00127423 
0.04392811 0.10354281 0.01345717 0.00722224 0.00617503 0.00457594 0.01484008 0.00851489 0.03675287 0.00539794 0.00100587 0.20302445 0.01393404 0.01468705 0.02517973 0.00127523 
0.04531040 0.10516613 0.01407407 0.00733207 0.00628418 0.00459787 0.01496312 0.00859556 0.03638976 0.00549700 0.00101783 0.20332867 0.01399581 0.01473359 0.02578988 0.00127638 
0.04669015 0.10670484 0.01470498 0.00743729 0.00638964 0.00462216 0.01507836 0.00868688 0.03601679 0.00559579 0.00103568 0.20346601 0.01405746 0.01477190 0.02641093 0.00127768 
0.04805987 0.10815034 0.01534783 0.00753745 0.00649095 0.00464874 0.01518458 0.00878849 0.03563537 0.00569392 0.00105943 0.20343232 0.01411880 0.01480157 0.02703964 0.00127914 
0.04941207 0.10949436 0.01600050 0.00763214 0.00658771 0.00467753 0.01528063 0.00889998 0.03524696 0.00579096 0.00108907 0.20322416 0.01417968 0.01482224 0.02767270 0.00128075 
0.05073928 0.11072910 0.01666080 0.00772098 0.00667950 0.00470842 0.01536538 0.00902086 0.03485297 0.00588651 0.00112454 0.20283888 0.01423993 0.01483360 0.02830680 0.00128252 
0.05203406 0.11184720 0.01732652 0.00780358 0.00676593 0.00474132 0.01543772 0.00915059 0.03445483 0.00598017 0.00116579 0.20227459 0.01429943 0.01483536 0.02893858 0.00128446 
0.05328912 0.11284183 0.01799539 0.00787961 0.00684662 0.00477610 0.01549664 0.00928858 0.03405394 0.00607154 0.00121269 0.20153025 0.01435807 0.01482730 0.02956471 0.00128655 
0.05449726 0.11370670 0.01866515 0.00794876 0.00692123 0.00481263 0.01554116 0.00943416 0.03365165 0.00616024 0.00126513 0.20060561 0.01441575 0.01480925 0.03018186 0.00128879 
0.05565147 0.11443610 0.01933351 0.00801075 0.00698943 0.00485078 0.01557036 0.00958662 0.03324929 0.00624588 0.00132294 0.19950131 0.01447240 0.01478112 0.03078677 0.00129118 
0.05674495 0.11502495 0.01999817 0.00806533 0.00705093 0.00489040 0.01558343 0.00974519 0.03284817 0.00632810 0.00138593 0.19821881 0.01452796 0.01474285 0.03137623 0.00129372 
0.05777115 0.11546878 0.02065686 0.00811229 0.00710545 0.00493133 0.01557959 0.00990907 0.03244951 0.00640656 0.00145388 0.19676046 0.01458237 0.01469447 0.03194711 0.00129640 
0.05872381 0.11576381 0.02130732 0.00815145 0.00715277 0.00497342 0.01555819 0.01007740 0.03205451 0.00648091 0.00152655 0.19512945 0.01463560 0.01463608 0.03249639 0.00129920 
0.05959698 0.11590695 0.02194731 0.00818267 0.00719268 0.00501649 0.01551867 0.01024927 0.03166430 0.00655085 0.00160367 0.19332983 0.01468763 0.01456784 0.03302117 0.00130213 
0.06038506 0.11589581 0.02257465 0.00820583 0.00722500 0.00506038 0.01546053 0.01042377 0.03127994 0.00661606 0.00168495 0.19136650 0.01473843 0.01448998 0.03351868 0.00130517 
0.06108284 0.11572871 0.02318718 0.00822087 0.00724960 0.00510491 0.01538341 0.01059991 0.03090243 0.00667627 0.00177006 0.18924516 0.01478800 0.01440283 0.03398630 0.00130831 
0.06168552 0.11540472 0.02378281 0.00822775 0.00726638 0.00514989 0.01528705 0.01077671 0.03053269 0.00673121 0.00185867 0.18697233 0.01483635 0.01430676 0.03442158 0.00131154 
0.06218875 0.11492365 0.02435953 0.00822647 0.00727527 0.00519514 0.01517128 0.01095314 0.03017159 0.00678066 0.00195042 0.18455531 0.01488346 0.01420225 0.03482227 0.00131484 
0.06258863 0.11428602 0.02491538 0.00821706 0.00727624 0.00524048 0.01503606 0.01112819 0.02981990 0.00682439 0.00204492 0.18200213 0.01492935 0.01408982 0.03518629 0.00131820 
0.06288176 0.11349313 0.02544849 0.00819961 0.00726930 0.00528571 0.01488147 0.01130080 0.02947832 0.00686222 0.00214178 0.17932153 0.01497402 0.01397010 0.03551178 0.00132160 
0.06306527 0.11254700 0.02595708 0.00817422 0.00725449 0.00533066 0.01470767 0.01146991 0.02914747 0.00689396 0.00224058 0.17652291 0.01501749 0.01384377 0.03579709 0.00132503 
0.06313679 0.11145036 0.02643946 0.00814103 0.00723188 0.00537512 0.01451498 0.01163448 0.02882789 0.00691948 0.00234090 0.17361629 0.01505975 0.01371159 0.03604080 0.00132845 
0.06309452 0.11020668 0.02689404 0.00810021 0.00720160 0.00541892 0.01430380 0.01179345 0.02852004 0.00693865 0.00244230 0.17061227 0.01510081 0.01357438 0.03624173 0.00133187 
0.06293721 0.10882011 0.02731935 0.00805199 0.00716377 0.00546186 0.01407467 0.01194578 0.02822430 0.00695138 0.00254433 0.16752194 0.01514068 0.01343303 0.03639893 0.00133525 
0.06266418 0.10729547 0.02771401 0.00799658 0.00711859 0.00550376 0.01382823 0.01209045 0.02794098 0.00695760 0.00264654 0.16435687 0.01517935 0.01328850 0.03651170 0.00133858 
0.06227533 0.10563826 0.02807678 0.00793427 0.00706625 0.00554445 0.01356524 0.01222643 0.02767031 0.00695725 0.00274847 0.16112901 0.01521681 0.01314180 0.03657960 0.00134183 
0.06177114 0.10385458 0.02840652 0.00786534 0.00700698 0.00558375 0.01328654 0.01235276 0.02741243 0.00695031 0.00284966 0.15785066 0.01525304 0.01299399 0.03660241 0.00134498 
0.06115268 0.10195114 0.02870223 0.00779012 0.00694107 0.00562147 0.01299311 0.01246847 0.02716744 0.00693677 0.00294965 0.15453437 0.01528803 0.01284617 0.03658021 0.00134800 
0.06042157 0.09993519 0.02896302 0.00770894 0.00686878 0.00565747 0.01268601 0.01257267 0.02693536 0.00691667 0.00304798 0.15119291 0.01532173 0.01269950 0.03651328 0.00135088 
0.05958005 0.09781453 0.02918813 0.00762217 0.00679044 0.00569157 0.01236640 0.01266446 0.02671614 0.00689003 0.00314420 0.14783918 0.01535412 0.01255516 0.03640217 0.00135360 
0.05863091 0.09559742 0.02937694 0.00753019 0.00670636 0.00572361 0.01203553 0.01274303 0.02650967 0.00685693 0.00323787 0.14448613 0.01538513 0.01241437 0.03624769 0.00135612 
0.05757747 0.09329258 0.02952895 0.00743341 0.00661691 0.00575345 0.01169473 0.01280759 0.02631580 0.00681745 0.00332855 0.14114672 0.01541473 0.01227834 0.03605085 0.00135842 
0.05642362 0.09090911 0.02964379 0.00733222 0.00652244 0.00578095 0.01134541 0.01285744 0.02613432 0.00677170 0.00341583 0.13783384 0.01544283 0.01214834 0.03581292 0.00136049 
0.05517377 0.08845648 0.02972124 0.00722706 0.00642333 0.00580596 0.01098904 0.01289191 0.02596499 0.00671981 0.00349929 0.13456020 0.01546937 0.01202560 0.03553539 0.00136229 
0.05383283 0.08594444 0.02976118 0.00711836 0.00631997 0.00582837 0.01062717 0.01291042 0.02580752 0.00666190 0.00357855 0.13133833 0.01549427 0.01191138 0.03521995 0.00136381 
0.05240619 0.08338302 0.02976363 0.00700655 0.00621276 0.00584804 0.01026138 0.01291243 0.02566158 0.00659816 0.00365325 0.12818047 0.01551742 0.01180690 0.03486849 0.00136502 
0.05089970 0.08078242 0.02972875 0.00689208 0.00610208 0.00586488 0.00989331 0.01289749 0.02552685 0.00652874 0.00372303 0.12509848 0.01553874 0.01171339 0.03448311 0.00136591 
0.04931962 0.07815303 0.02965680 0.00677540 0.00598834 0.00587878 0.00952464 0.01286524 0.02540295 0.00645386 0.00378758 0.12210385 0.01555811 0.01163204 0.03406607 0.00136644 
0.04767264 0.07550529 0.02954817 0.00665694 0.00587195 0.00588965 0.00915707 0.01281539 0.02528951 0.00637370 0.00384660 0.11920755 0.01557543 0.01156398 0.03361979 0.00136661 
0.04596578 0.07284973 0.02940338 0.00653715 0.00575330 0.00589740 0.00879231 0.01274770 0.02518614 0.00628850 0.00389982 0.11642005 0.01559057 0.01151033 0.03314686 0.00136640 
0.04420642 0.07019684 0.02922305 0.00641645 0.00563279 0.00590196 0.00843210 0.01266207 0.02509247 0.00619849 0.00394700 0.11375120 0.01560342 0.01147214 0.03264997 0.00136578 
0.04240220 0.06755707 0.02900791 0.00629528 0.00551079 0.00590327 0.00807815 0.01255845 0.02500810 0.00610390 0.00398795 0.11121021 0.01561384 0.01145039 0.03213195 0.00136474 
0.04056105 0.06494075 0.02875880 0.00617405 0.00538768 0.00590127 0.00773219 0.01243689 0.02493269 0.00600500 0.00402248 0.10880561 0.01562170 0.01144599 0.03159571 0.00136327 
0.03869108 0.06235805 0.02847667 0.00605316 0.00526383 0.00589593 0.00739592 0.01229753 0.02486587 0.00590205 0.00405045 0.10654517 0.01562688 0.01145980 0.03104426 0.00136136 
0.03680061 0.05981893 0.02816255 0.00593300 0.00513959 0.00588721 0.00707099 0.01214059 0.02480731 0.00579532 0.00407177 0.10443589 0.01562924 0.01149256 0.03048064 0.00135900 
0.03489805 0.05733307 0.02781758 0.00581394 0.00501528 0.00587508 0.00675904 0.01196639 0.02475671 0.00568509 0.00408635 0.10248394 0.01562866 0.01154494 0.02990798 0.00135617 
0.03299195 0.05490988 0.02744297 0.00569634 0.00489122 0.00585955 0.00646165 0.01177535 0.02471379 0.00557165 0.00409417 0.10069467 0.01562500 0.01161749 0.02932939 0.00135287 
0.03109085 0.05255840 0.02704001 0.00558054 0.00476771 0.00584061 0.00618033 0.01156796 0.02467832 0.00545529 0.00409523 0.09907251 0.01561814 0.01171067 0.02874800 0.00134910 
0.02920335 0.05028726 0.02661008 0.00546684 0.00464503 0.00581827 0.00591655 0.01134481 0.02465010 0.00533631 0.00408956 0.09762104 0.01560796 0.01182484 0.02816695 0.00134486 
0.02733796 0.04810469 0.02615462 0.00535555 0.00452343 0.00579255 0.00567168 0.01110658 0.02462897 0.00521502 0.00407725 0.09634290 0.01559435 0.01196022 0.02758932 0.00134013 
0.02550312 0.04601843 0.02567512 0.00524693 0.00440315 0.00576349 0.00544702 0.01085404 0.02461481 0.00509171 0.00405840 0.09523982 0.01557720 0.01211692 0.02701816 0.00133494 
0.02370716 0.04403573 0.02517315 0.00514123 0.00428439 0.00573113 0.00524378 0.01058803 0.02460755 0.00496671 0.00403317 0.09431260 0.01555642 0.01229493 0.02645644 0.00132928 
0.02195822 0.04216327 0.02465032 0.00503867 0.00416735 0.00569553 0.00506308 0.01030949 0.02460719 0.00484031 0.00400174 0.09356110 0.01553193 0.01249412 0.02590706 0.00132315 
0.02026422 0.04040722 0.02410828 0.00493946 0.00405219 0.00565675 0.00490592 0.01001941 0.02461373 0.00471285 0.00396432 0.09298429 0.01550364 0.01271423 0.02537282 0.00131658 
0.01863284 0.03877313 0.02354873 0.00484376 0.00393906 0.00561487 0.00477320 0.00971890 0.02462727 0.00458464 0.00392117 0.09258020 0.01547150 0.01295486 0.02485639 0.00130956 
0.01707146 0.03726594 0.02297338 0.00475173 0.00382808 0.00556998 0.00466570 0.00940909 0.02464792 0.00445599 0.00387257 0.09234598 0.01543547 0.01321550 0.02436031 0.00130212 
0.01558714 0.03588997 0.02238399 0.00466349 0.00371935 0.00552218 0.00458409 0.00909121 0.02467586 0.00432722 0.00381883 0.09227792 0.01539551 0.01349550 0.02388700 0.00129427 
0.01418655 0.03464891 0.02178232 0.00457913 0.00361295 0.00547157 0.00452889 0.00876656 0.02471130 0.00419865 0.00376030 0.09237144 0.01535161 0.01379409 0.02343870 0.00128604 
0.01287596 0.03354578 0.02117016 0.00449874 0.00350893 0.00541827 0.00450053 0.00843646 0.02475450 0.00407060 0.00369733 0.09262117 0.01530377 0.01411037 0.02301749 0.00127743 
0.01166122 0.03258296 0.02054930 0.00442236 0.00340735 0.00536241 0.00449929 0.00810233 0.02480577 0.00394339 0.00363033 0.09302097 0.01525202 0.01444333 0.02262526 0.00126848 
0.01054771 0.03176215 0.01992152 0.00435002 0.00330821 0.00530412 0.00452530 0.00776559 0.02486545 0.00381734 0.00355970 0.09356394 0.01519640 0.01479183 0.02226371 0.00125922 
0.00954031 0.03108440 0.01928862 0.00428173 0.00321153 0.00524356 0.00457858 0.00742773 0.02493389 0.00369276 0.00348589 0.09424251 0.01513696 0.01515462 0.02193435 0.00124967 
0.00864337 0.03055011 0.01865236 0.00421747 0.00311729 0.00518088 0.00465903 0.00709028 0.02501151 0.00356997 0.00340934 0.09504847 0.01507380 0.01553037 0.02163848 0.00123986 
0.00786072 0.03015902 0.01801451 0.00415720 0.00302548 0.00511624 0.00476637 0.00675477 0.02509873 0.00344927 0.00333052 0.09597302 0.01500701 0.01591762 0.02137718 0.00122982 
0.00719561 0.02991023 0.01737680 0.00410087 0.00293606 0.00504981 0.00490022 0.00642279 0.02519599 0.00333099 0.00324990 0.09700683 0.01493672 0.01631483 0.02115132 0.00121959 
0.00665073 0.02980223 0.01674093 0.00404840 0.00284899 0.00498177 0.00506007 0.00609592 0.02530375 0.00321543 0.00316798 0.09814011 0.01486308 0.01672038 0.02096155 0.00120920 
0.00622816 0.02983290 0.01610860 0.00399970 0.00276421 0.00491232 0.00524526 0.00577575 0.02542247 0.00310288 0.00308524 0.09936265 0.01478625 0.01713256 0.02080830 0.00119869 
0.00592939 0.02999951 0.01548143 0.00395466 0.00268167 0.00484163 0.00545503 0.00546389 0.02555262 0.00299367 0.00300219 0.10066390 0.01470643 0.01754961 0.02069175 0.00118810 
0.00575529 0.03029880 0.01486103 0.00391316 0.00260131 0.00476990 0.00568849 0.00516192 0.02569465 0.00288807 0.00291932 0.10203303 0.01462382 0.01796972 0.02061190 0.00117747 
0.00570613 0.03072696 0.01424894 0.00387507 0.00252306 0.00469736 0.00594461 0.00487143 0.02584902 0.00278639 0.00283712 0.10345901 0.01453867 0.01839100 0.02056849 0.00116684 
0.00578154 0.03127966 0.01364667 0.00384024 0.00244687 0.00462419 0.00622229 0.00459398 0.02601615 0.00268892 0.00275609 0.10493066 0.01445123 0.01881156 0.02056107 0.00115625 
0.00598057 0.03195213 0.01305565 0.00380851 0.00237267 0.00455061 0.00652029 0.00433110 0.02619644 0.00259593 0.00267670 0.10643673 0.01436177 0.01922946 0.02058897 0.00114575 
0.00630163 0.03273911 0.01247728 0.00377973 0.00230041 0.00447684 0.00683729 0.00408430 0.02639027 0.00250770 0.00259942 0.10796596 0.01427059 0.01964277 0.02065130 0.00113536 
0.00674256 0.03363497 0.01191287 0.00375372 0.00223003 0.00440310 0.00717188 0.00385505 0.02659796 0.00242451 0.00252471 0.10950716 0.01417801 0.02004954 0.02074699 0.00112515 
0.00730060 0.03463368 0.01136367 0.00373031 0.00216151 0.00432961 0.00752254 0.00364475 0.02681981 0.00234662 0.00245300 0.11104928 0.01408435 0.02044784 0.02087476 0.00111514 
0.00797241 0.03572889 0.01083086 0.00370931 0.00209481 0.00425659 0.00788771 0.00345477 0.02705605 0.00227428 0.00238473 0.11258146 0.01398997 0.02083574 0.02103317 0.00110539 
0.00875411 0.03691397 0.01031557 0.00369055 0.00202989 0.00418426 0.00826574 0.00328641 0.02730685 0.00220775 0.00232027 0.11409311 0.01389524 0.02121137 0.02122058 0.00109592 
0.00964131 0.03818201 0.00981881 0.00367385 0.00196677 0.00411285 0.00865492 0.00314091 0.02757232 0.00214726 0.00226001 0.11557399 0.01380053 0.02157288 0.02143521 0.00108680 
0.01062906 0.03952589 0.00934155 0.00365902 0.00190545 0.00404258 0.00905351 0.00301942 0.02785252 0.00209304 0.00220429 0.11701421 0.01370625 0.02191850 0.02167513 0.00107804 
0.01171199 0.04093835 0.00888466 0.00364587 0.00184594 0.00397367 0.00945971 0.00292302 0.02814741 0.00204532 0.00215343 0.11840436 0.01361280 0.02224651 0.02193827 0.00106970 
0.01288423 0.04241195 0.00844892 0.00363424 0.00178829 0.00390634 0.00987170 0.00285272 0.02845688 0.00200429 0.00210772 0.11973552 0.01352059 0.02255525 0.02222243 0.00106181 
0.01413954 0.04393919 0.00803505 0.00362395 0.00173255 0.00384080 0.01028765 0.00280941 0.02878075 0.00197016 0.00206741 0.12099934 0.01343007 0.02284318 0.02252532 0.00105440 
0.01547126 0.04551254 0.00764366 0.00361483 0.00167880 0.00377727 0.01070569 0.00279391 0.02911872 0.00194311 0.00203274 0.12218806 0.01334165 0.02310883 0.02284454 0.00104752 
0.01687241 0.04712442 0.00727529 0.00360671 0.00162713 0.00371595 0.01112398 0.00280693 0.02947044 0.00192331 0.00200388 0.12329456 0.01325578 0.02335084 0.02317763 0.00104118 
0.01833568 0.04876731 0.00693038 0.00359945 0.00157765 0.00365705 0.01154067 0.00284908 0.02983545 0.00191092 0.00198100 0.12431242 0.01317290 0.02356797 0.02352205 0.00103543 
0.01985351 0.05043375 0.00660929 0.00359289 0.00153050 0.00360076 0.01195394 0.00292085 0.03021320 0.00190606 0.00196422 0.12523593 0.01309346 0.02375909 0.02387523 0.00103028 
0.02141813 0.05211641 0.00631229 0.00358689 0.00148582 0.00354728 0.01236200 0.00302263 0.03060305 0.00190888 0.00195360 0.12606014 0.01301790 0.02392320 0.02423456 0.00102576 
0.02302156 0.05380807 0.00603954 0.00358132 0.00144378 0.00349678 0.01276309 0.00315470 0.03100425 0.00191947 0.00194921 0.12678087 0.01294666 0.02405943 0.02459741 0.00102190 
0.02465569 0.05550172 0.00579115 0.00357606 0.00140457 0.00344944 0.01315550 0.00331722 0.03141598 0.00193793 0.00195104 0.12739472 0.01288018 0.02416705 0.02496116 0.00101872 
0.02631235 0.05719053 0.00556712 0.00357100 0.00136839 0.00340542 0.01353759 0.00351022 0.03183730 0.00196433 0.00195907 0.12789911 0.01281888 0.02424548 0.02532322 0.00101622 
0.02798328 0.05886795 0.00536736 0.00356604 0.00133547 0.00336490 0.01390777 0.00373361 0.03226722 0.00199871 0.00197324 0.12829227 0.01276320 0.02429427 0.02568100 0.00101442 
0.02966025 0.06052767 0.00519170 0.00356108 0.00130605 0.00332800 0.01426453 0.00398721 0.03270463 0.00204112 0.00199344 0.12857324 0.01271353 0.02431312 0.02603199 0.00101334 
0.03133508 0.06216369 0.00503989 0.00355606 0.00128036 0.00329488 0.01460643 0.00427069 0.03314834 0.00209156 0.00201953 0.12874188 0.01267028 0.02430189 0.02637373 0.00101297 
0.03299966 0.06377032 0.00491160 0.00355089 0.00125868 0.00326565 0.01493213 0.00458361 0.03359709 0.00215003 0.00205136 0.12879886 0.01263382 0.02426057 0.02670382 0.00101333 
0.03464605 0.06534223 0.00480642 0.00354552 0.00124129 0.00324044 0.01524039 0.00492540 0.03404954 0.00221649 0.00208871 0.12874562 0.01260453 0.02418931 0.02701999 0.00101441 
0.03626647 0.06687443 0.00472384 0.00353991 0.00122847 0.00321936 0.01553005 0.00529538 0.03450429 0.00229090 0.00213136 0.12858441 0.01258274 0.02408841 0.02732004 0.00101620 
0.03785337 0.06836232 0.00466332 0.00353402 0.00122051 0.00320249 0.01580007 0.00569276 0.03495987 0.00237317 0.00217904 0.12831820 0.01256878 0.02395831 0.02760189 0.00101871 
0.03939947 0.06980169 0.00462422 0.00352783 0.00121771 0.00318991 0.01604952 0.00611663 0.03541474 0.00246321 0.00223147 0.12795068 0.01256295 0.02379958 0.02786360 0.00102191 
0.04089782 0.07118872 0.00460582 0.00352131 0.00122038 0.00318171 0.01627758 0.00656598 0.03586734 0.00256090 0.00228833 0.12748623 0.01256552 0.02361294 0.02810337 0.00102581 
0.04234180 0.07252001 0.00460738 0.00351447 0.00122881 0.00317793 0.01648354 0.00703966 0.03631605 0.00266609 0.00234928 0.12692990 0.01257674 0.02339924 0.02831952 0.00103037 
0.04372518 0.07379257 0.00462805 0.00350730 0.00124331 0.00317863 0.01666684 0.00753647 0.03675922 0.00277862 0.00241398 0.12628731 0.01259683 0.02315945 0.02851056 0.00103558 
0.04504214 0.07500382 0.00466697 0.00349983 0.00126418 0.00318382 0.01682700 0.00805506 0.03719519 0.00289830 0.00248203 0.12556465 0.01262598 0.02289467 0.02867514 0.00104142 
0.04628735 0.07615162 0.00472318 0.00349208 0.00129172 0.00319355 0.01696370 0.00859403 0.03762228 0.00302491 0.00255305 0.12476864 0.01266433 0.02260610 0.02881208 0.00104785 
0.04745592 0.07723422 0.00479573 0.00348407 0.00132619 0.00320780 0.01707671 0.00915187 0.03803880 0.00315822 0.00262664 0.12390643 0.01271203 0.02229503 0.02892041 0.00105486 
0.04854349 0.07825029 0.00488358 0.00347584 0.00136789 0.00322658 0.01716595 0.00972698 0.03844306 0.00329797 0.00270238 0.12298558 0.01276914 0.02196289 0.02899929 0.00106241 
0.04954624 0.07919891 0.00498567 0.00346744 0.00141706 0.00324987 0.01723146 0.01031772 0.03883342 0.00344388 0.00277984 0.12201400 0.01283574 0.02161115 0.02904810 0.00107046 
0.05046090 0.08007953 0.00510091 0.00345892 0.00147395 0.00327764 0.01727338 0.01092236 0.03920823 0.00359564 0.00285860 0.12099988 0.01291182 0.02124137 0.02906638 0.00107898 
0.05128476 0.08089200 0.00522819 0.00345033 0.00153877 0.00330984 0.01729198 0.01153910 0.03956590 0.00375293 0.00293823 0.11995162 0.01299736 0.02085520 0.02905388 0.00108793 
0.05201570 0.08163654 0.00536635 0.00344175 0.00161174 0.00334642 0.01728766 0.01216612 0.03990488 0.00391541 0.00301829 0.11887779 0.01309231 0.02045431 0.02901053 0.00109727 
0.05265220 0.08231370 0.00551425 0.00343322 0.00169302 0.00338731 0.01726090 0.01280153 0.04022368 0.00408272 0.00309837 0.11778706 0.01319656 0.02004045 0.02893643 0.00110696 
0.05319333 0.08292437 0.00567072 0.00342483 0.00178277 0.00343243 0.01721232 0.01344340 0.04052089 0.00425447 0.00317804 0.11668813 0.01330998 0.01961537 0.02883187 0.00111695 
0.05363878 0.08346977 0.00583458 0.00341665 0.00188111 0.00348169 0.01714261 0.01408980 0.04079517 0.00443027 0.00325689 0.11558966 0.01343237 0.01918089 0.02869733 0.00112720 
0.05398882 0.08395139 0.00600466 0.00340874 0.00198812 0.00353499 0.01705258 0.01473875 0.04104526 0.00460969 0.00333451 0.11450024 0.01356352 0.01873880 0.02853345 0.00113767 
0.05424434 0.08437100 0.00617979 0.00340119 0.00210387 0.00359221 0.01694312 0.01538829 0.04127002 0.00479231 0.00341053 0.11342830 0.01370317 0.01829094 0.02834106 0.00114830 
0.05440680 0.08473062 0.00635882 0.00339407 0.00222837 0.00365323 0.01681521 0.01603642 0.04146841 0.00497769 0.00348456 0.11238204 0.01385102 0.01783909 0.02812112 0.00115905 
0.05447825 0.08503249 0.00654060 0.00338745 0.00236161 0.00371791 0.01666992 0.01668118 0.04163950 0.00516537 0.00355627 0.11136942 0.01400673 0.01738507 0.02787478 0.00116987 
0.05446128 0.08527904 0.00672400 0.00338142 0.00250354 0.00378611 0.01650835 0.01732061 0.04178249 0.00535487 0.00362530 0.11039807 0.01416991 0.01693065 0.02760331 0.00118072 
0.05435905 0.08547288 0.00690795 0.00337604 0.00265406 0.00385767 0.01633172 0.01795276 0.04189673 0.00554573 0.00369136 0.10947523 0.01434015 0.01647755 0.02730815 0.00119155 
0.05417522 0.08561677 0.00709137 0.00337139 0.00281304 0.00393243 0.01614125 0.01857574 0.04198168 0.00573746 0.00375416 0.10860773 0.01451701 0.01602747 0.02699082 0.00120231 
0.05391393 0.08571359 0.00727325 0.00336754 0.00298030 0.00401021 0.01593825 0.01918768 0.04203696 0.00592956 0.00381342 0.10780193 0.01469999 0.01558207 0.02665301 0.00121296 
0.05357981 0.08576631 0.00745259 0.00336455 0.00315563 0.00409082 0.01572405 0.01978677 0.04206235 0.00612154 0.00386893 0.10706368 0.01488857 0.01514292 0.02629649 0.00122345 
0.05317790 0.08577796 0.00762845 0.00336248 0.00333876 0.00417408 0.01550002 0.02037123 0.04205777 0.00631289 0.00392046 0.10639829 0.01508219 0.01471154 0.02592313 0.00123375 
0.05271363 0.08575164 0.00779995 0.00336140 0.00352939 0.00425979 0.01526754 0.02093937 0.04202331 0.00650313 0.00396784 0.10581046 0.01528028 0.01428938 0.02553488 0.00124380 
0.05219281 0.08569045 0.00796624 0.00336135 0.00372716 0.00434774 0.01502803 0.02148955 0.04195921 0.00669173 0.00401092 0.10530432 0.01548221 0.01387780 0.02513377 0.00125357 
0.05162155 0.08559749 0.00812655 0.00336238 0.00393169 0.00443772 0.01478289 0.02202022 0.04186589 0.00687821 0.00404957 0.10488335 0.01568736 0.01347810 0.02472189 0.00126303 
0.05100624 0.08547584 0.00828015 0.00336453 0.00414254 0.00452950 0.01453354 0.02252990 0.04174391 0.00706207 0.00408372 0.10455036 0.01589505 0.01309147 0.02430137 0.00127213 
0.05035350 0.08532852 0.00842639 0.00336783 0.00435924 0.00462286 0.01428138 0.02301720 0.04159403 0.00724282 0.00411329 0.10430751 0.01610460 0.01271902 0.02387438 0.00128084 
0.04967014 0.08515848 0.00856466 0.00337233 0.00458127 0.00471757 0.01402780 0.02348082 0.04141712 0.00741996 0.00413826 0.10415628 0.01631532 0.01236174 0.02344311 0.00128914 
0.04896311 0.08496859 0.00869445 0.00337802 0.00480807 0.00481338 0.01377417 0.02391957 0.04121425 0.00759303 0.00415863 0.10409747 0.01652648 0.01202057 0.02300976 0.00129699 
0.04823945 0.08476161 0.00881530 0.00338494 0.00503904 0.00491006 0.01352181 0.02433233 0.04098664 0.00776156 0.00417442 0.10413120 0.01673734 0.01169632 0.02257652 0.00130436 
0.04750624 0.08454017 0.00892681 0.00339308 0.00527356 0.00500737 0.01327201 0.02471812 0.04073563 0.00792510 0.00418569 0.10425690 0.01694718 0.01138969 0.02214556 0.00131124 
0.04677058 0.08430678 0.00902868 0.00340245 0.00551096 0.00510504 0.01302603 0.02507604 0.04046274 0.00808319 0.00419253 0.10447335 0.01715525 0.01110130 0.02171905 0.00131760 
0.04603950 0.08406377 0.00912065 0.00341303 0.00575054 0.00520283 0.01278506 0.02540531 0.04016961 0.00823542 0.00419504 0.10477866 0.01736078 0.01083167 0.02129908 0.00132343 
0.04531994 0.08381333 0.00920256 0.00342481 0.00599157 0.00530048 0.01255024 0.02570526 0.03985801 0.00838138 0.00419337 0.10517033 0.01756304 0.01058122 0.02088772 0.00132872 
0.04461869 0.08355747 0.00927431 0.00343777 0.00623330 0.00539774 0.01232264 0.02597532 0.03952983 0.00852066 0.00418766 0.10564523 0.01776127 0.01035026 0.02048697 0.00133344 
0.04394238 0.08329801 0.00933585 0.00345186 0.00647496 0.00549433 0.01210328 0.02621506 0.03918708 0.00865289 0.00417811 0.10619967 0.01795474 0.01013902 0.02009875 0.00133760 
0.04329736 0.08303660 0.00938724 0.00346706 0.00671573 0.00559001 0.01189308 0.02642413 0.03883186 0.00877771 0.00416491 0.10682938 0.01814272 0.00994763 0.01972490 0.00134119 
0.04268973 0.08277469 0.00942858 0.00348332 0.00695480 0.00568452 0.01169292 0.02660230 0.03846636 0.00889479 0.00414828 0.10752961 0.01832449 0.00977613 0.01936718 0.00134420 
0.04212529 0.08251355 0.00946005 0.00350057 0.00719134 0.00577759 0.01150356 0.02674947 0.03809284 0.00900382 0.00412846 0.10829512 0.01849936 0.00962449 0.01902724 0.00134664 
0.04160947 0.08225424 0.00948188 0.00351876 0.00742451 0.00586896 0.01132570 0.02686563 0.03771364 0.00910449 0.00410571 0.10912023 0.01866664 0.00949258 0.01870663 0.00134851 
0.04114729 0.08199763 0.00949437 0.00353782 0.00765346 0.00595839 0.01115995 0.02695087 0.03733115 0.00919654 0.00408027 0.10999888 0.01882570 0.00938020 0.01840680 0.00134981 
0.04074339 0.08174441 0.00949789 0.00355767 0.00787733 0.00604561 0.01100683 0.02700540 0.03694777 0.00927972 0.00405244 0.11092466 0.01897589 0.00928708 0.01812906 0.00135056 
0.04040192 0.08149509 0.00949284 0.00357823 0.00809527 0.00613038 0.01086678 0.02702952 0.03656595 0.00935382 0.00402248 0.11189090 0.01911664 0.00921289 0.01787460 0.00135078 
0.04012658 0.08124999 0.00947969 0.00359942 0.00830644 0.00621245 0.01074013 0.02702363 0.03618813 0.00941864 0.00399069 0.11289064 0.01924738 0.00915723 0.01764450 0.00135046 
0.03992054 0.08100926 0.00945895 0.00362114 0.00850999 0.00629157 0.01062714 0.02698822 0.03581675 0.00947399 0.00395735 0.11391678 0.01936759 0.00911964 0.01743970 0.00134964 
0.03978647 0.08077290 0.00943117 0.00364329 0.00870510 0.00636753 0.01052796 0.02692387 0.03545422 0.00951975 0.00392277 0.11496205 0.01947678 0.00909962 0.01726099 0.00134832 
0.03972649 0.08054075 0.00939695 0.00366577 0.00889096 0.00644008 0.01044267 0.02683124 0.03510293 0.00955579 0.00388723 0.11601912 0.01957452 0.00909662 0.01710907 0.00134653 
0.03974218 0.08031252 0.00935692 0.00368848 0.00906678 0.00650900 0.01037125 0.02671108 0.03476519 0.00958202 0.00385103 0.11708062 0.01966041 0.00911006 0.01698445 0.00134430 
0.03983454 0.08008777 0.00931173 0.00371131 0.00923179 0.00657409 0.01031361 0.02656421 0.03444326 0.00959837 0.00381444 0.11813924 0.01973410 0.00913930 0.01688755 0.00134165 
0.04000402 0.07986597 0.00926206 0.00373414 0.00938526 0.00663515 0.01026954 0.02639150 0.03413932 0.00960480 0.00377775 0.11918770 0.01979529 0.00918371 0.01681863 0.00133861 
0.04025051 0.07964647 0.00920862 0.00375687 0.00952649 0.00669198 0.01023879 0.02619390 0.03385544 0.00960130 0.00374123 0.12021891 0.01984373 0.00924262 0.01677784 0.00133520 
0.04057331 0.07942856 0.00915212 0.00377938 0.00965481 0.00674440 0.01022100 0.02597242 0.03359358 0.00958787 0.00370514 0.12122592 0.01987923 0.00931532 0.01676518 0.00133145 
0.04097119 0.07921143 0.00909328 0.00380156 0.00976959 0.00679224 0.01021575 0.02572811 0.03335560 0.00956457 0.00366972 0.12220205 0.01990163 0.00940112 0.01678053 0.00132741 
0.04144237 0.07899424 0.00903283 0.00382329 0.00987026 0.00683535 0.01022255 0.02546207 0.03314319 0.00953144 0.00363521 0.12314088 0.01991085 0.00949930 0.01682366 0.00132309 
0.04198452 0.07877608 0.00897149 0.00384446 0.00995628 0.00687359 0.01024084 0.02517544 0.03295792 0.00948858 0.00360183 0.12403634 0.01990684 0.00960917 0.01689420 0.00131853 
0.04259482 0.07855604 0.00890999 0.00386496 0.01002716 0.00690683 0.01026999 0.02486939 0.03280118 0.00943611 0.00356978 0.12488272 0.01988963 0.00972999 0.01699169 0.00131376 
0.04326995 0.07833319 0.00884902 0.00388468 0.01008247 0.00693496 0.01030933 0.02454513 0.03267421 0.00937415 0.00353925 0.12567471 0.01985927 0.00986107 0.01711555 0.00130882 
0.04400610 0.07810660 0.00878929 0.00390351 0.01012183 0.00695789 0.01035813 0.02420389 0.03257807 0.00930286 0.00351040 0.12640747 0.01981590 0.01000170 0.01726511 0.00130374 
0.04479904 0.07787538 0.00873146 0.00392136 0.01014493 0.00697554 0.01041560 0.02384689 0.03251360 0.00922244 0.00348340 0.12707664 0.01975969 0.01015120 0.01743958 0.00129856 
0.04564414 0.07763864 0.00867617 0.00393813 0.01015152 0.00698785 0.01048094 0.02347541 0.03248151 0.00913309 0.00345836 0.12767836 0.01969087 0.01030889 0.01763812 0.00129331 
0.04653636 0.07739556 0.00862404 0.00395372 0.01014139 0.00699478 0.01055327 0.02309070 0.03248225 0.00903503 0.00343540 0.12820932 0.01960970 0.01047412 0.01785978 0.00128801 
0.04747033 0.07714538 0.00857565 0.00396806 0.01011442 0.00699632 0.01063173 0.02269402 0.03251611 0.00892850 0.00341460 0.12866675 0.01951652 0.01064624 0.01810356 0.00128272 
0.04844039 0.07688740 0.00853154 0.00398105 0.01007056 0.00699245 0.01071541 0.02228663 0.03258316 0.00881379 0.00339604 0.12904848 0.01941170 0.01082463 0.01836836 0.00127745 
0.04944060 0.07662100 0.00849221 0.00399264 0.01000979 0.00698321 0.01080337 0.02186979 0.03268325 0.00869118 0.00337976 0.12935292 0.01929564 0.01100870 0.01865307 0.00127224 
0.05046478 0.07634565 0.00845812 0.00400275 0.00993220 0.00696863 0.01089468 0.02144473 0.03281603 0.00856096 0.00336579 0.12957906 0.01916880 0.01119787 0.01895649 0.00126712 
0.05150658 0.07606093 0.00842968 0.00401134 0.00983793 0.00694878 0.01098840 0.02101269 0.03298096 0.00842347 0.00335415 0.12972653 0.01903166 0.01139160 0.01927739 0.00126212 
0.05255952 0.07576652 0.00840725 0.00401835 0.00972719 0.00692373 0.01108359 0.02057487 0.03317725 0.00827904 0.00334481 0.12979552 0.01888476 0.01158934 0.01961452 0.00125727 
0.05361701 0.07546220 0.00839113 0.00402374 0.00960025 0.00689360 0.01117931 0.02013245 0.03340396 0.00812803 0.00333775 0.12978685 0.01872865 0.01179060 0.01996657 0.00125260 
0.05467239 0.07514789 0.00838158 0.00402749 0.00945748 0.00685850 0.01127463 0.01968659 0.03365991 0.00797081 0.00333292 0.12970191 0.01856391 0.01199490 0.02033226 0.00124812 
0.05571902 0.07482361 0.00837880 0.00402958 0.00929928 0.00681858 0.01136865 0.01923842 0.03394375 0.00780777 0.00333025 0.12954268 0.01839114 0.01220177 0.02071024 0.00124388 
0.05675028 0.07448950 0.00838294 0.00402999 0.00912613 0.00677402 0.01146047 0.01878902 0.03425392 0.00763929 0.00332967 0.12931168 0.01821097 0.01241077 0.02109919 0.00123987 
0.05775962 0.07414584 0.00839408 0.00402874 0.00893860 0.00672499 0.01154924 0.01833948 0.03458870 0.00746579 0.00333108 0.12901196 0.01802404 0.01262150 0.02149778 0.00123614 
0.05874062 0.07379302 0.00841226 0.00402582 0.00873728 0.00667172 0.01163412 0.01789081 0.03494621 0.00728769 0.00333436 0.12864710 0.01783100 0.01283354 0.02190468 0.00123270 
0.05968700 0.07343156 0.00843746 0.00402126 0.00852286 0.00661443 0.01171433 0.01744399 0.03532438 0.00710542 0.00333939 0.12822114 0.01763250 0.01304651 0.02231860 0.00122956 
0.06059270 0.07306207 0.00846959 0.00401509 0.00829606 0.00655336 0.01178911 0.01699998 0.03572101 0.00691943 0.00334603 0.12773857 0.01742922 0.01326006 0.02273822 0.00122674 
0.06145190 0.07268530 0.00850853 0.00400736 0.00805769 0.00648878 0.01185775 0.01655969 0.03613377 0.00673015 0.00335414 0.12720428 0.01722180 0.01347382 0.02316228 0.00122425 
0.06225903 0.07230209 0.00855409 0.00399810 0.00780858 0.00642099 0.01191959 0.01612397 0.03656020 0.00653805 0.00336357 0.12662354 0.01701091 0.01368747 0.02358954 0.00122211 
0.06300884 0.07191340 0.00860604 0.00398738 0.00754963 0.00635026 0.01197402 0.01569365 0.03699772 0.00634360 0.00337415 0.12600192 0.01679718 0.01390067 0.02401878 0.00122033 
0.06369642 0.07152027 0.00866410 0.00397528 0.00728179 0.00627693 0.01202048 0.01526951 0.03744368 0.00614725 0.00338572 0.12534530 0.01658125 0.01411310 0.02444882 0.00121891 
0.06431723 0.07112382 0.00872794 0.00396185 0.00700604 0.00620132 0.01205847 0.01485228 0.03789532 0.00594949 0.00339810 0.12465976 0.01636373 0.01432447 0.02487852 0.00121785 
0.06486711 0.07072525 0.00879719 0.00394720 0.00672341 0.00612377 0.01208755 0.01444266 0.03834984 0.00575079 0.00341111 0.12395157 0.01614522 0.01453445 0.02530677 0.00121717 
0.06534233 0.07032582 0.00887144 0.00393141 0.00643497 0.00604463 0.01210733 0.01404128 0.03880437 0.00555163 0.00342460 0.12322714 0.01592630 0.01474275 0.02573250 0.00121687 
0.06573959 0.06992687 0.00895025 0.00391457 0.00614181 0.00596427 0.01211750 0.01364874 0.03925604 0.00535250 0.00343837 0.12249294 0.01570749 0.01494908 0.02615471 0.00121694 
0.06605606 0.06952975 0.00903314 0.00389681 0.00584506 0.00588304 0.01211779 0.01326562 0.03970193 0.00515389 0.00345225 0.12175549 0.01548932 0.01515313 0.02657242 0.00121738 
0.06628935 0.06913587 0.00911961 0.00387822 0.00554585 0.00580134 0.01210801 0.01289241 0.04013914 0.00495627 0.00346608 0.12102124 0.01527228 0.01535461 0.02698470 0.00121819 
0.06643759 0.06874665 0.00920911 0.00385892 0.00524536 0.00571952 0.01208802 0.01252959 0.04056479 0.00476014 0.00347968 0.12029660 0.01505680 0.01555323 0.02739066 0.00121936 
0.06649937 0.06836350 0.00930110 0.00383903 0.00494476 0.00563799 0.01205776 0.01217759 0.04097603 0.00456597 0.00349290 0.11958782 0.01484331 0.01574868 0.02778946 0.00122089 
0.06647378 0.06798788 0.00939502 0.00381868 0.00464523 0.00555711 0.01201721 0.01183680 0.04137006 0.00437425 0.00350558 0.11890097 0.01463218 0.01594066 0.02818032 0.00122276 
0.06636042 0.06762117 0.00949028 0.00379798 0.00434797 0.00547727 0.01196645 0.01150757 0.04174415 0.00418546 0.00351757 0.11824190 0.01442376 0.01612887 0.02856249 0.00122498 
0.06615938 0.06726479 0.00958630 0.00377706 0.00405414 0.00539884 0.01190557 0.01119020 0.04209565 0.00400007 0.00352874 0.11761615 0.01421833 0.01631300 0.02893525 0.00122751 
0.06587121 0.06692007 0.00968249 0.00375604 0.00376494 0.00532220 0.01183477 0.01088496 0.04242202 0.00381854 0.00353896 0.11702894 0.01401617 0.01649274 0.02929796 0.00123036 
0.06549700 0.06658833 0.00977826 0.00373505 0.00348153 0.00524770 0.01175428 0.01059210 0.04272083 0.00364135 0.00354812 0.11648511 0.01381749 0.01666778 0.02964998 0.00123351 
0.06503826 0.06627081 0.00987303 0.00371421 0.00320505 0.00517569 0.01166439 0.01031180 0.04298977 0.00346894 0.00355611 0.11598910 0.01362249 0.01683779 0.02999073 0.00123694 
0.06449698 0.06596868 0.00996622 0.00369364 0.00293663 0.00510652 0.01156545 0.01004423 0.04322669 0.00330176 0.00356283 0.11554488 0.01343129 0.01700246 0.03031967 0.00124063 
0.06387561 0.06568306 0.01005729 0.00367346 0.00267736 0.00504051 0.01145785 0.00978952 0.04342957 0.00314024 0.00356821 0.11515593 0.01324403 0.01716147 0.03063630 0.00124456 
0.06317700 0.06541495 0.01014568 0.00365377 0.00242830 0.00497798 0.01134206 0.00954778 0.04359659 0.00298481 0.00357218 0.11482521 0.01306076 0.01731450 0.03094012 0.00124873 
0.06240441 0.06516527 0.01023089 0.00363468 0.00219048 0.00491921 0.01121856 0.00931906 0.04372608 0.00283589 0.00357468 0.11455514 0.01288154 0.01746122 0.03123070 0.00125310 
0.06156149 0.06493485 0.01031243 0.00361629 0.00196487 0.00486449 0.01108789 0.00910342 0.04381659 0.00269387 0.00357569 0.11434755 0.01270637 0.01760131 0.03150762 0.00125766 
0.06065225 0.06472439 0.01038983 0.00359868 0.00175242 0.00481405 0.01095065 0.00890086 0.04386684 0.00255914 0.00357516 0.11420370 0.01253523 0.01773446 0.03177050 0.00126239 
0.05968101 0.06453450 0.01046266 0.00358194 0.00155401 0.00476814 0.01080743 0.00871137 0.04387576 0.00243207 0.00357310 0.11412423 0.01236809 0.01786036 0.03201897 0.00126726 
0.05865242 0.06436565 0.01053053 0.00356615 0.00137045 0.00472697 0.01065891 0.00853491 0.04384251 0.00231302 0.00356950 0.11410917 0.01220488 0.01797869 0.03225269 0.00127225 
0.05757139 0.06421819 0.01059309 0.00355137 0.00120253 0.00469070 0.01050576 0.00837144 0.04376646 0.00220231 0.00356437 0.11415793 0.01204550 0.01808916 0.03247135 0.00127734 
0.05644306 0.06409237 0.01065002 0.00353764 0.00105093 0.00465950 0.01034869 0.00822085 0.04364719 0.00210027 0.00355776 0.11426930 0.01188988 0.01819149 0.03267465 0.00128252 
0.05527280 0.06398828 0.01070106 0.00352501 0.00091629 0.00463349 0.01018843 0.00808305 0.04348454 0.00200719 0.00354969 0.11444145 0.01173788 0.01828539 0.03286231 0.00128775 
0.05406616 0.06390590 0.01074596 0.00351352 0.00079918 0.00461278 0.01002574 0.00795792 0.04327854 0.00192335 0.00354022 0.11467194 0.01158939 0.01837060 0.03303406 0.00129301 
0.05282880 0.06384507 0.01078457 0.00350318 0.00070010 0.00459743 0.00986138 0.00784533 0.04302947 0.00184899 0.00352942 0.11495773 0.01144428 0.01844687 0.03318968 0.00129829 
0.05156654 0.06380551 0.01081673 0.00349399 0.00061944 0.00458748 0.00969613 0.00774510 0.04273783 0.00178433 0.00351736 0.11529523 0.01130242 0.01851398 0.03332892 0.00130355 
0.05028524 0.06378682 0.01084236 0.00348595 0.00055755 0.00458295 0.00953079 0.00765708 0.04240436 0.00172959 0.00350414 0.11568027 0.01116369 0.01857171 0.03345157 0.00130879 
0.04899083 0.06378845 0.01086142 0.00347905 0.00051469 0.00458381 0.00936613 0.00758108 0.04203001 0.00168493 0.00348984 0.11610816 0.01102796 0.01861987 0.03355744 0.00131397 
0.04768923 0.06380975 0.01087393 0.00347325 0.00049102 0.00459002 0.00920296 0.00751690 0.04161593 0.00165050 0.00347457 0.11657372 0.01089514 0.01865830 0.03364633 0.00131908 
0.04638634 0.06384994 0.01087994 0.00346850 0.00048664 0.00460149 0.00904204 0.00746434 0.04116352 0.00162641 0.00345845 0.11707131 0.01076512 0.01868684 0.03371808 0.00132410 
0.04508803 0.06390812 0.01087955 0.00346476 0.00050156 0.00461812 0.00888417 0.00742316 0.04067436 0.00161275 0.00344159 0.11759486 0.01063783 0.01870539 0.03377252 0.00132901 
0.04380006 0.06398331 0.01087291 0.00346195 0.00053569 0.00463976 0.00873011 0.00739314 0.04015023 0.00160958 0.00342411 0.11813793 0.01051320 0.01871385 0.03380952 0.00133379 
0.04252809 0.06407438 0.01086021 0.00345999 0.00058887 0.00466626 0.00858060 0.00737405 0.03959308 0.00161690 0.00340616 0.11869375 0.01039120 0.01871217 0.03382893 0.00133842 
0.04127761 0.06418013 0.01084170 0.00345879 0.00066085 0.00469741 0.00843637 0.00736562 0.03900506 0.00163472 0.00338786 0.11925525 0.01027183 0.01870030 0.03383066 0.00134288 
0.04005397 0.06429927 0.01081764 0.00345824 0.00075130 0.00473300 0.00829814 0.00736761 0.03838848 0.00166298 0.00336934 0.11981514 0.01015511 0.01867825 0.03381460 0.00134717 
0.03886229 0.06443040 0.01078835 0.00345824 0.00085981 0.00477278 0.00816657 0.00737976 0.03774577 0.00170160 0.00335074 0.12036593 0.01004108 0.01864606 0.03378067 0.00135126 
0.03770749 0.06457208 0.01075419 0.00345866 0.00098588 0.00481649 0.00804232 0.00740179 0.03707954 0.00175047 0.00333220 0.12090004 0.00992984 0.01860378 0.03372881 0.00135515 
0.03659422 0.06472277 0.01071553 0.00345937 0.00112893 0.00486383 0.00792601 0.00743343 0.03639248 0.00180943 0.00331386 0.12140978 0.00982150 0.01855150 0.03365899 0.00135881 
0.03552687 0.06488087 0.01067279 0.00346022 0.00128831 0.00491449 0.00781821 0.00747440 0.03568740 0.00187831 0.00329585 0.12188747 0.00971621 0.01848937 0.03357117 0.00136225 
0.03450954 0.06504474 0.01062641 0.00346107 0.00146331 0.00496815 0.00771946 0.00752442 0.03496722 0.00195686 0.00327830 0.12232546 0.00961417 0.01841754 0.03346537 0.00136544 
0.03354603 0.06521268 0.01057685 0.00346177 0.00165311 0.00502446 0.00763026 0.00758320 0.03423490 0.00204483 0.00326133 0.12271622 0.00951561 0.01833620 0.03334161 0.00136838 
0.03263978 0.06538297 0.01052460 0.00346216 0.00185685 0.00508306 0.00755106 0.00765044 0.03349347 0.00214193 0.00324508 0.12305238 0.00942079 0.01824559 0.03319995 0.00137107 
0.03179393 0.06555386 0.01047015 0.00346208 0.00207361 0.00514357 0.00748227 0.00772585 0.03274601 0.00224781 0.00322965 0.12332677 0.00933001 0.01814596 0.03304047 0.00137349 
0.03101124 0.06572356 0.01041401 0.00346135 0.00230240 0.00520562 0.00742423 0.00780913 0.03199558 0.00236212 0.00321515 0.12353252 0.00924361 0.01803761 0.03286328 0.00137564 
0.03029413 0.06589031 0.01035672 0.00345983 0.00254216 0.00526882 0.00737725 0.00789998 0.03124529 0.00248445 0.00320170 0.12366307 0.00916196 0.01792085 0.03266852 0.00137752 
0.02964464 0.06605231 0.01029878 0.00345733 0.00279181 0.00533277 0.00734158 0.00799808 0.03049820 0.00261436 0.00318937 0.12371227 0.00908547 0.01779605 0.03245638 0.00137913 
0.02906442 0.06620781 0.01024073 0.00345369 0.00305021 0.00539707 0.00731741 0.00810312 0.02975734 0.00275138 0.00317827 0.12367439 0.00901456 0.01766358 0.03222706 0.00138045 
0.02855477 0.06635504 0.01018308 0.00344876 0.00331617 0.00546133 0.00730488 0.00821480 0.02902571 0.00289501 0.00316845 0.12354419 0.00894971 0.01752386 0.03198082 0.00138150 
0.02811657 0.06649230 0.01012635 0.00344237 0.00358848 0.00552515 0.00730406 0.00833279 0.02830620 0.00304473 0.00315999 0.12331697 0.00889139 0.01737731 0.03171793 0.00138227 
0.02775035 0.06661791 0.01007105 0.00343436 0.00386589 0.00558813 0.00731497 0.00845677 0.02760166 0.00319997 0.00315295 0.12298858 0.00884012 0.01722440 0.03143872 0.00138276 
0.02745624 0.06673023 0.01001767 0.00342460 0.00414715 0.00564989 0.00733758 0.00858642 0.02691479 0.00336015 0.00314736 0.12255554 0.00879641 0.01706561 0.03114356 0.00138299 
0.02723399 0.06682770 0.00996667 0.00341294 0.00443095 0.00571006 0.00737179 0.00872140 0.02624821 0.00352466 0.00314327 0.12201497 0.00876081 0.01690145 0.03083285 0.00138294 
0.02708300 0.06690881 0.00991851 0.00339924 0.00471601 0.00576826 0.00741743 0.00886139 0.02560439 0.00369287 0.00314069 0.12136471 0.00873386 0.01673244 0.03050705 0.00138263 
0.02700227 0.06697214 0.00987361 0.00338340 0.00500103 0.00582415 0.00747430 0.00900605 0.02498564 0.00386412 0.00313963 0.12060330 0.00871612 0.01655912 0.03016663 0.00138206 
0.02699049 0.06701635 0.00983238 0.00336530 0.00528471 0.00587738 0.00754211 0.00915503 0.02439412 0.00403776 0.00314010 0.11973003 0.00870814 0.01638205 0.02981214 0.00138125 
0.02704596 0.06704020 0.00979518 0.00334484 0.00556577 0.00592763 0.00762053 0.00930799 0.02383183 0.00421309 0.00314208 0.11874495 0.00871046 0.01620181 0.02944415 0.00138019 
0.02716668 0.06704254 0.00976235 0.00332194 0.00584293 0.00597460 0.00770918 0.00946458 0.02330056 0.00438943 0.00314556 0.11764886 0.00872362 0.01601896 0.02906330 0.00137889 
0.02735033 0.06702236 0.00973419 0.00329654 0.00611493 0.00601802 0.00780762 0.00962443 0.02280192 0.00456607 0.00315050 0.11644339 0.00874813 0.01583412 0.02867024 0.00137737 
0.02759426 0.06697873 0.00971097 0.00326858 0.00638057 0.00605761 0.00791533 0.00978720 0.02233732 0.00474231 0.00315685 0.11513092 0.00878451 0.01564787 0.02826568 0.00137564 
0.02789556 0.06691089 0.00969292 0.00323802 0.00663863 0.00609315 0.00803180 0.00995251 0.02190795 0.00491744 0.00316458 0.11371463 0.00883321 0.01546083 0.02785039 0.00137370 
0.02825105 0.06681819 0.00968022 0.00320486 0.00688798 0.00612441 0.00815640 0.01012000 0.02151480 0.00509075 0.00317361 0.11219851 0.00889467 0.01527360 0.02742516 0.00137157 
0.02865728 0.06670012 0.00967301 0.00316909 0.00712752 0.00615123 0.00828852 0.01028927 0.02115862 0.00526154 0.00318388 0.11058729 0.00896929 0.01508679 0.02699083 0.00136926 
0.02911059 0.06655633 0.00967141 0.00313074 0.00735617 0.00617343 0.00842747 0.01045997 0.02083998 0.00542912 0.00319531 0.10888649 0.00905743 0.01490101 0.02654828 0.00136678 
0.02960711 0.06638662 0.00967548 0.00308984 0.00757296 0.00619088 0.00857252 0.01063169 0.02055917 0.00559281 0.00320782 0.10710236 0.00915940 0.01471687 0.02609844 0.00136415 
0.03014277 0.06619094 0.00968524 0.00304644 0.00777695 0.00620349 0.00872292 0.01080404 0.02031631 0.00575194 0.00322132 0.10524186 0.00927545 0.01453498 0.02564225 0.00136137 
0.03071334 0.06596942 0.00970067 0.00300065 0.00796727 0.00621118 0.00887789 0.01097663 0.02011127 0.00590587 0.00323572 0.10331266 0.00940577 0.01435592 0.02518073 0.00135846 
0.03131446 0.06572233 0.00972171 0.00295254 0.00814312 0.00621389 0.00903661 0.01114906 0.01994371 0.00605397 0.00325091 0.10132307 0.00955050 0.01418029 0.02471489 0.00135543 
0.03194162 0.06545014 0.00974825 0.00290225 0.00830379 0.00621162 0.00919824 0.01132091 0.01981310 0.00619565 0.00326679 0.09928201 0.00970970 0.01400866 0.02424579 0.00135230 
0.03259025 0.06515347 0.00978016 0.00284991 0.00844863 0.00620437 0.00936193 0.01149179 0.01971867 0.00633033 0.00328325 0.09719900 0.00988336 0.01384160 0.02377454 0.00134908 
0.03325569 0.06483312 0.00981724 0.00279569 0.00857707 0.00619219 0.00952681 0.01166128 0.01965949 0.00645749 0.00330020 0.09508405 0.01007140 0.01367965 0.02330225 0.00134578 
0.03393322 0.06449006 0.00985929 0.00273977 0.00868866 0.00617513 0.00969199 0.01182895 0.01963443 0.00657663 0.00331752 0.09294769 0.01027367 0.01352337 0.02283006 0.00134242 
0.03461812 0.06412543 0.00990605 0.00268235 0.00878299 0.00615329 0.00985658 0.01199440 0.01964217 0.00668728 0.00333510 0.09080083 0.01048992 0.01337326 0.02235914 0.00133901 
0.03530566 0.06374056 0.00995723 0.00262366 0.00885978 0.00612680 0.01001971 0.01215720 0.01968126 0.00678902 0.00335284 0.08865480 0.01071982 0.01322982 0.02189068 0.00133556 
0.03599111 0.06333692 0.01001253 0.00256392 0.00891880 0.00609580 0.01018049 0.01231694 0.01975007 0.00688148 0.00337064 0.08652119 0.01096298 0.01309354 0.02142588 0.00133209 
0.03666982 0.06291616 0.01007158 0.00250340 0.00895995 0.00606045 0.01033805 0.01247319 0.01984685 0.00696433 0.00338840 0.08441186 0.01121890 0.01296488 0.02096595 0.00132860 
0.03733719 0.06248010 0.01013404 0.00244238 0.00898321 0.00602096 0.01049153 0.01262554 0.01996973 0.00703729 0.00340601 0.08233885 0.01148701 0.01284428 0.02051211 0.00132512 
0.03798871 0.06203069 0.01019949 0.00238114 0.00898862 0.00597753 0.01064009 0.01277357 0.02011673 0.00710013 0.00342339 0.08031433 0.01176665 0.01273215 0.02006559 0.00132165 
0.03861999 0.06157006 0.01026753 0.00231999 0.00897636 0.00593040 0.01078291 0.01291687 0.02028579 0.00715266 0.00344046 0.07835050 0.01205707 0.01262889 0.01962762 0.00131820 
0.03922677 0.06110044 0.01033773 0.00225923 0.00894667 0.00587982 0.01091922 0.01305503 0.02047478 0.00719477 0.00345713 0.07645955 0.01235744 0.01253485 0.01919943 0.00131479 
0.03980494 0.06062423 0.01040964 0.00219922 0.00889987 0.00582606 0.01104827 0.01318765 0.02068151 0.00722637 0.00347333 0.07465358 0.01266685 0.01245037 0.01878225 0.00131142 
0.04035055 0.06014394 0.01048281 0.00214027 0.00883640 0.00576942 0.01116933 0.01331433 0.02090379 0.00724746 0.00348900 0.07294456 0.01298433 0.01237577 0.01837728 0.00130811 
0.04085987 0.05966218 0.01055678 0.00208275 0.00875674 0.00571018 0.01128174 0.01343470 0.02113937 0.00725806 0.00350408 0.07134420 0.01330881 0.01231134 0.01798574 0.00130486 
0.04132935 0.05918166 0.01063108 0.00202701 0.00866148 0.00564865 0.01138487 0.01354837 0.02138604 0.00725827 0.00351852 0.06986396 0.01363917 0.01225732 0.01760879 0.00130169 
0.04175568 0.05870519 0.01070524 0.00197341 0.00855127 0.00558517 0.01147815 0.01365499 0.02164160 0.00724823 0.00353228 0.06851491 0.01397420 0.01221394 0.01724761 0.00129860 
0.04213577 0.05823565 0.01077879 0.00192231 0.00842684 0.00552005 0.01156106 0.01375420 0.02190389 0.00722814 0.00354534 0.06730771 0.01431265 0.01218139 0.01690334 0.00129561 
0.04246681 0.05777597 0.01085127 0.00187409 0.00828899 0.00545363 0.01163313 0.01384568 0.02217082 0.00719826 0.00355768 0.06625254 0.01465321 0.01215984 0.01657708 0.00129271 
0.04274621 0.05732912 0.01092224 0.00182910 0.00813856 0.00538624 0.01169396 0.01392910 0.02244038 0.00715889 0.00356927 0.06535905 0.01499453 0.01214942 0.01626992 0.00128991 
0.04297169 0.05689810 0.01099125 0.00178773 0.00797647 0.00531823 0.01174321 0.01400416 0.02271064 0.00711038 0.00358013 0.06463624 0.01533520 0.01215024 0.01598290 0.00128723 
0.04314125 0.05648593 0.01105786 0.00175031 0.00780368 0.00524994 0.01178060 0.01407059 0.02297979 0.00705312 0.00359026 0.06409249 0.01567380 0.01216236 0.01571702 0.00128466 
0.04325317 0.05609560 0.01112168 0.00171722 0.00762119 0.00518169 0.01180592 0.01412813 0.02324615 0.00698757 0.00359968 0.06373545 0.01600885 0.01218583 0.01547324 0.00128221 
0.04330603 0.05573010 0.01118230 0.00168880 0.00743005 0.00511383 0.01181903 0.01417654 0.02350817 0.00691421 0.00360842 0.06357202 0.01633890 0.01222064 0.01525247 0.00127989 
0.04329872 0.05539235 0.01123936 0.00166537 0.00723135 0.00504669 0.01181987 0.01421562 0.02376447 0.00683358 0.00361650 0.06360828 0.01666244 0.01226678 0.01505558 0.00127770 
0.04323043 0.05508523 0.01129251 0.00164727 0.00702617 0.00498057 0.01180842 0.01424518 0.02401383 0.00674622 0.00362398 0.06384947 0.01697800 0.01232418 0.01488337 0.00127564 
0.04310067 0.05481152 0.01134143 0.00163481 0.00681566 0.00491580 0.01178476 0.01426506 0.02425519 0.00665275 0.00363089 0.06429994 0.01728408 0.01239276 0.01473660 0.00127371 
0.04290924 0.05457391 0.01138583 0.00162827 0.00660093 0.00485268 0.01174902 0.01427515 0.02448770 0.00655378 0.00363731 0.06496313 0.01757923 0.01247240 0.01461594 0.00127193 
0.04265627 0.05437496 0.01142546 0.00162793 0.00638314 0.00479148 0.01170143 0.01427534 0.02471069 0.00644997 0.00364329 0.06584151 0.01786202 0.01256294 0.01452202 0.00127027 
0.04234218 0.05421709 0.01146007 0.00163404 0.00616343 0.00473249 0.01164225 0.01426557 0.02492368 0.00634199 0.00364890 0.06693663 0.01813103 0.01266420 0.01445540 0.00126876 
0.04196772 0.05410259 0.01148947 0.00164682 0.00594293 0.00467597 0.01157183 0.01424580 0.02512641 0.00623054 0.00365422 0.06824900 0.01838492 0.01277596 0.01441657 0.00126739 
0.04153391 0.05403354 0.01151351 0.00166650 0.00572276 0.00462215 0.01149058 0.01421605 0.02531881 0.00611631 0.00365932 0.06977816 0.01862238 0.01289798 0.01440592 0.00126615 
0.04104208 0.05401184 0.01153205 0.00169323 0.00550402 0.00457127 0.01139899 0.01417635 0.02550104 0.00600002 0.00366428 0.07152263 0.01884216 0.01302999 0.01442381 0.00126506 
0.04049383 0.05403919 0.01154502 0.00172718 0.00528779 0.00452353 0.01129759 0.01412677 0.02567343 0.00588238 0.00366919 0.07347993 0.01904311 0.01317167 0.01447047 0.00126410 
0.03989105 0.05411706 0.01155234 0.00176846 0.00507510 0.00447911 0.01118697 0.01406743 0.02583655 0.00576412 0.00367412 0.07564656 0.01922412 0.01332271 0.01454608 0.00126327 
0.03923590 0.05424668 0.01155402 0.00181716 0.00486697 0.00443819 0.01106779 0.01399847 0.02599114 0.00564594 0.00367915 0.07801801 0.01938420 0.01348274 0.01465073 0.00126258 
0.03853077 0.05442902 0.01155006 0.00187335 0.00466434 0.00440092 0.01094074 0.01392007 0.02613813 0.00552855 0.00368438 0.08058881 0.01952243 0.01365138 0.01478441 0.00126203 
0.03777832 0.05466479 0.01154054 0.00193705 0.00446814 0.00436741 0.01080659 0.01383246 0.02627867 0.00541264 0.00368988 0.08335248 0.01963800 0.01382821 0.01494704 0.00126160 
0.03698142 0.05495441 0.01152556 0.00200824 0.00427922 0.00433777 0.01066613 0.01373590 0.02641404 0.00529887 0.00369571 0.08630162 0.01973022 0.01401280 0.01513843 0.00126129 
0.03614318 0.05529804 0.01150524 0.00208688 0.00409837 0.00431209 0.01052018 0.01363069 0.02654571 0.00518790 0.00370196 0.08942788 0.01979849 0.01420469 0.01535831 0.00126112 
0.03526688 0.05569552 0.01147977 0.00217289 0.00392634 0.00429042 0.01036962 0.01351715 0.02667529 0.00508035 0.00370869 0.09272203 0.01984234 0.01440341 0.01560630 0.00126106 
0.03435602 0.05614638 0.01144935 0.00226616 0.00376380 0.00427280 0.01021534 0.01339567 0.02680454 0.00497681 0.00371595 0.09617400 0.01986144 0.01460845 0.01588195 0.00126112 
0.03341424 0.05664988 0.01141423 0.00236653 0.00361135 0.00425925 0.01005826 0.01326665 0.02693531 0.00487785 0.00372380 0.09977287 0.01985555 0.01481929 0.01618469 0.00126129 
0.03244535 0.05720493 0.01137470 0.00247380 0.00346952 0.00424976 0.00989933 0.01313053 0.02706959 0.00478398 0.00373228 0.10350696 0.01982457 0.01503540 0.01651386 0.00126158 
0.03145329 0.05781014 0.01133107 0.00258775 0.00333878 0.00424429 0.00973950 0.01298779 0.02720944 0.00469568 0.00374143 0.10736389 0.01976856 0.01525623 0.01686870 0.00126197 
0.03044212 0.05846382 0.01128368 0.00270812 0.00321951 0.00424281 0.00957973 0.01283894 0.02735698 0.00461340 0.00375127 0.11133057 0.01968767 0.01548120 0.01724835 0.00126246 
0.02941601 0.05916397 0.01123293 0.00283461 0.00311202 0.00424524 0.00942098 0.01268453 0.02751439 0.00453753 0.00376182 0.11539333 0.01958220 0.01570974 0.01765187 0.00126305 
0.02837919 0.05990827 0.01117921 0.00296688 0.00301654 0.00425149 0.00926422 0.01252512 0.02768388 0.00446841 0.00377307 0.11953791 0.01945258 0.01594125 0.01807818 0.00126373 
0.02733598 0.06069411 0.01112297 0.00310456 0.00293322 0.00426145 0.00911041 0.01236131 0.02786765 0.00440634 0.00378503 0.12374957 0.01929936 0.01617514 0.01852615 0.00126451 
0.02629074 0.06151860 0.01106468 0.00324725 0.00286215 0.00427500 0.00896047 0.01219374 0.02806790 0.00435155 0.00379768 0.12801314 0.01912324 0.01641080 0.01899453 0.00126537 
0.02524786 0.06237857 0.01100483 0.00339451 0.00280332 0.00429197 0.00881534 0.01202304 0.02828678 0.00430424 0.00381097 0.13231308 0.01892500 0.01664761 0.01948198 0.00126632 
0.02421172 0.06327059 0.01094394 0.00354589 0.00275666 0.00431222 0.00867592 0.01184989 0.02852641 0.00426454 0.00382488 0.13663354 0.01870559 0.01688496 0.01998707 0.00126735 
0.02318673 0.06419097 0.01088253 0.00370088 0.00272203 0.00433555 0.00854306 0.01167498 0.02878880 0.00423253 0.00383935 0.14095845 0.01846602 0.01712221 0.02050828 0.00126845 
0.02217724 0.06513580 0.01082118 0.00385897 0.00269921 0.00436179 0.00841760 0.01149900 0.02907588 0.00420824 0.00385431 0.14527158 0.01820744 0.01735876 0.02104400 0.00126962 
