0.01111828 0.02000868 0.00830238 0.00365723 0.00529716 0.00233752 0.01044897 0.00320310 0.01700398 0.00268885 0.01232960 0.00123997 0.00482034 0.02505706 0.00960215 0.00038393 
0.01100668 0.02025483 0.00837631 0.00366157 0.00524610 0.00234843 0.01064176 0.00317019 0.01691554 0.00264982 0.01227705 0.00122598 0.00483874 0.02518159 0.00969448 0.00038223 
0.01089498 0.02049227 0.00844100 0.00366133 0.00519409 0.00235732 0.01082338 0.00313947 0.01685129 0.00261319 0.01223051 0.00121225 0.00485766 0.02529084 0.00978041 0.00038050 
0.01078447 0.02072057 0.00849627 0.00365653 0.00514130 0.00236418 0.01099304 0.00311106 0.01681196 0.00257911 0.01218976 0.00119881 0.00487702 0.02538511 0.00985981 0.00037874 
0.01067642 0.02093937 0.00854198 0.00364717 0.00508791 0.00236900 0.01114997 0.00308508 0.01679812 0.00254773 0.01215451 0.00118570 0.00489673 0.02546473 0.00993252 0.00037699 
0.01057214 0.02114835 0.00857803 0.00363329 0.00503409 0.00237177 0.01129347 0.00306161 0.01681014 0.00251916 0.01212445 0.00117293 0.00491669 0.02553009 0.00999844 0.00037526 
0.01047297 0.02134722 0.00860438 0.00361495 0.00498003 0.00237251 0.01142288 0.00304072 0.01684823 0.00249348 0.01209920 0.00116053 0.00493678 0.02558165 0.01005746 0.00037359 
0.01038023 0.02153576 0.00862104 0.00359225 0.00492592 0.00237123 0.01153762 0.00302246 0.01691239 0.00247077 0.01207836 0.00114850 0.00495687 0.02561993 0.01010953 0.00037200 
0.01029524 0.02171378 0.00862805 0.00356530 0.00487196 0.00236795 0.01163714 0.00300685 0.01700246 0.00245105 0.01206149 0.00113688 0.00497680 0.02564549 0.01015459 0.00037052 
0.01021931 0.02188117 0.00862551 0.00353421 0.00481836 0.00236270 0.01172097 0.00299392 0.01711810 0.00243434 0.01204813 0.00112566 0.00499642 0.02565897 0.01019262 0.00036919 
0.01015374 0.02203782 0.00861355 0.00349916 0.00476533 0.00235554 0.01178871 0.00298365 0.01725877 0.00242062 0.01203780 0.00111485 0.00501556 0.02566102 0.01022363 0.00036803 
0.01009979 0.02218371 0.00859236 0.00346030 0.00471311 0.00234650 0.01184005 0.00297601 0.01742378 0.00240986 0.01202997 0.00110445 0.00503403 0.02565238 0.01024764 0.00036708 
0.01005870 0.02231886 0.00856216 0.00341785 0.00466192 0.00233563 0.01187472 0.00297098 0.01761225 0.00240198 0.01202413 0.00109446 0.00505164 0.02563380 0.01026472 0.00036638 
0.01003167 0.02244331 0.00852319 0.00337199 0.00461200 0.00232301 0.01189256 0.00296848 0.01782315 0.00239690 0.01201975 0.00108489 0.00506822 0.02560611 0.01027495 0.00036597 
0.01001983 0.02255720 0.00847575 0.00332297 0.00456360 0.00230870 0.01189348 0.00296845 0.01805526 0.00239451 0.01201630 0.00107571 0.00508355 0.02557014 0.01027843 0.00036587 
0.01002429 0.02266066 0.00842018 0.00327103 0.00451697 0.00229276 0.01187748 0.00297079 0.01830725 0.00239466 0.01201325 0.00106693 0.00509744 0.02552677 0.01027530 0.00036613 
0.01004608 0.02275389 0.00835681 0.00321643 0.00447239 0.00227528 0.01184463 0.00297541 0.01857762 0.00239719 0.01201008 0.00105853 0.00510970 0.02547691 0.01026571 0.00036678 
0.01008617 0.02283713 0.00828604 0.00315943 0.00443012 0.00225634 0.01179511 0.00298218 0.01886475 0.00240193 0.01200629 0.00105049 0.00512012 0.02542150 0.01024986 0.00036786 
0.01014543 0.02291067 0.00820827 0.00310032 0.00439043 0.00223602 0.01172916 0.00299098 0.01916689 0.00240868 0.01200139 0.00104280 0.00512852 0.02536147 0.01022795 0.00036941 
0.01022470 0.02297482 0.00812393 0.00303939 0.00435362 0.00221442 0.01164714 0.00300167 0.01948219 0.00241722 0.01199493 0.00103543 0.00513472 0.02529780 0.01020021 0.00037146 
0.01032468 0.02302992 0.00803347 0.00297694 0.00431997 0.00219163 0.01154946 0.00301411 0.01980868 0.00242732 0.01198647 0.00102838 0.00513854 0.02523145 0.01016691 0.00037405 
0.01044603 0.02307638 0.00793735 0.00291328 0.00428978 0.00216774 0.01143665 0.00302813 0.02014434 0.00243873 0.01197563 0.00102161 0.00513981 0.02516339 0.01012831 0.00037720 
0.01058929 0.02311459 0.00783603 0.00284870 0.00426336 0.00214284 0.01130930 0.00304358 0.02048705 0.00245120 0.01196205 0.00101510 0.00513840 0.02509460 0.01008472 0.00038095 
0.01075489 0.02314500 0.00773002 0.00278352 0.00424099 0.00211705 0.01116811 0.00306030 0.02083463 0.00246446 0.01194542 0.00100882 0.00513416 0.02502603 0.01003647 0.00038533 
0.01094317 0.02316807 0.00761978 0.00271805 0.00422300 0.00209045 0.01101383 0.00307810 0.02118488 0.00247824 0.01192547 0.00100276 0.00512698 0.02495863 0.00998387 0.00039036 
0.01115437 0.02318427 0.00750582 0.00265261 0.00420969 0.00206314 0.01084731 0.00309683 0.02153555 0.00249225 0.01190202 0.00099689 0.00511678 0.02489330 0.00992729 0.00039606 
0.01138860 0.02319411 0.00738862 0.00258749 0.00420137 0.00203524 0.01066949 0.00311631 0.02188439 0.00250622 0.01187488 0.00099117 0.00510346 0.02483095 0.00986710 0.00040245 
0.01164588 0.02319809 0.00726868 0.00252299 0.00419834 0.00200682 0.01048134 0.00313637 0.02222912 0.00251986 0.01184398 0.00098560 0.00508699 0.02477242 0.00980368 0.00040956 
0.01192610 0.02319671 0.00714647 0.00245941 0.00420092 0.00197800 0.01028393 0.00315685 0.02256752 0.00253290 0.01180927 0.00098013 0.00506733 0.02471853 0.00973741 0.00041738 
0.01222904 0.02319050 0.00702247 0.00239704 0.00420940 0.00194886 0.01007839 0.00317758 0.02289735 0.00254506 0.01177077 0.00097475 0.00504449 0.02467003 0.00966870 0.00042594 
0.01255435 0.02317996 0.00689715 0.00233614 0.00422409 0.00191951 0.00986590 0.00319841 0.02321645 0.00255606 0.01172858 0.00096944 0.00501851 0.02462765 0.00959795 0.00043523 
0.01290157 0.02316561 0.00677095 0.00227697 0.00424526 0.00189003 0.00964770 0.00321917 0.02352270 0.00256566 0.01168283 0.00096418 0.00498943 0.02459203 0.00952558 0.00044525 
0.01327013 0.02314793 0.00664432 0.00221980 0.00427320 0.00186051 0.00942508 0.00323975 0.02381405 0.00257361 0.01163374 0.00095893 0.00495735 0.02456376 0.00945200 0.00045600 
0.01365932 0.02312741 0.00651766 0.00216484 0.00430817 0.00183105 0.00919935 0.00325998 0.02408855 0.00257966 0.01158159 0.00095370 0.00492238 0.02454334 0.00937763 0.00046746 
0.01406835 0.02310451 0.00639139 0.00211232 0.00435043 0.00180172 0.00897190 0.00327977 0.02434431 0.00258361 0.01152671 0.00094845 0.00488469 0.02453124 0.00930286 0.00047963 
0.01449628 0.02307967 0.00626588 0.00206244 0.00440021 0.00177262 0.00874410 0.00329899 0.02457958 0.00258525 0.01146950 0.00094318 0.00484444 0.02452780 0.00922811 0.00049248 
0.01494208 0.02305330 0.00614149 0.00201538 0.00445773 0.00174380 0.00851736 0.00331754 0.02479273 0.00258441 0.01141041 0.00093788 0.00480187 0.02453332 0.00915378 0.00050599 
0.01540459 0.02302579 0.00601856 0.00197130 0.00452320 0.00171536 0.00829312 0.00333535 0.02498224 0.00258092 0.01134994 0.00093253 0.00475722 0.02454798 0.00908024 0.00052013 
0.01588256 0.02299748 0.00589740 0.00193034 0.00459678 0.00168735 0.00807280 0.00335233 0.02514675 0.00257465 0.01128866 0.00092712 0.00471076 0.02457190 0.00900789 0.00053486 
0.01637464 0.02296868 0.00577831 0.00189263 0.00467863 0.00165984 0.00785784 0.00336843 0.02528501 0.00256549 0.01122718 0.00092166 0.00466282 0.02460509 0.00893707 0.00055015 
0.01687938 0.02293968 0.00566154 0.00185826 0.00476888 0.00163290 0.00764965 0.00338361 0.02539598 0.00255337 0.01116614 0.00091614 0.00461372 0.02464748 0.00886813 0.00056594 
0.01739523 0.02291069 0.00554734 0.00182731 0.00486761 0.00160659 0.00744965 0.00339783 0.02547875 0.00253822 0.01110625 0.00091056 0.00456385 0.02469892 0.00880140 0.00058219 
0.01792056 0.02288190 0.00543593 0.00179985 0.00497488 0.00158095 0.00725921 0.00341110 0.02553257 0.00252002 0.01104823 0.00090493 0.00451360 0.02475915 0.00873718 0.00059885 
0.01845367 0.02285346 0.00532750 0.00177590 0.00509074 0.00155604 0.00707967 0.00342340 0.02555688 0.00249877 0.01099283 0.00089924 0.00446340 0.02482783 0.00867575 0.00061585 
0.01899277 0.02282546 0.00522221 0.00175547 0.00521517 0.00153190 0.00691235 0.00343476 0.02555130 0.00247451 0.01094084 0.00089352 0.00441370 0.02490454 0.00861738 0.00063314 
0.01953600 0.02279793 0.00512022 0.00173856 0.00534812 0.00150857 0.00675850 0.00344521 0.02551562 0.00244730 0.01089306 0.00088776 0.00436498 0.02498875 0.00856229 0.00065064 
0.02008147 0.02277088 0.00502164 0.00172513 0.00548952 0.00148608 0.00661932 0.00345480 0.02544979 0.00241723 0.01085029 0.00088198 0.00431773 0.02507989 0.00851070 0.00066830 
0.02062722 0.02274424 0.00492658 0.00171513 0.00563923 0.00146448 0.00649595 0.00346359 0.02535399 0.00238444 0.01081336 0.00087620 0.00427246 0.02517729 0.00846279 0.00068603 
0.02117124 0.02271792 0.00483511 0.00170849 0.00579709 0.00144379 0.00638944 0.00347167 0.02522853 0.00234907 0.01078308 0.00087043 0.00422970 0.02528021 0.00841870 0.00070376 
0.02171151 0.02269176 0.00474729 0.00170510 0.00596289 0.00142402 0.00630080 0.00347912 0.02507392 0.00231132 0.01076025 0.00086470 0.00419000 0.02538785 0.00837857 0.00072141 
0.02224595 0.02266556 0.00466317 0.00170487 0.00613637 0.00140521 0.00623091 0.00348605 0.02489085 0.00227140 0.01074568 0.00085902 0.00415391 0.02549937 0.00834248 0.00073891 
0.02277251 0.02263908 0.00458276 0.00170764 0.00631724 0.00138736 0.00618059 0.00349256 0.02468017 0.00222956 0.01074013 0.00085342 0.00412199 0.02561384 0.00831050 0.00075617 
0.02328909 0.02261203 0.00450607 0.00171329 0.00650513 0.00137049 0.00615055 0.00349879 0.02444289 0.00218606 0.01074436 0.00084792 0.00409479 0.02573034 0.00828268 0.00077312 
0.02379363 0.02258409 0.00443310 0.00172163 0.00669967 0.00135460 0.00614139 0.00350487 0.02418019 0.00214122 0.01075907 0.00084254 0.00407289 0.02584789 0.00825902 0.00078967 
0.02428405 0.02255489 0.00436381 0.00173250 0.00690041 0.00133970 0.00615362 0.00351095 0.02389341 0.00209536 0.01078494 0.00083732 0.00405684 0.02596550 0.00823951 0.00080573 
0.02475832 0.02252403 0.00429818 0.00174569 0.00710686 0.00132578 0.00618763 0.00351717 0.02358400 0.00204881 0.01082260 0.00083228 0.00404720 0.02608215 0.00822411 0.00082124 
0.02521442 0.02249108 0.00423615 0.00176100 0.00731850 0.00131285 0.00624368 0.00352368 0.02325358 0.00200197 0.01087263 0.00082745 0.00404450 0.02619685 0.00821274 0.00083611 
0.02565040 0.02245558 0.00417768 0.00177822 0.00753474 0.00130089 0.00632193 0.00353066 0.02290387 0.00195520 0.01093554 0.00082285 0.00404926 0.02630861 0.00820533 0.00085027 
0.02606433 0.02241707 0.00412269 0.00179712 0.00775498 0.00128989 0.00642241 0.00353826 0.02253673 0.00190892 0.01101179 0.00081852 0.00406201 0.02641645 0.00820175 0.00086363 
0.02645437 0.02237504 0.00407112 0.00181745 0.00797854 0.00127984 0.00654502 0.00354665 0.02215411 0.00186356 0.01110177 0.00081448 0.00408322 0.02651944 0.00820189 0.00087614 
0.02681872 0.02232899 0.00402289 0.00183900 0.00820474 0.00127072 0.00668954 0.00355598 0.02175805 0.00181954 0.01120580 0.00081075 0.00411336 0.02661669 0.00820560 0.00088771 
0.02715570 0.02227840 0.00397792 0.00186150 0.00843283 0.00126251 0.00685563 0.00356643 0.02135066 0.00177731 0.01132413 0.00080737 0.00415285 0.02670738 0.00821271 0.00089830 
0.02746367 0.02222276 0.00393612 0.00188471 0.00866204 0.00125518 0.00704280 0.00357815 0.02093415 0.00173733 0.01145693 0.00080437 0.00420209 0.02679075 0.00822306 0.00090783 
0.02774113 0.02216155 0.00389740 0.00190838 0.00889157 0.00124870 0.00725047 0.00359130 0.02051075 0.00170005 0.01160427 0.00080175 0.00426144 0.02686612 0.00823647 0.00091627 
0.02798667 0.02209428 0.00386168 0.00193227 0.00912059 0.00124304 0.00747791 0.00360602 0.02008275 0.00166592 0.01176616 0.00079956 0.00433122 0.02693291 0.00825275 0.00092355 
0.02819898 0.02202044 0.00382887 0.00195613 0.00934823 0.00123817 0.00772428 0.00362246 0.01965247 0.00163542 0.01194252 0.00079781 0.00441171 0.02699063 0.00827170 0.00092963 
0.02837688 0.02193956 0.00379887 0.00197971 0.00957363 0.00123405 0.00798862 0.00364074 0.01922223 0.00160898 0.01213318 0.00079651 0.00450313 0.02703894 0.00829315 0.00093449 
0.02851933 0.02185121 0.00377161 0.00200279 0.00979588 0.00123064 0.00826986 0.00366098 0.01879436 0.00158706 0.01233789 0.00079569 0.00460567 0.02707757 0.00831690 0.00093808 
0.02862541 0.02175495 0.00374698 0.00202511 0.01001407 0.00122789 0.00856680 0.00368330 0.01837119 0.00157009 0.01255630 0.00079537 0.00471945 0.02710643 0.00834277 0.00094040 
0.02869434 0.02165041 0.00372491 0.00204648 0.01022729 0.00122576 0.00887818 0.00370778 0.01795499 0.00155850 0.01278798 0.00079555 0.00484454 0.02712555 0.00837060 0.00094142 
0.02872549 0.02153724 0.00370531 0.00206666 0.01043461 0.00122421 0.00920259 0.00373451 0.01754802 0.00155269 0.01303242 0.00079625 0.00498097 0.02713511 0.00840020 0.00094113 
0.02871836 0.02141513 0.00368810 0.00208546 0.01063511 0.00122318 0.00953858 0.00376354 0.01715249 0.00155306 0.01328903 0.00079748 0.00512870 0.02713543 0.00843145 0.00093954 
0.02867263 0.02128384 0.00367320 0.00210269 0.01082786 0.00122262 0.00988458 0.00379494 0.01677052 0.00155996 0.01355712 0.00079924 0.00528760 0.02712700 0.00846421 0.00093666 
0.02858812 0.02114315 0.00366054 0.00211816 0.01101197 0.00122247 0.01023895 0.00382872 0.01640419 0.00157376 0.01383596 0.00080154 0.00545754 0.02711049 0.00849837 0.00093249 
0.02846481 0.02099292 0.00365004 0.00213172 0.01118654 0.00122269 0.01060001 0.00386490 0.01605545 0.00159475 0.01412470 0.00080437 0.00563827 0.02708669 0.00853384 0.00092706 
0.02830283 0.02083304 0.00364163 0.00214322 0.01135070 0.00122321 0.01096600 0.00390347 0.01572619 0.00162323 0.01442246 0.00080774 0.00582951 0.02705660 0.00857056 0.00092040 
0.02810248 0.02066350 0.00363524 0.00215252 0.01150361 0.00122397 0.01133511 0.00394441 0.01541818 0.00165946 0.01472828 0.00081164 0.00603091 0.02702134 0.00860848 0.00091256 
0.02786423 0.02048431 0.00363081 0.00215952 0.01164446 0.00122492 0.01170550 0.00398767 0.01513306 0.00170366 0.01504112 0.00081606 0.00624205 0.02698222 0.00864759 0.00090357 
0.02758869 0.02029557 0.00362826 0.00216410 0.01177246 0.00122600 0.01207532 0.00403319 0.01487235 0.00175601 0.01535992 0.00082100 0.00646246 0.02694070 0.00868792 0.00089348 
0.02727663 0.02009742 0.00362754 0.00216619 0.01188688 0.00122713 0.01244267 0.00408088 0.01463745 0.00181666 0.01568355 0.00082644 0.00669160 0.02689839 0.00872950 0.00088236 
0.02692899 0.01989010 0.00362857 0.00216573 0.01198703 0.00122828 0.01280567 0.00413064 0.01442961 0.00188573 0.01601085 0.00083236 0.00692887 0.02685703 0.00877242 0.00087028 
0.02654684 0.01967388 0.00363130 0.00216267 0.01207227 0.00122936 0.01316244 0.00418233 0.01424991 0.00196329 0.01634061 0.00083875 0.00717361 0.02681852 0.00881677 0.00085729 
0.02613142 0.01944911 0.00363565 0.00215699 0.01214202 0.00123033 0.01351112 0.00423583 0.01409932 0.00204936 0.01667160 0.00084560 0.00742512 0.02678488 0.00886269 0.00084349 
0.02568409 0.01921620 0.00364157 0.00214868 0.01219576 0.00123112 0.01384988 0.00429096 0.01397863 0.00214393 0.01700256 0.00085287 0.00768262 0.02675821 0.00891036 0.00082894 
0.02520638 0.01897563 0.00364898 0.00213776 0.01223302 0.00123168 0.01417691 0.00434755 0.01388847 0.00224694 0.01733223 0.00086055 0.00794530 0.02674077 0.00895995 0.00081375 
0.02469991 0.01872792 0.00365781 0.00212425 0.01225342 0.00123195 0.01449049 0.00440540 0.01382932 0.00235830 0.01765933 0.00086861 0.00821230 0.02673485 0.00901171 0.00079799 
0.02416645 0.01847366 0.00366799 0.00210820 0.01225662 0.00123187 0.01478892 0.00446430 0.01380148 0.00247787 0.01798257 0.00087702 0.00848271 0.02674283 0.00906586 0.00078177 
0.02360789 0.01821349 0.00367945 0.00208968 0.01224239 0.00123139 0.01507061 0.00452403 0.01380510 0.00260545 0.01830070 0.00088576 0.00875558 0.02676716 0.00912270 0.00076517 
0.02302621 0.01794810 0.00369211 0.00206878 0.01221055 0.00123046 0.01533403 0.00458435 0.01384017 0.00274082 0.01861245 0.00089479 0.00902993 0.02681030 0.00918250 0.00074831 
0.02242349 0.01767822 0.00370587 0.00204559 0.01216100 0.00122903 0.01557775 0.00464499 0.01390651 0.00288371 0.01891659 0.00090409 0.00930475 0.02687473 0.00924558 0.00073127 
0.02180192 0.01740465 0.00372066 0.00202023 0.01209374 0.00122707 0.01580044 0.00470571 0.01400379 0.00303381 0.01921191 0.00091362 0.00957900 0.02696293 0.00931228 0.00071417 
0.02116376 0.01712818 0.00373638 0.00199283 0.01200883 0.00122453 0.01600089 0.00476624 0.01413153 0.00319077 0.01949723 0.00092336 0.00985161 0.02707734 0.00938292 0.00069709 
0.02051132 0.01684966 0.00375292 0.00196354 0.01190642 0.00122137 0.01617800 0.00482629 0.01428908 0.00335419 0.01977143 0.00093327 0.01012152 0.02722036 0.00945787 0.00068015 
0.01984699 0.01656997 0.00377019 0.00193252 0.01178676 0.00121756 0.01633080 0.00488558 0.01447568 0.00352366 0.02003342 0.00094332 0.01038763 0.02739431 0.00953747 0.00066344 
0.01917320 0.01628999 0.00378807 0.00189994 0.01165015 0.00121308 0.01645847 0.00494383 0.01469040 0.00369872 0.02028217 0.00095348 0.01064885 0.02760143 0.00962209 0.00064707 
0.01849241 0.01601064 0.00380645 0.00186598 0.01149700 0.00120791 0.01656030 0.00500075 0.01493219 0.00387886 0.02051672 0.00096371 0.01090410 0.02784383 0.00971207 0.00063111 
0.01780711 0.01573283 0.00382521 0.00183083 0.01132779 0.00120202 0.01663575 0.00505606 0.01519989 0.00406357 0.02073615 0.00097399 0.01115228 0.02812348 0.00980776 0.00061567 
0.01711980 0.01545747 0.00384421 0.00179471 0.01114307 0.00119542 0.01668443 0.00510947 0.01549220 0.00425231 0.02093963 0.00098429 0.01139234 0.02844220 0.00990949 0.00060084 
0.01643297 0.01518548 0.00386333 0.00175781 0.01094350 0.00118808 0.01670607 0.00516071 0.01580774 0.00444448 0.02112641 0.00099457 0.01162321 0.02880159 0.01001759 0.00058669 
0.01574910 0.01491776 0.00388242 0.00172035 0.01072978 0.00118002 0.01670060 0.00520950 0.01614501 0.00463951 0.02129579 0.00100481 0.01184388 0.02920310 0.01013233 0.00057331 
0.01507065 0.01465520 0.00390135 0.00168256 0.01050269 0.00117124 0.01666808 0.00525558 0.01650243 0.00483678 0.02144716 0.00101499 0.01205335 0.02964790 0.01025400 0.00056076 
0.01440004 0.01439867 0.00391995 0.00164465 0.01026311 0.00116176 0.01660874 0.00529870 0.01687835 0.00503566 0.02158002 0.00102507 0.01225065 0.03013695 0.01038282 0.00054911 
0.01373964 0.01414899 0.00393809 0.00160686 0.01001193 0.00115159 0.01652296 0.00533861 0.01727104 0.00523551 0.02169391 0.00103504 0.01243488 0.03067092 0.01051900 0.00053842 
0.01309175 0.01390698 0.00395560 0.00156941 0.00975016 0.00114076 0.01641128 0.00537510 0.01767874 0.00543569 0.02178850 0.00104486 0.01260517 0.03125023 0.01066271 0.00052875 
0.01245861 0.01367339 0.00397232 0.00153253 0.00947882 0.00112931 0.01627438 0.00540796 0.01809961 0.00563553 0.02186351 0.00105453 0.01276070 0.03187498 0.01081405 0.00052013 
0.01184236 0.01344893 0.00398810 0.00149644 0.00919900 0.00111728 0.01611311 0.00543699 0.01853180 0.00583440 0.02191878 0.00106403 0.01290071 0.03254498 0.01097310 0.00051261 
0.01124507 0.01323429 0.00400277 0.00146137 0.00891184 0.00110471 0.01592845 0.00546203 0.01897342 0.00603164 0.02195422 0.00107333 0.01302452 0.03325969 0.01113988 0.00050620 
0.01066868 0.01303005 0.00401617 0.00142754 0.00861850 0.00109165 0.01572152 0.00548293 0.01942259 0.00622660 0.02196983 0.00108242 0.01313149 0.03401828 0.01131436 0.00050094 
0.01011504 0.01283679 0.00402814 0.00139515 0.00832021 0.00107817 0.01549360 0.00549956 0.01987740 0.00641866 0.02196570 0.00109129 0.01322108 0.03481955 0.01149645 0.00049684 
0.00958584 0.01265497 0.00403851 0.00136442 0.00801818 0.00106432 0.01524605 0.00551182 0.02033598 0.00660719 0.02194199 0.00109993 0.01329281 0.03566200 0.01168598 0.00049389 
0.00908269 0.01248504 0.00404713 0.00133554 0.00771369 0.00105019 0.01498039 0.00551963 0.02079645 0.00679160 0.02189896 0.00110833 0.01334627 0.03654375 0.01188276 0.00049209 
0.00860701 0.01232732 0.00405385 0.00130871 0.00740799 0.00103584 0.01469822 0.00552293 0.02125698 0.00697129 0.02183694 0.00111649 0.01338116 0.03746260 0.01208651 0.00049144 
0.00816010 0.01218212 0.00405851 0.00128409 0.00710238 0.00102136 0.01440126 0.00552171 0.02171576 0.00714573 0.02175634 0.00112440 0.01339723 0.03841601 0.01229688 0.00049190 
0.00774312 0.01204962 0.00406097 0.00126185 0.00679812 0.00100682 0.01409132 0.00551597 0.02217106 0.00731436 0.02165764 0.00113205 0.01339436 0.03940112 0.01251349 0.00049344 
0.00735704 0.01192995 0.00406110 0.00124216 0.00649650 0.00099233 0.01377026 0.00550573 0.02262116 0.00747669 0.02154137 0.00113945 0.01337248 0.04041472 0.01273585 0.00049604 
0.00700270 0.01182318 0.00405877 0.00122515 0.00619879 0.00097798 0.01344005 0.00549106 0.02306445 0.00763227 0.02140814 0.00114659 0.01333163 0.04145331 0.01296344 0.00049964 
0.00668076 0.01172926 0.00405386 0.00121095 0.00590621 0.00096385 0.01310268 0.00547203 0.02349937 0.00778064 0.02125863 0.00115349 0.01327192 0.04251310 0.01319567 0.00050419 
0.00639171 0.01164811 0.00404626 0.00119967 0.00561999 0.00095006 0.01276021 0.00544877 0.02392444 0.00792142 0.02109355 0.00116013 0.01319359 0.04359000 0.01343189 0.00050963 
0.00613589 0.01157954 0.00403588 0.00119142 0.00534133 0.00093669 0.01241472 0.00542140 0.02433827 0.00805424 0.02091366 0.00116653 0.01309693 0.04467969 0.01367138 0.00051590 
0.00591345 0.01152330 0.00402263 0.00118627 0.00507135 0.00092386 0.01206830 0.00539010 0.02473957 0.00817881 0.02071978 0.00117269 0.01298234 0.04577758 0.01391339 0.00052292 
0.00572437 0.01147907 0.00400644 0.00118429 0.00481118 0.00091166 0.01172307 0.00535506 0.02512712 0.00829485 0.02051275 0.00117862 0.01285030 0.04687891 0.01415711 0.00053062 
0.00556850 0.01144644 0.00398726 0.00118554 0.00456185 0.00090020 0.01138111 0.00531649 0.02549982 0.00840213 0.02029344 0.00118432 0.01270138 0.04797868 0.01440167 0.00053891 
0.00544548 0.01142497 0.00396505 0.00119004 0.00432437 0.00088958 0.01104452 0.00527464 0.02585668 0.00850047 0.02006275 0.00118980 0.01253623 0.04907178 0.01464616 0.00054771 
0.00535480 0.01141412 0.00393978 0.00119782 0.00409966 0.00087990 0.01071533 0.00522977 0.02619680 0.00858975 0.01982160 0.00119507 0.01235558 0.05015296 0.01488967 0.00055693 
0.00529582 0.01141330 0.00391144 0.00120886 0.00388860 0.00087126 0.01039556 0.00518216 0.02651940 0.00866987 0.01957092 0.00120014 0.01216024 0.05121687 0.01513120 0.00056648 
0.00526772 0.01142188 0.00388006 0.00122317 0.00369198 0.00086376 0.01008714 0.00513211 0.02682380 0.00874079 0.01931165 0.00120501 0.01195110 0.05225810 0.01536977 0.00057627 
0.00526953 0.01143917 0.00384565 0.00124069 0.00351051 0.00085747 0.00979195 0.00507994 0.02710944 0.00880254 0.01904473 0.00120969 0.01172909 0.05327123 0.01560438 0.00058619 
0.00530016 0.01146442 0.00380826 0.00126138 0.00334485 0.00085251 0.00951178 0.00502600 0.02737585 0.00885516 0.01877109 0.00121420 0.01149525 0.05425085 0.01583398 0.00059616 
0.00535837 0.01149686 0.00376797 0.00128518 0.00319553 0.00084893 0.00924835 0.00497063 0.02762269 0.00889875 0.01849167 0.00121853 0.01125062 0.05519158 0.01605756 0.00060608 
0.00544282 0.01153569 0.00372485 0.00131199 0.00306305 0.00084683 0.00900324 0.00491419 0.02784972 0.00893347 0.01820737 0.00122269 0.01099636 0.05608815 0.01627410 0.00061585 
0.00555202 0.01158006 0.00367902 0.00134172 0.00294777 0.00084627 0.00877797 0.00485705 0.02805679 0.00895950 0.01791909 0.00122669 0.01073361 0.05693541 0.01648257 0.00062538 
0.00568441 0.01162911 0.00363060 0.00137427 0.00285000 0.00084731 0.00857388 0.00479958 0.02824386 0.00897708 0.01762770 0.00123053 0.01046360 0.05772837 0.01668198 0.00063459 
0.00583831 0.01168197 0.00357972 0.00140949 0.00276994 0.00085001 0.00839223 0.00474218 0.02841098 0.00898649 0.01733405 0.00123421 0.01018758 0.05846224 0.01687136 0.00064337 
0.00601197 0.01173775 0.00352656 0.00144725 0.00270769 0.00085443 0.00823411 0.00468521 0.02855831 0.00898804 0.01703894 0.00123774 0.00990681 0.05913247 0.01704977 0.00065167 
0.00620355 0.01179557 0.00347129 0.00148739 0.00266327 0.00086058 0.00810049 0.00462907 0.02868608 0.00898207 0.01674316 0.00124112 0.00962260 0.05973478 0.01721632 0.00065938 
0.00641116 0.01185455 0.00341411 0.00152975 0.00263660 0.00086851 0.00799218 0.00457413 0.02879460 0.00896898 0.01644745 0.00124434 0.00933625 0.06026520 0.01737016 0.00066644 
0.00663286 0.01191381 0.00335525 0.00157415 0.00262753 0.00087824 0.00790984 0.00452077 0.02888426 0.00894918 0.01615251 0.00124741 0.00904908 0.06072010 0.01751049 0.00067279 
0.00686666 0.01197251 0.00329492 0.00162040 0.00263578 0.00088978 0.00785396 0.00446936 0.02895552 0.00892311 0.01585900 0.00125031 0.00876240 0.06109623 0.01763659 0.00067836 
0.00711056 0.01202981 0.00323339 0.00166831 0.00266102 0.00090312 0.00782488 0.00442024 0.02900891 0.00889125 0.01556753 0.00125306 0.00847752 0.06139073 0.01774779 0.00068310 
0.00736254 0.01208492 0.00317091 0.00171766 0.00270280 0.00091826 0.00782278 0.00437377 0.02904499 0.00885409 0.01527868 0.00125562 0.00819574 0.06160116 0.01784351 0.00068696 
0.00762057 0.01213708 0.00310776 0.00176826 0.00276062 0.00093517 0.00784767 0.00433027 0.02906440 0.00881213 0.01499296 0.00125801 0.00791832 0.06172556 0.01792324 0.00068990 
0.00788264 0.01218556 0.00304423 0.00181987 0.00283387 0.00095383 0.00789939 0.00429005 0.02906780 0.00876591 0.01471086 0.00126021 0.00764651 0.06176242 0.01798656 0.00069190 
0.00814675 0.01222970 0.00298062 0.00187229 0.00292188 0.00097420 0.00797763 0.00425342 0.02905590 0.00871597 0.01443280 0.00126221 0.00738152 0.06171072 0.01803315 0.00069292 
0.00841095 0.01226888 0.00291725 0.00192527 0.00302389 0.00099621 0.00808190 0.00422063 0.02902942 0.00866284 0.01415918 0.00126399 0.00712451 0.06156998 0.01806278 0.00069296 
0.00867334 0.01230253 0.00285442 0.00197860 0.00313909 0.00101982 0.00821159 0.00419195 0.02898912 0.00860710 0.01389032 0.00126555 0.00687660 0.06134020 0.01807530 0.00069201 
0.00893205 0.01233016 0.00279248 0.00203204 0.00326659 0.00104495 0.00836588 0.00416759 0.02893575 0.00854928 0.01362653 0.00126686 0.00663885 0.06102194 0.01807069 0.00069008 
0.00918530 0.01235132 0.00273174 0.00208537 0.00340546 0.00107151 0.00854385 0.00414776 0.02887008 0.00848994 0.01336804 0.00126792 0.00641226 0.06061627 0.01804901 0.00068718 
0.00943138 0.01236566 0.00267254 0.00213835 0.00355470 0.00109943 0.00874441 0.00413262 0.02879289 0.00842964 0.01311507 0.00126870 0.00619778 0.06012481 0.01801044 0.00068333 
0.00966869 0.01237287 0.00261523 0.00219075 0.00371325 0.00112859 0.00896635 0.00412233 0.02870492 0.00836890 0.01286779 0.00126918 0.00599626 0.05954971 0.01795526 0.00067856 
0.00989569 0.01237275 0.00256013 0.00224237 0.00388005 0.00115889 0.00920831 0.00411699 0.02860694 0.00830825 0.01262632 0.00126935 0.00580851 0.05889365 0.01788385 0.00067291 
0.01011097 0.01236514 0.00250759 0.00229296 0.00405396 0.00119021 0.00946883 0.00411670 0.02849966 0.00824820 0.01239076 0.00126919 0.00563523 0.05815983 0.01779671 0.00066644 
0.01031324 0.01234997 0.00245793 0.00234233 0.00423383 0.00122244 0.00974632 0.00412151 0.02838380 0.00818923 0.01216117 0.00126868 0.00547705 0.05735195 0.01769442 0.00065919 
0.01050132 0.01232727 0.00241148 0.00239027 0.00441850 0.00125543 0.01003909 0.00413144 0.02826003 0.00813183 0.01193760 0.00126780 0.00533452 0.05647419 0.01757768 0.00065124 
0.01067415 0.01229710 0.00236857 0.00243658 0.00460676 0.00128907 0.01034538 0.00414649 0.02812900 0.00807642 0.01172003 0.00126653 0.00520809 0.05553123 0.01744727 0.00064265 
0.01083082 0.01225965 0.00232951 0.00248106 0.00479742 0.00132320 0.01066332 0.00416662 0.02799130 0.00802342 0.01150846 0.00126485 0.00509813 0.05452817 0.01730407 0.00063351 
0.01097055 0.01221515 0.00229458 0.00252355 0.00498927 0.00135769 0.01099098 0.00419175 0.02784752 0.00797322 0.01130285 0.00126274 0.00500491 0.05347052 0.01714906 0.00062389 
0.01109271 0.01216392 0.00226410 0.00256385 0.00518112 0.00139239 0.01132637 0.00422180 0.02769818 0.00792616 0.01110315 0.00126018 0.00492861 0.05236421 0.01698328 0.00061389 
0.01119678 0.01210635 0.00223832 0.00260183 0.00537176 0.00142714 0.01166746 0.00425663 0.02754376 0.00788257 0.01090929 0.00125716 0.00486930 0.05121551 0.01680787 0.00060362 
0.01128244 0.01204289 0.00221751 0.00263733 0.00556002 0.00146181 0.01201218 0.00429609 0.02738470 0.00784273 0.01072119 0.00125365 0.00482699 0.05003101 0.01662402 0.00059316 
0.01134948 0.01197408 0.00220191 0.00267021 0.00574476 0.00149623 0.01235842 0.00433998 0.02722139 0.00780687 0.01053877 0.00124965 0.00480156 0.04881757 0.01643299 0.00058262 
0.01139783 0.01190051 0.00219173 0.00270035 0.00592484 0.00153026 0.01270410 0.00438812 0.02705417 0.00777520 0.01036195 0.00124513 0.00479283 0.04758233 0.01623611 0.00057212 
0.01142761 0.01182281 0.00218720 0.00272766 0.00609918 0.00156374 0.01304710 0.00444024 0.02688335 0.00774789 0.01019064 0.00124009 0.00480049 0.04633259 0.01603473 0.00056176 
0.01143903 0.01174169 0.00218847 0.00275202 0.00626674 0.00159654 0.01338534 0.00449610 0.02670918 0.00772505 0.01002476 0.00123451 0.00482418 0.04507585 0.01583026 0.00055166 
0.01143248 0.01165791 0.00219572 0.00277336 0.00642650 0.00162851 0.01371676 0.00455542 0.02653187 0.00770677 0.00986422 0.00122839 0.00486344 0.04381967 0.01562414 0.00054193 
0.01140847 0.01157225 0.00220907 0.00279161 0.00657752 0.00165951 0.01403933 0.00461789 0.02635159 0.00769308 0.00970896 0.00122172 0.00491770 0.04257173 0.01541781 0.00053268 
0.01136765 0.01148556 0.00222864 0.00280673 0.00671890 0.00168941 0.01435108 0.00468320 0.02616848 0.00768398 0.00955893 0.00121448 0.00498636 0.04133970 0.01521275 0.00052402 
0.01131079 0.01139869 0.00225449 0.00281868 0.00684981 0.00171808 0.01465010 0.00475100 0.02598264 0.00767942 0.00941406 0.00120669 0.00506869 0.04013123 0.01501041 0.00051608 
0.01123878 0.01131254 0.00228669 0.00282743 0.00696948 0.00174540 0.01493455 0.00482095 0.02579413 0.00767933 0.00927434 0.00119834 0.00516394 0.03895388 0.01481227 0.00050895 
0.01115263 0.01122801 0.00232527 0.00283298 0.00707722 0.00177125 0.01520268 0.00489268 0.02560299 0.00768358 0.00913975 0.00118942 0.00527125 0.03781512 0.01461976 0.00050275 
0.01105345 0.01114602 0.00237021 0.00283534 0.00717239 0.00179554 0.01545282 0.00496583 0.02540923 0.00769199 0.00901030 0.00117995 0.00538972 0.03672222 0.01443429 0.00049756 
0.01094245 0.01106751 0.00242148 0.00283452 0.00725445 0.00181817 0.01568341 0.00504002 0.02521286 0.00770439 0.00888600 0.00116994 0.00551839 0.03568225 0.01425726 0.00049350 
0.01082093 0.01099339 0.00247904 0.00283056 0.00732293 0.00183905 0.01589301 0.00511487 0.02501386 0.00772052 0.00876691 0.00115939 0.00565624 0.03470202 0.01408998 0.00049065 
0.01069026 0.01092459 0.00254277 0.00282352 0.00737742 0.00185811 0.01608027 0.00518998 0.02481220 0.00774013 0.00865307 0.00114831 0.00580223 0.03378803 0.01393375 0.00048910 
0.01055189 0.01086200 0.00261257 0.00281345 0.00741762 0.00187528 0.01624399 0.00526498 0.02460786 0.00776291 0.00854459 0.00113672 0.00595526 0.03294643 0.01378977 0.00048892 
0.01040731 0.01080650 0.00268827 0.00280043 0.00744331 0.00189050 0.01638310 0.00533947 0.02440081 0.00778853 0.00844157 0.00112465 0.00611419 0.03218301 0.01365919 0.00049019 
0.01025808 0.01075894 0.00276970 0.00278454 0.00745434 0.00190374 0.01649665 0.00541309 0.02419103 0.00781666 0.00834412 0.00111211 0.00627788 0.03150310 0.01354308 0.00049296 
0.01010576 0.01072014 0.00285666 0.00276589 0.00745065 0.00191497 0.01658386 0.00548546 0.02397851 0.00784690 0.00825239 0.00109912 0.00644514 0.03091160 0.01344242 0.00049730 
0.00995197 0.01069086 0.00294889 0.00274458 0.00743228 0.00192416 0.01664407 0.00555622 0.02376326 0.00787888 0.00816654 0.00108572 0.00661480 0.03041291 0.01335808 0.00050325 
0.00979833 0.01067183 0.00304614 0.00272072 0.00739932 0.00193131 0.01667678 0.00562501 0.02354531 0.00791216 0.00808676 0.00107193 0.00678566 0.03001090 0.01329086 0.00051083 
0.00964644 0.01066372 0.00314811 0.00269446 0.00735197 0.00193643 0.01668163 0.00569149 0.02332472 0.00794634 0.00801323 0.00105778 0.00695652 0.02970891 0.01324143 0.00052009 
0.00949790 0.01066714 0.00325448 0.00266591 0.00729050 0.00193952 0.01665843 0.00575535 0.02310157 0.00798097 0.00794616 0.00104332 0.00712622 0.02950969 0.01321035 0.00053102 
0.00935431 0.01068263 0.00336491 0.00263524 0.00721528 0.00194061 0.01660713 0.00581627 0.02287600 0.00801560 0.00788576 0.00102857 0.00729356 0.02941543 0.01319810 0.00054365 
0.00921720 0.01071067 0.00347903 0.00260257 0.00712672 0.00193976 0.01652782 0.00587398 0.02264816 0.00804981 0.00783226 0.00101358 0.00745741 0.02942767 0.01320499 0.00055795 
0.00908807 0.01075167 0.00359645 0.00256808 0.00702535 0.00193699 0.01642076 0.00592819 0.02241826 0.00808313 0.00778588 0.00099840 0.00761665 0.02954738 0.01323125 0.00057392 
0.00896837 0.01080594 0.00371676 0.00253192 0.00691172 0.00193238 0.01628634 0.00597867 0.02218654 0.00811513 0.00774686 0.00098306 0.00777018 0.02977487 0.01327695 0.00059152 
0.00885947 0.01087374 0.00383952 0.00249425 0.00678649 0.00192600 0.01612510 0.00602519 0.02195331 0.00814537 0.00771541 0.00096762 0.00791695 0.03010984 0.01334208 0.00061072 
0.00876267 0.01095523 0.00396430 0.00245524 0.00665037 0.00191792 0.01593772 0.00606755 0.02171891 0.00817342 0.00769177 0.00095211 0.00805596 0.03055133 0.01342647 0.00063147 
0.00867918 0.01105049 0.00409062 0.00241506 0.00650412 0.00190823 0.01572501 0.00610558 0.02148373 0.00819887 0.00767616 0.00093660 0.00818625 0.03109778 0.01352984 0.00065371 
0.00861011 0.01115951 0.00421802 0.00237387 0.00634857 0.00189704 0.01548790 0.00613913 0.02124823 0.00822132 0.00766877 0.00092114 0.00830693 0.03174699 0.01365177 0.00067737 
0.00855648 0.01128219 0.00434600 0.00233185 0.00618461 0.00188444 0.01522745 0.00616808 0.02101290 0.00824041 0.00766979 0.00090577 0.00841716 0.03249615 0.01379176 0.00070237 
0.00851919 0.01141837 0.00447408 0.00228917 0.00601314 0.00187055 0.01494484 0.00619232 0.02077829 0.00825576 0.00767940 0.00089055 0.00851616 0.03334187 0.01394914 0.00072863 
0.00849902 0.01156776 0.00460174 0.00224599 0.00583514 0.00185548 0.01464135 0.00621180 0.02054500 0.00826706 0.00769775 0.00087555 0.00860323 0.03428017 0.01412315 0.00075604 
0.00849665 0.01173003 0.00472847 0.00220247 0.00565160 0.00183936 0.01431835 0.00622648 0.02031367 0.00827399 0.00772495 0.00086080 0.00867775 0.03530650 0.01431294 0.00078450 
0.00851259 0.01190472 0.00485378 0.00215879 0.00546356 0.00182231 0.01397731 0.00623633 0.02008502 0.00827629 0.00776112 0.00084638 0.00873916 0.03641580 0.01451751 0.00081390 
0.00854725 0.01209133 0.00497715 0.00211509 0.00527207 0.00180447 0.01361977 0.00624137 0.01985976 0.00827372 0.00780630 0.00083234 0.00878699 0.03760250 0.01473580 0.00084412 
0.00860089 0.01228926 0.00509808 0.00207153 0.00507821 0.00178596 0.01324736 0.00624164 0.01963868 0.00826606 0.00786053 0.00081873 0.00882085 0.03886056 0.01496664 0.00087502 
0.00867365 0.01249784 0.00521605 0.00202825 0.00488307 0.00176692 0.01286175 0.00623721 0.01942260 0.00825315 0.00792379 0.00080561 0.00884044 0.04018351 0.01520876 0.00090648 
0.00876552 0.01271632 0.00533059 0.00198541 0.00468774 0.00174749 0.01246468 0.00622817 0.01921235 0.00823484 0.00799605 0.00079304 0.00884555 0.04156448 0.01546084 0.00093836 
0.00887634 0.01294389 0.00544121 0.00194314 0.00449332 0.00172781 0.01205790 0.00621463 0.01900882 0.00821104 0.00807721 0.00078107 0.00883606 0.04299623 0.01572147 0.00097052 
0.00900583 0.01317970 0.00554743 0.00190156 0.00430091 0.00170799 0.01164322 0.00619673 0.01881291 0.00818169 0.00816713 0.00076977 0.00881192 0.04447122 0.01598918 0.00100281 
0.00915357 0.01342279 0.00564880 0.00186079 0.00411160 0.00168819 0.01122246 0.00617464 0.01862552 0.00814676 0.00826562 0.00075917 0.00877320 0.04598165 0.01626246 0.00103509 
0.00931898 0.01367222 0.00574490 0.00182096 0.00392645 0.00166852 0.01079745 0.00614854 0.01844758 0.00810627 0.00837246 0.00074934 0.00872004 0.04751946 0.01653974 0.00106721 
0.00950140 0.01392694 0.00583529 0.00178218 0.00374651 0.00164912 0.01037001 0.00611863 0.01828001 0.00806027 0.00848737 0.00074032 0.00865268 0.04907645 0.01681941 0.00109901 
0.00969999 0.01418590 0.00591958 0.00174453 0.00357282 0.00163010 0.00994197 0.00608514 0.01812375 0.00800886 0.00861002 0.00073217 0.00857145 0.05064426 0.01709987 0.00113035 
0.00991384 0.01444803 0.00599740 0.00170811 0.00340637 0.00161158 0.00951513 0.00604830 0.01797971 0.00795215 0.00874002 0.00072492 0.00847677 0.05221448 0.01737948 0.00116108 
0.01014187 0.01471220 0.00606842 0.00167301 0.00324811 0.00159368 0.00909124 0.00600838 0.01784879 0.00789033 0.00887696 0.00071863 0.00836915 0.05377865 0.01765658 0.00119107 
0.01038294 0.01497729 0.00613230 0.00163929 0.00309895 0.00157650 0.00867204 0.00596563 0.01773188 0.00782358 0.00902034 0.00071334 0.00824918 0.05532834 0.01792956 0.00122016 
0.01063578 0.01524217 0.00618877 0.00160703 0.00295979 0.00156014 0.00825921 0.00592036 0.01762982 0.00775213 0.00916964 0.00070907 0.00811754 0.05685518 0.01819678 0.00124821 
0.01089904 0.01550570 0.00623757 0.00157627 0.00283142 0.00154468 0.00785437 0.00587284 0.01754343 0.00767627 0.00932430 0.00070588 0.00797499 0.05835093 0.01845666 0.00127511 
0.01117128 0.01576676 0.00627848 0.00154708 0.00271463 0.00153022 0.00745909 0.00582339 0.01747347 0.00759626 0.00948369 0.00070379 0.00782236 0.05980752 0.01870763 0.00130071 
0.01145100 0.01602424 0.00631132 0.00151950 0.00261011 0.00151683 0.00707484 0.00577232 0.01742067 0.00751245 0.00964714 0.00070283 0.00766057 0.06121709 0.01894819 0.00132491 
0.01173662 0.01627706 0.00633593 0.00149355 0.00251853 0.00150458 0.00670304 0.00571994 0.01738568 0.00742517 0.00981397 0.00070302 0.00749059 0.06257204 0.01917687 0.00134759 
0.01202651 0.01652415 0.00635220 0.00146926 0.00244046 0.00149352 0.00634501 0.00566658 0.01736911 0.00733480 0.00998342 0.00070439 0.00731348 0.06386508 0.01939228 0.00136865 
0.01231899 0.01676450 0.00636006 0.00144665 0.00237643 0.00148371 0.00600198 0.00561255 0.01737148 0.00724171 0.01015473 0.00070696 0.00713036 0.06508928 0.01959310 0.00138799 
0.01261237 0.01699713 0.00635947 0.00142574 0.00232687 0.00147518 0.00567509 0.00555820 0.01739325 0.00714632 0.01032710 0.00071073 0.00694238 0.06623807 0.01977808 0.00140553 
0.01290492 0.01722113 0.00635044 0.00140652 0.00229217 0.00146797 0.00536538 0.00550383 0.01743480 0.00704905 0.01049969 0.00071573 0.00675078 0.06730534 0.01994607 0.00142120 
0.01319489 0.01743563 0.00633300 0.00138901 0.00227263 0.00146211 0.00507377 0.00544978 0.01749641 0.00695032 0.01067166 0.00072194 0.00655681 0.06828543 0.02009600 0.00143493 
0.01348056 0.01763984 0.00630725 0.00137317 0.00226847 0.00145760 0.00480109 0.00539636 0.01757827 0.00685058 0.01084215 0.00072938 0.00636180 0.06917316 0.02022691 0.00144668 
0.01376020 0.01783303 0.00627329 0.00135902 0.00227985 0.00145446 0.00454807 0.00534388 0.01768050 0.00675027 0.01101027 0.00073804 0.00616709 0.06996389 0.02033794 0.00145640 
0.01403211 0.01801455 0.00623130 0.00134652 0.00230683 0.00145268 0.00431529 0.00529266 0.01780310 0.00664983 0.01117515 0.00074791 0.00597406 0.07065354 0.02042836 0.00146407 
0.01429462 0.01818383 0.00618147 0.00133565 0.00234943 0.00145224 0.00410325 0.00524299 0.01794598 0.00654971 0.01133589 0.00075897 0.00578409 0.07123857 0.02049751 0.00146967 
0.01454612 0.01834039 0.00612404 0.00132639 0.00240756 0.00145314 0.00391233 0.00519517 0.01810894 0.00645035 0.01149163 0.00077122 0.00559862 0.07171606 0.02054491 0.00147321 
0.01478504 0.01848382 0.00605929 0.00131870 0.00248107 0.00145535 0.00374280 0.00514947 0.01829169 0.00635219 0.01164148 0.00078462 0.00541906 0.07208369 0.02057015 0.00147469 
0.01500988 0.01861383 0.00598752 0.00131254 0.00256973 0.00145883 0.00359480 0.00510615 0.01849382 0.00625566 0.01178460 0.00079916 0.00524684 0.07233974 0.02057297 0.00147414 
0.01521921 0.01873020 0.00590908 0.00130789 0.00267323 0.00146354 0.00346838 0.00506549 0.01871484 0.00616115 0.01192016 0.00081479 0.00508339 0.07248313 0.02055323 0.00147159 
0.01541169 0.01883281 0.00582435 0.00130468 0.00279121 0.00146943 0.00336348 0.00502771 0.01895412 0.00606909 0.01204734 0.00083149 0.00493011 0.07251342 0.02051091 0.00146710 
0.01558608 0.01892166 0.00573374 0.00130289 0.00292322 0.00147647 0.00327991 0.00499304 0.01921096 0.00597984 0.01216539 0.00084921 0.00478841 0.07243076 0.02044612 0.00146073 
0.01574122 0.01899681 0.00563768 0.00130247 0.00306874 0.00148457 0.00321742 0.00496171 0.01948456 0.00589378 0.01227356 0.00086790 0.00465966 0.07223597 0.02035910 0.00145255 
0.01587607 0.01905844 0.00553664 0.00130335 0.00322721 0.00149369 0.00317562 0.00493390 0.01977399 0.00581124 0.01237117 0.00088753 0.00454519 0.07193045 0.02025019 0.00144265 
0.01598970 0.01910683 0.00543112 0.00130551 0.00339797 0.00150376 0.00315405 0.00490979 0.02007827 0.00573255 0.01245757 0.00090803 0.00444630 0.07151623 0.02011987 0.00143113 
0.01608129 0.01914233 0.00532162 0.00130888 0.00358035 0.00151471 0.00315216 0.00488956 0.02039631 0.00565801 0.01253219 0.00092934 0.00436424 0.07099592 0.01996873 0.00141810 
0.01615017 0.01916541 0.00520867 0.00131341 0.00377358 0.00152647 0.00316929 0.00487334 0.02072692 0.00558788 0.01259449 0.00095142 0.00430021 0.07037271 0.01979747 0.00140367 
0.01619577 0.01917662 0.00509284 0.00131905 0.00397687 0.00153895 0.00320472 0.00486127 0.02106886 0.00552242 0.01264400 0.00097418 0.00425536 0.06965031 0.01960689 0.00138798 
0.01621767 0.01917658 0.00497467 0.00132575 0.00418936 0.00155209 0.00325767 0.00485346 0.02142080 0.00546185 0.01268034 0.00099758 0.00423074 0.06883300 0.01939792 0.00137116 
0.01621556 0.01916601 0.00485476 0.00133345 0.00441018 0.00156580 0.00332725 0.00485000 0.02178136 0.00540635 0.01270316 0.00102152 0.00422737 0.06792551 0.01917156 0.00135336 
0.01618928 0.01914570 0.00473369 0.00134210 0.00463838 0.00158001 0.00341256 0.00485097 0.02214908 0.00535610 0.01271222 0.00104595 0.00424615 0.06693308 0.01892889 0.00133474 
0.01613882 0.01911651 0.00461203 0.00135165 0.00487302 0.00159463 0.00351261 0.00485643 0.02252247 0.00531122 0.01270734 0.00107079 0.00428793 0.06586134 0.01867111 0.00131544 
0.01606428 0.01907937 0.00449040 0.00136204 0.00511311 0.00160958 0.00362636 0.00486641 0.02289999 0.00527183 0.01268841 0.00109595 0.00435344 0.06471634 0.01839946 0.00129565 
0.01596590 0.01903526 0.00436939 0.00137323 0.00535763 0.00162479 0.00375274 0.00488094 0.02328007 0.00523801 0.01265541 0.00112136 0.00444334 0.06350447 0.01811526 0.00127552 
0.01584405 0.01898521 0.00424958 0.00138516 0.00560556 0.00164018 0.00389066 0.00490004 0.02366111 0.00520980 0.01260841 0.00114693 0.00455816 0.06223247 0.01781991 0.00125524 
0.01569925 0.01893031 0.00413155 0.00139779 0.00585585 0.00165568 0.00403897 0.00492367 0.02404149 0.00518725 0.01254755 0.00117259 0.00469834 0.06090730 0.01751481 0.00123497 
0.01553212 0.01887168 0.00401589 0.00141105 0.00610748 0.00167120 0.00419651 0.00495183 0.02441960 0.00517036 0.01247304 0.00119825 0.00486422 0.05953620 0.01720146 0.00121490 
0.01534341 0.01881046 0.00390315 0.00142491 0.00635938 0.00168667 0.00436213 0.00498445 0.02479383 0.00515909 0.01238519 0.00122383 0.00505601 0.05812658 0.01688135 0.00119520 
0.01513399 0.01874782 0.00379388 0.00143932 0.00661051 0.00170203 0.00453463 0.00502149 0.02516258 0.00515341 0.01228438 0.00124923 0.00527380 0.05668597 0.01655601 0.00117604 
0.01490485 0.01868494 0.00368860 0.00145422 0.00685984 0.00171722 0.00471283 0.00506287 0.02552427 0.00515326 0.01217109 0.00127439 0.00551757 0.05522202 0.01622699 0.00115761 
0.01465706 0.01862301 0.00358782 0.00146957 0.00710636 0.00173216 0.00489557 0.00510848 0.02587736 0.00515854 0.01204584 0.00129922 0.00578718 0.05374243 0.01589582 0.00114008 
0.01439181 0.01856320 0.00349202 0.00148534 0.00734905 0.00174680 0.00508169 0.00515824 0.02622036 0.00516915 0.01190924 0.00132363 0.00608235 0.05225489 0.01556407 0.00112361 
0.01411038 0.01850667 0.00340165 0.00150146 0.00758695 0.00176108 0.00527003 0.00521201 0.02655182 0.00518497 0.01176199 0.00134754 0.00640269 0.05076705 0.01523324 0.00110836 
0.01381411 0.01845458 0.00331714 0.00151790 0.00781910 0.00177495 0.00545947 0.00526966 0.02687034 0.00520586 0.01160483 0.00137089 0.00674768 0.04928647 0.01490487 0.00109450 
0.01350444 0.01840804 0.00323888 0.00153463 0.00804460 0.00178837 0.00564894 0.00533106 0.02717463 0.00523168 0.01143857 0.00139358 0.00711667 0.04782060 0.01458041 0.00108217 
0.01318287 0.01836812 0.00316722 0.00155158 0.00826257 0.00180128 0.00583736 0.00539603 0.02746345 0.00526226 0.01126407 0.00141556 0.00750889 0.04637667 0.01426132 0.00107150 
0.01285094 0.01833585 0.00310250 0.00156873 0.00847219 0.00181365 0.00602373 0.00546440 0.02773564 0.00529744 0.01108228 0.00143675 0.00792344 0.04496175 0.01394897 0.00106265 
0.01251027 0.01831220 0.00304499 0.00158603 0.00867265 0.00182544 0.00620708 0.00553600 0.02799016 0.00533702 0.01089414 0.00145708 0.00835931 0.04358259 0.01364470 0.00105572 
0.01216249 0.01829808 0.00299495 0.00160344 0.00886324 0.00183662 0.00638648 0.00561064 0.02822605 0.00538084 0.01070068 0.00147649 0.00881536 0.04224570 0.01334978 0.00105082 
0.01180926 0.01829434 0.00295257 0.00162093 0.00904326 0.00184717 0.00656106 0.00568810 0.02844247 0.00542870 0.01050294 0.00149493 0.00929034 0.04095722 0.01306541 0.00104806 
0.01145227 0.01830174 0.00291803 0.00163846 0.00921210 0.00185705 0.00673001 0.00576818 0.02863868 0.00548041 0.01030199 0.00151234 0.00978287 0.03972294 0.01279271 0.00104752 
0.01109323 0.01832096 0.00289144 0.00165599 0.00936919 0.00186625 0.00689258 0.00585066 0.02881406 0.00553577 0.01009893 0.00152868 0.01029150 0.03854827 0.01253272 0.00104928 
0.01073383 0.01835261 0.00287289 0.00167347 0.00951403 0.00187475 0.00704808 0.00593531 0.02896812 0.00559460 0.00989488 0.00154389 0.01081463 0.03743816 0.01228639 0.00105340 
0.01037575 0.01839717 0.00286241 0.00169089 0.00964618 0.00188254 0.00719588 0.00602189 0.02910049 0.00565670 0.00969094 0.00155795 0.01135060 0.03639713 0.01205458 0.00105991 
0.01002066 0.01845507 0.00285999 0.00170819 0.00976526 0.00188960 0.00733542 0.00611017 0.02921093 0.00572189 0.00948826 0.00157081 0.01189764 0.03542923 0.01183804 0.00106887 
0.00967019 0.01852659 0.00286558 0.00172535 0.00987097 0.00189594 0.00746622 0.00619990 0.02929931 0.00578999 0.00928793 0.00158246 0.01245390 0.03453801 0.01163743 0.00108027 
0.00932596 0.01861195 0.00287909 0.00174233 0.00996306 0.00190155 0.00758785 0.00629082 0.02936564 0.00586081 0.00909106 0.00159288 0.01301746 0.03372651 0.01145330 0.00109413 
0.00898952 0.01871123 0.00290038 0.00175910 0.01004137 0.00190642 0.00769997 0.00638268 0.02941007 0.00593419 0.00889874 0.00160204 0.01358633 0.03299726 0.01128610 0.00111043 
0.00866236 0.01882442 0.00292927 0.00177562 0.01010580 0.00191057 0.00780229 0.00647521 0.02943285 0.00600996 0.00871200 0.00160994 0.01415844 0.03235224 0.01113616 0.00112914 
0.00834594 0.01895139 0.00296555 0.00179186 0.01015630 0.00191398 0.00789459 0.00656817 0.02943437 0.00608797 0.00853188 0.00161659 0.01473168 0.03179292 0.01100371 0.00115022 
0.00804161 0.01909191 0.00300895 0.00180780 0.01019291 0.00191668 0.00797675 0.00666128 0.02941515 0.00616806 0.00835935 0.00162198 0.01530392 0.03132021 0.01088887 0.00117361 
0.00775067 0.01924563 0.00305919 0.00182339 0.01021573 0.00191867 0.00804867 0.00675428 0.02937580 0.00625010 0.00819534 0.00162612 0.01587297 0.03093448 0.01079163 0.00119923 
0.00747433 0.01941210 0.00311593 0.00183862 0.01022492 0.00191996 0.00811037 0.00684690 0.02931707 0.00633396 0.00804072 0.00162904 0.01643662 0.03063558 0.01071191 0.00122701 
0.00721372 0.01959076 0.00317881 0.00185346 0.01022071 0.00192056 0.00816189 0.00693887 0.02923980 0.00641951 0.00789630 0.00163075 0.01699264 0.03042284 0.01064950 0.00125683 
0.00696986 0.01978096 0.00324744 0.00186787 0.01020337 0.00192048 0.00820335 0.00702995 0.02914494 0.00650663 0.00776285 0.00163129 0.01753883 0.03029504 0.01060407 0.00128859 
0.00674368 0.01998193 0.00332139 0.00188183 0.01017326 0.00191975 0.00823493 0.00711985 0.02903352 0.00659522 0.00764103 0.00163069 0.01807296 0.03025051 0.01057524 0.00132215 
0.00653600 0.02019282 0.00340021 0.00189532 0.01013078 0.00191836 0.00825688 0.00720833 0.02890667 0.00668518 0.00753144 0.00162899 0.01859283 0.03028705 0.01056248 0.00135737 
0.00634754 0.02041268 0.00348343 0.00190832 0.01007637 0.00191635 0.00826947 0.00729514 0.02876560 0.00677641 0.00743463 0.00162624 0.01909628 0.03040203 0.01056519 0.00139410 
0.00617892 0.02064048 0.00357055 0.00192080 0.01001054 0.00191373 0.00827305 0.00738001 0.02861158 0.00686883 0.00735101 0.00162249 0.01958117 0.03059237 0.01058270 0.00143218 
0.00603062 0.02087512 0.00366107 0.00193275 0.00993384 0.00191052 0.00826801 0.00746272 0.02844593 0.00696236 0.00728095 0.00161779 0.02004544 0.03085456 0.01061424 0.00147143 
0.00590304 0.02111543 0.00375446 0.00194415 0.00984684 0.00190672 0.00825478 0.00754303 0.02827005 0.00705691 0.00722472 0.00161222 0.02048705 0.03118474 0.01065896 0.00151168 
0.00579644 0.02136014 0.00385018 0.00195499 0.00975018 0.00190237 0.00823382 0.00762070 0.02808535 0.00715242 0.00718249 0.00160582 0.02090407 0.03157865 0.01071596 0.00155273 
0.00571098 0.02160798 0.00394769 0.00196524 0.00964452 0.00189748 0.00820563 0.00769552 0.02789329 0.00724881 0.00715434 0.00159867 0.02129462 0.03203175 0.01078426 0.00159439 
0.00564669 0.02185758 0.00404644 0.00197491 0.00953054 0.00189207 0.00817075 0.00776729 0.02769535 0.00734601 0.00714026 0.00159085 0.02165693 0.03253919 0.01086284 0.00163645 
0.00560351 0.02210758 0.00414589 0.00198399 0.00940895 0.00188615 0.00812972 0.00783579 0.02749301 0.00744397 0.00714016 0.00158242 0.02198932 0.03309587 0.01095063 0.00167871 
0.00558124 0.02235654 0.00424547 0.00199246 0.00928049 0.00187975 0.00808313 0.00790086 0.02728775 0.00754259 0.00715383 0.00157346 0.02229023 0.03369647 0.01104651 0.00172096 
0.00557960 0.02260304 0.00434466 0.00200033 0.00914591 0.00187288 0.00803156 0.00796230 0.02708106 0.00764182 0.00718100 0.00156406 0.02255820 0.03433551 0.01114936 0.00176298 
0.00559818 0.02284562 0.00444291 0.00200760 0.00900596 0.00186556 0.00797561 0.00801996 0.02687438 0.00774158 0.00722129 0.00155428 0.02279191 0.03500734 0.01125800 0.00180457 
0.00563647 0.02308284 0.00453972 0.00201427 0.00886140 0.00185782 0.00791589 0.00807370 0.02666914 0.00784179 0.00727424 0.00154421 0.02299017 0.03570625 0.01137126 0.00184551 
0.00569387 0.02331325 0.00463456 0.00202034 0.00871301 0.00184966 0.00785300 0.00812339 0.02646672 0.00794236 0.00733931 0.00153394 0.02315193 0.03642645 0.01148797 0.00188559 
0.00576969 0.02353543 0.00472695 0.00202582 0.00856155 0.00184110 0.00778754 0.00816890 0.02626848 0.00804321 0.00741587 0.00152353 0.02327628 0.03716213 0.01160694 0.00192461 
0.00586313 0.02374797 0.00481643 0.00203073 0.00840777 0.00183217 0.00772010 0.00821014 0.02607568 0.00814424 0.00750322 0.00151308 0.02336247 0.03790749 0.01172702 0.00196235 
0.00597331 0.02394953 0.00490256 0.00203508 0.00825243 0.00182288 0.00765128 0.00824703 0.02588955 0.00824533 0.00760061 0.00150265 0.02340991 0.03865681 0.01184706 0.00199863 
0.00609929 0.02413878 0.00498490 0.00203888 0.00809624 0.00181325 0.00758162 0.00827951 0.02571122 0.00834638 0.00770719 0.00149232 0.02341816 0.03940446 0.01196594 0.00203325 
0.00624004 0.02431445 0.00506308 0.00204215 0.00793992 0.00180329 0.00751167 0.00830752 0.02554178 0.00844726 0.00782207 0.00148217 0.02338694 0.04014491 0.01208258 0.00206602 
0.00639446 0.02447535 0.00513674 0.00204492 0.00778416 0.00179303 0.00744194 0.00833105 0.02538220 0.00854782 0.00794431 0.00147226 0.02331616 0.04087285 0.01219595 0.00209678 
0.00656140 0.02462035 0.00520556 0.00204722 0.00762962 0.00178248 0.00737293 0.00835009 0.02523339 0.00864794 0.00807292 0.00146267 0.02320587 0.04158313 0.01230505 0.00212536 
0.00673967 0.02474841 0.00526923 0.00204906 0.00747693 0.00177166 0.00730508 0.00836464 0.02509613 0.00874743 0.00820686 0.00145345 0.02305632 0.04227084 0.01240896 0.00215160 
0.00692800 0.02485855 0.00532751 0.00205047 0.00732668 0.00176059 0.00723883 0.00837475 0.02497113 0.00884614 0.00834509 0.00144466 0.02286790 0.04293134 0.01250681 0.00217537 
0.00712511 0.02494991 0.00538018 0.00205150 0.00717945 0.00174929 0.00717454 0.00838045 0.02485901 0.00894388 0.00848650 0.00143636 0.02264119 0.04356028 0.01259779 0.00219653 
0.00732969 0.02502172 0.00542706 0.00205217 0.00703575 0.00173778 0.00711258 0.00838184 0.02476026 0.00904045 0.00863001 0.00142860 0.02237691 0.04415361 0.01268117 0.00221497 
0.00754040 0.02507331 0.00546801 0.00205252 0.00689607 0.00172607 0.00705323 0.00837899 0.02467528 0.00913565 0.00877450 0.00142141 0.02207599 0.04470762 0.01275631 0.00223059 
0.00775589 0.02510413 0.00550292 0.00205258 0.00676085 0.00171420 0.00699676 0.00837201 0.02460438 0.00922925 0.00891887 0.00141484 0.02173946 0.04521897 0.01282264 0.00224331 
0.00797480 0.02511374 0.00553174 0.00205240 0.00663049 0.00170217 0.00694339 0.00836105 0.02454775 0.00932103 0.00906203 0.00140892 0.02136856 0.04568468 0.01287967 0.00225305 
0.00819577 0.02510181 0.00555444 0.00205201 0.00650534 0.00169002 0.00689328 0.00834623 0.02450549 0.00941074 0.00920288 0.00140366 0.02096466 0.04610214 0.01292699 0.00225976 
0.00841747 0.02506815 0.00557104 0.00205146 0.00638572 0.00167776 0.00684655 0.00832775 0.02447761 0.00949812 0.00934039 0.00139910 0.02052927 0.04646916 0.01296431 0.00226341 
0.00863857 0.02501267 0.00558159 0.00205078 0.00627188 0.00166542 0.00680329 0.00830576 0.02446400 0.00958292 0.00947352 0.00139525 0.02006405 0.04678395 0.01299139 0.00226396 
0.00885776 0.02493541 0.00558618 0.00205001 0.00616404 0.00165302 0.00676353 0.00828049 0.02446450 0.00966486 0.00960131 0.00139211 0.01957079 0.04704511 0.01300811 0.00226142 
0.00907377 0.02483655 0.00558494 0.00204920 0.00606236 0.00164059 0.00672726 0.00825214 0.02447882 0.00974367 0.00972282 0.00138967 0.01905139 0.04725168 0.01301442 0.00225581 
0.00928539 0.02471638 0.00557804 0.00204839 0.00596699 0.00162815 0.00669442 0.00822094 0.02450664 0.00981906 0.00983718 0.00138795 0.01850789 0.04740309 0.01301037 0.00224713 
0.00949142 0.02457530 0.00556567 0.00204762 0.00587798 0.00161574 0.00666493 0.00818714 0.02454754 0.00989073 0.00994358 0.00138691 0.01794242 0.04749917 0.01299610 0.00223546 
0.00969075 0.02441387 0.00554805 0.00204692 0.00579539 0.00160337 0.00663863 0.00815100 0.02460103 0.00995840 0.01004128 0.00138656 0.01735721 0.04754016 0.01297181 0.00222083 
0.00988231 0.02423273 0.00552544 0.00204633 0.00571919 0.00159109 0.00661537 0.00811278 0.02466657 0.01002177 0.01012963 0.00138685 0.01675459 0.04752668 0.01293780 0.00220334 
0.01006511 0.02403265 0.00549813 0.00204590 0.00564934 0.00157890 0.00659493 0.00807276 0.02474357 0.01008053 0.01020805 0.00138776 0.01613693 0.04745972 0.01289446 0.00218307 
0.01023821 0.02381452 0.00546642 0.00204565 0.00558576 0.00156686 0.00657707 0.00803123 0.02483141 0.01013439 0.01027603 0.00138926 0.01550672 0.04734065 0.01284223 0.00216014 
0.01040076 0.02357933 0.00543065 0.00204561 0.00552832 0.00155498 0.00656153 0.00798849 0.02492941 0.01018307 0.01033319 0.00139131 0.01486645 0.04717115 0.01278163 0.00213465 
0.01055201 0.02332816 0.00539116 0.00204582 0.00547686 0.00154330 0.00654800 0.00794481 0.02503689 0.01022626 0.01037923 0.00139386 0.01421868 0.04695324 0.01271323 0.00210675 
0.01069128 0.02306220 0.00534832 0.00204629 0.00543118 0.00153185 0.00653617 0.00790052 0.02515314 0.01026369 0.01041393 0.00139686 0.01356600 0.04668926 0.01263769 0.00207659 
0.01081798 0.02278273 0.00530250 0.00204707 0.00539108 0.00152067 0.00652569 0.00785592 0.02527745 0.01029509 0.01043719 0.00140026 0.01291102 0.04638178 0.01255569 0.00204432 
0.01093162 0.02249110 0.00525411 0.00204815 0.00535629 0.00150978 0.00651623 0.00781130 0.02540910 0.01032018 0.01044901 0.00140401 0.01225635 0.04603366 0.01246796 0.00201011 
0.01103180 0.02218874 0.00520354 0.00204957 0.00532656 0.00149921 0.00650741 0.00776697 0.02554740 0.01033872 0.01044950 0.00140805 0.01160459 0.04564796 0.01237528 0.00197414 
0.01111823 0.02187716 0.00515119 0.00205133 0.00530158 0.00148901 0.00649886 0.00772323 0.02569166 0.01035046 0.01043887 0.00141232 0.01095834 0.04522797 0.01227847 0.00193660 
0.01119072 0.02155791 0.00509746 0.00205344 0.00528105 0.00147920 0.00649021 0.00768037 0.02584122 0.01035519 0.01041743 0.00141675 0.01032015 0.04477711 0.01217835 0.00189768 
0.01124917 0.02123260 0.00504277 0.00205591 0.00526466 0.00146982 0.00648109 0.00763868 0.02599547 0.01035270 0.01038560 0.00142129 0.00969255 0.04429897 0.01207578 0.00185759 
0.01129360 0.02090288 0.00498750 0.00205874 0.00525206 0.00146090 0.00647113 0.00759844 0.02615382 0.01034280 0.01034388 0.00142587 0.00907801 0.04379723 0.01197162 0.00181652 
0.01132412 0.02057043 0.00493206 0.00206192 0.00524293 0.00145246 0.00645998 0.00755993 0.02631576 0.01032534 0.01029290 0.00143042 0.00847892 0.04327567 0.01186673 0.00177470 
0.01134096 0.02023696 0.00487682 0.00206546 0.00523691 0.00144455 0.00644729 0.00752339 0.02648079 0.01030017 0.01023337 0.00143490 0.00789763 0.04273811 0.01176197 0.00173233 
0.01134443 0.01990419 0.00482216 0.00206932 0.00523367 0.00143719 0.00643273 0.00748908 0.02664852 0.01026717 0.01016609 0.00143923 0.00733638 0.04218840 0.01165821 0.00168962 
0.01133495 0.01957386 0.00476843 0.00207351 0.00523287 0.00143041 0.00641601 0.00745723 0.02681859 0.01022625 0.01009193 0.00144336 0.00679732 0.04163036 0.01155627 0.00164680 
0.01131305 0.01924767 0.00471597 0.00207800 0.00523418 0.00142424 0.00639684 0.00742805 0.02699073 0.01017736 0.01001187 0.00144722 0.00628250 0.04106781 0.01145696 0.00160407 
0.01127934 0.01892734 0.00466510 0.00208277 0.00523727 0.00141871 0.00637496 0.00740175 0.02716473 0.01012045 0.00992694 0.00145078 0.00579387 0.04050450 0.01136107 0.00156165 
0.01123452 0.01861457 0.00461611 0.00208779 0.00524184 0.00141384 0.00635016 0.00737850 0.02734046 0.01005552 0.00983824 0.00145397 0.00533323 0.03994408 0.01126934 0.00151974 
0.01117939 0.01831102 0.00456928 0.00209303 0.00524759 0.00140965 0.00632226 0.00735848 0.02751787 0.00998261 0.00974694 0.00145675 0.00490227 0.03939009 0.01118248 0.00147854 
0.01111482 0.01801830 0.00452486 0.00209845 0.00525425 0.00140618 0.00629110 0.00734182 0.02769699 0.00990176 0.00965426 0.00145908 0.00450254 0.03884596 0.01110115 0.00143826 
0.01104176 0.01773799 0.00448306 0.00210402 0.00526156 0.00140343 0.00625656 0.00732865 0.02787792 0.00981307 0.00956144 0.00146093 0.00413545 0.03831494 0.01102596 0.00139909 
0.01096125 0.01747161 0.00444408 0.00210970 0.00526929 0.00140143 0.00621859 0.00731907 0.02806084 0.00971667 0.00946978 0.00146225 0.00380227 0.03780012 0.01095745 0.00136120 
0.01087438 0.01722063 0.00440809 0.00211544 0.00527723 0.00140019 0.00617716 0.00731316 0.02824600 0.00961270 0.00938060 0.00146303 0.00350409 0.03730440 0.01089612 0.00132478 
0.01078230 0.01698644 0.00437521 0.00212120 0.00528521 0.00139973 0.00613228 0.00731099 0.02843372 0.00950137 0.00929521 0.00146325 0.00324188 0.03683046 0.01084241 0.00129000 
0.01068623 0.01677036 0.00434556 0.00212694 0.00529308 0.00140006 0.00608401 0.00731257 0.02862440 0.00938290 0.00921497 0.00146288 0.00301642 0.03638076 0.01079668 0.00125700 
0.01058742 0.01657363 0.00431921 0.00213261 0.00530071 0.00140118 0.00603247 0.00731794 0.02881849 0.00925755 0.00914119 0.00146192 0.00282833 0.03595756 0.01075923 0.00122593 
0.01048716 0.01639739 0.00429620 0.00213815 0.00530801 0.00140311 0.00597780 0.00732707 0.02901650 0.00912562 0.00907520 0.00146037 0.00267808 0.03556284 0.01073031 0.00119694 
0.01038678 0.01624272 0.00427654 0.00214352 0.00531492 0.00140584 0.00592021 0.00733995 0.02921899 0.00898743 0.00901828 0.00145823 0.00256597 0.03519835 0.01071006 0.00117013 
0.01028764 0.01611058 0.00426023 0.00214868 0.00532143 0.00140938 0.00585994 0.00735650 0.02942654 0.00884334 0.00897170 0.00145552 0.00249211 0.03486558 0.01069860 0.00114563 
0.01019110 0.01600184 0.00424721 0.00215356 0.00532753 0.00141372 0.00579727 0.00737667 0.02963981 0.00869375 0.00893666 0.00145224 0.00245648 0.03456579 0.01069596 0.00112353 
0.01009854 0.01591727 0.00423742 0.00215813 0.00533327 0.00141885 0.00573255 0.00740034 0.02985945 0.00853908 0.00891433 0.00144841 0.00245887 0.03429995 0.01070208 0.00110392 
0.01001133 0.01585754 0.00423076 0.00216233 0.00533871 0.00142477 0.00566614 0.00742741 0.03008614 0.00837978 0.00890579 0.00144408 0.00249892 0.03406880 0.01071688 0.00108687 
0.00993084 0.01582320 0.00422709 0.00216613 0.00534395 0.00143146 0.00559845 0.00745773 0.03032056 0.00821634 0.00891209 0.00143926 0.00257609 0.03387282 0.01074018 0.00107244 
0.00985842 0.01581471 0.00422627 0.00216948 0.00534913 0.00143892 0.00552993 0.00749115 0.03056339 0.00804928 0.00893414 0.00143400 0.00268971 0.03371225 0.01077175 0.00106068 
0.00979539 0.01583241 0.00422813 0.00217234 0.00535441 0.00144711 0.00546107 0.00752749 0.03081531 0.00787912 0.00897282 0.00142835 0.00283894 0.03358709 0.01081130 0.00105162 
0.00974304 0.01587654 0.00423248 0.00217467 0.00535997 0.00145602 0.00539237 0.00756656 0.03107696 0.00770644 0.00902887 0.00142234 0.00302280 0.03349710 0.01085850 0.00104528 
0.00970262 0.01594723 0.00423910 0.00217645 0.00536603 0.00146562 0.00532438 0.00760814 0.03134895 0.00753181 0.00910296 0.00141603 0.00324017 0.03344185 0.01091295 0.00104168 
0.00967531 0.01604450 0.00424777 0.00217764 0.00537282 0.00147588 0.00525766 0.00765202 0.03163185 0.00735585 0.00919561 0.00140949 0.00348977 0.03342068 0.01097421 0.00104080 
0.00966226 0.01616827 0.00425824 0.00217821 0.00538060 0.00148677 0.00519279 0.00769796 0.03192618 0.00717917 0.00930727 0.00140275 0.00377023 0.03343273 0.01104179 0.00104264 
0.00966453 0.01631835 0.00427026 0.00217816 0.00538964 0.00149826 0.00513038 0.00774570 0.03223239 0.00700243 0.00943823 0.00139590 0.00408004 0.03347700 0.01111517 0.00104717 
0.00968313 0.01649447 0.00428357 0.00217746 0.00540024 0.00151030 0.00507105 0.00779499 0.03255086 0.00682627 0.00958867 0.00138898 0.00441755 0.03355228 0.01119381 0.00105435 
0.00971897 0.01669622 0.00429790 0.00217610 0.00541268 0.00152286 0.00501540 0.00784556 0.03288188 0.00665136 0.00975865 0.00138207 0.00478105 0.03365725 0.01127711 0.00106413 
0.00977287 0.01692315 0.00431297 0.00217409 0.00542730 0.00153589 0.00496407 0.00789712 0.03322565 0.00647839 0.00994809 0.00137523 0.00516871 0.03379044 0.01136448 0.00107646 
0.00984558 0.01717468 0.00432850 0.00217141 0.00544440 0.00154935 0.00491767 0.00794939 0.03358228 0.00630804 0.01015677 0.00136853 0.00557860 0.03395026 0.01145529 0.00109126 
0.00993773 0.01745015 0.00434421 0.00216808 0.00546431 0.00156318 0.00487683 0.00800209 0.03395177 0.00614098 0.01038435 0.00136204 0.00600873 0.03413505 0.01154891 0.00110847 
0.01004985 0.01774883 0.00435983 0.00216411 0.00548734 0.00157733 0.00484215 0.00805491 0.03433399 0.00597793 0.01063034 0.00135581 0.00645704 0.03434306 0.01164471 0.00112800 
0.01018237 0.01806990 0.00437508 0.00215951 0.00551382 0.00159175 0.00481423 0.00810757 0.03472872 0.00581955 0.01089414 0.00134991 0.00692140 0.03457246 0.01174204 0.00114976 
0.01033560 0.01841248 0.00438970 0.00215432 0.00554405 0.00160637 0.00479363 0.00815976 0.03513560 0.00566654 0.01117499 0.00134440 0.00739963 0.03482142 0.01184028 0.00117365 
0.01050974 0.01877560 0.00440344 0.00214856 0.00557834 0.00162116 0.00478090 0.00821120 0.03555413 0.00551958 0.01147203 0.00133934 0.00788953 0.03508804 0.01193881 0.00119958 
0.01070485 0.01915825 0.00441604 0.00214227 0.00561695 0.00163603 0.00477656 0.00826159 0.03598371 0.00537932 0.01178426 0.00133479 0.00838885 0.03537045 0.01203701 0.00122743 
0.01092090 0.01955934 0.00442728 0.00213548 0.00566017 0.00165093 0.00478109 0.00831065 0.03642358 0.00524642 0.01211056 0.00133079 0.00889533 0.03566677 0.01213431 0.00125708 
0.01115772 0.01997776 0.00443694 0.00212825 0.00570823 0.00166579 0.00479494 0.00835809 0.03687287 0.00512152 0.01244971 0.00132739 0.00940672 0.03597514 0.01223013 0.00128844 
0.01141501 0.02041231 0.00444482 0.00212062 0.00576136 0.00168056 0.00481853 0.00840364 0.03733057 0.00500523 0.01280037 0.00132463 0.00992073 0.03629376 0.01232397 0.00132137 
0.01169237 0.02086178 0.00445074 0.00211265 0.00581974 0.00169516 0.00485220 0.00844704 0.03779552 0.00489816 0.01316110 0.00132256 0.01043513 0.03662086 0.01241531 0.00135576 
0.01198924 0.02132491 0.00445452 0.00210440 0.00588355 0.00170953 0.00489627 0.00848803 0.03826648 0.00480087 0.01353037 0.00132120 0.01094769 0.03695475 0.01250370 0.00139149 
0.01230497 0.02180041 0.00445604 0.00209593 0.00595290 0.00172360 0.00495101 0.00852637 0.03874205 0.00471390 0.01390656 0.00132057 0.01145620 0.03729382 0.01258872 0.00142842 
0.01263878 0.02228696 0.00445517 0.00208731 0.00602790 0.00173731 0.00501662 0.00856183 0.03922074 0.00463777 0.01428800 0.00132069 0.01195852 0.03763653 0.01267001 0.00146645 
0.01298978 0.02278324 0.00445180 0.00207861 0.00610860 0.00175058 0.00509325 0.00859418 0.03970092 0.00457296 0.01467293 0.00132158 0.01245255 0.03798147 0.01274722 0.00150544 
0.01335694 0.02328788 0.00444586 0.00206990 0.00619503 0.00176336 0.00518100 0.00862323 0.04018089 0.00451990 0.01505955 0.00132325 0.01293624 0.03832731 0.01282010 0.00154527 
0.01373916 0.02379952 0.00443730 0.00206125 0.00628715 0.00177557 0.00527990 0.00864879 0.04065884 0.00447900 0.01544601 0.00132569 0.01340763 0.03867284 0.01288841 0.00158582 
0.01413519 0.02431679 0.00442609 0.00205275 0.00638490 0.00178715 0.00538991 0.00867068 0.04113288 0.00445062 0.01583043 0.00132889 0.01386483 0.03901697 0.01295197 0.00162697 
0.01454373 0.02483832 0.00441222 0.00204447 0.00648817 0.00179804 0.00551094 0.00868876 0.04160105 0.00443509 0.01621092 0.00133284 0.01430603 0.03935873 0.01301067 0.00166860 
0.01496335 0.02536273 0.00439570 0.00203648 0.00659682 0.00180817 0.00564283 0.00870290 0.04206134 0.00443268 0.01658557 0.00133752 0.01472952 0.03969729 0.01306444 0.00171060 
0.01539255 0.02588866 0.00437659 0.00202887 0.00671064 0.00181749 0.00578536 0.00871297 0.04251168 0.00444360 0.01695249 0.00134291 0.01513369 0.04003192 0.01311326 0.00175285 
0.01582974 0.02641475 0.00435492 0.00202171 0.00682940 0.00182593 0.00593825 0.00871888 0.04294997 0.00446804 0.01730980 0.00134897 0.01551703 0.04036204 0.01315717 0.00179524 
0.01627327 0.02693966 0.00433080 0.00201507 0.00695281 0.00183345 0.00610114 0.00872056 0.04337408 0.00450613 0.01765564 0.00135566 0.01587816 0.04068719 0.01319627 0.00183766 
0.01672143 0.02746206 0.00430433 0.00200903 0.00708054 0.00183999 0.00627363 0.00871796 0.04378189 0.00455793 0.01798821 0.00136294 0.01621579 0.04100703 0.01323068 0.00188001 
0.01717244 0.02798065 0.00427562 0.00200366 0.00721222 0.00184549 0.00645524 0.00871103 0.04417128 0.00462346 0.01830576 0.00137075 0.01652878 0.04132133 0.01326061 0.00192219 
0.01762448 0.02849415 0.00424482 0.00199902 0.00734745 0.00184992 0.00664544 0.00869978 0.04454015 0.00470268 0.01860661 0.00137905 0.01681611 0.04162998 0.01328628 0.00196409 
0.01807571 0.02900130 0.00421209 0.00199518 0.00748578 0.00185323 0.00684365 0.00868420 0.04488644 0.00479551 0.01888915 0.00138777 0.01707687 0.04193300 0.01330797 0.00200563 
0.01852425 0.02950087 0.00417760 0.00199220 0.00762672 0.00185538 0.00704923 0.00866433 0.04520815 0.00490179 0.01915186 0.00139685 0.01731031 0.04223047 0.01332601 0.00204671 
0.01896820 0.02999168 0.00414154 0.00199013 0.00776976 0.00185633 0.00726149 0.00864023 0.04550334 0.00502131 0.01939332 0.00140623 0.01751579 0.04252260 0.01334075 0.00208725 
0.01940567 0.03047256 0.00410412 0.00198903 0.00791435 0.00185606 0.00747969 0.00861198 0.04577017 0.00515381 0.01961225 0.00141583 0.01769283 0.04280967 0.01335258 0.00212716 
0.01983478 0.03094239 0.00406555 0.00198892 0.00805990 0.00185453 0.00770305 0.00857966 0.04600686 0.00529896 0.01980745 0.00142559 0.01784108 0.04309203 0.01336193 0.00216636 
0.02025364 0.03140009 0.00402605 0.00198987 0.00820582 0.00185173 0.00793074 0.00854339 0.04621179 0.00545640 0.01997786 0.00143543 0.01796030 0.04337011 0.01336924 0.00220477 
0.02066040 0.03184460 0.00398584 0.00199189 0.00835148 0.00184764 0.00816192 0.00850333 0.04638342 0.00562568 0.02012259 0.00144528 0.01805043 0.04364439 0.01337498 0.00224233 
0.02105327 0.03227494 0.00394517 0.00199501 0.00849625 0.00184225 0.00839570 0.00845962 0.04652038 0.00580631 0.02024085 0.00145506 0.01811151 0.04391537 0.01337965 0.00227895 
0.02143047 0.03269013 0.00390427 0.00199925 0.00863946 0.00183555 0.00863116 0.00841244 0.04662143 0.00599775 0.02033203 0.00146470 0.01814374 0.04418363 0.01338374 0.00231457 
0.02179030 0.03308927 0.00386338 0.00200463 0.00878045 0.00182753 0.00886738 0.00836200 0.04668550 0.00619940 0.02039567 0.00147414 0.01814743 0.04444973 0.01338777 0.00234913 
0.02213113 0.03347149 0.00382274 0.00201114 0.00891855 0.00181821 0.00910340 0.00830852 0.04671170 0.00641063 0.02043147 0.00148328 0.01812302 0.04471426 0.01339224 0.00238257 
0.02245140 0.03383597 0.00378258 0.00201878 0.00905309 0.00180759 0.00933827 0.00825221 0.04669930 0.00663072 0.02043931 0.00149208 0.01807107 0.04497781 0.01339768 0.00241482 
0.02274963 0.03418193 0.00374315 0.00202755 0.00918340 0.00179568 0.00957102 0.00819335 0.04664777 0.00685894 0.02041921 0.00150046 0.01799229 0.04524096 0.01340458 0.00244583 
0.02302446 0.03450866 0.00370467 0.00203742 0.00930882 0.00178251 0.00980069 0.00813219 0.04655678 0.00709451 0.02037139 0.00150836 0.01788746 0.04550427 0.01341345 0.00247555 
0.02327461 0.03481549 0.00366736 0.00204837 0.00942869 0.00176810 0.01002633 0.00806902 0.04642618 0.00733659 0.02029622 0.00151572 0.01775749 0.04576824 0.01342476 0.00250392 
0.02349893 0.03510180 0.00363143 0.00206037 0.00954238 0.00175249 0.01024698 0.00800414 0.04625606 0.00758433 0.02019425 0.00152249 0.01760340 0.04603337 0.01343899 0.00253090 
0.02369637 0.03536703 0.00359708 0.00207338 0.00964927 0.00173571 0.01046173 0.00793784 0.04604667 0.00783683 0.02006619 0.00152861 0.01742628 0.04630009 0.01345657 0.00255645 
0.02386604 0.03561066 0.00356451 0.00208735 0.00974877 0.00171780 0.01066966 0.00787046 0.04579851 0.00809316 0.01991292 0.00153404 0.01722735 0.04656875 0.01347792 0.00258051 
0.02400714 0.03583223 0.00353388 0.00210222 0.00984031 0.00169881 0.01086988 0.00780231 0.04551228 0.00835236 0.01973548 0.00153875 0.01700786 0.04683967 0.01350342 0.00260306 
0.02411905 0.03603135 0.00350536 0.00211795 0.00992337 0.00167879 0.01106157 0.00773373 0.04518887 0.00861346 0.01953506 0.00154270 0.01676917 0.04711308 0.01353341 0.00262404 
0.02420126 0.03620766 0.00347910 0.00213445 0.00999744 0.00165780 0.01124389 0.00766507 0.04482940 0.00887546 0.01931300 0.00154587 0.01651270 0.04738911 0.01356821 0.00264344 
0.02425342 0.03636088 0.00345522 0.00215167 0.01006205 0.00163590 0.01141609 0.00759668 0.04443517 0.00913735 0.01907078 0.00154823 0.01623993 0.04766784 0.01360809 0.00266121 
0.02427533 0.03649076 0.00343383 0.00216953 0.01011679 0.00161317 0.01157744 0.00752890 0.04400769 0.00939811 0.01881003 0.00154978 0.01595236 0.04794923 0.01365328 0.00267733 
0.02426694 0.03659713 0.00341502 0.00218793 0.01016129 0.00158966 0.01172726 0.00746208 0.04354865 0.00965672 0.01853249 0.00155050 0.01565157 0.04823316 0.01370395 0.00269178 
0.02422835 0.03667987 0.00339888 0.00220681 0.01019520 0.00156546 0.01186494 0.00739658 0.04305994 0.00991215 0.01824002 0.00155040 0.01533915 0.04851942 0.01376024 0.00270452 
0.02415981 0.03673890 0.00338545 0.00222606 0.01021824 0.00154065 0.01198990 0.00733275 0.04254358 0.01016338 0.01793457 0.00154948 0.01501671 0.04880769 0.01382223 0.00271554 
0.02406173 0.03677423 0.00337477 0.00224560 0.01023017 0.00151530 0.01210165 0.00727093 0.04200181 0.01040941 0.01761821 0.00154777 0.01468590 0.04909756 0.01388997 0.00272483 
0.02393466 0.03678589 0.00336685 0.00226533 0.01023082 0.00148951 0.01219973 0.00721146 0.04143695 0.01064924 0.01729306 0.00154527 0.01434833 0.04938854 0.01396343 0.00273237 
0.02377930 0.03677399 0.00336169 0.00228516 0.01022004 0.00146337 0.01228379 0.00715468 0.04085152 0.01088190 0.01696133 0.00154202 0.01400564 0.04968002 0.01404255 0.00273816 
0.02359651 0.03673869 0.00335928 0.00230497 0.01019775 0.00143696 0.01235349 0.00710091 0.04024812 0.01110643 0.01662528 0.00153806 0.01365946 0.04997133 0.01412722 0.00274219 
0.02338727 0.03668020 0.00335955 0.00232469 0.01016393 0.00141038 0.01240861 0.00705046 0.03962948 0.01132191 0.01628720 0.00153341 0.01331138 0.05026168 0.01421726 0.00274447 
0.02315270 0.03659881 0.00336246 0.00234419 0.01011859 0.00138373 0.01244895 0.00700364 0.03899842 0.01152746 0.01594942 0.00152813 0.01296296 0.05055023 0.01431246 0.00274499 
0.02289405 0.03649483 0.00336792 0.00236339 0.01006182 0.00135710 0.01247443 0.00696074 0.03835781 0.01172224 0.01561428 0.00152227 0.01261575 0.05083605 0.01441256 0.00274378 
0.02261271 0.03636865 0.00337583 0.00238219 0.00999372 0.00133060 0.01248500 0.00692201 0.03771063 0.01190543 0.01528412 0.00151588 0.01227122 0.05111815 0.01451724 0.00274084 
0.02231016 0.03622070 0.00338609 0.00240049 0.00991448 0.00130432 0.01248070 0.00688773 0.03705985 0.01207628 0.01496125 0.00150902 0.01193082 0.05139548 0.01462616 0.00273620 
0.02198799 0.03605147 0.00339855 0.00241819 0.00982431 0.00127836 0.01246162 0.00685811 0.03640850 0.01223410 0.01464797 0.00150176 0.01159591 0.05166693 0.01473892 0.00272988 
0.02164791 0.03586150 0.00341309 0.00243521 0.00972349 0.00125283 0.01242794 0.00683339 0.03575961 0.01237822 0.01434652 0.00149416 0.01126782 0.05193135 0.01485508 0.00272192 
0.02129170 0.03565139 0.00342954 0.00245145 0.00961232 0.00122781 0.01237989 0.00681376 0.03511620 0.01250807 0.01405910 0.00148629 0.01094777 0.05218758 0.01497417 0.00271235 
0.02092122 0.03542176 0.00344773 0.00246683 0.00949115 0.00120342 0.01231776 0.00679937 0.03448125 0.01262312 0.01378781 0.00147822 0.01063694 0.05243442 0.01509570 0.00270122 
0.02053841 0.03517332 0.00346748 0.00248128 0.00936038 0.00117974 0.01224193 0.00679040 0.03385772 0.01272290 0.01353469 0.00147002 0.01033640 0.05267064 0.01521912 0.00268858 
0.02014525 0.03490679 0.00348860 0.00249471 0.00922042 0.00115688 0.01215280 0.00678695 0.03324847 0.01280704 0.01330168 0.00146178 0.01004716 0.05289504 0.01534389 0.00267449 
0.01974379 0.03462295 0.00351089 0.00250707 0.00907173 0.00113492 0.01205084 0.00678913 0.03265633 0.01287520 0.01309060 0.00145356 0.00977012 0.05310643 0.01546943 0.00265901 
0.01933610 0.03432263 0.00353416 0.00251828 0.00891481 0.00111396 0.01193660 0.00679702 0.03208399 0.01292715 0.01290315 0.00144543 0.00950609 0.05330362 0.01559514 0.00264220 
0.01892426 0.03400670 0.00355819 0.00252829 0.00875015 0.00109408 0.01181062 0.00681065 0.03153406 0.01296270 0.01274090 0.00143748 0.00925580 0.05348546 0.01572042 0.00262415 
0.01851040 0.03367606 0.00358276 0.00253705 0.00857829 0.00107537 0.01167355 0.00683005 0.03100899 0.01298178 0.01260529 0.00142977 0.00901986 0.05365087 0.01584465 0.00260494 
0.01809662 0.03333165 0.00360767 0.00254452 0.00839979 0.00105791 0.01152602 0.00685522 0.03051113 0.01298434 0.01249758 0.00142236 0.00879881 0.05379879 0.01596721 0.00258465 
0.01768502 0.03297445 0.00363270 0.00255066 0.00821520 0.00104178 0.01136875 0.00688611 0.03004263 0.01297046 0.01241891 0.00141534 0.00859308 0.05392824 0.01608750 0.00256338 
0.01727766 0.03260548 0.00365764 0.00255545 0.00802511 0.00102705 0.01120246 0.00692268 0.02960551 0.01294026 0.01237022 0.00140876 0.00840298 0.05403833 0.01620490 0.00254123 
0.01687659 0.03222578 0.00368228 0.00255887 0.00783010 0.00101378 0.01102789 0.00696483 0.02920159 0.01289396 0.01235230 0.00140268 0.00822876 0.05412824 0.01631880 0.00251831 
0.01648380 0.03183642 0.00370641 0.00256090 0.00763075 0.00100205 0.01084584 0.00701245 0.02883251 0.01283183 0.01236574 0.00139715 0.00807055 0.05419725 0.01642863 0.00249471 
0.01610121 0.03143851 0.00372983 0.00256155 0.00742765 0.00099190 0.01065708 0.00706540 0.02849970 0.01275423 0.01241099 0.00139224 0.00792839 0.05424474 0.01653382 0.00247057 
0.01573070 0.03103317 0.00375236 0.00256082 0.00722138 0.00098339 0.01046244 0.00712352 0.02820440 0.01266160 0.01248826 0.00138798 0.00780223 0.05427022 0.01663381 0.00244601 
0.01537405 0.03062154 0.00377380 0.00255871 0.00701253 0.00097657 0.01026272 0.00718661 0.02794761 0.01255443 0.01259763 0.00138441 0.00769193 0.05427330 0.01672810 0.00242114 
0.01503296 0.03020480 0.00379400 0.00255526 0.00680166 0.00097148 0.01005875 0.00725447 0.02773015 0.01243328 0.01273895 0.00138157 0.00759727 0.05425373 0.01681619 0.00239610 
0.01470903 0.02978414 0.00381277 0.00255049 0.00658932 0.00096814 0.00985134 0.00732687 0.02755257 0.01229878 0.01291191 0.00137949 0.00751794 0.05421138 0.01689763 0.00237101 
0.01440375 0.02936073 0.00382998 0.00254443 0.00637605 0.00096660 0.00964130 0.00740355 0.02741524 0.01215161 0.01311601 0.00137820 0.00745356 0.05414627 0.01697201 0.00234602 
0.01411851 0.02893581 0.00384549 0.00253713 0.00616239 0.00096686 0.00942945 0.00748422 0.02731826 0.01199252 0.01335058 0.00137770 0.00740368 0.05405854 0.01703895 0.00232127 
0.01385455 0.02851059 0.00385918 0.00252864 0.00594883 0.00096894 0.00921656 0.00756861 0.02726152 0.01182230 0.01361475 0.00137801 0.00736779 0.05394849 0.01709811 0.00229688 
0.01361302 0.02808629 0.00387094 0.00251902 0.00573587 0.00097286 0.00900341 0.00765641 0.02724471 0.01164179 0.01390750 0.00137914 0.00734529 0.05381656 0.01714921 0.00227301 
0.01339491 0.02766414 0.00388068 0.00250834 0.00552395 0.00097860 0.00879074 0.00774727 0.02726725 0.01145186 0.01422763 0.00138108 0.00733556 0.05366333 0.01719201 0.00224978 
0.01320108 0.02724538 0.00388832 0.00249665 0.00531352 0.00098617 0.00857928 0.00784088 0.02732837 0.01125345 0.01457380 0.00138382 0.00733791 0.05348953 0.01722630 0.00222735 
0.01303224 0.02683123 0.00389382 0.00248404 0.00510499 0.00099554 0.00836973 0.00793688 0.02742708 0.01104748 0.01494451 0.00138735 0.00735162 0.05329602 0.01725196 0.00220586 
0.01288898 0.02642291 0.00389713 0.00247058 0.00489877 0.00100670 0.00816274 0.00803490 0.02756218 0.01083495 0.01533811 0.00139165 0.00737594 0.05308380 0.01726888 0.00218543 
0.01277172 0.02602165 0.00389822 0.00245637 0.00469520 0.00101962 0.00795894 0.00813459 0.02773227 0.01061684 0.01575284 0.00139669 0.00741007 0.05285402 0.01727702 0.00216621 
0.01268074 0.02562863 0.00389710 0.00244149 0.00449463 0.00103427 0.00775893 0.00823556 0.02793577 0.01039416 0.01618680 0.00140244 0.00745320 0.05260793 0.01727640 0.00214832 
0.01261616 0.02524506 0.00389377 0.00242604 0.00429739 0.00105059 0.00756326 0.00833744 0.02817090 0.01016794 0.01663799 0.00140887 0.00750451 0.05234694 0.01726707 0.00213191 
0.01257796 0.02487210 0.00388827 0.00241010 0.00410376 0.00106855 0.00737244 0.00843984 0.02843574 0.00993919 0.01710431 0.00141592 0.00756316 0.05207255 0.01724915 0.00211708 
0.01256599 0.02451091 0.00388063 0.00239379 0.00391402 0.00108809 0.00718695 0.00854239 0.02872819 0.00970893 0.01758359 0.00142356 0.00762832 0.05178637 0.01722278 0.00210397 
0.01257993 0.02416262 0.00387094 0.00237719 0.00372843 0.00110913 0.00700720 0.00864471 0.02904601 0.00947817 0.01807357 0.00143174 0.00769916 0.05149011 0.01718819 0.00209268 
0.01261932 0.02382831 0.00385926 0.00236040 0.00354721 0.00113162 0.00683359 0.00874641 0.02938684 0.00924791 0.01857193 0.00144039 0.00777486 0.05118558 0.01714563 0.00208333 
0.01268359 0.02350908 0.00384569 0.00234354 0.00337060 0.00115548 0.00666646 0.00884713 0.02974821 0.00901913 0.01907632 0.00144947 0.00785460 0.05087467 0.01709538 0.00207601 
0.01277200 0.02320594 0.00383034 0.00232669 0.00319879 0.00118062 0.00650610 0.00894650 0.03012753 0.00879277 0.01958434 0.00145891 0.00793761 0.05055931 0.01703781 0.00207081 
0.01288371 0.02291991 0.00381333 0.00230996 0.00303198 0.00120696 0.00635278 0.00904416 0.03052215 0.00856976 0.02009360 0.00146865 0.00802314 0.05024152 0.01697327 0.00206781 
0.01301775 0.02265193 0.00379480 0.00229344 0.00287035 0.00123441 0.00620669 0.00913977 0.03092934 0.00835099 0.02060168 0.00147864 0.00811045 0.04992336 0.01690220 0.00206710 
0.01317303 0.02240294 0.00377489 0.00227724 0.00271408 0.00126286 0.00606802 0.00923299 0.03134633 0.00813730 0.02110618 0.00148879 0.00819887 0.04960690 0.01682505 0.00206874 
0.01334837 0.02217378 0.00375377 0.00226144 0.00256335 0.00129223 0.00593689 0.00932350 0.03177030 0.00792951 0.02160473 0.00149906 0.00828775 0.04929424 0.01674229 0.00207278 
0.01354247 0.02196528 0.00373161 0.00224613 0.00241832 0.00132238 0.00581340 0.00941099 0.03219843 0.00772836 0.02209497 0.00150936 0.00837650 0.04898751 0.01665443 0.00207927 
0.01375396 0.02177820 0.00370857 0.00223140 0.00227918 0.00135323 0.00569759 0.00949518 0.03262791 0.00753458 0.02257464 0.00151965 0.00846455 0.04868879 0.01656202 0.00208824 
0.01398137 0.02161324 0.00368485 0.00221733 0.00214611 0.00138465 0.00558950 0.00957578 0.03305593 0.00734881 0.02304148 0.00152986 0.00855141 0.04840018 0.01646560 0.00209972 
0.01422318 0.02147104 0.00366062 0.00220400 0.00201929 0.00141652 0.00548910 0.00965254 0.03347972 0.00717166 0.02349336 0.00153993 0.00863664 0.04812373 0.01636575 0.00211371 
0.01447779 0.02135217 0.00363609 0.00219147 0.00189892 0.00144873 0.00539635 0.00972522 0.03389656 0.00700366 0.02392820 0.00154979 0.00871983 0.04786144 0.01626305 0.00213022 
0.01474356 0.02125715 0.00361145 0.00217982 0.00178522 0.00148114 0.00531119 0.00979361 0.03430382 0.00684529 0.02434403 0.00155939 0.00880067 0.04761526 0.01615809 0.00214924 
0.01501880 0.02118641 0.00358690 0.00216909 0.00167841 0.00151365 0.00523351 0.00985750 0.03469893 0.00669699 0.02473899 0.00156868 0.00887886 0.04738707 0.01605148 0.00217074 
0.01530179 0.02114031 0.00356263 0.00215934 0.00157874 0.00154611 0.00516319 0.00991672 0.03507942 0.00655910 0.02511133 0.00157761 0.00895420 0.04717865 0.01594382 0.00219469 
0.01559079 0.02111913 0.00353884 0.00215062 0.00148647 0.00157841 0.00510010 0.00997112 0.03544296 0.00643192 0.02545943 0.00158613 0.00902650 0.04699173 0.01583572 0.00222104 
0.01588406 0.02112307 0.00351572 0.00214296 0.00140190 0.00161041 0.00504409 0.01002056 0.03578733 0.00631568 0.02578180 0.00159420 0.00909568 0.04682788 0.01572775 0.00224974 
0.01617984 0.02115225 0.00349346 0.00213639 0.00132534 0.00164200 0.00499498 0.01006494 0.03611044 0.00621056 0.02607709 0.00160179 0.00916168 0.04668859 0.01562053 0.00228072 
0.01647640 0.02120670 0.00347225 0.00213094 0.00125712 0.00167305 0.00495260 0.01010416 0.03641038 0.00611666 0.02634410 0.00160885 0.00922449 0.04657523 0.01551461 0.00231389 
0.01677202 0.02128637 0.00345226 0.00212662 0.00119760 0.00170343 0.00491677 0.01013816 0.03668539 0.00603402 0.02658178 0.00161537 0.00928417 0.04648901 0.01541057 0.00234916 
0.01706499 0.02139110 0.00343366 0.00212344 0.00114718 0.00173302 0.00488728 0.01016689 0.03693389 0.00596266 0.02678924 0.00162133 0.00934082 0.04643102 0.01530895 0.00238643 
0.01735368 0.02152067 0.00341660 0.00212139 0.00110626 0.00176171 0.00486395 0.01019034 0.03715448 0.00590248 0.02696573 0.00162670 0.00939459 0.04640219 0.01521026 0.00242560 
0.01763648 0.02167473 0.00340125 0.00212047 0.00107529 0.00178938 0.00484658 0.01020850 0.03734595 0.00585339 0.02711069 0.00163147 0.00944568 0.04640331 0.01511502 0.00246653 
0.01791184 0.02185288 0.00338773 0.00212067 0.00105473 0.00181592 0.00483500 0.01022139 0.03750730 0.00581520 0.02722370 0.00163565 0.00949429 0.04643500 0.01502368 0.00250909 
0.01817828 0.02205458 0.00337618 0.00212195 0.00104508 0.00184123 0.00482901 0.01022906 0.03763773 0.00578771 0.02730452 0.00163923 0.00954071 0.04649772 0.01493671 0.00255316 
0.01843438 0.02227924 0.00336671 0.00212429 0.00104685 0.00186519 0.00482844 0.01023156 0.03773665 0.00577064 0.02735307 0.00164222 0.00958522 0.04659176 0.01485450 0.00259858 
0.01867882 0.02252613 0.00335942 0.00212766 0.00106057 0.00188772 0.00483313 0.01022898 0.03780367 0.00576370 0.02736941 0.00164463 0.00962815 0.04671724 0.01477745 0.00264519 
0.01891034 0.02279447 0.00335440 0.00213200 0.00108679 0.00190873 0.00484293 0.01022142 0.03783865 0.00576654 0.02735379 0.00164648 0.00966984 0.04687412 0.01470590 0.00269284 
0.01912780 0.02308337 0.00335172 0.00213727 0.00112609 0.00192813 0.00485769 0.01020898 0.03784163 0.00577880 0.02730660 0.00164780 0.00971064 0.04706217 0.01464016 0.00274137 
0.01933012 0.02339185 0.00335144 0.00214341 0.00117904 0.00194585 0.00487730 0.01019182 0.03781288 0.00580006 0.02722838 0.00164860 0.00975094 0.04728099 0.01458051 0.00279059 
0.01951636 0.02371885 0.00335359 0.00215037 0.00124623 0.00196182 0.00490165 0.01017007 0.03775288 0.00582991 0.02711984 0.00164893 0.00979110 0.04753004 0.01452719 0.00284034 
0.01968566 0.02406321 0.00335822 0.00215807 0.00132827 0.00197598 0.00493065 0.01014389 0.03766231 0.00586789 0.02698180 0.00164881 0.00983153 0.04780858 0.01448039 0.00289044 
0.01983726 0.02442371 0.00336532 0.00216644 0.00142575 0.00198828 0.00496423 0.01011348 0.03754208 0.00591354 0.02681524 0.00164831 0.00987259 0.04811571 0.01444028 0.00294072 
0.01997054 0.02479905 0.00337490 0.00217541 0.00153927 0.00199867 0.00500234 0.01007902 0.03739329 0.00596639 0.02662125 0.00164745 0.00991466 0.04845040 0.01440698 0.00299099 
0.02008496 0.02518784 0.00338694 0.00218490 0.00166940 0.00200712 0.00504495 0.01004070 0.03721721 0.00602596 0.02640107 0.00164630 0.00995812 0.04881143 0.01438056 0.00304107 
0.02018011 0.02558864 0.00340140 0.00219484 0.00181673 0.00201360 0.00509204 0.00999876 0.03701532 0.00609175 0.02615603 0.00164491 0.01000331 0.04919744 0.01436108 0.00309078 
0.02025568 0.02599996 0.00341825 0.00220513 0.00198180 0.00201810 0.00514362 0.00995340 0.03678928 0.00616330 0.02588757 0.00164333 0.01005056 0.04960695 0.01434852 0.00313996 
0.02031149 0.02642022 0.00343740 0.00221570 0.00216515 0.00202061 0.00519972 0.00990486 0.03654091 0.00624011 0.02559723 0.00164163 0.01010020 0.05003833 0.01434285 0.00318843 
0.02034745 0.02684782 0.00345880 0.00222646 0.00236727 0.00202113 0.00526037 0.00985338 0.03627216 0.00632171 0.02528664 0.00163986 0.01015250 0.05048981 0.01434400 0.00323601 
0.02036358 0.02728110 0.00348235 0.00223733 0.00258864 0.00201969 0.00532564 0.00979920 0.03598517 0.00640766 0.02495750 0.00163810 0.01020772 0.05095953 0.01435186 0.00328256 
0.02036003 0.02771839 0.00350796 0.00224821 0.00282968 0.00201630 0.00539559 0.00974258 0.03568218 0.00649750 0.02461160 0.00163640 0.01026608 0.05144551 0.01436626 0.00332790 
0.02033703 0.02815797 0.00353550 0.00225903 0.00309076 0.00201099 0.00547032 0.00968377 0.03536556 0.00659082 0.02425075 0.00163484 0.01032778 0.05194567 0.01438703 0.00337190 
0.02029491 0.02859810 0.00356487 0.00226971 0.00337221 0.00200381 0.00554992 0.00962303 0.03503778 0.00668722 0.02387685 0.00163348 0.01039297 0.05245784 0.01441395 0.00341440 
0.02023410 0.02903705 0.00359592 0.00228015 0.00367430 0.00199481 0.00563451 0.00956063 0.03470139 0.00678631 0.02349181 0.00163240 0.01046176 0.05297980 0.01444676 0.00345529 
0.02015512 0.02947306 0.00362852 0.00229030 0.00399724 0.00198405 0.00572419 0.00949681 0.03435904 0.00688776 0.02309758 0.00163165 0.01053423 0.05350923 0.01448518 0.00349443 
0.02005857 0.02990440 0.00366252 0.00230006 0.00434115 0.00197161 0.00581911 0.00943186 0.03401341 0.00699124 0.02269613 0.00163130 0.01061042 0.05404379 0.01452889 0.00353173 
0.01994514 0.03032935 0.00369776 0.00230938 0.00470611 0.00195756 0.00591938 0.00936603 0.03366726 0.00709647 0.02228942 0.00163143 0.01069031 0.05458108 0.01457755 0.00356707 
0.01981559 0.03074619 0.00373408 0.00231818 0.00509209 0.00194199 0.00602514 0.00929959 0.03332334 0.00720319 0.02187944 0.00163209 0.01077387 0.05511868 0.01463081 0.00360037 
0.01967073 0.03115327 0.00377131 0.00232640 0.00549901 0.00192500 0.00613652 0.00923279 0.03298443 0.00731117 0.02146814 0.00163334 0.01086101 0.05565416 0.01468825 0.00363156 
0.01951145 0.03154895 0.00380929 0.00233398 0.00592668 0.00190670 0.00625365 0.00916590 0.03265332 0.00742023 0.02105746 0.00163525 0.01095159 0.05618508 0.01474948 0.00366059 
0.01933870 0.03193166 0.00384785 0.00234087 0.00637482 0.00188719 0.00637664 0.00909918 0.03233274 0.00753021 0.02064932 0.00163787 0.01104546 0.05670902 0.01481406 0.00368740 
0.01915345 0.03229988 0.00388681 0.00234703 0.00684309 0.00186659 0.00650561 0.00903289 0.03202544 0.00764098 0.02024558 0.00164126 0.01114241 0.05722359 0.01488155 0.00371197 
0.01895673 0.03265214 0.00392599 0.00235241 0.00733101 0.00184502 0.00664068 0.00896726 0.03173407 0.00775246 0.01984806 0.00164545 0.01124220 0.05772643 0.01495148 0.00373427 
0.01874961 0.03298707 0.00396522 0.00235698 0.00783803 0.00182263 0.00678191 0.00890255 0.03146124 0.00786460 0.01945855 0.00165051 0.01134455 0.05821522 0.01502338 0.00375432 
0.01853317 0.03330337 0.00400433 0.00236071 0.00836351 0.00179953 0.00692940 0.00883900 0.03120949 0.00797736 0.01907874 0.00165647 0.01144916 0.05868774 0.01509677 0.00377213 
0.01830851 0.03359984 0.00404315 0.00236357 0.00890669 0.00177587 0.00708319 0.00877685 0.03098123 0.00809076 0.01871026 0.00166337 0.01155570 0.05914181 0.01517116 0.00378773 
0.01807675 0.03387535 0.00408151 0.00236556 0.00946672 0.00175179 0.00724333 0.00871633 0.03077880 0.00820482 0.01835469 0.00167125 0.01166382 0.05957536 0.01524607 0.00380117 
0.01783901 0.03412888 0.00411925 0.00236664 0.01004267 0.00172744 0.00740982 0.00865766 0.03060441 0.00831961 0.01801349 0.00168012 0.01177313 0.05998643 0.01532099 0.00381252 
0.01759642 0.03435954 0.00415621 0.00236684 0.01063348 0.00170295 0.00758266 0.00860107 0.03046013 0.00843521 0.01768805 0.00169002 0.01188323 0.06037315 0.01539545 0.00382185 
0.01735009 0.03456652 0.00419223 0.00236613 0.01123802 0.00167848 0.00776181 0.00854677 0.03034790 0.00855173 0.01737967 0.00170095 0.01199372 0.06073380 0.01546897 0.00382925 
0.01710112 0.03474914 0.00422719 0.00236454 0.01185507 0.00165417 0.00794721 0.00849497 0.03026949 0.00866929 0.01708955 0.00171295 0.01210417 0.06106680 0.01554106 0.00383485 
0.01685061 0.03490685 0.00426092 0.00236206 0.01248330 0.00163016 0.00813875 0.00844587 0.03022655 0.00878803 0.01681876 0.00172600 0.01221414 0.06137070 0.01561128 0.00383877 
0.01659959 0.03503919 0.00429332 0.00235873 0.01312133 0.00160661 0.00833632 0.00839966 0.03022051 0.00890811 0.01656831 0.00174011 0.01232321 0.06164422 0.01567918 0.00384114 
0.01634911 0.03514586 0.00432424 0.00235456 0.01376766 0.00158365 0.00853977 0.00835653 0.03025266 0.00902970 0.01633907 0.00175528 0.01243094 0.06188626 0.01574432 0.00384211 
0.01610015 0.03522665 0.00435359 0.00234957 0.01442074 0.00156143 0.00874888 0.00831665 0.03032410 0.00915296 0.01613180 0.00177150 0.01253690 0.06209588 0.01580631 0.00384186 
0.01585367 0.03528151 0.00438125 0.00234381 0.01507894 0.00154006 0.00896346 0.00828021 0.03043574 0.00927807 0.01594717 0.00178876 0.01264067 0.06227233 0.01586476 0.00384056 
0.01561059 0.03531048 0.00440713 0.00233731 0.01574059 0.00151970 0.00918323 0.00824736 0.03058832 0.00940520 0.01578571 0.00180703 0.01274184 0.06241507 0.01591932 0.00383840 
0.01537176 0.03531376 0.00443116 0.00233010 0.01640394 0.00150046 0.00940791 0.00821826 0.03078235 0.00953454 0.01564784 0.00182628 0.01284001 0.06252375 0.01596966 0.00383557 
0.01513801 0.03529164 0.00445325 0.00232223 0.01706719 0.00148245 0.00963716 0.00819304 0.03101819 0.00966623 0.01553388 0.00184649 0.01293482 0.06259823 0.01601549 0.00383228 
0.01491010 0.03524455 0.00447334 0.00231374 0.01772851 0.00146579 0.00987064 0.00817185 0.03129597 0.00980044 0.01544402 0.00186763 0.01302592 0.06263856 0.01605655 0.00382875 
0.01468873 0.03517303 0.00449138 0.00230468 0.01838604 0.00145059 0.01010795 0.00815481 0.03161565 0.00993731 0.01537835 0.00188964 0.01311296 0.06264505 0.01609262 0.00382520 
0.01447457 0.03507772 0.00450733 0.00229510 0.01903790 0.00143694 0.01034865 0.00814204 0.03197701 0.01007697 0.01533683 0.00191248 0.01319566 0.06261818 0.01612353 0.00382184 
0.01426819 0.03495939 0.00452115 0.00228505 0.01968216 0.00142492 0.01059231 0.00813364 0.03237960 0.01021952 0.01531932 0.00193611 0.01327376 0.06255868 0.01614912 0.00381892 
0.01407015 0.03481888 0.00453284 0.00227458 0.02031694 0.00141462 0.01083843 0.00812969 0.03282282 0.01036505 0.01532558 0.00196047 0.01334700 0.06246749 0.01616931 0.00381666 
0.01388091 0.03465716 0.00454237 0.00226375 0.02094032 0.00140610 0.01108649 0.00813029 0.03330590 0.01051361 0.01535525 0.00198550 0.01341520 0.06234577 0.01618405 0.00381529 
0.01370090 0.03447526 0.00454976 0.00225260 0.02155040 0.00139942 0.01133596 0.00813549 0.03382785 0.01066524 0.01540789 0.00201113 0.01347819 0.06219489 0.01619332 0.00381505 
0.01353047 0.03427432 0.00455500 0.00224119 0.02214532 0.00139463 0.01158627 0.00814536 0.03438757 0.01081994 0.01548293 0.00203730 0.01353585 0.06201643 0.01619718 0.00381616 
0.01336992 0.03405551 0.00455812 0.00222956 0.02272323 0.00139176 0.01183684 0.00815992 0.03498375 0.01097768 0.01557973 0.00206395 0.01358809 0.06181221 0.01619571 0.00381885 
0.01321950 0.03382012 0.00455916 0.00221778 0.02328233 0.00139084 0.01208706 0.00817920 0.03561496 0.01113839 0.01569757 0.00209099 0.01363486 0.06158420 0.01618906 0.00382334 
0.01307939 0.03356945 0.00455815 0.00220589 0.02382088 0.00139188 0.01233630 0.00820322 0.03627961 0.01130198 0.01583561 0.00211835 0.01367616 0.06133460 0.01617741 0.00382984 
0.01294972 0.03330488 0.00455515 0.00219393 0.02433719 0.00139489 0.01258392 0.00823195 0.03697599 0.01146831 0.01599297 0.00214596 0.01371202 0.06106578 0.01616101 0.00383855 
0.01283059 0.03302782 0.00455021 0.00218196 0.02482962 0.00139986 0.01282927 0.00826538 0.03770226 0.01163721 0.01616868 0.00217373 0.01374250 0.06078030 0.01614013 0.00384968 
0.01272201 0.03273971 0.00454340 0.00217001 0.02529664 0.00140677 0.01307170 0.00830345 0.03845644 0.01180847 0.01636170 0.00220158 0.01376772 0.06048086 0.01611511 0.00386341 
0.01262398 0.03244201 0.00453478 0.00215814 0.02573677 0.00141559 0.01331054 0.00834612 0.03923649 0.01198183 0.01657092 0.00222944 0.01378783 0.06017032 0.01608633 0.00387990 
0.01253643 0.03213621 0.00452446 0.00214636 0.02614866 0.00142628 0.01354512 0.00839329 0.04004023 0.01215701 0.01679520 0.00225720 0.01380300 0.05985169 0.01605421 0.00389933 
0.01245927 0.03182378 0.00451250 0.00213474 0.02653103 0.00143879 0.01377477 0.00844485 0.04086543 0.01233369 0.01703333 0.00228479 0.01381345 0.05952808 0.01601922 0.00392182 
0.01239235 0.03150622 0.00449901 0.00212328 0.02688272 0.00145305 0.01399883 0.00850070 0.04170978 0.01251149 0.01728407 0.00231213 0.01381943 0.05920271 0.01598186 0.00394750 
0.01233551 0.03118499 0.00448409 0.00211204 0.02720266 0.00146901 0.01421664 0.00856068 0.04257088 0.01269002 0.01754613 0.00233913 0.01382121 0.05887888 0.01594267 0.00397649 
0.01228853 0.03086153 0.00446784 0.00210103 0.02748993 0.00148656 0.01442756 0.00862463 0.04344632 0.01286884 0.01781819 0.00236569 0.01381910 0.05855996 0.01590223 0.00400888 
0.01225119 0.03053728 0.00445036 0.00209029 0.02774371 0.00150564 0.01463096 0.00869236 0.04433361 0.01304747 0.01809894 0.00239174 0.01381342 0.05824938 0.01586115 0.00404474 
0.01222324 0.03021363 0.00443178 0.00207984 0.02796330 0.00152612 0.01482621 0.00876366 0.04523025 0.01322542 0.01838701 0.00241719 0.01380453 0.05795058 0.01582005 0.00408411 
0.01220438 0.02989193 0.00441220 0.00206969 0.02814816 0.00154792 0.01501273 0.00883830 0.04613371 0.01340216 0.01868104 0.00244196 0.01379278 0.05766700 0.01577960 0.00412704 
0.01219435 0.02957347 0.00439174 0.00205986 0.02829784 0.00157092 0.01518993 0.00891603 0.04704146 0.01357710 0.01897968 0.00246597 0.01377855 0.05740208 0.01574045 0.00417353 
0.01219281 0.02925951 0.00437053 0.00205038 0.02841207 0.00159500 0.01535728 0.00899657 0.04795096 0.01374968 0.01928156 0.00248913 0.01376224 0.05715920 0.01570331 0.00422358 
0.01219947 0.02895125 0.00434868 0.00204126 0.02849067 0.00162002 0.01551425 0.00907962 0.04885967 0.01391928 0.01958534 0.00251137 0.01374425 0.05694171 0.01566885 0.00427714 
0.01221400 0.02864981 0.00432631 0.00203251 0.02853362 0.00164587 0.01566037 0.00916486 0.04976507 0.01408527 0.01988968 0.00253260 0.01372497 0.05675283 0.01563778 0.00433416 
0.01223608 0.02835627 0.00430355 0.00202413 0.02854103 0.00167240 0.01579517 0.00925197 0.05066466 0.01424700 0.02019327 0.00255277 0.01370481 0.05659572 0.01561079 0.00439458 
0.01226537 0.02807161 0.00428051 0.00201615 0.02851314 0.00169949 0.01591823 0.00934057 0.05155600 0.01440382 0.02049484 0.00257179 0.01368416 0.05647336 0.01558856 0.00445828 
0.01230157 0.02779676 0.00425732 0.00200857 0.02845032 0.00172698 0.01602919 0.00943031 0.05243664 0.01455504 0.02079314 0.00258959 0.01366342 0.05638861 0.01557177 0.00452515 
0.01234435 0.02753259 0.00423408 0.00200139 0.02835308 0.00175473 0.01612771 0.00952077 0.05330422 0.01470001 0.02108696 0.00260612 0.01364298 0.05634415 0.01556107 0.00459504 
0.01239342 0.02727986 0.00421091 0.00199464 0.02822204 0.00178261 0.01621348 0.00961157 0.05415640 0.01483804 0.02137514 0.00262131 0.01362320 0.05634244 0.01555708 0.00466780 
0.01244848 0.02703929 0.00418793 0.00198830 0.02805794 0.00181047 0.01628626 0.00970227 0.05499093 0.01496845 0.02165657 0.00263510 0.01360443 0.05638574 0.01556039 0.00474325 
0.01250924 0.02681150 0.00416523 0.00198240 0.02786165 0.00183817 0.01634584 0.00979245 0.05580558 0.01509059 0.02193018 0.00264744 0.01358700 0.05647607 0.01557158 0.00482117 
0.01257545 0.02659705 0.00414292 0.00197693 0.02763413 0.00186556 0.01639205 0.00988165 0.05659824 0.01520378 0.02219499 0.00265827 0.01357123 0.05661519 0.01559115 0.00490136 
0.01264686 0.02639643 0.00412110 0.00197192 0.02737645 0.00189250 0.01642479 0.00996944 0.05736683 0.01530739 0.02245006 0.00266756 0.01355740 0.05680458 0.01561958 0.00498357 
0.01272324 0.02621007 0.00409987 0.00196736 0.02708980 0.00191887 0.01644399 0.01005535 0.05810938 0.01540079 0.02269451 0.00267525 0.01354578 0.05704543 0.01565728 0.00506756 
0.01280439 0.02603830 0.00407930 0.00196327 0.02677542 0.00194454 0.01644963 0.01013892 0.05882399 0.01548338 0.02292754 0.00268130 0.01353658 0.05733861 0.01570462 0.00515305 
0.01289013 0.02588142 0.00405949 0.00195965 0.02643467 0.00196937 0.01644173 0.01021970 0.05950883 0.01555457 0.02314843 0.00268570 0.01353000 0.05768471 0.01576189 0.00523976 
0.01298028 0.02573965 0.00404051 0.00195653 0.02606895 0.00199324 0.01642038 0.01029723 0.06016219 0.01561383 0.02335651 0.00268839 0.01352622 0.05808393 0.01582933 0.00532740 
0.01307471 0.02561317 0.00402243 0.00195392 0.02567976 0.00201605 0.01638569 0.01037106 0.06078242 0.01566064 0.02355121 0.00268937 0.01352536 0.05853619 0.01590711 0.00541567 
0.01317331 0.02550209 0.00400531 0.00195183 0.02526863 0.00203769 0.01633784 0.01044075 0.06136799 0.01569451 0.02373203 0.00268860 0.01352751 0.05904101 0.01599530 0.00550425 
0.01327597 0.02540650 0.00398922 0.00195029 0.02483714 0.00205805 0.01627704 0.01050586 0.06191746 0.01571503 0.02389854 0.00268608 0.01353274 0.05959760 0.01609394 0.00559282 
0.01338264 0.02532642 0.00397420 0.00194930 0.02438694 0.00207705 0.01620354 0.01056599 0.06242949 0.01572180 0.02405040 0.00268179 0.01354107 0.06020478 0.01620296 0.00568105 
0.01349325 0.02526185 0.00396030 0.00194891 0.02391967 0.00209460 0.01611765 0.01062073 0.06290284 0.01571448 0.02418734 0.00267572 0.01355249 0.06086102 0.01632221 0.00576861 
0.01360777 0.02521276 0.00394756 0.00194911 0.02343703 0.00211064 0.01601971 0.01066972 0.06333638 0.01569277 0.02430918 0.00266788 0.01356694 0.06156446 0.01645148 0.00585517 
0.01372621 0.02517909 0.00393601 0.00194996 0.02294070 0.00212509 0.01591010 0.01071259 0.06372907 0.01565645 0.02441581 0.00265826 0.01358434 0.06231287 0.01659046 0.00594040 
0.01384856 0.02516077 0.00392568 0.00195146 0.02243238 0.00213790 0.01578924 0.01074904 0.06408002 0.01560533 0.02450720 0.00264688 0.01360458 0.06310367 0.01673877 0.00602395 
0.01397485 0.02515769 0.00391659 0.00195366 0.02191377 0.00214904 0.01565758 0.01077875 0.06438840 0.01553929 0.02458340 0.00263374 0.01362750 0.06393395 0.01689594 0.00610551 
0.01410512 0.02516976 0.00390876 0.00195658 0.02138654 0.00215846 0.01551560 0.01080148 0.06465354 0.01545827 0.02464455 0.00261887 0.01365292 0.06480049 0.01706143 0.00618475 
0.01423943 0.02519688 0.00390219 0.00196025 0.02085236 0.00216615 0.01536383 0.01081701 0.06487486 0.01536227 0.02469082 0.00260229 0.01368062 0.06569975 0.01723461 0.00626134 
0.01437784 0.02523895 0.00389689 0.00196471 0.02031286 0.00217209 0.01520280 0.01082515 0.06505190 0.01525136 0.02472249 0.00258402 0.01371036 0.06662789 0.01741478 0.00633498 
0.01452041 0.02529588 0.00389286 0.00196998 0.01976963 0.00217628 0.01503307 0.01082576 0.06518433 0.01512566 0.02473990 0.00256410 0.01374186 0.06758080 0.01760118 0.00640536 
0.01466724 0.02536758 0.00389009 0.00197611 0.01922421 0.00217873 0.01485524 0.01081875 0.06527193 0.01498538 0.02474345 0.00254257 0.01377483 0.06855414 0.01779298 0.00647219 
0.01481839 0.02545400 0.00388858 0.00198313 0.01867812 0.00217946 0.01466991 0.01080407 0.06531462 0.01483076 0.02473360 0.00251945 0.01380896 0.06954330 0.01798925 0.00653520 
0.01497397 0.02555509 0.00388831 0.00199107 0.01813280 0.00217850 0.01447769 0.01078172 0.06531245 0.01466215 0.02471088 0.00249481 0.01384391 0.07054349 0.01818906 0.00659411 
0.01513403 0.02567084 0.00388927 0.00199996 0.01758962 0.00217588 0.01427923 0.01075174 0.06526556 0.01447993 0.02467586 0.00246868 0.01387933 0.07154974 0.01839137 0.00664869 
0.01529868 0.02580125 0.00389144 0.00200984 0.01704991 0.00217166 0.01407516 0.01071425 0.06517427 0.01428457 0.02462918 0.00244114 0.01391484 0.07255692 0.01859514 0.00669870 
0.01546796 0.02594637 0.00389480 0.00202074 0.01651491 0.00216589 0.01386612 0.01066938 0.06503901 0.01407658 0.02457151 0.00241222 0.01395008 0.07355979 0.01879925 0.00674392 
0.01564196 0.02610628 0.00389932 0.00203268 0.01598578 0.00215864 0.01365276 0.01061736 0.06486033 0.01385656 0.02450359 0.00238200 0.01398465 0.07455301 0.01900258 0.00678415 
0.01582071 0.02628108 0.00390500 0.00204570 0.01546362 0.00214999 0.01343574 0.01055843 0.06463894 0.01362515 0.02442617 0.00235055 0.01401818 0.07553120 0.01920396 0.00681923 
0.01600424 0.02647092 0.00391179 0.00205982 0.01494944 0.00214001 0.01321568 0.01049291 0.06437568 0.01338306 0.02434006 0.00231794 0.01405025 0.07648894 0.01940221 0.00684899 
0.01619258 0.02667597 0.00391967 0.00207506 0.01444418 0.00212880 0.01299323 0.01042117 0.06407151 0.01313107 0.02424608 0.00228423 0.01408050 0.07742083 0.01959613 0.00687331 
0.01638572 0.02689647 0.00392863 0.00209144 0.01394866 0.00211645 0.01276902 0.01034362 0.06372754 0.01286998 0.02414510 0.00224952 0.01410852 0.07832152 0.01978453 0.00689205 
0.01658363 0.02713266 0.00393864 0.00210897 0.01346367 0.00210307 0.01254364 0.01026073 0.06334503 0.01260068 0.02403801 0.00221388 0.01413393 0.07918573 0.01996622 0.00690515 
0.01678627 0.02738484 0.00394967 0.00212766 0.01298986 0.00208876 0.01231770 0.01017302 0.06292535 0.01232409 0.02392570 0.00217740 0.01415638 0.08000832 0.02014002 0.00691252 
0.01699355 0.02765333 0.00396170 0.00214752 0.01252784 0.00207364 0.01209177 0.01008104 0.06247003 0.01204118 0.02380911 0.00214017 0.01417549 0.08078427 0.02030478 0.00691412 
0.01720537 0.02793847 0.00397472 0.00216855 0.01207812 0.00205781 0.01186641 0.00998542 0.06198071 0.01175296 0.02368916 0.00210229 0.01419092 0.08150878 0.02045937 0.00690993 
0.01742159 0.02824067 0.00398871 0.00219074 0.01164112 0.00204140 0.01164215 0.00988680 0.06145918 0.01146048 0.02356679 0.00206384 0.01420235 0.08217723 0.02060272 0.00689994 
0.01764204 0.02856031 0.00400364 0.00221409 0.01121719 0.00202453 0.01141949 0.00978586 0.06090736 0.01116482 0.02344296 0.00202493 0.01420948 0.08278528 0.02073378 0.00688418 
0.01786653 0.02889784 0.00401952 0.00223857 0.01080661 0.00200732 0.01119892 0.00968333 0.06032728 0.01086710 0.02331862 0.00198566 0.01421200 0.08332888 0.02085157 0.00686269 
0.01809482 0.02925369 0.00403632 0.00226417 0.01040958 0.00198989 0.01098087 0.00957996 0.05972111 0.01056845 0.02319470 0.00194613 0.01420967 0.08380426 0.02095518 0.00683554 
0.01832663 0.02962831 0.00405403 0.00229086 0.01002623 0.00197237 0.01076577 0.00947654 0.05909111 0.01027004 0.02307216 0.00190645 0.01420225 0.08420802 0.02104375 0.00680281 
0.01856167 0.03002219 0.00407267 0.00231860 0.00965663 0.00195487 0.01055400 0.00937386 0.05843967 0.00997303 0.02295192 0.00186672 0.01418952 0.08453711 0.02111653 0.00676461 
0.01879958 0.03043576 0.00409221 0.00234734 0.00930079 0.00193752 0.01034591 0.00927276 0.05776929 0.00967860 0.02283492 0.00182706 0.01417129 0.08478890 0.02117282 0.00672107 
0.01904000 0.03086949 0.00411267 0.00237705 0.00895865 0.00192043 0.01014182 0.00917405 0.05708254 0.00938795 0.02272206 0.00178757 0.01414743 0.08496113 0.02121203 0.00667233 
0.01928250 0.03132383 0.00413404 0.00240767 0.00863012 0.00190371 0.00994200 0.00907859 0.05638210 0.00910226 0.02261424 0.00174836 0.01411779 0.08505201 0.02123367 0.00661856 
0.01952665 0.03179918 0.00415634 0.00243913 0.00831504 0.00188748 0.00974671 0.00898722 0.05567070 0.00882272 0.02251234 0.00170955 0.01408230 0.08506019 0.02123734 0.00655995 
0.01977195 0.03229596 0.00417957 0.00247137 0.00801324 0.00187184 0.00955615 0.00890077 0.05495119 0.00855048 0.02241722 0.00167125 0.01404087 0.08498477 0.02122275 0.00649668 
0.02001789 0.03281453 0.00420374 0.00250432 0.00772448 0.00185690 0.00937050 0.00882007 0.05422641 0.00828671 0.02232973 0.00163357 0.01399349 0.08482535 0.02118973 0.00642899 
0.02026392 0.03335520 0.00422886 0.00253789 0.00744852 0.00184274 0.00918989 0.00874594 0.05349931 0.00803253 0.02225066 0.00159663 0.01394015 0.08458198 0.02113819 0.00635708 
0.02050945 0.03391824 0.00425496 0.00257200 0.00718507 0.00182946 0.00901443 0.00867918 0.05277283 0.00778905 0.02218083 0.00156052 0.01388089 0.08425522 0.02106820 0.00628121 
0.02075389 0.03450389 0.00428203 0.00260655 0.00693383 0.00181714 0.00884419 0.00862054 0.05204994 0.00755733 0.02212099 0.00152538 0.01381575 0.08384612 0.02097990 0.00620163 
0.02099660 0.03511229 0.00431011 0.00264146 0.00669450 0.00180585 0.00867921 0.00857078 0.05133364 0.00733840 0.02207188 0.00149129 0.01374485 0.08335619 0.02087359 0.00611859 
0.02123691 0.03574352 0.00433921 0.00267662 0.00646676 0.00179566 0.00851949 0.00853057 0.05062689 0.00713324 0.02203423 0.00145838 0.01366829 0.08278746 0.02074965 0.00603239 
0.02147414 0.03639759 0.00436934 0.00271192 0.00625027 0.00178664 0.00836501 0.00850058 0.04993266 0.00694280 0.02200870 0.00142674 0.01358623 0.08214239 0.02060861 0.00594329 
0.02170758 0.03707442 0.00440052 0.00274725 0.00604472 0.00177882 0.00821571 0.00848142 0.04925386 0.00676795 0.02199595 0.00139647 0.01349885 0.08142393 0.02045107 0.00585159 
0.02193653 0.03777385 0.00443277 0.00278250 0.00584979 0.00177227 0.00807153 0.00847363 0.04859336 0.00660952 0.02199661 0.00136768 0.01340636 0.08063548 0.02027778 0.00575758 
0.02216025 0.03849560 0.00446609 0.00281755 0.00566517 0.00176701 0.00793235 0.00847771 0.04795397 0.00646826 0.02201127 0.00134047 0.01330898 0.07978083 0.02008958 0.00566156 
0.02237800 0.03923930 0.00450051 0.00285229 0.00549056 0.00176307 0.00779805 0.00849409 0.04733842 0.00634487 0.02204048 0.00131491 0.01320698 0.07886422 0.01988743 0.00556383 
0.02258903 0.04000449 0.00453602 0.00288659 0.00532570 0.00176048 0.00766848 0.00852314 0.04674933 0.00623998 0.02208478 0.00129110 0.01310063 0.07789024 0.01967235 0.00546470 
0.02279260 0.04079056 0.00457264 0.00292034 0.00517032 0.00175923 0.00754350 0.00856515 0.04618921 0.00615411 0.02214465 0.00126913 0.01299024 0.07686387 0.01944550 0.00536447 
0.02298795 0.04159681 0.00461037 0.00295341 0.00502419 0.00175934 0.00742291 0.00862034 0.04566046 0.00608775 0.02222055 0.00124907 0.01287613 0.07579037 0.01920809 0.00526345 
0.02317435 0.04242241 0.00464920 0.00298568 0.00488710 0.00176080 0.00730652 0.00868886 0.04516532 0.00604127 0.02231290 0.00123099 0.01275864 0.07467534 0.01896144 0.00516195 
0.02335106 0.04326641 0.00468912 0.00301704 0.00475888 0.00176360 0.00719415 0.00877077 0.04470588 0.00601497 0.02242209 0.00121495 0.01263813 0.07352462 0.01870692 0.00506026 
0.02351737 0.04412773 0.00473013 0.00304735 0.00463937 0.00176772 0.00708559 0.00886606 0.04428408 0.00600907 0.02254846 0.00120103 0.01251497 0.07234427 0.01844596 0.00495869 
0.02367257 0.04500517 0.00477220 0.00307652 0.00452846 0.00177312 0.00698063 0.00897463 0.04390166 0.00602368 0.02269231 0.00118926 0.01238956 0.07114055 0.01818007 0.00485753 
0.02381599 0.04589740 0.00481532 0.00310442 0.00442605 0.00177978 0.00687905 0.00909630 0.04356016 0.00605885 0.02285392 0.00117971 0.01226229 0.06991987 0.01791078 0.00475707 
0.02394699 0.04680296 0.00485944 0.00313096 0.00433210 0.00178765 0.00678066 0.00923080 0.04326093 0.00611451 0.02303350 0.00117240 0.01213357 0.06868875 0.01763968 0.00465761 
0.02406494 0.04772026 0.00490453 0.00315602 0.00424657 0.00179669 0.00668524 0.00937779 0.04300510 0.00619050 0.02323124 0.00116738 0.01200381 0.06745377 0.01736836 0.00455941 
0.02416926 0.04864759 0.00495054 0.00317950 0.00416947 0.00180684 0.00659261 0.00953683 0.04279358 0.00628659 0.02344727 0.00116465 0.01187345 0.06622153 0.01709846 0.00446276 
0.02425941 0.04958313 0.00499742 0.00320132 0.00410083 0.00181805 0.00650256 0.00970742 0.04262705 0.00640244 0.02368168 0.00116425 0.01174292 0.06499866 0.01683159 0.00436792 
0.02433490 0.05052492 0.00504511 0.00322140 0.00404072 0.00183025 0.00641494 0.00988897 0.04250594 0.00653761 0.02393450 0.00116617 0.01161264 0.06379168 0.01656938 0.00427514 
0.02439526 0.05147092 0.00509353 0.00323964 0.00398922 0.00184338 0.00632956 0.01008082 0.04243045 0.00669158 0.02420574 0.00117041 0.01148305 0.06260704 0.01631343 0.00418468 
0.02444010 0.05241894 0.00514261 0.00325599 0.00394645 0.00185736 0.00624629 0.01028221 0.04240054 0.00686374 0.02449532 0.00117697 0.01135459 0.06145106 0.01606534 0.00409677 
0.02446908 0.05336673 0.00519227 0.00327038 0.00391254 0.00187213 0.00616501 0.01049235 0.04241589 0.00705339 0.02480312 0.00118583 0.01122769 0.06032987 0.01582665 0.00401165 
0.02448191 0.05431192 0.00524240 0.00328276 0.00388764 0.00188760 0.00608558 0.01071037 0.04247597 0.00725975 0.02512898 0.00119695 0.01110277 0.05924940 0.01559887 0.00392953 
0.02447838 0.05525205 0.00529290 0.00329308 0.00387191 0.00190369 0.00600794 0.01093531 0.04257998 0.00748195 0.02547267 0.00121031 0.01098027 0.05821530 0.01538343 0.00385062 
0.02445830 0.05618462 0.00534366 0.00330131 0.00386553 0.00192033 0.00593201 0.01116620 0.04272687 0.00771903 0.02583390 0.00122585 0.01086060 0.05723296 0.01518173 0.00377513 
0.02442161 0.05710701 0.00539455 0.00330742 0.00386870 0.00193744 0.00585775 0.01140200 0.04291536 0.00796999 0.02621230 0.00124351 0.01074416 0.05630743 0.01499507 0.00370324 
0.02436827 0.05801659 0.00544546 0.00331141 0.00388158 0.00195493 0.00578513 0.01164160 0.04314394 0.00823372 0.02660748 0.00126325 0.01063137 0.05544342 0.01482468 0.00363513 
0.02429833 0.05891066 0.00549624 0.00331327 0.00390439 0.00197272 0.00571417 0.01188390 0.04341086 0.00850906 0.02701895 0.00128497 0.01052261 0.05464527 0.01467169 0.00357096 
0.02421191 0.05978647 0.00554674 0.00331300 0.00393730 0.00199073 0.00564488 0.01212773 0.04371416 0.00879479 0.02744617 0.00130861 0.01041825 0.05391687 0.01453714 0.00351089 
0.02410921 0.06064129 0.00559681 0.00331061 0.00398048 0.00200888 0.00557733 0.01237191 0.04405166 0.00908964 0.02788853 0.00133407 0.01031867 0.05326173 0.01442195 0.00345506 
0.02399049 0.06147233 0.00564630 0.00330615 0.00403411 0.00202709 0.00551159 0.01261524 0.04442101 0.00939227 0.02834534 0.00136125 0.01022420 0.05268288 0.01432695 0.00340361 
0.02385609 0.06227684 0.00569504 0.00329963 0.00409834 0.00204528 0.00544776 0.01285652 0.04481964 0.00970132 0.02881587 0.00139004 0.01013520 0.05218289 0.01425283 0.00335664 
0.02370643 0.06305207 0.00574285 0.00329112 0.00417329 0.00206338 0.00538596 0.01309452 0.04524485 0.01001536 0.02929930 0.00142034 0.01005196 0.05176384 0.01420016 0.00331427 
0.02354199 0.06379530 0.00578956 0.00328066 0.00425906 0.00208131 0.00532635 0.01332804 0.04569377 0.01033295 0.02979474 0.00145201 0.00997480 0.05142733 0.01416939 0.00327658 
0.02336334 0.06450384 0.00583499 0.00326833 0.00435574 0.00209900 0.00526908 0.01355589 0.04616340 0.01065263 0.03030123 0.00148494 0.00990399 0.05117445 0.01416085 0.00324366 
0.02317110 0.06517509 0.00587894 0.00325419 0.00446337 0.00211638 0.00521435 0.01377688 0.04665063 0.01097291 0.03081777 0.00151899 0.00983978 0.05100580 0.01417470 0.00321557 
0.02296597 0.06580647 0.00592123 0.00323834 0.00458196 0.00213339 0.00516236 0.01398986 0.04715224 0.01129230 0.03134326 0.00155401 0.00978243 0.05092145 0.01421100 0.00319238 
0.02274871 0.06639553 0.00596167 0.00322086 0.00471148 0.00214996 0.00511333 0.01419373 0.04766496 0.01160928 0.03187654 0.00158986 0.00973215 0.05092099 0.01426967 0.00317411 
0.02252014 0.06693990 0.00600005 0.00320186 0.00485187 0.00216604 0.00506749 0.01438739 0.04818546 0.01192236 0.03241641 0.00162639 0.00968913 0.05100352 0.01435047 0.00316081 
0.02228115 0.06743731 0.00603617 0.00318143 0.00500300 0.00218157 0.00502508 0.01456983 0.04871035 0.01223007 0.03296159 0.00166345 0.00965355 0.05116762 0.01445305 0.00315247 
0.02203267 0.06788563 0.00606985 0.00315969 0.00516472 0.00219650 0.00498637 0.01474007 0.04923627 0.01253093 0.03351073 0.00170088 0.00962554 0.05141145 0.01457691 0.00314911 
0.02177568 0.06828284 0.00610088 0.00313677 0.00533683 0.00221078 0.00495161 0.01489721 0.04975986 0.01282350 0.03406246 0.00173852 0.00960524 0.05173266 0.01472144 0.00315070 
0.02151122 0.06862711 0.00612906 0.00311278 0.00551907 0.00222437 0.00492106 0.01504040 0.05027777 0.01310639 0.03461532 0.00177620 0.00959274 0.05212852 0.01488588 0.00315723 
0.02124035 0.06891674 0.00615420 0.00308785 0.00571113 0.00223722 0.00489499 0.01516888 0.05078674 0.01337822 0.03516783 0.00181377 0.00958812 0.05259583 0.01506938 0.00316866 
0.02096418 0.06915021 0.00617610 0.00306211 0.00591266 0.00224930 0.00487367 0.01528194 0.05128357 0.01363768 0.03571846 0.00185106 0.00959141 0.05313106 0.01527093 0.00318492 
0.02068384 0.06932616 0.00619457 0.00303569 0.00612325 0.00226058 0.00485736 0.01537899 0.05176516 0.01388351 0.03626564 0.00188791 0.00960263 0.05373027 0.01548945 0.00320595 
0.02040047 0.06944347 0.00620944 0.00300873 0.00634245 0.00227102 0.00484630 0.01545951 0.05222855 0.01411451 0.03680777 0.00192416 0.00962178 0.05438921 0.01572373 0.00323167 
0.02011526 0.06950116 0.00622051 0.00298137 0.00656973 0.00228061 0.00484075 0.01552306 0.05267090 0.01432955 0.03734322 0.00195964 0.00964883 0.05510334 0.01597248 0.00326199 
0.01982938 0.06949851 0.00622762 0.00295373 0.00680454 0.00228931 0.00484092 0.01556931 0.05308953 0.01452759 0.03787035 0.00199421 0.00968369 0.05586786 0.01623432 0.00329678 
0.01954401 0.06943499 0.00623059 0.00292594 0.00704629 0.00229711 0.00484703 0.01559803 0.05348196 0.01470764 0.03838749 0.00202771 0.00972629 0.05667771 0.01650778 0.00333594 
0.01926032 0.06931028 0.00622928 0.00289816 0.00729430 0.00230399 0.00485928 0.01560907 0.05384587 0.01486882 0.03889299 0.00206000 0.00977651 0.05752769 0.01679133 0.00337932 
0.01897949 0.06912430 0.00622353 0.00287049 0.00754789 0.00230994 0.00487784 0.01560239 0.05417919 0.01501033 0.03938518 0.00209093 0.00983420 0.05841240 0.01708337 0.00342677 
0.01870266 0.06887721 0.00621321 0.00284307 0.00780632 0.00231495 0.00490286 0.01557806 0.05448005 0.01513148 0.03986240 0.00212037 0.00989917 0.05932637 0.01738228 0.00347813 
0.01843096 0.06856938 0.00619818 0.00281602 0.00806880 0.00231901 0.00493446 0.01553624 0.05474683 0.01523165 0.04032302 0.00214820 0.00997124 0.06026404 0.01768636 0.00353323 
0.01816547 0.06820143 0.00617833 0.00278945 0.00833453 0.00232211 0.00497275 0.01547718 0.05497813 0.01531036 0.04076543 0.00217430 0.01005018 0.06121980 0.01799392 0.00359188 
0.01790725 0.06777421 0.00615356 0.00276347 0.00860266 0.00232426 0.00501778 0.01540126 0.05517285 0.01536722 0.04118803 0.00219855 0.01013571 0.06218809 0.01830322 0.00365387 
0.01765732 0.06728879 0.00612378 0.00273820 0.00887232 0.00232545 0.00506960 0.01530892 0.05533012 0.01540194 0.04158930 0.00222086 0.01022757 0.06316338 0.01861255 0.00371900 
0.01741664 0.06674649 0.00608892 0.00271372 0.00914262 0.00232569 0.00512820 0.01520071 0.05544936 0.01541435 0.04196774 0.00224115 0.01032545 0.06414021 0.01892016 0.00378704 
0.01718611 0.06614886 0.00604891 0.00269013 0.00941263 0.00232498 0.00519355 0.01507729 0.05553024 0.01540440 0.04232193 0.00225932 0.01042902 0.06511328 0.01922437 0.00385777 
0.01696658 0.06549767 0.00600372 0.00266751 0.00968144 0.00232332 0.00526558 0.01493938 0.05557272 0.01537214 0.04265049 0.00227532 0.01053791 0.06607744 0.01952348 0.00393094 
0.01675883 0.06479490 0.00595333 0.00264593 0.00994809 0.00232073 0.00534418 0.01478779 0.05557703 0.01531774 0.04295213 0.00228910 0.01065175 0.06702773 0.01981586 0.00400631 
0.01656356 0.06404276 0.00589772 0.00262545 0.01021165 0.00231722 0.00542921 0.01462341 0.05554366 0.01524148 0.04322565 0.00230060 0.01077014 0.06795944 0.02009992 0.00408362 
0.01638141 0.06324366 0.00583690 0.00260614 0.01047117 0.00231279 0.00552050 0.01444721 0.05547338 0.01514375 0.04346992 0.00230982 0.01089266 0.06886813 0.02037412 0.00416260 
0.01621294 0.06240020 0.00577092 0.00258804 0.01072572 0.00230747 0.00561781 0.01426023 0.05536721 0.01502506 0.04368392 0.00231672 0.01101887 0.06974964 0.02063701 0.00424299 
0.01605863 0.06151519 0.00569981 0.00257119 0.01097435 0.00230127 0.00572091 0.01406355 0.05522641 0.01488602 0.04386672 0.00232131 0.01114830 0.07060015 0.02088721 0.00432451 
0.01591885 0.06059160 0.00562366 0.00255561 0.01121616 0.00229421 0.00582949 0.01385832 0.05505249 0.01472735 0.04401753 0.00232361 0.01128047 0.07141617 0.02112342 0.00440689 
0.01579391 0.05963258 0.00554255 0.00254132 0.01145025 0.00228631 0.00594323 0.01364573 0.05484719 0.01454986 0.04413565 0.00232364 0.01141491 0.07219460 0.02134445 0.00448985 
0.01568404 0.05864142 0.00545660 0.00252834 0.01167575 0.00227759 0.00606176 0.01342703 0.05461244 0.01435446 0.04422052 0.00232145 0.01155110 0.07293272 0.02154919 0.00457311 
0.01558936 0.05762157 0.00536595 0.00251666 0.01189182 0.00226808 0.00618470 0.01320349 0.05435038 0.01414218 0.04427169 0.00231708 0.01168853 0.07362821 0.02173667 0.00465638 
0.01550990 0.05657659 0.00527075 0.00250628 0.01209765 0.00225780 0.00631161 0.01297639 0.05406334 0.01391409 0.04428887 0.00231061 0.01182667 0.07427917 0.02190602 0.00473940 
0.01544562 0.05551017 0.00517119 0.00249717 0.01229247 0.00224678 0.00644204 0.01274705 0.05375380 0.01367139 0.04427189 0.00230212 0.01196499 0.07488414 0.02205648 0.00482189 
0.01539637 0.05442609 0.00506747 0.00248932 0.01247555 0.00223505 0.00657551 0.01251678 0.05342439 0.01341533 0.04422073 0.00229171 0.01210295 0.07544208 0.02218745 0.00490357 
0.01536194 0.05332824 0.00495982 0.00248269 0.01264622 0.00222265 0.00671150 0.01228693 0.05307784 0.01314722 0.04413551 0.00227949 0.01224001 0.07595237 0.02229843 0.00498418 
0.01534202 0.05222053 0.00484849 0.00247724 0.01280383 0.00220961 0.00684949 0.01205879 0.05271700 0.01286846 0.04401650 0.00226558 0.01237563 0.07641484 0.02238906 0.00506347 
0.01533622 0.05110697 0.00473374 0.00247292 0.01294782 0.00219596 0.00698893 0.01183368 0.05234481 0.01258048 0.04386413 0.00225011 0.01250925 0.07682974 0.02245911 0.00514117 
0.01534406 0.04999158 0.00461587 0.00246969 0.01307765 0.00218176 0.00712925 0.01161287 0.05196425 0.01228478 0.04367897 0.00223322 0.01264036 0.07719774 0.02250849 0.00521707 
0.01536501 0.04887841 0.00449520 0.00246748 0.01319286 0.00216704 0.00726987 0.01139762 0.05157833 0.01198289 0.04346173 0.00221508 0.01276840 0.07751991 0.02253724 0.00529091 
