0.03306983 0.04278547 0.01221425 0.00404045 0.00052443 0.00236153 0.00567309 0.00229878 0.02516020 0.00148803 0.00087866 0.03516311 0.00511274 0.00420958 0.00527848 0.00131226 
0.03147907 0.04206751 0.01212528 0.00399819 0.00052671 0.00236097 0.00571338 0.00228995 0.02556785 0.00146458 0.00086689 0.03449138 0.00523780 0.00421816 0.00529471 0.00131196 
0.02992063 0.04131404 0.01201950 0.00395309 0.00052957 0.00235839 0.00574932 0.00228350 0.02597736 0.00144114 0.00085610 0.03378522 0.00535986 0.00422444 0.00530645 0.00131169 
0.02840407 0.04052812 0.01189749 0.00390518 0.00053302 0.00235379 0.00578087 0.00227923 0.02638665 0.00141783 0.00084645 0.03304940 0.00547842 0.00422838 0.00531357 0.00131145 
0.02693887 0.03971289 0.01175988 0.00385448 0.00053706 0.00234717 0.00580800 0.00227691 0.02679361 0.00139478 0.00083808 0.03228885 0.00559299 0.00422991 0.00531592 0.00131126 
0.02553445 0.03887166 0.01160737 0.00380102 0.00054172 0.00233854 0.00583073 0.00227635 0.02719610 0.00137210 0.00083114 0.03150866 0.00570309 0.00422901 0.00531339 0.00131112 
0.02420007 0.03800780 0.01144075 0.00374488 0.00054700 0.00232791 0.00584909 0.00227735 0.02759201 0.00134994 0.00082575 0.03071405 0.00580824 0.00422564 0.00530588 0.00131102 
0.02294479 0.03712478 0.01126084 0.00368609 0.00055292 0.00231530 0.00586315 0.00227973 0.02797922 0.00132840 0.00082203 0.02991035 0.00590800 0.00421977 0.00529328 0.00131099 
0.02177744 0.03622612 0.01106854 0.00362474 0.00055947 0.00230076 0.00587299 0.00228329 0.02835567 0.00130762 0.00082009 0.02910294 0.00600192 0.00421138 0.00527552 0.00131101 
0.02070658 0.03531543 0.01086478 0.00356091 0.00056666 0.00228431 0.00587873 0.00228786 0.02871931 0.00128770 0.00082002 0.02829726 0.00608960 0.00420045 0.00525253 0.00131110 
0.01974041 0.03439630 0.01065054 0.00349469 0.00057450 0.00226602 0.00588052 0.00229329 0.02906816 0.00126878 0.00082192 0.02749873 0.00617064 0.00418699 0.00522429 0.00131125 
0.01888678 0.03347237 0.01042685 0.00342621 0.00058298 0.00224594 0.00587852 0.00229940 0.02940027 0.00125096 0.00082585 0.02671274 0.00624468 0.00417099 0.00519075 0.00131147 
0.01815308 0.03254726 0.01019476 0.00335556 0.00059211 0.00222413 0.00587291 0.00230607 0.02971381 0.00123435 0.00083188 0.02594463 0.00631138 0.00415247 0.00515193 0.00131175 
0.01754629 0.03162457 0.00995537 0.00328290 0.00060188 0.00220067 0.00586393 0.00231316 0.03000700 0.00121905 0.00084004 0.02519964 0.00637043 0.00413146 0.00510782 0.00131210 
0.01707283 0.03070785 0.00970977 0.00320836 0.00061228 0.00217565 0.00585180 0.00232055 0.03027815 0.00120516 0.00085037 0.02448289 0.00642157 0.00410797 0.00505849 0.00131252 
0.01673863 0.02980061 0.00945911 0.00313210 0.00062331 0.00214914 0.00583678 0.00232814 0.03052570 0.00119276 0.00086288 0.02379933 0.00646457 0.00408207 0.00500397 0.00131300 
0.01654902 0.02890626 0.00920450 0.00305429 0.00063496 0.00212125 0.00581916 0.00233582 0.03074818 0.00118195 0.00087759 0.02315374 0.00649921 0.00405378 0.00494436 0.00131353 
0.01650870 0.02802813 0.00894709 0.00297510 0.00064721 0.00209208 0.00579922 0.00234352 0.03094424 0.00117281 0.00089447 0.02255067 0.00652536 0.00402319 0.00487977 0.00131412 
0.01662178 0.02716944 0.00868802 0.00289473 0.00066006 0.00206173 0.00577729 0.00235118 0.03111267 0.00116539 0.00091350 0.02199443 0.00654289 0.00399036 0.00481032 0.00131477 
0.01689165 0.02633326 0.00842841 0.00281338 0.00067348 0.00203032 0.00575370 0.00235873 0.03125238 0.00115976 0.00093465 0.02148906 0.00655172 0.00395538 0.00473617 0.00131546 
0.01732105 0.02552255 0.00816940 0.00273124 0.00068746 0.00199796 0.00572878 0.00236613 0.03136242 0.00115598 0.00095786 0.02103831 0.00655185 0.00391834 0.00465750 0.00131620 
0.01791197 0.02474007 0.00791207 0.00264855 0.00070198 0.00196479 0.00570289 0.00237335 0.03144199 0.00115409 0.00098307 0.02064560 0.00654328 0.00387935 0.00457452 0.00131697 
0.01866571 0.02398845 0.00765750 0.00256551 0.00071702 0.00193094 0.00567640 0.00238037 0.03149044 0.00115412 0.00101019 0.02031403 0.00652608 0.00383852 0.00448745 0.00131777 
0.01958279 0.02327010 0.00740673 0.00248237 0.00073256 0.00189652 0.00564968 0.00238717 0.03150726 0.00115610 0.00103914 0.02004632 0.00650039 0.00379598 0.00439656 0.00131860 
0.02066300 0.02258725 0.00716078 0.00239936 0.00074857 0.00186169 0.00562312 0.00239377 0.03149212 0.00116004 0.00106980 0.01984482 0.00646635 0.00375188 0.00430212 0.00131944 
0.02190535 0.02194191 0.00692062 0.00231673 0.00076504 0.00182657 0.00559708 0.00240017 0.03144480 0.00116596 0.00110208 0.01971152 0.00642420 0.00370636 0.00420443 0.00132030 
0.02330811 0.02133588 0.00668717 0.00223471 0.00078192 0.00179132 0.00557196 0.00240640 0.03136529 0.00117384 0.00113584 0.01964796 0.00637419 0.00365957 0.00410383 0.00132115 
0.02486875 0.02077073 0.00646132 0.00215355 0.00079920 0.00175607 0.00554815 0.00241247 0.03125370 0.00118368 0.00117094 0.01965531 0.00631666 0.00361170 0.00400067 0.00132200 
0.02658403 0.02024779 0.00624389 0.00207352 0.00081685 0.00172097 0.00552602 0.00241842 0.03111031 0.00119546 0.00120725 0.01973430 0.00625197 0.00356291 0.00389533 0.00132283 
0.02844992 0.01976817 0.00603566 0.00199484 0.00083483 0.00168617 0.00550595 0.00242431 0.03093554 0.00120913 0.00124462 0.01988525 0.00618055 0.00351340 0.00378820 0.00132365 
0.03046168 0.01933271 0.00583734 0.00191778 0.00085313 0.00165180 0.00548832 0.00243016 0.03072999 0.00122467 0.00128288 0.02010804 0.00610286 0.00346337 0.00367969 0.00132443 
0.03261386 0.01894202 0.00564959 0.00184259 0.00087169 0.00161802 0.00547348 0.00243605 0.03049437 0.00124201 0.00132187 0.02040216 0.00601941 0.00341302 0.00357026 0.00132518 
0.03490029 0.01859647 0.00547300 0.00176950 0.00089050 0.00158496 0.00546179 0.00244202 0.03022956 0.00126109 0.00136142 0.02076663 0.00593078 0.00336256 0.00346035 0.00132589 
0.03731414 0.01829616 0.00530811 0.00169875 0.00090952 0.00155278 0.00545359 0.00244813 0.02993657 0.00128186 0.00140135 0.02120011 0.00583757 0.00331221 0.00335044 0.00132655 
0.03984794 0.01804097 0.00515538 0.00163059 0.00092872 0.00152161 0.00544920 0.00245444 0.02961655 0.00130422 0.00144150 0.02170081 0.00574044 0.00326221 0.00324103 0.00132715 
0.04249363 0.01783052 0.00501520 0.00156523 0.00094806 0.00149158 0.00544893 0.00246102 0.02927077 0.00132809 0.00148168 0.02226657 0.00564006 0.00321278 0.00313261 0.00132769 
0.04524253 0.01766421 0.00488790 0.00150289 0.00096751 0.00146283 0.00545307 0.00246794 0.02890062 0.00135337 0.00152171 0.02289485 0.00553717 0.00316416 0.00302570 0.00132816 
0.04808549 0.01754120 0.00477375 0.00144379 0.00098703 0.00143549 0.00546189 0.00247525 0.02850760 0.00137997 0.00156141 0.02358274 0.00543254 0.00311659 0.00292083 0.00132856 
0.05101281 0.01746043 0.00467294 0.00138813 0.00100660 0.00140969 0.00547565 0.00248301 0.02809332 0.00140776 0.00160061 0.02432699 0.00532694 0.00307031 0.00281854 0.00132888 
0.05401439 0.01742062 0.00458560 0.00133608 0.00102616 0.00138555 0.00549456 0.00249129 0.02765948 0.00143664 0.00163912 0.02512400 0.00522121 0.00302557 0.00271936 0.00132912 
0.05707973 0.01742030 0.00451180 0.00128783 0.00104570 0.00136318 0.00551883 0.00250015 0.02720789 0.00146648 0.00167678 0.02596989 0.00511617 0.00298262 0.00262384 0.00132929 
0.06019795 0.01745781 0.00445154 0.00124353 0.00106517 0.00134268 0.00554864 0.00250963 0.02674040 0.00149715 0.00171341 0.02686051 0.00501270 0.00294169 0.00253252 0.00132936 
0.06335793 0.01753129 0.00440474 0.00120334 0.00108454 0.00132417 0.00558413 0.00251980 0.02625897 0.00152852 0.00174886 0.02779141 0.00491167 0.00290303 0.00244596 0.00132935 
0.06654830 0.01763874 0.00437130 0.00116739 0.00110377 0.00130774 0.00562543 0.00253069 0.02576559 0.00156044 0.00178296 0.02875797 0.00481397 0.00286689 0.00236468 0.00132925 
0.06975749 0.01777801 0.00435103 0.00113579 0.00112283 0.00129347 0.00567263 0.00254235 0.02526232 0.00159278 0.00181556 0.02975532 0.00472047 0.00283349 0.00228923 0.00132907 
0.07297386 0.01794680 0.00434369 0.00110863 0.00114169 0.00128145 0.00572580 0.00255483 0.02475124 0.00162539 0.00184654 0.03077844 0.00463208 0.00280307 0.00222013 0.00132880 
0.07618567 0.01814270 0.00434900 0.00108601 0.00116030 0.00127174 0.00578497 0.00256814 0.02423447 0.00165812 0.00187574 0.03182219 0.00454968 0.00277586 0.00215790 0.00132845 
0.07938121 0.01836320 0.00436662 0.00106798 0.00117865 0.00126442 0.00585015 0.00258233 0.02371416 0.00169081 0.00190305 0.03288128 0.00447414 0.00275207 0.00210302 0.00132802 
0.08254884 0.01860571 0.00439616 0.00105460 0.00119668 0.00125954 0.00592132 0.00259741 0.02319245 0.00172333 0.00192835 0.03395039 0.00440632 0.00273190 0.00205599 0.00132751 
0.08567704 0.01886758 0.00443720 0.00104588 0.00121438 0.00125713 0.00599841 0.00261340 0.02267150 0.00175552 0.00195154 0.03502411 0.00434707 0.00271556 0.00201726 0.00132694 
0.08875448 0.01914610 0.00448926 0.00104183 0.00123170 0.00125724 0.00608136 0.00263032 0.02215345 0.00178722 0.00197253 0.03609704 0.00429718 0.00270324 0.00198727 0.00132629 
0.09177010 0.01943855 0.00455186 0.00104245 0.00124862 0.00125990 0.00617003 0.00264816 0.02164043 0.00181830 0.00199124 0.03716379 0.00425744 0.00269510 0.00196644 0.00132559 
0.09471312 0.01974218 0.00462446 0.00104770 0.00126511 0.00126511 0.00626429 0.00266694 0.02113451 0.00184858 0.00200760 0.03821904 0.00422859 0.00269131 0.00195513 0.00132483 
0.09757318 0.02005426 0.00470650 0.00105754 0.00128112 0.00127290 0.00636397 0.00268665 0.02063777 0.00187794 0.00202156 0.03925752 0.00421133 0.00269200 0.00195371 0.00132402 
0.10034029 0.02037209 0.00479739 0.00107188 0.00129665 0.00128324 0.00646887 0.00270728 0.02015222 0.00190624 0.00203307 0.04027408 0.00420631 0.00269731 0.00196248 0.00132318 
0.10300501 0.02069301 0.00489654 0.00109066 0.00131165 0.00129613 0.00657875 0.00272883 0.01967980 0.00193332 0.00204211 0.04126371 0.00421413 0.00270735 0.00198174 0.00132230 
0.10555838 0.02101443 0.00500333 0.00111376 0.00132610 0.00131154 0.00669337 0.00275127 0.01922242 0.00195906 0.00204866 0.04222158 0.00423534 0.00272222 0.00201171 0.00132141 
0.10799206 0.02133381 0.00511712 0.00114105 0.00133997 0.00132944 0.00681244 0.00277458 0.01878190 0.00198332 0.00205271 0.04314303 0.00427041 0.00274197 0.00205261 0.00132050 
0.11029834 0.02164875 0.00523729 0.00117241 0.00135325 0.00134978 0.00693566 0.00279875 0.01835999 0.00200599 0.00205428 0.04402363 0.00431975 0.00276667 0.00210458 0.00131959 
0.11247020 0.02195691 0.00536319 0.00120767 0.00136589 0.00137250 0.00706271 0.00282375 0.01795835 0.00202695 0.00205340 0.04485920 0.00438372 0.00279634 0.00216773 0.00131869 
0.11450132 0.02225611 0.00549418 0.00124665 0.00137788 0.00139754 0.00719324 0.00284955 0.01757856 0.00204609 0.00205009 0.04564581 0.00446259 0.00283100 0.00224213 0.00131780 
0.11638615 0.02254430 0.00562962 0.00128918 0.00138921 0.00142483 0.00732688 0.00287613 0.01722210 0.00206331 0.00204440 0.04637981 0.00455654 0.00287063 0.00232780 0.00131694 
0.11811992 0.02281956 0.00576890 0.00133505 0.00139984 0.00145426 0.00746324 0.00290345 0.01689034 0.00207851 0.00203640 0.04705787 0.00466570 0.00291520 0.00242469 0.00131612 
0.11969870 0.02308015 0.00591138 0.00138404 0.00140975 0.00148576 0.00760192 0.00293148 0.01658456 0.00209161 0.00202616 0.04767695 0.00479010 0.00296464 0.00253273 0.00131534 
0.12111938 0.02332449 0.00605646 0.00143593 0.00141894 0.00151920 0.00774252 0.00296020 0.01630593 0.00210254 0.00201376 0.04823438 0.00492969 0.00301887 0.00265177 0.00131462 
0.12237970 0.02355117 0.00620356 0.00149049 0.00142739 0.00155448 0.00788459 0.00298957 0.01605550 0.00211122 0.00199929 0.04872779 0.00508434 0.00307778 0.00278161 0.00131397 
0.12347831 0.02375898 0.00635210 0.00154745 0.00143507 0.00159148 0.00802770 0.00301957 0.01583420 0.00211761 0.00198287 0.04915518 0.00525384 0.00314125 0.00292202 0.00131339 
0.12441472 0.02394689 0.00650154 0.00160658 0.00144198 0.00163005 0.00817139 0.00305017 0.01564287 0.00212165 0.00196460 0.04951492 0.00543787 0.00320911 0.00307270 0.00131290 
0.12518932 0.02411407 0.00665135 0.00166761 0.00144811 0.00167006 0.00831521 0.00308134 0.01548219 0.00212332 0.00194460 0.04980571 0.00563605 0.00328118 0.00323329 0.00131249 
0.12580340 0.02425986 0.00680103 0.00173026 0.00145344 0.00171136 0.00845871 0.00311306 0.01535275 0.00212258 0.00192301 0.05002665 0.00584791 0.00335726 0.00340339 0.00131219 
0.12625912 0.02438385 0.00695012 0.00179428 0.00145797 0.00175380 0.00860140 0.00314531 0.01525500 0.00211943 0.00189996 0.05017719 0.00607288 0.00343712 0.00358254 0.00131199 
0.12655951 0.02448577 0.00709816 0.00185937 0.00146170 0.00179721 0.00874284 0.00317807 0.01518928 0.00211386 0.00187560 0.05025713 0.00631033 0.00352051 0.00377023 0.00131190 
0.12670843 0.02456559 0.00724476 0.00192528 0.00146462 0.00184142 0.00888254 0.00321133 0.01515580 0.00210589 0.00185007 0.05026664 0.00655955 0.00360716 0.00396592 0.00131193 
0.12671059 0.02462345 0.00738952 0.00199171 0.00146672 0.00188627 0.00902006 0.00324508 0.01515466 0.00209553 0.00182353 0.05020626 0.00681973 0.00369678 0.00416899 0.00131209 
0.12657149 0.02465968 0.00753210 0.00205840 0.00146800 0.00193157 0.00915492 0.00327930 0.01518582 0.00208281 0.00179613 0.05007684 0.00709001 0.00378904 0.00437880 0.00131237 
0.12629739 0.02467481 0.00767218 0.00212508 0.00146848 0.00197715 0.00928669 0.00331400 0.01524914 0.00206778 0.00176804 0.04987959 0.00736946 0.00388363 0.00459465 0.00131277 
0.12589527 0.02466952 0.00780948 0.00219147 0.00146815 0.00202282 0.00941490 0.00334918 0.01534434 0.00205049 0.00173942 0.04961602 0.00765706 0.00398018 0.00481581 0.00131331 
0.12537283 0.02464469 0.00794375 0.00225732 0.00146701 0.00206839 0.00953914 0.00338484 0.01547107 0.00203101 0.00171042 0.04928797 0.00795177 0.00407833 0.00504150 0.00131398 
0.12473836 0.02460133 0.00807476 0.00232237 0.00146508 0.00211367 0.00965899 0.00342099 0.01562881 0.00200942 0.00168121 0.04889756 0.00825247 0.00417770 0.00527093 0.00131478 
0.12400078 0.02454062 0.00820233 0.00238637 0.00146236 0.00215848 0.00977402 0.00345764 0.01581697 0.00198579 0.00165196 0.04844719 0.00855798 0.00427790 0.00550325 0.00131571 
0.12316952 0.02446387 0.00832629 0.00244909 0.00145886 0.00220263 0.00988386 0.00349481 0.01603485 0.00196022 0.00162281 0.04793952 0.00886711 0.00437852 0.00573760 0.00131677 
0.12225451 0.02437253 0.00844653 0.00251031 0.00145461 0.00224592 0.00998812 0.00353252 0.01628164 0.00193283 0.00159392 0.04737743 0.00917862 0.00447915 0.00597309 0.00131795 
0.12126608 0.02426815 0.00856293 0.00256981 0.00144960 0.00228818 0.01008646 0.00357078 0.01655643 0.00190372 0.00156545 0.04676405 0.00949122 0.00457936 0.00620881 0.00131926 
0.12021492 0.02415239 0.00867543 0.00262739 0.00144386 0.00232921 0.01017852 0.00360963 0.01685823 0.00187301 0.00153754 0.04610269 0.00980362 0.00467873 0.00644385 0.00132068 
0.11911200 0.02402700 0.00878397 0.00268286 0.00143740 0.00236884 0.01026400 0.00364909 0.01718596 0.00184085 0.00151033 0.04539684 0.01011451 0.00477682 0.00667727 0.00132221 
0.11796851 0.02389381 0.00888853 0.00273606 0.00143026 0.00240690 0.01034260 0.00368919 0.01753844 0.00180737 0.00148396 0.04465016 0.01042257 0.00487322 0.00690814 0.00132384 
0.11679579 0.02375469 0.00898911 0.00278682 0.00142243 0.00244320 0.01041405 0.00372996 0.01791443 0.00177271 0.00145855 0.04386641 0.01072648 0.00496748 0.00713552 0.00132556 
0.11560527 0.02361159 0.00908572 0.00283502 0.00141396 0.00247759 0.01047810 0.00377143 0.01831260 0.00173702 0.00143423 0.04304948 0.01102491 0.00505919 0.00735847 0.00132737 
0.11440837 0.02346646 0.00917839 0.00288052 0.00140486 0.00250991 0.01053453 0.00381364 0.01873157 0.00170047 0.00141111 0.04220338 0.01131657 0.00514793 0.00757608 0.00132926 
0.11321644 0.02332130 0.00926718 0.00292323 0.00139515 0.00254001 0.01058314 0.00385662 0.01916988 0.00166322 0.00138928 0.04133212 0.01160017 0.00523330 0.00778744 0.00133121 
0.11204072 0.02317810 0.00935215 0.00296305 0.00138487 0.00256774 0.01062377 0.00390039 0.01962604 0.00162543 0.00136884 0.04043982 0.01187446 0.00531488 0.00799166 0.00133322 
0.11089220 0.02303884 0.00943336 0.00299993 0.00137405 0.00259298 0.01065626 0.00394499 0.02009847 0.00158728 0.00134987 0.03953057 0.01213822 0.00539232 0.00818789 0.00133527 
0.10978163 0.02290548 0.00951091 0.00303382 0.00136270 0.00261559 0.01068052 0.00399044 0.02058558 0.00154894 0.00133244 0.03860851 0.01239027 0.00546523 0.00837529 0.00133736 
0.10871939 0.02277995 0.00958487 0.00306468 0.00135086 0.00263548 0.01069644 0.00403677 0.02108572 0.00151057 0.00131662 0.03767772 0.01262948 0.00553327 0.00855307 0.00133946 
0.10771544 0.02266413 0.00965534 0.00309250 0.00133855 0.00265252 0.01070397 0.00408400 0.02159722 0.00147236 0.00130246 0.03674227 0.01285477 0.00559612 0.00872048 0.00134157 
0.10677926 0.02255984 0.00972242 0.00311730 0.00132582 0.00266665 0.01070307 0.00413215 0.02211838 0.00143449 0.00128999 0.03580616 0.01306513 0.00565347 0.00887681 0.00134368 
0.10591981 0.02246884 0.00978619 0.00313910 0.00131269 0.00267777 0.01069375 0.00418124 0.02264747 0.00139712 0.00127924 0.03487333 0.01325961 0.00570506 0.00902142 0.00134576 
0.10514543 0.02239280 0.00984675 0.00315794 0.00129919 0.00268584 0.01067604 0.00423126 0.02318276 0.00136043 0.00127022 0.03394760 0.01343734 0.00575064 0.00915370 0.00134781 
0.10446379 0.02233331 0.00990418 0.00317389 0.00128536 0.00269078 0.01064998 0.00428222 0.02372249 0.00132458 0.00126295 0.03303271 0.01359750 0.00578998 0.00927311 0.00134982 
0.10388188 0.02229186 0.00995856 0.00318702 0.00127122 0.00269257 0.01061566 0.00433412 0.02426493 0.00128976 0.00125741 0.03213229 0.01373939 0.00582290 0.00937918 0.00135176 
0.10340590 0.02226984 0.01000997 0.00319743 0.00125681 0.00269119 0.01057318 0.00438694 0.02480832 0.00125611 0.00125358 0.03124980 0.01386237 0.00584926 0.00947151 0.00135364 
0.10304130 0.02226852 0.01005847 0.00320523 0.00124216 0.00268662 0.01052269 0.00444067 0.02535092 0.00122380 0.00125145 0.03038857 0.01396588 0.00586894 0.00954976 0.00135543 
0.10279263 0.02228905 0.01010410 0.00321054 0.00122730 0.00267886 0.01046435 0.00449528 0.02589102 0.00119297 0.00125096 0.02955180 0.01404946 0.00588185 0.00961368 0.00135712 
0.10266363 0.02233249 0.01014692 0.00321350 0.00121227 0.00266795 0.01039835 0.00455074 0.02642691 0.00116378 0.00125207 0.02874249 0.01411276 0.00588796 0.00966307 0.00135870 
0.10265709 0.02239974 0.01018695 0.00321426 0.00119709 0.00265391 0.01032490 0.00460701 0.02695691 0.00113636 0.00125472 0.02796349 0.01415549 0.00588727 0.00969785 0.00136016 
0.10277492 0.02249160 0.01022419 0.00321298 0.00118181 0.00263679 0.01024425 0.00466402 0.02747938 0.00111083 0.00125884 0.02721746 0.01417748 0.00587980 0.00971799 0.00136149 
0.10301807 0.02260872 0.01025867 0.00320983 0.00116644 0.00261665 0.01015667 0.00472174 0.02799272 0.00108733 0.00126435 0.02650689 0.01417865 0.00586563 0.00972356 0.00136267 
0.10338655 0.02275163 0.01029035 0.00320500 0.00115102 0.00259357 0.01006243 0.00478007 0.02849534 0.00106596 0.00127117 0.02583406 0.01415900 0.00584489 0.00971471 0.00136370 
0.10387941 0.02292073 0.01031921 0.00319867 0.00113559 0.00256764 0.00996185 0.00483896 0.02898574 0.00104683 0.00127921 0.02520108 0.01411865 0.00581772 0.00969167 0.00136457 
0.10449476 0.02311631 0.01034520 0.00319104 0.00112017 0.00253896 0.00985526 0.00489831 0.02946245 0.00103002 0.00128836 0.02460988 0.01405779 0.00578432 0.00965478 0.00136527 
0.10522975 0.02333850 0.01036828 0.00318229 0.00110478 0.00250766 0.00974302 0.00495802 0.02992403 0.00101561 0.00129853 0.02406217 0.01397671 0.00574492 0.00960444 0.00136579 
0.10608061 0.02358733 0.01038836 0.00317264 0.00108947 0.00247385 0.00962549 0.00501800 0.03036915 0.00100369 0.00130960 0.02355950 0.01387578 0.00569980 0.00954114 0.00136613 
0.10704264 0.02386271 0.01040538 0.00316228 0.00107425 0.00243769 0.00950307 0.00507813 0.03079651 0.00099429 0.00132146 0.02310322 0.01375548 0.00564926 0.00946546 0.00136628 
0.10811027 0.02416442 0.01041922 0.00315142 0.00105916 0.00239933 0.00937616 0.00513829 0.03120488 0.00098748 0.00133398 0.02269452 0.01361635 0.00559366 0.00937806 0.00136624 
0.10927706 0.02449215 0.01042979 0.00314026 0.00104423 0.00235892 0.00924518 0.00519836 0.03159311 0.00098327 0.00134706 0.02233437 0.01345901 0.00553337 0.00927969 0.00136600 
0.11053574 0.02484546 0.01043698 0.00312900 0.00102947 0.00231665 0.00911058 0.00525819 0.03196011 0.00098171 0.00136057 0.02202362 0.01328416 0.00546881 0.00917116 0.00136555 
0.11187825 0.02522382 0.01044066 0.00311784 0.00101491 0.00227270 0.00897279 0.00531766 0.03230487 0.00098278 0.00137439 0.02176293 0.01309258 0.00540041 0.00905336 0.00136491 
0.11329582 0.02562662 0.01044071 0.00310695 0.00100059 0.00222727 0.00883228 0.00537662 0.03262648 0.00098650 0.00138840 0.02155279 0.01288509 0.00532865 0.00892725 0.00136407 
0.11477897 0.02605313 0.01043701 0.00309653 0.00098652 0.00218054 0.00868952 0.00543491 0.03292408 0.00099285 0.00140247 0.02139358 0.01266259 0.00525402 0.00879385 0.00136302 
0.11631758 0.02650256 0.01042941 0.00308675 0.00097274 0.00213274 0.00854499 0.00549237 0.03319690 0.00100179 0.00141649 0.02128551 0.01242603 0.00517706 0.00865426 0.00136178 
0.11790097 0.02697404 0.01041780 0.00307777 0.00095926 0.00208407 0.00839918 0.00554886 0.03344427 0.00101329 0.00143034 0.02122866 0.01217641 0.00509828 0.00850961 0.00136034 
0.11951796 0.02746663 0.01040205 0.00306974 0.00094611 0.00203475 0.00825259 0.00560421 0.03366559 0.00102729 0.00144392 0.02122299 0.01191476 0.00501826 0.00836110 0.00135871 
0.12115689 0.02797932 0.01038205 0.00306282 0.00093331 0.00198500 0.00810569 0.00565825 0.03386035 0.00104375 0.00145710 0.02126837 0.01164216 0.00493755 0.00820997 0.00135689 
0.12280575 0.02851106 0.01035768 0.00305712 0.00092089 0.00193505 0.00795901 0.00571082 0.03402813 0.00106257 0.00146980 0.02136454 0.01135972 0.00485675 0.00805748 0.00135489 
0.12445222 0.02906074 0.01032885 0.00305277 0.00090886 0.00188513 0.00781303 0.00576177 0.03416859 0.00108368 0.00148192 0.02151116 0.01106858 0.00477644 0.00790495 0.00135271 
0.12608376 0.02962721 0.01029548 0.00304986 0.00089726 0.00183546 0.00766825 0.00581092 0.03428150 0.00110699 0.00149336 0.02170780 0.01076988 0.00469720 0.00775371 0.00135036 
0.12768767 0.03020927 0.01025750 0.00304849 0.00088611 0.00178627 0.00752518 0.00585812 0.03436669 0.00113239 0.00150404 0.02195397 0.01046478 0.00461963 0.00760509 0.00134786 
0.12925115 0.03080570 0.01021486 0.00304872 0.00087542 0.00173778 0.00738431 0.00590321 0.03442408 0.00115976 0.00151390 0.02224910 0.01015447 0.00454431 0.00746046 0.00134521 
0.13076143 0.03141527 0.01016754 0.00305061 0.00086523 0.00169022 0.00724612 0.00594604 0.03445370 0.00118899 0.00152286 0.02259258 0.00984010 0.00447181 0.00732117 0.00134241 
0.13220583 0.03203669 0.01011555 0.00305419 0.00085554 0.00164381 0.00711109 0.00598647 0.03445564 0.00121995 0.00153088 0.02298374 0.00952285 0.00440270 0.00718857 0.00133949 
0.13357178 0.03266869 0.01005890 0.00305949 0.00084640 0.00159877 0.00697969 0.00602436 0.03443009 0.00125250 0.00153789 0.02342190 0.00920387 0.00433753 0.00706399 0.00133645 
0.13484699 0.03330996 0.00999765 0.00306652 0.00083782 0.00155529 0.00685238 0.00605957 0.03437731 0.00128651 0.00154387 0.02390632 0.00888431 0.00427682 0.00694876 0.00133330 
0.13601946 0.03395921 0.00993190 0.00307526 0.00082982 0.00151360 0.00672961 0.00609199 0.03429765 0.00132183 0.00154878 0.02443626 0.00856528 0.00422107 0.00684415 0.00133006 
0.13707757 0.03461513 0.00986176 0.00308568 0.00082242 0.00147387 0.00661181 0.00612150 0.03419153 0.00135831 0.00155261 0.02501095 0.00824788 0.00417078 0.00675141 0.00132674 
0.13801019 0.03527640 0.00978738 0.00309775 0.00081566 0.00143630 0.00649939 0.00614800 0.03405947 0.00139579 0.00155535 0.02562963 0.00793317 0.00412637 0.00667174 0.00132335 
0.13880667 0.03594171 0.00970895 0.00311139 0.00080955 0.00140107 0.00639275 0.00617140 0.03390202 0.00143413 0.00155699 0.02629153 0.00762219 0.00408826 0.00660629 0.00131992 
0.13945701 0.03660977 0.00962670 0.00312653 0.00080412 0.00136834 0.00629226 0.00619162 0.03371985 0.00147315 0.00155756 0.02699587 0.00731593 0.00405684 0.00655614 0.00131644 
0.13995181 0.03727926 0.00954089 0.00314309 0.00079939 0.00133827 0.00619827 0.00620861 0.03351367 0.00151271 0.00155707 0.02774188 0.00701534 0.00403243 0.00652230 0.00131293 
0.14028245 0.03794891 0.00945182 0.00316095 0.00079538 0.00131100 0.00611113 0.00622230 0.03328427 0.00155266 0.00155556 0.02852882 0.00672133 0.00401533 0.00650573 0.00130942 
0.14044104 0.03861742 0.00935983 0.00318001 0.00079212 0.00128667 0.00603112 0.00623266 0.03303249 0.00159282 0.00155306 0.02935593 0.00643476 0.00400579 0.00650727 0.00130591 
0.14042054 0.03928352 0.00926531 0.00320013 0.00078963 0.00126539 0.00595854 0.00623968 0.03275923 0.00163305 0.00154962 0.03022249 0.00615644 0.00400401 0.00652770 0.00130242 
0.14021478 0.03994595 0.00916865 0.00322117 0.00078794 0.00124727 0.00589362 0.00624334 0.03246548 0.00167319 0.00154531 0.03112776 0.00588714 0.00401015 0.00656770 0.00129896 
0.13981850 0.04060345 0.00907032 0.00324297 0.00078706 0.00123239 0.00583659 0.00624365 0.03215224 0.00171311 0.00154018 0.03207105 0.00562756 0.00402430 0.00662784 0.00129555 
0.13922741 0.04125478 0.00897079 0.00326539 0.00078703 0.00122085 0.00578764 0.00624065 0.03182059 0.00175264 0.00153430 0.03305166 0.00537835 0.00404653 0.00670860 0.00129220 
0.13843819 0.04189872 0.00887059 0.00328825 0.00078786 0.00121268 0.00574692 0.00623438 0.03147163 0.00179167 0.00152777 0.03406890 0.00514011 0.00407682 0.00681034 0.00128892 
0.13744853 0.04253403 0.00877027 0.00331138 0.00078957 0.00120795 0.00571454 0.00622488 0.03110654 0.00183005 0.00152066 0.03512210 0.00491338 0.00411512 0.00693333 0.00128573 
0.13625715 0.04315952 0.00867040 0.00333460 0.00079218 0.00120668 0.00569061 0.00621225 0.03072650 0.00186765 0.00151307 0.03621059 0.00469865 0.00416133 0.00707769 0.00128265 
0.13486382 0.04377398 0.00857160 0.00335773 0.00079573 0.00120889 0.00567515 0.00619657 0.03033276 0.00190437 0.00150509 0.03733369 0.00449635 0.00421528 0.00724344 0.00127967 
0.13326935 0.04437623 0.00847449 0.00338059 0.00080021 0.00121457 0.00566819 0.00617794 0.02992658 0.00194009 0.00149682 0.03849075 0.00430686 0.00427677 0.00743050 0.00127683 
0.13147562 0.04496509 0.00837972 0.00340298 0.00080566 0.00122370 0.00566970 0.00615649 0.02950925 0.00197470 0.00148836 0.03968108 0.00413049 0.00434552 0.00763865 0.00127411 
0.12948554 0.04553940 0.00828796 0.00342473 0.00081209 0.00123626 0.00567961 0.00613236 0.02908209 0.00200812 0.00147983 0.04090400 0.00396751 0.00442122 0.00786753 0.00127155 
0.12730307 0.04609799 0.00819988 0.00344566 0.00081951 0.00125220 0.00569782 0.00610570 0.02864645 0.00204026 0.00147133 0.04215881 0.00381813 0.00450351 0.00811671 0.00126915 
0.12493317 0.04663973 0.00811618 0.00346558 0.00082794 0.00127144 0.00572419 0.00607666 0.02820368 0.00207104 0.00146296 0.04344478 0.00368252 0.00459198 0.00838560 0.00126691 
0.12238184 0.04716348 0.00803754 0.00348432 0.00083739 0.00129392 0.00575853 0.00604544 0.02775514 0.00210040 0.00145484 0.04476116 0.00356080 0.00468616 0.00867350 0.00126484 
0.11965600 0.04766813 0.00796466 0.00350172 0.00084786 0.00131954 0.00580062 0.00601222 0.02730222 0.00212829 0.00144708 0.04610718 0.00345302 0.00478556 0.00897962 0.00126297 
0.11676356 0.04815256 0.00789821 0.00351761 0.00085938 0.00134819 0.00585021 0.00597719 0.02684630 0.00215466 0.00143977 0.04748202 0.00335921 0.00488964 0.00930304 0.00126128 
0.11371328 0.04861569 0.00783889 0.00353185 0.00087193 0.00137976 0.00590699 0.00594058 0.02638875 0.00217948 0.00143302 0.04888483 0.00327935 0.00499782 0.00964273 0.00125979 
0.11051481 0.04905643 0.00778733 0.00354429 0.00088553 0.00141410 0.00597063 0.00590261 0.02593096 0.00220272 0.00142693 0.05031469 0.00321337 0.00510950 0.00999756 0.00125850 
0.10717859 0.04947372 0.00774418 0.00355480 0.00090018 0.00145108 0.00604076 0.00586349 0.02547429 0.00222436 0.00142160 0.05177067 0.00316117 0.00522403 0.01036632 0.00125742 
0.10371582 0.04986653 0.00771006 0.00356327 0.00091586 0.00149053 0.00611698 0.00582346 0.02502011 0.00224441 0.00141711 0.05325174 0.00312261 0.00534077 0.01074770 0.00125655 
0.10013840 0.05023382 0.00768555 0.00356959 0.00093259 0.00153230 0.00619884 0.00578277 0.02456975 0.00226286 0.00141356 0.05475685 0.00309752 0.00545901 0.01114029 0.00125589 
0.09645885 0.05057460 0.00767118 0.00357366 0.00095034 0.00157619 0.00628588 0.00574165 0.02412454 0.00227974 0.00141102 0.05628486 0.00308570 0.00557807 0.01154264 0.00125545 
0.09269028 0.05088791 0.00766747 0.00357542 0.00096911 0.00162203 0.00637759 0.00570036 0.02368578 0.00229507 0.00140956 0.05783459 0.00308690 0.00569722 0.01195320 0.00125523 
0.08884629 0.05117278 0.00767488 0.00357479 0.00098888 0.00166962 0.00647345 0.00565913 0.02325474 0.00230887 0.00140924 0.05940477 0.00310088 0.00581575 0.01237038 0.00125522 
0.08494093 0.05142832 0.00769381 0.00357173 0.00100964 0.00171876 0.00657290 0.00561823 0.02283266 0.00232120 0.00141014 0.06099409 0.00312734 0.00593293 0.01279253 0.00125542 
0.08098858 0.05165363 0.00772462 0.00356621 0.00103136 0.00176924 0.00667539 0.00557789 0.02242074 0.00233209 0.00141229 0.06260115 0.00316599 0.00604803 0.01321797 0.00125584 
0.07700393 0.05184789 0.00776761 0.00355821 0.00105401 0.00182086 0.00678030 0.00553835 0.02202015 0.00234161 0.00141573 0.06422449 0.00321648 0.00616034 0.01364497 0.00125647 
0.07300188 0.05201029 0.00782301 0.00354774 0.00107758 0.00187339 0.00688703 0.00549987 0.02163201 0.00234982 0.00142050 0.06586260 0.00327847 0.00626915 0.01407180 0.00125730 
0.06899747 0.05214007 0.00789098 0.00353481 0.00110203 0.00192661 0.00699497 0.00546266 0.02125739 0.00235678 0.00142661 0.06751388 0.00335161 0.00637376 0.01449671 0.00125833 
0.06500576 0.05223653 0.00797162 0.00351944 0.00112732 0.00198031 0.00710347 0.00542696 0.02089732 0.00236258 0.00143409 0.06917668 0.00343551 0.00647350 0.01491793 0.00125956 
0.06104184 0.05229902 0.00806497 0.00350170 0.00115341 0.00203427 0.00721190 0.00539299 0.02055277 0.00236728 0.00144293 0.07084931 0.00352978 0.00656773 0.01533374 0.00126098 
0.05712066 0.05232695 0.00817097 0.00348164 0.00118027 0.00208827 0.00731963 0.00536095 0.02022465 0.00237099 0.00145314 0.07253000 0.00363403 0.00665581 0.01574240 0.00126258 
0.05325703 0.05231976 0.00828950 0.00345935 0.00120784 0.00214208 0.00742601 0.00533105 0.01991382 0.00237377 0.00146468 0.07421696 0.00374784 0.00673717 0.01614222 0.00126435 
0.04946548 0.05227700 0.00842036 0.00343491 0.00123609 0.00219549 0.00753042 0.00530348 0.01962107 0.00237572 0.00147755 0.07590834 0.00387079 0.00681125 0.01653155 0.00126629 
0.04576024 0.05219826 0.00856328 0.00340843 0.00126495 0.00224830 0.00763222 0.00527840 0.01934712 0.00237694 0.00149169 0.07760226 0.00400245 0.00687754 0.01690878 0.00126838 
0.04215513 0.05208320 0.00871789 0.00338003 0.00129437 0.00230029 0.00773081 0.00525599 0.01909262 0.00237752 0.00150708 0.07929682 0.00414239 0.00693558 0.01727238 0.00127062 
0.03866353 0.05193157 0.00888378 0.00334985 0.00132430 0.00235127 0.00782559 0.00523638 0.01885817 0.00237754 0.00152366 0.08099010 0.00429016 0.00698493 0.01762086 0.00127299 
0.03529826 0.05174318 0.00906044 0.00331803 0.00135467 0.00240104 0.00791599 0.00521972 0.01864427 0.00237711 0.00154137 0.08268017 0.00444531 0.00702523 0.01795283 0.00127548 
0.03207156 0.05151793 0.00924728 0.00328472 0.00138542 0.00244942 0.00800147 0.00520612 0.01845135 0.00237631 0.00156014 0.08436508 0.00460739 0.00705617 0.01826698 0.00127809 
0.02899503 0.05125582 0.00944365 0.00325009 0.00141649 0.00249623 0.00808150 0.00519567 0.01827978 0.00237524 0.00157989 0.08604293 0.00477594 0.00707747 0.01856209 0.00128079 
0.02607954 0.05095690 0.00964883 0.00321430 0.00144781 0.00254131 0.00815560 0.00518847 0.01812984 0.00237398 0.00160055 0.08771179 0.00495050 0.00708894 0.01883706 0.00128357 
0.02333521 0.05062134 0.00986205 0.00317753 0.00147931 0.00258449 0.00822331 0.00518458 0.01800171 0.00237263 0.00162202 0.08936980 0.00513059 0.00709042 0.01909086 0.00128643 
0.02077135 0.05024938 0.01008244 0.00313998 0.00151091 0.00262564 0.00828422 0.00518405 0.01789552 0.00237126 0.00164420 0.09101512 0.00531573 0.00708184 0.01932262 0.00128935 
0.01839641 0.04984137 0.01030911 0.00310181 0.00154255 0.00266461 0.00833796 0.00518690 0.01781130 0.00236995 0.00166700 0.09264593 0.00550546 0.00706316 0.01953156 0.00129230 
0.01621794 0.04939775 0.01054110 0.00306324 0.00157416 0.00270130 0.00838420 0.00519315 0.01774901 0.00236879 0.00169031 0.09426052 0.00569926 0.00703442 0.01971704 0.00129529 
0.01424258 0.04891905 0.01077740 0.00302444 0.00160565 0.00273560 0.00842267 0.00520280 0.01770851 0.00236782 0.00171401 0.09585720 0.00589667 0.00699571 0.01987853 0.00129828 
0.01247601 0.04840589 0.01101699 0.00298562 0.00163696 0.00276741 0.00845314 0.00521581 0.01768959 0.00236713 0.00173800 0.09743438 0.00609716 0.00694720 0.02001565 0.00130128 
0.01092292 0.04785899 0.01125878 0.00294697 0.00166800 0.00279664 0.00847542 0.00523215 0.01769195 0.00236676 0.00176215 0.09899054 0.00630024 0.00688910 0.02012814 0.00130426 
0.00958701 0.04727918 0.01150167 0.00290867 0.00169871 0.00282325 0.00848940 0.00525175 0.01771523 0.00236677 0.00178636 0.10052425 0.00650539 0.00682170 0.02021588 0.00130721 
0.00847096 0.04666736 0.01174453 0.00287092 0.00172901 0.00284717 0.00849501 0.00527453 0.01775896 0.00236720 0.00181049 0.10203417 0.00671209 0.00674533 0.02027888 0.00131012 
0.00757643 0.04602455 0.01198625 0.00283390 0.00175882 0.00286837 0.00849223 0.00530040 0.01782261 0.00236810 0.00183442 0.10351908 0.00691981 0.00666039 0.02031730 0.00131296 
0.00690405 0.04535185 0.01222567 0.00279778 0.00178807 0.00288682 0.00848110 0.00532925 0.01790556 0.00236948 0.00185805 0.10497785 0.00712800 0.00656732 0.02033141 0.00131573 
0.00645345 0.04465044 0.01246167 0.00276273 0.00181669 0.00290253 0.00846174 0.00536095 0.01800714 0.00237137 0.00188123 0.10640947 0.00733613 0.00646663 0.02032162 0.00131840 
0.00622320 0.04392162 0.01269312 0.00272892 0.00184460 0.00291550 0.00843429 0.00539534 0.01812658 0.00237380 0.00190386 0.10781302 0.00754363 0.00635888 0.02028847 0.00132098 
0.00621091 0.04316676 0.01291891 0.00269651 0.00187175 0.00292574 0.00839897 0.00543228 0.01826307 0.00237676 0.00192582 0.10918773 0.00774994 0.00624465 0.02023262 0.00132343 
0.00641319 0.04238731 0.01313799 0.00266562 0.00189805 0.00293330 0.00835604 0.00547158 0.01841570 0.00238026 0.00194699 0.11053290 0.00795449 0.00612460 0.02015483 0.00132576 
0.00682567 0.04158481 0.01334929 0.00263639 0.00192345 0.00293823 0.00830584 0.00551306 0.01858352 0.00238429 0.00196726 0.11184798 0.00815670 0.00599940 0.02005601 0.00132793 
0.00744307 0.04076089 0.01355184 0.00260895 0.00194788 0.00294059 0.00824874 0.00555651 0.01876552 0.00238884 0.00198652 0.11313250 0.00835599 0.00586978 0.01993715 0.00132996 
0.00825917 0.03991724 0.01374468 0.00258340 0.00197128 0.00294045 0.00818516 0.00560173 0.01896063 0.00239388 0.00200467 0.11438611 0.00855174 0.00573648 0.01979934 0.00133181 
0.00926693 0.03905562 0.01392694 0.00255983 0.00199361 0.00293790 0.00811557 0.00564848 0.01916773 0.00239938 0.00202161 0.11560855 0.00874337 0.00560030 0.01964377 0.00133348 
0.01045843 0.03817789 0.01409778 0.00253833 0.00201479 0.00293304 0.00804049 0.00569654 0.01938566 0.00240532 0.00203725 0.11679966 0.00893027 0.00546202 0.01947170 0.00133496 
0.01182499 0.03728594 0.01425647 0.00251895 0.00203479 0.00292598 0.00796048 0.00574565 0.01961322 0.00241164 0.00205149 0.11795935 0.00911183 0.00532247 0.01928448 0.00133624 
0.01335720 0.03638175 0.01440233 0.00250174 0.00205356 0.00291684 0.00787613 0.00579557 0.01984916 0.00241831 0.00206426 0.11908762 0.00928743 0.00518249 0.01908352 0.00133731 
0.01504496 0.03546732 0.01453478 0.00248675 0.00207105 0.00290575 0.00778808 0.00584604 0.02009221 0.00242526 0.00207548 0.12018451 0.00945646 0.00504293 0.01887028 0.00133816 
0.01687752 0.03454475 0.01465334 0.00247399 0.00208723 0.00289285 0.00769698 0.00589680 0.02034108 0.00243243 0.00208508 0.12125015 0.00961830 0.00490464 0.01864627 0.00133878 
0.01884357 0.03361615 0.01475758 0.00246347 0.00210207 0.00287828 0.00760351 0.00594757 0.02059446 0.00243976 0.00209300 0.12228467 0.00977235 0.00476848 0.01841305 0.00133917 
0.02093129 0.03268368 0.01484723 0.00245517 0.00211553 0.00286220 0.00750839 0.00599809 0.02085100 0.00244719 0.00209919 0.12328824 0.00991800 0.00463528 0.01817217 0.00133933 
0.02312839 0.03174957 0.01492206 0.00244906 0.00212758 0.00284475 0.00741232 0.00604808 0.02110937 0.00245463 0.00210359 0.12426104 0.01005464 0.00450590 0.01792522 0.00133924 
0.02542221 0.03081603 0.01498200 0.00244512 0.00213821 0.00282611 0.00731604 0.00609726 0.02136824 0.00246201 0.00210618 0.12520325 0.01018169 0.00438115 0.01767380 0.00133890 
0.02779974 0.02988535 0.01502704 0.00244327 0.00214741 0.00280643 0.00722028 0.00614537 0.02162626 0.00246925 0.00210691 0.12611502 0.01029857 0.00426185 0.01741949 0.00133831 
0.03024774 0.02895981 0.01505729 0.00244345 0.00215515 0.00278589 0.00712577 0.00619213 0.02188211 0.00247627 0.00210577 0.12699648 0.01040472 0.00414877 0.01716387 0.00133747 
0.03275276 0.02804172 0.01507299 0.00244558 0.00216144 0.00276465 0.00703324 0.00623726 0.02213448 0.00248299 0.00210274 0.12784769 0.01049959 0.00404269 0.01690846 0.00133638 
0.03530122 0.02713340 0.01507446 0.00244956 0.00216627 0.00274289 0.00694340 0.00628051 0.02238207 0.00248931 0.00209781 0.12866867 0.01058265 0.00394431 0.01665479 0.00133504 
0.03787949 0.02623719 0.01506212 0.00245529 0.00216964 0.00272078 0.00685696 0.00632160 0.02262361 0.00249516 0.00209099 0.12945934 0.01065341 0.00385433 0.01640431 0.00133346 
0.04047397 0.02535541 0.01503651 0.00246263 0.00217157 0.00269847 0.00677459 0.00636030 0.02285788 0.00250045 0.00208227 0.13021952 0.01071140 0.00377341 0.01615843 0.00133162 
0.04307109 0.02449039 0.01499825 0.00247146 0.00217205 0.00267614 0.00669693 0.00639634 0.02308368 0.00250510 0.00207167 0.13094894 0.01075616 0.00370214 0.01591849 0.00132955 
0.04565746 0.02364445 0.01494808 0.00248165 0.00217113 0.00265395 0.00662461 0.00642950 0.02329986 0.00250902 0.00205922 0.13164720 0.01078730 0.00364110 0.01568577 0.00132724 
0.04821989 0.02281990 0.01488681 0.00249303 0.00216880 0.00263205 0.00655819 0.00645954 0.02350531 0.00251213 0.00204495 0.13231376 0.01080445 0.00359078 0.01546146 0.00132470 
0.05074545 0.02201903 0.01481532 0.00250546 0.00216511 0.00261060 0.00649822 0.00648625 0.02369898 0.00251436 0.00202889 0.13294796 0.01080727 0.00355165 0.01524667 0.00132194 
0.05322154 0.02124408 0.01473461 0.00251878 0.00216008 0.00258974 0.00644518 0.00650943 0.02387988 0.00251564 0.00201109 0.13354897 0.01079547 0.00352411 0.01504241 0.00131896 
0.05563594 0.02049729 0.01464570 0.00253281 0.00215374 0.00256962 0.00639952 0.00652888 0.02404708 0.00251589 0.00199159 0.13411581 0.01076883 0.00350852 0.01484961 0.00131578 
0.05797690 0.01978084 0.01454972 0.00254738 0.00214615 0.00255035 0.00636161 0.00654442 0.02419972 0.00251506 0.00197046 0.13464733 0.01072716 0.00350515 0.01466909 0.00131241 
0.06023314 0.01909687 0.01444781 0.00256233 0.00213733 0.00253208 0.00633177 0.00655591 0.02433699 0.00251308 0.00194776 0.13514223 0.01067031 0.00351423 0.01450155 0.00130887 
0.06239394 0.01844749 0.01434120 0.00257746 0.00212735 0.00251490 0.00631028 0.00656319 0.02445819 0.00250991 0.00192355 0.13559902 0.01059822 0.00353594 0.01434759 0.00130515 
0.06444918 0.01783471 0.01423113 0.00259262 0.00211625 0.00249892 0.00629732 0.00656614 0.02456266 0.00250549 0.00189791 0.13601608 0.01051087 0.00357036 0.01420771 0.00130128 
0.06638935 0.01726051 0.01411886 0.00260763 0.00210409 0.00248425 0.00629304 0.00656464 0.02464985 0.00249979 0.00187092 0.13639160 0.01040830 0.00361755 0.01408229 0.00129728 
0.06820565 0.01672679 0.01400570 0.00262231 0.00209093 0.00247096 0.00629750 0.00655862 0.02471926 0.00249278 0.00184266 0.13672365 0.01029062 0.00367747 0.01397158 0.00129315 
0.06988997 0.01623536 0.01389294 0.00263649 0.00207684 0.00245912 0.00631069 0.00654800 0.02477051 0.00248444 0.00181322 0.13701012 0.01015801 0.00375005 0.01387573 0.00128892 
0.07143496 0.01578797 0.01378187 0.00265002 0.00206187 0.00244880 0.00633255 0.00653273 0.02480328 0.00247476 0.00178270 0.13724879 0.01001072 0.00383512 0.01379479 0.00128460 
0.07283402 0.01538626 0.01367379 0.00266273 0.00204610 0.00244006 0.00636292 0.00651278 0.02481735 0.00246372 0.00175119 0.13743731 0.00984904 0.00393248 0.01372867 0.00128021 
0.07408137 0.01503177 0.01356994 0.00267449 0.00202959 0.00243292 0.00640160 0.00648815 0.02481258 0.00245134 0.00171880 0.13757326 0.00967338 0.00404185 0.01367720 0.00127577 
0.07517202 0.01472594 0.01347157 0.00268514 0.00201244 0.00242742 0.00644831 0.00645885 0.02478893 0.00243763 0.00168562 0.13765409 0.00948418 0.00416291 0.01364009 0.00127130 
0.07610183 0.01447010 0.01337986 0.00269455 0.00199470 0.00242357 0.00650270 0.00642492 0.02474642 0.00242261 0.00165176 0.13767722 0.00928198 0.00429527 0.01361694 0.00126681 
0.07686748 0.01426545 0.01329594 0.00270261 0.00197646 0.00242139 0.00656435 0.00638642 0.02468520 0.00240631 0.00161733 0.13764002 0.00906738 0.00443847 0.01360727 0.00126234 
0.07746652 0.01411307 0.01322088 0.00270921 0.00195780 0.00242087 0.00663280 0.00634341 0.02460547 0.00238879 0.00158245 0.13753987 0.00884104 0.00459204 0.01361051 0.00125789 
0.07789730 0.01401390 0.01315569 0.00271424 0.00193881 0.00242200 0.00670752 0.00629602 0.02450755 0.00237009 0.00154722 0.13737412 0.00860372 0.00475541 0.01362601 0.00125349 
0.07815907 0.01396874 0.01310130 0.00271763 0.00191955 0.00242474 0.00678790 0.00624436 0.02439181 0.00235027 0.00151176 0.13714021 0.00835623 0.00492800 0.01365302 0.00124916 
0.07825187 0.01397825 0.01305854 0.00271930 0.00190012 0.00242907 0.00687333 0.00618857 0.02425872 0.00232942 0.00147619 0.13683562 0.00809946 0.00510917 0.01369073 0.00124492 
0.07817657 0.01404291 0.01302816 0.00271919 0.00188060 0.00243494 0.00696310 0.00612883 0.02410884 0.00230760 0.00144063 0.13645796 0.00783435 0.00529825 0.01373829 0.00124079 
0.07793487 0.01416306 0.01301082 0.00271726 0.00186107 0.00244230 0.00705649 0.00606532 0.02394279 0.00228492 0.00140519 0.13600495 0.00756192 0.00549452 0.01379476 0.00123679 
0.07752924 0.01433888 0.01300706 0.00271349 0.00184162 0.00245109 0.00715274 0.00599825 0.02376128 0.00226147 0.00136998 0.13547449 0.00728326 0.00569724 0.01385918 0.00123293 
0.07696292 0.01457035 0.01301732 0.00270786 0.00182233 0.00246124 0.00725106 0.00592783 0.02356507 0.00223736 0.00133513 0.13486470 0.00699949 0.00590564 0.01393055 0.00122925 
0.07623987 0.01485728 0.01304191 0.00270038 0.00180327 0.00247269 0.00735062 0.00585433 0.02335500 0.00221270 0.00130076 0.13417392 0.00671182 0.00611891 0.01400784 0.00122575 
0.07536478 0.01519931 0.01308106 0.00269106 0.00178454 0.00248534 0.00745059 0.00577798 0.02313198 0.00218763 0.00126698 0.13340076 0.00642148 0.00633624 0.01408999 0.00122246 
0.07434300 0.01559589 0.01313485 0.00267993 0.00176620 0.00249912 0.00755011 0.00569908 0.02289698 0.00216228 0.00123390 0.13254412 0.00612976 0.00655679 0.01417595 0.00121940 
0.07318053 0.01604625 0.01320325 0.00266705 0.00174834 0.00251394 0.00764835 0.00561792 0.02265101 0.00213677 0.00120164 0.13160325 0.00583801 0.00677972 0.01426466 0.00121657 
0.07188393 0.01654947 0.01328613 0.00265248 0.00173103 0.00252971 0.00774444 0.00553479 0.02239514 0.00211126 0.00117032 0.13057775 0.00554758 0.00700418 0.01435508 0.00121400 
0.07046035 0.01710440 0.01338323 0.00263629 0.00171435 0.00254633 0.00783756 0.00545001 0.02213049 0.00208589 0.00114004 0.12946762 0.00525989 0.00722932 0.01444617 0.00121169 
0.06891744 0.01770970 0.01349417 0.00261857 0.00169835 0.00256370 0.00792686 0.00536391 0.02185821 0.00206082 0.00111092 0.12827326 0.00497636 0.00745427 0.01453693 0.00120967 
0.06726330 0.01836384 0.01361846 0.00259943 0.00168310 0.00258175 0.00801156 0.00527682 0.02157949 0.00203620 0.00108305 0.12699552 0.00469844 0.00767820 0.01462639 0.00120795 
0.06550646 0.01906509 0.01375551 0.00257898 0.00166867 0.00260036 0.00809089 0.00518909 0.02129556 0.00201219 0.00105654 0.12563570 0.00442760 0.00790027 0.01471365 0.00120653 
0.06365582 0.01981152 0.01390461 0.00255736 0.00165512 0.00261944 0.00816411 0.00510106 0.02100766 0.00198895 0.00103149 0.12419559 0.00416529 0.00811966 0.01479782 0.00120543 
0.06172057 0.02060100 0.01406499 0.00253469 0.00164249 0.00263892 0.00823054 0.00501308 0.02071706 0.00196664 0.00100800 0.12267748 0.00391300 0.00833556 0.01487810 0.00120465 
0.05971018 0.02143123 0.01423573 0.00251114 0.00163084 0.00265869 0.00828955 0.00492551 0.02042504 0.00194543 0.00098616 0.12108412 0.00367218 0.00854719 0.01495376 0.00120420 
0.05763435 0.02229971 0.01441588 0.00248685 0.00162022 0.00267868 0.00834055 0.00483868 0.02013289 0.00192547 0.00096606 0.11941883 0.00344429 0.00875382 0.01502411 0.00120409 
0.05550291 0.02320377 0.01460438 0.00246199 0.00161065 0.00269880 0.00838303 0.00475296 0.01984192 0.00190693 0.00094778 0.11768541 0.00323075 0.00895470 0.01508858 0.00120432 
0.05332582 0.02414055 0.01480012 0.00243673 0.00160217 0.00271899 0.00841654 0.00466867 0.01955341 0.00188995 0.00093140 0.11588818 0.00303297 0.00914915 0.01514665 0.00120488 
0.05111309 0.02510704 0.01500192 0.00241125 0.00159481 0.00273917 0.00844072 0.00458617 0.01926866 0.00187470 0.00091700 0.11403198 0.00285231 0.00933653 0.01519791 0.00120579 
0.04887474 0.02610008 0.01520856 0.00238572 0.00158860 0.00275929 0.00845527 0.00450578 0.01898894 0.00186131 0.00090464 0.11212215 0.00269010 0.00951622 0.01524204 0.00120704 
0.04662075 0.02711635 0.01541876 0.00236034 0.00158355 0.00277930 0.00845997 0.00442781 0.01871551 0.00184994 0.00089439 0.11016450 0.00254760 0.00968764 0.01527880 0.00120863 
0.04436099 0.02815241 0.01563123 0.00233528 0.00157968 0.00279916 0.00845470 0.00435257 0.01844963 0.00184070 0.00088632 0.10816535 0.00242604 0.00985027 0.01530806 0.00121055 
0.04210522 0.02920470 0.01584466 0.00231073 0.00157698 0.00281882 0.00843943 0.00428035 0.01819251 0.00183375 0.00088046 0.10613143 0.00232657 0.01000364 0.01532978 0.00121280 
0.03986301 0.03026954 0.01605772 0.00228687 0.00157546 0.00283826 0.00841420 0.00421142 0.01794534 0.00182918 0.00087687 0.10406992 0.00225027 0.01014731 0.01534403 0.00121537 
0.03764368 0.03134318 0.01626910 0.00226389 0.00157510 0.00285747 0.00837916 0.00414604 0.01770927 0.00182712 0.00087558 0.10198839 0.00219815 0.01028091 0.01535096 0.00121824 
0.03545631 0.03242178 0.01647748 0.00224196 0.00157590 0.00287644 0.00833455 0.00408445 0.01748543 0.00182766 0.00087664 0.09989475 0.00217113 0.01040410 0.01535083 0.00122142 
0.03330966 0.03350145 0.01668157 0.00222125 0.00157784 0.00289516 0.00828070 0.00402686 0.01727489 0.00183089 0.00088005 0.09779726 0.00217004 0.01051661 0.01534399 0.00122488 
0.03121214 0.03457824 0.01688013 0.00220193 0.00158089 0.00291366 0.00821803 0.00397346 0.01707869 0.00183690 0.00088586 0.09570442 0.00219562 0.01061821 0.01533089 0.00122861 
0.02917179 0.03564821 0.01707195 0.00218416 0.00158502 0.00293195 0.00814706 0.00392442 0.01689783 0.00184574 0.00089406 0.09362500 0.00224850 0.01070874 0.01531205 0.00123260 
0.02719624 0.03670739 0.01725586 0.00216809 0.00159019 0.00295007 0.00806839 0.00387989 0.01673324 0.00185748 0.00090465 0.09156794 0.00232921 0.01078807 0.01528809 0.00123682 
0.02529268 0.03775183 0.01743078 0.00215385 0.00159636 0.00296805 0.00798271 0.00383998 0.01658581 0.00187216 0.00091765 0.08954230 0.00243817 0.01085614 0.01525971 0.00124127 
0.02346783 0.03877762 0.01759568 0.00214158 0.00160348 0.00298594 0.00789080 0.00380478 0.01645637 0.00188980 0.00093302 0.08755722 0.00257570 0.01091295 0.01522767 0.00124593 
0.02172793 0.03978090 0.01774961 0.00213140 0.00161149 0.00300380 0.00779349 0.00377435 0.01634571 0.00191042 0.00095077 0.08562188 0.00274196 0.01095851 0.01519280 0.00125076 
0.02007870 0.04075790 0.01789172 0.00212341 0.00162035 0.00302169 0.00769172 0.00374872 0.01625453 0.00193402 0.00097085 0.08374541 0.00293704 0.01099293 0.01515601 0.00125576 
0.01852537 0.04170493 0.01802123 0.00211770 0.00162997 0.00303968 0.00758647 0.00372791 0.01618350 0.00196058 0.00099323 0.08193682 0.00316087 0.01101633 0.01511824 0.00126089 
0.01707258 0.04261841 0.01813748 0.00211435 0.00164030 0.00305786 0.00747880 0.00371187 0.01613323 0.00199009 0.00101788 0.08020500 0.00341326 0.01102891 0.01508048 0.00126614 
0.01572447 0.04349492 0.01823991 0.00211342 0.00165127 0.00307629 0.00736981 0.00370057 0.01610423 0.00202249 0.00104474 0.07855859 0.00369392 0.01103089 0.01504376 0.00127149 
0.01448459 0.04433118 0.01832804 0.00211497 0.00166279 0.00309508 0.00726065 0.00369391 0.01609700 0.00205773 0.00107375 0.07700597 0.00400240 0.01102253 0.01500914 0.00127691 
0.01335594 0.04512406 0.01840153 0.00211903 0.00167479 0.00311431 0.00715251 0.00369179 0.01611194 0.00209574 0.00110484 0.07555515 0.00433814 0.01100415 0.01497769 0.00128237 
0.01234098 0.04587067 0.01846015 0.00212560 0.00168719 0.00313407 0.00704663 0.00369405 0.01614939 0.00213644 0.00113794 0.07421378 0.00470043 0.01097609 0.01495050 0.00128785 
0.01144156 0.04656829 0.01850378 0.00213471 0.00169990 0.00315447 0.00694423 0.00370054 0.01620965 0.00217972 0.00117297 0.07298901 0.00508848 0.01093874 0.01492866 0.00129334 
0.01065902 0.04721444 0.01853240 0.00214632 0.00171283 0.00317559 0.00684658 0.00371106 0.01629292 0.00222549 0.00120984 0.07188748 0.00550133 0.01089251 0.01491324 0.00129879 
0.00999412 0.04780687 0.01854613 0.00216042 0.00172590 0.00319753 0.00675495 0.00372539 0.01639937 0.00227360 0.00124844 0.07091529 0.00593791 0.01083783 0.01490532 0.00130420 
0.00944708 0.04834359 0.01854519 0.00217696 0.00173902 0.00322039 0.00667057 0.00374329 0.01652910 0.00232392 0.00128869 0.07007786 0.00639705 0.01077519 0.01490592 0.00130953 
0.00901758 0.04882286 0.01852991 0.00219587 0.00175210 0.00324425 0.00659471 0.00376449 0.01668212 0.00237631 0.00133046 0.06938000 0.00687745 0.01070506 0.01491604 0.00131477 
0.00870481 0.04924324 0.01850072 0.00221708 0.00176504 0.00326921 0.00652856 0.00378871 0.01685841 0.00243060 0.00137363 0.06882575 0.00737770 0.01062797 0.01493665 0.00131988 
0.00850743 0.04960356 0.01845817 0.00224050 0.00177777 0.00329533 0.00647331 0.00381563 0.01705788 0.00248662 0.00141810 0.06841844 0.00789629 0.01054442 0.01496863 0.00132485 
0.00842361 0.04990294 0.01840290 0.00226602 0.00179019 0.00332270 0.00643009 0.00384494 0.01728038 0.00254419 0.00146371 0.06816057 0.00843160 0.01045497 0.01501283 0.00132966 
0.00845107 0.05014079 0.01833565 0.00229354 0.00180223 0.00335139 0.00639999 0.00387630 0.01752569 0.00260312 0.00151034 0.06805385 0.00898193 0.01036015 0.01507003 0.00133429 
0.00858708 0.05031685 0.01825723 0.00232291 0.00181378 0.00338145 0.00638404 0.00390937 0.01779355 0.00266322 0.00155786 0.06809910 0.00954548 0.01026052 0.01514091 0.00133872 
0.00882846 0.05043113 0.01816856 0.00235400 0.00182479 0.00341293 0.00638316 0.00394377 0.01808363 0.00272427 0.00160610 0.06829631 0.01012038 0.01015664 0.01522610 0.00134292 
0.00917166 0.05048395 0.01807060 0.00238666 0.00183517 0.00344587 0.00639825 0.00397915 0.01839554 0.00278606 0.00165493 0.06864456 0.01070469 0.01004906 0.01532612 0.00134689 
0.00961274 0.05047595 0.01796441 0.00242072 0.00184484 0.00348029 0.00643007 0.00401514 0.01872887 0.00284838 0.00170420 0.06914205 0.01129639 0.00993834 0.01544139 0.00135061 
0.01014739 0.05040804 0.01785107 0.00245601 0.00185375 0.00351621 0.00647932 0.00405136 0.01908310 0.00291100 0.00175374 0.06978607 0.01189343 0.00982501 0.01557225 0.00135406 
0.01077100 0.05028144 0.01773173 0.00249236 0.00186183 0.00355363 0.00654658 0.00408744 0.01945772 0.00297370 0.00180340 0.07057304 0.01249369 0.00970961 0.01571893 0.00135724 
0.01147864 0.05009764 0.01760757 0.00252958 0.00186902 0.00359253 0.00663233 0.00412301 0.01985211 0.00303626 0.00185302 0.07149847 0.01309502 0.00959267 0.01588154 0.00136013 
0.01226513 0.04985840 0.01747982 0.00256749 0.00187528 0.00363290 0.00673693 0.00415772 0.02026566 0.00309844 0.00190244 0.07255701 0.01369525 0.00947470 0.01606011 0.00136272 
0.01312501 0.04956576 0.01734970 0.00260588 0.00188056 0.00367467 0.00686064 0.00419121 0.02069766 0.00316001 0.00195149 0.07374248 0.01429219 0.00935619 0.01625453 0.00136500 
0.01405264 0.04922199 0.01721846 0.00264457 0.00188482 0.00371781 0.00700356 0.00422314 0.02114739 0.00322076 0.00200003 0.07504786 0.01488364 0.00923762 0.01646460 0.00136698 
0.01504215 0.04882958 0.01708735 0.00268336 0.00188803 0.00376223 0.00716572 0.00425320 0.02161407 0.00328045 0.00204787 0.07646537 0.01546740 0.00911943 0.01669000 0.00136864 
0.01608755 0.04839128 0.01695760 0.00272206 0.00189018 0.00380785 0.00734697 0.00428107 0.02209688 0.00333887 0.00209488 0.07798647 0.01604128 0.00900206 0.01693029 0.00136999 
0.01718269 0.04790998 0.01683044 0.00276046 0.00189125 0.00385457 0.00754707 0.00430647 0.02259496 0.00339580 0.00214088 0.07960192 0.01660313 0.00888592 0.01718494 0.00137102 
0.01832131 0.04738880 0.01670705 0.00279838 0.00189124 0.00390226 0.00776562 0.00432915 0.02310740 0.00345103 0.00218572 0.08130186 0.01715081 0.00877138 0.01745330 0.00137174 
0.01949708 0.04683098 0.01658859 0.00283563 0.00189015 0.00395079 0.00800213 0.00434887 0.02363326 0.00350436 0.00222926 0.08307581 0.01768224 0.00865880 0.01773462 0.00137214 
0.02070362 0.04623992 0.01647618 0.00287203 0.00188799 0.00400001 0.00825594 0.00436542 0.02417156 0.00355559 0.00227134 0.08491280 0.01819539 0.00854851 0.01802806 0.00137224 
0.02193451 0.04561912 0.01637088 0.00290740 0.00188479 0.00404977 0.00852629 0.00437864 0.02472129 0.00360454 0.00231183 0.08680137 0.01868829 0.00844080 0.01833267 0.00137203 
0.02318333 0.04497219 0.01627368 0.00294158 0.00188057 0.00409989 0.00881231 0.00438839 0.02528138 0.00365102 0.00235058 0.08872968 0.01915904 0.00833594 0.01864741 0.00137153 
0.02444369 0.04430277 0.01618553 0.00297440 0.00187538 0.00415018 0.00911298 0.00439455 0.02585076 0.00369488 0.00238746 0.09068558 0.01960583 0.00823417 0.01897118 0.00137075 
0.02570923 0.04361459 0.01610728 0.00300572 0.00186926 0.00420044 0.00942719 0.00439707 0.02642832 0.00373595 0.00242235 0.09265667 0.02002693 0.00813570 0.01930279 0.00136970 
0.02697370 0.04291137 0.01603970 0.00303540 0.00186228 0.00425047 0.00975372 0.00439591 0.02701289 0.00377410 0.00245513 0.09463040 0.02042071 0.00804072 0.01964097 0.00136838 
0.02823089 0.04219683 0.01598351 0.00306332 0.00185449 0.00430005 0.01009125 0.00439109 0.02760331 0.00380919 0.00248569 0.09659413 0.02078567 0.00794937 0.01998440 0.00136682 
0.02947475 0.04147468 0.01593929 0.00308936 0.00184598 0.00434896 0.01043837 0.00438265 0.02819836 0.00384112 0.00251393 0.09853524 0.02112039 0.00786178 0.02033171 0.00136503 
0.03069933 0.04074855 0.01590757 0.00311342 0.00183682 0.00439695 0.01079357 0.00437070 0.02879683 0.00386976 0.00253975 0.10044119 0.02142359 0.00777805 0.02068149 0.00136302 
0.03189887 0.04002204 0.01588875 0.00313543 0.00182711 0.00444380 0.01115529 0.00435536 0.02939745 0.00389505 0.00256307 0.10229962 0.02169411 0.00769825 0.02103228 0.00136082 
0.03306776 0.03929860 0.01588315 0.00315530 0.00181694 0.00448927 0.01152188 0.00433681 0.02999895 0.00391690 0.00258381 0.10409842 0.02193094 0.00762242 0.02138261 0.00135843 
0.03420060 0.03858162 0.01589099 0.00317299 0.00180641 0.00453311 0.01189164 0.00431527 0.03060004 0.00393526 0.00260191 0.10582581 0.02213319 0.00755059 0.02173098 0.00135588 
0.03529220 0.03787432 0.01591238 0.00318847 0.00179565 0.00457509 0.01226283 0.00429101 0.03119940 0.00395009 0.00261730 0.10747046 0.02230011 0.00748274 0.02207590 0.00135318 
0.03633759 0.03717978 0.01594731 0.00320170 0.00178476 0.00461496 0.01263367 0.00426432 0.03179570 0.00396135 0.00262995 0.10902153 0.02243113 0.00741886 0.02241587 0.00135037 
0.03733207 0.03650091 0.01599570 0.00321269 0.00177387 0.00465248 0.01300235 0.00423554 0.03238760 0.00396905 0.00263982 0.11046874 0.02252578 0.00735891 0.02274940 0.00134745 
0.03827118 0.03584042 0.01605734 0.00322144 0.00176310 0.00468742 0.01336707 0.00420507 0.03297375 0.00397319 0.00264689 0.11180251 0.02258377 0.00730281 0.02307504 0.00134444 
0.03915075 0.03520086 0.01613195 0.00322798 0.00175259 0.00471956 0.01372599 0.00417331 0.03355278 0.00397378 0.00265113 0.11301393 0.02260497 0.00725050 0.02339137 0.00134137 
0.03996688 0.03458451 0.01621912 0.00323236 0.00174247 0.00474866 0.01407731 0.00414071 0.03412332 0.00397086 0.00265255 0.11409491 0.02258938 0.00720187 0.02369699 0.00133826 
0.04071601 0.03399349 0.01631836 0.00323464 0.00173287 0.00477454 0.01441923 0.00410776 0.03468401 0.00396449 0.00265115 0.11503821 0.02253718 0.00715682 0.02399058 0.00133513 
0.04139486 0.03342964 0.01642910 0.00323490 0.00172393 0.00479698 0.01475000 0.00407498 0.03523348 0.00395473 0.00264695 0.11583748 0.02244867 0.00711524 0.02427086 0.00133199 
0.04200049 0.03289458 0.01655065 0.00323322 0.00171579 0.00481580 0.01506791 0.00404291 0.03577035 0.00394167 0.00263998 0.11648735 0.02232433 0.00707699 0.02453663 0.00132888 
0.04253031 0.03238971 0.01668227 0.00322971 0.00170859 0.00483082 0.01537129 0.00401210 0.03629328 0.00392539 0.00263027 0.11698343 0.02216477 0.00704193 0.02478674 0.00132579 
0.04298206 0.03191616 0.01682313 0.00322450 0.00170246 0.00484190 0.01565855 0.00398315 0.03680091 0.00390601 0.00261789 0.11732236 0.02197075 0.00700994 0.02502017 0.00132277 
0.04335385 0.03147482 0.01697233 0.00321771 0.00169754 0.00484890 0.01592817 0.00395666 0.03729190 0.00388365 0.00260287 0.11750187 0.02174317 0.00698086 0.02523594 0.00131981 
0.04364414 0.03106634 0.01712890 0.00320950 0.00169396 0.00485168 0.01617871 0.00393324 0.03776493 0.00385844 0.00258530 0.11752077 0.02148307 0.00695454 0.02543320 0.00131695 
0.04385177 0.03069114 0.01729181 0.00320001 0.00169185 0.00485015 0.01640883 0.00391351 0.03821872 0.00383053 0.00256526 0.11737897 0.02119161 0.00693085 0.02561118 0.00131418 
0.04397596 0.03034937 0.01745999 0.00318943 0.00169133 0.00484423 0.01661729 0.00389812 0.03865198 0.00380007 0.00254281 0.11707749 0.02087009 0.00690963 0.02576923 0.00131154 
0.04401630 0.03004099 0.01763230 0.00317791 0.00169252 0.00483385 0.01680297 0.00388767 0.03906348 0.00376723 0.00251808 0.11661849 0.02051991 0.00689075 0.02590680 0.00130903 
0.04397279 0.02976572 0.01780758 0.00316566 0.00169552 0.00481898 0.01696485 0.00388281 0.03945200 0.00373218 0.00249114 0.11600521 0.02014259 0.00687406 0.02602346 0.00130667 
0.04384579 0.02952307 0.01798463 0.00315286 0.00170046 0.00479959 0.01710206 0.00388414 0.03981636 0.00369510 0.00246213 0.11524200 0.01973975 0.00685943 0.02611889 0.00130446 
0.04363607 0.02931235 0.01816224 0.00313972 0.00170741 0.00477570 0.01721384 0.00389227 0.04015545 0.00365618 0.00243115 0.11433427 0.01931311 0.00684674 0.02619289 0.00130242 
0.04334480 0.02913269 0.01833915 0.00312642 0.00171648 0.00474734 0.01729956 0.00390778 0.04046816 0.00361561 0.00239832 0.11328848 0.01886447 0.00683587 0.02624538 0.00130056 
0.04297351 0.02898304 0.01851413 0.00311318 0.00172773 0.00471455 0.01735874 0.00393124 0.04075347 0.00357361 0.00236379 0.11211208 0.01839571 0.00682671 0.02627639 0.00129888 
0.04252416 0.02886219 0.01868591 0.00310020 0.00174123 0.00467741 0.01739106 0.00396317 0.04101039 0.00353036 0.00232768 0.11081351 0.01790877 0.00681917 0.02628608 0.00129738 
0.04199906 0.02876880 0.01885326 0.00308770 0.00175706 0.00463602 0.01739631 0.00400407 0.04123799 0.00348607 0.00229013 0.10940208 0.01740566 0.00681316 0.02627472 0.00129608 
0.04140093 0.02870140 0.01901494 0.00307587 0.00177524 0.00459051 0.01737444 0.00405442 0.04143540 0.00344096 0.00225129 0.10788797 0.01688842 0.00680860 0.02624270 0.00129496 
0.04073286 0.02865840 0.01916973 0.00306491 0.00179581 0.00454102 0.01732556 0.00411464 0.04160184 0.00339523 0.00221131 0.10628217 0.01635915 0.00680543 0.02619050 0.00129405 
0.03999830 0.02863813 0.01931643 0.00305503 0.00181881 0.00448772 0.01724990 0.00418509 0.04173657 0.00334908 0.00217034 0.10459634 0.01581996 0.00680361 0.02611874 0.00129333 
0.03920107 0.02863885 0.01945389 0.00304642 0.00184424 0.00443080 0.01714786 0.00426613 0.04183893 0.00330273 0.00212853 0.10284282 0.01527299 0.00680309 0.02602811 0.00129279 
0.03834535 0.02865877 0.01958099 0.00303926 0.00187210 0.00437047 0.01701994 0.00435801 0.04190835 0.00325639 0.00208603 0.10103450 0.01472038 0.00680385 0.02591943 0.00129245 
0.03743564 0.02869605 0.01969664 0.00303372 0.00190237 0.00430696 0.01686684 0.00446097 0.04194432 0.00321024 0.00204300 0.09918475 0.01416426 0.00680588 0.02579359 0.00129230 
0.03647678 0.02874885 0.01979982 0.00302999 0.00193503 0.00424052 0.01668933 0.00457516 0.04194645 0.00316449 0.00199960 0.09730735 0.01360676 0.00680919 0.02565157 0.00129232 
0.03547392 0.02881531 0.01988955 0.00302820 0.00197004 0.00417142 0.01648834 0.00470068 0.04191439 0.00311932 0.00195597 0.09541637 0.01304999 0.00681379 0.02549444 0.00129251 
0.03443250 0.02889362 0.01996492 0.00302851 0.00200734 0.00409994 0.01626494 0.00483758 0.04184792 0.00307494 0.00191229 0.09352608 0.01249601 0.00681970 0.02532333 0.00129286 
0.03335825 0.02898196 0.02002507 0.00303104 0.00204688 0.00402638 0.01602027 0.00498580 0.04174688 0.00303150 0.00186868 0.09165090 0.01194686 0.00682696 0.02513945 0.00129336 
0.03225714 0.02907861 0.02006922 0.00303591 0.00208858 0.00395106 0.01575562 0.00514527 0.04161125 0.00298918 0.00182532 0.08980524 0.01140451 0.00683563 0.02494405 0.00129401 
0.03113539 0.02918187 0.02009665 0.00304323 0.00213234 0.00387430 0.01547235 0.00531581 0.04144106 0.00294815 0.00178233 0.08800345 0.01087090 0.00684576 0.02473845 0.00129478 
0.02999942 0.02929015 0.02010672 0.00305308 0.00217808 0.00379643 0.01517195 0.00549717 0.04123647 0.00290856 0.00173988 0.08625973 0.01034787 0.00685743 0.02452399 0.00129567 
0.02885585 0.02940195 0.02009887 0.00306552 0.00222567 0.00371781 0.01485595 0.00568906 0.04099774 0.00287054 0.00169810 0.08458798 0.00983721 0.00687072 0.02430205 0.00129666 
0.02771146 0.02951585 0.02007260 0.00308061 0.00227500 0.00363879 0.01452599 0.00589108 0.04072522 0.00283422 0.00165712 0.08300179 0.00934061 0.00688570 0.02407404 0.00129775 
0.02657316 0.02963058 0.02002751 0.00309837 0.00232594 0.00355971 0.01418374 0.00610280 0.04041937 0.00279974 0.00161707 0.08151427 0.00885969 0.00690248 0.02384138 0.00129890 
0.02544798 0.02974496 0.01996327 0.00311884 0.00237834 0.00348095 0.01383097 0.00632370 0.04008076 0.00276720 0.00157809 0.08013802 0.00839596 0.00692116 0.02360550 0.00130012 
0.02434300 0.02985796 0.01987964 0.00314199 0.00243207 0.00340286 0.01346944 0.00655319 0.03971007 0.00273668 0.00154029 0.07888501 0.00795085 0.00694183 0.02336780 0.00130138 
0.02326538 0.02996869 0.01977646 0.00316781 0.00248696 0.00332581 0.01310098 0.00679062 0.03930808 0.00270829 0.00150378 0.07776652 0.00752567 0.00696462 0.02312972 0.00130266 
0.02222226 0.03007639 0.01965364 0.00319625 0.00254286 0.00325016 0.01272743 0.00703529 0.03887568 0.00268208 0.00146868 0.07679308 0.00712162 0.00698962 0.02289262 0.00130396 
0.02122077 0.03018046 0.01951119 0.00322725 0.00259960 0.00317626 0.01235064 0.00728642 0.03841386 0.00265812 0.00143508 0.07597434 0.00673980 0.00701696 0.02265789 0.00130525 
0.02026800 0.03028044 0.01934918 0.00326074 0.00265700 0.00310446 0.01197247 0.00754321 0.03792372 0.00263644 0.00140308 0.07531909 0.00638119 0.00704673 0.02242684 0.00130652 
0.01937094 0.03037602 0.01916779 0.00329662 0.00271490 0.00303510 0.01159476 0.00780476 0.03740647 0.00261709 0.00137276 0.07483513 0.00604664 0.00707906 0.02220075 0.00130776 
0.01853645 0.03046702 0.01896724 0.00333477 0.00277311 0.00296852 0.01121932 0.00807015 0.03686342 0.00260007 0.00134421 0.07452926 0.00573690 0.00711405 0.02198086 0.00130895 
0.01777124 0.03055344 0.01874785 0.00337506 0.00283146 0.00290503 0.01084795 0.00833844 0.03629597 0.00258539 0.00131749 0.07440721 0.00545259 0.00715181 0.02176834 0.00131007 
0.01708181 0.03063539 0.01851002 0.00341734 0.00288977 0.00284495 0.01048239 0.00860861 0.03570563 0.00257304 0.00129267 0.07447362 0.00519421 0.00719243 0.02156429 0.00131111 
0.01647444 0.03071314 0.01825419 0.00346145 0.00294785 0.00278857 0.01012434 0.00887963 0.03509400 0.00256300 0.00126981 0.07473201 0.00496215 0.00723600 0.02136977 0.00131206 
0.01595515 0.03078705 0.01798090 0.00350720 0.00300554 0.00273615 0.00977545 0.00915045 0.03446278 0.00255523 0.00124894 0.07518475 0.00475665 0.00728262 0.02118572 0.00131290 
0.01552964 0.03085766 0.01769074 0.00355441 0.00306265 0.00268797 0.00943727 0.00941998 0.03381376 0.00254968 0.00123012 0.07583304 0.00457787 0.00733237 0.02101303 0.00131363 
0.01520329 0.03092556 0.01738436 0.00360286 0.00311902 0.00264425 0.00911130 0.00968715 0.03314880 0.00254630 0.00121338 0.07667691 0.00442583 0.00738530 0.02085251 0.00131423 
0.01498110 0.03099149 0.01706248 0.00365235 0.00317448 0.00260522 0.00879894 0.00995085 0.03246986 0.00254500 0.00119873 0.07771522 0.00430044 0.00744147 0.02070485 0.00131468 
0.01486768 0.03105627 0.01672587 0.00370265 0.00322887 0.00257108 0.00850151 0.01020998 0.03177895 0.00254570 0.00118619 0.07894566 0.00420151 0.00750094 0.02057069 0.00131499 
0.01486719 0.03112079 0.01637534 0.00375352 0.00328204 0.00254199 0.00822021 0.01046346 0.03107819 0.00254831 0.00117577 0.08036478 0.00412872 0.00756374 0.02045054 0.00131515 
0.01498336 0.03118602 0.01601175 0.00380472 0.00333383 0.00251811 0.00795615 0.01071019 0.03036973 0.00255271 0.00116747 0.08196800 0.00408167 0.00762989 0.02034484 0.00131514 
0.01521939 0.03125300 0.01563603 0.00385600 0.00338412 0.00249956 0.00771033 0.01094913 0.02965580 0.00255879 0.00116129 0.08374965 0.00405985 0.00769940 0.02025393 0.00131497 
0.01557800 0.03132279 0.01524912 0.00390712 0.00343277 0.00248643 0.00748364 0.01117924 0.02893866 0.00256642 0.00115719 0.08570299 0.00406266 0.00777226 0.02017804 0.00131462 
0.01606136 0.03139649 0.01485200 0.00395782 0.00347965 0.00247882 0.00727683 0.01139951 0.02822065 0.00257547 0.00115517 0.08782028 0.00408940 0.00784845 0.02011731 0.00131410 
0.01667106 0.03147524 0.01444568 0.00400785 0.00352467 0.00247675 0.00709054 0.01160898 0.02750412 0.00258580 0.00115519 0.09009281 0.00413929 0.00792794 0.02007181 0.00131340 
0.01740815 0.03156017 0.01403122 0.00405696 0.00356771 0.00248026 0.00692529 0.01180673 0.02679146 0.00259724 0.00115721 0.09251096 0.00421149 0.00801066 0.02004147 0.00131252 
0.01827305 0.03165239 0.01360967 0.00410489 0.00360869 0.00248932 0.00678148 0.01199189 0.02608509 0.00260965 0.00116119 0.09506426 0.00430505 0.00809657 0.02002617 0.00131147 
0.01926560 0.03175301 0.01318211 0.00415141 0.00364754 0.00250392 0.00665937 0.01216365 0.02538742 0.00262285 0.00116707 0.09774148 0.00441900 0.00818557 0.02002567 0.00131024 
0.02038501 0.03186311 0.01274966 0.00419627 0.00368418 0.00252399 0.00655910 0.01232125 0.02470091 0.00263669 0.00117480 0.10053065 0.00455228 0.00827756 0.02003967 0.00130884 
0.02162986 0.03198372 0.01231341 0.00423926 0.00371857 0.00254944 0.00648068 0.01246400 0.02402796 0.00265098 0.00118432 0.10341919 0.00470377 0.00837242 0.02006777 0.00130728 
0.02299810 0.03211580 0.01187448 0.00428015 0.00375065 0.00258016 0.00642400 0.01259128 0.02337101 0.00266556 0.00119555 0.10639395 0.00487232 0.00847004 0.02010950 0.00130555 
0.02448708 0.03226027 0.01143399 0.00431872 0.00378041 0.00261600 0.00638883 0.01270256 0.02273245 0.00268025 0.00120842 0.10944134 0.00505674 0.00857025 0.02016432 0.00130367 
0.02609348 0.03241797 0.01099306 0.00435480 0.00380781 0.00265681 0.00637481 0.01279735 0.02211464 0.00269486 0.00122285 0.11254735 0.00525580 0.00867289 0.02023160 0.00130165 
0.02781338 0.03258963 0.01055280 0.00438819 0.00383286 0.00270240 0.00638149 0.01287527 0.02151989 0.00270922 0.00123875 0.11569767 0.00546824 0.00877779 0.02031066 0.00129949 
0.02964227 0.03277591 0.01011432 0.00441874 0.00385556 0.00275255 0.00640829 0.01293602 0.02095049 0.00272315 0.00125603 0.11887779 0.00569277 0.00888475 0.02040079 0.00129720 
0.03157501 0.03297737 0.00967870 0.00444630 0.00387593 0.00280702 0.00645452 0.01297938 0.02040864 0.00273648 0.00127460 0.12207307 0.00592811 0.00899357 0.02050118 0.00129480 
0.03360589 0.03319445 0.00924704 0.00447073 0.00389398 0.00286558 0.00651940 0.01300519 0.01989646 0.00274903 0.00129436 0.12526882 0.00617295 0.00910402 0.02061099 0.00129230 
0.03572865 0.03342748 0.00882039 0.00449194 0.00390976 0.00292793 0.00660205 0.01301342 0.01941601 0.00276063 0.00131521 0.12845041 0.00642599 0.00921587 0.02072937 0.00128970 
0.03793648 0.03367669 0.00839978 0.00450982 0.00392332 0.00299379 0.00670152 0.01300409 0.01896925 0.00277113 0.00133704 0.13160334 0.00668592 0.00932888 0.02085540 0.00128703 
0.04022205 0.03394218 0.00798625 0.00452432 0.00393472 0.00306285 0.00681674 0.01297733 0.01855803 0.00278036 0.00135975 0.13471334 0.00695144 0.00944279 0.02098814 0.00128429 
0.04257758 0.03422392 0.00758077 0.00453539 0.00394401 0.00313478 0.00694661 0.01293333 0.01818408 0.00278817 0.00138321 0.13776641 0.00722128 0.00955733 0.02112664 0.00128150 
0.04499482 0.03452176 0.00718430 0.00454300 0.00395127 0.00320924 0.00708994 0.01287239 0.01784903 0.00279441 0.00140733 0.14074896 0.00749418 0.00967222 0.02126993 0.00127869 
0.04746509 0.03483545 0.00679778 0.00454716 0.00395658 0.00328588 0.00724548 0.01279486 0.01755434 0.00279896 0.00143199 0.14364786 0.00776890 0.00978719 0.02141704 0.00127585 
0.04997938 0.03516459 0.00642210 0.00454789 0.00396004 0.00336434 0.00741195 0.01270120 0.01730136 0.00280169 0.00145706 0.14645047 0.00804423 0.00990194 0.02156698 0.00127301 
0.05252830 0.03550869 0.00605812 0.00454524 0.00396173 0.00344426 0.00758801 0.01259191 0.01709128 0.00280249 0.00148244 0.14914478 0.00831901 0.01001619 0.02171878 0.00127018 
0.05510220 0.03586712 0.00570665 0.00453927 0.00396175 0.00352526 0.00777229 0.01246759 0.01692512 0.00280125 0.00150800 0.15171944 0.00859209 0.01012962 0.02187148 0.00126738 
0.05769118 0.03623916 0.00536849 0.00453008 0.00396021 0.00360696 0.00796341 0.01232890 0.01680374 0.00279788 0.00153362 0.15416380 0.00886238 0.01024194 0.02202413 0.00126462 
0.06028512 0.03662398 0.00504435 0.00451779 0.00395721 0.00368897 0.00815996 0.01217654 0.01672782 0.00279230 0.00155919 0.15646800 0.00912883 0.01035284 0.02217580 0.00126193 
0.06287377 0.03702064 0.00473495 0.00450254 0.00395287 0.00377093 0.00836052 0.01201129 0.01669786 0.00278446 0.00158459 0.15862298 0.00939044 0.01046202 0.02232560 0.00125931 
0.06544678 0.03742814 0.00444094 0.00448447 0.00394730 0.00385244 0.00856369 0.01183398 0.01671417 0.00277430 0.00160971 0.16062057 0.00964626 0.01056918 0.02247265 0.00125678 
0.06799374 0.03784538 0.00416291 0.00446378 0.00394060 0.00393313 0.00876807 0.01164548 0.01677688 0.00276179 0.00163441 0.16245346 0.00989540 0.01067403 0.02261612 0.00125435 
0.07050425 0.03827117 0.00390142 0.00444067 0.00393290 0.00401264 0.00897228 0.01144669 0.01688589 0.00274691 0.00165860 0.16411531 0.01013701 0.01077626 0.02275523 0.00125205 
0.07296796 0.03870428 0.00365700 0.00441535 0.00392431 0.00409060 0.00917496 0.01123857 0.01704093 0.00272966 0.00168216 0.16560070 0.01037032 0.01087559 0.02288921 0.00124988 
0.07537463 0.03914342 0.00343009 0.00438805 0.00391494 0.00416666 0.00937479 0.01102208 0.01724152 0.00271005 0.00170497 0.16690519 0.01059459 0.01097174 0.02301738 0.00124785 
0.07771417 0.03958725 0.00322111 0.00435903 0.00390490 0.00424047 0.00957051 0.01079822 0.01748696 0.00268811 0.00172693 0.16802534 0.01080917 0.01106444 0.02313908 0.00124599 
0.07997670 0.04003440 0.00303043 0.00432856 0.00389430 0.00431172 0.00976087 0.01056801 0.01777636 0.00266389 0.00174793 0.16895865 0.01101345 0.01115344 0.02325371 0.00124429 
0.08215261 0.04048348 0.00285837 0.00429691 0.00388325 0.00438008 0.00994471 0.01033245 0.01810862 0.00263745 0.00176788 0.16970366 0.01120690 0.01123847 0.02336072 0.00124278 
0.08423258 0.04093308 0.00270517 0.00426437 0.00387185 0.00444527 0.01012091 0.01009259 0.01848243 0.00260888 0.00178666 0.17025984 0.01138903 0.01131932 0.02345963 0.00124146 
0.08620768 0.04138178 0.00257107 0.00423123 0.00386021 0.00450699 0.01028844 0.00984942 0.01889630 0.00257828 0.00180419 0.17062765 0.01155944 0.01139576 0.02355001 0.00124034 
0.08806935 0.04182820 0.00245623 0.00419781 0.00384841 0.00456501 0.01044631 0.00960396 0.01934853 0.00254575 0.00182038 0.17080849 0.01171778 0.01146759 0.02363149 0.00123942 
0.08980948 0.04227094 0.00236076 0.00416440 0.00383654 0.00461907 0.01059364 0.00935722 0.01983722 0.00251144 0.00183513 0.17080469 0.01186374 0.01153463 0.02370374 0.00123873 
0.09142047 0.04270866 0.00228472 0.00413133 0.00382470 0.00466896 0.01072961 0.00911015 0.02036030 0.00247549 0.00184838 0.17061945 0.01199712 0.01159671 0.02376652 0.00123826 
0.09289524 0.04314004 0.00222815 0.00409890 0.00381296 0.00471449 0.01085350 0.00886372 0.02091553 0.00243806 0.00186004 0.17025684 0.01211773 0.01165368 0.02381963 0.00123801 
0.09422726 0.04356382 0.00219101 0.00406742 0.00380140 0.00475549 0.01096466 0.00861883 0.02150047 0.00239933 0.00187005 0.16972174 0.01222548 0.01170542 0.02386292 0.00123800 
0.09541062 0.04397878 0.00217323 0.00403720 0.00379008 0.00479182 0.01106255 0.00837637 0.02211257 0.00235951 0.00187833 0.16901983 0.01232030 0.01175183 0.02389631 0.00123822 
0.09644002 0.04438380 0.00217469 0.00400855 0.00377907 0.00482336 0.01114672 0.00813717 0.02274909 0.00231879 0.00188484 0.16815748 0.01240222 0.01179283 0.02391978 0.00123868 
0.09731083 0.04477779 0.00219523 0.00398174 0.00376842 0.00485001 0.01121679 0.00790205 0.02340718 0.00227740 0.00188953 0.16714174 0.01247130 0.01182836 0.02393335 0.00123938 
0.09801910 0.04515978 0.00223463 0.00395708 0.00375819 0.00487171 0.01127249 0.00767174 0.02408387 0.00223557 0.00189234 0.16598031 0.01252764 0.01185838 0.02393709 0.00124031 
0.09856156 0.04552886 0.00229266 0.00393482 0.00374843 0.00488842 0.01131365 0.00744694 0.02477606 0.00219355 0.00189324 0.16468142 0.01257143 0.01188289 0.02393112 0.00124148 
0.09893567 0.04588422 0.00236903 0.00391523 0.00373916 0.00490013 0.01134020 0.00722831 0.02548058 0.00215159 0.00189221 0.16325381 0.01260288 0.01190190 0.02391561 0.00124288 
0.09913962 0.04622515 0.00246340 0.00389854 0.00373043 0.00490685 0.01135212 0.00701644 0.02619419 0.00210996 0.00188922 0.16170668 0.01262224 0.01191545 0.02389077 0.00124451 
0.09917232 0.04655104 0.00257542 0.00388498 0.00372225 0.00490861 0.01134953 0.00681185 0.02691356 0.00206893 0.00188426 0.16004959 0.01262985 0.01192360 0.02385686 0.00124636 
0.09903344 0.04686137 0.00270468 0.00387475 0.00371466 0.00490549 0.01133261 0.00661504 0.02763534 0.00202877 0.00187732 0.15829242 0.01262605 0.01192644 0.02381416 0.00124844 
0.09872336 0.04715576 0.00285077 0.00386802 0.00370766 0.00489757 0.01130164 0.00642641 0.02835615 0.00198978 0.00186841 0.15644529 0.01261123 0.01192408 0.02376300 0.00125073 
0.09824323 0.04743390 0.00301321 0.00386497 0.00370128 0.00488497 0.01125696 0.00624632 0.02907262 0.00195223 0.00185754 0.15451853 0.01258584 0.01191664 0.02370372 0.00125322 
0.09759488 0.04769560 0.00319152 0.00386571 0.00369551 0.00486782 0.01119900 0.00607509 0.02978135 0.00191641 0.00184474 0.15252256 0.01255034 0.01190429 0.02363670 0.00125591 
0.09678091 0.04794079 0.00338518 0.00387037 0.00369035 0.00484629 0.01112828 0.00591295 0.03047902 0.00188262 0.00183002 0.15046787 0.01250524 0.01188719 0.02356234 0.00125878 
0.09580456 0.04816947 0.00359364 0.00387902 0.00368581 0.00482056 0.01104537 0.00576009 0.03116232 0.00185114 0.00181344 0.14836495 0.01245107 0.01186555 0.02348107 0.00126184 
0.09466981 0.04838178 0.00381635 0.00389172 0.00368187 0.00479082 0.01095091 0.00561665 0.03182804 0.00182226 0.00179504 0.14622421 0.01238840 0.01183957 0.02339331 0.00126506 
0.09338125 0.04857794 0.00405271 0.00390849 0.00367852 0.00475731 0.01084559 0.00548271 0.03247304 0.00179625 0.00177487 0.14405593 0.01231782 0.01180948 0.02329952 0.00126844 
0.09194411 0.04875827 0.00430211 0.00392933 0.00367575 0.00472026 0.01073018 0.00535829 0.03309427 0.00177340 0.00175302 0.14187022 0.01223995 0.01177554 0.02320014 0.00127195 
0.09036424 0.04892317 0.00456395 0.00395422 0.00367354 0.00467992 0.01060547 0.00524337 0.03368885 0.00175396 0.00172955 0.13967692 0.01215542 0.01173799 0.02309564 0.00127560 
0.08864804 0.04907314 0.00483757 0.00398310 0.00367186 0.00463657 0.01047231 0.00513790 0.03425399 0.00173820 0.00170455 0.13748562 0.01206490 0.01169711 0.02298648 0.00127937 
0.08680246 0.04920875 0.00512234 0.00401586 0.00367069 0.00459048 0.01033158 0.00504176 0.03478709 0.00172636 0.00167811 0.13530553 0.01196905 0.01165318 0.02287312 0.00128324 
0.08483492 0.04933066 0.00541759 0.00405241 0.00367001 0.00454196 0.01018419 0.00495481 0.03528571 0.00171867 0.00165035 0.13314548 0.01186856 0.01160650 0.02275600 0.00128720 
0.08275331 0.04943955 0.00572265 0.00409259 0.00366978 0.00449129 0.01003109 0.00487688 0.03574761 0.00171535 0.00162137 0.13101387 0.01176413 0.01155735 0.02263559 0.00129124 
0.08056595 0.04953622 0.00603685 0.00413623 0.00366997 0.00443881 0.00987322 0.00480774 0.03617073 0.00171661 0.00159131 0.12891866 0.01165648 0.01150604 0.02251230 0.00129534 
0.07828151 0.04962146 0.00635952 0.00418314 0.00367054 0.00438481 0.00971157 0.00474716 0.03655325 0.00172262 0.00156028 0.12686725 0.01154632 0.01145286 0.02238656 0.00129949 
0.07590898 0.04969615 0.00668995 0.00423307 0.00367146 0.00432962 0.00954711 0.00469487 0.03689357 0.00173357 0.00152844 0.12486656 0.01143438 0.01139812 0.02225878 0.00130367 
0.07345765 0.04976117 0.00702748 0.00428580 0.00367270 0.00427356 0.00938081 0.00465060 0.03719032 0.00174959 0.00149592 0.12292293 0.01132137 0.01134213 0.02212933 0.00130787 
0.07093703 0.04981743 0.00737141 0.00434104 0.00367421 0.00421696 0.00921366 0.00461403 0.03744239 0.00177081 0.00146289 0.12104211 0.01120804 0.01128516 0.02199858 0.00131208 
0.06835681 0.04986587 0.00772106 0.00439849 0.00367594 0.00416014 0.00904663 0.00458487 0.03764890 0.00179733 0.00142950 0.11922925 0.01109509 0.01122751 0.02186687 0.00131627 
0.06572683 0.04990742 0.00807574 0.00445785 0.00367787 0.00410341 0.00888065 0.00456278 0.03780925 0.00182924 0.00139593 0.11748892 0.01098325 0.01116946 0.02173451 0.00132044 
0.06305701 0.04994302 0.00843478 0.00451877 0.00367995 0.00404708 0.00871668 0.00454745 0.03792311 0.00186658 0.00136235 0.11582504 0.01087324 0.01111127 0.02160179 0.00132457 
0.06035731 0.04997358 0.00879750 0.00458091 0.00368212 0.00399147 0.00855561 0.00453854 0.03799039 0.00190940 0.00132895 0.11424091 0.01076577 0.01105320 0.02146897 0.00132866 
0.05763768 0.05000000 0.00916322 0.00464389 0.00368436 0.00393688 0.00839833 0.00453572 0.03801129 0.00195769 0.00129590 0.11273921 0.01066152 0.01099549 0.02133628 0.00133267 
0.05490805 0.05002315 0.00953129 0.00470735 0.00368661 0.00388358 0.00824570 0.00453869 0.03798627 0.00201144 0.00126339 0.11132200 0.01056119 0.01093837 0.02120392 0.00133662 
0.05217821 0.05004386 0.00990103 0.00477089 0.00368882 0.00383187 0.00809853 0.00454712 0.03791605 0.00207059 0.00123163 0.10999073 0.01046543 0.01088203 0.02107207 0.00134047 
0.04945785 0.05006292 0.01027181 0.00483412 0.00369096 0.00378200 0.00795760 0.00456071 0.03780161 0.00213507 0.00120080 0.10874625 0.01037490 0.01082668 0.02094086 0.00134422 
0.04675645 0.05008107 0.01064296 0.00489662 0.00369296 0.00373422 0.00782364 0.00457917 0.03764419 0.00220478 0.00117110 0.10758882 0.01029023 0.01077247 0.02081041 0.00134786 
0.04408329 0.05009897 0.01101385 0.00495801 0.00369480 0.00368879 0.00769735 0.00460223 0.03744527 0.00227960 0.00114273 0.10651813 0.01021203 0.01071955 0.02068080 0.00135138 
0.04144738 0.05011724 0.01138385 0.00501786 0.00369641 0.00364591 0.00757938 0.00462962 0.03720656 0.00235936 0.00111589 0.10553336 0.01014088 0.01066804 0.02055208 0.00135477 
0.03885744 0.05013641 0.01175232 0.00507577 0.00369775 0.00360579 0.00747033 0.00466111 0.03693002 0.00244388 0.00109078 0.10463313 0.01007734 0.01061806 0.02042427 0.00135801 
0.03632186 0.05015695 0.01211865 0.00513133 0.00369877 0.00356863 0.00737076 0.00469646 0.03661780 0.00253296 0.00106758 0.10381560 0.01002193 0.01056967 0.02029738 0.00136111 
0.03384869 0.05017921 0.01248221 0.00518416 0.00369942 0.00353459 0.00728117 0.00473549 0.03627225 0.00262637 0.00104649 0.10307847 0.00997516 0.01052293 0.02017136 0.00136405 
0.03144557 0.05020351 0.01284241 0.00523386 0.00369965 0.00350382 0.00720202 0.00477801 0.03589591 0.00272384 0.00102769 0.10241902 0.00993750 0.01047788 0.02004617 0.00136683 
0.02911973 0.05023003 0.01319863 0.00528006 0.00369942 0.00347647 0.00713372 0.00482384 0.03549150 0.00282509 0.00101138 0.10183412 0.00990936 0.01043453 0.01992172 0.00136944 
0.02687800 0.05025890 0.01355028 0.00532239 0.00369867 0.00345264 0.00707663 0.00487286 0.03506187 0.00292983 0.00099771 0.10132031 0.00989115 0.01039287 0.01979792 0.00137188 
0.02472671 0.05029013 0.01389675 0.00536049 0.00369736 0.00343243 0.00703105 0.00492493 0.03461001 0.00303772 0.00098687 0.10087381 0.00988321 0.01035286 0.01967464 0.00137414 
0.02267176 0.05032364 0.01423746 0.00539405 0.00369544 0.00341591 0.00699725 0.00497996 0.03413903 0.00314843 0.00097900 0.10049057 0.00988586 0.01031446 0.01955176 0.00137622 
0.02071855 0.05035927 0.01457182 0.00542273 0.00369285 0.00340316 0.00697545 0.00503785 0.03365211 0.00326158 0.00097426 0.10016631 0.00989937 0.01027759 0.01942912 0.00137811 
0.01887198 0.05039676 0.01489924 0.00544627 0.00368956 0.00339420 0.00696581 0.00509854 0.03315254 0.00337680 0.00097279 0.09989654 0.00992396 0.01024217 0.01930656 0.00137981 
0.01713647 0.05043576 0.01521914 0.00546437 0.00368551 0.00338906 0.00696846 0.00516197 0.03264362 0.00349370 0.00097471 0.09967664 0.00995980 0.01020810 0.01918392 0.00138133 
0.01551591 0.05047582 0.01553094 0.00547681 0.00368066 0.00338775 0.00698349 0.00522809 0.03212870 0.00361186 0.00098013 0.09950185 0.01000703 0.01017526 0.01906101 0.00138265 
0.01401369 0.05051643 0.01583405 0.00548336 0.00367497 0.00339025 0.00701094 0.00529688 0.03161114 0.00373088 0.00098916 0.09936737 0.01006573 0.01014351 0.01893766 0.00138379 
0.01263269 0.05055697 0.01612790 0.00548384 0.00366839 0.00339654 0.00705081 0.00536831 0.03109428 0.00385030 0.00100187 0.09926835 0.01013592 0.01011273 0.01881369 0.00138474 
0.01137528 0.05059677 0.01641191 0.00547807 0.00366089 0.00340657 0.00710309 0.00544236 0.03058142 0.00396971 0.00101833 0.09919995 0.01021759 0.01008278 0.01868893 0.00138550 
0.01024335 0.05063507 0.01668552 0.00546594 0.00365241 0.00342028 0.00716769 0.00551903 0.03007582 0.00408866 0.00103860 0.09915736 0.01031066 0.01005349 0.01856322 0.00138609 
0.00923827 0.05067107 0.01694814 0.00544734 0.00364293 0.00343761 0.00724453 0.00559829 0.02958064 0.00420670 0.00106271 0.09913587 0.01041500 0.01002472 0.01843638 0.00138648 
0.00836094 0.05070387 0.01719921 0.00542221 0.00363241 0.00345847 0.00733348 0.00568016 0.02909896 0.00432339 0.00109066 0.09913087 0.01053044 0.00999632 0.01830829 0.00138671 
0.00761179 0.05073255 0.01743817 0.00539050 0.00362082 0.00348277 0.00743438 0.00576460 0.02863376 0.00443829 0.00112246 0.09913790 0.01065674 0.00996814 0.01817881 0.00138675 
0.00699079 0.05075616 0.01766445 0.00535222 0.00360813 0.00351039 0.00754706 0.00585159 0.02818785 0.00455095 0.00115809 0.09915267 0.01079363 0.00994004 0.01804784 0.00138663 
0.00649746 0.05077368 0.01787750 0.00530740 0.00359431 0.00354124 0.00767131 0.00594112 0.02776392 0.00466093 0.00119748 0.09917109 0.01094075 0.00991189 0.01791528 0.00138635 
0.00613091 0.05078408 0.01807678 0.00525610 0.00357935 0.00357519 0.00780691 0.00603314 0.02736448 0.00476782 0.00124058 0.09918932 0.01109774 0.00988355 0.01778109 0.00138591 
0.00588984 0.05078632 0.01826174 0.00519842 0.00356321 0.00361210 0.00795360 0.00612760 0.02699187 0.00487119 0.00128730 0.09920375 0.01126415 0.00985492 0.01764522 0.00138531 
0.00577255 0.05077935 0.01843186 0.00513448 0.00354589 0.00365186 0.00811113 0.00622444 0.02664823 0.00497064 0.00133753 0.09921105 0.01143950 0.00982591 0.01750767 0.00138457 
0.00577699 0.05076211 0.01858663 0.00506445 0.00352738 0.00369432 0.00827922 0.00632357 0.02633549 0.00506578 0.00139114 0.09920818 0.01162326 0.00979643 0.01736848 0.00138369 
0.00590075 0.05073356 0.01872554 0.00498853 0.00350768 0.00373934 0.00845756 0.00642489 0.02605538 0.00515623 0.00144798 0.09919241 0.01181485 0.00976642 0.01722770 0.00138267 
0.00614112 0.05069269 0.01884811 0.00490694 0.00348677 0.00378678 0.00864584 0.00652828 0.02580939 0.00524164 0.00150786 0.09916132 0.01201366 0.00973586 0.01708546 0.00138153 
0.00649506 0.05063851 0.01895387 0.00481993 0.00346467 0.00383650 0.00884374 0.00663360 0.02559880 0.00532168 0.00157060 0.09911283 0.01221904 0.00970472 0.01694187 0.00138027 
0.00695928 0.05057007 0.01904240 0.00472780 0.00344138 0.00388836 0.00905092 0.00674069 0.02542464 0.00539602 0.00163598 0.09904520 0.01243029 0.00967302 0.01679713 0.00137889 
0.00753022 0.05048648 0.01911328 0.00463085 0.00341692 0.00394222 0.00926702 0.00684934 0.02528770 0.00546438 0.00170377 0.09895702 0.01264670 0.00964079 0.01665146 0.00137742 
0.00820409 0.05038691 0.01916611 0.00452942 0.00339132 0.00399795 0.00949167 0.00695936 0.02518854 0.00552650 0.00177369 0.09884722 0.01286751 0.00960811 0.01650512 0.00137584 
0.00897690 0.05027057 0.01920056 0.00442388 0.00336458 0.00405541 0.00972451 0.00707051 0.02512749 0.00558214 0.00184549 0.09871510 0.01309195 0.00957505 0.01635841 0.00137418 
0.00984446 0.05013679 0.01921630 0.00431462 0.00333676 0.00411446 0.00996514 0.00718251 0.02510461 0.00563108 0.00191887 0.09856027 0.01331922 0.00954175 0.01621168 0.00137243 
0.01080243 0.04998496 0.01921305 0.00420205 0.00330788 0.00417500 0.01021315 0.00729510 0.02511976 0.00567314 0.00199351 0.09838269 0.01354852 0.00950836 0.01606532 0.00137061 
0.01184631 0.04981458 0.01919059 0.00408659 0.00327799 0.00423690 0.01046812 0.00740796 0.02517254 0.00570818 0.00206910 0.09818265 0.01377901 0.00947504 0.01591976 0.00136872 
0.01297151 0.04962522 0.01914872 0.00396870 0.00324713 0.00430004 0.01072964 0.00752076 0.02526237 0.00573607 0.00214528 0.09796075 0.01400987 0.00944202 0.01577547 0.00136677 
0.01417330 0.04941658 0.01908731 0.00384885 0.00321536 0.00436433 0.01099725 0.00763314 0.02538841 0.00575673 0.00222171 0.09771792 0.01424027 0.00940951 0.01563295 0.00136477 
0.01544690 0.04918848 0.01900627 0.00372750 0.00318274 0.00442966 0.01127049 0.00774475 0.02554965 0.00577008 0.00229803 0.09745536 0.01446938 0.00937779 0.01549275 0.00136273 
0.01678745 0.04894085 0.01890557 0.00360515 0.00314934 0.00449594 0.01154889 0.00785519 0.02574487 0.00577612 0.00237385 0.09717455 0.01469637 0.00934714 0.01535545 0.00136064 
0.01819005 0.04867373 0.01878525 0.00348230 0.00311522 0.00456309 0.01183196 0.00796405 0.02597267 0.00577484 0.00244880 0.09687725 0.01492043 0.00931788 0.01522165 0.00135852 
0.01964977 0.04838730 0.01864539 0.00335945 0.00308045 0.00463103 0.01211918 0.00807091 0.02623148 0.00576628 0.00252249 0.09656545 0.01514077 0.00929032 0.01509200 0.00135637 
0.02116168 0.04808186 0.01848616 0.00323712 0.00304512 0.00469969 0.01241002 0.00817536 0.02651960 0.00575052 0.00259452 0.09624137 0.01535663 0.00926483 0.01496715 0.00135420 
0.02272081 0.04775786 0.01830778 0.00311582 0.00300932 0.00476901 0.01270395 0.00827694 0.02683515 0.00572764 0.00266451 0.09590744 0.01556726 0.00924177 0.01484781 0.00135202 
0.02432227 0.04741587 0.01811056 0.00299607 0.00297311 0.00483892 0.01300039 0.00837522 0.02717617 0.00569779 0.00273206 0.09556627 0.01577194 0.00922153 0.01473466 0.00134983 
0.02596113 0.04705658 0.01789486 0.00287837 0.00293660 0.00490938 0.01329876 0.00846975 0.02754056 0.00566113 0.00279677 0.09522061 0.01597001 0.00920451 0.01462844 0.00134763 
0.02763255 0.04668084 0.01766112 0.00276324 0.00289988 0.00498034 0.01359844 0.00856009 0.02792614 0.00561784 0.00285827 0.09487338 0.01616082 0.00919112 0.01452987 0.00134543 
0.02933171 0.04628960 0.01740987 0.00265118 0.00286304 0.00505176 0.01389882 0.00864579 0.02833067 0.00556815 0.00291617 0.09452761 0.01634378 0.00918176 0.01443968 0.00134324 
0.03105387 0.04588397 0.01714170 0.00254267 0.00282617 0.00512360 0.01419923 0.00872643 0.02875184 0.00551230 0.00297011 0.09418640 0.01651835 0.00917686 0.01435863 0.00134107 
0.03279433 0.04546517 0.01685729 0.00243819 0.00278938 0.00519582 0.01449901 0.00880158 0.02918730 0.00545056 0.00301973 0.09385294 0.01668403 0.00917683 0.01428742 0.00133890 
0.03454850 0.04503452 0.01655739 0.00233821 0.00275277 0.00526840 0.01479746 0.00887084 0.02963468 0.00538323 0.00306469 0.09353045 0.01684037 0.00918209 0.01422681 0.00133675 
0.03631185 0.04459351 0.01624281 0.00224319 0.00271642 0.00534130 0.01509388 0.00893381 0.03009161 0.00531062 0.00310467 0.09322217 0.01698701 0.00919304 0.01417748 0.00133463 
0.03807994 0.04414368 0.01591447 0.00215354 0.00268045 0.00541449 0.01538752 0.00899014 0.03055574 0.00523306 0.00313935 0.09293136 0.01712359 0.00921008 0.01414014 0.00133253 
0.03984841 0.04368672 0.01557333 0.00206969 0.00264493 0.00548794 0.01567765 0.00903947 0.03102471 0.00515093 0.00316847 0.09266122 0.01724987 0.00923360 0.01411545 0.00133045 
0.04161304 0.04322439 0.01522046 0.00199202 0.00260998 0.00556161 0.01596349 0.00908149 0.03149624 0.00506457 0.00319175 0.09241492 0.01736562 0.00926395 0.01410405 0.00132841 
0.04336965 0.04275855 0.01485695 0.00192090 0.00257568 0.00563547 0.01624425 0.00911592 0.03196808 0.00497439 0.00320897 0.09219556 0.01747070 0.00930148 0.01410654 0.00132641 
0.04511423 0.04229115 0.01448401 0.00185666 0.00254212 0.00570947 0.01651915 0.00914252 0.03243807 0.00488078 0.00321992 0.09200613 0.01756503 0.00934652 0.01412349 0.00132443 
0.04684282 0.04182420 0.01410288 0.00179962 0.00250938 0.00578358 0.01678738 0.00916106 0.03290411 0.00478416 0.00322444 0.09184954 0.01764857 0.00939936 0.01415542 0.00132250 
0.04855160 0.04135977 0.01371486 0.00175007 0.00247756 0.00585773 0.01704812 0.00917137 0.03336420 0.00468493 0.00322238 0.09172852 0.01772138 0.00946026 0.01420279 0.00132061 
0.05023686 0.04089999 0.01332133 0.00170825 0.00244671 0.00593186 0.01730055 0.00917333 0.03381646 0.00458352 0.00321364 0.09164569 0.01778353 0.00952946 0.01426603 0.00131876 
0.05189499 0.04044703 0.01292370 0.00167438 0.00241692 0.00600592 0.01754385 0.00916685 0.03425908 0.00448037 0.00319815 0.09160347 0.01783518 0.00960715 0.01434548 0.00131695 
0.05352251 0.04000308 0.01252342 0.00164867 0.00238825 0.00607981 0.01777720 0.00915188 0.03469042 0.00437589 0.00317588 0.09160411 0.01787653 0.00969350 0.01444146 0.00131519 
0.05511604 0.03957038 0.01212200 0.00163126 0.00236077 0.00615345 0.01799978 0.00912844 0.03510893 0.00427053 0.00314684 0.09164966 0.01790786 0.00978861 0.01455419 0.00131347 
0.05667232 0.03915113 0.01172098 0.00162227 0.00233452 0.00622675 0.01821078 0.00909657 0.03551320 0.00416469 0.00311109 0.09174193 0.01792945 0.00989258 0.01468383 0.00131180 
0.05818821 0.03874758 0.01132192 0.00162180 0.00230955 0.00629958 0.01840941 0.00905638 0.03590196 0.00405882 0.00306871 0.09188252 0.01794168 0.01000543 0.01483047 0.00131017 
0.05966068 0.03836193 0.01092639 0.00162990 0.00228590 0.00637184 0.01859490 0.00900803 0.03627408 0.00395331 0.00301983 0.09207279 0.01794493 0.01012716 0.01499412 0.00130860 
0.06108683 0.03799636 0.01053601 0.00164658 0.00226361 0.00644337 0.01876649 0.00895172 0.03662856 0.00384859 0.00296465 0.09231382 0.01793964 0.01025771 0.01517474 0.00130707 
0.06246388 0.03765302 0.01015237 0.00167182 0.00224269 0.00651404 0.01892346 0.00888770 0.03696455 0.00374503 0.00290337 0.09260646 0.01792628 0.01039699 0.01537216 0.00130560 
0.06378914 0.03733401 0.00977709 0.00170558 0.00222318 0.00658368 0.01906511 0.00881628 0.03728132 0.00364304 0.00283627 0.09295127 0.01790534 0.01054484 0.01558617 0.00130417 
0.06506007 0.03704137 0.00941175 0.00174776 0.00220507 0.00665211 0.01919078 0.00873782 0.03757831 0.00354298 0.00276365 0.09334853 0.01787735 0.01070107 0.01581646 0.00130279 
0.06627425 0.03677705 0.00905794 0.00179823 0.00218838 0.00671915 0.01929986 0.00865270 0.03785505 0.00344521 0.00268586 0.09379824 0.01784284 0.01086545 0.01606266 0.00130146 
0.06742937 0.03654295 0.00871722 0.00185685 0.00217309 0.00678459 0.01939177 0.00856138 0.03811123 0.00335007 0.00260330 0.09430014 0.01780236 0.01103769 0.01632428 0.00130018 
0.06852325 0.03634085 0.00839112 0.00192342 0.00215919 0.00684822 0.01946600 0.00846435 0.03834665 0.00325787 0.00251641 0.09485365 0.01775649 0.01121745 0.01660078 0.00129895 
0.06955382 0.03617244 0.00808112 0.00199770 0.00214668 0.00690981 0.01952209 0.00836214 0.03856124 0.00316893 0.00242567 0.09545791 0.01770578 0.01140438 0.01689152 0.00129777 
0.07051917 0.03603930 0.00778867 0.00207946 0.00213552 0.00696913 0.01955963 0.00825533 0.03875503 0.00308352 0.00233158 0.09611178 0.01765079 0.01159805 0.01719580 0.00129664 
0.07141747 0.03594288 0.00751517 0.00216839 0.00212568 0.00702592 0.01957828 0.00814452 0.03892814 0.00300192 0.00223470 0.09681383 0.01759208 0.01179802 0.01751283 0.00129556 
0.07224706 0.03588451 0.00726195 0.00226418 0.00211713 0.00707993 0.01957779 0.00803037 0.03908080 0.00292436 0.00213563 0.09756235 0.01753020 0.01200378 0.01784174 0.00129452 
0.07300640 0.03586537 0.00703026 0.00236648 0.00210981 0.00713090 0.01955794 0.00791355 0.03921334 0.00285106 0.00203498 0.09835536 0.01746566 0.01221483 0.01818160 0.00129353 
0.07369407 0.03588652 0.00682130 0.00247493 0.00210370 0.00717854 0.01951861 0.00779476 0.03932613 0.00278222 0.00193341 0.09919061 0.01739897 0.01243059 0.01853140 0.00129258 
0.07430880 0.03594883 0.00663618 0.00258913 0.00209873 0.00722258 0.01945978 0.00767473 0.03941962 0.00271803 0.00183160 0.10006559 0.01733061 0.01265048 0.01889007 0.00129168 
0.07484946 0.03605306 0.00647593 0.00270865 0.00209484 0.00726274 0.01938147 0.00755421 0.03949434 0.00265863 0.00173025 0.10097754 0.01726102 0.01287389 0.01925648 0.00129082 
0.07531504 0.03619977 0.00634147 0.00283306 0.00209199 0.00729873 0.01928381 0.00743396 0.03955084 0.00260416 0.00163010 0.10192346 0.01719061 0.01310017 0.01962944 0.00129001 
0.07570469 0.03638939 0.00623365 0.00296189 0.00209011 0.00733028 0.01916701 0.00731477 0.03958970 0.00255473 0.00153189 0.10290013 0.01711975 0.01332868 0.02000771 0.00128924 
0.07601771 0.03662214 0.00615320 0.00309468 0.00208913 0.00735710 0.01903136 0.00719742 0.03961156 0.00251042 0.00143638 0.10390413 0.01704877 0.01355873 0.02039002 0.00128850 
0.07625353 0.03689811 0.00610076 0.00323092 0.00208900 0.00737891 0.01887725 0.00708269 0.03961705 0.00247131 0.00134435 0.10493183 0.01697797 0.01378964 0.02077502 0.00128781 
0.07641173 0.03721720 0.00607683 0.00337012 0.00208964 0.00739544 0.01870515 0.00697138 0.03960682 0.00243745 0.00125658 0.10597944 0.01690757 0.01402072 0.02116137 0.00128715 
0.07649207 0.03757913 0.00608185 0.00351175 0.00209101 0.00740644 0.01851562 0.00686428 0.03958151 0.00240886 0.00117385 0.10704299 0.01683777 0.01425126 0.02154768 0.00128653 
0.07649444 0.03798346 0.00611610 0.00365529 0.00209302 0.00741164 0.01830930 0.00676215 0.03954177 0.00238555 0.00109694 0.10811839 0.01676872 0.01448056 0.02193253 0.00128594 
0.07641888 0.03842958 0.00617977 0.00380023 0.00209563 0.00741080 0.01808693 0.00666577 0.03948820 0.00236751 0.00102664 0.10920143 0.01670051 0.01470793 0.02231451 0.00128539 
0.07626560 0.03891668 0.00627292 0.00394601 0.00209878 0.00740372 0.01784931 0.00657587 0.03942141 0.00235472 0.00096370 0.11028781 0.01663318 0.01493266 0.02269218 0.00128487 
0.07603499 0.03944383 0.00639551 0.00409212 0.00210240 0.00739018 0.01759735 0.00649318 0.03934197 0.00234713 0.00090889 0.11137312 0.01656672 0.01515408 0.02306411 0.00128437 
0.07572756 0.04000990 0.00654737 0.00423801 0.00210646 0.00736999 0.01733201 0.00641839 0.03925038 0.00234469 0.00086293 0.11245296 0.01650109 0.01537152 0.02342887 0.00128390 
0.07534403 0.04061362 0.00672821 0.00438316 0.00211089 0.00734299 0.01705434 0.00635218 0.03914716 0.00234732 0.00082654 0.11352285 0.01643617 0.01558432 0.02378505 0.00128346 
0.07488524 0.04125355 0.00693765 0.00452706 0.00211567 0.00730905 0.01676545 0.00629519 0.03903272 0.00235493 0.00080039 0.11457835 0.01637183 0.01579185 0.02413126 0.00128304 
0.07435224 0.04192812 0.00717517 0.00466917 0.00212075 0.00726805 0.01646652 0.00624800 0.03890746 0.00236743 0.00078515 0.11561502 0.01630786 0.01599351 0.02446613 0.00128264 
0.07374620 0.04263560 0.00744016 0.00480901 0.00212610 0.00721991 0.01615879 0.00621118 0.03877170 0.00238471 0.00078142 0.11662847 0.01624405 0.01618871 0.02478833 0.00128226 
0.07306851 0.04337414 0.00773189 0.00494609 0.00213170 0.00716457 0.01584355 0.00618523 0.03862574 0.00240665 0.00078977 0.11761440 0.01618011 0.01637691 0.02509657 0.00128190 
0.07232067 0.04414175 0.00804954 0.00507991 0.00213753 0.00710201 0.01552213 0.00617064 0.03846979 0.00243312 0.00081074 0.11856861 0.01611575 0.01655758 0.02538961 0.00128156 
0.07150439 0.04493634 0.00839219 0.00521004 0.00214358 0.00703224 0.01519592 0.00616781 0.03830401 0.00246398 0.00084479 0.11948701 0.01605064 0.01673024 0.02566625 0.00128123 
0.07062153 0.04575569 0.00875883 0.00533604 0.00214984 0.00695531 0.01486632 0.00617712 0.03812851 0.00249910 0.00089236 0.12036568 0.01598442 0.01689445 0.02592538 0.00128092 
0.06967409 0.04659749 0.00914835 0.00545747 0.00215632 0.00687130 0.01453476 0.00619887 0.03794335 0.00253833 0.00095382 0.12120088 0.01591671 0.01704979 0.02616592 0.00128062 
0.06866427 0.04745935 0.00955956 0.00557396 0.00216303 0.00678033 0.01420272 0.00623333 0.03774852 0.00258151 0.00102946 0.12198906 0.01584712 0.01719591 0.02638690 0.00128032 
0.06759441 0.04833879 0.00999121 0.00568512 0.00216998 0.00668256 0.01387164 0.00628068 0.03754397 0.00262848 0.00111953 0.12272690 0.01577525 0.01733249 0.02658739 0.00128004 
0.06646699 0.04923325 0.01044197 0.00579062 0.00217720 0.00657817 0.01354301 0.00634108 0.03732960 0.00267910 0.00122422 0.12341133 0.01570069 0.01745923 0.02676658 0.00127976 
0.06528467 0.05014013 0.01091045 0.00589014 0.00218472 0.00646740 0.01321828 0.00641460 0.03710527 0.00273318 0.00134363 0.12403954 0.01562303 0.01757591 0.02692372 0.00127950 
0.06405024 0.05105679 0.01139521 0.00598339 0.00219258 0.00635052 0.01289891 0.00650125 0.03687078 0.00279058 0.00147780 0.12460903 0.01554188 0.01768233 0.02705815 0.00127924 
0.06276663 0.05198052 0.01189475 0.00607011 0.00220081 0.00622783 0.01258632 0.00660101 0.03662594 0.00285112 0.00162669 0.12511759 0.01545684 0.01777835 0.02716932 0.00127898 
0.06143692 0.05290863 0.01240754 0.00615006 0.00220948 0.00609968 0.01228192 0.00671375 0.03637048 0.00291465 0.00179020 0.12556334 0.01536753 0.01786388 0.02725678 0.00127873 
0.06006430 0.05383839 0.01293201 0.00622307 0.00221863 0.00596646 0.01198707 0.00683932 0.03610414 0.00298099 0.00196815 0.12594474 0.01527361 0.01793886 0.02732016 0.00127849 
0.05865212 0.05476707 0.01346658 0.00628895 0.00222832 0.00582857 0.01170308 0.00697748 0.03582662 0.00304997 0.00216027 0.12626062 0.01517476 0.01800327 0.02735920 0.00127825 
0.05720380 0.05569195 0.01400963 0.00634757 0.00223862 0.00568647 0.01143123 0.00712795 0.03553764 0.00312144 0.00236624 0.12651014 0.01507068 0.01805716 0.02737377 0.00127802 
0.05572290 0.05661034 0.01455954 0.00639884 0.00224959 0.00554064 0.01117271 0.00729038 0.03523689 0.00319524 0.00258564 0.12669288 0.01496111 0.01810061 0.02736381 0.00127780 
0.05421308 0.05751958 0.01511471 0.00644269 0.00226131 0.00539159 0.01092866 0.00746435 0.03492406 0.00327118 0.00281799 0.12680875 0.01484584 0.01813372 0.02732938 0.00127759 
0.05267809 0.05841704 0.01567350 0.00647908 0.00227384 0.00523986 0.01070015 0.00764941 0.03459886 0.00334912 0.00306272 0.12685809 0.01472470 0.01815666 0.02727065 0.00127738 
0.05112174 0.05930017 0.01623431 0.00650801 0.00228725 0.00508602 0.01048817 0.00784502 0.03426101 0.00342890 0.00331922 0.12684161 0.01459758 0.01816963 0.02718789 0.00127719 
0.04954794 0.06016644 0.01679557 0.00652951 0.00230163 0.00493067 0.01029360 0.00805063 0.03391026 0.00351034 0.00358677 0.12676040 0.01446440 0.01817286 0.02708149 0.00127702 
0.04796065 0.06101342 0.01735570 0.00654364 0.00231704 0.00477440 0.01011727 0.00826559 0.03354638 0.00359330 0.00386460 0.12661594 0.01432514 0.01816662 0.02695191 0.00127685 
0.04636388 0.06183876 0.01791317 0.00655049 0.00233355 0.00461786 0.00995987 0.00848923 0.03316918 0.00367761 0.00415189 0.12641009 0.01417987 0.01815121 0.02679975 0.00127671 
0.04476169 0.06264020 0.01846650 0.00655018 0.00235123 0.00446168 0.00982203 0.00872083 0.03277849 0.00376311 0.00444774 0.12614509 0.01402867 0.01812696 0.02662569 0.00127659 
0.04315814 0.06341556 0.01901422 0.00654287 0.00237015 0.00430651 0.00970426 0.00895963 0.03237421 0.00384964 0.00475119 0.12582351 0.01387172 0.01809424 0.02643049 0.00127649 
0.04155733 0.06416279 0.01955494 0.00652874 0.00239036 0.00415303 0.00960694 0.00920481 0.03195628 0.00393704 0.00506123 0.12544830 0.01370923 0.01805341 0.02621504 0.00127642 
0.03996336 0.06487992 0.02008730 0.00650799 0.00241193 0.00400189 0.00953039 0.00945553 0.03152469 0.00402515 0.00537681 0.12502271 0.01354149 0.01800489 0.02598028 0.00127639 
0.03838030 0.06556512 0.02061000 0.00648084 0.00243490 0.00385377 0.00947478 0.00971091 0.03107950 0.00411381 0.00569682 0.12455033 0.01336886 0.01794910 0.02572726 0.00127639 
0.03681223 0.06621668 0.02112180 0.00644757 0.00245932 0.00370932 0.00944018 0.00997005 0.03062083 0.00420285 0.00602012 0.12403501 0.01319173 0.01788648 0.02545710 0.00127642 
0.03526316 0.06683301 0.02162152 0.00640844 0.00248522 0.00356921 0.00942656 0.01023200 0.03014886 0.00429212 0.00634553 0.12348090 0.01301057 0.01781749 0.02517099 0.00127651 
0.03373706 0.06741267 0.02210804 0.00636375 0.00251263 0.00343408 0.00943376 0.01049582 0.02966385 0.00438143 0.00667186 0.12289237 0.01282591 0.01774258 0.02487019 0.00127664 
0.03223784 0.06795433 0.02258032 0.00631382 0.00254157 0.00330455 0.00946151 0.01076052 0.02916612 0.00447063 0.00699786 0.12227402 0.01263831 0.01766224 0.02455602 0.00127683 
0.03076933 0.06845681 0.02303738 0.00625898 0.00257204 0.00318124 0.00950946 0.01102510 0.02865608 0.00455954 0.00732230 0.12163062 0.01244841 0.01757693 0.02422987 0.00127708 
0.02933527 0.06891908 0.02347829 0.00619958 0.00260404 0.00306475 0.00957711 0.01128857 0.02813420 0.00464798 0.00764392 0.12096712 0.01225686 0.01748715 0.02389316 0.00127739 
0.02793930 0.06934025 0.02390222 0.00613598 0.00263757 0.00295562 0.00966389 0.01154992 0.02760103 0.00473577 0.00796147 0.12028859 0.01206440 0.01739336 0.02354737 0.00127777 
0.02658492 0.06971957 0.02430837 0.00606855 0.00267259 0.00285440 0.00976912 0.01180813 0.02705721 0.00482274 0.00827367 0.11960017 0.01187176 0.01729605 0.02319400 0.00127822 
0.02527554 0.07005642 0.02469603 0.00599768 0.00270907 0.00276159 0.00989201 0.01206220 0.02650343 0.00490869 0.00857930 0.11890709 0.01167973 0.01719570 0.02283460 0.00127876 
0.02401438 0.07035037 0.02506457 0.00592375 0.00274696 0.00267764 0.01003171 0.01231112 0.02594049 0.00499343 0.00887711 0.11821459 0.01148913 0.01709276 0.02247071 0.00127938 
0.02280455 0.07060109 0.02541338 0.00584716 0.00278621 0.00260299 0.01018725 0.01255390 0.02536922 0.00507678 0.00916590 0.11752790 0.01130078 0.01698769 0.02210392 0.00128009 
0.02164895 0.07080840 0.02574196 0.00576829 0.00282674 0.00253800 0.01035759 0.01278956 0.02479058 0.00515853 0.00944448 0.11685221 0.01111554 0.01688094 0.02173580 0.00128089 
0.02055033 0.07097230 0.02604982 0.00568755 0.00286846 0.00248303 0.01054163 0.01301714 0.02420555 0.00523848 0.00971171 0.11619264 0.01093427 0.01677293 0.02136793 0.00128180 
0.01951124 0.07109288 0.02633658 0.00560533 0.00291127 0.00243835 0.01073820 0.01323572 0.02361520 0.00531644 0.00996649 0.11555417 0.01075782 0.01666408 0.02100188 0.00128281 
0.01853404 0.07117040 0.02660186 0.00552202 0.00295508 0.00240420 0.01094606 0.01344437 0.02302068 0.00539219 0.01020775 0.11494166 0.01058707 0.01655479 0.02063921 0.00128392 
0.01762086 0.07120524 0.02684536 0.00543802 0.00299975 0.00238077 0.01116391 0.01364224 0.02242318 0.00546553 0.01043449 0.11435976 0.01042284 0.01644544 0.02028145 0.00128516 
0.01677365 0.07119793 0.02706683 0.00535369 0.00304516 0.00236818 0.01139043 0.01382848 0.02182396 0.00553624 0.01064577 0.11381292 0.01026598 0.01633639 0.01993012 0.00128651 
0.01599409 0.07114911 0.02726605 0.00526941 0.00309116 0.00236652 0.01162424 0.01400228 0.02122434 0.00560412 0.01084069 0.11330536 0.01011731 0.01622797 0.01958666 0.00128798 
0.01528366 0.07105954 0.02744284 0.00518554 0.00313759 0.00237580 0.01186395 0.01416291 0.02062569 0.00566894 0.01101844 0.11284099 0.00997758 0.01612051 0.01925252 0.00128957 
0.01464358 0.07093012 0.02759707 0.00510242 0.00318430 0.00239599 0.01210814 0.01430965 0.02002942 0.00573051 0.01117829 0.11242346 0.00984757 0.01601429 0.01892906 0.00129129 
0.01407486 0.07076185 0.02772861 0.00502040 0.00323111 0.00242699 0.01235538 0.01444184 0.01943700 0.00578859 0.01131956 0.11205605 0.00972796 0.01590960 0.01861760 0.00129314 
0.01357822 0.07055584 0.02783739 0.00493979 0.00327783 0.00246866 0.01260423 0.01455888 0.01884994 0.00584299 0.01144167 0.11174171 0.00961941 0.01580667 0.01831940 0.00129512 
0.01315416 0.07031333 0.02792336 0.00486090 0.00332429 0.00252078 0.01285327 0.01466024 0.01826977 0.00589350 0.01154412 0.11148303 0.00952254 0.01570574 0.01803564 0.00129723 
0.01280292 0.07003561 0.02798647 0.00478401 0.00337028 0.00258309 0.01310108 0.01474542 0.01769808 0.00593991 0.01162649 0.11128218 0.00943787 0.01560700 0.01776745 0.00129947 
0.01252447 0.06972411 0.02802671 0.00470939 0.00341561 0.00265527 0.01334627 0.01481400 0.01713645 0.00598203 0.01168846 0.11114092 0.00936591 0.01551064 0.01751585 0.00130184 
0.01231855 0.06938033 0.02804407 0.00463729 0.00346007 0.00273695 0.01358748 0.01486564 0.01658652 0.00601965 0.01172979 0.11106062 0.00930706 0.01541681 0.01728181 0.00130434 
0.01218463 0.06900585 0.02803856 0.00456794 0.00350345 0.00282771 0.01382338 0.01490003 0.01604993 0.00605259 0.01175034 0.11104220 0.00926167 0.01532564 0.01706617 0.00130698 
0.01212194 0.06860232 0.02801021 0.00450154 0.00354556 0.00292707 0.01405270 0.01491697 0.01552834 0.00608068 0.01175005 0.11108611 0.00923002 0.01523725 0.01686972 0.00130974 
0.01212946 0.06817148 0.02795904 0.00443829 0.00358617 0.00303452 0.01427421 0.01491629 0.01502341 0.00610374 0.01172897 0.11119240 0.00921229 0.01515172 0.01669314 0.00131262 
0.01220591 0.06771511 0.02788508 0.00437836 0.00362508 0.00314949 0.01448675 0.01489794 0.01453682 0.00612161 0.01168724 0.11136064 0.00920862 0.01506913 0.01653701 0.00131562 
0.01234981 0.06723507 0.02778838 0.00432187 0.00366208 0.00327139 0.01468922 0.01486190 0.01407024 0.00613415 0.01162506 0.11158996 0.00921903 0.01498953 0.01640180 0.00131874 
0.01255941 0.06673324 0.02766898 0.00426897 0.00369698 0.00339955 0.01488060 0.01480825 0.01362534 0.00614122 0.01154278 0.11187904 0.00924348 0.01491295 0.01628790 0.00132198 
0.01283275 0.06621158 0.02752694 0.00421974 0.00372957 0.00353332 0.01505994 0.01473714 0.01320378 0.00614271 0.01144078 0.11222615 0.00928186 0.01483941 0.01619558 0.00132532 
0.01316766 0.06567205 0.02736230 0.00417427 0.00375966 0.00367198 0.01522639 0.01464878 0.01280723 0.00613850 0.01131956 0.11262909 0.00933395 0.01476891 0.01612501 0.00132875 
0.01356175 0.06511666 0.02717514 0.00413261 0.00378708 0.00381481 0.01537916 0.01454347 0.01243730 0.00612851 0.01117970 0.11308527 0.00939947 0.01470145 0.01607625 0.00133229 
0.01401246 0.06454746 0.02696551 0.00409481 0.00381164 0.00396104 0.01551759 0.01442157 0.01209561 0.00611268 0.01102185 0.11359168 0.00947806 0.01463699 0.01604925 0.00133590 
0.01451700 0.06396648 0.02673351 0.00406088 0.00383318 0.00410991 0.01564108 0.01428353 0.01178376 0.00609094 0.01084674 0.11414495 0.00956928 0.01457552 0.01604388 0.00133960 
0.01507245 0.06337579 0.02647922 0.00403082 0.00385156 0.00426064 0.01574916 0.01412985 0.01150329 0.00606326 0.01065518 0.11474132 0.00967260 0.01451697 0.01605987 0.00134336 
0.01567571 0.06277745 0.02620276 0.00400461 0.00386662 0.00441243 0.01584144 0.01396111 0.01125575 0.00602964 0.01044804 0.11537671 0.00978746 0.01446131 0.01609687 0.00134718 
0.01632351 0.06217353 0.02590423 0.00398220 0.00387825 0.00456449 0.01591765 0.01377797 0.01104260 0.00599009 0.01022626 0.11604669 0.00991320 0.01440848 0.01615443 0.00135105 
0.01701249 0.06156607 0.02558379 0.00396354 0.00388633 0.00471603 0.01597760 0.01358112 0.01086530 0.00594464 0.00999084 0.11674657 0.01004911 0.01435842 0.01623198 0.00135496 
0.01773912 0.06095713 0.02524161 0.00394855 0.00389077 0.00486626 0.01602124 0.01337134 0.01072525 0.00589334 0.00974281 0.11747138 0.01019441 0.01431106 0.01632888 0.00135889 
0.01849981 0.06034872 0.02487789 0.00393715 0.00389149 0.00501440 0.01604858 0.01314946 0.01062378 0.00583628 0.00948328 0.11821590 0.01034829 0.01426635 0.01644438 0.00136284 
0.01929083 0.05974285 0.02449286 0.00392924 0.00388843 0.00515971 0.01605978 0.01291636 0.01056219 0.00577356 0.00921339 0.11897473 0.01050987 0.01422423 0.01657765 0.00136680 
0.02010841 0.05914147 0.02408679 0.00392469 0.00388154 0.00530143 0.01605506 0.01267297 0.01054171 0.00570532 0.00893431 0.11974227 0.01067825 0.01418462 0.01672777 0.00137075 
0.02094871 0.05854652 0.02366001 0.00392338 0.00387081 0.00543886 0.01603476 0.01242028 0.01056350 0.00563169 0.00864723 0.12051281 0.01085248 0.01414747 0.01689374 0.00137468 
0.02180782 0.05795988 0.02321287 0.00392517 0.00385622 0.00557132 0.01599932 0.01215930 0.01062864 0.00555287 0.00835339 0.12128049 0.01103159 0.01411274 0.01707448 0.00137858 
0.02268184 0.05738341 0.02274580 0.00392991 0.00383779 0.00569814 0.01594925 0.01189110 0.01073816 0.00546905 0.00805403 0.12203940 0.01121459 0.01408037 0.01726886 0.00138244 
0.02356681 0.05681889 0.02225929 0.00393745 0.00381556 0.00581874 0.01588518 0.01161676 0.01089298 0.00538046 0.00775039 0.12278360 0.01140046 0.01405033 0.01747566 0.00138624 
0.02445881 0.05626807 0.02175387 0.00394761 0.00378957 0.00593252 0.01580778 0.01133741 0.01109396 0.00528736 0.00744374 0.12350712 0.01158819 0.01402257 0.01769362 0.00138998 
0.02535390 0.05573261 0.02123018 0.00396023 0.00375991 0.00603897 0.01571784 0.01105418 0.01134184 0.00519002 0.00713533 0.12420401 0.01177676 0.01399708 0.01792143 0.00139363 
0.02624820 0.05521415 0.02068889 0.00397513 0.00372667 0.00613761 0.01561620 0.01076823 0.01163729 0.00508875 0.00682641 0.12486841 0.01196515 0.01397383 0.01815771 0.00139719 
0.02713784 0.05471423 0.02013079 0.00399213 0.00368996 0.00622802 0.01550376 0.01048074 0.01198086 0.00498385 0.00651820 0.12549453 0.01215237 0.01395282 0.01840107 0.00140065 
0.02801904 0.05423434 0.01955674 0.00401106 0.00364992 0.00630982 0.01538150 0.01019286 0.01237299 0.00487569 0.00621191 0.12607671 0.01233743 0.01393406 0.01865007 0.00140399 
0.02888807 0.05377587 0.01896769 0.00403172 0.00360669 0.00638269 0.01525044 0.00990577 0.01281402 0.00476461 0.00590872 0.12660944 0.01251938 0.01391754 0.01890326 0.00140720 
0.02974130 0.05334018 0.01836469 0.00405394 0.00356045 0.00644638 0.01511165 0.00962064 0.01330416 0.00465101 0.00560979 0.12708740 0.01269728 0.01390330 0.01915916 0.00141028 
0.03057519 0.05292851 0.01774888 0.00407752 0.00351138 0.00650068 0.01496621 0.00933861 0.01384349 0.00453528 0.00531623 0.12750548 0.01287026 0.01389136 0.01941629 0.00141321 
0.03138629 0.05254205 0.01712150 0.00410229 0.00345969 0.00654545 0.01481527 0.00906081 0.01443196 0.00441785 0.00502910 0.12785882 0.01303745 0.01388175 0.01967316 0.00141598 
0.03217131 0.05218188 0.01648389 0.00412806 0.00340558 0.00658061 0.01465997 0.00878835 0.01506941 0.00429915 0.00474942 0.12814281 0.01319805 0.01387453 0.01992829 0.00141858 
0.03292706 0.05184902 0.01583753 0.00415466 0.00334931 0.00660613 0.01450149 0.00852231 0.01575550 0.00417962 0.00447817 0.12835315 0.01335133 0.01386974 0.02018021 0.00142101 
0.03365049 0.05154440 0.01518395 0.00418192 0.00329110 0.00662207 0.01434098 0.00826373 0.01648975 0.00405972 0.00421626 0.12848582 0.01349658 0.01386744 0.02042746 0.00142326 
0.03433873 0.05126884 0.01452482 0.00420966 0.00323121 0.00662851 0.01417961 0.00801360 0.01727156 0.00393992 0.00396454 0.12853718 0.01363318 0.01386770 0.02066864 0.00142531 
0.03498902 0.05102311 0.01386192 0.00423772 0.00316992 0.00662561 0.01401853 0.00777287 0.01810014 0.00382069 0.00372379 0.12850389 0.01376054 0.01387058 0.02090235 0.00142717 
0.03559881 0.05080787 0.01319711 0.00426593 0.00310750 0.00661358 0.01385888 0.00754244 0.01897455 0.00370251 0.00349473 0.12838301 0.01387816 0.01387615 0.02112724 0.00142882 
0.03616569 0.05062367 0.01253238 0.00429415 0.00304422 0.00659270 0.01370175 0.00732316 0.01989369 0.00358588 0.00327803 0.12817197 0.01398562 0.01388447 0.02134201 0.00143027 
0.03668746 0.05047101 0.01186980 0.00432223 0.00298039 0.00656328 0.01354822 0.00711581 0.02085628 0.00347126 0.00307425 0.12786857 0.01408252 0.01389563 0.02154543 0.00143150 
0.03716206 0.05035028 0.01121154 0.00435001 0.00291628 0.00652570 0.01339931 0.00692109 0.02186089 0.00335915 0.00288391 0.12747106 0.01416858 0.01390967 0.02173630 0.00143252 
0.03758766 0.05026177 0.01055987 0.00437738 0.00285220 0.00648036 0.01325598 0.00673965 0.02290590 0.00325002 0.00270743 0.12697806 0.01424357 0.01392666 0.02191351 0.00143333 
0.03796260 0.05020569 0.00991714 0.00440419 0.00278844 0.00642774 0.01311917 0.00657207 0.02398952 0.00314435 0.00254517 0.12638861 0.01430733 0.01394667 0.02207601 0.00143391 
0.03828540 0.05018215 0.00928576 0.00443033 0.00272529 0.00636834 0.01298972 0.00641885 0.02510979 0.00304260 0.00239741 0.12570218 0.01435977 0.01396972 0.02222284 0.00143427 
0.03855481 0.05019117 0.00866825 0.00445568 0.00266305 0.00630269 0.01286841 0.00628039 0.02626458 0.00294522 0.00226435 0.12491865 0.01440087 0.01399586 0.02235310 0.00143442 
0.03876974 0.05023268 0.00806716 0.00448012 0.00260200 0.00623136 0.01275594 0.00615705 0.02745157 0.00285266 0.00214611 0.12403832 0.01443068 0.01402511 0.02246601 0.00143434 
0.03892933 0.05030652 0.00748511 0.00450357 0.00254242 0.00615495 0.01265296 0.00604906 0.02866827 0.00276534 0.00204275 0.12306191 0.01444932 0.01405748 0.02256084 0.00143405 
0.03903289 0.05041244 0.00692476 0.00452591 0.00248459 0.00607409 0.01256000 0.00595661 0.02991205 0.00268366 0.00195424 0.12199055 0.01445697 0.01409296 0.02263698 0.00143354 
0.03907995 0.05055008 0.00638880 0.00454706 0.00242877 0.00598942 0.01247752 0.00587978 0.03118008 0.00260801 0.00188048 0.12082576 0.01445385 0.01413153 0.02269391 0.00143282 
0.03907022 0.05071901 0.00587994 0.00456694 0.00237521 0.00590159 0.01240589 0.00581856 0.03246937 0.00253876 0.00182131 0.11956947 0.01444028 0.01417314 0.02273121 0.00143189 
0.03900362 0.05091870 0.00540092 0.00458546 0.00232416 0.00581126 0.01234537 0.00577289 0.03377680 0.00247624 0.00177647 0.11822399 0.01441659 0.01421773 0.02274855 0.00143076 
0.03888024 0.05114853 0.00495444 0.00460255 0.00227584 0.00571912 0.01229615 0.00574258 0.03509908 0.00242077 0.00174568 0.11679200 0.01438319 0.01426521 0.02274572 0.00142943 
0.03870037 0.05140777 0.00454320 0.00461815 0.00223046 0.00562583 0.01225832 0.00572739 0.03643278 0.00237263 0.00172856 0.11527655 0.01434053 0.01431547 0.02272261 0.00142791 
0.03846450 0.05169565 0.00416988 0.00463219 0.00218822 0.00553205 0.01223185 0.00572698 0.03777435 0.00233208 0.00172468 0.11368103 0.01428910 0.01436837 0.02267918 0.00142620 
0.03817328 0.05201125 0.00383710 0.00464461 0.00214929 0.00543845 0.01221665 0.00574094 0.03912011 0.00229933 0.00173356 0.11200916 0.01422942 0.01442374 0.02261555 0.00142431 
0.03782755 0.05235360 0.00354741 0.00465536 0.00211384 0.00534566 0.01221250 0.00576879 0.04046627 0.00227457 0.00175465 0.11026496 0.01416206 0.01448141 0.02253189 0.00142225 
0.03742834 0.05272164 0.00330331 0.00466438 0.00208201 0.00525432 0.01221913 0.00580995 0.04180893 0.00225796 0.00178738 0.10845278 0.01408759 0.01454114 0.02242849 0.00142002 
0.03697683 0.05311420 0.00310719 0.00467164 0.00205392 0.00516502 0.01223613 0.00586380 0.04314412 0.00224962 0.00183110 0.10657720 0.01400665 0.01460269 0.02230575 0.00141764 
0.03647438 0.05353005 0.00296132 0.00467708 0.00202966 0.00507834 0.01226305 0.00592963 0.04446778 0.00224962 0.00188514 0.10464309 0.01391985 0.01466579 0.02216415 0.00141510 
0.03592250 0.05396785 0.00286787 0.00468068 0.00200932 0.00499482 0.01229933 0.00600668 0.04577582 0.00225801 0.00194880 0.10265556 0.01382785 0.01473014 0.02200426 0.00141243 
0.03532288 0.05442620 0.00282886 0.00468239 0.00199295 0.00491498 0.01234435 0.00609413 0.04706408 0.00227479 0.00202132 0.10061990 0.01373131 0.01479540 0.02182677 0.00140962 
0.03467734 0.05490361 0.00284616 0.00468217 0.00198059 0.00483929 0.01239739 0.00619110 0.04832839 0.00229993 0.00210194 0.09854162 0.01363089 0.01486122 0.02163241 0.00140669 
0.03398788 0.05539849 0.00292148 0.00468001 0.00197225 0.00476818 0.01245768 0.00629667 0.04956457 0.00233336 0.00218987 0.09642642 0.01352726 0.01492722 0.02142203 0.00140364 
0.03325661 0.05590919 0.00305632 0.00467588 0.00196791 0.00470205 0.01252439 0.00640988 0.05076846 0.00237496 0.00228430 0.09428010 0.01342107 0.01499299 0.02119654 0.00140049 
0.03248581 0.05643398 0.00325200 0.00466975 0.00196755 0.00464124 0.01259663 0.00652972 0.05193591 0.00242458 0.00238440 0.09210865 0.01331299 0.01505809 0.02095693 0.00139724 
0.03167788 0.05697106 0.00350964 0.00466160 0.00197111 0.00458604 0.01267346 0.00665516 0.05306283 0.00248203 0.00248934 0.08991812 0.01320365 0.01512209 0.02070424 0.00139390 
0.03083536 0.05751855 0.00383012 0.00465141 0.00197852 0.00453672 0.01275391 0.00678514 0.05414520 0.00254709 0.00259830 0.08771466 0.01309370 0.01518450 0.02043960 0.00139047 
0.02996091 0.05807450 0.00421409 0.00463918 0.00198967 0.00449346 0.01283695 0.00691857 0.05517909 0.00261949 0.00271044 0.08550450 0.01298375 0.01524483 0.02016417 0.00138698 
0.02905732 0.05863690 0.00466195 0.00462488 0.00200446 0.00445641 0.01292156 0.00705439 0.05616068 0.00269893 0.00282492 0.08329388 0.01287438 0.01530259 0.01987918 0.00138342 
0.02812749 0.05920367 0.00517386 0.00460852 0.00202274 0.00442568 0.01300667 0.00719147 0.05708627 0.00278507 0.00294095 0.08108910 0.01276617 0.01535725 0.01958587 0.00137980 
0.02717443 0.05977269 0.00574970 0.00459009 0.00204436 0.00440131 0.01309122 0.00732874 0.05795231 0.00287756 0.00305770 0.07889643 0.01265965 0.01540829 0.01928556 0.00137613 
0.02620127 0.06034176 0.00638909 0.00456959 0.00206915 0.00438329 0.01317414 0.00746510 0.05875543 0.00297599 0.00317441 0.07672212 0.01255535 0.01545518 0.01897958 0.00137241 
0.02521125 0.06090866 0.00709135 0.00454702 0.00209691 0.00437157 0.01325437 0.00759947 0.05949245 0.00307992 0.00329031 0.07457241 0.01245373 0.01549739 0.01866926 0.00136866 
0.02420769 0.06147111 0.00785555 0.00452240 0.00212744 0.00436605 0.01333087 0.00773080 0.06016037 0.00318891 0.00340466 0.07245345 0.01235526 0.01553437 0.01835600 0.00136489 
0.02319402 0.06202679 0.00868046 0.00449573 0.00216052 0.00436656 0.01340260 0.00785806 0.06075646 0.00330248 0.00351677 0.07037132 0.01226035 0.01556562 0.01804116 0.00136108 
0.02217376 0.06257336 0.00956455 0.00446704 0.00219592 0.00437292 0.01346859 0.00798024 0.06127819 0.00342011 0.00362596 0.06833200 0.01216937 0.01559059 0.01772612 0.00135726 
