0.01546035 0.01736882 0.00822354 0.00191333 0.00075134 0.00197831 0.00741675 0.00741020 0.05532941 0.00227269 0.00188186 0.02079162 0.00278925 0.00330149 0.00376664 0.00129902 
0.01612686 0.01782466 0.00815763 0.00190299 0.00077949 0.00200332 0.00744835 0.00745125 0.05545107 0.00228591 0.00192378 0.02064979 0.00283413 0.00326684 0.00370477 0.00129979 
0.01681435 0.01826302 0.00808215 0.00189499 0.00080913 0.00202666 0.00748494 0.00748203 0.05549758 0.00230023 0.00197027 0.02049179 0.00287939 0.00322702 0.00364222 0.00130062 
0.01751770 0.01868203 0.00799750 0.00188930 0.00084013 0.00204822 0.00752617 0.00750235 0.05546911 0.00231557 0.00202112 0.02031947 0.00292478 0.00318229 0.00357920 0.00130150 
0.01823177 0.01907987 0.00790419 0.00188591 0.00087239 0.00206790 0.00757169 0.00751200 0.05536614 0.00233185 0.00207609 0.02013481 0.00297003 0.00313290 0.00351591 0.00130243 
0.01895151 0.01945484 0.00780280 0.00188475 0.00090577 0.00208562 0.00762114 0.00751088 0.05518947 0.00234898 0.00213492 0.01993987 0.00301488 0.00307912 0.00345257 0.00130340 
0.01967192 0.01980533 0.00769402 0.00188579 0.00094013 0.00210127 0.00767413 0.00749892 0.05494020 0.00236687 0.00219736 0.01973676 0.00305908 0.00302128 0.00338940 0.00130441 
0.02038814 0.02012986 0.00757860 0.00188894 0.00097533 0.00211479 0.00773027 0.00747609 0.05461973 0.00238542 0.00226314 0.01952768 0.00310239 0.00295967 0.00332662 0.00130545 
0.02109544 0.02042706 0.00745741 0.00189414 0.00101123 0.00212613 0.00778917 0.00744244 0.05422974 0.00240453 0.00233199 0.01931487 0.00314457 0.00289466 0.00326445 0.00130652 
0.02178928 0.02069570 0.00733137 0.00190128 0.00104767 0.00213522 0.00785043 0.00739805 0.05377217 0.00242410 0.00240365 0.01910060 0.00318540 0.00282659 0.00320312 0.00130763 
0.02246532 0.02093469 0.00720150 0.00191028 0.00108448 0.00214204 0.00791367 0.00734308 0.05324926 0.00244404 0.00247782 0.01888716 0.00322466 0.00275584 0.00314285 0.00130876 
0.02311946 0.02114308 0.00706890 0.00192102 0.00112152 0.00214654 0.00797847 0.00727772 0.05266346 0.00246424 0.00255424 0.01867684 0.00326215 0.00268279 0.00308385 0.00130990 
0.02374785 0.02132007 0.00693473 0.00193338 0.00115861 0.00214873 0.00804447 0.00720222 0.05201746 0.00248460 0.00263261 0.01847193 0.00329770 0.00260785 0.00302636 0.00131107 
0.02434696 0.02146501 0.00680023 0.00194724 0.00119559 0.00214858 0.00811129 0.00711688 0.05131419 0.00250502 0.00271267 0.01827469 0.00333112 0.00253143 0.00297059 0.00131225 
0.02491354 0.02157741 0.00666669 0.00196247 0.00123230 0.00214613 0.00817857 0.00702206 0.05055674 0.00252541 0.00279414 0.01808733 0.00336226 0.00245394 0.00291675 0.00131345 
0.02544469 0.02165694 0.00653546 0.00197893 0.00126857 0.00214138 0.00824594 0.00691816 0.04974840 0.00254568 0.00287675 0.01791201 0.00339100 0.00237580 0.00286506 0.00131465 
0.02593784 0.02170342 0.00640794 0.00199649 0.00130424 0.00213438 0.00831310 0.00680562 0.04889264 0.00256573 0.00296023 0.01775083 0.00341721 0.00229746 0.00281570 0.00131586 
0.02639081 0.02171685 0.00628560 0.00201500 0.00133915 0.00212516 0.00837971 0.00668493 0.04799304 0.00258547 0.00304433 0.01760579 0.00344080 0.00221935 0.00276889 0.00131707 
0.02680178 0.02169736 0.00616991 0.00203431 0.00137314 0.00211380 0.00844549 0.00655662 0.04705332 0.00260482 0.00312878 0.01747879 0.00346170 0.00214189 0.00272480 0.00131829 
0.02716931 0.02164527 0.00606238 0.00205428 0.00140607 0.00210036 0.00851017 0.00642126 0.04607731 0.00262371 0.00321334 0.01737165 0.00347984 0.00206552 0.00268361 0.00131950 
0.02749237 0.02156102 0.00596457 0.00207476 0.00143778 0.00208493 0.00857350 0.00627945 0.04506892 0.00264206 0.00329778 0.01728603 0.00349519 0.00199068 0.00264549 0.00132071 
0.02777034 0.02144523 0.00587801 0.00209562 0.00146814 0.00206761 0.00863525 0.00613182 0.04403213 0.00265981 0.00338187 0.01722347 0.00350775 0.00191778 0.00261059 0.00132192 
0.02800298 0.02129865 0.00580427 0.00211671 0.00149700 0.00204849 0.00869524 0.00597903 0.04297095 0.00267689 0.00346538 0.01718537 0.00351750 0.00184725 0.00257906 0.00132311 
0.02819045 0.02112219 0.00574490 0.00213790 0.00152425 0.00202770 0.00875329 0.00582176 0.04188943 0.00269324 0.00354811 0.01717298 0.00352449 0.00177949 0.00255102 0.00132430 
0.02833332 0.02091689 0.00570144 0.00215905 0.00154977 0.00200536 0.00880926 0.00566072 0.04079162 0.00270883 0.00362986 0.01718737 0.00352876 0.00171491 0.00252659 0.00132549 
0.02843254 0.02068390 0.00567542 0.00218003 0.00157344 0.00198161 0.00886302 0.00549662 0.03968157 0.00272361 0.00371043 0.01722945 0.00353038 0.00165388 0.00250588 0.00132666 
0.02848945 0.02042451 0.00566832 0.00220074 0.00159517 0.00195659 0.00891449 0.00533019 0.03856330 0.00273754 0.00378965 0.01729995 0.00352943 0.00159678 0.00248896 0.00132781 
0.02850574 0.02014014 0.00568159 0.00222105 0.00161486 0.00193045 0.00896362 0.00516217 0.03744076 0.00275060 0.00386734 0.01739942 0.00352603 0.00154396 0.00247592 0.00132896 
0.02848347 0.01983229 0.00571663 0.00224086 0.00163244 0.00190336 0.00901035 0.00499330 0.03631786 0.00276276 0.00394336 0.01752823 0.00352030 0.00149576 0.00246680 0.00133009 
0.02842501 0.01950257 0.00577479 0.00226008 0.00164784 0.00187547 0.00905467 0.00482432 0.03519841 0.00277401 0.00401754 0.01768654 0.00351238 0.00145250 0.00246164 0.00133120 
0.02833307 0.01915268 0.00585732 0.00227863 0.00166100 0.00184695 0.00909661 0.00465595 0.03408614 0.00278434 0.00408975 0.01787435 0.00350243 0.00141446 0.00246046 0.00133229 
0.02821063 0.01878439 0.00596544 0.00229644 0.00167187 0.00181798 0.00913619 0.00448894 0.03298465 0.00279375 0.00415985 0.01809145 0.00349062 0.00138193 0.00246327 0.00133337 
0.02806095 0.01839955 0.00610023 0.00231344 0.00168041 0.00178873 0.00917347 0.00432398 0.03189744 0.00280224 0.00422774 0.01833743 0.00347714 0.00135514 0.00247004 0.00133443 
0.02788751 0.01800006 0.00626272 0.00232959 0.00168660 0.00175938 0.00920853 0.00416177 0.03082784 0.00280982 0.00429328 0.01861172 0.00346219 0.00133432 0.00248076 0.00133547 
0.02769403 0.01758788 0.00645381 0.00234484 0.00169043 0.00173011 0.00924148 0.00400298 0.02977905 0.00281650 0.00435639 0.01891355 0.00344598 0.00131967 0.00249537 0.00133649 
0.02748438 0.01716499 0.00667430 0.00235918 0.00169189 0.00170110 0.00927241 0.00384826 0.02875410 0.00282231 0.00441696 0.01924198 0.00342873 0.00131135 0.00251380 0.00133749 
0.02726259 0.01673341 0.00692484 0.00237259 0.00169100 0.00167251 0.00930147 0.00369824 0.02775586 0.00282727 0.00447491 0.01959590 0.00341065 0.00130951 0.00253598 0.00133846 
0.02703281 0.01629518 0.00720600 0.00238508 0.00168777 0.00164454 0.00932880 0.00355349 0.02678700 0.00283141 0.00453014 0.01997401 0.00339199 0.00131424 0.00256179 0.00133942 
0.02679927 0.01585235 0.00751818 0.00239665 0.00168223 0.00161734 0.00935455 0.00341457 0.02585001 0.00283476 0.00458259 0.02037489 0.00337299 0.00132565 0.00259113 0.00134034 
0.02656624 0.01540696 0.00786165 0.00240734 0.00167442 0.00159108 0.00937889 0.00328199 0.02494718 0.00283735 0.00463219 0.02079695 0.00335387 0.00134376 0.00262387 0.00134124 
0.02633802 0.01496103 0.00823653 0.00241717 0.00166441 0.00156593 0.00940199 0.00315624 0.02408061 0.00283923 0.00467887 0.02123848 0.00333488 0.00136862 0.00265985 0.00134212 
0.02611885 0.01451658 0.00864279 0.00242622 0.00165223 0.00154204 0.00942403 0.00303774 0.02325219 0.00284043 0.00472257 0.02169762 0.00331626 0.00140020 0.00269891 0.00134296 
0.02591295 0.01407558 0.00908024 0.00243453 0.00163798 0.00151956 0.00944519 0.00292688 0.02246358 0.00284099 0.00476325 0.02217243 0.00329824 0.00143846 0.00274089 0.00134377 
0.02572443 0.01363997 0.00954854 0.00244219 0.00162171 0.00149862 0.00946564 0.00282400 0.02171625 0.00284096 0.00480083 0.02266085 0.00328106 0.00148334 0.00278559 0.00134456 
0.02555728 0.01321165 0.01004718 0.00244927 0.00160353 0.00147935 0.00948558 0.00272941 0.02101146 0.00284038 0.00483529 0.02316073 0.00326493 0.00153474 0.00283282 0.00134531 
0.02541531 0.01279245 0.01057548 0.00245588 0.00158352 0.00146187 0.00950517 0.00264334 0.02035022 0.00283929 0.00486658 0.02366988 0.00325008 0.00159252 0.00288236 0.00134603 
0.02530217 0.01238414 0.01113262 0.00246211 0.00156178 0.00144630 0.00952460 0.00256599 0.01973335 0.00283774 0.00489466 0.02418601 0.00323672 0.00165653 0.00293399 0.00134671 
0.02522125 0.01198844 0.01171757 0.00246809 0.00153843 0.00143271 0.00954403 0.00249750 0.01916147 0.00283576 0.00491948 0.02470683 0.00322503 0.00172658 0.00298749 0.00134735 
0.02517572 0.01160698 0.01232919 0.00247394 0.00151357 0.00142121 0.00956361 0.00243798 0.01863497 0.00283341 0.00494103 0.02523001 0.00321520 0.00180245 0.00304262 0.00134795 
0.02516844 0.01124131 0.01296612 0.00247977 0.00148732 0.00141186 0.00958349 0.00238746 0.01815402 0.00283071 0.00495927 0.02575319 0.00320741 0.00188391 0.00309913 0.00134852 
0.02520199 0.01089290 0.01362689 0.00248574 0.00145980 0.00140473 0.00960381 0.00234594 0.01771861 0.00282770 0.00497416 0.02627404 0.00320180 0.00197069 0.00315679 0.00134904 
0.02527861 0.01056312 0.01430984 0.00249197 0.00143114 0.00139984 0.00962469 0.00231337 0.01732852 0.00282442 0.00498569 0.02679025 0.00319852 0.00206251 0.00321533 0.00134951 
0.02540018 0.01025328 0.01501318 0.00249860 0.00140147 0.00139724 0.00964624 0.00228964 0.01698334 0.00282089 0.00499383 0.02729953 0.00319769 0.00215904 0.00327451 0.00134994 
0.02556822 0.00996454 0.01573496 0.00250579 0.00137091 0.00139694 0.00966855 0.00227461 0.01668247 0.00281715 0.00499857 0.02779968 0.00319941 0.00225997 0.00333407 0.00135033 
0.02578388 0.00969802 0.01647308 0.00251368 0.00133959 0.00139894 0.00969170 0.00226806 0.01642513 0.00281321 0.00499988 0.02828851 0.00320376 0.00236493 0.00339375 0.00135066 
0.02604789 0.00945471 0.01722534 0.00252241 0.00130766 0.00140324 0.00971575 0.00226978 0.01621037 0.00280910 0.00499776 0.02876396 0.00321081 0.00247357 0.00345331 0.00135094 
0.02636060 0.00923549 0.01798938 0.00253213 0.00127523 0.00140979 0.00974073 0.00227947 0.01603708 0.00280484 0.00499220 0.02922405 0.00322060 0.00258549 0.00351248 0.00135118 
0.02672193 0.00904116 0.01876276 0.00254299 0.00124245 0.00141857 0.00976667 0.00229681 0.01590399 0.00280043 0.00498318 0.02966689 0.00323317 0.00270030 0.00357103 0.00135135 
0.02713140 0.00887241 0.01954290 0.00255513 0.00120943 0.00142952 0.00979358 0.00232145 0.01580969 0.00279588 0.00497071 0.03009074 0.00324850 0.00281758 0.00362871 0.00135148 
0.02758810 0.00872983 0.02032714 0.00256868 0.00117631 0.00144257 0.00982144 0.00235299 0.01575263 0.00279120 0.00495480 0.03049396 0.00326658 0.00293692 0.00368528 0.00135154 
0.02809071 0.00861391 0.02111275 0.00258377 0.00114321 0.00145764 0.00985020 0.00239100 0.01573113 0.00278638 0.00493545 0.03087509 0.00328738 0.00305789 0.00374051 0.00135156 
0.02863754 0.00852503 0.02189691 0.00260053 0.00111025 0.00147463 0.00987984 0.00243504 0.01574343 0.00278143 0.00491268 0.03123278 0.00331084 0.00318004 0.00379419 0.00135151 
0.02922646 0.00846349 0.02267676 0.00261908 0.00107756 0.00149344 0.00991026 0.00248463 0.01578763 0.00277632 0.00488650 0.03156587 0.00333687 0.00330295 0.00384611 0.00135140 
0.02985499 0.00842949 0.02344938 0.00263952 0.00104524 0.00151395 0.00994138 0.00253926 0.01586175 0.00277106 0.00485695 0.03187334 0.00336539 0.00342617 0.00389605 0.00135124 
0.03052029 0.00842313 0.02421182 0.00266195 0.00101341 0.00153602 0.00997309 0.00259841 0.01596374 0.00276561 0.00482404 0.03215438 0.00339627 0.00354926 0.00394384 0.00135102 
0.03121915 0.00844441 0.02496111 0.00268646 0.00098217 0.00155953 0.01000527 0.00266155 0.01609149 0.00275997 0.00478784 0.03240832 0.00342938 0.00367178 0.00398930 0.00135074 
0.03194805 0.00849327 0.02569431 0.00271313 0.00095161 0.00158433 0.01003778 0.00272812 0.01624281 0.00275410 0.00474837 0.03263469 0.00346457 0.00379329 0.00403226 0.00135040 
0.03270320 0.00856955 0.02640845 0.00274203 0.00092184 0.00161025 0.01007046 0.00279758 0.01641548 0.00274799 0.00470571 0.03283319 0.00350167 0.00391336 0.00407257 0.00135000 
0.03348051 0.00867300 0.02710061 0.00277321 0.00089293 0.00163714 0.01010314 0.00286935 0.01660727 0.00274160 0.00465990 0.03300372 0.00354050 0.00403157 0.00411009 0.00134955 
0.03427567 0.00880332 0.02776790 0.00280671 0.00086497 0.00166482 0.01013564 0.00294286 0.01681590 0.00273490 0.00461102 0.03314635 0.00358087 0.00414752 0.00414471 0.00134904 
0.03508415 0.00896010 0.02840751 0.00284256 0.00083804 0.00169312 0.01016776 0.00301757 0.01703910 0.00272786 0.00455916 0.03326134 0.00362256 0.00426079 0.00417632 0.00134847 
0.03590127 0.00914289 0.02901668 0.00288077 0.00081220 0.00172187 0.01019930 0.00309290 0.01727461 0.00272044 0.00450440 0.03334912 0.00366536 0.00437100 0.00420482 0.00134786 
0.03672220 0.00935115 0.02959275 0.00292135 0.00078751 0.00175087 0.01023003 0.00316830 0.01752018 0.00271261 0.00444684 0.03341031 0.00370904 0.00447777 0.00423014 0.00134718 
0.03754203 0.00958431 0.03013314 0.00296427 0.00076402 0.00177996 0.01025974 0.00324323 0.01777359 0.00270432 0.00438659 0.03344567 0.00375336 0.00458076 0.00425221 0.00134646 
0.03835579 0.00984170 0.03063542 0.00300952 0.00074179 0.00180894 0.01028819 0.00331716 0.01803267 0.00269555 0.00432376 0.03345616 0.00379809 0.00467962 0.00427101 0.00134569 
0.03915847 0.01012262 0.03109726 0.00305705 0.00072085 0.00183763 0.01031515 0.00338959 0.01829528 0.00268626 0.00425848 0.03344287 0.00384297 0.00477404 0.00428649 0.00134488 
0.03994513 0.01042632 0.03151648 0.00310680 0.00070123 0.00186586 0.01034038 0.00346001 0.01855937 0.00267640 0.00419089 0.03340703 0.00388776 0.00486371 0.00429864 0.00134402 
0.04071086 0.01075198 0.03189107 0.00315870 0.00068297 0.00189344 0.01036363 0.00352796 0.01882293 0.00266595 0.00412114 0.03335003 0.00393221 0.00494836 0.00430747 0.00134312 
0.04145086 0.01109877 0.03221915 0.00321268 0.00066608 0.00192020 0.01038466 0.00359299 0.01908407 0.00265487 0.00404937 0.03327337 0.00397607 0.00502773 0.00431300 0.00134219 
0.04216050 0.01146578 0.03249906 0.00326863 0.00065057 0.00194597 0.01040323 0.00365468 0.01934095 0.00264312 0.00397574 0.03317867 0.00401908 0.00510160 0.00431526 0.00134122 
0.04283532 0.01185210 0.03272929 0.00332644 0.00063645 0.00197060 0.01041909 0.00371264 0.01959186 0.00263069 0.00390043 0.03306763 0.00406102 0.00516976 0.00431429 0.00134022 
0.04347109 0.01225675 0.03290855 0.00338599 0.00062372 0.00199392 0.01043201 0.00376651 0.01983518 0.00261754 0.00382362 0.03294208 0.00410163 0.00523204 0.00431016 0.00133918 
0.04406385 0.01267873 0.03303574 0.00344716 0.00061237 0.00201580 0.01044176 0.00381596 0.02006942 0.00260364 0.00374549 0.03280389 0.00414070 0.00528827 0.00430295 0.00133813 
0.04460993 0.01311703 0.03310999 0.00350978 0.00060240 0.00203609 0.01044811 0.00386069 0.02029318 0.00258899 0.00366623 0.03265501 0.00417799 0.00533833 0.00429273 0.00133705 
0.04510601 0.01357059 0.03313063 0.00357372 0.00059378 0.00205468 0.01045084 0.00390044 0.02050522 0.00257356 0.00358604 0.03249742 0.00421330 0.00538212 0.00427961 0.00133595 
0.04554912 0.01403834 0.03309720 0.00363881 0.00058649 0.00207144 0.01044975 0.00393498 0.02070443 0.00255734 0.00350513 0.03233314 0.00424643 0.00541956 0.00426370 0.00133484 
0.04593672 0.01451916 0.03300951 0.00370487 0.00058050 0.00208628 0.01044462 0.00396413 0.02088980 0.00254033 0.00342370 0.03216422 0.00427719 0.00545062 0.00424512 0.00133372 
0.04626666 0.01501196 0.03286756 0.00377173 0.00057579 0.00209910 0.01043529 0.00398773 0.02106050 0.00252253 0.00334196 0.03199269 0.00430540 0.00547526 0.00422400 0.00133258 
0.04653725 0.01551559 0.03267160 0.00383920 0.00057230 0.00210983 0.01042156 0.00400566 0.02121583 0.00250393 0.00326013 0.03182057 0.00433091 0.00549350 0.00420048 0.00133144 
0.04674729 0.01602891 0.03242210 0.00390709 0.00057001 0.00211841 0.01040329 0.00401784 0.02135523 0.00248455 0.00317843 0.03164987 0.00435357 0.00550537 0.00417470 0.00133030 
0.04689604 0.01655075 0.03211977 0.00397521 0.00056887 0.00212479 0.01038033 0.00402424 0.02147828 0.00246441 0.00309707 0.03148254 0.00437327 0.00551093 0.00414682 0.00132916 
0.04698329 0.01707994 0.03176554 0.00404334 0.00056882 0.00212894 0.01035255 0.00402483 0.02158473 0.00244352 0.00301628 0.03132047 0.00438988 0.00551025 0.00411699 0.00132802 
0.04700931 0.01761529 0.03136058 0.00411130 0.00056982 0.00213084 0.01031984 0.00401966 0.02167444 0.00242190 0.00293626 0.03116550 0.00440332 0.00550346 0.00408539 0.00132689 
0.04697491 0.01815562 0.03090627 0.00417887 0.00057181 0.00213049 0.01028210 0.00400878 0.02174745 0.00239961 0.00285724 0.03101937 0.00441353 0.00549067 0.00405217 0.00132577 
0.04688144 0.01869972 0.03040419 0.00424586 0.00057474 0.00212790 0.01023927 0.00399230 0.02180391 0.00237666 0.00277942 0.03088372 0.00442044 0.00547205 0.00401751 0.00132465 
0.04673072 0.01924640 0.02985616 0.00431205 0.00057855 0.00212309 0.01019128 0.00397035 0.02184415 0.00235311 0.00270302 0.03076009 0.00442403 0.00544777 0.00398158 0.00132355 
0.04652514 0.01979445 0.02926418 0.00437726 0.00058318 0.00211612 0.01013811 0.00394309 0.02186859 0.00232901 0.00262824 0.03064990 0.00442428 0.00541802 0.00394455 0.00132246 
0.04626756 0.02034266 0.02863045 0.00444127 0.00058857 0.00210703 0.01007974 0.00391071 0.02187781 0.00230441 0.00255528 0.03055443 0.00442120 0.00538303 0.00390660 0.00132138 
0.04596135 0.02088983 0.02795735 0.00450389 0.00059465 0.00209590 0.01001618 0.00387344 0.02187251 0.00227938 0.00248433 0.03047482 0.00441482 0.00534302 0.00386790 0.00132032 
0.04561035 0.02143474 0.02724743 0.00456494 0.00060136 0.00208282 0.00994747 0.00383154 0.02185349 0.00225398 0.00241556 0.03041209 0.00440518 0.00529825 0.00382862 0.00131928 
0.04521886 0.02197621 0.02650341 0.00462422 0.00060864 0.00206788 0.00987366 0.00378528 0.02182170 0.00222829 0.00234917 0.03036707 0.00439234 0.00524898 0.00378894 0.00131826 
0.04479160 0.02251304 0.02572814 0.00468156 0.00061643 0.00205119 0.00979483 0.00373495 0.02177816 0.00220239 0.00228530 0.03034044 0.00437639 0.00519550 0.00374901 0.00131725 
0.04433370 0.02304402 0.02492463 0.00473677 0.00062466 0.00203289 0.00971107 0.00368089 0.02172401 0.00217636 0.00222412 0.03033272 0.00435742 0.00513808 0.00370900 0.00131626 
0.04385066 0.02356799 0.02409599 0.00478971 0.00063328 0.00201311 0.00962252 0.00362343 0.02166046 0.00215029 0.00216576 0.03034425 0.00433556 0.00507704 0.00366907 0.00131529 
0.04334831 0.02408378 0.02324544 0.00484021 0.00064221 0.00199198 0.00952932 0.00356295 0.02158881 0.00212427 0.00211036 0.03037522 0.00431094 0.00501268 0.00362938 0.00131433 
0.04283278 0.02459021 0.02237630 0.00488812 0.00065140 0.00196968 0.00943164 0.00349980 0.02151043 0.00209840 0.00205804 0.03042561 0.00428370 0.00494532 0.00359007 0.00131339 
0.04231044 0.02508615 0.02149197 0.00493331 0.00066079 0.00194636 0.00932968 0.00343439 0.02142674 0.00207277 0.00200890 0.03049525 0.00425402 0.00487528 0.00355128 0.00131247 
0.04178791 0.02557046 0.02059588 0.00497565 0.00067033 0.00192219 0.00922366 0.00336711 0.02133923 0.00204750 0.00196302 0.03058381 0.00422206 0.00480290 0.00351316 0.00131155 
0.04127194 0.02604204 0.01969155 0.00501503 0.00067995 0.00189736 0.00911381 0.00329838 0.02124939 0.00202268 0.00192050 0.03069077 0.00418802 0.00472851 0.00347584 0.00131065 
0.04076941 0.02649979 0.01878248 0.00505133 0.00068961 0.00187205 0.00900041 0.00322861 0.02115877 0.00199842 0.00188138 0.03081544 0.00415210 0.00465242 0.00343943 0.00130975 
0.04028729 0.02694264 0.01787223 0.00508446 0.00069925 0.00184644 0.00888374 0.00315822 0.02106893 0.00197484 0.00184571 0.03095700 0.00411451 0.00457498 0.00340407 0.00130886 
0.03983255 0.02736954 0.01696432 0.00511434 0.00070883 0.00182072 0.00876410 0.00308764 0.02098142 0.00195203 0.00181354 0.03111444 0.00407547 0.00449651 0.00336986 0.00130798 
0.03941215 0.02777947 0.01606226 0.00514090 0.00071828 0.00179510 0.00864183 0.00301729 0.02089780 0.00193012 0.00178486 0.03128665 0.00403521 0.00441733 0.00333691 0.00130709 
0.03903294 0.02817144 0.01516952 0.00516408 0.00072759 0.00176976 0.00851728 0.00294759 0.02081959 0.00190921 0.00175969 0.03147234 0.00399396 0.00433776 0.00330531 0.00130621 
0.03870167 0.02854450 0.01428953 0.00518383 0.00073669 0.00174489 0.00839081 0.00287897 0.02074830 0.00188941 0.00173802 0.03167012 0.00395195 0.00425812 0.00327516 0.00130532 
0.03842490 0.02889770 0.01342563 0.00520012 0.00074555 0.00172069 0.00826282 0.00281183 0.02068539 0.00187082 0.00171980 0.03187848 0.00390944 0.00417870 0.00324655 0.00130442 
0.03820896 0.02923017 0.01258110 0.00521293 0.00075414 0.00169734 0.00813370 0.00274657 0.02063227 0.00185356 0.00170500 0.03209581 0.00386667 0.00409981 0.00321957 0.00130352 
0.03805989 0.02954104 0.01175908 0.00522223 0.00076242 0.00167502 0.00800387 0.00268360 0.02059029 0.00183773 0.00169357 0.03232040 0.00382389 0.00402172 0.00319427 0.00130260 
0.03798342 0.02982951 0.01096264 0.00522803 0.00077036 0.00165391 0.00787378 0.00262329 0.02056072 0.00182343 0.00168542 0.03255049 0.00378133 0.00394471 0.00317074 0.00130167 
0.03798489 0.03009480 0.01019470 0.00523034 0.00077794 0.00163418 0.00774387 0.00256602 0.02054475 0.00181075 0.00168048 0.03278424 0.00373926 0.00386903 0.00314905 0.00130071 
0.03806925 0.03033620 0.00945804 0.00522919 0.00078513 0.00161599 0.00761461 0.00251213 0.02054348 0.00179979 0.00167864 0.03301977 0.00369790 0.00379494 0.00312924 0.00129974 
0.03824096 0.03055302 0.00875529 0.00522460 0.00079191 0.00159949 0.00748645 0.00246196 0.02055792 0.00179064 0.00167980 0.03325518 0.00365750 0.00372267 0.00311139 0.00129874 
0.03850402 0.03074463 0.00808891 0.00521661 0.00079826 0.00158483 0.00735989 0.00241584 0.02058895 0.00178337 0.00168383 0.03348854 0.00361829 0.00365243 0.00309555 0.00129771 
0.03886188 0.03091048 0.00746118 0.00520529 0.00080417 0.00157214 0.00723541 0.00237407 0.02063735 0.00177806 0.00169061 0.03371794 0.00358051 0.00358443 0.00308176 0.00129666 
0.03931745 0.03105004 0.00687421 0.00519068 0.00080961 0.00156153 0.00711350 0.00233692 0.02070377 0.00177479 0.00169999 0.03394151 0.00354436 0.00351886 0.00307008 0.00129558 
0.03987304 0.03116284 0.00632989 0.00517286 0.00081460 0.00155312 0.00699466 0.00230465 0.02078875 0.00177362 0.00171181 0.03415738 0.00351008 0.00345588 0.00306056 0.00129446 
0.04053035 0.03124850 0.00582994 0.00515191 0.00081911 0.00154699 0.00687938 0.00227749 0.02089267 0.00177460 0.00172594 0.03436377 0.00347785 0.00339565 0.00305323 0.00129331 
0.04129046 0.03130666 0.00537583 0.00512792 0.00082314 0.00154323 0.00676817 0.00225567 0.02101580 0.00177778 0.00174219 0.03455896 0.00344789 0.00333831 0.00304816 0.00129212 
0.04215381 0.03133706 0.00496883 0.00510097 0.00082669 0.00154190 0.00666151 0.00223936 0.02115824 0.00178320 0.00176040 0.03474134 0.00342037 0.00328398 0.00304537 0.00129090 
0.04312016 0.03133948 0.00461001 0.00507117 0.00082977 0.00154305 0.00655988 0.00222873 0.02131998 0.00179089 0.00178039 0.03490938 0.00339546 0.00323277 0.00304492 0.00128964 
0.04418865 0.03131378 0.00430018 0.00503862 0.00083237 0.00154671 0.00646378 0.00222391 0.02150084 0.00180087 0.00180199 0.03506169 0.00337334 0.00318478 0.00304685 0.00128835 
0.04535771 0.03125989 0.00403993 0.00500344 0.00083450 0.00155290 0.00637367 0.00222502 0.02170052 0.00181316 0.00182501 0.03519704 0.00335416 0.00314006 0.00305121 0.00128702 
0.04662516 0.03117781 0.00382964 0.00496573 0.00083617 0.00156164 0.00629001 0.00223214 0.02191855 0.00182776 0.00184928 0.03531432 0.00333805 0.00309870 0.00305803 0.00128566 
0.04798813 0.03106760 0.00366944 0.00492563 0.00083739 0.00157289 0.00621324 0.00224533 0.02215434 0.00184466 0.00187460 0.03541262 0.00332514 0.00306072 0.00306738 0.00128426 
0.04944314 0.03092941 0.00355924 0.00488326 0.00083817 0.00158664 0.00614380 0.00226461 0.02240716 0.00186385 0.00190080 0.03549120 0.00331555 0.00302617 0.00307930 0.00128283 
0.05098606 0.03076346 0.00349871 0.00483873 0.00083852 0.00160284 0.00608208 0.00229000 0.02267613 0.00188530 0.00192770 0.03554950 0.00330937 0.00299505 0.00309383 0.00128137 
0.05261218 0.03057004 0.00348730 0.00479219 0.00083847 0.00162143 0.00602849 0.00232147 0.02296024 0.00190897 0.00195513 0.03558721 0.00330671 0.00296738 0.00311103 0.00127989 
0.05431620 0.03034952 0.00352425 0.00474376 0.00083802 0.00164234 0.00598337 0.00235897 0.02325838 0.00193483 0.00198291 0.03560419 0.00330762 0.00294316 0.00313096 0.00127838 
0.05609230 0.03010235 0.00360858 0.00469359 0.00083720 0.00166548 0.00594708 0.00240243 0.02356929 0.00196280 0.00201088 0.03560054 0.00331218 0.00292235 0.00315366 0.00127685 
0.05793410 0.02982905 0.00373908 0.00464179 0.00083603 0.00169074 0.00591992 0.00245175 0.02389161 0.00199284 0.00203887 0.03557661 0.00332043 0.00290494 0.00317920 0.00127530 
0.05983479 0.02953022 0.00391436 0.00458850 0.00083452 0.00171801 0.00590217 0.00250680 0.02422389 0.00202485 0.00206674 0.03553297 0.00333240 0.00289089 0.00320762 0.00127375 
0.06178710 0.02920656 0.00413283 0.00453387 0.00083269 0.00174716 0.00589409 0.00256743 0.02456456 0.00205876 0.00209434 0.03547042 0.00334813 0.00288016 0.00323898 0.00127218 
0.06378337 0.02885880 0.00439271 0.00447802 0.00083058 0.00177805 0.00589590 0.00263346 0.02491199 0.00209447 0.00212154 0.03539002 0.00336763 0.00287269 0.00327335 0.00127061 
0.06581559 0.02848781 0.00469205 0.00442108 0.00082821 0.00181053 0.00590776 0.00270471 0.02526444 0.00213187 0.00214821 0.03529306 0.00339088 0.00286843 0.00331076 0.00126905 
0.06787546 0.02809447 0.00502873 0.00436319 0.00082559 0.00184444 0.00592984 0.00278094 0.02562014 0.00217085 0.00217423 0.03518110 0.00341788 0.00286731 0.00335129 0.00126750 
0.06995443 0.02767980 0.00540048 0.00430446 0.00082275 0.00187960 0.00596222 0.00286193 0.02597726 0.00221129 0.00219950 0.03505589 0.00344861 0.00286926 0.00339497 0.00126596 
0.07204375 0.02724485 0.00580490 0.00424504 0.00081972 0.00191584 0.00600499 0.00294739 0.02633390 0.00225306 0.00222393 0.03491946 0.00348302 0.00287421 0.00344186 0.00126444 
0.07413453 0.02679077 0.00623945 0.00418503 0.00081652 0.00195298 0.00605817 0.00303706 0.02668817 0.00229601 0.00224744 0.03477404 0.00352107 0.00288209 0.00349201 0.00126295 
0.07621779 0.02631875 0.00670146 0.00412457 0.00081317 0.00199082 0.00612175 0.00313063 0.02703813 0.00234002 0.00226997 0.03462208 0.00356271 0.00289283 0.00354545 0.00126150 
0.07828452 0.02583010 0.00718821 0.00406376 0.00080971 0.00202916 0.00619566 0.00322778 0.02738186 0.00238491 0.00229144 0.03446624 0.00360785 0.00290633 0.00360223 0.00126009 
0.08032573 0.02532616 0.00769684 0.00400271 0.00080615 0.00206782 0.00627981 0.00332818 0.02771743 0.00243054 0.00231183 0.03430938 0.00365644 0.00292253 0.00366236 0.00125873 
0.08233253 0.02480835 0.00822446 0.00394154 0.00080252 0.00210658 0.00637405 0.00343148 0.02804295 0.00247674 0.00233111 0.03415454 0.00370838 0.00294135 0.00372588 0.00125743 
0.08429612 0.02427815 0.00876811 0.00388034 0.00079884 0.00214525 0.00647820 0.00353731 0.02835654 0.00252334 0.00234926 0.03400491 0.00376357 0.00296271 0.00379280 0.00125619 
0.08620791 0.02373710 0.00932478 0.00381922 0.00079514 0.00218363 0.00659203 0.00364531 0.02865638 0.00257017 0.00236627 0.03386384 0.00382192 0.00298653 0.00386312 0.00125503 
0.08805957 0.02318681 0.00989147 0.00375827 0.00079144 0.00222152 0.00671527 0.00375508 0.02894071 0.00261705 0.00238216 0.03373481 0.00388331 0.00301274 0.00393684 0.00125394 
0.08984302 0.02262892 0.01046513 0.00369757 0.00078775 0.00225871 0.00684760 0.00386624 0.02920784 0.00266381 0.00239695 0.03362141 0.00394762 0.00304127 0.00401395 0.00125294 
0.09155054 0.02206515 0.01104276 0.00363721 0.00078411 0.00229503 0.00698867 0.00397838 0.02945616 0.00271026 0.00241068 0.03352730 0.00401472 0.00307204 0.00409442 0.00125203 
0.09317478 0.02149723 0.01162136 0.00357726 0.00078052 0.00233027 0.00713808 0.00409109 0.02968415 0.00275621 0.00242340 0.03345622 0.00408449 0.00310498 0.00417820 0.00125123 
0.09470883 0.02092696 0.01219796 0.00351781 0.00077701 0.00236427 0.00729540 0.00420396 0.02989041 0.00280149 0.00243515 0.03341194 0.00415678 0.00314004 0.00426524 0.00125052 
0.09614624 0.02035616 0.01276968 0.00345890 0.00077360 0.00239684 0.00746015 0.00431658 0.03007363 0.00284592 0.00244602 0.03339825 0.00423144 0.00317714 0.00435549 0.00124993 
0.09748107 0.01978670 0.01333368 0.00340061 0.00077031 0.00242782 0.00763182 0.00442853 0.03023264 0.00288930 0.00245609 0.03341892 0.00430832 0.00321623 0.00444884 0.00124946 
0.09870790 0.01922045 0.01388720 0.00334299 0.00076714 0.00245706 0.00780987 0.00453940 0.03036641 0.00293147 0.00246544 0.03347768 0.00438727 0.00325724 0.00454521 0.00124911 
0.09982191 0.01865931 0.01442761 0.00328608 0.00076411 0.00248440 0.00799374 0.00464877 0.03047403 0.00297224 0.00247417 0.03357821 0.00446812 0.00330013 0.00464447 0.00124890 
0.10081883 0.01810520 0.01495236 0.00322994 0.00076123 0.00250972 0.00818280 0.00475624 0.03055475 0.00301144 0.00248240 0.03372408 0.00455069 0.00334482 0.00474650 0.00124881 
0.10169505 0.01756004 0.01545903 0.00317459 0.00075853 0.00253288 0.00837643 0.00486140 0.03060797 0.00304890 0.00249023 0.03391875 0.00463482 0.00339128 0.00485115 0.00124886 
0.10244756 0.01702576 0.01594534 0.00312008 0.00075599 0.00255378 0.00857399 0.00496387 0.03063326 0.00308446 0.00249779 0.03416551 0.00472032 0.00343943 0.00495825 0.00124905 
0.10307402 0.01650426 0.01640916 0.00306642 0.00075365 0.00257232 0.00877478 0.00506325 0.03063033 0.00311796 0.00250521 0.03446749 0.00480701 0.00348924 0.00506761 0.00124939 
0.10357274 0.01599745 0.01684849 0.00301365 0.00075149 0.00258841 0.00897812 0.00515919 0.03059907 0.00314923 0.00251261 0.03482762 0.00489471 0.00354064 0.00517905 0.00124987 
0.10394269 0.01550720 0.01726153 0.00296178 0.00074953 0.00260198 0.00918330 0.00525132 0.03053953 0.00317815 0.00252013 0.03524858 0.00498320 0.00359359 0.00529233 0.00125051 
0.10418350 0.01503537 0.01764664 0.00291082 0.00074777 0.00261297 0.00938960 0.00533929 0.03045194 0.00320457 0.00252791 0.03573282 0.00507231 0.00364802 0.00540724 0.00125129 
0.10429548 0.01458376 0.01800234 0.00286077 0.00074622 0.00262134 0.00959628 0.00542280 0.03033668 0.00322837 0.00253608 0.03628249 0.00516181 0.00370387 0.00552352 0.00125222 
0.10427956 0.01415416 0.01832736 0.00281165 0.00074487 0.00262706 0.00980263 0.00550152 0.03019431 0.00324942 0.00254478 0.03689942 0.00525152 0.00376110 0.00564090 0.00125330 
0.10413734 0.01374827 0.01862062 0.00276345 0.00074372 0.00263012 0.01000790 0.00557518 0.03002554 0.00326761 0.00255415 0.03758516 0.00534121 0.00381962 0.00575912 0.00125452 
0.10387104 0.01336774 0.01888121 0.00271617 0.00074278 0.00263051 0.01021137 0.00564351 0.02983126 0.00328285 0.00256433 0.03834087 0.00543068 0.00387938 0.00587787 0.00125590 
0.10348348 0.01301417 0.01910844 0.00266980 0.00074203 0.00262824 0.01041232 0.00570628 0.02961249 0.00329505 0.00257543 0.03916735 0.00551969 0.00394031 0.00599687 0.00125742 
0.10297806 0.01268907 0.01930182 0.00262432 0.00074148 0.00262336 0.01061002 0.00576327 0.02937041 0.00330413 0.00258760 0.04006504 0.00560804 0.00400232 0.00611579 0.00125908 
0.10235876 0.01239386 0.01946104 0.00257974 0.00074112 0.00261588 0.01080379 0.00581430 0.02910636 0.00331003 0.00260094 0.04103395 0.00569550 0.00406533 0.00623432 0.00126089 
0.10163005 0.01212988 0.01958600 0.00253602 0.00074094 0.00260588 0.01099294 0.00585921 0.02882179 0.00331268 0.00261559 0.04207370 0.00578185 0.00412926 0.00635213 0.00126282 
0.10079694 0.01189836 0.01967679 0.00249315 0.00074093 0.00259342 0.01117682 0.00589788 0.02851828 0.00331207 0.00263163 0.04318348 0.00586684 0.00419401 0.00646889 0.00126489 
0.09986488 0.01170044 0.01973370 0.00245111 0.00074107 0.00257858 0.01135479 0.00593020 0.02819754 0.00330814 0.00264918 0.04436205 0.00595026 0.00425948 0.00658426 0.00126708 
0.09883972 0.01153712 0.01975719 0.00240989 0.00074137 0.00256144 0.01152624 0.00595613 0.02786138 0.00330090 0.00266833 0.04560774 0.00603187 0.00432557 0.00669790 0.00126938 
0.09772774 0.01140932 0.01974793 0.00236945 0.00074180 0.00254212 0.01169062 0.00597563 0.02751171 0.00329033 0.00268914 0.04691843 0.00611144 0.00439216 0.00680949 0.00127180 
0.09653554 0.01131779 0.01970674 0.00232978 0.00074236 0.00252071 0.01184738 0.00598871 0.02715052 0.00327645 0.00271170 0.04829157 0.00618873 0.00445912 0.00691868 0.00127433 
0.09527000 0.01126318 0.01963461 0.00229086 0.00074302 0.00249735 0.01199602 0.00599540 0.02677987 0.00325928 0.00273605 0.04972419 0.00626352 0.00452634 0.00702515 0.00127695 
0.09393829 0.01124600 0.01953270 0.00225266 0.00074378 0.00247217 0.01213608 0.00599578 0.02640189 0.00323886 0.00276225 0.05121287 0.00633556 0.00459367 0.00712858 0.00127965 
0.09254776 0.01126661 0.01940232 0.00221515 0.00074460 0.00244530 0.01226715 0.00598996 0.02601875 0.00321524 0.00279033 0.05275378 0.00640462 0.00466098 0.00722867 0.00128244 
0.09110594 0.01132523 0.01924492 0.00217833 0.00074549 0.00241688 0.01238887 0.00597810 0.02563266 0.00318849 0.00282031 0.05434267 0.00647049 0.00472812 0.00732510 0.00128530 
0.08962048 0.01142193 0.01906205 0.00214217 0.00074641 0.00238707 0.01250091 0.00596036 0.02524585 0.00315867 0.00285218 0.05597493 0.00653293 0.00479493 0.00741762 0.00128822 
0.08809908 0.01155664 0.01885542 0.00210666 0.00074734 0.00235602 0.01260301 0.00593698 0.02486056 0.00312588 0.00288595 0.05764554 0.00659172 0.00486127 0.00750594 0.00129119 
0.08654949 0.01172912 0.01862682 0.00207177 0.00074828 0.00232389 0.01269494 0.00590820 0.02447901 0.00309022 0.00292159 0.05934913 0.00664664 0.00492695 0.00758983 0.00129420 
0.08497941 0.01193899 0.01837813 0.00203750 0.00074919 0.00229085 0.01277655 0.00587431 0.02410343 0.00305180 0.00295907 0.06108002 0.00669748 0.00499183 0.00766906 0.00129725 
0.08339651 0.01218572 0.01811131 0.00200384 0.00075006 0.00225704 0.01284773 0.00583565 0.02373599 0.00301073 0.00299832 0.06283221 0.00674405 0.00505573 0.00774343 0.00130031 
0.08180832 0.01246863 0.01782839 0.00197079 0.00075087 0.00222265 0.01290841 0.00579255 0.02337883 0.00296717 0.00303929 0.06459942 0.00678613 0.00511849 0.00781278 0.00130339 
0.08022222 0.01278686 0.01753145 0.00193833 0.00075159 0.00218783 0.01295861 0.00574542 0.02303402 0.00292125 0.00308190 0.06637513 0.00682354 0.00517992 0.00787695 0.00130646 
0.07864543 0.01313945 0.01722259 0.00190647 0.00075220 0.00215274 0.01299837 0.00569467 0.02270358 0.00287312 0.00312605 0.06815260 0.00685611 0.00523987 0.00793585 0.00130953 
0.07708489 0.01352525 0.01690397 0.00187521 0.00075268 0.00211755 0.01302781 0.00564075 0.02238944 0.00282294 0.00317163 0.06992493 0.00688366 0.00529816 0.00798937 0.00131257 
0.07554731 0.01394299 0.01657771 0.00184456 0.00075302 0.00208241 0.01304709 0.00558412 0.02209343 0.00277090 0.00321853 0.07168505 0.00690604 0.00535462 0.00803747 0.00131558 
0.07403908 0.01439126 0.01624595 0.00181453 0.00075318 0.00204748 0.01305644 0.00552530 0.02181728 0.00271716 0.00326660 0.07342582 0.00692311 0.00540910 0.00808015 0.00131855 
0.07256626 0.01486853 0.01591081 0.00178515 0.00075315 0.00201291 0.01305613 0.00546480 0.02156261 0.00266192 0.00331571 0.07514001 0.00693473 0.00546144 0.00811741 0.00132147 
0.07113455 0.01537313 0.01557438 0.00175642 0.00075292 0.00197883 0.01304649 0.00540315 0.02133091 0.00260537 0.00336568 0.07682039 0.00694080 0.00551149 0.00814931 0.00132433 
0.06974923 0.01590328 0.01523868 0.00172837 0.00075245 0.00194539 0.01302788 0.00534093 0.02112356 0.00254770 0.00341636 0.07845974 0.00694121 0.00555911 0.00817596 0.00132712 
0.06841521 0.01645710 0.01490570 0.00170103 0.00075174 0.00191272 0.01300074 0.00527871 0.02094178 0.00248911 0.00346757 0.08005091 0.00693589 0.00560417 0.00819747 0.00132983 
0.06713694 0.01703259 0.01457735 0.00167443 0.00075077 0.00188093 0.01296553 0.00521706 0.02078666 0.00242982 0.00351911 0.08158686 0.00692477 0.00564655 0.00821401 0.00133244 
0.06591840 0.01762767 0.01425544 0.00164861 0.00074951 0.00185014 0.01292276 0.00515659 0.02065914 0.00237003 0.00357079 0.08306071 0.00690781 0.00568615 0.00822580 0.00133497 
0.06476314 0.01824020 0.01394171 0.00162361 0.00074796 0.00182046 0.01287299 0.00509789 0.02055999 0.00230996 0.00362240 0.08446576 0.00688499 0.00572287 0.00823306 0.00133738 
0.06367419 0.01886793 0.01363778 0.00159946 0.00074610 0.00179197 0.01281679 0.00504157 0.02048985 0.00224981 0.00367374 0.08579555 0.00685630 0.00575664 0.00823608 0.00133969 
0.06265412 0.01950859 0.01334517 0.00157622 0.00074391 0.00176478 0.01275479 0.00498822 0.02044917 0.00218980 0.00372459 0.08704393 0.00682176 0.00578739 0.00823517 0.00134187 
0.06170500 0.02015985 0.01306527 0.00155394 0.00074140 0.00173894 0.01268765 0.00493844 0.02043827 0.00213014 0.00377473 0.08820503 0.00678142 0.00581508 0.00823067 0.00134393 
0.06082841 0.02081932 0.01279936 0.00153266 0.00073855 0.00171453 0.01261604 0.00489282 0.02045729 0.00207104 0.00382393 0.08927337 0.00673534 0.00583970 0.00822296 0.00134586 
0.06002541 0.02148464 0.01254856 0.00151244 0.00073535 0.00169160 0.01254066 0.00485194 0.02050622 0.00201271 0.00387198 0.09024387 0.00668362 0.00586123 0.00821245 0.00134765 
0.05929660 0.02215338 0.01231387 0.00149334 0.00073180 0.00167020 0.01246223 0.00481634 0.02058488 0.00195535 0.00391865 0.09111189 0.00662635 0.00587970 0.00819958 0.00134930 
0.05864210 0.02282316 0.01209614 0.00147542 0.00072789 0.00165035 0.01238147 0.00478658 0.02069294 0.00189917 0.00396371 0.09187326 0.00656369 0.00589513 0.00818480 0.00135081 
0.05806155 0.02349158 0.01189609 0.00145872 0.00072362 0.00163209 0.01229914 0.00476316 0.02082992 0.00184436 0.00400695 0.09252430 0.00649579 0.00590760 0.00816860 0.00135217 
0.05755413 0.02415630 0.01171426 0.00144332 0.00071900 0.00161542 0.01221598 0.00474659 0.02099520 0.00179111 0.00404814 0.09306189 0.00642284 0.00591719 0.00815148 0.00135338 
0.05711858 0.02481499 0.01155107 0.00142928 0.00071403 0.00160034 0.01213273 0.00473732 0.02118800 0.00173961 0.00408708 0.09348346 0.00634505 0.00592399 0.00813398 0.00135444 
0.05675324 0.02546538 0.01140679 0.00141664 0.00070871 0.00158686 0.01205015 0.00473578 0.02140743 0.00169002 0.00412355 0.09378702 0.00626267 0.00592815 0.00811662 0.00135535 
0.05645603 0.02610528 0.01128152 0.00140548 0.00070306 0.00157494 0.01196896 0.00474237 0.02165245 0.00164253 0.00415735 0.09397119 0.00617594 0.00592980 0.00809996 0.00135610 
0.05622452 0.02673255 0.01117524 0.00139585 0.00069707 0.00156456 0.01188990 0.00475744 0.02192192 0.00159728 0.00418830 0.09403523 0.00608516 0.00592912 0.00808455 0.00135670 
0.05605590 0.02734514 0.01108777 0.00138780 0.00069078 0.00155569 0.01181367 0.00478130 0.02221458 0.00155442 0.00421621 0.09397900 0.00599063 0.00592632 0.00807096 0.00135715 
0.05594707 0.02794110 0.01101881 0.00138139 0.00068418 0.00154827 0.01174096 0.00481422 0.02252906 0.00151411 0.00424091 0.09380304 0.00589270 0.00592160 0.00805974 0.00135746 
0.05589462 0.02851860 0.01096792 0.00137668 0.00067730 0.00154226 0.01167242 0.00485643 0.02286393 0.00147645 0.00426223 0.09350851 0.00579170 0.00591520 0.00805147 0.00135761 
0.05589491 0.02907589 0.01093453 0.00137371 0.00067017 0.00153760 0.01160870 0.00490809 0.02321763 0.00144158 0.00428003 0.09309726 0.00568803 0.00590739 0.00804668 0.00135762 
0.05594406 0.02961136 0.01091795 0.00137252 0.00066279 0.00153421 0.01155039 0.00496933 0.02358859 0.00140959 0.00429417 0.09257177 0.00558207 0.00589843 0.00804593 0.00135750 
0.05603799 0.03012355 0.01091739 0.00137316 0.00065521 0.00153202 0.01149805 0.00504022 0.02397513 0.00138058 0.00430453 0.09193515 0.00547424 0.00588862 0.00804974 0.00135723 
0.05617249 0.03061108 0.01093196 0.00137566 0.00064744 0.00153095 0.01145220 0.00512078 0.02437556 0.00135463 0.00431101 0.09119118 0.00536499 0.00587828 0.00805863 0.00135684 
0.05634323 0.03107277 0.01096065 0.00138006 0.00063953 0.00153091 0.01141333 0.00521097 0.02478813 0.00133180 0.00431352 0.09034423 0.00525475 0.00586771 0.00807308 0.00135632 
0.05654578 0.03150755 0.01100239 0.00138638 0.00063149 0.00153182 0.01138185 0.00531070 0.02521108 0.00131215 0.00431198 0.08939930 0.00514400 0.00585727 0.00809356 0.00135569 
0.05677568 0.03191451 0.01105603 0.00139465 0.00062337 0.00153358 0.01135816 0.00541982 0.02564264 0.00129572 0.00430633 0.08836195 0.00503321 0.00584730 0.00812050 0.00135494 
0.05702847 0.03229289 0.01112035 0.00140487 0.00061520 0.00153609 0.01134258 0.00553814 0.02608102 0.00128253 0.00429654 0.08723831 0.00492289 0.00583815 0.00815432 0.00135408 
0.05729970 0.03264209 0.01119409 0.00141706 0.00060702 0.00153926 0.01133537 0.00566539 0.02652447 0.00127259 0.00428258 0.08603504 0.00481353 0.00583019 0.00819538 0.00135313 
0.05758501 0.03296163 0.01127594 0.00143121 0.00059888 0.00154298 0.01133677 0.00580128 0.02697123 0.00126591 0.00426445 0.08475927 0.00470564 0.00582378 0.00824403 0.00135208 
0.05788011 0.03325124 0.01136455 0.00144734 0.00059081 0.00154716 0.01134691 0.00594542 0.02741960 0.00126246 0.00424217 0.08341861 0.00459974 0.00581929 0.00830054 0.00135096 
0.05818086 0.03351074 0.01145856 0.00146541 0.00058287 0.00155169 0.01136591 0.00609742 0.02786790 0.00126221 0.00421576 0.08202110 0.00449635 0.00581710 0.00836518 0.00134976 
0.05848330 0.03374014 0.01155661 0.00148542 0.00057510 0.00155647 0.01139380 0.00625681 0.02831452 0.00126512 0.00418527 0.08057512 0.00439599 0.00581756 0.00843815 0.00134849 
0.05878364 0.03393959 0.01165732 0.00150734 0.00056754 0.00156141 0.01143056 0.00642308 0.02875790 0.00127113 0.00415079 0.07908943 0.00429918 0.00582104 0.00851962 0.00134717 
0.05907834 0.03410935 0.01175934 0.00153114 0.00056025 0.00156640 0.01147609 0.00659568 0.02919656 0.00128017 0.00411238 0.07757303 0.00420645 0.00582790 0.00860970 0.00134579 
0.05936408 0.03424985 0.01186133 0.00155678 0.00055327 0.00157136 0.01153024 0.00677401 0.02962908 0.00129215 0.00407016 0.07603519 0.00411831 0.00583848 0.00870845 0.00134438 
0.05963787 0.03436163 0.01196201 0.00158420 0.00054666 0.00157619 0.01159282 0.00695743 0.03005414 0.00130697 0.00402424 0.07448536 0.00403525 0.00585310 0.00881589 0.00134294 
0.05989696 0.03444536 0.01206011 0.00161337 0.00054047 0.00158080 0.01166355 0.00714527 0.03047052 0.00132453 0.00397477 0.07293312 0.00395778 0.00587209 0.00893198 0.00134147 
0.06013898 0.03450182 0.01215443 0.00164421 0.00053475 0.00158512 0.01174209 0.00733682 0.03087707 0.00134471 0.00392190 0.07138812 0.00388638 0.00589574 0.00905664 0.00134000 
0.06036187 0.03453188 0.01224383 0.00167666 0.00052955 0.00158906 0.01182807 0.00753137 0.03127276 0.00136736 0.00386579 0.06986006 0.00382151 0.00592435 0.00918973 0.00133851 
0.06056391 0.03453654 0.01232723 0.00171064 0.00052492 0.00159256 0.01192103 0.00772815 0.03165667 0.00139235 0.00380663 0.06835859 0.00376362 0.00595815 0.00933106 0.00133703 
0.06074378 0.03451686 0.01240365 0.00174608 0.00052092 0.00159555 0.01202048 0.00792637 0.03202797 0.00141953 0.00374463 0.06689330 0.00371314 0.00599740 0.00948039 0.00133557 
0.06090050 0.03447399 0.01247216 0.00178289 0.00051760 0.00159797 0.01212588 0.00812526 0.03238595 0.00144873 0.00367998 0.06547363 0.00367048 0.00604230 0.00963744 0.00133412 
0.06103349 0.03440913 0.01253194 0.00182097 0.00051500 0.00159976 0.01223662 0.00832401 0.03273002 0.00147977 0.00361291 0.06410881 0.00363601 0.00609304 0.00980187 0.00133271 
0.06114255 0.03432356 0.01258226 0.00186023 0.00051319 0.00160088 0.01235206 0.00852179 0.03305970 0.00151249 0.00354367 0.06280785 0.00361007 0.00614976 0.00997330 0.00133132 
0.06122786 0.03421860 0.01262249 0.00190056 0.00051219 0.00160130 0.01247153 0.00871781 0.03337461 0.00154670 0.00347248 0.06157946 0.00359300 0.00621260 0.01015132 0.00132999 
0.06128997 0.03409559 0.01265210 0.00194186 0.00051207 0.00160097 0.01259429 0.00891125 0.03367449 0.00158221 0.00339961 0.06043198 0.00358508 0.00628165 0.01033545 0.00132870 
0.06132979 0.03395592 0.01267066 0.00198402 0.00051287 0.00159988 0.01271959 0.00910130 0.03395918 0.00161882 0.00332531 0.05937337 0.00358656 0.00635696 0.01052520 0.00132746 
0.06134862 0.03380097 0.01267784 0.00202692 0.00051463 0.00159801 0.01284666 0.00928717 0.03422865 0.00165634 0.00324986 0.05841114 0.00359766 0.00643856 0.01072002 0.00132629 
0.06134808 0.03363215 0.01267344 0.00207043 0.00051739 0.00159535 0.01297467 0.00946808 0.03448294 0.00169457 0.00317353 0.05755231 0.00361855 0.00652645 0.01091935 0.00132518 
0.06133012 0.03345084 0.01265735 0.00211445 0.00052119 0.00159191 0.01310279 0.00964328 0.03472222 0.00173330 0.00309659 0.05680336 0.00364937 0.00662058 0.01112257 0.00132415 
0.06129700 0.03325844 0.01262957 0.00215885 0.00052607 0.00158768 0.01323019 0.00981202 0.03494671 0.00177233 0.00301933 0.05617022 0.00369021 0.00672087 0.01132906 0.00132319 
0.06125129 0.03305628 0.01259020 0.00220349 0.00053206 0.00158268 0.01335601 0.00997362 0.03515677 0.00181147 0.00294203 0.05565819 0.00374113 0.00682722 0.01153818 0.00132232 
0.06119578 0.03284571 0.01253944 0.00224826 0.00053919 0.00157694 0.01347937 0.01012738 0.03535280 0.00185051 0.00286498 0.05527195 0.00380212 0.00693948 0.01174924 0.00132152 
0.06113353 0.03262801 0.01247759 0.00229303 0.00054749 0.00157048 0.01359943 0.01027268 0.03553530 0.00188926 0.00278846 0.05501549 0.00387314 0.00705745 0.01196157 0.00132081 
0.06106778 0.03240440 0.01240506 0.00233766 0.00055699 0.00156334 0.01371532 0.01040893 0.03570482 0.00192753 0.00271275 0.05489212 0.00395411 0.00718094 0.01217446 0.00132019 
0.06100196 0.03217609 0.01232233 0.00238204 0.00056770 0.00155556 0.01382619 0.01053557 0.03586199 0.00196513 0.00263812 0.05490444 0.00404489 0.00730969 0.01238723 0.00131966 
0.06093962 0.03194420 0.01222998 0.00242602 0.00057964 0.00154719 0.01393122 0.01065209 0.03600746 0.00200189 0.00256486 0.05505431 0.00414529 0.00744341 0.01259915 0.00131921 
0.06088444 0.03170979 0.01212864 0.00246949 0.00059284 0.00153829 0.01402959 0.01075803 0.03614197 0.00203762 0.00249324 0.05534286 0.00425508 0.00758181 0.01280952 0.00131886 
0.06084014 0.03147386 0.01201905 0.00251233 0.00060728 0.00152892 0.01412052 0.01085300 0.03626627 0.00207217 0.00242352 0.05577044 0.00437398 0.00772453 0.01301765 0.00131860 
0.06081050 0.03123733 0.01190199 0.00255440 0.00062300 0.00151914 0.01420324 0.01093664 0.03638114 0.00210539 0.00235595 0.05633666 0.00450167 0.00787122 0.01322284 0.00131842 
0.06079927 0.03100104 0.01177830 0.00259560 0.00063998 0.00150904 0.01427705 0.01100864 0.03648739 0.00213712 0.00229078 0.05704038 0.00463775 0.00802148 0.01342442 0.00131834 
0.06081017 0.03076578 0.01164888 0.00263580 0.00065822 0.00149867 0.01434126 0.01106878 0.03658584 0.00216725 0.00222826 0.05787969 0.00478181 0.00817488 0.01362172 0.00131834 
0.06084682 0.03053223 0.01151467 0.00267489 0.00067772 0.00148813 0.01439524 0.01111687 0.03667731 0.00219565 0.00216861 0.05885195 0.00493339 0.00833100 0.01381412 0.00131842 
0.06091273 0.03030102 0.01137662 0.00271276 0.00069848 0.00147750 0.01443841 0.01115278 0.03676263 0.00222221 0.00211204 0.05995377 0.00509196 0.00848937 0.01400098 0.00131858 
0.06101125 0.03007267 0.01123575 0.00274930 0.00072047 0.00146686 0.01447023 0.01117645 0.03684261 0.00224684 0.00205877 0.06118106 0.00525698 0.00864953 0.01418172 0.00131882 
0.06114554 0.02984766 0.01109306 0.00278442 0.00074368 0.00145631 0.01449023 0.01118787 0.03691805 0.00226946 0.00200898 0.06252903 0.00542785 0.00881097 0.01435580 0.00131913 
0.06131853 0.02962637 0.01094957 0.00281801 0.00076808 0.00144593 0.01449799 0.01118709 0.03698972 0.00229002 0.00196286 0.06399223 0.00560393 0.00897320 0.01452268 0.00131951 
0.06153286 0.02940911 0.01080629 0.00285000 0.00079366 0.00143582 0.01449318 0.01117423 0.03705837 0.00230845 0.00192057 0.06556455 0.00578455 0.00913570 0.01468188 0.00131996 
0.06179090 0.02919614 0.01066424 0.00288028 0.00082039 0.00142608 0.01447549 0.01114945 0.03712471 0.00232474 0.00188226 0.06723928 0.00596902 0.00929797 0.01483295 0.00132046 
0.06209469 0.02898762 0.01052441 0.00290878 0.00084822 0.00141679 0.01444474 0.01111297 0.03718940 0.00233886 0.00184807 0.06900916 0.00615660 0.00945948 0.01497549 0.00132102 
0.06244591 0.02878369 0.01038777 0.00293543 0.00087712 0.00140806 0.01440076 0.01106507 0.03725306 0.00235081 0.00181812 0.07086637 0.00634654 0.00961970 0.01510914 0.00132162 
0.06284586 0.02858440 0.01025524 0.00296015 0.00090705 0.00139997 0.01434349 0.01100608 0.03731626 0.00236061 0.00179251 0.07280260 0.00653805 0.00977813 0.01523359 0.00132227 
0.06329543 0.02838977 0.01012773 0.00298289 0.00093797 0.00139261 0.01427293 0.01093637 0.03737953 0.00236830 0.00177134 0.07480911 0.00673033 0.00993423 0.01534856 0.00132295 
0.06379511 0.02819976 0.01000606 0.00300358 0.00096982 0.00138609 0.01418917 0.01085636 0.03744330 0.00237391 0.00175467 0.07687676 0.00692257 0.01008751 0.01545383 0.00132366 
0.06434493 0.02801429 0.00989105 0.00302218 0.00100256 0.00138047 0.01409236 0.01076654 0.03750797 0.00237752 0.00174256 0.07899603 0.00711393 0.01023747 0.01554924 0.00132439 
0.06494449 0.02783325 0.00978341 0.00303864 0.00103613 0.00137586 0.01398273 0.01066741 0.03757387 0.00237921 0.00173505 0.08115715 0.00730359 0.01038363 0.01563465 0.00132514 
0.06559291 0.02765650 0.00968381 0.00305292 0.00107047 0.00137232 0.01386058 0.01055951 0.03764125 0.00237907 0.00173217 0.08335007 0.00749070 0.01052551 0.01571000 0.00132589 
0.06628886 0.02748388 0.00959284 0.00306500 0.00110552 0.00136993 0.01372629 0.01044344 0.03771031 0.00237721 0.00173392 0.08556455 0.00767442 0.01066266 0.01577526 0.00132665 
0.06703053 0.02731520 0.00951103 0.00307485 0.00114122 0.00136878 0.01358031 0.01031981 0.03778117 0.00237376 0.00174030 0.08779024 0.00785393 0.01079466 0.01583046 0.00132741 
0.06781566 0.02715028 0.00943879 0.00308244 0.00117749 0.00136891 0.01342315 0.01018925 0.03785388 0.00236884 0.00175127 0.09001669 0.00802840 0.01092110 0.01587566 0.00132816 
0.06864152 0.02698891 0.00937650 0.00308778 0.00121427 0.00137040 0.01325540 0.01005245 0.03792842 0.00236262 0.00176679 0.09223343 0.00819703 0.01104159 0.01591100 0.00132889 
0.06950492 0.02683089 0.00932441 0.00309085 0.00125149 0.00137329 0.01307771 0.00991009 0.03800470 0.00235524 0.00178682 0.09443003 0.00835902 0.01115577 0.01593663 0.00132959 
0.07040225 0.02667604 0.00928272 0.00309166 0.00128907 0.00137764 0.01289079 0.00976287 0.03808257 0.00234689 0.00181127 0.09659615 0.00851362 0.01126333 0.01595277 0.00133027 
0.07132947 0.02652417 0.00925151 0.00309021 0.00132693 0.00138349 0.01269541 0.00961151 0.03816179 0.00233773 0.00184007 0.09872158 0.00866008 0.01136396 0.01595967 0.00133091 
0.07228214 0.02637512 0.00923078 0.00308652 0.00136499 0.00139087 0.01249239 0.00945673 0.03824207 0.00232797 0.00187310 0.10079633 0.00879771 0.01145740 0.01595762 0.00133151 
0.07325543 0.02622873 0.00922047 0.00308060 0.00140318 0.00139980 0.01228259 0.00929928 0.03832308 0.00231778 0.00191026 0.10281067 0.00892583 0.01154341 0.01594696 0.00133206 
0.07424418 0.02608489 0.00922038 0.00307250 0.00144141 0.00141031 0.01206693 0.00913987 0.03840438 0.00230738 0.00195141 0.10475513 0.00904382 0.01162180 0.01592806 0.00133256 
0.07524289 0.02594349 0.00923027 0.00306223 0.00147960 0.00142240 0.01184636 0.00897924 0.03848550 0.00229696 0.00199641 0.10662066 0.00915110 0.01169240 0.01590132 0.00133301 
0.07624578 0.02580448 0.00924978 0.00304983 0.00151766 0.00143608 0.01162187 0.00881811 0.03856593 0.00228673 0.00204512 0.10839856 0.00924713 0.01175509 0.01586717 0.00133340 
0.07724681 0.02566782 0.00927851 0.00303537 0.00155551 0.00145134 0.01139445 0.00865720 0.03864509 0.00227690 0.00209735 0.11008061 0.00933143 0.01180978 0.01582608 0.00133372 
0.07823973 0.02553353 0.00931593 0.00301887 0.00159306 0.00146815 0.01116516 0.00849720 0.03872234 0.00226768 0.00215295 0.11165907 0.00940357 0.01185640 0.01577853 0.00133398 
0.07921809 0.02540163 0.00936149 0.00300041 0.00163022 0.00148650 0.01093503 0.00833879 0.03879703 0.00225926 0.00221172 0.11312673 0.00946318 0.01189495 0.01572502 0.00133416 
0.08017534 0.02527222 0.00941452 0.00298003 0.00166690 0.00150635 0.01070511 0.00818263 0.03886845 0.00225186 0.00227346 0.11447697 0.00950995 0.01192543 0.01566610 0.00133428 
0.08110481 0.02514540 0.00947432 0.00295782 0.00170303 0.00152766 0.01047648 0.00802937 0.03893587 0.00224567 0.00233797 0.11570374 0.00954363 0.01194791 0.01560229 0.00133432 
0.08199979 0.02502136 0.00954012 0.00293384 0.00173850 0.00155037 0.01025018 0.00787960 0.03899852 0.00224087 0.00240504 0.11680166 0.00956403 0.01196248 0.01553415 0.00133428 
0.08285355 0.02490028 0.00961109 0.00290818 0.00177323 0.00157443 0.01002726 0.00773392 0.03905560 0.00223766 0.00247444 0.11776599 0.00957103 0.01196925 0.01546224 0.00133417 
0.08365943 0.02478241 0.00968636 0.00288091 0.00180714 0.00159975 0.00980875 0.00759288 0.03910633 0.00223620 0.00254595 0.11859267 0.00956458 0.01196839 0.01538713 0.00133398 
0.08441081 0.02466802 0.00976502 0.00285212 0.00184014 0.00162627 0.00959565 0.00745698 0.03914986 0.00223666 0.00261933 0.11927835 0.00954468 0.01196008 0.01530938 0.00133371 
0.08510125 0.02455744 0.00984612 0.00282191 0.00187214 0.00165389 0.00938894 0.00732672 0.03918539 0.00223919 0.00269435 0.11982041 0.00951141 0.01194456 0.01522956 0.00133337 
0.08572445 0.02445101 0.00992869 0.00279037 0.00190307 0.00168252 0.00918956 0.00720253 0.03921208 0.00224392 0.00277076 0.12021693 0.00946492 0.01192206 0.01514824 0.00133295 
0.08627433 0.02434911 0.01001172 0.00275761 0.00193283 0.00171205 0.00899841 0.00708483 0.03922911 0.00225099 0.00284831 0.12046677 0.00940542 0.01189288 0.01506596 0.00133246 
0.08674508 0.02425216 0.01009423 0.00272373 0.00196134 0.00174238 0.00881634 0.00697397 0.03923565 0.00226050 0.00292676 0.12056948 0.00933317 0.01185732 0.01498326 0.00133190 
0.08713119 0.02416059 0.01017519 0.00268884 0.00198853 0.00177338 0.00864415 0.00687028 0.03923092 0.00227254 0.00300586 0.12052540 0.00924853 0.01181570 0.01490068 0.00133127 
0.08742750 0.02407488 0.01025359 0.00265305 0.00201433 0.00180494 0.00848259 0.00677403 0.03921414 0.00228718 0.00308534 0.12033555 0.00915188 0.01176839 0.01481871 0.00133057 
0.08762919 0.02399550 0.01032844 0.00261648 0.00203865 0.00183691 0.00833235 0.00668547 0.03918454 0.00230449 0.00316497 0.12000173 0.00904369 0.01171575 0.01473785 0.00132981 
0.08773189 0.02392295 0.01039874 0.00257925 0.00206142 0.00186917 0.00819403 0.00660479 0.03914142 0.00232450 0.00324449 0.11952642 0.00892447 0.01165818 0.01465856 0.00132899 
0.08773166 0.02385775 0.01046355 0.00254148 0.00208259 0.00190158 0.00806819 0.00653213 0.03908408 0.00234723 0.00332364 0.11891279 0.00879478 0.01159608 0.01458129 0.00132811 
0.08762502 0.02380042 0.01052193 0.00250330 0.00210207 0.00193398 0.00795529 0.00646762 0.03901189 0.00237269 0.00340218 0.11816472 0.00865525 0.01152988 0.01450643 0.00132719 
0.08740901 0.02375148 0.01057299 0.00246483 0.00211981 0.00196624 0.00785575 0.00641131 0.03892426 0.00240084 0.00347986 0.11728672 0.00850654 0.01146000 0.01443438 0.00132622 
0.08708118 0.02371146 0.01061588 0.00242619 0.00213576 0.00199821 0.00776987 0.00636322 0.03882063 0.00243165 0.00355643 0.11628392 0.00834936 0.01138688 0.01436547 0.00132521 
0.08663961 0.02368088 0.01064980 0.00238753 0.00214985 0.00202972 0.00769790 0.00632334 0.03870053 0.00246506 0.00363167 0.11516206 0.00818444 0.01131098 0.01430004 0.00132416 
0.08608295 0.02366026 0.01067402 0.00234897 0.00216204 0.00206064 0.00763999 0.00629160 0.03856354 0.00250100 0.00370534 0.11392743 0.00801258 0.01123272 0.01423835 0.00132309 
0.08541042 0.02365009 0.01068785 0.00231064 0.00217228 0.00209081 0.00759622 0.00626792 0.03840929 0.00253935 0.00377720 0.11258687 0.00783457 0.01115257 0.01418065 0.00132199 
0.08462180 0.02365087 0.01069067 0.00227268 0.00218053 0.00212009 0.00756659 0.00625214 0.03823751 0.00258000 0.00384704 0.11114768 0.00765125 0.01107096 0.01412714 0.00132087 
0.08371748 0.02366306 0.01068195 0.00223520 0.00218676 0.00214831 0.00755100 0.00624411 0.03804797 0.00262282 0.00391464 0.10961762 0.00746347 0.01098835 0.01407798 0.00131974 
0.08269840 0.02368710 0.01066122 0.00219836 0.00219093 0.00217534 0.00754928 0.00624360 0.03784054 0.00266764 0.00397981 0.10800487 0.00727209 0.01090515 0.01403332 0.00131861 
0.08156611 0.02372340 0.01062807 0.00216227 0.00219302 0.00220103 0.00756119 0.00625039 0.03761516 0.00271430 0.00404233 0.10631795 0.00707799 0.01082179 0.01399323 0.00131748 
0.08032271 0.02377234 0.01058221 0.00212707 0.00219301 0.00222525 0.00758638 0.00626419 0.03737185 0.00276261 0.00410202 0.10456569 0.00688204 0.01073870 0.01395775 0.00131635 
0.07897087 0.02383426 0.01052340 0.00209288 0.00219088 0.00224787 0.00762446 0.00628471 0.03711072 0.00281237 0.00415871 0.10275722 0.00668512 0.01065625 0.01392690 0.00131523 
0.07751382 0.02390949 0.01045149 0.00205982 0.00218662 0.00226876 0.00767495 0.00631163 0.03683196 0.00286335 0.00421222 0.10090186 0.00648810 0.01057485 0.01390064 0.00131413 
0.07595532 0.02399827 0.01036644 0.00202803 0.00218023 0.00228781 0.00773730 0.00634458 0.03653586 0.00291533 0.00426240 0.09900911 0.00629184 0.01049484 0.01387889 0.00131306 
0.07429963 0.02410083 0.01026827 0.00199761 0.00217171 0.00230490 0.00781089 0.00638320 0.03622276 0.00296807 0.00430910 0.09708860 0.00609717 0.01041658 0.01386155 0.00131202 
0.07255151 0.02421735 0.01015710 0.00196868 0.00216107 0.00231994 0.00789506 0.00642709 0.03589313 0.00302131 0.00435219 0.09515002 0.00590492 0.01034039 0.01384847 0.00131100 
0.07071620 0.02434795 0.01003313 0.00194135 0.00214833 0.00233284 0.00798908 0.00647585 0.03554750 0.00307480 0.00439156 0.09320310 0.00571588 0.01026656 0.01383946 0.00131003 
0.06879934 0.02449271 0.00989666 0.00191574 0.00213350 0.00234351 0.00809215 0.00652903 0.03518650 0.00312828 0.00442708 0.09125753 0.00553082 0.01019538 0.01383431 0.00130911 
0.06680700 0.02465165 0.00974804 0.00189194 0.00211661 0.00235190 0.00820347 0.00658622 0.03481082 0.00318146 0.00445867 0.08932292 0.00535046 0.01012709 0.01383275 0.00130823 
0.06474561 0.02482474 0.00958774 0.00187004 0.00209770 0.00235795 0.00832216 0.00664694 0.03442127 0.00323408 0.00448625 0.08740879 0.00517549 0.01006191 0.01383450 0.00130740 
0.06262193 0.02501189 0.00941628 0.00185014 0.00207680 0.00236162 0.00844732 0.00671076 0.03401870 0.00328587 0.00450975 0.08552446 0.00500657 0.01000005 0.01383925 0.00130664 
0.06044303 0.02521295 0.00923428 0.00183232 0.00205395 0.00236287 0.00857803 0.00677721 0.03360407 0.00333655 0.00452912 0.08367907 0.00484429 0.00994167 0.01384666 0.00130593 
0.05821623 0.02542774 0.00904241 0.00181667 0.00202922 0.00236170 0.00871334 0.00684581 0.03317838 0.00338584 0.00454432 0.08188146 0.00468922 0.00988692 0.01385635 0.00130528 
0.05594906 0.02565599 0.00884142 0.00180324 0.00200264 0.00235809 0.00885229 0.00691611 0.03274274 0.00343348 0.00455534 0.08014023 0.00454186 0.00983590 0.01386795 0.00130471 
0.05364923 0.02589738 0.00863212 0.00179211 0.00197430 0.00235208 0.00899391 0.00698764 0.03229829 0.00347921 0.00456217 0.07846361 0.00440267 0.00978870 0.01388103 0.00130420 
0.05132461 0.02615156 0.00841538 0.00178332 0.00194425 0.00234367 0.00913724 0.00705993 0.03184624 0.00352277 0.00456482 0.07685946 0.00427204 0.00974538 0.01389518 0.00130376 
0.04898312 0.02641808 0.00819211 0.00177693 0.00191256 0.00233293 0.00928133 0.00713253 0.03138787 0.00356392 0.00456332 0.07533523 0.00415032 0.00970596 0.01390995 0.00130339 
0.04663277 0.02669646 0.00796329 0.00177298 0.00187933 0.00231989 0.00942521 0.00720499 0.03092449 0.00360242 0.00455770 0.07389796 0.00403781 0.00967044 0.01392489 0.00130310 
0.04428155 0.02698617 0.00772991 0.00177149 0.00184462 0.00230465 0.00956796 0.00727686 0.03045745 0.00363805 0.00454803 0.07255418 0.00393473 0.00963881 0.01393954 0.00130288 
0.04193743 0.02728661 0.00749303 0.00177249 0.00180853 0.00228727 0.00970869 0.00734772 0.02998817 0.00367060 0.00453438 0.07130995 0.00384127 0.00961101 0.01395344 0.00130273 
0.03960832 0.02759714 0.00725372 0.00177599 0.00177115 0.00226788 0.00984653 0.00741714 0.02951807 0.00369988 0.00451683 0.07017080 0.00375754 0.00958697 0.01396613 0.00130265 
0.03730200 0.02791705 0.00701306 0.00178200 0.00173258 0.00224657 0.00998064 0.00748472 0.02904860 0.00372571 0.00449550 0.06914172 0.00368361 0.00956658 0.01397714 0.00130265 
0.03502609 0.02824559 0.00677217 0.00179051 0.00169291 0.00222348 0.01011025 0.00755008 0.02858125 0.00374794 0.00447050 0.06822715 0.00361950 0.00954974 0.01398601 0.00130272 
0.03278804 0.02858198 0.00653215 0.00180149 0.00165226 0.00219876 0.01023462 0.00761283 0.02811748 0.00376643 0.00444197 0.06743094 0.00356516 0.00953630 0.01399229 0.00130285 
0.03059508 0.02892537 0.00629414 0.00181494 0.00161074 0.00217255 0.01035307 0.00767262 0.02765879 0.00378106 0.00441005 0.06675635 0.00352052 0.00952611 0.01399555 0.00130305 
0.02845416 0.02927486 0.00605923 0.00183082 0.00156845 0.00214502 0.01046498 0.00772911 0.02720666 0.00379172 0.00437491 0.06620608 0.00348542 0.00951899 0.01399536 0.00130332 
0.02637195 0.02962954 0.00582852 0.00184907 0.00152550 0.00211635 0.01056981 0.00778198 0.02676257 0.00379836 0.00433673 0.06578218 0.00345969 0.00951476 0.01399132 0.00130364 
0.02435480 0.02998844 0.00560311 0.00186965 0.00148202 0.00208672 0.01066706 0.00783092 0.02632798 0.00380090 0.00429570 0.06548613 0.00344310 0.00951322 0.01398304 0.00130402 
0.02240872 0.03035056 0.00538404 0.00189250 0.00143812 0.00205634 0.01075631 0.00787567 0.02590431 0.00379933 0.00425202 0.06531879 0.00343539 0.00951415 0.01397018 0.00130446 
0.02053933 0.03071485 0.00517234 0.00191754 0.00139393 0.00202540 0.01083723 0.00791595 0.02549298 0.00379363 0.00420591 0.06528045 0.00343627 0.00951735 0.01395239 0.00130494 
0.01875188 0.03108025 0.00496899 0.00194469 0.00134956 0.00199411 0.01090955 0.00795154 0.02509535 0.00378383 0.00415758 0.06537077 0.00344539 0.00952259 0.01392938 0.00130547 
0.01705118 0.03144568 0.00477494 0.00197386 0.00130514 0.00196270 0.01097308 0.00798220 0.02471274 0.00376995 0.00410729 0.06558884 0.00346241 0.00952963 0.01390089 0.00130604 
0.01544162 0.03181001 0.00459108 0.00200495 0.00126079 0.00193138 0.01102771 0.00800775 0.02434643 0.00375207 0.00405526 0.06593320 0.00348694 0.00953826 0.01386667 0.00130664 
0.01392714 0.03217210 0.00441825 0.00203786 0.00121664 0.00190038 0.01107341 0.00802801 0.02399764 0.00373027 0.00400177 0.06640182 0.00351859 0.00954825 0.01382654 0.00130727 
0.01251122 0.03253080 0.00425723 0.00207246 0.00117280 0.00186992 0.01111023 0.00804282 0.02366753 0.00370465 0.00394706 0.06699213 0.00355692 0.00955936 0.01378035 0.00130792 
0.01119687 0.03288495 0.00410875 0.00210864 0.00112941 0.00184023 0.01113828 0.00805206 0.02335720 0.00367535 0.00389140 0.06770106 0.00360152 0.00957139 0.01372799 0.00130859 
0.00998664 0.03323336 0.00397344 0.00214626 0.00108658 0.00181154 0.01115778 0.00805560 0.02306767 0.00364252 0.00383507 0.06852504 0.00365194 0.00958410 0.01366937 0.00130927 
0.00888257 0.03357486 0.00385189 0.00218518 0.00104443 0.00178407 0.01116899 0.00805336 0.02279991 0.00360632 0.00377835 0.06946002 0.00370776 0.00959731 0.01360450 0.00130996 
0.00788624 0.03390827 0.00374461 0.00222527 0.00100309 0.00175804 0.01117226 0.00804527 0.02255479 0.00356696 0.00372151 0.07050155 0.00376853 0.00961082 0.01353339 0.00131064 
0.00699875 0.03423240 0.00365202 0.00226636 0.00096266 0.00173367 0.01116802 0.00803126 0.02233311 0.00352463 0.00366484 0.07164474 0.00383383 0.00962444 0.01345610 0.00131131 
0.00622072 0.03454608 0.00357448 0.00230831 0.00092328 0.00171116 0.01115673 0.00801132 0.02213559 0.00347957 0.00360862 0.07288434 0.00390322 0.00963801 0.01337278 0.00131197 
0.00555229 0.03484815 0.00351225 0.00235094 0.00088503 0.00169073 0.01113895 0.00798541 0.02196286 0.00343201 0.00355312 0.07421475 0.00397631 0.00965138 0.01328357 0.00131261 
0.00499315 0.03513748 0.00346552 0.00239411 0.00084805 0.00167256 0.01111526 0.00795355 0.02181547 0.00338221 0.00349862 0.07563006 0.00405270 0.00966441 0.01318871 0.00131322 
0.00454253 0.03541293 0.00343441 0.00243763 0.00081243 0.00165683 0.01108632 0.00791576 0.02169388 0.00333044 0.00344540 0.07712411 0.00413203 0.00967698 0.01308845 0.00131380 
0.00419923 0.03567343 0.00341893 0.00248134 0.00077828 0.00164372 0.01105282 0.00787207 0.02159846 0.00327698 0.00339373 0.07869047 0.00421393 0.00968900 0.01298312 0.00131434 
0.00396161 0.03591789 0.00341903 0.00252507 0.00074569 0.00163339 0.01101549 0.00782254 0.02152949 0.00322212 0.00334386 0.08032255 0.00429810 0.00970039 0.01287307 0.00131483 
0.00382763 0.03614530 0.00343457 0.00256863 0.00071476 0.00162598 0.01097509 0.00776723 0.02148717 0.00316615 0.00329606 0.08201358 0.00438425 0.00971110 0.01275872 0.00131527 
0.00379486 0.03635468 0.00346533 0.00261186 0.00068557 0.00162163 0.01093243 0.00770623 0.02147162 0.00310937 0.00325056 0.08375669 0.00447210 0.00972107 0.01264052 0.00131565 
0.00386050 0.03654507 0.00351102 0.00265457 0.00065822 0.00162044 0.01088831 0.00763963 0.02148284 0.00305209 0.00320759 0.08554492 0.00456143 0.00973031 0.01251896 0.00131597 
0.00402137 0.03671559 0.00357128 0.00269660 0.00063279 0.00162252 0.01084355 0.00756754 0.02152079 0.00299462 0.00316739 0.08737126 0.00465205 0.00973882 0.01239458 0.00131622 
0.00427400 0.03686542 0.00364566 0.00273777 0.00060934 0.00162795 0.01079899 0.00749010 0.02158530 0.00293727 0.00313015 0.08922873 0.00474380 0.00974662 0.01226797 0.00131639 
0.00461457 0.03699378 0.00373364 0.00277792 0.00058796 0.00163680 0.01075545 0.00740744 0.02167617 0.00288034 0.00309606 0.09111036 0.00483656 0.00975377 0.01213974 0.00131649 
0.00503902 0.03709996 0.00383467 0.00281687 0.00056869 0.00164910 0.01071375 0.00731970 0.02179308 0.00282413 0.00306531 0.09300928 0.00493023 0.00976033 0.01201053 0.00131651 
0.00554300 0.03718334 0.00394809 0.00285447 0.00055161 0.00166489 0.01067470 0.00722704 0.02193565 0.00276895 0.00303805 0.09491871 0.00502479 0.00976640 0.01188103 0.00131645 
0.00612193 0.03724335 0.00407321 0.00289056 0.00053675 0.00168418 0.01063907 0.00712964 0.02210342 0.00271509 0.00301441 0.09683206 0.00512020 0.00977209 0.01175194 0.00131629 
0.00677101 0.03727951 0.00420930 0.00292499 0.00052417 0.00170694 0.01060761 0.00702768 0.02229588 0.00266282 0.00299453 0.09874288 0.00521650 0.00977752 0.01162400 0.00131605 
0.00748528 0.03729144 0.00435556 0.00295763 0.00051391 0.00173314 0.01058104 0.00692134 0.02251243 0.00261241 0.00297851 0.10064496 0.00531374 0.00978284 0.01149796 0.00131571 
0.00825961 0.03727884 0.00451115 0.00298832 0.00050599 0.00176274 0.01056003 0.00681083 0.02275241 0.00256414 0.00296641 0.10253234 0.00541202 0.00978821 0.01137458 0.00131528 
0.00908872 0.03724148 0.00467520 0.00301696 0.00050045 0.00179566 0.01054518 0.00669637 0.02301510 0.00251824 0.00295831 0.10439934 0.00551145 0.00979381 0.01125466 0.00131475 
0.00996725 0.03717925 0.00484682 0.00304342 0.00049730 0.00183181 0.01053707 0.00657816 0.02329974 0.00247495 0.00295423 0.10624057 0.00561219 0.00979982 0.01113898 0.00131413 
0.01088973 0.03709214 0.00502506 0.00306760 0.00049655 0.00187108 0.01053619 0.00645643 0.02360551 0.00243447 0.00295418 0.10805099 0.00571441 0.00980645 0.01102834 0.00131341 
0.01185066 0.03698024 0.00520899 0.00308940 0.00049820 0.00191334 0.01054298 0.00633143 0.02393151 0.00239702 0.00295817 0.10982591 0.00581831 0.00981390 0.01092354 0.00131259 
0.01284448 0.03684372 0.00539764 0.00310874 0.00050226 0.00195845 0.01055781 0.00620339 0.02427684 0.00236276 0.00296614 0.11156100 0.00592412 0.00982240 0.01082536 0.00131169 
0.01386564 0.03668290 0.00559004 0.00312555 0.00050872 0.00200623 0.01058096 0.00607257 0.02464052 0.00233185 0.00297805 0.11325233 0.00603207 0.00983217 0.01073459 0.00131069 
0.01490860 0.03649818 0.00578522 0.00313976 0.00051755 0.00205651 0.01061264 0.00593923 0.02502156 0.00230444 0.00299381 0.11489638 0.00614242 0.00984343 0.01065199 0.00130960 
0.01596784 0.03629007 0.00598221 0.00315135 0.00052873 0.00210909 0.01065299 0.00580363 0.02541891 0.00228064 0.00301333 0.11649002 0.00625541 0.00985642 0.01057833 0.00130842 
0.01703794 0.03605920 0.00618005 0.00316027 0.00054222 0.00216376 0.01070205 0.00566605 0.02583150 0.00226055 0.00303646 0.11803058 0.00637133 0.00987135 0.01051432 0.00130716 
0.01811352 0.03580630 0.00637780 0.00316651 0.00055800 0.00222029 0.01075978 0.00552677 0.02625822 0.00224424 0.00306306 0.11951579 0.00649043 0.00988847 0.01046067 0.00130582 
0.01918931 0.03553223 0.00657453 0.00317006 0.00057601 0.00227845 0.01082607 0.00538608 0.02669795 0.00223176 0.00309296 0.12094382 0.00661298 0.00990799 0.01041805 0.00130440 
0.02026017 0.03523792 0.00676934 0.00317095 0.00059620 0.00233799 0.01090071 0.00524428 0.02714952 0.00222313 0.00312596 0.12231326 0.00673925 0.00993011 0.01038710 0.00130292 
0.02132109 0.03492445 0.00696136 0.00316919 0.00061851 0.00239866 0.01098340 0.00510166 0.02761176 0.00221837 0.00316186 0.12362314 0.00686947 0.00995506 0.01036841 0.00130137 
0.02236722 0.03459298 0.00714975 0.00316483 0.00064287 0.00246018 0.01107378 0.00495854 0.02808348 0.00221746 0.00320042 0.12487290 0.00700388 0.00998302 0.01036253 0.00129977 
0.02339388 0.03424477 0.00733372 0.00315794 0.00066921 0.00252228 0.01117138 0.00481523 0.02856345 0.00222036 0.00324138 0.12606239 0.00714270 0.01001417 0.01036997 0.00129811 
0.02439656 0.03388120 0.00751251 0.00314858 0.00069743 0.00258469 0.01127568 0.00467204 0.02905045 0.00222699 0.00328448 0.12719183 0.00728611 0.01004867 0.01039118 0.00129642 
0.02537098 0.03350371 0.00768541 0.00313683 0.00072747 0.00264713 0.01138605 0.00452930 0.02954322 0.00223729 0.00332944 0.12826184 0.00743427 0.01008668 0.01042656 0.00129468 
0.02631304 0.03311385 0.00785177 0.00312282 0.00075922 0.00270931 0.01150184 0.00438735 0.03004052 0.00225115 0.00337596 0.12927338 0.00758732 0.01012832 0.01047646 0.00129292 
0.02721890 0.03271327 0.00801097 0.00310664 0.00079257 0.00277095 0.01162229 0.00424651 0.03054108 0.00226844 0.00342373 0.13022777 0.00774536 0.01017369 0.01054115 0.00129113 
0.02808493 0.03230366 0.00816247 0.00308844 0.00082744 0.00283177 0.01174659 0.00410713 0.03104363 0.00228902 0.00347244 0.13112661 0.00790844 0.01022289 0.01062085 0.00128933 
0.02890775 0.03188680 0.00830577 0.00306835 0.00086370 0.00289149 0.01187389 0.00396954 0.03154687 0.00231273 0.00352175 0.13197179 0.00807659 0.01027597 0.01071572 0.00128753 
0.02968424 0.03146455 0.00844044 0.00304653 0.00090124 0.00294983 0.01200328 0.00383409 0.03204953 0.00233939 0.00357133 0.13276545 0.00824977 0.01033297 0.01082585 0.00128574 
0.03041155 0.03103880 0.00856610 0.00302316 0.00093994 0.00300652 0.01213381 0.00370113 0.03255031 0.00236880 0.00362084 0.13350998 0.00842792 0.01039390 0.01095125 0.00128395 
0.03108707 0.03061150 0.00868245 0.00299841 0.00097968 0.00306131 0.01226449 0.00357100 0.03304793 0.00240076 0.00366994 0.13420791 0.00861093 0.01045872 0.01109188 0.00128219 
0.03170849 0.03018464 0.00878922 0.00297247 0.00102031 0.00311394 0.01239432 0.00344406 0.03354108 0.00243504 0.00371829 0.13486197 0.00879861 0.01052740 0.01124760 0.00128046 
0.03227377 0.02976025 0.00888623 0.00294554 0.00106172 0.00316416 0.01252226 0.00332064 0.03402847 0.00247141 0.00376554 0.13547499 0.00899077 0.01059986 0.01141822 0.00127877 
0.03278116 0.02934036 0.00897335 0.00291783 0.00110376 0.00321176 0.01264728 0.00320110 0.03450881 0.00250963 0.00381136 0.13604988 0.00918711 0.01067598 0.01160349 0.00127713 
0.03322917 0.02892703 0.00905051 0.00288955 0.00114630 0.00325650 0.01276834 0.00308579 0.03498081 0.00254944 0.00385541 0.13658961 0.00938733 0.01075563 0.01180305 0.00127555 
0.03361664 0.02852233 0.00911770 0.00286093 0.00118920 0.00329820 0.01288439 0.00297503 0.03544318 0.00259058 0.00389737 0.13709716 0.00959105 0.01083862 0.01201651 0.00127403 
0.03394264 0.02812830 0.00917498 0.00283219 0.00123231 0.00333665 0.01299442 0.00286918 0.03589465 0.00263279 0.00393693 0.13757548 0.00979785 0.01092477 0.01224338 0.00127259 
0.03420658 0.02774698 0.00922243 0.00280355 0.00127550 0.00337170 0.01309743 0.00276856 0.03633395 0.00267579 0.00397378 0.13802745 0.01000724 0.01101384 0.01248311 0.00127122 
0.03440813 0.02738038 0.00926023 0.00277526 0.00131861 0.00340318 0.01319245 0.00267349 0.03675981 0.00271932 0.00400763 0.13845586 0.01021870 0.01110555 0.01273509 0.00126995 
0.03454724 0.02703047 0.00928859 0.00274753 0.00136151 0.00343097 0.01327855 0.00258429 0.03717098 0.00276310 0.00403820 0.13886338 0.01043166 0.01119962 0.01299864 0.00126877 
0.03462415 0.02669919 0.00930775 0.00272062 0.00140405 0.00345494 0.01335486 0.00250128 0.03756625 0.00280686 0.00406525 0.13925250 0.01064550 0.01129573 0.01327301 0.00126770 
0.03463940 0.02638838 0.00931803 0.00269473 0.00144609 0.00347500 0.01342055 0.00242474 0.03794438 0.00285034 0.00408852 0.13962550 0.01085956 0.01139351 0.01355740 0.00126673 
0.03459375 0.02609987 0.00931977 0.00267010 0.00148750 0.00349107 0.01347485 0.00235496 0.03830419 0.00289325 0.00410780 0.13998445 0.01107313 0.01149260 0.01385095 0.00126588 
0.03448829 0.02583538 0.00931335 0.00264695 0.00152813 0.00350310 0.01351707 0.00229221 0.03864450 0.00293536 0.00412290 0.14033118 0.01128548 0.01159258 0.01415274 0.00126515 
0.03432434 0.02559655 0.00929920 0.00262550 0.00156785 0.00351104 0.01354658 0.00223675 0.03896416 0.00297640 0.00413365 0.14066720 0.01149583 0.01169302 0.01446180 0.00126454 
0.03410347 0.02538493 0.00927776 0.00260596 0.00160654 0.00351488 0.01356286 0.00218881 0.03926205 0.00301613 0.00413988 0.14099375 0.01170338 0.01179348 0.01477711 0.00126407 
0.03382752 0.02520197 0.00924951 0.00258851 0.00164406 0.00351463 0.01356544 0.00214862 0.03953709 0.00305431 0.00414148 0.14131172 0.01190730 0.01189348 0.01509763 0.00126372 
0.03349858 0.02504901 0.00921495 0.00257336 0.00168030 0.00351030 0.01355395 0.00211638 0.03978823 0.00309073 0.00413836 0.14162169 0.01210676 0.01199252 0.01542226 0.00126351 
0.03311894 0.02492729 0.00917461 0.00256067 0.00171514 0.00350195 0.01352814 0.00209228 0.04001445 0.00312516 0.00413043 0.14192385 0.01230088 0.01209010 0.01574987 0.00126344 
0.03269114 0.02483790 0.00912902 0.00255062 0.00174847 0.00348963 0.01348781 0.00207647 0.04021477 0.00315742 0.00411766 0.14221807 0.01248879 0.01218569 0.01607930 0.00126350 
0.03221794 0.02478182 0.00907872 0.00254335 0.00178019 0.00347343 0.01343290 0.00206909 0.04038829 0.00318732 0.00410004 0.14250381 0.01266962 0.01227877 0.01640936 0.00126370 
0.03170229 0.02475990 0.00902426 0.00253901 0.00181021 0.00345345 0.01336344 0.00207026 0.04053413 0.00321469 0.00407757 0.14278017 0.01284249 0.01236878 0.01673887 0.00126405 
0.03114733 0.02477284 0.00896622 0.00253771 0.00183843 0.00342981 0.01327954 0.00208006 0.04065146 0.00323937 0.00405029 0.14304589 0.01300652 0.01245518 0.01706661 0.00126453 
0.03055639 0.02482121 0.00890513 0.00253957 0.00186478 0.00340263 0.01318144 0.00209856 0.04073954 0.00326124 0.00401828 0.14329934 0.01316086 0.01253741 0.01739135 0.00126515 
0.02993298 0.02490544 0.00884155 0.00254465 0.00188919 0.00337207 0.01306947 0.00212579 0.04079766 0.00328016 0.00398163 0.14353850 0.01330465 0.01261493 0.01771187 0.00126590 
0.02928075 0.02502582 0.00877604 0.00255305 0.00191160 0.00333829 0.01294406 0.00216176 0.04082521 0.00329605 0.00394047 0.14376105 0.01343708 0.01268718 0.01802696 0.00126679 
0.02860350 0.02518247 0.00870911 0.00256480 0.00193195 0.00330148 0.01280572 0.00220644 0.04082162 0.00330881 0.00389494 0.14396431 0.01355735 0.01275363 0.01833540 0.00126780 
0.02790516 0.02537539 0.00864129 0.00257995 0.00195020 0.00326181 0.01265509 0.00225979 0.04078643 0.00331838 0.00384523 0.14414529 0.01366468 0.01281373 0.01863599 0.00126894 
0.02718977 0.02560443 0.00857308 0.00259850 0.00196631 0.00321949 0.01249286 0.00232172 0.04071922 0.00332472 0.00379152 0.14430072 0.01375836 0.01286698 0.01892756 0.00127021 
0.02646148 0.02586929 0.00850496 0.00262044 0.00198027 0.00317472 0.01231983 0.00239212 0.04061969 0.00332778 0.00373405 0.14442706 0.01383770 0.01291285 0.01920895 0.00127159 
0.02572452 0.02616954 0.00843739 0.00264577 0.00199207 0.00312774 0.01213688 0.00247085 0.04048762 0.00332757 0.00367306 0.14452054 0.01390207 0.01295088 0.01947905 0.00127308 
0.02498317 0.02650459 0.00837080 0.00267442 0.00200169 0.00307875 0.01194496 0.00255773 0.04032288 0.00332409 0.00360882 0.14457719 0.01395087 0.01298059 0.01973676 0.00127467 
0.02424180 0.02687376 0.00830560 0.00270633 0.00200915 0.00302800 0.01174508 0.00265257 0.04012542 0.00331736 0.00354162 0.14459287 0.01398357 0.01300156 0.01998106 0.00127636 
0.02350477 0.02727619 0.00824216 0.00274143 0.00201447 0.00297571 0.01153832 0.00275512 0.03989533 0.00330743 0.00347175 0.14456331 0.01399971 0.01301336 0.02021092 0.00127815 
0.02277650 0.02771094 0.00818085 0.00277961 0.00201767 0.00292212 0.01132582 0.00286513 0.03963276 0.00329436 0.00339955 0.14448416 0.01399888 0.01301564 0.02042542 0.00128001 
0.02206138 0.02817694 0.00812197 0.00282075 0.00201880 0.00286747 0.01110875 0.00298229 0.03933799 0.00327821 0.00332534 0.14435102 0.01398074 0.01300805 0.02062367 0.00128196 
0.02136379 0.02867299 0.00806582 0.00286471 0.00201791 0.00281200 0.01088833 0.00310629 0.03901141 0.00325908 0.00324946 0.14415949 0.01394501 0.01299029 0.02080482 0.00128397 
0.02068809 0.02919782 0.00801264 0.00291135 0.00201505 0.00275594 0.01066581 0.00323677 0.03865352 0.00323707 0.00317229 0.14390518 0.01389150 0.01296210 0.02096813 0.00128604 
0.02003858 0.02975004 0.00796267 0.00296050 0.00201030 0.00269953 0.01044246 0.00337336 0.03826492 0.00321232 0.00309417 0.14358384 0.01382008 0.01292326 0.02111288 0.00128816 
0.01941946 0.03032820 0.00791609 0.00301196 0.00200372 0.00264300 0.01021955 0.00351566 0.03784635 0.00318493 0.00301548 0.14319130 0.01373070 0.01287361 0.02123846 0.00129033 
0.01883488 0.03093074 0.00787307 0.00306555 0.00199542 0.00258657 0.00999837 0.00366323 0.03739864 0.00315507 0.00293659 0.14272360 0.01362339 0.01281302 0.02134431 0.00129253 
0.01828886 0.03155605 0.00783373 0.00312105 0.00198548 0.00253047 0.00978019 0.00381563 0.03692277 0.00312288 0.00285788 0.14217698 0.01349826 0.01274142 0.02142997 0.00129475 
0.01778530 0.03220248 0.00779816 0.00317825 0.00197402 0.00247489 0.00956628 0.00397238 0.03641981 0.00308854 0.00277973 0.14154796 0.01335549 0.01265880 0.02149504 0.00129700 
0.01732795 0.03286829 0.00776645 0.00323691 0.00196113 0.00242005 0.00935788 0.00413300 0.03589095 0.00305221 0.00270249 0.14083338 0.01319534 0.01256518 0.02153922 0.00129925 
0.01692041 0.03355172 0.00773863 0.00329679 0.00194694 0.00236614 0.00915618 0.00429697 0.03533752 0.00301408 0.00262655 0.14003043 0.01301816 0.01246067 0.02156228 0.00130150 
0.01656608 0.03425100 0.00771472 0.00335766 0.00193157 0.00231334 0.00896237 0.00446376 0.03476096 0.00297434 0.00255226 0.13913667 0.01282435 0.01234540 0.02156409 0.00130374 
0.01626818 0.03496429 0.00769471 0.00341925 0.00191515 0.00226182 0.00877755 0.00463285 0.03416281 0.00293318 0.00247996 0.13815013 0.01261442 0.01221957 0.02154459 0.00130597 
0.01602972 0.03568979 0.00767856 0.00348130 0.00189781 0.00221174 0.00860278 0.00480368 0.03354473 0.00289080 0.00241001 0.13706930 0.01238892 0.01208346 0.02150383 0.00130817 
0.01585345 0.03642567 0.00766623 0.00354357 0.00187970 0.00216326 0.00843906 0.00497568 0.03290851 0.00284740 0.00234272 0.13589317 0.01214851 0.01193738 0.02144194 0.00131034 
0.01574193 0.03717010 0.00765765 0.00360578 0.00186094 0.00211650 0.00828731 0.00514830 0.03225603 0.00280319 0.00227841 0.13462127 0.01189388 0.01178171 0.02135912 0.00131247 
0.01569740 0.03792128 0.00765272 0.00366768 0.00184169 0.00207160 0.00814838 0.00532097 0.03158928 0.00275838 0.00221736 0.13325370 0.01162581 0.01161687 0.02125569 0.00131455 
0.01572188 0.03867742 0.00765135 0.00372901 0.00182209 0.00202866 0.00802303 0.00549311 0.03091034 0.00271316 0.00215987 0.13179114 0.01134515 0.01144336 0.02113203 0.00131658 
0.01581707 0.03943678 0.00765343 0.00378952 0.00180228 0.00198779 0.00791194 0.00566415 0.03022141 0.00266774 0.00210618 0.13023488 0.01105278 0.01126173 0.02098863 0.00131855 
0.01598438 0.04019764 0.00765883 0.00384894 0.00178240 0.00194905 0.00781569 0.00583353 0.02952476 0.00262232 0.00205653 0.12858684 0.01074967 0.01107256 0.02082603 0.00132045 
0.01622493 0.04095832 0.00766743 0.00390705 0.00176260 0.00191254 0.00773477 0.00600068 0.02882275 0.00257709 0.00201113 0.12684959 0.01043682 0.01087652 0.02064489 0.00132228 
0.01653951 0.04171721 0.00767910 0.00396358 0.00174302 0.00187829 0.00766954 0.00616506 0.02811782 0.00253226 0.00197017 0.12502631 0.01011530 0.01067430 0.02044592 0.00132403 
0.01692859 0.04247274 0.00769370 0.00401833 0.00172380 0.00184636 0.00762030 0.00632611 0.02741248 0.00248800 0.00193381 0.12312085 0.00978619 0.01046666 0.02022993 0.00132571 
0.01739229 0.04322340 0.00771110 0.00407107 0.00170506 0.00181678 0.00758722 0.00648332 0.02670931 0.00244449 0.00190220 0.12113772 0.00945063 0.01025437 0.01999778 0.00132730 
0.01793043 0.04396775 0.00773117 0.00412159 0.00168694 0.00178957 0.00757037 0.00663617 0.02601093 0.00240191 0.00187544 0.11908206 0.00910981 0.01003828 0.01975042 0.00132880 
0.01854245 0.04470441 0.00775378 0.00416969 0.00166956 0.00176474 0.00756971 0.00678417 0.02532003 0.00236041 0.00185362 0.11695961 0.00876492 0.00981925 0.01948885 0.00133021 
0.01922749 0.04543209 0.00777882 0.00421518 0.00165304 0.00174227 0.00758509 0.00692686 0.02463932 0.00232016 0.00183680 0.11477678 0.00841718 0.00959820 0.01921414 0.00133153 
0.01998431 0.04614953 0.00780618 0.00425791 0.00163748 0.00172217 0.00761627 0.00706378 0.02397154 0.00228130 0.00182501 0.11254053 0.00806785 0.00937606 0.01892742 0.00133275 
0.02081136 0.04685559 0.00783576 0.00429772 0.00162300 0.00170440 0.00766288 0.00719451 0.02331946 0.00224396 0.00181826 0.11025841 0.00771817 0.00915379 0.01862986 0.00133388 
0.02170673 0.04754918 0.00786747 0.00433445 0.00160967 0.00168892 0.00772449 0.00731866 0.02268586 0.00220826 0.00181651 0.10793850 0.00736943 0.00893239 0.01832271 0.00133491 
0.02266817 0.04822927 0.00790124 0.00436800 0.00159759 0.00167571 0.00780054 0.00743588 0.02207349 0.00217432 0.00181973 0.10558940 0.00702288 0.00871285 0.01800721 0.00133584 
0.02369314 0.04889493 0.00793701 0.00439826 0.00158684 0.00166469 0.00789038 0.00754582 0.02148511 0.00214223 0.00182782 0.10322017 0.00667978 0.00849619 0.01768469 0.00133667 
0.02477875 0.04954528 0.00797473 0.00442512 0.00157746 0.00165583 0.00799328 0.00764819 0.02092347 0.00211208 0.00184070 0.10084031 0.00634141 0.00828344 0.01735648 0.00133741 
0.02592180 0.05017952 0.00801439 0.00444853 0.00156953 0.00164904 0.00810842 0.00774273 0.02039125 0.00208395 0.00185822 0.09845967 0.00600901 0.00807563 0.01702393 0.00133806 
0.02711882 0.05079693 0.00805597 0.00446842 0.00156308 0.00164427 0.00823491 0.00782922 0.01989110 0.00205789 0.00188024 0.09608847 0.00568380 0.00787378 0.01668844 0.00133861 
0.02836602 0.05139682 0.00809947 0.00448476 0.00155815 0.00164143 0.00837178 0.00790746 0.01942561 0.00203396 0.00190658 0.09373718 0.00536698 0.00767891 0.01635140 0.00133907 
0.02965937 0.05197858 0.00814493 0.00449753 0.00155476 0.00164044 0.00851799 0.00797732 0.01899729 0.00201219 0.00193703 0.09141651 0.00505974 0.00749202 0.01601422 0.00133944 
0.03099458 0.05254167 0.00819238 0.00450671 0.00155290 0.00164123 0.00867246 0.00803867 0.01860859 0.00199260 0.00197139 0.08913735 0.00476321 0.00731411 0.01567829 0.00133972 
0.03236712 0.05308558 0.00824188 0.00451234 0.00155260 0.00164371 0.00883405 0.00809145 0.01826183 0.00197521 0.00200941 0.08691067 0.00447850 0.00714614 0.01534503 0.00133992 
0.03377225 0.05360987 0.00829351 0.00451443 0.00155382 0.00164779 0.00900156 0.00813564 0.01795924 0.00196001 0.00205083 0.08474749 0.00420666 0.00698904 0.01501582 0.00134004 
0.03520503 0.05411413 0.00834736 0.00451303 0.00155655 0.00165338 0.00917379 0.00817125 0.01770293 0.00194700 0.00209538 0.08265883 0.00394873 0.00684372 0.01469203 0.00134009 
0.03666038 0.05459801 0.00840352 0.00450821 0.00156074 0.00166040 0.00934948 0.00819832 0.01749488 0.00193614 0.00214276 0.08065562 0.00370565 0.00671105 0.01437502 0.00134006 
0.03813303 0.05506117 0.00846211 0.00450004 0.00156635 0.00166876 0.00952737 0.00821696 0.01733692 0.00192739 0.00219268 0.07874863 0.00347833 0.00659183 0.01406610 0.00133996 
0.03961762 0.05550334 0.00852326 0.00448861 0.00157333 0.00167837 0.00970619 0.00822730 0.01723073 0.00192072 0.00224483 0.07694842 0.00326763 0.00648684 0.01376656 0.00133980 
0.04110867 0.05592425 0.00858710 0.00447404 0.00158160 0.00168914 0.00988466 0.00822951 0.01717782 0.00191606 0.00229887 0.07526529 0.00307434 0.00639679 0.01347763 0.00133958 
0.04260066 0.05632366 0.00865378 0.00445644 0.00159109 0.00170101 0.01006152 0.00822381 0.01717953 0.00191334 0.00235449 0.07370918 0.00289917 0.00632235 0.01320053 0.00133930 
0.04408801 0.05670138 0.00872343 0.00443595 0.00160170 0.00171387 0.01023552 0.00821044 0.01723701 0.00191250 0.00241133 0.07228964 0.00274278 0.00626410 0.01293638 0.00133898 
0.04556511 0.05705720 0.00879621 0.00441270 0.00161335 0.00172767 0.01040542 0.00818969 0.01735122 0.00191344 0.00246908 0.07101573 0.00260575 0.00622258 0.01268628 0.00133860 
0.04702639 0.05739095 0.00887227 0.00438685 0.00162592 0.00174233 0.01057004 0.00816188 0.01752291 0.00191608 0.00252738 0.06989601 0.00248860 0.00619824 0.01245125 0.00133819 
0.04846632 0.05770247 0.00895176 0.00435858 0.00163932 0.00175777 0.01072821 0.00812737 0.01775263 0.00192032 0.00258589 0.06893845 0.00239175 0.00619146 0.01223225 0.00133773 
0.04987941 0.05799161 0.00903480 0.00432804 0.00165341 0.00177394 0.01087883 0.00808654 0.01804068 0.00192605 0.00264429 0.06815038 0.00231556 0.00620256 0.01203016 0.00133724 
0.05126031 0.05825823 0.00912155 0.00429542 0.00166808 0.00179078 0.01102085 0.00803979 0.01838719 0.00193316 0.00270223 0.06753844 0.00226031 0.00623175 0.01184578 0.00133672 
0.05260377 0.05850221 0.00921212 0.00426090 0.00168319 0.00180822 0.01115328 0.00798757 0.01879199 0.00194155 0.00275940 0.06710853 0.00222620 0.00627919 0.01167985 0.00133617 
0.05390469 0.05872341 0.00930662 0.00422469 0.00169862 0.00182623 0.01127518 0.00793035 0.01925474 0.00195109 0.00281547 0.06686580 0.00221333 0.00634492 0.01153301 0.00133560 
0.05515817 0.05892172 0.00940514 0.00418697 0.00171424 0.00184474 0.01138572 0.00786860 0.01977482 0.00196167 0.00287014 0.06681455 0.00222175 0.00642893 0.01140582 0.00133501 
0.05635951 0.05909704 0.00950776 0.00414795 0.00172990 0.00186373 0.01148411 0.00780283 0.02035138 0.00197318 0.00292313 0.06695824 0.00225141 0.00653111 0.01129874 0.00133440 
0.05750422 0.05924926 0.00961454 0.00410783 0.00174548 0.00188315 0.01156967 0.00773355 0.02098332 0.00198548 0.00297414 0.06729945 0.00230218 0.00665124 0.01121215 0.00133377 
0.05858810 0.05937830 0.00972551 0.00406681 0.00176082 0.00190297 0.01164181 0.00766130 0.02166931 0.00199847 0.00302292 0.06783987 0.00237384 0.00678905 0.01114633 0.00133313 
0.05960719 0.05948406 0.00984067 0.00402510 0.00177580 0.00192316 0.01170000 0.00758662 0.02240776 0.00201201 0.00306922 0.06858022 0.00246611 0.00694416 0.01110147 0.00133248 
0.06055787 0.05956649 0.00995999 0.00398291 0.00179029 0.00194370 0.01174384 0.00751005 0.02319686 0.00202601 0.00311281 0.06952033 0.00257860 0.00711611 0.01107766 0.00133182 
0.06143679 0.05962552 0.01008343 0.00394044 0.00180415 0.00196457 0.01177302 0.00743215 0.02403453 0.00204034 0.00315349 0.07065906 0.00271088 0.00730434 0.01107489 0.00133115 
0.06224098 0.05966111 0.01021090 0.00389789 0.00181726 0.00198574 0.01178730 0.00735347 0.02491849 0.00205490 0.00319108 0.07199431 0.00286241 0.00750824 0.01109305 0.00133047 
0.06296779 0.05967325 0.01034228 0.00385546 0.00182949 0.00200720 0.01178657 0.00727455 0.02584620 0.00206958 0.00322540 0.07352305 0.00303259 0.00772708 0.01113195 0.00132979 
0.06361495 0.05966193 0.01047741 0.00381333 0.00184073 0.00202893 0.01177082 0.00719593 0.02681493 0.00208427 0.00325631 0.07524130 0.00322074 0.00796007 0.01119128 0.00132909 
0.06418055 0.05962718 0.01061612 0.00377171 0.00185088 0.00205093 0.01174013 0.00711816 0.02782171 0.00209890 0.00328371 0.07714418 0.00342613 0.00820635 0.01127066 0.00132838 
0.06466309 0.05956905 0.01075816 0.00373076 0.00185983 0.00207319 0.01169467 0.00704175 0.02886337 0.00211336 0.00330751 0.07922586 0.00364794 0.00846497 0.01136959 0.00132767 
0.06506144 0.05948763 0.01090327 0.00369067 0.00186749 0.00209568 0.01163472 0.00696721 0.02993655 0.00212759 0.00332763 0.08147968 0.00388529 0.00873493 0.01148750 0.00132694 
0.06537489 0.05938303 0.01105117 0.00365161 0.00187378 0.00211841 0.01156066 0.00689502 0.03103772 0.00214149 0.00334404 0.08389810 0.00413725 0.00901516 0.01162372 0.00132619 
0.06560310 0.05925541 0.01120149 0.00361373 0.00187862 0.00214136 0.01147296 0.00682565 0.03216316 0.00215502 0.00335672 0.08647278 0.00440283 0.00930453 0.01177749 0.00132543 
0.06574616 0.05910497 0.01135388 0.00357719 0.00188195 0.00216452 0.01137217 0.00675955 0.03330899 0.00216811 0.00336569 0.08919462 0.00468099 0.00960185 0.01194799 0.00132465 
0.06580454 0.05893195 0.01150792 0.00354213 0.00188372 0.00218788 0.01125893 0.00669714 0.03447122 0.00218071 0.00337099 0.09205377 0.00497063 0.00990589 0.01213430 0.00132384 
0.06577911 0.05873664 0.01166317 0.00350868 0.00188389 0.00221142 0.01113398 0.00663879 0.03564569 0.00219278 0.00337268 0.09503975 0.00527061 0.01021538 0.01233544 0.00132301 
0.06567114 0.05851938 0.01181913 0.00347696 0.00188242 0.00223513 0.01099811 0.00658488 0.03682818 0.00220429 0.00337085 0.09814140 0.00557977 0.01052901 0.01255033 0.00132215 
0.06548225 0.05828056 0.01197532 0.00344708 0.00187931 0.00225899 0.01085221 0.00653572 0.03801433 0.00221522 0.00336562 0.10134706 0.00589689 0.01084544 0.01277787 0.00132126 
0.06521445 0.05802063 0.01213118 0.00341914 0.00187454 0.00228297 0.01069720 0.00649161 0.03919976 0.00222555 0.00335713 0.10464453 0.00622074 0.01116331 0.01301687 0.00132033 
0.06487010 0.05774009 0.01228614 0.00339324 0.00186813 0.00230704 0.01053410 0.00645281 0.04037998 0.00223527 0.00334554 0.10802119 0.00655006 0.01148124 0.01326611 0.00131935 
0.06445188 0.05743951 0.01243963 0.00336944 0.00186009 0.00233118 0.01036396 0.00641953 0.04155052 0.00224438 0.00333103 0.11146405 0.00688357 0.01179786 0.01352428 0.00131833 
0.06396281 0.05711952 0.01259102 0.00334780 0.00185045 0.00235535 0.01018789 0.00639196 0.04270687 0.00225291 0.00331381 0.11495983 0.00721997 0.01211177 0.01379009 0.00131726 
0.06340621 0.05678080 0.01273969 0.00332839 0.00183926 0.00237951 0.01000702 0.00637023 0.04384453 0.00226086 0.00329411 0.11849502 0.00755797 0.01242160 0.01406216 0.00131613 
0.06278567 0.05642410 0.01288499 0.00331124 0.00182657 0.00240362 0.00982255 0.00635445 0.04495904 0.00226826 0.00327217 0.12205595 0.00789627 0.01272599 0.01433912 0.00131495 
0.06210504 0.05605023 0.01302628 0.00329637 0.00181244 0.00242762 0.00963568 0.00634467 0.04604597 0.00227515 0.00324826 0.12562887 0.00823357 0.01302358 0.01461956 0.00131369 
0.06136840 0.05566007 0.01316289 0.00328379 0.00179696 0.00245146 0.00944763 0.00634094 0.04710100 0.00228157 0.00322265 0.12920002 0.00856858 0.01331307 0.01490205 0.00131237 
0.06058004 0.05525454 0.01329416 0.00327351 0.00178022 0.00247508 0.00925965 0.00634321 0.04811987 0.00228756 0.00319564 0.13275573 0.00890004 0.01359318 0.01518518 0.00131097 
0.05974444 0.05483466 0.01341943 0.00326552 0.00176230 0.00249841 0.00907298 0.00635144 0.04909845 0.00229318 0.00316754 0.13628244 0.00922669 0.01386267 0.01546752 0.00130950 
0.05886623 0.05440148 0.01353806 0.00325978 0.00174332 0.00252139 0.00888886 0.00636553 0.05003275 0.00229849 0.00313864 0.13976682 0.00954731 0.01412035 0.01574766 0.00130794 
0.05795016 0.05395610 0.01364938 0.00325626 0.00172339 0.00254394 0.00870853 0.00638535 0.05091893 0.00230355 0.00310929 0.14319580 0.00986070 0.01436510 0.01602418 0.00130630 
0.05700108 0.05349971 0.01375279 0.00325491 0.00170263 0.00256598 0.00853319 0.00641072 0.05175333 0.00230842 0.00307980 0.14655668 0.01016571 0.01459584 0.01629572 0.00130457 
0.05602392 0.05303352 0.01384767 0.00325567 0.00168118 0.00258742 0.00836405 0.00644144 0.05253250 0.00231319 0.00305052 0.14983718 0.01046123 0.01481158 0.01656092 0.00130275 
0.05502363 0.05255881 0.01393343 0.00325847 0.00165918 0.00260819 0.00820227 0.00647726 0.05325319 0.00231792 0.00302177 0.15302547 0.01074618 0.01501140 0.01681847 0.00130083 
0.05400519 0.05207690 0.01400954 0.00326321 0.00163675 0.00262818 0.00804897 0.00651793 0.05391240 0.00232268 0.00299391 0.15611029 0.01101955 0.01519444 0.01706710 0.00129882 
0.05297357 0.05158914 0.01407545 0.00326980 0.00161406 0.00264730 0.00790524 0.00656312 0.05450737 0.00232757 0.00296725 0.15908094 0.01128037 0.01535996 0.01730560 0.00129671 
0.05193367 0.05109696 0.01413069 0.00327813 0.00159125 0.00266546 0.00777210 0.00661252 0.05503561 0.00233264 0.00294214 0.16192741 0.01152775 0.01550727 0.01753281 0.00129450 
0.05089034 0.05060177 0.01417481 0.00328810 0.00156846 0.00268255 0.00765054 0.00666577 0.05549493 0.00233799 0.00291889 0.16464036 0.01176084 0.01563581 0.01774762 0.00129219 
0.04984834 0.05010507 0.01420742 0.00329957 0.00154587 0.00269849 0.00754147 0.00672248 0.05588340 0.00234369 0.00289783 0.16721119 0.01197887 0.01574508 0.01794902 0.00128978 
0.04881228 0.04960833 0.01422815 0.00331240 0.00152361 0.00271317 0.00744575 0.00678227 0.05619944 0.00234980 0.00287926 0.16963209 0.01218113 0.01583472 0.01813605 0.00128728 
0.04778665 0.04911309 0.01423671 0.00332646 0.00150185 0.00272648 0.00736416 0.00684470 0.05644177 0.00235641 0.00286347 0.17189606 0.01236699 0.01590444 0.01830784 0.00128468 
0.04677576 0.04862087 0.01423284 0.00334160 0.00148074 0.00273834 0.00729740 0.00690936 0.05660942 0.00236358 0.00285075 0.17399694 0.01253590 0.01595405 0.01846361 0.00128199 
0.04578374 0.04813323 0.01421636 0.00335765 0.00146042 0.00274864 0.00724611 0.00697579 0.05670180 0.00237139 0.00284136 0.17592945 0.01268736 0.01598350 0.01860266 0.00127920 
0.04481450 0.04765171 0.01418714 0.00337445 0.00144105 0.00275730 0.00721083 0.00704355 0.05671862 0.00237988 0.00283555 0.17768919 0.01282097 0.01599281 0.01872439 0.00127633 
0.04387174 0.04717788 0.01414508 0.00339185 0.00142276 0.00276422 0.00719204 0.00711217 0.05665997 0.00238911 0.00283354 0.17927268 0.01293641 0.01598212 0.01882831 0.00127338 
0.04295891 0.04671329 0.01409020 0.00340966 0.00140570 0.00276932 0.00719010 0.00718118 0.05652625 0.00239914 0.00283554 0.18067731 0.01303343 0.01595167 0.01891401 0.00127036 
0.04207921 0.04625948 0.01402253 0.00342771 0.00139000 0.00277251 0.00720531 0.00725014 0.05631824 0.00241001 0.00284172 0.18190144 0.01311185 0.01590181 0.01898121 0.00126726 
0.04123557 0.04581798 0.01394219 0.00344583 0.00137577 0.00277373 0.00723787 0.00731857 0.05603706 0.00242175 0.00285226 0.18294431 0.01317159 0.01583297 0.01902970 0.00126410 
0.04043065 0.04539030 0.01384936 0.00346383 0.00136314 0.00277292 0.00728789 0.00738602 0.05568416 0.00243439 0.00286729 0.18380608 0.01321263 0.01574570 0.01905941 0.00126088 
0.03966683 0.04497792 0.01374427 0.00348154 0.00135221 0.00277000 0.00735538 0.00745205 0.05526136 0.00244796 0.00288691 0.18448780 0.01323505 0.01564065 0.01907036 0.00125761 
0.03894619 0.04458230 0.01362724 0.00349877 0.00134309 0.00276493 0.00744029 0.00751621 0.05477078 0.00246247 0.00291120 0.18499140 0.01323897 0.01551853 0.01906270 0.00125431 
0.03827054 0.04420485 0.01349862 0.00351536 0.00133586 0.00275768 0.00754245 0.00757809 0.05421488 0.00247792 0.00294021 0.18531967 0.01322461 0.01538017 0.01903667 0.00125098 
0.03764139 0.04384695 0.01335885 0.00353113 0.00133061 0.00274821 0.00766160 0.00763727 0.05359642 0.00249430 0.00297398 0.18547625 0.01319226 0.01522647 0.01899263 0.00124763 
0.03705997 0.04350993 0.01320840 0.00354590 0.00132740 0.00273650 0.00779742 0.00769337 0.05291850 0.00251162 0.00301249 0.18546555 0.01314227 0.01505839 0.01893103 0.00124427 
0.03652721 0.04319508 0.01304782 0.00355952 0.00132629 0.00272255 0.00794948 0.00774603 0.05218445 0.00252983 0.00305570 0.18529277 0.01307507 0.01487700 0.01885244 0.00124092 
0.03604378 0.04290360 0.01287770 0.00357182 0.00132734 0.00270636 0.00811729 0.00779489 0.05139792 0.00254892 0.00310356 0.18496385 0.01299113 0.01468339 0.01875754 0.00123758 
0.03561006 0.04263668 0.01269868 0.00358265 0.00133056 0.00268794 0.00830025 0.00783963 0.05056279 0.00256884 0.00315598 0.18448540 0.01289101 0.01447875 0.01864709 0.00123428 
0.03522617 0.04239540 0.01251147 0.00359187 0.00133600 0.00266734 0.00849770 0.00787996 0.04968319 0.00258955 0.00321282 0.18386469 0.01277529 0.01426431 0.01852197 0.00123101 
0.03489199 0.04218080 0.01231678 0.00359933 0.00134365 0.00264458 0.00870893 0.00791562 0.04876346 0.00261097 0.00327394 0.18310957 0.01264463 0.01404132 0.01838311 0.00122781 
0.03460716 0.04199384 0.01211541 0.00360491 0.00135352 0.00261973 0.00893314 0.00794636 0.04780813 0.00263306 0.00333916 0.18222848 0.01249972 0.01381111 0.01823158 0.00122467 
0.03437109 0.04183538 0.01190815 0.00360848 0.00136560 0.00259286 0.00916946 0.00797197 0.04682192 0.00265573 0.00340827 0.18123031 0.01234131 0.01357500 0.01806849 0.00122162 
0.03418297 0.04170625 0.01169585 0.00360996 0.00137986 0.00256404 0.00941697 0.00799228 0.04580970 0.00267889 0.00348104 0.18012441 0.01217017 0.01333437 0.01789506 0.00121866 
0.03404181 0.04160713 0.01147938 0.00360922 0.00139626 0.00253338 0.00967471 0.00800714 0.04477646 0.00270246 0.00355722 0.17892054 0.01198711 0.01309059 0.01771254 0.00121582 
0.03394643 0.04153867 0.01125962 0.00360621 0.00141477 0.00250098 0.00994167 0.00801643 0.04372729 0.00272633 0.00363652 0.17762876 0.01179299 0.01284505 0.01752227 0.00121310 
0.03389551 0.04150140 0.01103748 0.00360083 0.00143532 0.00246698 0.01021677 0.00802008 0.04266736 0.00275041 0.00371864 0.17625941 0.01158865 0.01259913 0.01732565 0.00121053 
0.03388758 0.04149576 0.01081388 0.00359304 0.00145784 0.00243149 0.01049894 0.00801803 0.04160190 0.00277457 0.00380326 0.17482305 0.01137501 0.01235421 0.01712411 0.00120811 
0.03392104 0.04152210 0.01058974 0.00358279 0.00148225 0.00239467 0.01078704 0.00801027 0.04053616 0.00279871 0.00389003 0.17333041 0.01115294 0.01211166 0.01691913 0.00120587 
0.03399419 0.04158066 0.01036597 0.00357006 0.00150847 0.00235669 0.01107993 0.00799680 0.03947539 0.00282269 0.00397861 0.17179230 0.01092337 0.01187281 0.01671223 0.00120381 
0.03410527 0.04167160 0.01014350 0.00355482 0.00153639 0.00231770 0.01137646 0.00797768 0.03842480 0.00284639 0.00406861 0.17021956 0.01068722 0.01163897 0.01650494 0.00120194 
0.03425242 0.04179495 0.00992322 0.00353708 0.00156591 0.00227789 0.01167545 0.00795297 0.03738959 0.00286969 0.00415966 0.16862305 0.01044541 0.01141142 0.01629881 0.00120029 
0.03443375 0.04195068 0.00970604 0.00351685 0.00159691 0.00223744 0.01197572 0.00792278 0.03637482 0.00289245 0.00425135 0.16701352 0.01019885 0.01119139 0.01609541 0.00119886 
0.03464736 0.04213861 0.00949281 0.00349415 0.00162927 0.00219656 0.01227612 0.00788725 0.03538550 0.00291453 0.00434329 0.16540162 0.00994847 0.01098006 0.01589629 0.00119767 
0.03489130 0.04235849 0.00928437 0.00346904 0.00166287 0.00215545 0.01257548 0.00784654 0.03442647 0.00293580 0.00443507 0.16379781 0.00969516 0.01077855 0.01570300 0.00119673 
0.03516367 0.04260995 0.00908155 0.00344156 0.00169756 0.00211432 0.01287265 0.00780082 0.03350245 0.00295613 0.00452628 0.16221230 0.00943981 0.01058791 0.01551708 0.00119605 
0.03546257 0.04289251 0.00888510 0.00341179 0.00173320 0.00207339 0.01316652 0.00775032 0.03261795 0.00297538 0.00461651 0.16065506 0.00918331 0.01040915 0.01534002 0.00119564 
0.03578613 0.04320561 0.00869576 0.00337982 0.00176966 0.00203287 0.01345599 0.00769527 0.03177732 0.00299342 0.00470535 0.15913570 0.00892650 0.01024319 0.01517329 0.00119550 
0.03613255 0.04354857 0.00851421 0.00334573 0.00180678 0.00199300 0.01374002 0.00763592 0.03098465 0.00301012 0.00479240 0.15766347 0.00867021 0.01009088 0.01501832 0.00119565 
0.03650008 0.04392060 0.00834110 0.00330965 0.00184441 0.00195399 0.01401757 0.00757254 0.03024382 0.00302536 0.00487727 0.15624720 0.00841525 0.00995297 0.01487648 0.00119609 
0.03688704 0.04432084 0.00817700 0.00327168 0.00188240 0.00191607 0.01428769 0.00750544 0.02955842 0.00303903 0.00495958 0.15489530 0.00816240 0.00983016 0.01474907 0.00119684 
0.03729185 0.04474830 0.00802244 0.00323198 0.00192060 0.00187947 0.01454944 0.00743492 0.02893178 0.00305100 0.00503894 0.15361564 0.00791240 0.00972305 0.01463734 0.00119789 
0.03771302 0.04520193 0.00787788 0.00319067 0.00195886 0.00184441 0.01480198 0.00736130 0.02836695 0.00306118 0.00511501 0.15241563 0.00766598 0.00963213 0.01454246 0.00119925 
0.03814913 0.04568055 0.00774372 0.00314791 0.00199701 0.00181110 0.01504449 0.00728492 0.02786664 0.00306946 0.00518744 0.15130209 0.00742383 0.00955784 0.01446552 0.00120091 
0.03859891 0.04618292 0.00762030 0.00310387 0.00203491 0.00177976 0.01527623 0.00720613 0.02743326 0.00307575 0.00525591 0.15028130 0.00718659 0.00950051 0.01440751 0.00120290 
0.03906114 0.04670771 0.00750787 0.00305872 0.00207241 0.00175059 0.01549653 0.00712527 0.02706888 0.00307999 0.00532013 0.14935891 0.00695489 0.00946036 0.01436934 0.00120519 
0.03953475 0.04725350 0.00740665 0.00301263 0.00210937 0.00172380 0.01570479 0.00704272 0.02677523 0.00308209 0.00537982 0.14854000 0.00672931 0.00943756 0.01435182 0.00120779 
0.04001875 0.04781881 0.00731675 0.00296579 0.00214564 0.00169957 0.01590048 0.00695883 0.02655368 0.00308201 0.00543473 0.14782899 0.00651041 0.00943217 0.01435565 0.00121071 
0.04051229 0.04840206 0.00723822 0.00291838 0.00218108 0.00167809 0.01608315 0.00687398 0.02640526 0.00307970 0.00548464 0.14722968 0.00629869 0.00944414 0.01438144 0.00121392 
0.04101457 0.04900163 0.00717105 0.00287059 0.00221557 0.00165951 0.01625242 0.00678854 0.02633063 0.00307512 0.00552935 0.14674524 0.00609463 0.00947336 0.01442966 0.00121744 
0.04152494 0.04961582 0.00711514 0.00282262 0.00224897 0.00164399 0.01640799 0.00670288 0.02633010 0.00306826 0.00556869 0.14637815 0.00589869 0.00951964 0.01450070 0.00122125 
0.04204282 0.05024290 0.00707034 0.00277467 0.00228117 0.00163168 0.01654964 0.00661736 0.02640358 0.00305911 0.00560253 0.14613028 0.00571129 0.00958269 0.01459482 0.00122534 
0.04256770 0.05088107 0.00703640 0.00272692 0.00231206 0.00162270 0.01667723 0.00653235 0.02655067 0.00304769 0.00563077 0.14600283 0.00553279 0.00966214 0.01471215 0.00122970 
0.04309916 0.05152848 0.00701304 0.00267958 0.00234153 0.00161716 0.01679070 0.00644821 0.02677058 0.00303401 0.00565333 0.14599639 0.00536355 0.00975755 0.01485272 0.00123432 
0.04363686 0.05218326 0.00699987 0.00263284 0.00236949 0.00161515 0.01689005 0.00636530 0.02706216 0.00301811 0.00567018 0.14611088 0.00520390 0.00986842 0.01501646 0.00123919 
0.04418051 0.05284351 0.00699647 0.00258690 0.00239584 0.00161675 0.01697540 0.00628394 0.02742394 0.00300005 0.00568130 0.14634565 0.00505411 0.00999417 0.01520315 0.00124429 
0.04472984 0.05350728 0.00700234 0.00254193 0.00242051 0.00162202 0.01704688 0.00620450 0.02785408 0.00297990 0.00568672 0.14669940 0.00491445 0.01013417 0.01541247 0.00124962 
0.04528466 0.05417264 0.00701692 0.00249812 0.00244343 0.00163100 0.01710475 0.00612727 0.02835045 0.00295774 0.00568650 0.14717028 0.00478517 0.01028771 0.01564399 0.00125514 
0.04584477 0.05483763 0.00703962 0.00245564 0.00246455 0.00164370 0.01714930 0.00605259 0.02891056 0.00293366 0.00568072 0.14775587 0.00466646 0.01045404 0.01589717 0.00126085 
0.04640999 0.05550028 0.00706977 0.00241468 0.00248380 0.00166013 0.01718091 0.00598076 0.02953165 0.00290779 0.00566951 0.14845322 0.00455851 0.01063238 0.01617138 0.00126672 
0.04698015 0.05615864 0.00710666 0.00237540 0.00250116 0.00168026 0.01720000 0.00591205 0.03021065 0.00288023 0.00565302 0.14925883 0.00446149 0.01082189 0.01646585 0.00127274 
0.04755505 0.05681075 0.00714956 0.00233794 0.00251658 0.00170406 0.01720706 0.00584676 0.03094423 0.00285114 0.00563141 0.15016877 0.00437554 0.01102171 0.01677975 0.00127888 
0.04813447 0.05745470 0.00719768 0.00230246 0.00253006 0.00173147 0.01720263 0.00578513 0.03172879 0.00282067 0.00560489 0.15117861 0.00430077 0.01123092 0.01711215 0.00128511 
0.04871815 0.05808857 0.00725022 0.00226910 0.00254158 0.00176240 0.01718731 0.00572742 0.03256051 0.00278898 0.00557371 0.15228350 0.00423729 0.01144861 0.01746201 0.00129143 
0.04930578 0.05871050 0.00730632 0.00223798 0.00255115 0.00179677 0.01716172 0.00567386 0.03343532 0.00275625 0.00553810 0.15347823 0.00418519 0.01167385 0.01782824 0.00129780 
0.04989701 0.05931865 0.00736515 0.00220923 0.00255876 0.00183444 0.01712654 0.00562466 0.03434898 0.00272267 0.00549834 0.15475717 0.00414452 0.01190568 0.01820967 0.00130419 
0.05049138 0.05991123 0.00742583 0.00218295 0.00256445 0.00187530 0.01708246 0.00558003 0.03529707 0.00268842 0.00545474 0.15611443 0.00411534 0.01214314 0.01860506 0.00131059 
0.05108840 0.06048650 0.00748748 0.00215925 0.00256824 0.00191917 0.01703022 0.00554014 0.03627500 0.00265372 0.00540760 0.15754377 0.00409768 0.01238527 0.01901311 0.00131696 
0.05168744 0.06104277 0.00754924 0.00213821 0.00257017 0.00196589 0.01697057 0.00550516 0.03727805 0.00261878 0.00535725 0.15903874 0.00409155 0.01263114 0.01943246 0.00132329 
0.05228781 0.06157844 0.00761023 0.00211991 0.00257028 0.00201527 0.01690426 0.00547525 0.03830139 0.00258382 0.00530404 0.16059263 0.00409697 0.01287979 0.01986173 0.00132954 
0.05288872 0.06209194 0.00766960 0.00210441 0.00256863 0.00206711 0.01683209 0.00545054 0.03934012 0.00254907 0.00524832 0.16219856 0.00411390 0.01313029 0.02029949 0.00133569 
0.05348925 0.06258179 0.00772651 0.00209177 0.00256528 0.00212119 0.01675482 0.00543114 0.04038926 0.00251474 0.00519045 0.16384950 0.00414234 0.01338175 0.02074427 0.00134171 
0.05408840 0.06304661 0.00778015 0.00208204 0.00256030 0.00217727 0.01667324 0.00541716 0.04144378 0.00248107 0.00513080 0.16553831 0.00418222 0.01363328 0.02119461 0.00134758 
0.05468505 0.06348506 0.00782975 0.00207524 0.00255376 0.00223511 0.01658811 0.00540869 0.04249866 0.00244830 0.00506974 0.16725775 0.00423349 0.01388402 0.02164901 0.00135327 
0.05527795 0.06389591 0.00787456 0.00207141 0.00254576 0.00229447 0.01650021 0.00540579 0.04354887 0.00241664 0.00500763 0.16900053 0.00429608 0.01413315 0.02210598 0.00135875 
0.05586577 0.06427803 0.00791388 0.00207055 0.00253637 0.00235506 0.01641025 0.00540851 0.04458942 0.00238634 0.00494485 0.17075936 0.00436989 0.01437989 0.02256404 0.00136401 
0.05644705 0.06463037 0.00794707 0.00207268 0.00252569 0.00241663 0.01631897 0.00541690 0.04561538 0.00235761 0.00488176 0.17252694 0.00445481 0.01462348 0.02302169 0.00136901 
0.05702023 0.06495197 0.00797354 0.00207777 0.00251381 0.00247889 0.01622706 0.00543098 0.04662189 0.00233068 0.00481871 0.17429602 0.00455071 0.01486322 0.02347749 0.00137373 
0.05758368 0.06524198 0.00799275 0.00208583 0.00250084 0.00254156 0.01613517 0.00545076 0.04760420 0.00230576 0.00475606 0.17605941 0.00465744 0.01509844 0.02393000 0.00137816 
0.05813563 0.06549965 0.00800424 0.00209682 0.00248687 0.00260436 0.01604393 0.00547622 0.04855768 0.00228306 0.00469414 0.17781005 0.00477483 0.01532851 0.02437782 0.00138226 
0.05867428 0.06572434 0.00800762 0.00211072 0.00247202 0.00266699 0.01595392 0.00550735 0.04947785 0.00226277 0.00463327 0.17954095 0.00490269 0.01555287 0.02481957 0.00138603 
0.05919770 0.06591550 0.00800255 0.00212748 0.00245638 0.00272917 0.01586569 0.00554411 0.05036038 0.00224508 0.00457375 0.18124531 0.00504081 0.01577097 0.02525395 0.00138944 
0.05970395 0.06607270 0.00798879 0.00214706 0.00244007 0.00279061 0.01577974 0.00558645 0.05120114 0.00223017 0.00451589 0.18291646 0.00518895 0.01598232 0.02567967 0.00139248 
0.06019100 0.06619560 0.00796618 0.00216940 0.00242319 0.00285104 0.01569651 0.00563429 0.05199622 0.00221820 0.00445994 0.18454794 0.00534684 0.01618651 0.02609554 0.00139513 
0.06065680 0.06628399 0.00793463 0.00219445 0.00240585 0.00291016 0.01561641 0.00568757 0.05274190 0.00220931 0.00440616 0.18613349 0.00551421 0.01638311 0.02650037 0.00139737 
0.06109927 0.06633776 0.00789414 0.00222214 0.00238815 0.00296772 0.01553979 0.00574619 0.05343472 0.00220364 0.00435477 0.18766706 0.00569074 0.01657180 0.02689309 0.00139920 
0.06151632 0.06635689 0.00784480 0.00225240 0.00237020 0.00302344 0.01546694 0.00581004 0.05407147 0.00220130 0.00430598 0.18914285 0.00587607 0.01675227 0.02727266 0.00140061 
0.06190585 0.06634148 0.00778677 0.00228516 0.00235209 0.00307709 0.01539812 0.00587899 0.05464921 0.00220239 0.00425997 0.19055530 0.00606985 0.01692425 0.02763813 0.00140159 
0.06226580 0.06629176 0.00772033 0.00232034 0.00233392 0.00312841 0.01533351 0.00595293 0.05516528 0.00220699 0.00421689 0.19189911 0.00627167 0.01708753 0.02798860 0.00140213 
0.06259413 0.06620802 0.00764581 0.00235784 0.00231579 0.00317717 0.01527325 0.00603168 0.05561733 0.00221516 0.00417687 0.19316926 0.00648110 0.01724192 0.02832327 0.00140223 
0.06288884 0.06609068 0.00756364 0.00239760 0.00229778 0.00322318 0.01521745 0.00611510 0.05600328 0.00222694 0.00414001 0.19436100 0.00669768 0.01738729 0.02864139 0.00140189 
0.06314803 0.06594027 0.00747435 0.00243951 0.00227998 0.00326622 0.01516612 0.00620300 0.05632140 0.00224235 0.00410640 0.19546988 0.00692092 0.01752352 0.02894230 0.00140111 
0.06336985 0.06575741 0.00737852 0.00248349 0.00226246 0.00330611 0.01511928 0.00629520 0.05657025 0.00226140 0.00407609 0.19649175 0.00715029 0.01765055 0.02922542 0.00139989 
0.06355255 0.06554282 0.00727683 0.00252943 0.00224531 0.00334270 0.01507686 0.00639149 0.05674875 0.00228405 0.00404909 0.19742273 0.00738525 0.01776831 0.02949023 0.00139824 
0.06369450 0.06529731 0.00717004 0.00257724 0.00222858 0.00337583 0.01503877 0.00649166 0.05685611 0.00231027 0.00402542 0.19825929 0.00762521 0.01787681 0.02973629 0.00139617 
0.06379418 0.06502181 0.00705896 0.00262683 0.00221234 0.00340538 0.01500486 0.00659547 0.05689189 0.00233999 0.00400505 0.19899818 0.00786956 0.01797605 0.02996326 0.00139368 
0.06385023 0.06471732 0.00694448 0.00267808 0.00219664 0.00343125 0.01497495 0.00670268 0.05685600 0.00237313 0.00398794 0.19963646 0.00811766 0.01806605 0.03017084 0.00139079 
0.06386143 0.06438494 0.00682756 0.00273091 0.00218154 0.00345335 0.01494883 0.00681303 0.05674866 0.00240958 0.00397401 0.20017153 0.00836885 0.01814687 0.03035881 0.00138751 
0.06382671 0.06402587 0.00670918 0.00278519 0.00216706 0.00347161 0.01492627 0.00692625 0.05657043 0.00244921 0.00396317 0.20060110 0.00862243 0.01821857 0.03052703 0.00138387 
0.06374518 0.06364137 0.00659042 0.00284082 0.00215326 0.00348600 0.01490697 0.00704206 0.05632219 0.00249188 0.00395532 0.20092319 0.00887769 0.01828125 0.03067543 0.00137987 
0.06361615 0.06323281 0.00647237 0.00289770 0.00214015 0.00349650 0.01489066 0.00716015 0.05600516 0.00253742 0.00395033 0.20113616 0.00913389 0.01833498 0.03080398 0.00137554 
0.06343910 0.06280163 0.00635616 0.00295572 0.00212775 0.00350310 0.01487701 0.00728021 0.05562084 0.00258563 0.00394805 0.20123869 0.00939027 0.01837989 0.03091273 0.00137090 
0.06321370 0.06234934 0.00624295 0.00301476 0.00211609 0.00350583 0.01486570 0.00740191 0.05517107 0.00263633 0.00394832 0.20122977 0.00964606 0.01841608 0.03100180 0.00136598 
0.06293985 0.06187754 0.00613392 0.00307471 0.00210517 0.00350474 0.01485639 0.00752493 0.05465798 0.00268928 0.00395096 0.20110875 0.00990048 0.01844369 0.03107135 0.00136081 
0.06261761 0.06138790 0.00603028 0.00313545 0.00209499 0.00349989 0.01484873 0.00764890 0.05408397 0.00274425 0.00395579 0.20087530 0.01015272 0.01846282 0.03112159 0.00135540 
0.06224729 0.06088216 0.00593322 0.00319688 0.00208556 0.00349136 0.01484237 0.00777346 0.05345172 0.00280098 0.00396262 0.20052941 0.01040198 0.01847363 0.03115280 0.00134979 
0.06182939 0.06036210 0.00584394 0.00325886 0.00207685 0.00347927 0.01483697 0.00789823 0.05276418 0.00285921 0.00397123 0.20007142 0.01064745 0.01847624 0.03116528 0.00134401 
0.06136461 0.05982960 0.00576362 0.00332128 0.00206887 0.00346373 0.01483220 0.00802284 0.05202452 0.00291866 0.00398141 0.19950201 0.01088832 0.01847080 0.03115939 0.00133810 
0.06085385 0.05928657 0.00569342 0.00338402 0.00206159 0.00344490 0.01482772 0.00814687 0.05123618 0.00297903 0.00399296 0.19882221 0.01112377 0.01845744 0.03113553 0.00133208 
0.06029822 0.05873500 0.00563448 0.00344696 0.00205498 0.00342292 0.01482323 0.00826994 0.05040276 0.00304002 0.00400565 0.19803337 0.01135302 0.01843630 0.03109414 0.00132598 
0.05969903 0.05817690 0.00558789 0.00350996 0.00204904 0.00339798 0.01481844 0.00839161 0.04952809 0.00310133 0.00401928 0.19713720 0.01157526 0.01840754 0.03103569 0.00131985 
0.05905776 0.05761435 0.00555469 0.00357289 0.00204371 0.00337027 0.01481308 0.00851146 0.04861616 0.00316263 0.00403361 0.19613577 0.01178973 0.01837130 0.03096067 0.00131371 
0.05837607 0.05704946 0.00553589 0.00363564 0.00203899 0.00333998 0.01480691 0.00862907 0.04767111 0.00322361 0.00404844 0.19503148 0.01199566 0.01832773 0.03086962 0.00130761 
0.05765579 0.05648438 0.00553240 0.00369805 0.00203482 0.00330734 0.01479971 0.00874399 0.04669724 0.00328393 0.00406357 0.19382711 0.01219232 0.01827697 0.03076310 0.00130156 
0.05689891 0.05592129 0.00554508 0.00376000 0.00203118 0.00327256 0.01479131 0.00885578 0.04569893 0.00334328 0.00407879 0.19252578 0.01237900 0.01821920 0.03064167 0.00129562 
0.05610756 0.05536241 0.00557471 0.00382136 0.00202804 0.00323589 0.01478155 0.00896401 0.04468066 0.00340132 0.00409390 0.19113096 0.01255503 0.01815457 0.03050596 0.00128981 
0.05528400 0.05480995 0.00562198 0.00388197 0.00202535 0.00319756 0.01477034 0.00906821 0.04364701 0.00345773 0.00410874 0.18964649 0.01271977 0.01808326 0.03035656 0.00128417 
0.05443062 0.05426616 0.00568748 0.00394170 0.00202309 0.00315782 0.01475761 0.00916795 0.04260257 0.00351219 0.00412312 0.18807657 0.01287262 0.01800543 0.03019413 0.00127872 
0.05354990 0.05373329 0.00577172 0.00400041 0.00202122 0.00311692 0.01474331 0.00926279 0.04155197 0.00356437 0.00413689 0.18642574 0.01301301 0.01792129 0.03001932 0.00127350 
0.05264440 0.05321360 0.00587509 0.00405795 0.00201971 0.00307511 0.01472747 0.00935227 0.04049986 0.00361397 0.00414989 0.18469891 0.01314043 0.01783103 0.02983280 0.00126854 
0.05171678 0.05270933 0.00599786 0.00411418 0.00201853 0.00303264 0.01471013 0.00943597 0.03945085 0.00366069 0.00416201 0.18290132 0.01325442 0.01773486 0.02963524 0.00126387 
0.05076972 0.05222271 0.00614021 0.00416895 0.00201766 0.00298978 0.01469140 0.00951346 0.03840952 0.00370423 0.00417312 0.18103857 0.01335457 0.01763302 0.02942735 0.00125951 
0.04980596 0.05175597 0.00630218 0.00422211 0.00201705 0.00294675 0.01467139 0.00958431 0.03738040 0.00374431 0.00418311 0.17911658 0.01344051 0.01752575 0.02920983 0.00125549 
0.04882827 0.05131129 0.00648369 0.00427353 0.00201671 0.00290382 0.01465030 0.00964813 0.03636791 0.00378067 0.00419191 0.17714161 0.01351195 0.01741331 0.02898339 0.00125183 
0.04783941 0.05089081 0.00668456 0.00432305 0.00201661 0.00286122 0.01462832 0.00970452 0.03537639 0.00381305 0.00419944 0.17512023 0.01356865 0.01729599 0.02874876 0.00124855 
0.04684212 0.05049665 0.00690444 0.00437052 0.00201673 0.00281918 0.01460572 0.00975310 0.03441005 0.00384122 0.00420566 0.17305932 0.01361042 0.01717409 0.02850666 0.00124567 
0.04583915 0.05013085 0.00714289 0.00441582 0.00201708 0.00277792 0.01458278 0.00979352 0.03347296 0.00386495 0.00421051 0.17096604 0.01363715 0.01704794 0.02825785 0.00124320 
0.04483318 0.04979541 0.00739933 0.00445879 0.00201763 0.00273765 0.01455982 0.00982544 0.03256903 0.00388405 0.00421399 0.16884783 0.01364879 0.01691790 0.02800307 0.00124116 
0.04382684 0.04949225 0.00767304 0.00449929 0.00201841 0.00269858 0.01453718 0.00984854 0.03170199 0.00389833 0.00421609 0.16671237 0.01364534 0.01678435 0.02774308 0.00123956 
0.04282269 0.04922320 0.00796320 0.00453721 0.00201940 0.00266090 0.01451525 0.00986254 0.03087536 0.00390765 0.00421681 0.16456759 0.01362688 0.01664768 0.02747863 0.00123840 
0.04182322 0.04899001 0.00826885 0.00457240 0.00202062 0.00262477 0.01449443 0.00986718 0.03009249 0.00391185 0.00421620 0.16242162 0.01359356 0.01650834 0.02721049 0.00123768 
0.04083081 0.04879433 0.00858891 0.00460474 0.00202208 0.00259037 0.01447512 0.00986222 0.02935645 0.00391084 0.00421427 0.16028276 0.01354557 0.01636678 0.02693945 0.00123741 
0.03984775 0.04863770 0.00892219 0.00463411 0.00202381 0.00255783 0.01445778 0.00984747 0.02867011 0.00390451 0.00421109 0.15815948 0.01348318 0.01622349 0.02666628 0.00123759 
0.03887618 0.04852154 0.00926738 0.00466041 0.00202582 0.00252729 0.01444283 0.00982277 0.02803608 0.00389280 0.00420672 0.15606037 0.01340673 0.01607899 0.02639176 0.00123820 
0.03791815 0.04844715 0.00962308 0.00468352 0.00202814 0.00249887 0.01443075 0.00978798 0.02745671 0.00387568 0.00420125 0.15399410 0.01331659 0.01593381 0.02611669 0.00123924 
0.03697557 0.04841567 0.00998779 0.00470335 0.00203080 0.00247265 0.01442196 0.00974303 0.02693406 0.00385313 0.00419474 0.15196943 0.01321322 0.01578852 0.02584186 0.00124070 
0.03605020 0.04842813 0.01035988 0.00471982 0.00203384 0.00244873 0.01441694 0.00968785 0.02646993 0.00382516 0.00418732 0.14999509 0.01309712 0.01564371 0.02556807 0.00124255 
0.03514365 0.04848537 0.01073770 0.00473284 0.00203728 0.00242716 0.01441612 0.00962244 0.02606584 0.00379181 0.00417906 0.14807985 0.01296885 0.01550000 0.02529610 0.00124479 
0.03425741 0.04858810 0.01111947 0.00474235 0.00204117 0.00240800 0.01441992 0.00954683 0.02572299 0.00375314 0.00417010 0.14623239 0.01282901 0.01535802 0.02502678 0.00124738 
0.03339278 0.04873684 0.01150336 0.00474829 0.00204554 0.00239127 0.01442875 0.00946112 0.02544232 0.00370925 0.00416053 0.14446130 0.01267825 0.01521843 0.02476088 0.00125031 
0.03255094 0.04893193 0.01188751 0.00475061 0.00205044 0.00237699 0.01444301 0.00936541 0.02522445 0.00366026 0.00415049 0.14277504 0.01251726 0.01508189 0.02449922 0.00125353 
0.03173289 0.04917356 0.01226996 0.00474929 0.00205590 0.00236515 0.01446305 0.00925988 0.02506971 0.00360630 0.00414009 0.14118190 0.01234679 0.01494910 0.02424258 0.00125703 
0.03093950 0.04946169 0.01264876 0.00474430 0.00206197 0.00235575 0.01448919 0.00914474 0.02497812 0.00354755 0.00412946 0.13968993 0.01216760 0.01482075 0.02399175 0.00126076 
0.03017149 0.04979611 0.01302192 0.00473563 0.00206867 0.00234874 0.01452171 0.00902027 0.02494944 0.00348421 0.00411872 0.13830692 0.01198048 0.01469753 0.02374753 0.00126469 
0.02942940 0.05017642 0.01338743 0.00472329 0.00207606 0.00234409 0.01456087 0.00888678 0.02498310 0.00341648 0.00410799 0.13704037 0.01178626 0.01458017 0.02351068 0.00126879 
0.02871367 0.05060199 0.01374329 0.00470730 0.00208415 0.00234174 0.01460685 0.00874462 0.02507826 0.00334462 0.00409738 0.13589743 0.01158578 0.01446936 0.02328197 0.00127300 
0.02802459 0.05107201 0.01408750 0.00468770 0.00209299 0.00234161 0.01465979 0.00859420 0.02523382 0.00326889 0.00408702 0.13488483 0.01137991 0.01436581 0.02306215 0.00127728 
0.02736230 0.05158548 0.01441808 0.00466452 0.00210259 0.00234363 0.01471979 0.00843598 0.02544838 0.00318958 0.00407702 0.13400891 0.01116953 0.01427020 0.02285196 0.00128159 
0.02672685 0.05214116 0.01473310 0.00463784 0.00211297 0.00234770 0.01478688 0.00827046 0.02572029 0.00310699 0.00406746 0.13327550 0.01095550 0.01418322 0.02265210 0.00128589 
0.02611814 0.05273763 0.01503067 0.00460773 0.00212416 0.00235372 0.01486103 0.00809817 0.02604766 0.00302146 0.00405845 0.13268995 0.01073872 0.01410553 0.02246328 0.00129011 
