0.02970783 0.00183698 0.00205716 0.00629378 0.00127359 0.00663958 0.00238517 0.00306598 0.00826166 0.00630500 0.00173354 0.00195451 0.00264882 0.00416813 0.00283719 0.00132288 
0.03091637 0.00181282 0.00206791 0.00620184 0.00127711 0.00663587 0.00239202 0.00320439 0.00817164 0.00633307 0.00175276 0.00194250 0.00265953 0.00411077 0.00285527 0.00132221 
0.03212683 0.00179070 0.00207640 0.00610488 0.00128009 0.00662919 0.00239722 0.00334947 0.00808531 0.00635651 0.00177119 0.00192888 0.00266909 0.00404863 0.00287145 0.00132148 
0.03333582 0.00177081 0.00208255 0.00600337 0.00128252 0.00661940 0.00240071 0.00350004 0.00800331 0.00637511 0.00178875 0.00191370 0.00267752 0.00398183 0.00288554 0.00132070 
0.03453990 0.00175330 0.00208627 0.00589782 0.00128441 0.00660640 0.00240241 0.00365492 0.00792628 0.00638866 0.00180535 0.00189701 0.00268482 0.00391051 0.00289739 0.00131987 
0.03573558 0.00173836 0.00208748 0.00578874 0.00128576 0.00659009 0.00240228 0.00381293 0.00785488 0.00639699 0.00182093 0.00187887 0.00269101 0.00383484 0.00290683 0.00131900 
0.03691938 0.00172614 0.00208610 0.00567665 0.00128660 0.00657038 0.00240028 0.00397292 0.00778979 0.00639996 0.00183539 0.00185937 0.00269611 0.00375501 0.00291373 0.00131809 
0.03808779 0.00171677 0.00208206 0.00556209 0.00128693 0.00654720 0.00239637 0.00413374 0.00773169 0.00639745 0.00184870 0.00183856 0.00270014 0.00367124 0.00291796 0.00131714 
0.03923732 0.00171041 0.00207531 0.00544558 0.00128677 0.00652049 0.00239054 0.00429427 0.00768124 0.00638937 0.00186077 0.00181654 0.00270313 0.00358375 0.00291943 0.00131617 
0.04036449 0.00170718 0.00206578 0.00532765 0.00128613 0.00649021 0.00238278 0.00445342 0.00763911 0.00637565 0.00187157 0.00179338 0.00270509 0.00349281 0.00291805 0.00131517 
0.04146587 0.00170720 0.00205343 0.00520884 0.00128505 0.00645633 0.00237309 0.00461015 0.00760593 0.00635626 0.00188105 0.00176919 0.00270607 0.00339868 0.00291373 0.00131416 
0.04253808 0.00171057 0.00203823 0.00508965 0.00128354 0.00641883 0.00236149 0.00476343 0.00758232 0.00633120 0.00188916 0.00174405 0.00270609 0.00330164 0.00290643 0.00131315 
0.04357780 0.00171738 0.00202015 0.00497062 0.00128163 0.00637771 0.00234801 0.00491230 0.00756885 0.00630050 0.00189588 0.00171806 0.00270518 0.00320201 0.00289612 0.00131214 
0.04458182 0.00172773 0.00199917 0.00485223 0.00127935 0.00633299 0.00233268 0.00505584 0.00756608 0.00626419 0.00190118 0.00169132 0.00270336 0.00310009 0.00288276 0.00131115 
0.04554700 0.00174168 0.00197528 0.00473498 0.00127672 0.00628470 0.00231555 0.00519318 0.00757449 0.00622238 0.00190505 0.00166393 0.00270067 0.00299621 0.00286637 0.00131017 
0.04647031 0.00175927 0.00194851 0.00461934 0.00127377 0.00623289 0.00229669 0.00532353 0.00759452 0.00617516 0.00190747 0.00163599 0.00269713 0.00289071 0.00284696 0.00130923 
0.04734886 0.00178056 0.00191886 0.00450576 0.00127054 0.00617761 0.00227616 0.00544613 0.00762655 0.00612267 0.00190843 0.00160762 0.00269276 0.00278391 0.00282456 0.00130832 
0.04817990 0.00180556 0.00188638 0.00439467 0.00126705 0.00611895 0.00225406 0.00556030 0.00767090 0.00606506 0.00190796 0.00157890 0.00268759 0.00267616 0.00279922 0.00130747 
0.04896081 0.00183429 0.00185111 0.00428647 0.00126334 0.00605699 0.00223047 0.00566543 0.00772782 0.00600253 0.00190604 0.00154994 0.00268164 0.00256782 0.00277101 0.00130668 
0.04968914 0.00186675 0.00181313 0.00418156 0.00125944 0.00599185 0.00220550 0.00576096 0.00779748 0.00593529 0.00190270 0.00152084 0.00267492 0.00245922 0.00274001 0.00130595 
0.05036263 0.00190291 0.00177251 0.00408027 0.00125538 0.00592365 0.00217925 0.00584642 0.00787997 0.00586355 0.00189797 0.00149171 0.00266745 0.00235071 0.00270632 0.00130531 
0.05097917 0.00194275 0.00172935 0.00398294 0.00125119 0.00585251 0.00215186 0.00592140 0.00797529 0.00578757 0.00189186 0.00146263 0.00265923 0.00224263 0.00267006 0.00130475 
0.05153688 0.00198620 0.00168378 0.00388987 0.00124692 0.00577859 0.00212345 0.00598557 0.00808337 0.00570761 0.00188442 0.00143371 0.00265028 0.00213532 0.00263135 0.00130429 
0.05203406 0.00203322 0.00163592 0.00380131 0.00124258 0.00570205 0.00209415 0.00603865 0.00820405 0.00562397 0.00187568 0.00140504 0.00264060 0.00202911 0.00259033 0.00130394 
0.05246922 0.00208371 0.00158593 0.00371749 0.00123820 0.00562305 0.00206411 0.00608046 0.00833707 0.00553694 0.00186569 0.00137670 0.00263018 0.00192431 0.00254715 0.00130371 
0.05284108 0.00213759 0.00153397 0.00363862 0.00123383 0.00554178 0.00203347 0.00611088 0.00848209 0.00544682 0.00185449 0.00134877 0.00261901 0.00182124 0.00250197 0.00130360 
0.05314862 0.00219474 0.00148024 0.00356486 0.00122949 0.00545843 0.00200239 0.00612985 0.00863868 0.00535394 0.00184214 0.00132135 0.00260711 0.00172019 0.00245497 0.00130363 
0.05339099 0.00225505 0.00142495 0.00349634 0.00122521 0.00537319 0.00197103 0.00613740 0.00880632 0.00525864 0.00182869 0.00129449 0.00259444 0.00162144 0.00240632 0.00130379 
0.05356761 0.00231839 0.00136833 0.00343315 0.00122101 0.00528628 0.00193953 0.00613361 0.00898439 0.00516124 0.00181421 0.00126828 0.00258099 0.00152525 0.00235622 0.00130411 
0.05367813 0.00238459 0.00131061 0.00337536 0.00121692 0.00519790 0.00190807 0.00611863 0.00917220 0.00506208 0.00179875 0.00124278 0.00256675 0.00143188 0.00230485 0.00130457 
0.05372243 0.00245350 0.00125207 0.00332300 0.00121296 0.00510828 0.00187681 0.00609268 0.00936898 0.00496151 0.00178238 0.00121805 0.00255170 0.00134157 0.00225242 0.00130519 
0.05370061 0.00252496 0.00119299 0.00327606 0.00120916 0.00501763 0.00184589 0.00605603 0.00957387 0.00485987 0.00176517 0.00119413 0.00253581 0.00125451 0.00219912 0.00130598 
0.05361303 0.00259878 0.00113368 0.00323449 0.00120553 0.00492619 0.00181549 0.00600901 0.00978594 0.00475749 0.00174717 0.00117110 0.00251906 0.00117091 0.00214517 0.00130693 
0.05346028 0.00267476 0.00107444 0.00319824 0.00120211 0.00483417 0.00178577 0.00595203 0.01000421 0.00465471 0.00172847 0.00114897 0.00250142 0.00109094 0.00209078 0.00130804 
0.05324316 0.00275271 0.00101561 0.00316720 0.00119889 0.00474181 0.00175687 0.00588550 0.01022761 0.00455186 0.00170912 0.00112780 0.00248287 0.00101476 0.00203614 0.00130933 
0.05296273 0.00283243 0.00095756 0.00314125 0.00119591 0.00464933 0.00172895 0.00580993 0.01045504 0.00444926 0.00168920 0.00110762 0.00246339 0.00094248 0.00198147 0.00131078 
0.05262026 0.00291369 0.00090064 0.00312021 0.00119317 0.00455696 0.00170214 0.00572583 0.01068532 0.00434722 0.00166878 0.00108845 0.00244295 0.00087424 0.00192697 0.00131241 
0.05221722 0.00299628 0.00084523 0.00310392 0.00119068 0.00446491 0.00167660 0.00563379 0.01091726 0.00424602 0.00164792 0.00107032 0.00242152 0.00081010 0.00187284 0.00131420 
0.05175532 0.00307998 0.00079174 0.00309215 0.00118845 0.00437341 0.00165246 0.00553440 0.01114962 0.00414597 0.00162669 0.00105325 0.00239910 0.00075014 0.00181928 0.00131615 
0.05123646 0.00316456 0.00074056 0.00308468 0.00118650 0.00428267 0.00162983 0.00542830 0.01138114 0.00404732 0.00160516 0.00103723 0.00237565 0.00069441 0.00176649 0.00131826 
0.05066273 0.00324980 0.00069210 0.00308125 0.00118483 0.00419290 0.00160883 0.00531615 0.01161055 0.00395032 0.00158339 0.00102229 0.00235117 0.00064292 0.00171465 0.00132053 
0.05003642 0.00333547 0.00064681 0.00308159 0.00118344 0.00410428 0.00158958 0.00519864 0.01183655 0.00385522 0.00156144 0.00100842 0.00232566 0.00059569 0.00166394 0.00132294 
0.04935999 0.00342134 0.00060509 0.00308541 0.00118234 0.00401702 0.00157216 0.00507646 0.01205787 0.00376222 0.00153938 0.00099562 0.00229911 0.00055269 0.00161452 0.00132549 
0.04863608 0.00350720 0.00056739 0.00309240 0.00118153 0.00393130 0.00155668 0.00495033 0.01227324 0.00367152 0.00151726 0.00098389 0.00227152 0.00051389 0.00156658 0.00132818 
0.04786746 0.00359283 0.00053415 0.00310224 0.00118101 0.00384728 0.00154320 0.00482098 0.01248140 0.00358330 0.00149514 0.00097321 0.00224290 0.00047924 0.00152025 0.00133098 
0.04705706 0.00367802 0.00050581 0.00311462 0.00118077 0.00376513 0.00153179 0.00468914 0.01268112 0.00349771 0.00147308 0.00096356 0.00221329 0.00044866 0.00147568 0.00133390 
0.04620794 0.00376256 0.00048280 0.00312918 0.00118082 0.00368499 0.00152250 0.00455552 0.01287123 0.00341488 0.00145113 0.00095494 0.00218270 0.00042206 0.00143300 0.00133691 
0.04532328 0.00384628 0.00046556 0.00314559 0.00118115 0.00360702 0.00151539 0.00442086 0.01305059 0.00333492 0.00142934 0.00094731 0.00215117 0.00039935 0.00139234 0.00134001 
0.04440636 0.00392897 0.00045451 0.00316350 0.00118176 0.00353132 0.00151048 0.00428587 0.01321810 0.00325793 0.00140776 0.00094066 0.00211875 0.00038039 0.00135380 0.00134318 
0.04346056 0.00401048 0.00045008 0.00318257 0.00118264 0.00345802 0.00150778 0.00415124 0.01337275 0.00318397 0.00138645 0.00093496 0.00208551 0.00036507 0.00131749 0.00134640 
0.04248933 0.00409065 0.00045268 0.00320244 0.00118378 0.00338722 0.00150732 0.00401767 0.01351359 0.00311308 0.00136543 0.00093017 0.00205150 0.00035323 0.00128349 0.00134967 
0.04149619 0.00416934 0.00046271 0.00322279 0.00118518 0.00331900 0.00150908 0.00388582 0.01363974 0.00304529 0.00134476 0.00092628 0.00201681 0.00034472 0.00125187 0.00135297 
0.04048470 0.00424642 0.00048054 0.00324325 0.00118684 0.00325344 0.00151305 0.00375633 0.01375043 0.00298062 0.00132449 0.00092323 0.00198154 0.00033938 0.00122269 0.00135627 
0.03945849 0.00432179 0.00050654 0.00326352 0.00118873 0.00319060 0.00151920 0.00362981 0.01384494 0.00291903 0.00130465 0.00092101 0.00194578 0.00033703 0.00119601 0.00135956 
0.03842116 0.00439536 0.00054106 0.00328326 0.00119086 0.00313053 0.00152750 0.00350685 0.01392268 0.00286051 0.00128528 0.00091957 0.00190966 0.00033750 0.00117185 0.00136283 
0.03737637 0.00446706 0.00058441 0.00330217 0.00119322 0.00307327 0.00153790 0.00338800 0.01398315 0.00280499 0.00126642 0.00091887 0.00187330 0.00034060 0.00115025 0.00136606 
0.03632774 0.00453684 0.00063689 0.00331995 0.00119579 0.00301884 0.00155035 0.00327377 0.01402596 0.00275241 0.00124812 0.00091889 0.00183684 0.00034615 0.00113121 0.00136923 
0.03527887 0.00460469 0.00069877 0.00333631 0.00119857 0.00296726 0.00156478 0.00316464 0.01405083 0.00270270 0.00123041 0.00091958 0.00180043 0.00035394 0.00111474 0.00137231 
0.03423337 0.00467060 0.00077029 0.00335100 0.00120156 0.00291852 0.00158111 0.00306106 0.01405758 0.00265575 0.00121333 0.00092090 0.00176425 0.00036380 0.00110082 0.00137530 
0.03319474 0.00473459 0.00085166 0.00336376 0.00120473 0.00287261 0.00159927 0.00296340 0.01404614 0.00261146 0.00119692 0.00092281 0.00172845 0.00037552 0.00108942 0.00137818 
0.03216648 0.00479671 0.00094304 0.00337437 0.00120809 0.00282952 0.00161917 0.00287204 0.01401659 0.00256970 0.00118122 0.00092529 0.00169323 0.00038892 0.00108051 0.00138092 
0.03115198 0.00485703 0.00104458 0.00338262 0.00121163 0.00278921 0.00164071 0.00278726 0.01396910 0.00253034 0.00116627 0.00092828 0.00165879 0.00040381 0.00107406 0.00138351 
0.03015457 0.00491564 0.00115636 0.00338831 0.00121534 0.00275165 0.00166379 0.00270935 0.01390394 0.00249326 0.00115212 0.00093175 0.00162532 0.00042000 0.00106999 0.00138594 
0.02917747 0.00497266 0.00127846 0.00339128 0.00121922 0.00271678 0.00168832 0.00263851 0.01382152 0.00245831 0.00113880 0.00093566 0.00159303 0.00043732 0.00106826 0.00138818 
0.02822381 0.00502824 0.00141089 0.00339140 0.00122325 0.00268456 0.00171419 0.00257492 0.01372236 0.00242533 0.00112636 0.00093998 0.00156216 0.00045557 0.00106877 0.00139022 
0.02729659 0.00508254 0.00155362 0.00338853 0.00122744 0.00265492 0.00174129 0.00251869 0.01360708 0.00239419 0.00111485 0.00094467 0.00153291 0.00047461 0.00107146 0.00139205 
0.02639870 0.00513576 0.00170659 0.00338259 0.00123178 0.00262779 0.00176951 0.00246991 0.01347642 0.00236472 0.00110431 0.00094969 0.00150553 0.00049426 0.00107623 0.00139365 
0.02553288 0.00518812 0.00186968 0.00337349 0.00123626 0.00260310 0.00179874 0.00242860 0.01333120 0.00233678 0.00109479 0.00095501 0.00148024 0.00051436 0.00108299 0.00139502 
0.02470173 0.00523984 0.00204274 0.00336120 0.00124089 0.00258078 0.00182889 0.00239476 0.01317236 0.00231023 0.00108634 0.00096060 0.00145729 0.00053478 0.00109164 0.00139613 
0.02390772 0.00529120 0.00222556 0.00334568 0.00124565 0.00256074 0.00185985 0.00236833 0.01300093 0.00228490 0.00107902 0.00096642 0.00143690 0.00055537 0.00110206 0.00139698 
0.02315313 0.00534247 0.00241789 0.00332693 0.00125055 0.00254290 0.00189151 0.00234920 0.01281801 0.00226067 0.00107288 0.00097245 0.00141932 0.00057601 0.00111415 0.00139755 
0.02244010 0.00539396 0.00261945 0.00330498 0.00125559 0.00252718 0.00192378 0.00233723 0.01262481 0.00223739 0.00106797 0.00097864 0.00140477 0.00059658 0.00112779 0.00139785 
0.02177060 0.00544598 0.00282988 0.00327987 0.00126076 0.00251349 0.00195658 0.00233224 0.01242259 0.00221495 0.00106435 0.00098497 0.00139348 0.00061696 0.00114286 0.00139786 
0.02114640 0.00549887 0.00304880 0.00325166 0.00126606 0.00250174 0.00198981 0.00233400 0.01221269 0.00219323 0.00106209 0.00099141 0.00138569 0.00063707 0.00115923 0.00139757 
0.02056913 0.00555297 0.00327578 0.00322043 0.00127149 0.00249184 0.00202341 0.00234228 0.01199651 0.00217211 0.00106124 0.00099793 0.00138160 0.00065680 0.00117680 0.00139700 
0.02004019 0.00560866 0.00351036 0.00318631 0.00127705 0.00248372 0.00205731 0.00235676 0.01177549 0.00215150 0.00106186 0.00100450 0.00138143 0.00067609 0.00119542 0.00139612 
0.01956085 0.00566630 0.00375200 0.00314941 0.00128275 0.00247729 0.00209145 0.00237713 0.01155114 0.00213131 0.00106402 0.00101110 0.00138536 0.00069486 0.00121498 0.00139494 
0.01913214 0.00572628 0.00400016 0.00310987 0.00128857 0.00247246 0.00212578 0.00240305 0.01132497 0.00211147 0.00106777 0.00101770 0.00139359 0.00071305 0.00123536 0.00139347 
0.01875494 0.00578898 0.00425423 0.00306786 0.00129452 0.00246915 0.00216026 0.00243413 0.01109856 0.00209193 0.00107319 0.00102427 0.00140627 0.00073063 0.00125642 0.00139170 
0.01842992 0.00585480 0.00451360 0.00302356 0.00130060 0.00246729 0.00219488 0.00246997 0.01087349 0.00207262 0.00108032 0.00103078 0.00142357 0.00074754 0.00127805 0.00138964 
0.01815757 0.00592412 0.00477758 0.00297715 0.00130681 0.00246680 0.00222961 0.00251016 0.01065133 0.00205353 0.00108923 0.00103722 0.00144562 0.00076375 0.00130013 0.00138729 
0.01793818 0.00599735 0.00504549 0.00292883 0.00131315 0.00246761 0.00226446 0.00255425 0.01043369 0.00203463 0.00109999 0.00104355 0.00147253 0.00077925 0.00132254 0.00138466 
0.01777187 0.00607487 0.00531658 0.00287883 0.00131961 0.00246965 0.00229943 0.00260179 0.01022216 0.00201591 0.00111264 0.00104975 0.00150440 0.00079402 0.00134517 0.00138177 
0.01765857 0.00615706 0.00559012 0.00282736 0.00132619 0.00247285 0.00233456 0.00265233 0.01001832 0.00199738 0.00112724 0.00105580 0.00154131 0.00080805 0.00136791 0.00137861 
0.01759803 0.00624430 0.00586531 0.00277465 0.00133288 0.00247715 0.00236987 0.00270538 0.00982371 0.00197907 0.00114385 0.00106168 0.00158331 0.00082135 0.00139065 0.00137521 
0.01758980 0.00633694 0.00614137 0.00272095 0.00133969 0.00248249 0.00240542 0.00276047 0.00963988 0.00196101 0.00116251 0.00106736 0.00163041 0.00083391 0.00141330 0.00137157 
0.01763329 0.00643533 0.00641748 0.00266650 0.00134661 0.00248882 0.00244127 0.00281713 0.00946831 0.00194324 0.00118326 0.00107281 0.00168263 0.00084576 0.00143576 0.00136772 
0.01772773 0.00653980 0.00669280 0.00261154 0.00135363 0.00249608 0.00247749 0.00287486 0.00931046 0.00192582 0.00120615 0.00107802 0.00173994 0.00085691 0.00145793 0.00136366 
0.01787216 0.00665066 0.00696652 0.00255632 0.00136075 0.00250421 0.00251418 0.00293321 0.00916772 0.00190883 0.00123121 0.00108296 0.00180228 0.00086738 0.00147975 0.00135942 
0.01806551 0.00676819 0.00723777 0.00250108 0.00136794 0.00251318 0.00255144 0.00299170 0.00904145 0.00189234 0.00125846 0.00108762 0.00186957 0.00087720 0.00150111 0.00135501 
0.01830651 0.00689265 0.00750572 0.00244608 0.00137522 0.00252293 0.00258937 0.00304987 0.00893293 0.00187645 0.00128793 0.00109196 0.00194171 0.00088639 0.00152197 0.00135045 
0.01859378 0.00702428 0.00776954 0.00239156 0.00138255 0.00253341 0.00262810 0.00310728 0.00884338 0.00186124 0.00131963 0.00109596 0.00201855 0.00089499 0.00154224 0.00134577 
0.01892578 0.00716327 0.00802838 0.00233774 0.00138994 0.00254458 0.00266777 0.00316350 0.00877394 0.00184683 0.00135356 0.00109961 0.00209994 0.00090302 0.00156187 0.00134098 
0.01930087 0.00730979 0.00828142 0.00228487 0.00139737 0.00255640 0.00270851 0.00321813 0.00872569 0.00183332 0.00138972 0.00110289 0.00218568 0.00091053 0.00158081 0.00133611 
0.01971725 0.00746398 0.00852786 0.00223317 0.00140481 0.00256881 0.00275048 0.00327076 0.00869963 0.00182083 0.00142811 0.00110577 0.00227555 0.00091754 0.00159901 0.00133118 
0.02017304 0.00762594 0.00876691 0.00218285 0.00141226 0.00258179 0.00279383 0.00332104 0.00869666 0.00180948 0.00146870 0.00110824 0.00236930 0.00092409 0.00161642 0.00132622 
0.02066624 0.00779572 0.00899780 0.00213412 0.00141969 0.00259527 0.00283874 0.00336861 0.00871760 0.00179939 0.00151145 0.00111027 0.00246666 0.00093021 0.00163302 0.00132124 
0.02119475 0.00797333 0.00921978 0.00208718 0.00142708 0.00260921 0.00288537 0.00341317 0.00876320 0.00179067 0.00155634 0.00111184 0.00256731 0.00093593 0.00164877 0.00131628 
0.02175642 0.00815877 0.00943216 0.00204219 0.00143442 0.00262357 0.00293390 0.00345443 0.00883410 0.00178345 0.00160331 0.00111295 0.00267095 0.00094128 0.00166364 0.00131136 
0.02234897 0.00835195 0.00963426 0.00199934 0.00144168 0.00263829 0.00298450 0.00349213 0.00893085 0.00177785 0.00165229 0.00111357 0.00277721 0.00094629 0.00167764 0.00130649 
0.02297011 0.00855278 0.00982543 0.00195878 0.00144883 0.00265331 0.00303736 0.00352604 0.00905391 0.00177397 0.00170322 0.00111368 0.00288573 0.00095098 0.00169073 0.00130172 
0.02361745 0.00876110 0.01000509 0.00192064 0.00145585 0.00266859 0.00309266 0.00355598 0.00920366 0.00177194 0.00175602 0.00111328 0.00299612 0.00095538 0.00170292 0.00129706 
0.02428858 0.00897670 0.01017268 0.00188506 0.00146272 0.00268405 0.00315057 0.00358180 0.00938036 0.00177184 0.00181058 0.00111235 0.00310796 0.00095950 0.00171420 0.00129253 
0.02498105 0.00919935 0.01032770 0.00185213 0.00146940 0.00269965 0.00321127 0.00360335 0.00958421 0.00177378 0.00186681 0.00111088 0.00322083 0.00096335 0.00172457 0.00128816 
0.02569237 0.00942876 0.01046970 0.00182195 0.00147588 0.00271530 0.00327493 0.00362058 0.00981528 0.00177784 0.00192459 0.00110886 0.00333429 0.00096696 0.00173405 0.00128398 
0.02642006 0.00966458 0.01059827 0.00179461 0.00148211 0.00273094 0.00334173 0.00363341 0.01007359 0.00178410 0.00198380 0.00110628 0.00344788 0.00097032 0.00174263 0.00128000 
0.02716162 0.00990646 0.01071307 0.00177014 0.00148808 0.00274650 0.00341181 0.00364184 0.01035903 0.00179262 0.00204429 0.00110314 0.00356115 0.00097343 0.00175035 0.00127624 
0.02791456 0.01015396 0.01081381 0.00174861 0.00149374 0.00276189 0.00348533 0.00364589 0.01067145 0.00180346 0.00210592 0.00109943 0.00367362 0.00097630 0.00175720 0.00127274 
0.02867638 0.01040661 0.01090025 0.00173003 0.00149909 0.00277704 0.00356243 0.00364561 0.01101057 0.00181666 0.00216855 0.00109515 0.00378482 0.00097893 0.00176322 0.00126950 
0.02944463 0.01066393 0.01097224 0.00171440 0.00150408 0.00279185 0.00364323 0.00364111 0.01137606 0.00183224 0.00223199 0.00109031 0.00389427 0.00098130 0.00176841 0.00126654 
0.03021688 0.01092535 0.01102966 0.00170174 0.00150868 0.00280625 0.00372786 0.00363251 0.01176749 0.00185023 0.00229609 0.00108490 0.00400150 0.00098340 0.00177282 0.00126389 
0.03099075 0.01119031 0.01107247 0.00169200 0.00151287 0.00282013 0.00381641 0.00361996 0.01218436 0.00187061 0.00236065 0.00107894 0.00410605 0.00098521 0.00177646 0.00126155 
0.03176389 0.01145818 0.01110068 0.00168514 0.00151663 0.00283340 0.00390897 0.00360368 0.01262610 0.00189337 0.00242550 0.00107243 0.00420744 0.00098673 0.00177935 0.00125955 
0.03253402 0.01172831 0.01111437 0.00168113 0.00151992 0.00284597 0.00400560 0.00358387 0.01309207 0.00191849 0.00249043 0.00106539 0.00430522 0.00098791 0.00178153 0.00125789 
0.03329891 0.01200003 0.01111370 0.00167988 0.00152272 0.00285774 0.00410637 0.00356080 0.01358157 0.00194590 0.00255526 0.00105782 0.00439896 0.00098875 0.00178302 0.00125659 
0.03405641 0.01227262 0.01109885 0.00168131 0.00152501 0.00286861 0.00421129 0.00353475 0.01409381 0.00197556 0.00261977 0.00104976 0.00448822 0.00098921 0.00178386 0.00125565 
0.03480444 0.01254534 0.01107011 0.00168532 0.00152676 0.00287849 0.00432038 0.00350602 0.01462797 0.00200737 0.00268376 0.00104122 0.00457261 0.00098926 0.00178406 0.00125508 
0.03554100 0.01281745 0.01102781 0.00169182 0.00152796 0.00288726 0.00443362 0.00347496 0.01518316 0.00204125 0.00274702 0.00103222 0.00465173 0.00098888 0.00178365 0.00125489 
0.03626417 0.01308816 0.01097232 0.00170067 0.00152859 0.00289485 0.00455099 0.00344192 0.01575845 0.00207709 0.00280935 0.00102279 0.00472524 0.00098803 0.00178265 0.00125509 
0.03697213 0.01335669 0.01090410 0.00171175 0.00152863 0.00290115 0.00467242 0.00340727 0.01635285 0.00211476 0.00287053 0.00101297 0.00479278 0.00098668 0.00178111 0.00125566 
0.03766315 0.01362222 0.01082365 0.00172492 0.00152808 0.00290607 0.00479784 0.00337141 0.01696532 0.00215413 0.00293034 0.00100278 0.00485407 0.00098480 0.00177902 0.00125662 
0.03833559 0.01388396 0.01073153 0.00174004 0.00152692 0.00290954 0.00492714 0.00333474 0.01759480 0.00219505 0.00298860 0.00099227 0.00490883 0.00098236 0.00177642 0.00125796 
0.03898790 0.01414108 0.01062833 0.00175695 0.00152514 0.00291146 0.00506020 0.00329768 0.01824018 0.00223734 0.00304508 0.00098148 0.00495682 0.00097932 0.00177333 0.00125968 
0.03961866 0.01439275 0.01051473 0.00177549 0.00152275 0.00291176 0.00519685 0.00326066 0.01890031 0.00228085 0.00309959 0.00097045 0.00499784 0.00097565 0.00176975 0.00126177 
0.04022652 0.01463818 0.01039141 0.00179550 0.00151973 0.00291037 0.00533693 0.00322412 0.01957403 0.00232538 0.00315194 0.00095922 0.00503172 0.00097133 0.00176572 0.00126423 
0.04081023 0.01487654 0.01025912 0.00181681 0.00151610 0.00290725 0.00548023 0.00318849 0.02026014 0.00237073 0.00320194 0.00094784 0.00505835 0.00096633 0.00176123 0.00126703 
0.04136867 0.01510704 0.01011864 0.00183924 0.00151186 0.00290233 0.00562652 0.00315421 0.02095741 0.00241671 0.00324941 0.00093638 0.00507765 0.00096062 0.00175630 0.00127018 
0.04190078 0.01532888 0.00997079 0.00186264 0.00150702 0.00289557 0.00577556 0.00312172 0.02166460 0.00246311 0.00329418 0.00092487 0.00508957 0.00095419 0.00175095 0.00127366 
0.04240563 0.01554131 0.00981640 0.00188683 0.00150159 0.00288696 0.00592707 0.00309145 0.02238045 0.00250971 0.00333609 0.00091337 0.00509411 0.00094701 0.00174516 0.00127746 
0.04288236 0.01574357 0.00965635 0.00191163 0.00149559 0.00287647 0.00608076 0.00306382 0.02310368 0.00255630 0.00337499 0.00090195 0.00509134 0.00093908 0.00173896 0.00128155 
0.04333022 0.01593494 0.00949153 0.00193688 0.00148903 0.00286409 0.00623629 0.00303924 0.02383301 0.00260264 0.00341074 0.00089066 0.00508134 0.00093038 0.00173234 0.00128591 
0.04374854 0.01611472 0.00932284 0.00196241 0.00148195 0.00284984 0.00639335 0.00301812 0.02456715 0.00264853 0.00344322 0.00087956 0.00506425 0.00092090 0.00172530 0.00129054 
0.04413674 0.01628226 0.00915122 0.00198807 0.00147437 0.00283375 0.00655156 0.00300084 0.02530478 0.00269373 0.00347232 0.00086871 0.00504027 0.00091066 0.00171784 0.00129541 
0.04449430 0.01643692 0.00897759 0.00201369 0.00146631 0.00281585 0.00671056 0.00298776 0.02604459 0.00273802 0.00349794 0.00085818 0.00500962 0.00089964 0.00170996 0.00130049 
0.04482082 0.01657811 0.00880289 0.00203913 0.00145782 0.00279619 0.00686994 0.00297923 0.02678529 0.00278119 0.00352000 0.00084803 0.00497258 0.00088786 0.00170165 0.00130576 
0.04511593 0.01670528 0.00862804 0.00206424 0.00144893 0.00277484 0.00702930 0.00297556 0.02752555 0.00282303 0.00353844 0.00083832 0.00492947 0.00087534 0.00169290 0.00131119 
0.04537935 0.01681794 0.00845398 0.00208889 0.00143967 0.00275190 0.00718822 0.00297704 0.02826407 0.00286332 0.00355320 0.00082911 0.00488066 0.00086208 0.00168372 0.00131677 
0.04561085 0.01691561 0.00828162 0.00211296 0.00143008 0.00272746 0.00734626 0.00298396 0.02899955 0.00290187 0.00356426 0.00082046 0.00482656 0.00084813 0.00167409 0.00132246 
0.04581027 0.01699789 0.00811186 0.00213632 0.00142022 0.00270164 0.00750298 0.00299653 0.02973067 0.00293849 0.00357160 0.00081244 0.00476760 0.00083349 0.00166400 0.00132823 
0.04597748 0.01706443 0.00794559 0.00215887 0.00141013 0.00267458 0.00765793 0.00301497 0.03045614 0.00297300 0.00357521 0.00080510 0.00470429 0.00081822 0.00165345 0.00133407 
0.04611243 0.01711491 0.00778364 0.00218050 0.00139985 0.00264641 0.00781066 0.00303945 0.03117469 0.00300523 0.00357513 0.00079850 0.00463714 0.00080235 0.00164243 0.00133993 
0.04621507 0.01714909 0.00762686 0.00220114 0.00138944 0.00261732 0.00796070 0.00307011 0.03188503 0.00303502 0.00357139 0.00079269 0.00456670 0.00078592 0.00163094 0.00134579 
0.04628542 0.01716677 0.00747604 0.00222071 0.00137895 0.00258748 0.00810759 0.00310705 0.03258591 0.00306223 0.00356403 0.00078773 0.00449358 0.00076899 0.00161896 0.00135162 
0.04632351 0.01716783 0.00733192 0.00223914 0.00136842 0.00255709 0.00825089 0.00315034 0.03327607 0.00308674 0.00355314 0.00078366 0.00441838 0.00075160 0.00160650 0.00135740 
0.04632941 0.01715218 0.00719523 0.00225638 0.00135792 0.00252634 0.00839014 0.00320000 0.03395428 0.00310844 0.00353880 0.00078053 0.00434176 0.00073382 0.00159356 0.00136309 
0.04630319 0.01711981 0.00706664 0.00227239 0.00134749 0.00249548 0.00852489 0.00325604 0.03461932 0.00312723 0.00352111 0.00077837 0.00426439 0.00071571 0.00158012 0.00136866 
0.04624497 0.01707077 0.00694676 0.00228714 0.00133719 0.00246472 0.00865472 0.00331841 0.03527000 0.00314304 0.00350020 0.00077724 0.00418694 0.00069734 0.00156620 0.00137409 
0.04615487 0.01700518 0.00683616 0.00230062 0.00132707 0.00243431 0.00877920 0.00338703 0.03590515 0.00315581 0.00347620 0.00077715 0.00411014 0.00067877 0.00155179 0.00137936 
0.04603300 0.01692319 0.00673536 0.00231281 0.00131719 0.00240452 0.00889793 0.00346179 0.03652360 0.00316549 0.00344926 0.00077814 0.00403470 0.00066007 0.00153692 0.00138442 
0.04587952 0.01682504 0.00664481 0.00232372 0.00130759 0.00237559 0.00901053 0.00354252 0.03712424 0.00317207 0.00341955 0.00078022 0.00396135 0.00064133 0.00152158 0.00138926 
0.04569455 0.01671103 0.00656492 0.00233337 0.00129832 0.00234780 0.00911662 0.00362905 0.03770595 0.00317555 0.00338724 0.00078343 0.00389083 0.00062261 0.00150579 0.00139386 
0.04547827 0.01658152 0.00649601 0.00234179 0.00128944 0.00232142 0.00921588 0.00372114 0.03826767 0.00317594 0.00335253 0.00078775 0.00382387 0.00060400 0.00148958 0.00139818 
0.04523081 0.01643692 0.00643836 0.00234902 0.00128099 0.00229674 0.00930797 0.00381856 0.03880835 0.00317328 0.00331560 0.00079322 0.00376122 0.00058558 0.00147296 0.00140221 
0.04495234 0.01627771 0.00639217 0.00235510 0.00127302 0.00227402 0.00939263 0.00392100 0.03932699 0.00316762 0.00327669 0.00079981 0.00370360 0.00056742 0.00145597 0.00140593 
0.04464302 0.01610442 0.00635759 0.00236009 0.00126556 0.00225356 0.00946958 0.00402815 0.03982262 0.00315905 0.00323600 0.00080753 0.00365173 0.00054960 0.00143862 0.00140931 
0.04430302 0.01591766 0.00633469 0.00236406 0.00125866 0.00223563 0.00953862 0.00413967 0.04029431 0.00314765 0.00319377 0.00081636 0.00360634 0.00053221 0.00142097 0.00141235 
0.04393252 0.01571806 0.00632348 0.00236709 0.00125235 0.00222051 0.00959956 0.00425518 0.04074116 0.00313353 0.00315023 0.00082629 0.00356810 0.00051532 0.00140305 0.00141501 
0.04353169 0.01550633 0.00632389 0.00236926 0.00124666 0.00220847 0.00965224 0.00437430 0.04116235 0.00311682 0.00310562 0.00083728 0.00353770 0.00049901 0.00138491 0.00141729 
0.04310075 0.01528324 0.00633582 0.00237065 0.00124163 0.00219977 0.00969656 0.00449660 0.04155706 0.00309767 0.00306019 0.00084932 0.00351578 0.00048335 0.00136659 0.00141918 
0.04263989 0.01504958 0.00635906 0.00237137 0.00123728 0.00219468 0.00973246 0.00462165 0.04192456 0.00307624 0.00301419 0.00086235 0.00350295 0.00046841 0.00134816 0.00142066 
0.04214934 0.01480621 0.00639336 0.00237151 0.00123362 0.00219342 0.00975990 0.00474899 0.04226415 0.00305270 0.00296787 0.00087634 0.00349982 0.00045427 0.00132967 0.00142173 
0.04162937 0.01455403 0.00643840 0.00237119 0.00123069 0.00219624 0.00977890 0.00487817 0.04257522 0.00302724 0.00292147 0.00089123 0.00350692 0.00044099 0.00131119 0.00142237 
0.04108026 0.01429399 0.00649382 0.00237051 0.00122849 0.00220336 0.00978953 0.00500870 0.04285718 0.00300006 0.00287526 0.00090698 0.00352478 0.00042863 0.00129279 0.00142259 
0.04050232 0.01402706 0.00655916 0.00236959 0.00122702 0.00221498 0.00979189 0.00514010 0.04310953 0.00297137 0.00282948 0.00092351 0.00355387 0.00041725 0.00127454 0.00142238 
0.03989591 0.01375426 0.00663395 0.00236854 0.00122631 0.00223128 0.00978614 0.00527188 0.04333184 0.00294140 0.00278437 0.00094076 0.00359462 0.00040690 0.00125651 0.00142174 
0.03926144 0.01347666 0.00671764 0.00236749 0.00122634 0.00225243 0.00977246 0.00540355 0.04352374 0.00291038 0.00274018 0.00095866 0.00364741 0.00039763 0.00123880 0.00142066 
0.03859936 0.01319533 0.00680963 0.00236654 0.00122711 0.00227857 0.00975111 0.00553460 0.04368494 0.00287855 0.00269715 0.00097713 0.00371258 0.00038949 0.00122148 0.00141917 
0.03791019 0.01291138 0.00690928 0.00236582 0.00122862 0.00230984 0.00972236 0.00566456 0.04381523 0.00284614 0.00265550 0.00099610 0.00379041 0.00038250 0.00120464 0.00141725 
0.03719452 0.01262595 0.00701591 0.00236544 0.00123086 0.00234632 0.00968656 0.00579293 0.04391447 0.00281340 0.00261545 0.00101547 0.00388112 0.00037669 0.00118837 0.00141492 
0.03645299 0.01234019 0.00712881 0.00236552 0.00123380 0.00238809 0.00964407 0.00591925 0.04398263 0.00278059 0.00257723 0.00103516 0.00398489 0.00037210 0.00117278 0.00141218 
0.03568635 0.01205528 0.00724721 0.00236616 0.00123743 0.00243522 0.00959530 0.00604305 0.04401974 0.00274796 0.00254102 0.00105508 0.00410183 0.00036874 0.00115794 0.00140905 
0.03489542 0.01177240 0.00737033 0.00236749 0.00124173 0.00248770 0.00954072 0.00616388 0.04402593 0.00271576 0.00250703 0.00107512 0.00423201 0.00036662 0.00114396 0.00140553 
0.03408113 0.01149275 0.00749736 0.00236959 0.00124667 0.00254556 0.00948080 0.00628130 0.04400143 0.00268423 0.00247543 0.00109521 0.00437541 0.00036574 0.00113093 0.00140165 
0.03324448 0.01121751 0.00762748 0.00237258 0.00125222 0.00260875 0.00941608 0.00639490 0.04394654 0.00265362 0.00244640 0.00111522 0.00453198 0.00036611 0.00111895 0.00139742 
0.03238663 0.01094789 0.00775982 0.00237654 0.00125835 0.00267721 0.00934712 0.00650429 0.04386169 0.00262416 0.00242009 0.00113508 0.00470160 0.00036771 0.00110811 0.00139285 
0.03150880 0.01068508 0.00789355 0.00238157 0.00126502 0.00275086 0.00927450 0.00660910 0.04374737 0.00259610 0.00239663 0.00115467 0.00488407 0.00037054 0.00109852 0.00138797 
0.03061236 0.01043026 0.00802778 0.00238774 0.00127219 0.00282958 0.00919883 0.00670897 0.04360419 0.00256965 0.00237617 0.00117390 0.00507917 0.00037456 0.00109026 0.00138280 
0.02969882 0.01018462 0.00816167 0.00239512 0.00127983 0.00291322 0.00912076 0.00680360 0.04343286 0.00254503 0.00235880 0.00119267 0.00528657 0.00037975 0.00108343 0.00137735 
0.02876977 0.00994930 0.00829434 0.00240379 0.00128788 0.00300162 0.00904094 0.00689270 0.04323417 0.00252243 0.00234464 0.00121088 0.00550592 0.00038607 0.00107812 0.00137165 
0.02782699 0.00972544 0.00842496 0.00241380 0.00129631 0.00309457 0.00896005 0.00697599 0.04300903 0.00250206 0.00233375 0.00122843 0.00573679 0.00039349 0.00107441 0.00136572 
0.02687236 0.00951416 0.00855268 0.00242520 0.00130508 0.00319184 0.00887876 0.00705325 0.04275842 0.00248408 0.00232621 0.00124523 0.00597871 0.00040196 0.00107238 0.00135958 
0.02590792 0.00931653 0.00867669 0.00243803 0.00131412 0.00329318 0.00879777 0.00712428 0.04248345 0.00246865 0.00232206 0.00126119 0.00623113 0.00041142 0.00107210 0.00135327 
0.02493584 0.00913361 0.00879619 0.00245232 0.00132341 0.00339830 0.00871777 0.00718892 0.04218528 0.00245592 0.00232134 0.00127622 0.00649346 0.00042182 0.00107366 0.00134681 
0.02395845 0.00896641 0.00891043 0.00246810 0.00133288 0.00350691 0.00863946 0.00724703 0.04186519 0.00244602 0.00232406 0.00129023 0.00676506 0.00043309 0.00107710 0.00134022 
0.02297822 0.00881589 0.00901866 0.00248536 0.00134249 0.00361866 0.00856351 0.00729851 0.04152454 0.00243906 0.00233022 0.00130316 0.00704523 0.00044517 0.00108250 0.00133353 
0.02199774 0.00868297 0.00912020 0.00250412 0.00135220 0.00373321 0.00849062 0.00734328 0.04116478 0.00243512 0.00233982 0.00131492 0.00733324 0.00045800 0.00108990 0.00132677 
0.02101977 0.00856854 0.00921439 0.00252437 0.00136195 0.00385018 0.00842144 0.00738133 0.04078742 0.00243429 0.00235281 0.00132544 0.00762829 0.00047148 0.00109934 0.00131996 
0.02004720 0.00847341 0.00930063 0.00254609 0.00137171 0.00396919 0.00835661 0.00741263 0.04039405 0.00243660 0.00236916 0.00133466 0.00792955 0.00048555 0.00111086 0.00131313 
0.01908304 0.00839834 0.00937836 0.00256925 0.00138142 0.00408982 0.00829676 0.00743723 0.03998634 0.00244209 0.00238879 0.00134253 0.00823615 0.00050012 0.00112448 0.00130631 
0.01813045 0.00834404 0.00944706 0.00259381 0.00139104 0.00421165 0.00824247 0.00745518 0.03956601 0.00245077 0.00241164 0.00134899 0.00854719 0.00051512 0.00114022 0.00129952 
0.01719271 0.00831113 0.00950630 0.00261973 0.00140054 0.00433425 0.00819431 0.00746658 0.03913484 0.00246262 0.00243761 0.00135400 0.00886173 0.00053045 0.00115808 0.00129279 
0.01627320 0.00830019 0.00955567 0.00264695 0.00140986 0.00445715 0.00815278 0.00747154 0.03869466 0.00247763 0.00246659 0.00135752 0.00917879 0.00054604 0.00117807 0.00128615 
0.01537543 0.00831173 0.00959483 0.00267539 0.00141897 0.00457990 0.00811839 0.00747021 0.03824735 0.00249572 0.00249847 0.00135953 0.00949739 0.00056178 0.00120016 0.00127961 
0.01450298 0.00834615 0.00962353 0.00270500 0.00142784 0.00470204 0.00809157 0.00746276 0.03779479 0.00251683 0.00253312 0.00136000 0.00981651 0.00057761 0.00122433 0.00127320 
0.01365954 0.00840381 0.00964155 0.00273568 0.00143643 0.00482309 0.00807270 0.00744939 0.03733892 0.00254086 0.00257039 0.00135892 0.01013512 0.00059342 0.00125055 0.00126695 
0.01284887 0.00848499 0.00964875 0.00276734 0.00144471 0.00494257 0.00806213 0.00743033 0.03688169 0.00256771 0.00261013 0.00135628 0.01045216 0.00060913 0.00127876 0.00126087 
0.01207479 0.00858986 0.00964504 0.00279988 0.00145266 0.00506003 0.00806015 0.00740581 0.03642504 0.00259722 0.00265218 0.00135209 0.01076658 0.00062466 0.00130892 0.00125499 
0.01134118 0.00871855 0.00963042 0.00283319 0.00146024 0.00517497 0.00806700 0.00737609 0.03597093 0.00262926 0.00269635 0.00134635 0.01107733 0.00063993 0.00134094 0.00124933 
0.01065193 0.00887106 0.00960495 0.00286715 0.00146744 0.00528694 0.00808284 0.00734147 0.03552130 0.00266365 0.00274248 0.00133909 0.01138333 0.00065485 0.00137475 0.00124390 
0.01001097 0.00904735 0.00956874 0.00290165 0.00147423 0.00539547 0.00810779 0.00730222 0.03507805 0.00270020 0.00279037 0.00133033 0.01168352 0.00066934 0.00141027 0.00123873 
0.00942223 0.00924727 0.00952198 0.00293656 0.00148060 0.00550011 0.00814191 0.00725865 0.03464309 0.00273870 0.00283982 0.00132010 0.01197685 0.00068333 0.00144738 0.00123382 
0.00888962 0.00947058 0.00946492 0.00297173 0.00148654 0.00560042 0.00818519 0.00721109 0.03421827 0.00277895 0.00289064 0.00130845 0.01226228 0.00069675 0.00148597 0.00122920 
0.00841701 0.00971697 0.00939788 0.00300703 0.00149203 0.00569598 0.00823757 0.00715986 0.03380538 0.00282070 0.00294260 0.00129542 0.01253879 0.00070953 0.00152592 0.00122486 
0.00800824 0.00998603 0.00932124 0.00304232 0.00149706 0.00578637 0.00829892 0.00710528 0.03340617 0.00286371 0.00299551 0.00128107 0.01280536 0.00072160 0.00156710 0.00122084 
0.00766705 0.01027728 0.00923542 0.00307745 0.00150164 0.00587120 0.00836904 0.00704770 0.03302231 0.00290773 0.00304915 0.00126546 0.01306101 0.00073290 0.00160936 0.00121713 
0.00739712 0.01059015 0.00914092 0.00311227 0.00150576 0.00595010 0.00844769 0.00698745 0.03265541 0.00295248 0.00310330 0.00124866 0.01330479 0.00074339 0.00165256 0.00121374 
0.00720200 0.01092398 0.00903829 0.00314662 0.00150942 0.00602271 0.00853455 0.00692487 0.03230699 0.00299771 0.00315774 0.00123074 0.01353577 0.00075300 0.00169653 0.00121069 
0.00708511 0.01127803 0.00892812 0.00318035 0.00151263 0.00608872 0.00862925 0.00686029 0.03197847 0.00304311 0.00321227 0.00121178 0.01375308 0.00076170 0.00174110 0.00120796 
0.00704973 0.01165150 0.00881107 0.00321330 0.00151538 0.00614782 0.00873138 0.00679404 0.03167117 0.00308842 0.00326665 0.00119188 0.01395585 0.00076945 0.00178611 0.00120558 
0.00709897 0.01204350 0.00868780 0.00324531 0.00151769 0.00619973 0.00884045 0.00672645 0.03138632 0.00313335 0.00332069 0.00117111 0.01414330 0.00077621 0.00183137 0.00120354 
0.00723573 0.01245307 0.00855907 0.00327623 0.00151957 0.00624422 0.00895594 0.00665783 0.03112501 0.00317759 0.00337416 0.00114957 0.01431465 0.00078196 0.00187670 0.00120184 
0.00746271 0.01287917 0.00842563 0.00330589 0.00152103 0.00628106 0.00907727 0.00658849 0.03088824 0.00322087 0.00342686 0.00112737 0.01446921 0.00078668 0.00192190 0.00120048 
0.00778240 0.01332071 0.00828827 0.00333414 0.00152209 0.00631008 0.00920382 0.00651872 0.03067686 0.00326290 0.00347860 0.00110459 0.01460633 0.00079034 0.00196679 0.00119945 
0.00819702 0.01377653 0.00814783 0.00336082 0.00152275 0.00633113 0.00933495 0.00644881 0.03049160 0.00330339 0.00352916 0.00108134 0.01472539 0.00079295 0.00201116 0.00119876 
0.00870851 0.01424542 0.00800515 0.00338579 0.00152305 0.00634407 0.00946994 0.00637900 0.03033306 0.00334207 0.00357837 0.00105773 0.01482588 0.00079450 0.00205481 0.00119840 
0.00931856 0.01472611 0.00786110 0.00340890 0.00152299 0.00634884 0.00960810 0.00630957 0.03020168 0.00337866 0.00362603 0.00103386 0.01490731 0.00079499 0.00209755 0.00119836 
0.01002853 0.01521728 0.00771655 0.00343000 0.00152259 0.00634538 0.00974865 0.00624073 0.03009780 0.00341291 0.00367198 0.00100984 0.01496927 0.00079443 0.00213918 0.00119863 
0.01083947 0.01571758 0.00757239 0.00344895 0.00152188 0.00633368 0.00989084 0.00617271 0.03002157 0.00344456 0.00371604 0.00098577 0.01501141 0.00079283 0.00217950 0.00119920 
0.01175211 0.01622560 0.00742950 0.00346562 0.00152088 0.00631374 0.01003387 0.00610569 0.02997304 0.00347337 0.00375806 0.00096176 0.01503346 0.00079021 0.00221832 0.00120008 
0.01276682 0.01673993 0.00728879 0.00347989 0.00151961 0.00628564 0.01017695 0.00603986 0.02995208 0.00349911 0.00379789 0.00093792 0.01503521 0.00078660 0.00225543 0.00120123 
0.01388361 0.01725909 0.00715112 0.00349163 0.00151808 0.00624945 0.01031927 0.00597537 0.02995844 0.00352157 0.00383540 0.00091434 0.01501652 0.00078203 0.00229066 0.00120266 
0.01510215 0.01778163 0.00701737 0.00350073 0.00151632 0.00620530 0.01046004 0.00591236 0.02999172 0.00354056 0.00387045 0.00089112 0.01497733 0.00077653 0.00232382 0.00120434 
0.01642169 0.01830606 0.00688839 0.00350708 0.00151435 0.00615334 0.01059843 0.00585094 0.03005137 0.00355590 0.00390294 0.00086837 0.01491763 0.00077014 0.00235474 0.00120627 
0.01784113 0.01883086 0.00676501 0.00351059 0.00151220 0.00609377 0.01073368 0.00579121 0.03013673 0.00356742 0.00393275 0.00084618 0.01483752 0.00076291 0.00238325 0.00120843 
0.01935897 0.01935456 0.00664805 0.00351118 0.00150988 0.00602679 0.01086498 0.00573324 0.03024697 0.00357498 0.00395981 0.00082463 0.01473715 0.00075487 0.00240918 0.00121081 
0.02097331 0.01987564 0.00653826 0.00350876 0.00150740 0.00595267 0.01099160 0.00567709 0.03038115 0.00357847 0.00398402 0.00080381 0.01461674 0.00074609 0.00243239 0.00121339 
0.02268187 0.02039264 0.00643641 0.00350327 0.00150480 0.00587167 0.01111280 0.00562279 0.03053821 0.00357778 0.00400532 0.00078380 0.01447658 0.00073661 0.00245273 0.00121615 
0.02448194 0.02090408 0.00634318 0.00349466 0.00150208 0.00578412 0.01122786 0.00557036 0.03071696 0.00357283 0.00402365 0.00076468 0.01431706 0.00072649 0.00247008 0.00121908 
0.02637046 0.02140851 0.00625924 0.00348288 0.00149927 0.00569033 0.01133612 0.00551979 0.03091609 0.00356358 0.00403898 0.00074651 0.01413862 0.00071579 0.00248432 0.00122217 
0.02834394 0.02190453 0.00618521 0.00346791 0.00149637 0.00559067 0.01143694 0.00547106 0.03113419 0.00354998 0.00405128 0.00072935 0.01394176 0.00070456 0.00249534 0.00122539 
0.03039854 0.02239074 0.00612165 0.00344971 0.00149341 0.00548552 0.01152972 0.00542413 0.03136976 0.00353202 0.00406053 0.00071327 0.01372706 0.00069288 0.00250305 0.00122873 
0.03253001 0.02286582 0.00606907 0.00342830 0.00149039 0.00537529 0.01161392 0.00537896 0.03162119 0.00350972 0.00406672 0.00069831 0.01349516 0.00068079 0.00250737 0.00123218 
0.03473375 0.02332847 0.00602794 0.00340366 0.00148732 0.00526038 0.01168902 0.00533546 0.03188680 0.00348310 0.00406986 0.00068451 0.01324678 0.00066838 0.00250824 0.00123571 
0.03700482 0.02377744 0.00599864 0.00337584 0.00148422 0.00514123 0.01175457 0.00529357 0.03216483 0.00345224 0.00406997 0.00067190 0.01298269 0.00065569 0.00250560 0.00123932 
0.03933790 0.02421156 0.00598153 0.00334486 0.00148109 0.00501830 0.01181016 0.00525317 0.03245346 0.00341721 0.00406708 0.00066052 0.01270370 0.00064279 0.00249943 0.00124298 
0.04172737 0.02462969 0.00597687 0.00331077 0.00147794 0.00489205 0.01185545 0.00521417 0.03275079 0.00337812 0.00406123 0.00065039 0.01241070 0.00062974 0.00248970 0.00124668 
0.04416730 0.02503079 0.00598490 0.00327364 0.00147477 0.00476294 0.01189014 0.00517645 0.03305489 0.00333508 0.00405248 0.00064150 0.01210462 0.00061660 0.00247641 0.00125041 
0.04665147 0.02541386 0.00600574 0.00323354 0.00147158 0.00463146 0.01191398 0.00513989 0.03336380 0.00328825 0.00404090 0.00063388 0.01178644 0.00060344 0.00245957 0.00125415 
0.04917337 0.02577800 0.00603951 0.00319057 0.00146838 0.00449808 0.01192679 0.00510434 0.03367552 0.00323778 0.00402654 0.00062752 0.01145718 0.00059031 0.00243921 0.00125788 
0.05172627 0.02612237 0.00608620 0.00314484 0.00146517 0.00436329 0.01192845 0.00506969 0.03398804 0.00318387 0.00400950 0.00062240 0.01111791 0.00057727 0.00241537 0.00126160 
0.05430320 0.02644622 0.00614578 0.00309647 0.00146193 0.00422758 0.01191889 0.00503578 0.03429932 0.00312673 0.00398986 0.00061851 0.01076972 0.00056436 0.00238811 0.00126529 
0.05689701 0.02674889 0.00621814 0.00304560 0.00145868 0.00409141 0.01189808 0.00500246 0.03460735 0.00306656 0.00396773 0.00061582 0.01041374 0.00055164 0.00235750 0.00126894 
0.05950037 0.02702981 0.00630311 0.00299238 0.00145541 0.00395527 0.01186607 0.00496960 0.03491012 0.00300360 0.00394322 0.00061430 0.01005113 0.00053916 0.00232363 0.00127253 
0.06210579 0.02728848 0.00640044 0.00293698 0.00145211 0.00381962 0.01182295 0.00493705 0.03520563 0.00293812 0.00391642 0.00061391 0.00968305 0.00052695 0.00228661 0.00127606 
0.06470570 0.02752452 0.00650983 0.00287958 0.00144877 0.00368492 0.01176886 0.00490467 0.03549194 0.00287037 0.00388747 0.00061461 0.00931072 0.00051506 0.00224655 0.00127952 
0.06729242 0.02773763 0.00663092 0.00282037 0.00144538 0.00355162 0.01170400 0.00487230 0.03576712 0.00280062 0.00385650 0.00061633 0.00893531 0.00050352 0.00220358 0.00128289 
0.06985822 0.02792759 0.00676328 0.00275956 0.00144195 0.00342013 0.01162861 0.00483982 0.03602931 0.00272917 0.00382361 0.00061904 0.00855806 0.00049237 0.00215785 0.00128617 
0.07239536 0.02809432 0.00690645 0.00269737 0.00143845 0.00329088 0.01154297 0.00480709 0.03627670 0.00265632 0.00378896 0.00062265 0.00818017 0.00048163 0.00210950 0.00128935 
0.07489609 0.02823779 0.00705988 0.00263404 0.00143489 0.00316425 0.01144741 0.00477399 0.03650756 0.00258235 0.00375268 0.00062711 0.00780285 0.00047133 0.00205871 0.00129242 
0.07735271 0.02835810 0.00722299 0.00256981 0.00143124 0.00304062 0.01134229 0.00474040 0.03672022 0.00250758 0.00371491 0.00063233 0.00742730 0.00046147 0.00200565 0.00129538 
0.07975758 0.02845542 0.00739514 0.00250495 0.00142750 0.00292035 0.01122802 0.00470620 0.03691309 0.00243233 0.00367579 0.00063825 0.00705470 0.00045209 0.00195051 0.00129823 
0.08210319 0.02853003 0.00757566 0.00243971 0.00142365 0.00280375 0.01110501 0.00467130 0.03708469 0.00235690 0.00363545 0.00064478 0.00668623 0.00044319 0.00189348 0.00130094 
0.08438213 0.02858231 0.00776382 0.00237437 0.00141969 0.00269114 0.01097375 0.00463560 0.03723363 0.00228160 0.00359406 0.00065184 0.00632303 0.00043476 0.00183477 0.00130353 
0.08658716 0.02861273 0.00795887 0.00230922 0.00141561 0.00258278 0.01083469 0.00459902 0.03735862 0.00220676 0.00355173 0.00065934 0.00596621 0.00042683 0.00177459 0.00130599 
0.08871126 0.02862183 0.00816001 0.00224456 0.00141140 0.00247894 0.01068836 0.00456150 0.03745848 0.00213267 0.00350863 0.00066720 0.00561685 0.00041938 0.00171314 0.00130832 
0.09074761 0.02861027 0.00836640 0.00218068 0.00140704 0.00237982 0.01053527 0.00452297 0.03753214 0.00205965 0.00346489 0.00067532 0.00527602 0.00041240 0.00165066 0.00131051 
0.09268965 0.02857877 0.00857721 0.00211790 0.00140252 0.00228563 0.01037595 0.00448340 0.03757867 0.00198798 0.00342064 0.00068362 0.00494470 0.00040589 0.00158736 0.00131256 
0.09453110 0.02852815 0.00879155 0.00205652 0.00139784 0.00219653 0.01021095 0.00444274 0.03759725 0.00191797 0.00337603 0.00069200 0.00462387 0.00039982 0.00152348 0.00131448 
0.09626599 0.02845930 0.00900853 0.00199685 0.00139300 0.00211265 0.01004081 0.00440097 0.03758718 0.00184989 0.00333119 0.00070037 0.00431442 0.00039420 0.00145923 0.00131626 
0.09788868 0.02837318 0.00922725 0.00193923 0.00138797 0.00203411 0.00986610 0.00435810 0.03754791 0.00178400 0.00328625 0.00070866 0.00401723 0.00038898 0.00139485 0.00131790 
0.09939388 0.02827084 0.00944678 0.00188395 0.00138276 0.00196097 0.00968736 0.00431411 0.03747899 0.00172058 0.00324133 0.00071676 0.00373309 0.00038415 0.00133057 0.00131940 
0.10077670 0.02815336 0.00966620 0.00183136 0.00137736 0.00189329 0.00950514 0.00426904 0.03738013 0.00165986 0.00319656 0.00072459 0.00346275 0.00037969 0.00126662 0.00132078 
0.10203263 0.02802192 0.00988459 0.00178175 0.00137177 0.00183108 0.00931998 0.00422291 0.03725118 0.00160207 0.00315205 0.00073208 0.00320689 0.00037556 0.00120320 0.00132201 
0.10315757 0.02787773 0.01010103 0.00173544 0.00136598 0.00177433 0.00913242 0.00417576 0.03709210 0.00154742 0.00310792 0.00073913 0.00296613 0.00037173 0.00114056 0.00132312 
0.10414790 0.02772206 0.01031460 0.00169275 0.00135999 0.00172302 0.00894297 0.00412764 0.03690300 0.00149612 0.00306428 0.00074568 0.00274102 0.00036817 0.00107890 0.00132410 
0.10500041 0.02755622 0.01052441 0.00165398 0.00135381 0.00167708 0.00875215 0.00407863 0.03668411 0.00144834 0.00302123 0.00075166 0.00253205 0.00036485 0.00101843 0.00132495 
0.10571238 0.02738156 0.01072957 0.00161941 0.00134744 0.00163641 0.00856045 0.00402879 0.03643581 0.00140425 0.00297886 0.00075700 0.00233963 0.00036174 0.00095935 0.00132568 
0.10628155 0.02719944 0.01092922 0.00158935 0.00134087 0.00160091 0.00836834 0.00397821 0.03615860 0.00136398 0.00293728 0.00076163 0.00216410 0.00035880 0.00090187 0.00132630 
0.10670618 0.02701127 0.01112251 0.00156406 0.00133412 0.00157046 0.00817629 0.00392698 0.03585309 0.00132767 0.00289656 0.00076550 0.00200575 0.00035599 0.00084617 0.00132679 
0.10698499 0.02681847 0.01130863 0.00154380 0.00132718 0.00154488 0.00798472 0.00387522 0.03552003 0.00129541 0.00285679 0.00076856 0.00186477 0.00035328 0.00079244 0.00132718 
0.10711724 0.02662244 0.01148681 0.00152883 0.00132007 0.00152401 0.00779407 0.00382303 0.03516030 0.00126729 0.00281805 0.00077076 0.00174130 0.00035065 0.00074083 0.00132746 
0.10710266 0.02642463 0.01165628 0.00151939 0.00131280 0.00150765 0.00760472 0.00377053 0.03477486 0.00124337 0.00278039 0.00077208 0.00163538 0.00034806 0.00069152 0.00132763 
0.10694153 0.02622644 0.01181634 0.00151568 0.00130537 0.00149560 0.00741705 0.00371785 0.03436479 0.00122369 0.00274390 0.00077248 0.00154702 0.00034547 0.00064465 0.00132770 
0.10663460 0.02602928 0.01196633 0.00151792 0.00129780 0.00148764 0.00723144 0.00366511 0.03393130 0.00120828 0.00270861 0.00077193 0.00147614 0.00034287 0.00060037 0.00132768 
0.10618315 0.02583451 0.01210561 0.00152627 0.00129010 0.00148352 0.00704820 0.00361246 0.03347566 0.00119715 0.00267460 0.00077043 0.00142257 0.00034022 0.00055879 0.00132757 
0.10558898 0.02564349 0.01223361 0.00154090 0.00128228 0.00148301 0.00686766 0.00356003 0.03299924 0.00119026 0.00264190 0.00076795 0.00138611 0.00033751 0.00052004 0.00132736 
0.10485434 0.02545753 0.01234978 0.00156195 0.00127437 0.00148585 0.00669013 0.00350795 0.03250351 0.00118759 0.00261056 0.00076451 0.00136647 0.00033472 0.00048422 0.00132707 
0.10398203 0.02527788 0.01245366 0.00158952 0.00126637 0.00149178 0.00651588 0.00345639 0.03199000 0.00118909 0.00258061 0.00076011 0.00136330 0.00033182 0.00045141 0.00132671 
0.10297527 0.02510575 0.01254481 0.00162371 0.00125831 0.00150053 0.00634518 0.00340548 0.03146030 0.00119467 0.00255209 0.00075476 0.00137620 0.00032882 0.00042171 0.00132626 
0.10183781 0.02494229 0.01262284 0.00166457 0.00125020 0.00151183 0.00617829 0.00335535 0.03091609 0.00120425 0.00252501 0.00074849 0.00140470 0.00032569 0.00039516 0.00132574 
0.10057380 0.02478856 0.01268744 0.00171214 0.00124207 0.00152542 0.00601545 0.00330617 0.03035908 0.00121772 0.00249941 0.00074133 0.00144828 0.00032245 0.00037183 0.00132516 
0.09918787 0.02464555 0.01273834 0.00176643 0.00123393 0.00154102 0.00585688 0.00325806 0.02979102 0.00123495 0.00247530 0.00073330 0.00150637 0.00031908 0.00035176 0.00132450 
0.09768506 0.02451419 0.01277533 0.00182742 0.00122580 0.00155837 0.00570280 0.00321117 0.02921373 0.00125581 0.00245268 0.00072447 0.00157834 0.00031560 0.00033496 0.00132379 
0.09607081 0.02439528 0.01279826 0.00189505 0.00121772 0.00157721 0.00555342 0.00316563 0.02862901 0.00128015 0.00243158 0.00071488 0.00166352 0.00031201 0.00032146 0.00132301 
0.09435097 0.02428956 0.01280701 0.00196923 0.00120969 0.00159727 0.00540896 0.00312157 0.02803873 0.00130779 0.00241198 0.00070458 0.00176121 0.00030833 0.00031125 0.00132218 
0.09253172 0.02419764 0.01280156 0.00204986 0.00120174 0.00161832 0.00526960 0.00307912 0.02744473 0.00133857 0.00239389 0.00069365 0.00187066 0.00030458 0.00030432 0.00132129 
0.09061961 0.02412003 0.01278191 0.00213680 0.00119389 0.00164010 0.00513555 0.00303839 0.02684889 0.00137229 0.00237731 0.00068216 0.00199107 0.00030079 0.00030066 0.00132035 
0.08862149 0.02405713 0.01274814 0.00222986 0.00118617 0.00166240 0.00500700 0.00299950 0.02625306 0.00140876 0.00236221 0.00067017 0.00212165 0.00029698 0.00030021 0.00131936 
0.08654453 0.02400923 0.01270037 0.00232884 0.00117860 0.00168498 0.00488415 0.00296256 0.02565909 0.00144777 0.00234860 0.00065778 0.00226154 0.00029319 0.00030294 0.00131833 
0.08439612 0.02397649 0.01263877 0.00243350 0.00117119 0.00170765 0.00476720 0.00292766 0.02506881 0.00148910 0.00233644 0.00064507 0.00240988 0.00028946 0.00030879 0.00131725 
0.08218394 0.02395894 0.01256358 0.00254357 0.00116398 0.00173021 0.00465635 0.00289488 0.02448401 0.00153255 0.00232572 0.00063214 0.00256580 0.00028583 0.00031768 0.00131613 
0.07991585 0.02395651 0.01247508 0.00265877 0.00115697 0.00175248 0.00455180 0.00286433 0.02390646 0.00157788 0.00231642 0.00061907 0.00272841 0.00028235 0.00032954 0.00131497 
0.07759990 0.02396899 0.01237360 0.00277874 0.00115020 0.00177430 0.00445378 0.00283605 0.02333789 0.00162487 0.00230849 0.00060598 0.00289679 0.00027907 0.00034427 0.00131377 
0.07524429 0.02399604 0.01225950 0.00290315 0.00114368 0.00179552 0.00436249 0.00281013 0.02277997 0.00167329 0.00230192 0.00059295 0.00307005 0.00027605 0.00036178 0.00131254 
0.07285734 0.02403720 0.01213322 0.00303161 0.00113743 0.00181601 0.00427816 0.00278660 0.02223432 0.00172291 0.00229667 0.00058011 0.00324727 0.00027334 0.00038195 0.00131127 
0.07044746 0.02409190 0.01199522 0.00316370 0.00113147 0.00183564 0.00420102 0.00276552 0.02170250 0.00177350 0.00229269 0.00056754 0.00342755 0.00027100 0.00040468 0.00130997 
0.06802311 0.02415944 0.01184599 0.00329899 0.00112581 0.00185433 0.00413131 0.00274692 0.02118600 0.00182483 0.00228994 0.00055537 0.00361000 0.00026910 0.00042983 0.00130863 
0.06559281 0.02423898 0.01168608 0.00343702 0.00112047 0.00187199 0.00406927 0.00273083 0.02068625 0.00187668 0.00228838 0.00054370 0.00379373 0.00026771 0.00045727 0.00130727 
0.06316503 0.02432962 0.01151607 0.00357730 0.00111547 0.00188855 0.00401515 0.00271724 0.02020459 0.00192881 0.00228797 0.00053265 0.00397787 0.00026688 0.00048687 0.00130587 
0.06074822 0.02443030 0.01133655 0.00371935 0.00111082 0.00190396 0.00396921 0.00270617 0.01974229 0.00198102 0.00228864 0.00052231 0.00416157 0.00026669 0.00051848 0.00130445 
0.05835077 0.02453989 0.01114816 0.00386262 0.00110652 0.00191819 0.00393171 0.00269762 0.01930052 0.00203309 0.00229034 0.00051279 0.00434401 0.00026721 0.00055196 0.00130301 
0.05598095 0.02465716 0.01095156 0.00400660 0.00110259 0.00193122 0.00390291 0.00269155 0.01888038 0.00208481 0.00229302 0.00050422 0.00452438 0.00026851 0.00058714 0.00130154 
0.05364691 0.02478079 0.01074744 0.00415073 0.00109905 0.00194304 0.00388307 0.00268795 0.01848286 0.00213598 0.00229662 0.00049667 0.00470192 0.00027064 0.00062387 0.00130005 
0.05135661 0.02490938 0.01053648 0.00429446 0.00109589 0.00195367 0.00387245 0.00268678 0.01810887 0.00218640 0.00230107 0.00049027 0.00487590 0.00027369 0.00066199 0.00129854 
0.04911785 0.02504148 0.01031941 0.00443720 0.00109312 0.00196313 0.00387132 0.00268800 0.01775922 0.00223589 0.00230632 0.00048510 0.00504560 0.00027771 0.00070133 0.00129701 
0.04693818 0.02517555 0.01009695 0.00457840 0.00109074 0.00197146 0.00387994 0.00269153 0.01743462 0.00228428 0.00231229 0.00048126 0.00521037 0.00028276 0.00074174 0.00129546 
0.04482488 0.02531005 0.00986984 0.00471747 0.00108877 0.00197871 0.00389854 0.00269733 0.01713568 0.00233139 0.00231892 0.00047884 0.00536959 0.00028891 0.00078304 0.00129390 
0.04278498 0.02544336 0.00963882 0.00485384 0.00108719 0.00198494 0.00392738 0.00270532 0.01686292 0.00237707 0.00232614 0.00047793 0.00552268 0.00029620 0.00082506 0.00129232 
0.04082517 0.02557387 0.00940463 0.00498693 0.00108601 0.00199021 0.00396667 0.00271542 0.01661674 0.00242117 0.00233387 0.00047859 0.00566911 0.00030469 0.00086764 0.00129073 
0.03895182 0.02569995 0.00916802 0.00511617 0.00108523 0.00199460 0.00401664 0.00272754 0.01639747 0.00246356 0.00234205 0.00048092 0.00580840 0.00031443 0.00091062 0.00128913 
0.03717090 0.02581996 0.00892971 0.00524101 0.00108484 0.00199821 0.00407746 0.00274158 0.01620531 0.00250410 0.00235060 0.00048498 0.00594011 0.00032546 0.00095382 0.00128753 
0.03548804 0.02593229 0.00869044 0.00536090 0.00108483 0.00200113 0.00414932 0.00275744 0.01604038 0.00254268 0.00235945 0.00049082 0.00606386 0.00033780 0.00099709 0.00128592 
0.03390843 0.02603537 0.00845094 0.00547531 0.00108521 0.00200345 0.00423236 0.00277502 0.01590271 0.00257919 0.00236852 0.00049851 0.00617930 0.00035149 0.00104027 0.00128431 
0.03243683 0.02612765 0.00821189 0.00558372 0.00108595 0.00200527 0.00432670 0.00279419 0.01579220 0.00261354 0.00237774 0.00050810 0.00628616 0.00036656 0.00108319 0.00128269 
0.03107754 0.02620765 0.00797399 0.00568564 0.00108706 0.00200671 0.00443243 0.00281485 0.01570870 0.00264565 0.00238703 0.00051962 0.00638421 0.00038300 0.00112571 0.00128109 
0.02983442 0.02627397 0.00773791 0.00578061 0.00108851 0.00200787 0.00454961 0.00283686 0.01565195 0.00267544 0.00239632 0.00053311 0.00647325 0.00040084 0.00116768 0.00127948 
0.02871083 0.02632527 0.00750429 0.00586818 0.00109030 0.00200886 0.00467826 0.00286009 0.01562161 0.00270286 0.00240554 0.00054860 0.00655318 0.00042006 0.00120895 0.00127789 
0.02770961 0.02636034 0.00727375 0.00594793 0.00109240 0.00200979 0.00481835 0.00288443 0.01561723 0.00272784 0.00241461 0.00056611 0.00662390 0.00044066 0.00124939 0.00127631 
0.02683312 0.02637804 0.00704690 0.00601950 0.00109482 0.00201076 0.00496982 0.00290973 0.01563832 0.00275035 0.00242346 0.00058565 0.00668538 0.00046261 0.00128886 0.00127474 
0.02608320 0.02637737 0.00682428 0.00608253 0.00109751 0.00201188 0.00513258 0.00293587 0.01568429 0.00277036 0.00243203 0.00060723 0.00673766 0.00048590 0.00132725 0.00127319 
0.02546114 0.02635748 0.00660644 0.00613672 0.00110048 0.00201325 0.00530646 0.00296270 0.01575447 0.00278784 0.00244025 0.00063085 0.00678080 0.00051048 0.00136443 0.00127167 
0.02496770 0.02631764 0.00639387 0.00618179 0.00110370 0.00201496 0.00549126 0.00299009 0.01584815 0.00280279 0.00244805 0.00065650 0.00681491 0.00053631 0.00140029 0.00127017 
0.02460314 0.02625727 0.00618704 0.00621752 0.00110715 0.00201712 0.00568675 0.00301790 0.01596453 0.00281520 0.00245537 0.00068417 0.00684015 0.00056334 0.00143473 0.00126870 
0.02436713 0.02617596 0.00598639 0.00624372 0.00111081 0.00201979 0.00589260 0.00304600 0.01610275 0.00282507 0.00246215 0.00071383 0.00685674 0.00059150 0.00146766 0.00126727 
0.02425883 0.02607348 0.00579230 0.00626025 0.00111466 0.00202307 0.00610848 0.00307426 0.01626191 0.00283242 0.00246834 0.00074546 0.00686490 0.00062071 0.00149899 0.00126587 
0.02427689 0.02594975 0.00560512 0.00626701 0.00111867 0.00202702 0.00633396 0.00310254 0.01644106 0.00283728 0.00247388 0.00077903 0.00686492 0.00065091 0.00152865 0.00126452 
0.02441939 0.02580488 0.00542518 0.00626396 0.00112282 0.00203171 0.00656859 0.00313073 0.01663919 0.00283967 0.00247873 0.00081450 0.00685712 0.00068200 0.00155657 0.00126321 
0.02468392 0.02563919 0.00525276 0.00625109 0.00112709 0.00203718 0.00681186 0.00315868 0.01685526 0.00283962 0.00248285 0.00085182 0.00684185 0.00071388 0.00158268 0.00126195 
0.02506756 0.02545314 0.00508808 0.00622844 0.00113146 0.00204348 0.00706320 0.00318629 0.01708819 0.00283719 0.00248620 0.00089096 0.00681948 0.00074645 0.00160695 0.00126075 
0.02556688 0.02524742 0.00493136 0.00619612 0.00113589 0.00205065 0.00732198 0.00321344 0.01733687 0.00283242 0.00248874 0.00093186 0.00679042 0.00077960 0.00162934 0.00125961 
0.02617798 0.02502288 0.00478274 0.00615425 0.00114037 0.00205871 0.00758753 0.00324002 0.01760017 0.00282538 0.00249045 0.00097446 0.00675510 0.00081321 0.00164981 0.00125853 
0.02689650 0.02478058 0.00464235 0.00610302 0.00114486 0.00206768 0.00785914 0.00326592 0.01787692 0.00281611 0.00249130 0.00101872 0.00671397 0.00084716 0.00166834 0.00125751 
0.02771763 0.02452175 0.00451029 0.00604267 0.00114935 0.00207757 0.00813604 0.00329106 0.01816596 0.00280470 0.00249128 0.00106457 0.00666748 0.00088132 0.00168494 0.00125657 
0.02863615 0.02424781 0.00438658 0.00597348 0.00115381 0.00208836 0.00841742 0.00331535 0.01846609 0.00279121 0.00249036 0.00111195 0.00661613 0.00091556 0.00169960 0.00125570 
0.02964641 0.02396034 0.00427125 0.00589577 0.00115821 0.00210005 0.00870241 0.00333870 0.01877612 0.00277572 0.00248856 0.00116080 0.00656040 0.00094974 0.00171234 0.00125491 
0.03074242 0.02366110 0.00416426 0.00580990 0.00116254 0.00211261 0.00899014 0.00336105 0.01909485 0.00275832 0.00248587 0.00121107 0.00650078 0.00098372 0.00172316 0.00125421 
0.03191783 0.02335201 0.00406557 0.00571629 0.00116675 0.00212601 0.00927967 0.00338233 0.01942108 0.00273908 0.00248228 0.00126269 0.00643778 0.00101736 0.00173212 0.00125359 
0.03316596 0.02303513 0.00397509 0.00561538 0.00117084 0.00214020 0.00957004 0.00340248 0.01975362 0.00271811 0.00247783 0.00131560 0.00637190 0.00105051 0.00173925 0.00125306 
0.03447986 0.02271266 0.00389271 0.00550765 0.00117478 0.00215514 0.00986028 0.00342147 0.02009127 0.00269548 0.00247251 0.00136976 0.00630364 0.00108303 0.00174459 0.00125263 
0.03585229 0.02238694 0.00381826 0.00539361 0.00117854 0.00217076 0.01014938 0.00343926 0.02043287 0.00267131 0.00246636 0.00142511 0.00623348 0.00111478 0.00174822 0.00125229 
0.03727584 0.02206039 0.00375160 0.00527382 0.00118210 0.00218701 0.01043631 0.00345583 0.02077725 0.00264569 0.00245941 0.00148160 0.00616191 0.00114561 0.00175019 0.00125205 
0.03874285 0.02173556 0.00369253 0.00514885 0.00118544 0.00220379 0.01072005 0.00347116 0.02112327 0.00261872 0.00245168 0.00153919 0.00608941 0.00117540 0.00175059 0.00125192 
0.04024554 0.02141507 0.00364083 0.00501930 0.00118855 0.00222103 0.01099955 0.00348524 0.02146979 0.00259051 0.00244322 0.00159784 0.00601642 0.00120399 0.00174951 0.00125189 
0.04177600 0.02110160 0.00359628 0.00488579 0.00119139 0.00223866 0.01127378 0.00349809 0.02181572 0.00256117 0.00243408 0.00165751 0.00594339 0.00123125 0.00174702 0.00125196 
0.04332624 0.02079787 0.00355863 0.00474896 0.00119396 0.00225656 0.01154170 0.00350972 0.02215998 0.00253081 0.00242430 0.00171818 0.00587073 0.00125707 0.00174325 0.00125215 
0.04488821 0.02050667 0.00352763 0.00460947 0.00119622 0.00227465 0.01180229 0.00352016 0.02250151 0.00249954 0.00241394 0.00177984 0.00579885 0.00128132 0.00173829 0.00125244 
0.04645387 0.02023075 0.00350300 0.00446799 0.00119818 0.00229283 0.01205455 0.00352945 0.02283930 0.00246748 0.00240305 0.00184246 0.00572812 0.00130388 0.00173225 0.00125285 
0.04801519 0.01997289 0.00348447 0.00432518 0.00119981 0.00231099 0.01229750 0.00353763 0.02317234 0.00243473 0.00239171 0.00190606 0.00565889 0.00132466 0.00172527 0.00125336 
0.04956423 0.01973583 0.00347176 0.00418172 0.00120109 0.00232903 0.01253018 0.00354476 0.02349967 0.00240143 0.00237997 0.00197063 0.00559148 0.00134354 0.00171745 0.00125399 
0.05109311 0.01952226 0.00346459 0.00403828 0.00120202 0.00234685 0.01275169 0.00355091 0.02382037 0.00236768 0.00236791 0.00203619 0.00552617 0.00136045 0.00170894 0.00125473 
0.05259414 0.01933482 0.00346268 0.00389554 0.00120259 0.00236433 0.01296114 0.00355614 0.02413354 0.00233362 0.00235561 0.00210277 0.00546325 0.00137531 0.00169986 0.00125559 
0.05405977 0.01917605 0.00346575 0.00375416 0.00120277 0.00238138 0.01315772 0.00356054 0.02443831 0.00229935 0.00234312 0.00217040 0.00540293 0.00138804 0.00169035 0.00125655 
0.05548267 0.01904841 0.00347352 0.00361478 0.00120257 0.00239789 0.01334063 0.00356419 0.02473386 0.00226500 0.00233055 0.00223914 0.00534542 0.00139860 0.00168055 0.00125762 
0.05685576 0.01895421 0.00348573 0.00347805 0.00120198 0.00241375 0.01350917 0.00356720 0.02501940 0.00223069 0.00231796 0.00230903 0.00529090 0.00140693 0.00167061 0.00125879 
0.05817225 0.01889565 0.00350212 0.00334457 0.00120098 0.00242887 0.01366269 0.00356966 0.02529416 0.00219655 0.00230543 0.00238016 0.00523949 0.00141302 0.00166066 0.00126007 
0.05942563 0.01887475 0.00352245 0.00321493 0.00119958 0.00244314 0.01380059 0.00357167 0.02555743 0.00216270 0.00229304 0.00245260 0.00519132 0.00141683 0.00165085 0.00126146 
0.06060977 0.01889337 0.00354649 0.00308970 0.00119778 0.00245649 0.01392236 0.00357335 0.02580851 0.00212925 0.00228089 0.00252644 0.00514645 0.00141837 0.00164131 0.00126294 
0.06171889 0.01895320 0.00357402 0.00296942 0.00119556 0.00246883 0.01402756 0.00357481 0.02604678 0.00209633 0.00226904 0.00260179 0.00510493 0.00141763 0.00163220 0.00126451 
0.06274760 0.01905570 0.00360485 0.00285458 0.00119294 0.00248007 0.01411582 0.00357617 0.02627160 0.00206405 0.00225758 0.00267876 0.00506678 0.00141465 0.00162365 0.00126618 
0.06369096 0.01920212 0.00363879 0.00274565 0.00118991 0.00249013 0.01418687 0.00357753 0.02648242 0.00203254 0.00224659 0.00275749 0.00503198 0.00140946 0.00161581 0.00126793 
0.06454447 0.01939350 0.00367569 0.00264306 0.00118647 0.00249896 0.01424051 0.00357901 0.02667869 0.00200191 0.00223615 0.00283810 0.00500050 0.00140209 0.00160879 0.00126976 
0.06530408 0.01963064 0.00371540 0.00254720 0.00118264 0.00250649 0.01427663 0.00358074 0.02685990 0.00197227 0.00222633 0.00292076 0.00497228 0.00139263 0.00160274 0.00127166 
0.06596624 0.01991408 0.00375782 0.00245840 0.00117841 0.00251268 0.01429522 0.00358281 0.02702561 0.00194374 0.00221720 0.00300561 0.00494721 0.00138113 0.00159779 0.00127364 
0.06652792 0.02024411 0.00380284 0.00237698 0.00117380 0.00251746 0.01429634 0.00358534 0.02717539 0.00191642 0.00220884 0.00309282 0.00492519 0.00136769 0.00159404 0.00127568 
0.06698659 0.02062078 0.00385039 0.00230318 0.00116881 0.00252082 0.01428014 0.00358843 0.02730884 0.00189042 0.00220132 0.00318259 0.00490608 0.00135241 0.00159163 0.00127777 
0.06734026 0.02104385 0.00390041 0.00223722 0.00116346 0.00252272 0.01424689 0.00359219 0.02742563 0.00186583 0.00219469 0.00327509 0.00488974 0.00133539 0.00159065 0.00127991 
0.06758746 0.02151283 0.00395289 0.00217924 0.00115775 0.00252314 0.01419691 0.00359670 0.02752544 0.00184275 0.00218901 0.00337052 0.00487599 0.00131676 0.00159122 0.00128210 
0.06772728 0.02202696 0.00400780 0.00212937 0.00115170 0.00252207 0.01413063 0.00360206 0.02760801 0.00182127 0.00218435 0.00346909 0.00486464 0.00129666 0.00159342 0.00128432 
0.06775936 0.02258522 0.00406517 0.00208766 0.00114533 0.00251952 0.01404856 0.00360833 0.02767311 0.00180149 0.00218075 0.00357101 0.00485550 0.00127522 0.00159735 0.00128656 
0.06768389 0.02318631 0.00412501 0.00205413 0.00113864 0.00251548 0.01395130 0.00361558 0.02772054 0.00178347 0.00217825 0.00367649 0.00484836 0.00125260 0.00160307 0.00128883 
0.06750159 0.02382869 0.00418739 0.00202873 0.00113166 0.00250998 0.01383952 0.00362388 0.02775018 0.00176728 0.00217691 0.00378576 0.00484300 0.00122897 0.00161067 0.00129110 
0.06721373 0.02451056 0.00425237 0.00201140 0.00112441 0.00250304 0.01371397 0.00363326 0.02776191 0.00175301 0.00217675 0.00389904 0.00483920 0.00120448 0.00162019 0.00129338 
0.06682211 0.02522986 0.00432003 0.00200198 0.00111689 0.00249469 0.01357548 0.00364376 0.02775567 0.00174070 0.00217780 0.00401656 0.00483674 0.00117931 0.00163169 0.00129566 
0.06632907 0.02598433 0.00439048 0.00200031 0.00110914 0.00248498 0.01342494 0.00365540 0.02773146 0.00173040 0.00218009 0.00413856 0.00483539 0.00115365 0.00164521 0.00129792 
0.06573743 0.02677145 0.00446381 0.00200616 0.00110117 0.00247395 0.01326333 0.00366819 0.02768930 0.00172217 0.00218364 0.00426526 0.00483492 0.00112768 0.00166078 0.00130016 
0.06505053 0.02758851 0.00454015 0.00201927 0.00109301 0.00246166 0.01309165 0.00368212 0.02762928 0.00171602 0.00218846 0.00439690 0.00483511 0.00110158 0.00167841 0.00130237 
0.06427215 0.02843259 0.00461964 0.00203934 0.00108467 0.00244817 0.01291097 0.00369718 0.02755151 0.00171200 0.00219456 0.00453371 0.00483573 0.00107555 0.00169812 0.00130454 
0.06340657 0.02930059 0.00470239 0.00206600 0.00107619 0.00243355 0.01272243 0.00371333 0.02745617 0.00171012 0.00220193 0.00467591 0.00483658 0.00104977 0.00171990 0.00130666 
0.06245846 0.03018925 0.00478854 0.00209890 0.00106758 0.00241788 0.01252718 0.00373052 0.02734349 0.00171038 0.00221058 0.00482372 0.00483744 0.00102444 0.00174373 0.00130873 
0.06143292 0.03109516 0.00487823 0.00213761 0.00105886 0.00240123 0.01232642 0.00374868 0.02721373 0.00171278 0.00222049 0.00497736 0.00483814 0.00099975 0.00176960 0.00131075 
0.06033542 0.03201476 0.00497160 0.00218169 0.00105007 0.00238369 0.01212137 0.00376775 0.02706722 0.00171732 0.00223165 0.00513705 0.00483847 0.00097588 0.00179746 0.00131269 
0.05917176 0.03294442 0.00506877 0.00223066 0.00104122 0.00236535 0.01191329 0.00378763 0.02690432 0.00172396 0.00224404 0.00530298 0.00483828 0.00095301 0.00182727 0.00131456 
0.05794810 0.03388038 0.00516986 0.00228404 0.00103235 0.00234631 0.01170343 0.00380821 0.02672547 0.00173269 0.00225763 0.00547534 0.00483741 0.00093133 0.00185896 0.00131635 
0.05667084 0.03481883 0.00527499 0.00234130 0.00102347 0.00232665 0.01149306 0.00382938 0.02653113 0.00174345 0.00227238 0.00565431 0.00483572 0.00091100 0.00189247 0.00131805 
0.05534666 0.03575592 0.00538424 0.00240192 0.00101461 0.00230648 0.01128344 0.00385101 0.02632182 0.00175620 0.00228827 0.00584006 0.00483307 0.00089219 0.00192773 0.00131966 
0.05398244 0.03668777 0.00549770 0.00246534 0.00100580 0.00228589 0.01107583 0.00387295 0.02609812 0.00177088 0.00230525 0.00603274 0.00482937 0.00087506 0.00196463 0.00132118 
0.05258525 0.03761048 0.00561544 0.00253100 0.00099706 0.00226499 0.01087149 0.00389504 0.02586064 0.00178741 0.00232327 0.00623249 0.00482452 0.00085975 0.00200309 0.00132259 
0.05116229 0.03852018 0.00573749 0.00259836 0.00098841 0.00224387 0.01067162 0.00391714 0.02561005 0.00180572 0.00234228 0.00643943 0.00481846 0.00084640 0.00204299 0.00132390 
0.04972086 0.03941305 0.00586388 0.00266683 0.00097988 0.00222264 0.01047743 0.00393905 0.02534707 0.00182572 0.00236223 0.00665366 0.00481112 0.00083513 0.00208422 0.00132510 
0.04826834 0.04028532 0.00599460 0.00273585 0.00097149 0.00220139 0.01029006 0.00396061 0.02507244 0.00184732 0.00238306 0.00687526 0.00480246 0.00082607 0.00212665 0.00132619 
0.04681213 0.04113332 0.00612961 0.00280487 0.00096327 0.00218022 0.01011063 0.00398162 0.02478698 0.00187040 0.00240471 0.00710431 0.00479247 0.00081931 0.00217014 0.00132716 
0.04535963 0.04195346 0.00626885 0.00287333 0.00095523 0.00215923 0.00994020 0.00400190 0.02449151 0.00189486 0.00242711 0.00734083 0.00478115 0.00081495 0.00221456 0.00132803 
0.04391815 0.04274230 0.00641223 0.00294069 0.00094740 0.00213850 0.00977978 0.00402124 0.02418692 0.00192057 0.00245019 0.00758485 0.00476850 0.00081305 0.00225977 0.00132877 
0.04249496 0.04349652 0.00655962 0.00300642 0.00093980 0.00211813 0.00963031 0.00403946 0.02387410 0.00194741 0.00247389 0.00783635 0.00475456 0.00081368 0.00230559 0.00132941 
0.04109718 0.04421299 0.00671086 0.00307003 0.00093245 0.00209820 0.00949269 0.00405635 0.02355401 0.00197525 0.00249813 0.00809531 0.00473937 0.00081689 0.00235189 0.00132993 
0.03973176 0.04488873 0.00686575 0.00313103 0.00092536 0.00207880 0.00936770 0.00407172 0.02322759 0.00200395 0.00252284 0.00836167 0.00472299 0.00082270 0.00239848 0.00133033 
0.03840547 0.04552099 0.00702406 0.00318895 0.00091856 0.00206000 0.00925609 0.00408537 0.02289584 0.00203336 0.00254793 0.00863535 0.00470550 0.00083114 0.00244522 0.00133063 
0.03712484 0.04610722 0.00718554 0.00324337 0.00091205 0.00204187 0.00915851 0.00409712 0.02255977 0.00206334 0.00257335 0.00891623 0.00468698 0.00084220 0.00249191 0.00133081 
0.03589613 0.04664506 0.00734986 0.00329389 0.00090587 0.00202448 0.00907553 0.00410680 0.02222038 0.00209375 0.00259899 0.00920416 0.00466752 0.00085587 0.00253841 0.00133090 
0.03472530 0.04713245 0.00751669 0.00334013 0.00090001 0.00200788 0.00900761 0.00411422 0.02187872 0.00212443 0.00262480 0.00949900 0.00464724 0.00087212 0.00258452 0.00133088 
0.03361800 0.04756753 0.00768567 0.00338176 0.00089450 0.00199214 0.00895517 0.00411924 0.02153580 0.00215523 0.00265068 0.00980052 0.00462624 0.00089090 0.00263007 0.00133076 
0.03257950 0.04794871 0.00785636 0.00341849 0.00088933 0.00197731 0.00891849 0.00412169 0.02119266 0.00218600 0.00267656 0.01010852 0.00460465 0.00091216 0.00267490 0.00133055 
0.03161472 0.04827468 0.00802834 0.00345005 0.00088453 0.00196342 0.00889778 0.00412146 0.02085031 0.00221658 0.00270237 0.01042272 0.00458260 0.00093582 0.00271882 0.00133026 
0.03072813 0.04854438 0.00820113 0.00347622 0.00088011 0.00195051 0.00889315 0.00411842 0.02050977 0.00224684 0.00272802 0.01074284 0.00456021 0.00096180 0.00276166 0.00132989 
0.02992381 0.04875703 0.00837421 0.00349684 0.00087605 0.00193862 0.00890462 0.00411248 0.02017204 0.00227661 0.00275344 0.01106856 0.00453762 0.00098999 0.00280326 0.00132944 
0.02920537 0.04891214 0.00854705 0.00351175 0.00087238 0.00192776 0.00893211 0.00410355 0.01983807 0.00230576 0.00277856 0.01139955 0.00451497 0.00102028 0.00284344 0.00132893 
0.02857598 0.04900948 0.00871908 0.00352088 0.00086910 0.00191797 0.00897545 0.00409159 0.01950880 0.00233414 0.00280330 0.01173541 0.00449238 0.00105254 0.00288205 0.00132836 
0.02803831 0.04904911 0.00888972 0.00352416 0.00086620 0.00190923 0.00903438 0.00407656 0.01918515 0.00236163 0.00282758 0.01207575 0.00446999 0.00108664 0.00291893 0.00132774 
0.02759455 0.04903135 0.00905834 0.00352159 0.00086369 0.00190158 0.00910853 0.00405844 0.01886799 0.00238809 0.00285135 0.01242013 0.00444794 0.00112242 0.00295393 0.00132707 
0.02724637 0.04895681 0.00922433 0.00351320 0.00086157 0.00189499 0.00919748 0.00403725 0.01855812 0.00241339 0.00287452 0.01276809 0.00442634 0.00115974 0.00298689 0.00132636 
0.02699497 0.04882633 0.00938703 0.00349908 0.00085982 0.00188948 0.00930068 0.00401304 0.01825634 0.00243743 0.00289705 0.01311915 0.00440532 0.00119842 0.00301770 0.00132563 
0.02684100 0.04864106 0.00954578 0.00347933 0.00085845 0.00188502 0.00941752 0.00398587 0.01796335 0.00246010 0.00291886 0.01347280 0.00438499 0.00123829 0.00304621 0.00132488 
0.02678464 0.04840234 0.00969992 0.00345413 0.00085746 0.00188160 0.00954732 0.00395584 0.01767983 0.00248130 0.00293989 0.01382850 0.00436545 0.00127917 0.00307231 0.00132412 
0.02682552 0.04811178 0.00984877 0.00342366 0.00085682 0.00187919 0.00968930 0.00392307 0.01740638 0.00250093 0.00296008 0.01418570 0.00434680 0.00132088 0.00309588 0.00132335 
0.02696278 0.04777120 0.00999166 0.00338816 0.00085653 0.00187778 0.00984264 0.00388773 0.01714352 0.00251893 0.00297939 0.01454381 0.00432912 0.00136322 0.00311682 0.00132259 
0.02719507 0.04738266 0.01012792 0.00334790 0.00085659 0.00187732 0.01000642 0.00384999 0.01689174 0.00253522 0.00299776 0.01490225 0.00431250 0.00140600 0.00313505 0.00132185 
0.02752053 0.04694837 0.01025688 0.00330319 0.00085697 0.00187779 0.01017969 0.00381008 0.01665143 0.00254973 0.00301514 0.01526039 0.00429698 0.00144903 0.00315047 0.00132112 
0.02793685 0.04647078 0.01037788 0.00325436 0.00085766 0.00187914 0.01036143 0.00376822 0.01642292 0.00256244 0.00303148 0.01561762 0.00428264 0.00149212 0.00316303 0.00132042 
0.02844123 0.04595247 0.01049030 0.00320178 0.00085864 0.00188132 0.01055058 0.00372470 0.01620645 0.00257329 0.00304675 0.01597329 0.00426949 0.00153505 0.00317266 0.00131976 
0.02903044 0.04539617 0.01059351 0.00314584 0.00085990 0.00188430 0.01074602 0.00367981 0.01600221 0.00258226 0.00306089 0.01632675 0.00425758 0.00157765 0.00317933 0.00131914 
0.02970080 0.04480476 0.01068691 0.00308696 0.00086142 0.00188802 0.01094662 0.00363389 0.01581028 0.00258934 0.00307388 0.01667735 0.00424691 0.00161972 0.00318299 0.00131857 
0.03044825 0.04418124 0.01076995 0.00302558 0.00086318 0.00189242 0.01115119 0.00358729 0.01563070 0.00259453 0.00308568 0.01702443 0.00423749 0.00166108 0.00318363 0.00131805 
0.03126834 0.04352870 0.01084208 0.00296214 0.00086516 0.00189746 0.01135855 0.00354038 0.01546342 0.00259784 0.00309626 0.01736732 0.00422930 0.00170153 0.00318124 0.00131759 
0.03215626 0.04285029 0.01090282 0.00289712 0.00086732 0.00190308 0.01156748 0.00349358 0.01530829 0.00259928 0.00310559 0.01770537 0.00422232 0.00174091 0.00317583 0.00131720 
0.03310685 0.04214926 0.01095170 0.00283101 0.00086966 0.00190921 0.01177675 0.00344730 0.01516513 0.00259888 0.00311363 0.01803792 0.00421651 0.00177904 0.00316741 0.00131688 
0.03411467 0.04142887 0.01098832 0.00276429 0.00087215 0.00191580 0.01198515 0.00340200 0.01503366 0.00259669 0.00312038 0.01836432 0.00421182 0.00181576 0.00315603 0.00131663 
0.03517401 0.04069242 0.01101231 0.00269747 0.00087475 0.00192279 0.01219144 0.00335814 0.01491355 0.00259275 0.00312581 0.01868394 0.00420819 0.00185092 0.00314172 0.00131646 
0.03627891 0.03994322 0.01102336 0.00263103 0.00087745 0.00193011 0.01239441 0.00331621 0.01480438 0.00258713 0.00312989 0.01899615 0.00420555 0.00188437 0.00312455 0.00131636 
0.03742320 0.03918457 0.01102121 0.00256548 0.00088022 0.00193771 0.01259287 0.00327669 0.01470570 0.00257990 0.00313262 0.01930034 0.00420382 0.00191599 0.00310458 0.00131635 
0.03860053 0.03841971 0.01100566 0.00250132 0.00088303 0.00194551 0.01278565 0.00324010 0.01461699 0.00257114 0.00313397 0.01959595 0.00420289 0.00194565 0.00308191 0.00131642 
0.03980442 0.03765188 0.01097658 0.00243902 0.00088586 0.00195346 0.01297161 0.00320695 0.01453767 0.00256092 0.00313394 0.01988239 0.00420267 0.00197323 0.00305662 0.00131657 
0.04102829 0.03688424 0.01093388 0.00237906 0.00088868 0.00196150 0.01314965 0.00317776 0.01446711 0.00254935 0.00313251 0.02015916 0.00420306 0.00199864 0.00302882 0.00131680 
0.04226546 0.03611986 0.01087756 0.00232192 0.00089146 0.00196957 0.01331869 0.00315306 0.01440468 0.00253653 0.00312968 0.02042574 0.00420392 0.00202180 0.00299864 0.00131711 
0.04350925 0.03536174 0.01080768 0.00226803 0.00089417 0.00197760 0.01347773 0.00313338 0.01434965 0.00252255 0.00312544 0.02068167 0.00420515 0.00204263 0.00296621 0.00131750 
0.04475296 0.03461278 0.01072434 0.00221782 0.00089679 0.00198554 0.01362581 0.00311924 0.01430133 0.00250752 0.00311978 0.02092653 0.00420662 0.00206108 0.00293166 0.00131797 
0.04598992 0.03387575 0.01062776 0.00217169 0.00089930 0.00199333 0.01376203 0.00311114 0.01425895 0.00249157 0.00311271 0.02115994 0.00420819 0.00207709 0.00289516 0.00131851 
0.04721354 0.03315329 0.01051818 0.00213004 0.00090166 0.00200092 0.01388554 0.00310961 0.01422176 0.00247481 0.00310421 0.02138154 0.00420973 0.00209064 0.00285685 0.00131912 
0.04841733 0.03244794 0.01039594 0.00209320 0.00090386 0.00200825 0.01399558 0.00311512 0.01418899 0.00245735 0.00309430 0.02159104 0.00421112 0.00210170 0.00281691 0.00131979 
0.04959495 0.03176204 0.01026144 0.00206151 0.00090587 0.00201528 0.01409146 0.00312816 0.01415986 0.00243931 0.00308296 0.02178820 0.00421220 0.00211028 0.00277552 0.00132052 
0.05074021 0.03109783 0.01011515 0.00203526 0.00090767 0.00202194 0.01417254 0.00314918 0.01413362 0.00242082 0.00307021 0.02197283 0.00421286 0.00211638 0.00273286 0.00132131 
0.05184714 0.03045735 0.00995761 0.00201471 0.00090923 0.00202821 0.01423829 0.00317862 0.01410950 0.00240200 0.00305605 0.02214479 0.00421295 0.00212003 0.00268912 0.00132214 
0.05291000 0.02984251 0.00978941 0.00200008 0.00091053 0.00203402 0.01428825 0.00321688 0.01408677 0.00238295 0.00304048 0.02230398 0.00421236 0.00212126 0.00264449 0.00132302 
0.05392330 0.02925504 0.00961124 0.00199158 0.00091157 0.00203936 0.01432205 0.00326434 0.01406473 0.00236380 0.00302352 0.02245039 0.00421096 0.00212012 0.00259919 0.00132393 
0.05488186 0.02869648 0.00942382 0.00198934 0.00091231 0.00204417 0.01433939 0.00332134 0.01404269 0.00234466 0.00300517 0.02258405 0.00420864 0.00211667 0.00255340 0.00132486 
0.05578079 0.02816823 0.00922793 0.00199350 0.00091275 0.00204842 0.01434008 0.00338819 0.01402003 0.00232564 0.00298543 0.02270505 0.00420527 0.00211099 0.00250733 0.00132582 
0.05661558 0.02767151 0.00902444 0.00200412 0.00091286 0.00205208 0.01432401 0.00346516 0.01399614 0.00230684 0.00296434 0.02281355 0.00420077 0.00210315 0.00246121 0.00132678 
0.05738205 0.02720735 0.00881423 0.00202124 0.00091265 0.00205513 0.01429116 0.00355248 0.01397049 0.00228836 0.00294189 0.02290974 0.00419503 0.00209326 0.00241522 0.00132775 
0.05807642 0.02677664 0.00859826 0.00204487 0.00091208 0.00205754 0.01424160 0.00365033 0.01394259 0.00227029 0.00291811 0.02299392 0.00418797 0.00208142 0.00236959 0.00132872 
0.05869531 0.02638008 0.00837753 0.00207497 0.00091117 0.00205930 0.01417548 0.00375885 0.01391202 0.00225271 0.00289302 0.02306641 0.00417952 0.00206775 0.00232451 0.00132967 
0.05923576 0.02601822 0.00815307 0.00211145 0.00090989 0.00206037 0.01409307 0.00387812 0.01387841 0.00223572 0.00286663 0.02312761 0.00416962 0.00205235 0.00228020 0.00133060 
0.05969523 0.02569145 0.00792594 0.00215420 0.00090825 0.00206077 0.01399470 0.00400818 0.01384147 0.00221937 0.00283897 0.02317797 0.00415821 0.00203538 0.00223685 0.00133151 
0.06007167 0.02540001 0.00769727 0.00220306 0.00090624 0.00206046 0.01388078 0.00414902 0.01380098 0.00220373 0.00281007 0.02321798 0.00414526 0.00201696 0.00219466 0.00133237 
0.06036343 0.02514399 0.00746817 0.00225784 0.00090386 0.00205946 0.01375184 0.00430057 0.01375680 0.00218886 0.00277995 0.02324822 0.00413074 0.00199725 0.00215383 0.00133319 
0.06056937 0.02492334 0.00723979 0.00231831 0.00090112 0.00205776 0.01360845 0.00446269 0.01370885 0.00217480 0.00274864 0.02326929 0.00411464 0.00197637 0.00211453 0.00133395 
0.06068879 0.02473790 0.00701330 0.00238422 0.00089800 0.00205536 0.01345129 0.00463522 0.01365715 0.00216158 0.00271618 0.02328185 0.00409696 0.00195450 0.00207696 0.00133466 
0.06072147 0.02458736 0.00678988 0.00245526 0.00089452 0.00205228 0.01328109 0.00481790 0.01360179 0.00214925 0.00268260 0.02328660 0.00407772 0.00193179 0.00204127 0.00133530 
0.06066769 0.02447131 0.00657069 0.00253111 0.00089068 0.00204852 0.01309867 0.00501045 0.01354292 0.00213782 0.00264794 0.02328429 0.00405694 0.00190839 0.00200763 0.00133586 
0.06052815 0.02438923 0.00635690 0.00261142 0.00088650 0.00204410 0.01290490 0.00521252 0.01348080 0.00212730 0.00261224 0.02327569 0.00403467 0.00188447 0.00197619 0.00133635 
0.06030407 0.02434051 0.00614969 0.00269579 0.00088197 0.00203904 0.01270072 0.00542369 0.01341573 0.00211769 0.00257556 0.02326161 0.00401096 0.00186019 0.00194710 0.00133675 
0.05999710 0.02432445 0.00595019 0.00278383 0.00087712 0.00203336 0.01248712 0.00564349 0.01334813 0.00210899 0.00253793 0.02324290 0.00398589 0.00183571 0.00192048 0.00133706 
0.05960934 0.02434025 0.00575952 0.00287511 0.00087195 0.00202709 0.01226516 0.00587142 0.01327844 0.00210118 0.00249940 0.02322041 0.00395954 0.00181118 0.00189646 0.00133727 
0.05914336 0.02438709 0.00557878 0.00296916 0.00086647 0.00202027 0.01203592 0.00610689 0.01320721 0.00209425 0.00246004 0.02319500 0.00393200 0.00178677 0.00187513 0.00133739 
0.05860213 0.02446403 0.00540903 0.00306553 0.00086071 0.00201292 0.01180053 0.00634928 0.01313505 0.00208816 0.00241990 0.02316757 0.00390339 0.00176262 0.00185661 0.00133741 
0.05798906 0.02457013 0.00525128 0.00316373 0.00085468 0.00200509 0.01156015 0.00659791 0.01306259 0.00208288 0.00237905 0.02313900 0.00387383 0.00173890 0.00184096 0.00133732 
0.05730795 0.02470438 0.00510650 0.00326327 0.00084839 0.00199682 0.01131598 0.00685207 0.01299057 0.00207837 0.00233753 0.02311016 0.00384346 0.00171575 0.00182825 0.00133713 
0.05656296 0.02486574 0.00497562 0.00336364 0.00084187 0.00198815 0.01106922 0.00711099 0.01291975 0.00207457 0.00229543 0.02308193 0.00381240 0.00169330 0.00181855 0.00133683 
0.05575865 0.02505315 0.00485948 0.00346432 0.00083513 0.00197913 0.01082109 0.00737386 0.01285093 0.00207144 0.00225281 0.02305517 0.00378083 0.00167170 0.00181188 0.00133642 
0.05489988 0.02526552 0.00475889 0.00356481 0.00082820 0.00196981 0.01057283 0.00763983 0.01278497 0.00206892 0.00220974 0.02303071 0.00374890 0.00165107 0.00180826 0.00133591 
0.05399185 0.02550176 0.00467456 0.00366459 0.00082108 0.00196025 0.01032566 0.00790803 0.01272273 0.00206694 0.00216631 0.02300935 0.00371679 0.00163153 0.00180773 0.00133530 
0.05304004 0.02576076 0.00460715 0.00376315 0.00081382 0.00195050 0.01008082 0.00817754 0.01266511 0.00206545 0.00212258 0.02299186 0.00368467 0.00161320 0.00181025 0.00133458 
0.05205020 0.02604143 0.00455724 0.00385997 0.00080641 0.00194061 0.00983949 0.00844742 0.01261304 0.00206436 0.00207864 0.02297897 0.00365272 0.00159619 0.00181583 0.00133376 
0.05102830 0.02634266 0.00452530 0.00395455 0.00079890 0.00193066 0.00960289 0.00871673 0.01256743 0.00206361 0.00203457 0.02297135 0.00362114 0.00158059 0.00182442 0.00133285 
0.04998053 0.02666338 0.00451176 0.00404641 0.00079129 0.00192069 0.00937216 0.00898448 0.01252922 0.00206313 0.00199046 0.02296962 0.00359013 0.00156650 0.00183598 0.00133184 
0.04891327 0.02700252 0.00451691 0.00413507 0.00078361 0.00191078 0.00914844 0.00924968 0.01249932 0.00206284 0.00194638 0.02297435 0.00355987 0.00155399 0.00185045 0.00133075 
0.04783301 0.02735902 0.00454099 0.00422006 0.00077588 0.00190097 0.00893282 0.00951135 0.01247863 0.00206269 0.00190244 0.02298604 0.00353056 0.00154312 0.00186775 0.00132957 
0.04674639 0.02773187 0.00458412 0.00430095 0.00076811 0.00189134 0.00872634 0.00976847 0.01246803 0.00206258 0.00185870 0.02300511 0.00350241 0.00153398 0.00188780 0.00132831 
0.04566013 0.02812004 0.00464634 0.00437731 0.00076033 0.00188196 0.00852999 0.01002006 0.01246838 0.00206246 0.00181527 0.02303191 0.00347561 0.00152660 0.00191049 0.00132699 
0.04458099 0.02852258 0.00472757 0.00444874 0.00075256 0.00187287 0.00834470 0.01026513 0.01248050 0.00206226 0.00177223 0.02306671 0.00345035 0.00152102 0.00193571 0.00132560 
0.04351575 0.02893852 0.00482766 0.00451487 0.00074482 0.00186415 0.00817136 0.01050271 0.01250514 0.00206192 0.00172966 0.02310971 0.00342684 0.00151728 0.00196335 0.00132415 
0.04247118 0.02936696 0.00494634 0.00457535 0.00073711 0.00185585 0.00801077 0.01073184 0.01254304 0.00206136 0.00168766 0.02316100 0.00340525 0.00151540 0.00199326 0.00132266 
0.04145401 0.02980699 0.00508324 0.00462987 0.00072947 0.00184805 0.00786366 0.01095158 0.01259485 0.00206055 0.00164632 0.02322061 0.00338578 0.00151539 0.00202530 0.00132112 
0.04047087 0.03025776 0.00523792 0.00467814 0.00072190 0.00184078 0.00773070 0.01116104 0.01266117 0.00205942 0.00160571 0.02328846 0.00336859 0.00151725 0.00205933 0.00131955 
0.03952831 0.03071843 0.00540980 0.00471991 0.00071442 0.00183412 0.00761245 0.01135936 0.01274253 0.00205793 0.00156592 0.02336438 0.00335385 0.00152098 0.00209517 0.00131796 
0.03863269 0.03118820 0.00559825 0.00475496 0.00070704 0.00182811 0.00750943 0.01154569 0.01283939 0.00205605 0.00152703 0.02344811 0.00334173 0.00152656 0.00213267 0.00131635 
0.03779024 0.03166629 0.00580250 0.00478310 0.00069977 0.00182280 0.00742205 0.01171925 0.01295212 0.00205372 0.00148913 0.02353932 0.00333237 0.00153396 0.00217164 0.00131473 
0.03700694 0.03215195 0.00602174 0.00480418 0.00069262 0.00181825 0.00735064 0.01187931 0.01308101 0.00205094 0.00145228 0.02363756 0.00332591 0.00154315 0.00221190 0.00131311 
0.03628856 0.03264445 0.00625503 0.00481810 0.00068561 0.00181449 0.00729542 0.01202518 0.01322627 0.00204766 0.00141656 0.02374231 0.00332247 0.00155408 0.00225328 0.00131150 
0.03564058 0.03314308 0.00650138 0.00482477 0.00067875 0.00181157 0.00725656 0.01215623 0.01338802 0.00204389 0.00138203 0.02385295 0.00332218 0.00156671 0.00229558 0.00130990 
0.03506819 0.03364716 0.00675971 0.00482416 0.00067203 0.00180953 0.00723411 0.01227189 0.01356628 0.00203961 0.00134877 0.02396879 0.00332512 0.00158098 0.00233862 0.00130834 
0.03457626 0.03415602 0.00702886 0.00481627 0.00066546 0.00180839 0.00722804 0.01237167 0.01376098 0.00203482 0.00131683 0.02408906 0.00333138 0.00159682 0.00238220 0.00130680 
0.03416930 0.03466901 0.00730762 0.00480115 0.00065906 0.00180818 0.00723823 0.01245511 0.01397197 0.00202953 0.00128626 0.02421292 0.00334103 0.00161416 0.00242612 0.00130530 
0.03385143 0.03518549 0.00759470 0.00477885 0.00065282 0.00180893 0.00726447 0.01252186 0.01419900 0.00202375 0.00125712 0.02433943 0.00335414 0.00163292 0.00247021 0.00130386 
0.03362639 0.03570484 0.00788876 0.00474950 0.00064675 0.00181065 0.00730645 0.01257162 0.01444171 0.00201749 0.00122945 0.02446763 0.00337072 0.00165301 0.00251427 0.00130247 
0.03349747 0.03622643 0.00818841 0.00471325 0.00064084 0.00181337 0.00736381 0.01260416 0.01469967 0.00201080 0.00120329 0.02459648 0.00339082 0.00167436 0.00255811 0.00130113 
0.03346753 0.03674967 0.00849224 0.00467028 0.00063510 0.00181707 0.00743607 0.01261935 0.01497236 0.00200370 0.00117867 0.02472490 0.00341442 0.00169685 0.00260155 0.00129987 
0.03353898 0.03727395 0.00879878 0.00462080 0.00062953 0.00182178 0.00752269 0.01261710 0.01525915 0.00199623 0.00115563 0.02485174 0.00344153 0.00172040 0.00264442 0.00129868 
0.03371372 0.03779869 0.00910653 0.00456508 0.00062412 0.00182747 0.00762304 0.01259743 0.01555935 0.00198844 0.00113417 0.02497586 0.00347210 0.00174490 0.00268654 0.00129757 
0.03399317 0.03832328 0.00941400 0.00450339 0.00061888 0.00183416 0.00773643 0.01256041 0.01587219 0.00198038 0.00111432 0.02509605 0.00350611 0.00177024 0.00272775 0.00129653 
0.03437825 0.03884714 0.00971965 0.00443605 0.00061380 0.00184182 0.00786211 0.01250622 0.01619681 0.00197211 0.00109608 0.02521112 0.00354347 0.00179632 0.00276788 0.00129559 
0.03486934 0.03936968 0.01002198 0.00436341 0.00060887 0.00185043 0.00799924 0.01243509 0.01653228 0.00196369 0.00107946 0.02531984 0.00358411 0.00182303 0.00280680 0.00129473 
0.03546632 0.03989033 0.01031945 0.00428582 0.00060411 0.00185998 0.00814694 0.01234732 0.01687762 0.00195519 0.00106445 0.02542101 0.00362794 0.00185026 0.00284436 0.00129397 
0.03616853 0.04040851 0.01061057 0.00420369 0.00059948 0.00187043 0.00830427 0.01224332 0.01723178 0.00194668 0.00105105 0.02551341 0.00367485 0.00187788 0.00288043 0.00129329 
0.03697476 0.04092363 0.01089386 0.00411743 0.00059501 0.00188176 0.00847026 0.01212353 0.01759365 0.00193824 0.00103922 0.02559587 0.00372470 0.00190580 0.00291489 0.00129271 
0.03788330 0.04143512 0.01116786 0.00402748 0.00059067 0.00189392 0.00864387 0.01198848 0.01796210 0.00192995 0.00102895 0.02566721 0.00377736 0.00193389 0.00294763 0.00129223 
0.03889188 0.04194241 0.01143115 0.00393430 0.00058647 0.00190686 0.00882404 0.01183877 0.01833592 0.00192187 0.00102022 0.02572632 0.00383266 0.00196204 0.00297856 0.00129184 
0.03999771 0.04244493 0.01168237 0.00383835 0.00058241 0.00192056 0.00900970 0.01167506 0.01871390 0.00191411 0.00101298 0.02577213 0.00389045 0.00199013 0.00300758 0.00129154 
0.04119750 0.04294212 0.01192020 0.00374012 0.00057846 0.00193495 0.00919972 0.01149805 0.01909479 0.00190674 0.00100719 0.02580360 0.00395053 0.00201807 0.00303462 0.00129134 
0.04248742 0.04343342 0.01214340 0.00364010 0.00057464 0.00194999 0.00939298 0.01130853 0.01947732 0.00189984 0.00100280 0.02581980 0.00401271 0.00204574 0.00305963 0.00129122 
0.04386317 0.04391829 0.01235076 0.00353879 0.00057094 0.00196562 0.00958835 0.01110731 0.01986022 0.00189351 0.00099978 0.02581984 0.00407679 0.00207302 0.00308255 0.00129120 
0.04531997 0.04439619 0.01254119 0.00343671 0.00056735 0.00198178 0.00978469 0.01089528 0.02024221 0.00188781 0.00099805 0.02580290 0.00414256 0.00209983 0.00310335 0.00129125 
0.04685256 0.04486660 0.01271366 0.00333436 0.00056387 0.00199842 0.00998086 0.01067334 0.02062200 0.00188285 0.00099755 0.02576828 0.00420980 0.00212604 0.00312199 0.00129139 
0.04845526 0.04532900 0.01286722 0.00323225 0.00056050 0.00201546 0.01017575 0.01044244 0.02099833 0.00187868 0.00099823 0.02571534 0.00427827 0.00215158 0.00313848 0.00129160 
0.05012197 0.04578291 0.01300103 0.00313089 0.00055724 0.00203285 0.01036825 0.01020358 0.02136996 0.00187541 0.00100001 0.02564358 0.00434775 0.00217634 0.00315281 0.00129189 
0.05184619 0.04622786 0.01311435 0.00303078 0.00055409 0.00205052 0.01055727 0.00995776 0.02173565 0.00187309 0.00100282 0.02555255 0.00441799 0.00220023 0.00316499 0.00129223 
0.05362107 0.04666339 0.01320654 0.00293241 0.00055104 0.00206841 0.01074177 0.00970602 0.02209422 0.00187181 0.00100658 0.02544197 0.00448877 0.00222317 0.00317505 0.00129264 
0.05543942 0.04708907 0.01327705 0.00283627 0.00054809 0.00208645 0.01092072 0.00944940 0.02244451 0.00187162 0.00101122 0.02531162 0.00455983 0.00224507 0.00318303 0.00129311 
0.05729376 0.04750451 0.01332546 0.00274283 0.00054525 0.00210458 0.01109317 0.00918897 0.02278540 0.00187260 0.00101666 0.02516143 0.00463094 0.00226586 0.00318896 0.00129362 
0.05917636 0.04790932 0.01335148 0.00265254 0.00054253 0.00212274 0.01125817 0.00892580 0.02311583 0.00187479 0.00102282 0.02499144 0.00470186 0.00228547 0.00319291 0.00129417 
0.06107923 0.04830316 0.01335490 0.00256584 0.00053991 0.00214086 0.01141485 0.00866096 0.02343480 0.00187826 0.00102962 0.02480180 0.00477236 0.00230383 0.00319494 0.00129476 
0.06299421 0.04868572 0.01333565 0.00248314 0.00053742 0.00215889 0.01156239 0.00839550 0.02374135 0.00188304 0.00103696 0.02459280 0.00484221 0.00232089 0.00319513 0.00129537 
0.06491302 0.04905671 0.01329378 0.00240484 0.00053504 0.00217676 0.01170003 0.00813047 0.02403460 0.00188919 0.00104478 0.02436484 0.00491118 0.00233657 0.00319356 0.00129601 
0.06682722 0.04941590 0.01322945 0.00233132 0.00053280 0.00219442 0.01182708 0.00786692 0.02431371 0.00189673 0.00105299 0.02411843 0.00497907 0.00235085 0.00319033 0.00129666 
0.06872836 0.04976307 0.01314294 0.00226292 0.00053069 0.00221182 0.01194292 0.00760585 0.02457795 0.00190568 0.00106152 0.02385421 0.00504566 0.00236367 0.00318553 0.00129731 
0.07060792 0.05009804 0.01303466 0.00219995 0.00052872 0.00222890 0.01204698 0.00734825 0.02482663 0.00191608 0.00107027 0.02357294 0.00511076 0.00237499 0.00317927 0.00129797 
0.07245745 0.05042068 0.01290513 0.00214270 0.00052691 0.00224562 0.01213878 0.00709508 0.02505916 0.00192792 0.00107918 0.02327547 0.00517419 0.00238480 0.00317165 0.00129861 
0.07426853 0.05073090 0.01275497 0.00209144 0.00052525 0.00226194 0.01221793 0.00684726 0.02527499 0.00194121 0.00108818 0.02296278 0.00523579 0.00239305 0.00316279 0.00129924 
0.07603288 0.05102861 0.01258492 0.00204639 0.00052377 0.00227781 0.01228409 0.00660567 0.02547369 0.00195596 0.00109719 0.02263593 0.00529540 0.00239974 0.00315281 0.00129985 
0.07774235 0.05131381 0.01239584 0.00200774 0.00052247 0.00229321 0.01233702 0.00637114 0.02565487 0.00197215 0.00110615 0.02229610 0.00535290 0.00240485 0.00314183 0.00130043 
0.07938902 0.05158650 0.01218867 0.00197566 0.00052137 0.00230809 0.01237655 0.00614446 0.02581826 0.00198975 0.00111498 0.02194453 0.00540815 0.00240837 0.00312997 0.00130098 
0.08096518 0.05184673 0.01196447 0.00195027 0.00052047 0.00232244 0.01240259 0.00592638 0.02596362 0.00200875 0.00112365 0.02158256 0.00546107 0.00241031 0.00311736 0.00130148 
0.08246343 0.05209458 0.01172435 0.00193166 0.00051979 0.00233622 0.01241514 0.00571757 0.02609084 0.00202910 0.00113209 0.02121160 0.00551157 0.00241068 0.00310411 0.00130194 
0.08387668 0.05233017 0.01146956 0.00191990 0.00051933 0.00234943 0.01241427 0.00551865 0.02619983 0.00205077 0.00114025 0.02083312 0.00555961 0.00240947 0.00309035 0.00130235 
0.08519823 0.05255363 0.01120138 0.00191499 0.00051912 0.00236203 0.01240013 0.00533020 0.02629061 0.00207370 0.00114809 0.02044866 0.00560513 0.00240673 0.00307620 0.00130270 
0.08642176 0.05276515 0.01092119 0.00191693 0.00051916 0.00237404 0.01237295 0.00515271 0.02636327 0.00209784 0.00115557 0.02005980 0.00564813 0.00240246 0.00306179 0.00130299 
0.08754141 0.05296492 0.01063043 0.00192568 0.00051947 0.00238543 0.01233304 0.00498663 0.02641795 0.00212312 0.00116266 0.01966815 0.00568861 0.00239670 0.00304722 0.00130321 
0.08855177 0.05315318 0.01033058 0.00194114 0.00052005 0.00239620 0.01228077 0.00483232 0.02645487 0.00214947 0.00116934 0.01927536 0.00572661 0.00238949 0.00303261 0.00130337 
0.08944795 0.05333016 0.01002318 0.00196321 0.00052092 0.00240636 0.01221659 0.00469010 0.02647432 0.00217681 0.00117558 0.01888310 0.00576218 0.00238086 0.00301807 0.00130345 
0.09022561 0.05349614 0.00970981 0.00199173 0.00052209 0.00241592 0.01214103 0.00456019 0.02647662 0.00220506 0.00118138 0.01849303 0.00579540 0.00237087 0.00300370 0.00130346 
0.09088094 0.05365140 0.00939207 0.00202652 0.00052358 0.00242487 0.01205464 0.00444278 0.02646218 0.00223412 0.00118672 0.01810682 0.00582636 0.00235957 0.00298960 0.00130339 
0.09141074 0.05379624 0.00907158 0.00206737 0.00052538 0.00243324 0.01195809 0.00433795 0.02643144 0.00226390 0.00119161 0.01772614 0.00585520 0.00234701 0.00297587 0.00130324 
0.09181241 0.05393097 0.00874998 0.00211403 0.00052750 0.00244103 0.01185205 0.00424576 0.02638489 0.00229429 0.00119605 0.01735263 0.00588205 0.00233325 0.00296259 0.00130301 
0.09208395 0.05405590 0.00842890 0.00216625 0.00052996 0.00244827 0.01173727 0.00416615 0.02632305 0.00232520 0.00120005 0.01698789 0.00590708 0.00231837 0.00294985 0.00130270 
0.09222403 0.05417135 0.00810999 0.00222371 0.00053276 0.00245496 0.01161456 0.00409903 0.02624651 0.00235650 0.00120363 0.01663348 0.00593049 0.00230243 0.00293771 0.00130231 
0.09223193 0.05427765 0.00779485 0.00228610 0.00053591 0.00246115 0.01148474 0.00404424 0.02615586 0.00238808 0.00120682 0.01629093 0.00595247 0.00228551 0.00292625 0.00130183 
0.09210761 0.05437512 0.00748506 0.00235308 0.00053940 0.00246684 0.01134868 0.00400154 0.02605174 0.00241983 0.00120964 0.01596170 0.00597327 0.00226768 0.00291552 0.00130128 
0.09185166 0.05446407 0.00718219 0.00242428 0.00054324 0.00247206 0.01120729 0.00397064 0.02593480 0.00245163 0.00121213 0.01564717 0.00599311 0.00224904 0.00290558 0.00130065 
0.09146533 0.05454482 0.00688774 0.00249930 0.00054743 0.00247684 0.01106149 0.00395119 0.02580570 0.00248334 0.00121434 0.01534866 0.00601227 0.00222965 0.00289648 0.00129993 
0.09095053 0.05461767 0.00660316 0.00257776 0.00055196 0.00248120 0.01091224 0.00394277 0.02566515 0.00251485 0.00121630 0.01506741 0.00603103 0.00220962 0.00288826 0.00129915 
0.09030978 0.05468292 0.00632987 0.00265923 0.00055683 0.00248517 0.01076049 0.00394493 0.02551382 0.00254603 0.00121807 0.01480457 0.00604966 0.00218903 0.00288095 0.00129828 
0.08954627 0.05474083 0.00606917 0.00274328 0.00056204 0.00248877 0.01060722 0.00395713 0.02535242 0.00257674 0.00121970 0.01456118 0.00606847 0.00216797 0.00287457 0.00129735 
0.08866375 0.05479168 0.00582234 0.00282948 0.00056758 0.00249204 0.01045341 0.00397882 0.02518165 0.00260688 0.00122125 0.01433820 0.00608777 0.00214654 0.00286914 0.00129635 
0.08766660 0.05483572 0.00559054 0.00291737 0.00057343 0.00249499 0.01030002 0.00400938 0.02500221 0.00263630 0.00122278 0.01413647 0.00610787 0.00212483 0.00286468 0.00129529 
0.08655975 0.05487317 0.00537485 0.00300651 0.00057959 0.00249764 0.01014802 0.00404816 0.02481477 0.00266488 0.00122435 0.01395674 0.00612911 0.00210294 0.00286120 0.00129417 
0.08534867 0.05490424 0.00517626 0.00309643 0.00058604 0.00250003 0.00999837 0.00409445 0.02462001 0.00269249 0.00122603 0.01379962 0.00615180 0.00208097 0.00285869 0.00129300 
0.08403936 0.05492912 0.00499567 0.00318668 0.00059276 0.00250217 0.00985198 0.00414753 0.02441860 0.00271902 0.00122789 0.01366564 0.00617628 0.00205901 0.00285715 0.00129177 
0.08263829 0.05494798 0.00483386 0.00327680 0.00059974 0.00250408 0.00970977 0.00420663 0.02421117 0.00274435 0.00122999 0.01355517 0.00620285 0.00203716 0.00285657 0.00129050 
0.08115237 0.05496098 0.00469150 0.00336635 0.00060696 0.00250577 0.00957261 0.00427097 0.02399833 0.00276835 0.00123241 0.01346850 0.00623185 0.00201552 0.00285694 0.00128919 
0.07958891 0.05496823 0.00456915 0.00345488 0.00061438 0.00250726 0.00944134 0.00433974 0.02378068 0.00279091 0.00123520 0.01340578 0.00626358 0.00199419 0.00285823 0.00128785 
0.07795562 0.05496983 0.00446728 0.00354195 0.00062200 0.00250856 0.00931677 0.00441210 0.02355878 0.00281192 0.00123845 0.01336705 0.00629834 0.00197325 0.00286043 0.00128648 
0.07626050 0.05496587 0.00438622 0.00362714 0.00062977 0.00250968 0.00919963 0.00448720 0.02333317 0.00283129 0.00124221 0.01335224 0.00633643 0.00195280 0.00286351 0.00128509 
0.07451184 0.05495640 0.00432617 0.00371003 0.00063768 0.00251062 0.00909065 0.00456421 0.02310435 0.00284890 0.00124655 0.01336114 0.00637812 0.00193294 0.00286743 0.00128368 
0.07271817 0.05494147 0.00428724 0.00379024 0.00064570 0.00251139 0.00899047 0.00464224 0.02287279 0.00286466 0.00125153 0.01339347 0.00642367 0.00191375 0.00287218 0.00128226 
0.07088819 0.05492108 0.00426941 0.00386737 0.00065379 0.00251198 0.00889969 0.00472045 0.02263893 0.00287848 0.00125721 0.01344880 0.00647332 0.00189531 0.00287771 0.00128084 
0.06903077 0.05489523 0.00427255 0.00394107 0.00066192 0.00251240 0.00881884 0.00479797 0.02240316 0.00289028 0.00126365 0.01352661 0.00652728 0.00187772 0.00288399 0.00127942 
0.06715483 0.05486390 0.00429639 0.00401099 0.00067005 0.00251263 0.00874839 0.00487396 0.02216586 0.00289998 0.00127089 0.01362629 0.00658575 0.00186105 0.00289098 0.00127801 
0.06526936 0.05482703 0.00434058 0.00407683 0.00067816 0.00251266 0.00868875 0.00494757 0.02192735 0.00290752 0.00127899 0.01374712 0.00664889 0.00184537 0.00289864 0.00127662 
0.06338330 0.05478456 0.00440463 0.00413828 0.00068621 0.00251248 0.00864026 0.00501799 0.02168794 0.00291281 0.00128797 0.01388829 0.00671685 0.00183077 0.00290694 0.00127525 
0.06150557 0.05473641 0.00448797 0.00419507 0.00069416 0.00251208 0.00860317 0.00508441 0.02144787 0.00291582 0.00129788 0.01404892 0.00678974 0.00181729 0.00291584 0.00127391 
0.05964494 0.05468246 0.00458991 0.00424696 0.00070198 0.00251143 0.00857770 0.00514605 0.02120739 0.00291649 0.00130875 0.01422804 0.00686762 0.00180502 0.00292530 0.00127261 
0.05781005 0.05462261 0.00470966 0.00429372 0.00070962 0.00251052 0.00856395 0.00520218 0.02096668 0.00291478 0.00132060 0.01442461 0.00695056 0.00179400 0.00293528 0.00127134 
0.05600930 0.05455672 0.00484634 0.00433518 0.00071706 0.00250933 0.00856199 0.00525207 0.02072591 0.00291065 0.00133344 0.01463754 0.00703855 0.00178429 0.00294574 0.00127013 
0.05425084 0.05448463 0.00499899 0.00437116 0.00072425 0.00250782 0.00857179 0.00529506 0.02048521 0.00290408 0.00134727 0.01486567 0.00713158 0.00177593 0.00295665 0.00126897 
0.05254254 0.05440618 0.00516656 0.00440154 0.00073116 0.00250597 0.00859324 0.00533050 0.02024469 0.00289505 0.00136212 0.01510779 0.00722959 0.00176897 0.00296797 0.00126787 
0.05089189 0.05432118 0.00534794 0.00442620 0.00073776 0.00250375 0.00862619 0.00535780 0.02000444 0.00288356 0.00137795 0.01536266 0.00733247 0.00176343 0.00297967 0.00126684 
0.04930601 0.05422943 0.00554193 0.00444507 0.00074401 0.00250114 0.00867040 0.00537642 0.01976452 0.00286960 0.00139477 0.01562900 0.00744011 0.00175936 0.00299171 0.00126588 
0.04779157 0.05413073 0.00574728 0.00445811 0.00074988 0.00249809 0.00872556 0.00538586 0.01952496 0.00285317 0.00141254 0.01590552 0.00755232 0.00175677 0.00300407 0.00126499 
0.04635481 0.05402485 0.00596271 0.00446530 0.00075534 0.00249458 0.00879130 0.00538569 0.01928580 0.00283430 0.00143124 0.01619090 0.00766891 0.00175567 0.00301671 0.00126419 
0.04500143 0.05391154 0.00618685 0.00446664 0.00076036 0.00249059 0.00886718 0.00537553 0.01904705 0.00281301 0.00145083 0.01648381 0.00778963 0.00175608 0.00302961 0.00126348 
0.04373662 0.05379056 0.00641834 0.00446217 0.00076491 0.00248607 0.00895270 0.00535504 0.01880871 0.00278934 0.00147126 0.01678292 0.00791420 0.00175800 0.00304275 0.00126286 
0.04256500 0.05366164 0.00665576 0.00445197 0.00076896 0.00248099 0.00904731 0.00532398 0.01857078 0.00276331 0.00149249 0.01708692 0.00804231 0.00176143 0.00305609 0.00126233 
0.04149061 0.05352449 0.00689769 0.00443611 0.00077250 0.00247534 0.00915040 0.00528213 0.01833324 0.00273498 0.00151444 0.01739451 0.00817362 0.00176635 0.00306961 0.00126190 
0.04051687 0.05337884 0.00714267 0.00441471 0.00077550 0.00246907 0.00926131 0.00522937 0.01809610 0.00270442 0.00153705 0.01770441 0.00830775 0.00177274 0.00308330 0.00126158 
0.03964659 0.05322437 0.00738928 0.00438792 0.00077794 0.00246216 0.00937934 0.00516564 0.01785935 0.00267168 0.00156024 0.01801535 0.00844430 0.00178059 0.00309713 0.00126137 
0.03888193 0.05306076 0.00763606 0.00435589 0.00077981 0.00245460 0.00950373 0.00509093 0.01762299 0.00263683 0.00158394 0.01832614 0.00858282 0.00178986 0.00311109 0.00126126 
0.03822441 0.05288768 0.00788159 0.00431882 0.00078109 0.00244635 0.00963371 0.00500532 0.01738704 0.00259997 0.00160806 0.01863558 0.00872286 0.00180052 0.00312516 0.00126127 
0.03767488 0.05270480 0.00812446 0.00427689 0.00078178 0.00243740 0.00976847 0.00490894 0.01715154 0.00256118 0.00163249 0.01894256 0.00886394 0.00181251 0.00313931 0.00126140 
0.03723352 0.05251175 0.00836330 0.00423034 0.00078187 0.00242773 0.00990716 0.00480203 0.01691652 0.00252056 0.00165716 0.01924600 0.00900554 0.00182579 0.00315355 0.00126164 
0.03689989 0.05230818 0.00859676 0.00417941 0.00078135 0.00241734 0.01004895 0.00468484 0.01668206 0.00247820 0.00168194 0.01954488 0.00914715 0.00184030 0.00316785 0.00126200 
0.03667285 0.05209370 0.00882353 0.00412434 0.00078023 0.00240621 0.01019294 0.00455775 0.01644825 0.00243423 0.00170675 0.01983825 0.00928822 0.00185598 0.00318220 0.00126248 
0.03655065 0.05186792 0.00904236 0.00406540 0.00077851 0.00239434 0.01033826 0.00442118 0.01621520 0.00238876 0.00173146 0.02012523 0.00942821 0.00187276 0.00319659 0.00126308 
0.03653090 0.05163046 0.00925204 0.00400287 0.00077620 0.00238174 0.01048404 0.00427561 0.01598307 0.00234192 0.00175596 0.02040499 0.00956654 0.00189057 0.00321100 0.00126380 
0.03661057 0.05138090 0.00945145 0.00393703 0.00077330 0.00236841 0.01062939 0.00412162 0.01575204 0.00229384 0.00178015 0.02067680 0.00970266 0.00190932 0.00322542 0.00126465 
0.03678608 0.05111885 0.00963950 0.00386819 0.00076983 0.00235436 0.01077344 0.00395982 0.01552231 0.00224465 0.00180391 0.02093997 0.00983598 0.00192893 0.00323984 0.00126561 
0.03705324 0.05084387 0.00981518 0.00379664 0.00076580 0.00233961 0.01091534 0.00379091 0.01529415 0.00219450 0.00182712 0.02119392 0.00996595 0.00194931 0.00325424 0.00126670 
0.03740734 0.05055556 0.00997756 0.00372269 0.00076124 0.00232418 0.01105426 0.00361565 0.01506783 0.00214354 0.00184967 0.02143814 0.01009198 0.00197037 0.00326861 0.00126790 
0.03784315 0.05025350 0.01012579 0.00364663 0.00075616 0.00230809 0.01118937 0.00343484 0.01484369 0.00209192 0.00187145 0.02167218 0.01021353 0.00199200 0.00328294 0.00126923 
0.03835496 0.04993726 0.01025910 0.00356879 0.00075060 0.00229139 0.01131991 0.00324937 0.01462208 0.00203980 0.00189234 0.02189568 0.01033003 0.00201412 0.00329721 0.00127067 
0.03893662 0.04960644 0.01037678 0.00348946 0.00074457 0.00227411 0.01144513 0.00306014 0.01440343 0.00198734 0.00191225 0.02210838 0.01044094 0.00203661 0.00331140 0.00127222 
0.03958158 0.04926063 0.01047824 0.00340895 0.00073812 0.00225629 0.01156433 0.00286816 0.01418816 0.00193471 0.00193106 0.02231007 0.01054575 0.00205937 0.00332550 0.00127388 
0.04028294 0.04889944 0.01056295 0.00332755 0.00073126 0.00223799 0.01167685 0.00267442 0.01397677 0.00188208 0.00194868 0.02250063 0.01064394 0.00208229 0.00333950 0.00127565 
0.04103348 0.04852247 0.01063048 0.00324555 0.00072404 0.00221926 0.01178207 0.00248001 0.01376979 0.00182962 0.00196501 0.02268000 0.01073504 0.00210526 0.00335336 0.00127752 
0.04182569 0.04812937 0.01068047 0.00316325 0.00071650 0.00220015 0.01187945 0.00228602 0.01356778 0.00177752 0.00197997 0.02284822 0.01081858 0.00212817 0.00336708 0.00127950 
0.04265187 0.04771979 0.01071267 0.00308091 0.00070867 0.00218075 0.01196847 0.00209359 0.01337135 0.00172593 0.00199348 0.02300538 0.01089414 0.00215091 0.00338063 0.00128157 
0.04350413 0.04729341 0.01072690 0.00299879 0.00070059 0.00216111 0.01204870 0.00190389 0.01318114 0.00167505 0.00200547 0.02315164 0.01096131 0.00217337 0.00339400 0.00128373 
0.04437447 0.04684995 0.01072308 0.00291715 0.00069231 0.00214131 0.01211975 0.00171811 0.01299782 0.00162506 0.00201586 0.02328724 0.01101971 0.00219544 0.00340715 0.00128598 
0.04525481 0.04638916 0.01070118 0.00283624 0.00068386 0.00212144 0.01218130 0.00153746 0.01282210 0.00157612 0.00202461 0.02341247 0.01106902 0.00221700 0.00342008 0.00128832 
0.04613707 0.04591081 0.01066129 0.00275627 0.00067529 0.00210157 0.01223310 0.00136317 0.01265473 0.00152843 0.00203166 0.02352766 0.01110892 0.00223796 0.00343274 0.00129073 
0.04701319 0.04541474 0.01060356 0.00267746 0.00066664 0.00208180 0.01227496 0.00119646 0.01249645 0.00148216 0.00203699 0.02363324 0.01113915 0.00225820 0.00344513 0.00129321 
0.04787519 0.04490082 0.01052820 0.00260001 0.00065795 0.00206222 0.01230675 0.00103856 0.01234806 0.00143749 0.00204056 0.02372963 0.01115948 0.00227764 0.00345721 0.00129575 
0.04871526 0.04436900 0.01043551 0.00252410 0.00064927 0.00204291 0.01232842 0.00089070 0.01221036 0.00139459 0.00204237 0.02381736 0.01116971 0.00229616 0.00346897 0.00129836 
0.04952574 0.04381925 0.01032586 0.00244990 0.00064065 0.00202398 0.01233996 0.00075411 0.01208418 0.00135363 0.00204240 0.02389694 0.01116971 0.00231368 0.00348037 0.00130101 
0.05029924 0.04325164 0.01019967 0.00237756 0.00063211 0.00200553 0.01234147 0.00062997 0.01197034 0.00131479 0.00204066 0.02396895 0.01115934 0.00233011 0.00349140 0.00130372 
0.05102862 0.04266628 0.01005743 0.00230722 0.00062371 0.00198765 0.01233306 0.00051947 0.01186969 0.00127823 0.00203716 0.02403400 0.01113855 0.00234536 0.00350203 0.00130646 
0.05170712 0.04206339 0.00989967 0.00223899 0.00061549 0.00197045 0.01231495 0.00042375 0.01178306 0.00124410 0.00203195 0.02409271 0.01110731 0.00235936 0.00351224 0.00130923 
0.05232832 0.04144321 0.00972699 0.00217298 0.00060747 0.00195402 0.01228738 0.00034394 0.01171129 0.00121257 0.00202506 0.02414574 0.01106561 0.00237205 0.00352201 0.00131203 
0.05288624 0.04080613 0.00954002 0.00210927 0.00059970 0.00193848 0.01225067 0.00028109 0.01165520 0.00118377 0.00201653 0.02419375 0.01101350 0.00238335 0.00353131 0.00131484 
0.05337534 0.04015257 0.00933944 0.00204794 0.00059222 0.00192391 0.01220518 0.00023625 0.01161562 0.00115785 0.00200644 0.02423743 0.01095108 0.00239321 0.00354014 0.00131766 
0.05379060 0.03948307 0.00912597 0.00198905 0.00058505 0.00191043 0.01215134 0.00021036 0.01159334 0.00113495 0.00199486 0.02427746 0.01087847 0.00240158 0.00354848 0.00132049 
0.05412751 0.03879825 0.00890035 0.00193265 0.00057823 0.00189811 0.01208961 0.00020436 0.01158913 0.00111518 0.00198187 0.02431453 0.01079583 0.00240842 0.00355631 0.00132331 
0.05438213 0.03809883 0.00866334 0.00187875 0.00057178 0.00188708 0.01202049 0.00021908 0.01160374 0.00109867 0.00196757 0.02434932 0.01070335 0.00241371 0.00356362 0.00132611 
0.05455110 0.03738564 0.00841576 0.00182737 0.00056573 0.00187740 0.01194453 0.00025529 0.01163786 0.00108552 0.00195206 0.02438251 0.01060127 0.00241741 0.00357040 0.00132890 
0.05463168 0.03665958 0.00815841 0.00177853 0.00056010 0.00186918 0.01186230 0.00031371 0.01169216 0.00107583 0.00193545 0.02441478 0.01048986 0.00241952 0.00357665 0.00133165 
0.05462176 0.03592169 0.00789212 0.00173221 0.00055491 0.00186249 0.01177441 0.00039494 0.01176727 0.00106968 0.00191788 0.02444676 0.01036940 0.00242002 0.00358237 0.00133437 
0.05451988 0.03517308 0.00761773 0.00168840 0.00055017 0.00185742 0.01168148 0.00049953 0.01186374 0.00106715 0.00189946 0.02447910 0.01024022 0.00241893 0.00358757 0.00133704 
0.05432522 0.03441498 0.00733609 0.00164708 0.00054591 0.00185404 0.01158417 0.00062790 0.01198210 0.00106831 0.00188033 0.02451240 0.01010268 0.00241626 0.00359224 0.00133966 
0.05403764 0.03364871 0.00704805 0.00160820 0.00054212 0.00185242 0.01148314 0.00078042 0.01212278 0.00107320 0.00186064 0.02454724 0.00995715 0.00241204 0.00359640 0.00134221 
0.05365769 0.03287572 0.00675447 0.00157172 0.00053881 0.00185263 0.01137905 0.00095734 0.01228618 0.00108186 0.00184054 0.02458418 0.00980404 0.00240628 0.00360006 0.00134471 
0.05318654 0.03209752 0.00645618 0.00153761 0.00053599 0.00185471 0.01127257 0.00115880 0.01247260 0.00109431 0.00182019 0.02462372 0.00964376 0.00239905 0.00360325 0.00134712 
0.05262608 0.03131575 0.00615403 0.00150579 0.00053367 0.00185873 0.01116438 0.00138486 0.01268227 0.00111057 0.00179973 0.02466635 0.00947677 0.00239039 0.00360600 0.00134945 
0.05197882 0.03053212 0.00584887 0.00147623 0.00053182 0.00186471 0.01105514 0.00163546 0.01291536 0.00113064 0.00177933 0.02471250 0.00930352 0.00238036 0.00360832 0.00135170 
0.05124792 0.02974845 0.00554151 0.00144885 0.00053046 0.00187271 0.01094550 0.00191043 0.01317194 0.00115450 0.00175915 0.02476259 0.00912450 0.00236902 0.00361026 0.00135384 
0.05043717 0.02896664 0.00523279 0.00142360 0.00052956 0.00188273 0.01083608 0.00220951 0.01345198 0.00118211 0.00173936 0.02481695 0.00894018 0.00235647 0.00361186 0.00135589 
0.04955097 0.02818867 0.00492350 0.00140040 0.00052912 0.00189480 0.01072751 0.00253231 0.01375540 0.00121344 0.00172011 0.02487590 0.00875109 0.00234277 0.00361316 0.00135782 
0.04859429 0.02741659 0.00461445 0.00137921 0.00052913 0.00190893 0.01062038 0.00287834 0.01408198 0.00124842 0.00170156 0.02493970 0.00855773 0.00232804 0.00361421 0.00135964 
0.04757265 0.02665253 0.00430642 0.00135995 0.00052956 0.00192512 0.01051524 0.00324700 0.01443145 0.00128698 0.00168388 0.02500856 0.00836062 0.00231236 0.00361507 0.00136134 
0.04649211 0.02589867 0.00400017 0.00134256 0.00053040 0.00194336 0.01041262 0.00363758 0.01480341 0.00132903 0.00166722 0.02508265 0.00816029 0.00229584 0.00361581 0.00136292 
0.04535919 0.02515726 0.00369646 0.00132700 0.00053162 0.00196364 0.01031301 0.00404928 0.01519737 0.00137447 0.00165172 0.02516207 0.00795728 0.00227860 0.00361648 0.00136436 
0.04418086 0.02443057 0.00339605 0.00131319 0.00053320 0.00198592 0.01021686 0.00448117 0.01561277 0.00142317 0.00163753 0.02524690 0.00775213 0.00226075 0.00361716 0.00136567 
0.04296451 0.02372094 0.00309966 0.00130110 0.00053511 0.00201017 0.01012459 0.00493225 0.01604890 0.00147501 0.00162478 0.02533714 0.00754539 0.00224242 0.00361793 0.00136684 
0.04171786 0.02303072 0.00280802 0.00129067 0.00053733 0.00203635 0.01003657 0.00540138 0.01650500 0.00152985 0.00161361 0.02543275 0.00733758 0.00222373 0.00361886 0.00136787 
0.04044899 0.02236226 0.00252184 0.00128186 0.00053983 0.00206440 0.00995311 0.00588737 0.01698018 0.00158751 0.00160414 0.02553366 0.00712926 0.00220481 0.00362003 0.00136875 
0.03916619 0.02171796 0.00224183 0.00127464 0.00054258 0.00209426 0.00987450 0.00638891 0.01747347 0.00164784 0.00159647 0.02563973 0.00692097 0.00218579 0.00362154 0.00136949 
0.03787800 0.02110016 0.00196867 0.00126898 0.00054554 0.00212585 0.00980097 0.00690462 0.01798380 0.00171066 0.00159070 0.02575079 0.00671325 0.00216681 0.00362347 0.00137007 
0.03659313 0.02051124 0.00170307 0.00126485 0.00054868 0.00215911 0.00973270 0.00743304 0.01850999 0.00177575 0.00158694 0.02586660 0.00650664 0.00214800 0.00362592 0.00137051 
0.03532035 0.01995352 0.00144570 0.00126224 0.00055198 0.00219394 0.00966982 0.00797262 0.01905080 0.00184293 0.00158524 0.02598692 0.00630167 0.00212950 0.00362897 0.00137079 
0.03406855 0.01942929 0.00119724 0.00126114 0.00055540 0.00223024 0.00961244 0.00852177 0.01960487 0.00191197 0.00158568 0.02611143 0.00609888 0.00211144 0.00363274 0.00137091 
0.03284657 0.01894080 0.00095838 0.00126153 0.00055891 0.00226791 0.00956060 0.00907881 0.02017077 0.00198265 0.00158832 0.02623979 0.00589879 0.00209395 0.00363731 0.00137089 
0.03166321 0.01849022 0.00072980 0.00126342 0.00056248 0.00230684 0.00951430 0.00964203 0.02074700 0.00205473 0.00159318 0.02637164 0.00570193 0.00207716 0.00364279 0.00137071 
0.03052718 0.01807965 0.00051216 0.00126682 0.00056607 0.00234692 0.00947349 0.01020967 0.02133196 0.00212798 0.00160030 0.02650657 0.00550880 0.00206120 0.00364927 0.00137037 
0.02944700 0.01771112 0.00030615 0.00127174 0.00056966 0.00238801 0.00943810 0.01077992 0.02192400 0.00220214 0.00160968 0.02664416 0.00531993 0.00204618 0.00365685 0.00136989 
0.02843098 0.01738655 0.00011244 0.00127819 0.00057322 0.00243000 0.00940800 0.01135095 0.02252137 0.00227697 0.00162133 0.02678395 0.00513582 0.00203223 0.00366562 0.00136926 
0.02748718 0.01710774 0.00006826 0.00128621 0.00057673 0.00247274 0.00938305 0.01192091 0.02312231 0.00235220 0.00163523 0.02692548 0.00495695 0.00201946 0.00367569 0.00136848 
0.02662331 0.01687640 0.00023529 0.00129580 0.00058015 0.00251609 0.00936304 0.01248792 0.02372495 0.00242758 0.00165134 0.02706827 0.00478384 0.00200798 0.00368713 0.00136756 
0.02584672 0.01669409 0.00038795 0.00130702 0.00058346 0.00255992 0.00934777 0.01305012 0.02432740 0.00250284 0.00166962 0.02721183 0.00461695 0.00199788 0.00370004 0.00136649 
0.02516436 0.01656221 0.00052555 0.00131988 0.00058665 0.00260406 0.00933699 0.01360562 0.02492773 0.00257772 0.00169002 0.02735567 0.00445677 0.00198925 0.00371451 0.00136529 
0.02458270 0.01648205 0.00064738 0.00133442 0.00058969 0.00264838 0.00933043 0.01415259 0.02552395 0.00265196 0.00171246 0.02749929 0.00430377 0.00198217 0.00373059 0.00136396 
0.02410771 0.01645469 0.00075276 0.00135069 0.00059256 0.00269272 0.00932781 0.01468918 0.02611407 0.00272529 0.00173685 0.02764222 0.00415840 0.00197673 0.00374838 0.00136250 
0.02374481 0.01648108 0.00084097 0.00136871 0.00059525 0.00273693 0.00932882 0.01521358 0.02669605 0.00279745 0.00176310 0.02778397 0.00402111 0.00197299 0.00376793 0.00136092 
0.02349884 0.01656197 0.00091133 0.00138854 0.00059775 0.00278085 0.00933314 0.01572404 0.02726785 0.00286819 0.00179110 0.02792409 0.00389236 0.00197099 0.00378930 0.00135921 
0.02337405 0.01669794 0.00096312 0.00141019 0.00060005 0.00282431 0.00934046 0.01621882 0.02782742 0.00293727 0.00182073 0.02806215 0.00377257 0.00197080 0.00381254 0.00135740 
0.02337402 0.01688935 0.00099566 0.00143373 0.00060213 0.00286718 0.00935045 0.01669627 0.02837272 0.00300442 0.00185186 0.02819773 0.00366215 0.00197244 0.00383768 0.00135548 
0.02350167 0.01713638 0.00100826 0.00145916 0.00060401 0.00290928 0.00936279 0.01715478 0.02890169 0.00306942 0.00188435 0.02833045 0.00356153 0.00197593 0.00386477 0.00135346 
0.02375924 0.01743902 0.00100023 0.00148653 0.00060566 0.00295048 0.00937713 0.01759282 0.02941233 0.00313205 0.00191803 0.02845998 0.00347111 0.00198130 0.00389381 0.00135135 
0.02414824 0.01779702 0.00097091 0.00151587 0.00060710 0.00299061 0.00939317 0.01800893 0.02990262 0.00319207 0.00195277 0.02858599 0.00339125 0.00198854 0.00392482 0.00134915 
0.02466948 0.01820995 0.00091964 0.00154719 0.00060833 0.00302952 0.00941060 0.01840174 0.03037060 0.00324929 0.00198839 0.02870824 0.00332235 0.00199765 0.00395779 0.00134687 
0.02532303 0.01867716 0.00084580 0.00158050 0.00060935 0.00306708 0.00942912 0.01876998 0.03081434 0.00330351 0.00202472 0.02882651 0.00326474 0.00200861 0.00399271 0.00134452 
0.02610823 0.01919779 0.00074877 0.00161583 0.00061017 0.00310313 0.00944844 0.01911247 0.03123198 0.00335455 0.00206159 0.02894063 0.00321878 0.00202139 0.00402954 0.00134210 
0.02702369 0.01977076 0.00062797 0.00165317 0.00061081 0.00313755 0.00946830 0.01942812 0.03162168 0.00340223 0.00209882 0.02905049 0.00318478 0.00203596 0.00406826 0.00133963 
0.02806726 0.02039479 0.00048285 0.00169252 0.00061127 0.00317020 0.00948846 0.01971596 0.03198169 0.00344641 0.00213622 0.02915604 0.00316304 0.00205226 0.00410880 0.00133710 
0.02923609 0.02106840 0.00031290 0.00173387 0.00061156 0.00320094 0.00950869 0.01997514 0.03231033 0.00348693 0.00217362 0.02925728 0.00315384 0.00207023 0.00415110 0.00133453 
0.03052663 0.02178991 0.00011764 0.00177718 0.00061171 0.00322967 0.00952879 0.02020491 0.03260600 0.00352369 0.00221082 0.02935427 0.00315745 0.00208980 0.00419507 0.00133192 
0.03193461 0.02255743 0.00010334 0.00182244 0.00061174 0.00325626 0.00954859 0.02040466 0.03286719 0.00355657 0.00224765 0.02944713 0.00317409 0.00211090 0.00424061 0.00132928 
0.03345509 0.02336891 0.00035042 0.00186960 0.00061165 0.00328062 0.00956794 0.02057388 0.03309247 0.00358547 0.00228392 0.02953604 0.00320396 0.00213344 0.00428762 0.00132662 
0.03508251 0.02422209 0.00062392 0.00191861 0.00061148 0.00330263 0.00958672 0.02071219 0.03328053 0.00361034 0.00231946 0.02962123 0.00324726 0.00215731 0.00433597 0.00132394 
0.03681064 0.02511457 0.00092409 0.00196941 0.00061124 0.00332221 0.00960484 0.02081935 0.03343016 0.00363111 0.00235410 0.02970302 0.00330413 0.00218243 0.00438553 0.00132126 
0.03863271 0.02604377 0.00125110 0.00202193 0.00061096 0.00333927 0.00962222 0.02089524 0.03354028 0.00364774 0.00238766 0.02978173 0.00337469 0.00220867 0.00443613 0.00131858 
0.04054138 0.02700696 0.00160508 0.00207608 0.00061066 0.00335374 0.00963883 0.02093987 0.03360990 0.00366021 0.00241998 0.02985778 0.00345902 0.00223592 0.00448762 0.00131590 
