0.09015732 0.03715610 0.01175858 0.00257624 0.00081377 0.00149193 0.01588052 0.00167694 0.02308863 0.00231268 0.00444349 0.07068106 0.00421436 0.00307256 0.00450162 0.00117049 
0.08976560 0.03674607 0.01146145 0.00254381 0.00081811 0.00146385 0.01604264 0.00169381 0.02295163 0.00230337 0.00447483 0.07119464 0.00418564 0.00306600 0.00457326 0.00117157 
0.08926971 0.03632898 0.01117212 0.00251117 0.00082209 0.00143698 0.01618501 0.00171813 0.02283050 0.00229319 0.00449948 0.07171926 0.00415680 0.00306696 0.00465632 0.00117352 
0.08867076 0.03590826 0.01089186 0.00247843 0.00082576 0.00141153 0.01630705 0.00175010 0.02272705 0.00228230 0.00451735 0.07225756 0.00412804 0.00307545 0.00475051 0.00117635 
0.08797030 0.03548736 0.01062189 0.00244572 0.00082915 0.00138771 0.01640828 0.00178984 0.02264295 0.00227084 0.00452837 0.07281204 0.00409954 0.00309148 0.00485548 0.00118003 
0.08717028 0.03506968 0.01036337 0.00241317 0.00083230 0.00136570 0.01648828 0.00183745 0.02257970 0.00225897 0.00453253 0.07338505 0.00407147 0.00311501 0.00497079 0.00118454 
0.08627307 0.03465864 0.01011740 0.00238090 0.00083525 0.00134570 0.01654673 0.00189296 0.02253865 0.00224682 0.00452981 0.07397879 0.00404401 0.00314593 0.00509599 0.00118987 
0.08528144 0.03425758 0.00988503 0.00234905 0.00083805 0.00132786 0.01658339 0.00195641 0.02252096 0.00223456 0.00452026 0.07459524 0.00401730 0.00318413 0.00523053 0.00119598 
0.08419853 0.03386977 0.00966723 0.00231772 0.00084075 0.00131236 0.01659813 0.00202774 0.02252761 0.00222232 0.00450394 0.07523617 0.00399149 0.00322945 0.00537383 0.00120284 
0.08302782 0.03349838 0.00946491 0.00228706 0.00084339 0.00129933 0.01659090 0.00210687 0.02255938 0.00221024 0.00448096 0.07590312 0.00396672 0.00328166 0.00552527 0.00121041 
0.08177315 0.03314650 0.00927891 0.00225716 0.00084603 0.00128892 0.01656176 0.00219370 0.02261684 0.00219847 0.00445145 0.07659740 0.00394312 0.00334054 0.00568418 0.00121866 
0.08043866 0.03281705 0.00910998 0.00222814 0.00084872 0.00128124 0.01651087 0.00228803 0.02270035 0.00218715 0.00441559 0.07732001 0.00392078 0.00340581 0.00584985 0.00122755 
0.07902877 0.03251283 0.00895883 0.00220012 0.00085150 0.00127638 0.01643847 0.00238968 0.02281006 0.00217640 0.00437356 0.07807171 0.00389982 0.00347716 0.00602152 0.00123702 
0.07754819 0.03223645 0.00882605 0.00217320 0.00085443 0.00127445 0.01634492 0.00249837 0.02294588 0.00216634 0.00432562 0.07885296 0.00388030 0.00355424 0.00619843 0.00124705 
0.07600183 0.03199035 0.00871218 0.00214748 0.00085756 0.00127550 0.01623068 0.00261382 0.02310751 0.00215710 0.00427201 0.07966391 0.00386229 0.00363670 0.00637977 0.00125756 
0.07439484 0.03177678 0.00861767 0.00212305 0.00086094 0.00127959 0.01609628 0.00273568 0.02329442 0.00214879 0.00421303 0.08050440 0.00384585 0.00372414 0.00656472 0.00126853 
0.07273255 0.03159777 0.00854291 0.00209999 0.00086460 0.00128675 0.01594237 0.00286358 0.02350586 0.00214150 0.00414901 0.08137399 0.00383101 0.00381614 0.00675245 0.00127988 
0.07102042 0.03145511 0.00848819 0.00207840 0.00086860 0.00129700 0.01576968 0.00299709 0.02374087 0.00213534 0.00408028 0.08227190 0.00381780 0.00391226 0.00694212 0.00129158 
0.06926407 0.03135040 0.00845372 0.00205835 0.00087297 0.00131033 0.01557906 0.00313577 0.02399825 0.00213038 0.00400723 0.08319704 0.00380621 0.00401205 0.00713286 0.00130355 
0.06746920 0.03128495 0.00843965 0.00203989 0.00087775 0.00132672 0.01537140 0.00327913 0.02427660 0.00212671 0.00393024 0.08414801 0.00379624 0.00411503 0.00732384 0.00131576 
0.06564159 0.03125986 0.00844605 0.00202309 0.00088298 0.00134614 0.01514770 0.00342666 0.02457433 0.00212438 0.00384973 0.08512312 0.00378785 0.00422073 0.00751421 0.00132813 
0.06378705 0.03127594 0.00847292 0.00200801 0.00088868 0.00136853 0.01490905 0.00357779 0.02488964 0.00212346 0.00376613 0.08612036 0.00378102 0.00432866 0.00770314 0.00134061 
0.06191143 0.03133376 0.00852016 0.00199467 0.00089488 0.00139381 0.01465659 0.00373197 0.02522056 0.00212399 0.00367990 0.08713744 0.00377569 0.00443831 0.00788983 0.00135316 
0.06002054 0.03143362 0.00858764 0.00198312 0.00090160 0.00142190 0.01439153 0.00388860 0.02556495 0.00212601 0.00359149 0.08817182 0.00377178 0.00454921 0.00807347 0.00136569 
0.05812019 0.03157556 0.00867514 0.00197338 0.00090886 0.00145267 0.01411515 0.00404706 0.02592049 0.00212954 0.00350139 0.08922065 0.00376923 0.00466084 0.00825330 0.00137818 
0.05621610 0.03175935 0.00878237 0.00196546 0.00091665 0.00148602 0.01382879 0.00420672 0.02628476 0.00213459 0.00341008 0.09028089 0.00376792 0.00477272 0.00842861 0.00139055 
0.05431392 0.03198449 0.00890899 0.00195938 0.00092500 0.00152179 0.01353384 0.00436693 0.02665518 0.00214117 0.00331805 0.09134923 0.00376778 0.00488438 0.00859868 0.00140275 
0.05241920 0.03225024 0.00905460 0.00195512 0.00093389 0.00155984 0.01323173 0.00452706 0.02702910 0.00214926 0.00322579 0.09242218 0.00376867 0.00499535 0.00876286 0.00141473 
0.05053736 0.03255560 0.00921874 0.00195269 0.00094332 0.00160000 0.01292390 0.00468643 0.02740375 0.00215886 0.00313380 0.09349607 0.00377048 0.00510517 0.00892055 0.00142645 
0.04867368 0.03289932 0.00940088 0.00195205 0.00095328 0.00164210 0.01261187 0.00484439 0.02777632 0.00216993 0.00304258 0.09456708 0.00377309 0.00521340 0.00907119 0.00143784 
0.04683327 0.03327993 0.00960047 0.00195318 0.00096374 0.00168593 0.01229714 0.00500029 0.02814394 0.00218244 0.00295261 0.09563123 0.00377635 0.00531964 0.00921427 0.00144887 
0.04502106 0.03369570 0.00981689 0.00195604 0.00097469 0.00173131 0.01198124 0.00515347 0.02850373 0.00219633 0.00286439 0.09668447 0.00378012 0.00542349 0.00934933 0.00145949 
0.04324180 0.03414472 0.01004949 0.00196059 0.00098608 0.00177801 0.01166570 0.00530330 0.02885279 0.00221156 0.00277837 0.09772266 0.00378428 0.00552459 0.00947599 0.00146966 
0.04150002 0.03462486 0.01029756 0.00196678 0.00099788 0.00182584 0.01135204 0.00544916 0.02918826 0.00222804 0.00269503 0.09874163 0.00378866 0.00562261 0.00959389 0.00147934 
0.03980006 0.03513381 0.01056038 0.00197454 0.00101005 0.00187456 0.01104180 0.00559044 0.02950732 0.00224572 0.00261481 0.09973719 0.00379313 0.00571723 0.00970278 0.00148848 
0.03814599 0.03566907 0.01083717 0.00198380 0.00102254 0.00192395 0.01073647 0.00572656 0.02980723 0.00226450 0.00253814 0.10070514 0.00379753 0.00580819 0.00980244 0.00149707 
0.03654168 0.03622799 0.01112712 0.00199449 0.00103529 0.00197378 0.01043753 0.00585695 0.03008531 0.00228431 0.00246543 0.10164139 0.00380174 0.00589525 0.00989272 0.00150507 
0.03499076 0.03680780 0.01142941 0.00200652 0.00104824 0.00202381 0.01014641 0.00598109 0.03033903 0.00230504 0.00239706 0.10254186 0.00380561 0.00597821 0.00997354 0.00151246 
0.03349660 0.03740557 0.01174319 0.00201982 0.00106134 0.00207383 0.00986453 0.00609849 0.03056599 0.00232659 0.00233341 0.10340264 0.00380901 0.00605690 0.01004488 0.00151920 
0.03206233 0.03801829 0.01206756 0.00203429 0.00107451 0.00212360 0.00959323 0.00620868 0.03076392 0.00234886 0.00227481 0.10421992 0.00381180 0.00613120 0.01010680 0.00152528 
0.03069085 0.03864285 0.01240163 0.00204982 0.00108768 0.00217289 0.00933382 0.00631124 0.03093076 0.00237174 0.00222156 0.10499009 0.00381388 0.00620101 0.01015939 0.00153069 
0.02938477 0.03927610 0.01274448 0.00206633 0.00110077 0.00222148 0.00908753 0.00640579 0.03106465 0.00239512 0.00217396 0.10570973 0.00381513 0.00626629 0.01020284 0.00153542 
0.02814651 0.03991481 0.01309517 0.00208370 0.00111370 0.00226915 0.00885552 0.00649199 0.03116394 0.00241887 0.00213225 0.10637564 0.00381545 0.00632702 0.01023737 0.00153944 
0.02697819 0.04055573 0.01345277 0.00210183 0.00112640 0.00231570 0.00863890 0.00656954 0.03122720 0.00244288 0.00209665 0.10698488 0.00381476 0.00638323 0.01026328 0.00154276 
0.02588175 0.04119561 0.01381630 0.00212061 0.00113877 0.00236092 0.00843867 0.00663820 0.03125327 0.00246703 0.00206735 0.10753480 0.00381296 0.00643498 0.01028090 0.00154538 
0.02485884 0.04183121 0.01418481 0.00213993 0.00115074 0.00240463 0.00825577 0.00669778 0.03124127 0.00249120 0.00204449 0.10802305 0.00381001 0.00648237 0.01029064 0.00154730 
0.02391093 0.04245932 0.01455732 0.00215967 0.00116221 0.00244663 0.00809102 0.00674812 0.03119058 0.00251528 0.00202820 0.10844760 0.00380584 0.00652554 0.01029294 0.00154852 
0.02303925 0.04307677 0.01493285 0.00217973 0.00117310 0.00248676 0.00794519 0.00678912 0.03110085 0.00253913 0.00201854 0.10880678 0.00380043 0.00656465 0.01028830 0.00154905 
0.02224481 0.04368046 0.01531041 0.00219999 0.00118333 0.00252487 0.00781890 0.00682075 0.03097207 0.00256264 0.00201558 0.10909925 0.00379374 0.00659989 0.01027725 0.00154890 
0.02152845 0.04426738 0.01568904 0.00222035 0.00119280 0.00256081 0.00771270 0.00684301 0.03080451 0.00258571 0.00201931 0.10932408 0.00378577 0.00663151 0.01026036 0.00154809 
0.02089078 0.04483462 0.01606773 0.00224069 0.00120144 0.00259445 0.00762704 0.00685596 0.03059876 0.00260821 0.00202970 0.10948073 0.00377653 0.00665976 0.01023823 0.00154663 
0.02033225 0.04537938 0.01644552 0.00226090 0.00120916 0.00262568 0.00756223 0.00685969 0.03035570 0.00263004 0.00204670 0.10956903 0.00376604 0.00668491 0.01021150 0.00154454 
0.01985314 0.04589901 0.01682142 0.00228090 0.00121590 0.00265441 0.00751851 0.00685438 0.03007653 0.00265110 0.00207021 0.10958923 0.00375434 0.00670727 0.01018082 0.00154184 
0.01945356 0.04639099 0.01719446 0.00230057 0.00122156 0.00268054 0.00749599 0.00684023 0.02976278 0.00267128 0.00210008 0.10954201 0.00374147 0.00672716 0.01014686 0.00153857 
0.01913347 0.04685296 0.01756368 0.00231983 0.00122609 0.00270402 0.00749468 0.00681749 0.02941625 0.00269049 0.00213617 0.10942844 0.00372751 0.00674492 0.01011031 0.00153474 
0.01889268 0.04728275 0.01792811 0.00233858 0.00122941 0.00272481 0.00751446 0.00678647 0.02903905 0.00270864 0.00217826 0.10925001 0.00371254 0.00676089 0.01007187 0.00153039 
0.01873089 0.04767834 0.01828682 0.00235673 0.00123147 0.00274286 0.00755512 0.00674750 0.02863357 0.00272566 0.00222613 0.10900859 0.00369665 0.00677544 0.01003222 0.00152554 
0.01864766 0.04803794 0.01863886 0.00237422 0.00123222 0.00275817 0.00761634 0.00670097 0.02820247 0.00274146 0.00227952 0.10870650 0.00367995 0.00678892 0.00999207 0.00152022 
0.01864245 0.04835993 0.01898330 0.00239096 0.00123161 0.00277073 0.00769769 0.00664730 0.02774867 0.00275599 0.00233813 0.10834640 0.00366256 0.00680171 0.00995209 0.00151448 
0.01871462 0.04864291 0.01931925 0.00240689 0.00122959 0.00278058 0.00779863 0.00658694 0.02727534 0.00276916 0.00240166 0.10793134 0.00364462 0.00681417 0.00991297 0.00150835 
0.01886342 0.04888569 0.01964579 0.00242195 0.00122614 0.00278775 0.00791855 0.00652040 0.02678584 0.00278094 0.00246976 0.10746476 0.00362625 0.00682666 0.00987535 0.00150185 
0.01908803 0.04908729 0.01996208 0.00243609 0.00122124 0.00279228 0.00805670 0.00644818 0.02628377 0.00279128 0.00254208 0.10695039 0.00360762 0.00683952 0.00983986 0.00149504 
0.01938754 0.04924696 0.02026723 0.00244925 0.00121486 0.00279426 0.00821227 0.00637083 0.02577289 0.00280013 0.00261822 0.10639232 0.00358888 0.00685311 0.00980712 0.00148793 
0.01976100 0.04936415 0.02056043 0.00246141 0.00120701 0.00279375 0.00838434 0.00628891 0.02525709 0.00280747 0.00269779 0.10579492 0.00357020 0.00686773 0.00977769 0.00148058 
0.02020734 0.04943856 0.02084086 0.00247253 0.00119768 0.00279087 0.00857193 0.00620301 0.02474043 0.00281327 0.00278037 0.10516285 0.00355175 0.00688369 0.00975211 0.00147302 
0.02072547 0.04947009 0.02110775 0.00248259 0.00118688 0.00278571 0.00877397 0.00611372 0.02422703 0.00281752 0.00286553 0.10450100 0.00353370 0.00690129 0.00973087 0.00146528 
0.02131424 0.04945884 0.02136033 0.00249157 0.00117465 0.00277840 0.00898931 0.00602164 0.02372110 0.00282021 0.00295283 0.10381446 0.00351622 0.00692076 0.00971444 0.00145740 
0.02197241 0.04940516 0.02159789 0.00249946 0.00116100 0.00276907 0.00921676 0.00592739 0.02322689 0.00282132 0.00304182 0.10310855 0.00349950 0.00694235 0.00970321 0.00144942 
0.02269874 0.04930957 0.02181973 0.00250627 0.00114599 0.00275787 0.00945504 0.00583158 0.02274865 0.00282089 0.00313204 0.10238871 0.00348372 0.00696626 0.00969755 0.00144138 
0.02349189 0.04917282 0.02202520 0.00251201 0.00112966 0.00274496 0.00970285 0.00573482 0.02229061 0.00281890 0.00322304 0.10166050 0.00346904 0.00699264 0.00969777 0.00143330 
0.02435050 0.04899583 0.02221368 0.00251668 0.00111207 0.00273048 0.00995883 0.00563772 0.02185696 0.00281539 0.00331436 0.10092956 0.00345564 0.00702165 0.00970411 0.00142522 
0.02527313 0.04877973 0.02238459 0.00252031 0.00109329 0.00271461 0.01022158 0.00554086 0.02145180 0.00281038 0.00340553 0.10020160 0.00344368 0.00705336 0.00971678 0.00141718 
0.02625832 0.04852582 0.02253741 0.00252293 0.00107340 0.00269752 0.01048969 0.00544482 0.02107911 0.00280390 0.00349610 0.09948232 0.00343333 0.00708786 0.00973592 0.00140921 
0.02730452 0.04823555 0.02267164 0.00252457 0.00105249 0.00267938 0.01076170 0.00535017 0.02074272 0.00279599 0.00358564 0.09877739 0.00342474 0.00712515 0.00976161 0.00140133 
0.02841014 0.04791055 0.02278685 0.00252528 0.00103066 0.00266038 0.01103617 0.00525745 0.02044629 0.00278669 0.00367369 0.09809244 0.00341805 0.00716522 0.00979389 0.00139358 
0.02957352 0.04755258 0.02288263 0.00252510 0.00100801 0.00264070 0.01131163 0.00516717 0.02019329 0.00277605 0.00375984 0.09743298 0.00341339 0.00720801 0.00983273 0.00138598 
0.03079292 0.04716356 0.02295866 0.00252409 0.00098466 0.00262051 0.01158664 0.00507982 0.01998693 0.00276412 0.00384367 0.09680439 0.00341088 0.00725344 0.00987805 0.00137856 
0.03206654 0.04674550 0.02301466 0.00252231 0.00096073 0.00260000 0.01185973 0.00499585 0.01983017 0.00275097 0.00392479 0.09621188 0.00341063 0.00730136 0.00992970 0.00137133 
0.03339250 0.04630054 0.02305038 0.00251983 0.00093634 0.00257934 0.01212949 0.00491571 0.01972569 0.00273664 0.00400282 0.09566044 0.00341273 0.00735160 0.00998749 0.00136433 
0.03476882 0.04583092 0.02306567 0.00251671 0.00091163 0.00255872 0.01239451 0.00483976 0.01967586 0.00272122 0.00407740 0.09515485 0.00341727 0.00740396 0.01005119 0.00135758 
0.03619343 0.04533896 0.02306041 0.00251302 0.00088674 0.00253829 0.01265343 0.00476837 0.01968272 0.00270475 0.00414819 0.09469958 0.00342430 0.00745819 0.01012050 0.00135108 
0.03766417 0.04482706 0.02303455 0.00250884 0.00086181 0.00251823 0.01290492 0.00470185 0.01974796 0.00268732 0.00421489 0.09429882 0.00343388 0.00751401 0.01019507 0.00134486 
0.03917877 0.04429767 0.02298812 0.00250425 0.00083700 0.00249868 0.01314771 0.00464048 0.01987289 0.00266899 0.00427721 0.09395642 0.00344603 0.00757112 0.01027454 0.00133893 
0.04073483 0.04375330 0.02292119 0.00249934 0.00081245 0.00247981 0.01338057 0.00458448 0.02005848 0.00264984 0.00433488 0.09367588 0.00346078 0.00762916 0.01035846 0.00133330 
0.04232986 0.04319648 0.02283390 0.00249419 0.00078832 0.00246174 0.01360235 0.00453406 0.02030525 0.00262995 0.00438768 0.09346031 0.00347810 0.00768778 0.01044639 0.00132799 
0.04396123 0.04262978 0.02272645 0.00248888 0.00076477 0.00244462 0.01381195 0.00448935 0.02061338 0.00260939 0.00443538 0.09331240 0.00349799 0.00774658 0.01053784 0.00132300 
0.04562617 0.04205576 0.02259912 0.00248351 0.00074196 0.00242857 0.01400835 0.00445046 0.02098261 0.00258824 0.00447783 0.09323444 0.00352040 0.00780516 0.01063227 0.00131834 
0.04732178 0.04147701 0.02245225 0.00247815 0.00072004 0.00241368 0.01419061 0.00441747 0.02141226 0.00256657 0.00451487 0.09322826 0.00354528 0.00786308 0.01072914 0.00131401 
0.04904502 0.04089608 0.02228622 0.00247290 0.00069917 0.00240007 0.01435786 0.00439038 0.02190127 0.00254448 0.00454637 0.09329525 0.00357256 0.00791991 0.01082789 0.00131003 
0.05079271 0.04031550 0.02210151 0.00246785 0.00067951 0.00238783 0.01450934 0.00436920 0.02244816 0.00252202 0.00457227 0.09343634 0.00360215 0.00797520 0.01092793 0.00130638 
0.05256152 0.03973778 0.02189862 0.00246308 0.00066120 0.00237702 0.01464435 0.00435385 0.02305105 0.00249929 0.00459249 0.09365195 0.00363393 0.00802849 0.01102868 0.00130307 
0.05434797 0.03916537 0.02167814 0.00245867 0.00064441 0.00236770 0.01476231 0.00434426 0.02370767 0.00247635 0.00460702 0.09394207 0.00366780 0.00807933 0.01112953 0.00130010 
0.05614843 0.03860069 0.02144070 0.00245471 0.00062927 0.00235994 0.01486271 0.00434028 0.02441537 0.00245329 0.00461584 0.09430618 0.00370361 0.00812726 0.01122988 0.00129747 
0.05795912 0.03804608 0.02118700 0.00245127 0.00061593 0.00235377 0.01494517 0.00434175 0.02517113 0.00243017 0.00461901 0.09474330 0.00374122 0.00817183 0.01132913 0.00129517 
0.05977611 0.03750381 0.02091776 0.00244845 0.00060451 0.00234921 0.01500938 0.00434849 0.02597159 0.00240708 0.00461656 0.09525197 0.00378048 0.00821261 0.01142671 0.00129319 
0.06159533 0.03697607 0.02063379 0.00244630 0.00059515 0.00234627 0.01505514 0.00436026 0.02681306 0.00238409 0.00460860 0.09583028 0.00382120 0.00824918 0.01152202 0.00129153 
0.06341258 0.03646497 0.02033590 0.00244490 0.00058796 0.00234496 0.01508236 0.00437682 0.02769156 0.00236125 0.00459524 0.09647585 0.00386321 0.00828115 0.01161451 0.00129018 
0.06522352 0.03597254 0.02002497 0.00244432 0.00058306 0.00234526 0.01509102 0.00439789 0.02860282 0.00233866 0.00457661 0.09718589 0.00390632 0.00830812 0.01170364 0.00128914 
0.06702367 0.03550068 0.01970191 0.00244461 0.00058055 0.00234715 0.01508122 0.00442318 0.02954232 0.00231636 0.00455288 0.09795719 0.00395034 0.00832976 0.01178890 0.00128839 
0.06880846 0.03505122 0.01936764 0.00244584 0.00058051 0.00235060 0.01505318 0.00445237 0.03050531 0.00229443 0.00452423 0.09878611 0.00399507 0.00834575 0.01186979 0.00128792 
0.07057319 0.03462586 0.01902314 0.00244804 0.00058303 0.00235556 0.01500716 0.00448516 0.03148688 0.00227293 0.00449088 0.09966868 0.00404030 0.00835579 0.01194588 0.00128772 
0.07231308 0.03422619 0.01866939 0.00245128 0.00058819 0.00236197 0.01494356 0.00452118 0.03248194 0.00225192 0.00445305 0.10060056 0.00408583 0.00835965 0.01201673 0.00128777 
0.07402327 0.03385368 0.01830737 0.00245558 0.00059603 0.00236978 0.01486286 0.00456011 0.03348528 0.00223146 0.00441098 0.10157710 0.00413146 0.00835712 0.01208197 0.00128808 
0.07569883 0.03350969 0.01793812 0.00246098 0.00060661 0.00237890 0.01476560 0.00460160 0.03449163 0.00221160 0.00436494 0.10259336 0.00417698 0.00834804 0.01214126 0.00128861 
0.07733479 0.03319545 0.01756263 0.00246751 0.00061996 0.00238927 0.01465245 0.00464529 0.03549564 0.00219241 0.00431520 0.10364415 0.00422218 0.00833229 0.01219431 0.00128936 
0.07892614 0.03291206 0.01718192 0.00247518 0.00063610 0.00240078 0.01452411 0.00469084 0.03649197 0.00217392 0.00426205 0.10472404 0.00426689 0.00830980 0.01224087 0.00129032 
0.08046787 0.03266050 0.01679701 0.00248401 0.00065504 0.00241336 0.01438140 0.00473791 0.03747530 0.00215620 0.00420578 0.10582744 0.00431089 0.00828056 0.01228072 0.00129147 
0.08195497 0.03244160 0.01640889 0.00249401 0.00067678 0.00242690 0.01422516 0.00478616 0.03844036 0.00213929 0.00414671 0.10694860 0.00435403 0.00824459 0.01231372 0.00129280 
0.08338246 0.03225609 0.01601853 0.00250518 0.00070130 0.00244129 0.01405635 0.00483527 0.03938201 0.00212323 0.00408515 0.10808166 0.00439611 0.00820197 0.01233976 0.00129428 
0.08474542 0.03210454 0.01562691 0.00251750 0.00072857 0.00245644 0.01387595 0.00488494 0.04029521 0.00210807 0.00402142 0.10922069 0.00443698 0.00815284 0.01235877 0.00129592 
0.08603900 0.03198740 0.01523495 0.00253097 0.00075853 0.00247224 0.01368501 0.00493488 0.04117514 0.00209385 0.00395583 0.11035972 0.00447650 0.00809739 0.01237076 0.00129768 
0.08725847 0.03190499 0.01484356 0.00254555 0.00079115 0.00248857 0.01348461 0.00498481 0.04201714 0.00208060 0.00388870 0.11149278 0.00451452 0.00803585 0.01237575 0.00129956 
0.08839919 0.03185749 0.01445361 0.00256123 0.00082633 0.00250534 0.01327589 0.00503448 0.04281682 0.00206836 0.00382037 0.11261397 0.00455092 0.00796851 0.01237383 0.00130155 
0.08945669 0.03184495 0.01406591 0.00257797 0.00086401 0.00252243 0.01306002 0.00508366 0.04357005 0.00205717 0.00375114 0.11371744 0.00458559 0.00789570 0.01236513 0.00130363 
0.09042669 0.03186729 0.01368126 0.00259573 0.00090408 0.00253973 0.01283819 0.00513216 0.04427302 0.00204705 0.00368133 0.11479748 0.00461845 0.00781781 0.01234984 0.00130578 
0.09130507 0.03192431 0.01330039 0.00261445 0.00094644 0.00255714 0.01261164 0.00517979 0.04492224 0.00203803 0.00361125 0.11584852 0.00464942 0.00773528 0.01232816 0.00130799 
0.09208798 0.03201567 0.01292399 0.00263408 0.00099097 0.00257456 0.01238158 0.00522641 0.04551455 0.00203014 0.00354119 0.11686519 0.00467845 0.00764856 0.01230036 0.00131025 
0.09277178 0.03214090 0.01255269 0.00265457 0.00103754 0.00259190 0.01214928 0.00527190 0.04604722 0.00202340 0.00347145 0.11784235 0.00470548 0.00755818 0.01226674 0.00131255 
0.09335312 0.03229943 0.01218707 0.00267584 0.00108599 0.00260906 0.01191597 0.00531617 0.04651787 0.00201782 0.00340229 0.11877508 0.00473050 0.00746468 0.01222762 0.00131486 
0.09382895 0.03249055 0.01182766 0.00269782 0.00113619 0.00262595 0.01168290 0.00535914 0.04692455 0.00201343 0.00333400 0.11965878 0.00475351 0.00736864 0.01218338 0.00131719 
0.09419654 0.03271343 0.01147492 0.00272043 0.00118798 0.00264250 0.01145131 0.00540080 0.04726576 0.00201024 0.00326682 0.12048915 0.00477451 0.00727069 0.01213441 0.00131951 
0.09445349 0.03296714 0.01112926 0.00274360 0.00124117 0.00265862 0.01122242 0.00544113 0.04754040 0.00200825 0.00320099 0.12126220 0.00479353 0.00717144 0.01208113 0.00132182 
0.09459776 0.03325063 0.01079103 0.00276723 0.00129560 0.00267426 0.01099743 0.00548017 0.04774785 0.00200749 0.00313674 0.12197433 0.00481063 0.00707158 0.01202398 0.00132410 
0.09462771 0.03356275 0.01046051 0.00279123 0.00135108 0.00268936 0.01077750 0.00551796 0.04788792 0.00200794 0.00307427 0.12262230 0.00482585 0.00697175 0.01196342 0.00132634 
0.09454207 0.03390223 0.01013796 0.00281551 0.00140743 0.00270385 0.01056378 0.00555458 0.04796088 0.00200961 0.00301378 0.12320326 0.00483927 0.00687267 0.01189993 0.00132854 
0.09434000 0.03426772 0.00982353 0.00283997 0.00146443 0.00271770 0.01035736 0.00559014 0.04796744 0.00201250 0.00295544 0.12371477 0.00485100 0.00677500 0.01183399 0.00133068 
0.09402107 0.03465777 0.00951737 0.00286451 0.00152190 0.00273088 0.01015930 0.00562476 0.04790877 0.00201661 0.00289940 0.12415479 0.00486111 0.00667946 0.01176610 0.00133275 
0.09358531 0.03507086 0.00921954 0.00288902 0.00157963 0.00274335 0.00997060 0.00565859 0.04778646 0.00202191 0.00284580 0.12452172 0.00486974 0.00658673 0.01169675 0.00133474 
0.09303318 0.03550536 0.00893008 0.00291340 0.00163741 0.00275510 0.00979222 0.00569180 0.04760251 0.00202841 0.00279476 0.12481439 0.00487700 0.00649748 0.01162644 0.00133664 
0.09236561 0.03595958 0.00864895 0.00293754 0.00169504 0.00276612 0.00962506 0.00572459 0.04735935 0.00203607 0.00274639 0.12503202 0.00488302 0.00641240 0.01155566 0.00133846 
0.09158395 0.03643176 0.00837611 0.00296134 0.00175231 0.00277639 0.00946994 0.00575714 0.04705977 0.00204488 0.00270076 0.12517430 0.00488794 0.00633213 0.01148489 0.00134017 
0.09069007 0.03692008 0.00811144 0.00298469 0.00180900 0.00278594 0.00932764 0.00578967 0.04670695 0.00205482 0.00265794 0.12524132 0.00489190 0.00625728 0.01141460 0.00134177 
0.08968625 0.03742266 0.00785483 0.00300747 0.00186491 0.00279477 0.00919885 0.00582241 0.04630439 0.00206586 0.00261798 0.12523357 0.00489505 0.00618847 0.01134524 0.00134325 
0.08857527 0.03793758 0.00760611 0.00302959 0.00191983 0.00280289 0.00908421 0.00585559 0.04585590 0.00207795 0.00258089 0.12515195 0.00489754 0.00612624 0.01127726 0.00134461 
0.08736032 0.03846289 0.00736509 0.00305093 0.00197357 0.00281035 0.00898425 0.00588943 0.04536560 0.00209108 0.00254671 0.12499775 0.00489952 0.00607113 0.01121107 0.00134584 
0.08604509 0.03899657 0.00713158 0.00307140 0.00202592 0.00281716 0.00889947 0.00592418 0.04483783 0.00210518 0.00251540 0.12477262 0.00490112 0.00602361 0.01114706 0.00134693 
0.08463366 0.03953663 0.00690536 0.00309089 0.00207669 0.00282337 0.00883025 0.00596007 0.04427716 0.00212022 0.00248697 0.12447858 0.00490249 0.00598412 0.01108559 0.00134789 
0.08313056 0.04008104 0.00668620 0.00310931 0.00212569 0.00282902 0.00877692 0.00599733 0.04368835 0.00213616 0.00246136 0.12411796 0.00490376 0.00595305 0.01102701 0.00134870 
0.08154072 0.04062775 0.00647388 0.00312655 0.00217273 0.00283415 0.00873971 0.00603618 0.04307631 0.00215292 0.00243853 0.12369340 0.00490507 0.00593073 0.01097162 0.00134936 
0.07986946 0.04117476 0.00626816 0.00314253 0.00221765 0.00283882 0.00871877 0.00607682 0.04244605 0.00217047 0.00241840 0.12320784 0.00490651 0.00591743 0.01091969 0.00134987 
0.07812248 0.04172004 0.00606885 0.00315717 0.00226026 0.00284308 0.00871418 0.00611945 0.04180265 0.00218873 0.00240091 0.12266445 0.00490821 0.00591337 0.01087147 0.00135022 
0.07630581 0.04226161 0.00587572 0.00317037 0.00230042 0.00284699 0.00872592 0.00616426 0.04115124 0.00220764 0.00238596 0.12206666 0.00491025 0.00591871 0.01082717 0.00135042 
0.07442582 0.04279752 0.00568860 0.00318206 0.00233797 0.00285060 0.00875390 0.00621140 0.04049692 0.00222714 0.00237344 0.12141807 0.00491271 0.00593354 0.01078695 0.00135045 
0.07248917 0.04332587 0.00550732 0.00319218 0.00237277 0.00285397 0.00879795 0.00626101 0.03984477 0.00224715 0.00236325 0.12072247 0.00491565 0.00595790 0.01075095 0.00135033 
0.07050280 0.04384479 0.00533175 0.00320064 0.00240469 0.00285715 0.00885780 0.00631321 0.03919979 0.00226760 0.00235526 0.11998379 0.00491912 0.00599174 0.01071928 0.00135004 
0.06847387 0.04435251 0.00516178 0.00320741 0.00243361 0.00286020 0.00893314 0.00636809 0.03856685 0.00228841 0.00234935 0.11920606 0.00492314 0.00603498 0.01069200 0.00134959 
0.06640976 0.04484730 0.00499735 0.00321242 0.00245941 0.00286318 0.00902355 0.00642571 0.03795067 0.00230950 0.00234537 0.11839339 0.00492772 0.00608744 0.01066915 0.00134897 
0.06431801 0.04532753 0.00483843 0.00321563 0.00248201 0.00286614 0.00912854 0.00648610 0.03735579 0.00233078 0.00234319 0.11754995 0.00493285 0.00614890 0.01065073 0.00134819 
0.06220631 0.04579166 0.00468502 0.00321700 0.00250130 0.00286912 0.00924756 0.00654927 0.03678650 0.00235218 0.00234267 0.11667993 0.00493849 0.00621907 0.01063671 0.00134726 
0.06008244 0.04623825 0.00453720 0.00321650 0.00251721 0.00287217 0.00937999 0.00661519 0.03624688 0.00237361 0.00234364 0.11578748 0.00494461 0.00629760 0.01062703 0.00134616 
0.05795425 0.04666597 0.00439506 0.00321410 0.00252968 0.00287532 0.00952514 0.00668379 0.03574070 0.00239497 0.00234597 0.11487675 0.00495111 0.00638409 0.01062159 0.00134491 
0.05582962 0.04707360 0.00425876 0.00320980 0.00253867 0.00287861 0.00968224 0.00675499 0.03527143 0.00241618 0.00234949 0.11395180 0.00495792 0.00647806 0.01062030 0.00134351 
0.05371641 0.04746006 0.00412850 0.00320358 0.00254411 0.00288207 0.00985051 0.00682865 0.03484221 0.00243716 0.00235405 0.11301660 0.00496492 0.00657900 0.01062299 0.00134195 
0.05162244 0.04782438 0.00400455 0.00319545 0.00254600 0.00288571 0.01002906 0.00690462 0.03445581 0.00245780 0.00235949 0.11207500 0.00497198 0.00668635 0.01062952 0.00134026 
0.04955545 0.04816574 0.00388721 0.00318541 0.00254432 0.00288956 0.01021700 0.00698270 0.03411465 0.00247803 0.00236568 0.11113072 0.00497894 0.00679947 0.01063969 0.00133842 
0.04752302 0.04848346 0.00377683 0.00317348 0.00253905 0.00289362 0.01041335 0.00706266 0.03382076 0.00249775 0.00237245 0.11018729 0.00498565 0.00691773 0.01065333 0.00133645 
0.04553261 0.04877701 0.00367383 0.00315969 0.00253021 0.00289788 0.01061712 0.00714426 0.03357574 0.00251688 0.00237966 0.10924809 0.00499192 0.00704043 0.01067020 0.00133435 
0.04359145 0.04904600 0.00357865 0.00314407 0.00251783 0.00290235 0.01082729 0.00722721 0.03338082 0.00253533 0.00238716 0.10831626 0.00499756 0.00716683 0.01069009 0.00133214 
0.04170653 0.04929022 0.00349180 0.00312666 0.00250193 0.00290699 0.01104278 0.00731119 0.03323678 0.00255301 0.00239483 0.10739477 0.00500234 0.00729619 0.01071277 0.00132981 
0.03988460 0.04950958 0.00341381 0.00310752 0.00248256 0.00291180 0.01126251 0.00739587 0.03314401 0.00256985 0.00240253 0.10648630 0.00500607 0.00742773 0.01073800 0.00132738 
0.03813208 0.04970416 0.00334528 0.00308669 0.00245977 0.00291674 0.01148538 0.00748088 0.03310245 0.00258577 0.00241013 0.10559334 0.00500849 0.00756066 0.01076554 0.00132485 
0.03645505 0.04987422 0.00328681 0.00306424 0.00243363 0.00292177 0.01171026 0.00756583 0.03311166 0.00260069 0.00241751 0.10471810 0.00500938 0.00769416 0.01079515 0.00132224 
0.03485923 0.05002013 0.00323905 0.00304024 0.00240422 0.00292684 0.01193603 0.00765033 0.03317077 0.00261453 0.00242457 0.10386253 0.00500850 0.00782744 0.01082659 0.00131955 
0.03334993 0.05014245 0.00320268 0.00301478 0.00237164 0.00293190 0.01216157 0.00773395 0.03327851 0.00262724 0.00243121 0.10302833 0.00500559 0.00795967 0.01085963 0.00131680 
0.03193206 0.05024187 0.00317838 0.00298794 0.00233597 0.00293689 0.01238574 0.00781626 0.03343325 0.00263875 0.00243732 0.10221692 0.00500043 0.00809005 0.01089405 0.00131400 
0.03061006 0.05031923 0.00316688 0.00295981 0.00229733 0.00294174 0.01260744 0.00789681 0.03363296 0.00264899 0.00244281 0.10142946 0.00499277 0.00821778 0.01092962 0.00131115 
0.02938790 0.05037550 0.00316888 0.00293049 0.00225584 0.00294638 0.01282556 0.00797516 0.03387528 0.00265793 0.00244763 0.10066685 0.00498237 0.00834210 0.01096615 0.00130828 
0.02826907 0.05041181 0.00318511 0.00290009 0.00221163 0.00295073 0.01303903 0.00805085 0.03415753 0.00266551 0.00245169 0.09992970 0.00496901 0.00846223 0.01100345 0.00130538 
0.02725653 0.05042938 0.00321629 0.00286870 0.00216483 0.00295471 0.01324681 0.00812343 0.03447669 0.00267168 0.00245493 0.09921841 0.00495248 0.00857745 0.01104133 0.00130249 
0.02635275 0.05042956 0.00326313 0.00283646 0.00211560 0.00295823 0.01344786 0.00819245 0.03482950 0.00267643 0.00245731 0.09853310 0.00493256 0.00868706 0.01107965 0.00129960 
0.02555964 0.05041381 0.00332631 0.00280347 0.00206410 0.00296119 0.01364122 0.00825746 0.03521244 0.00267970 0.00245879 0.09787365 0.00490909 0.00879040 0.01111826 0.00129673 
0.02487857 0.05038368 0.00340650 0.00276987 0.00201047 0.00296352 0.01382594 0.00831804 0.03562175 0.00268149 0.00245934 0.09723974 0.00488188 0.00888686 0.01115705 0.00129390 
0.02431037 0.05034081 0.00350434 0.00273577 0.00195490 0.00296511 0.01400114 0.00837376 0.03605350 0.00268178 0.00245893 0.09663082 0.00485080 0.00897585 0.01119590 0.00129112 
0.02385531 0.05028689 0.00362042 0.00270131 0.00189757 0.00296587 0.01416598 0.00842423 0.03650359 0.00268055 0.00245755 0.09604613 0.00481572 0.00905686 0.01123473 0.00128841 
0.02351311 0.05022370 0.00375530 0.00266661 0.00183866 0.00296571 0.01431967 0.00846906 0.03696782 0.00267781 0.00245521 0.09548475 0.00477654 0.00912941 0.01127350 0.00128577 
0.02328295 0.05015305 0.00390947 0.00263182 0.00177836 0.00296453 0.01446151 0.00850792 0.03744186 0.00267356 0.00245190 0.09494557 0.00473320 0.00919310 0.01131214 0.00128321 
0.02316345 0.05007677 0.00408338 0.00259707 0.00171688 0.00296224 0.01459083 0.00854046 0.03792137 0.00266781 0.00244764 0.09442735 0.00468566 0.00924755 0.01135065 0.00128077 
0.02315272 0.04999672 0.00427739 0.00256249 0.00165441 0.00295876 0.01470706 0.00856639 0.03840194 0.00266058 0.00244245 0.09392871 0.00463391 0.00929249 0.01138901 0.00127844 
0.02324832 0.04991476 0.00449181 0.00252823 0.00159117 0.00295399 0.01480967 0.00858546 0.03887922 0.00265189 0.00243636 0.09344815 0.00457797 0.00932768 0.01142724 0.00127624 
0.02344733 0.04983272 0.00472687 0.00249442 0.00152737 0.00294786 0.01489823 0.00859743 0.03934887 0.00264178 0.00242940 0.09298411 0.00451791 0.00935295 0.01146537 0.00127418 
0.02374632 0.04975242 0.00498271 0.00246119 0.00146324 0.00294030 0.01497237 0.00860211 0.03980665 0.00263028 0.00242162 0.09253493 0.00445382 0.00936819 0.01150345 0.00127228 
0.02414139 0.04967564 0.00525939 0.00242867 0.00139898 0.00293124 0.01503181 0.00859936 0.04024842 0.00261745 0.00241308 0.09209890 0.00438582 0.00937338 0.01154154 0.00127055 
0.02462822 0.04960406 0.00555687 0.00239701 0.00133484 0.00292062 0.01507635 0.00858907 0.04067021 0.00260332 0.00240381 0.09167429 0.00431408 0.00936853 0.01157971 0.00126899 
0.02520204 0.04953934 0.00587502 0.00236633 0.00127103 0.00290839 0.01510586 0.00857117 0.04106817 0.00258795 0.00239389 0.09125935 0.00423881 0.00935374 0.01161805 0.00126762 
0.02585769 0.04948301 0.00621360 0.00233675 0.00120779 0.00289450 0.01512030 0.00854565 0.04143871 0.00257141 0.00238337 0.09085234 0.00416024 0.00932917 0.01165665 0.00126645 
0.02658966 0.04943652 0.00657229 0.00230840 0.00114536 0.00287892 0.01511971 0.00851253 0.04177843 0.00255376 0.00237233 0.09045155 0.00407864 0.00929502 0.01169561 0.00126548 
0.02739208 0.04940118 0.00695064 0.00228140 0.00108396 0.00286163 0.01510420 0.00847187 0.04208419 0.00253507 0.00236084 0.09005532 0.00399433 0.00925158 0.01173503 0.00126473 
0.02825881 0.04937821 0.00734812 0.00225586 0.00102384 0.00284262 0.01507399 0.00842380 0.04235312 0.00251541 0.00234897 0.08966204 0.00390763 0.00919918 0.01177502 0.00126419 
0.02918341 0.04936865 0.00776407 0.00223188 0.00096523 0.00282188 0.01502935 0.00836847 0.04258264 0.00249487 0.00233679 0.08927020 0.00381894 0.00913821 0.01181568 0.00126388 
0.03015923 0.04937341 0.00819775 0.00220957 0.00090836 0.00279942 0.01497065 0.00830608 0.04277050 0.00247352 0.00232439 0.08887836 0.00372864 0.00906911 0.01185713 0.00126381 
0.03117942 0.04939325 0.00864828 0.00218902 0.00085347 0.00277527 0.01489830 0.00823689 0.04291475 0.00245146 0.00231184 0.08848522 0.00363719 0.00899236 0.01189945 0.00126396 
0.03223698 0.04942874 0.00911471 0.00217033 0.00080080 0.00274945 0.01481283 0.00816119 0.04301378 0.00242876 0.00229922 0.08808958 0.00354503 0.00890850 0.01194274 0.00126435 
0.03332477 0.04948029 0.00959597 0.00215356 0.00075056 0.00272200 0.01471479 0.00807930 0.04306634 0.00240552 0.00228661 0.08769039 0.00345266 0.00881809 0.01198709 0.00126498 
0.03443560 0.04954813 0.01009089 0.00213880 0.00070299 0.00269300 0.01460484 0.00799159 0.04307150 0.00238182 0.00227409 0.08728674 0.00336058 0.00872174 0.01203257 0.00126584 
0.03556221 0.04963229 0.01059820 0.00212611 0.00065830 0.00266250 0.01448368 0.00789847 0.04302872 0.00235776 0.00226173 0.08687790 0.00326931 0.00862009 0.01207925 0.00126694 
0.03669736 0.04973263 0.01111657 0.00211554 0.00061673 0.00263057 0.01435206 0.00780037 0.04293780 0.00233343 0.00224961 0.08646326 0.00317942 0.00851379 0.01212716 0.00126826 
0.03783384 0.04984882 0.01164454 0.00210715 0.00057847 0.00259732 0.01421079 0.00769776 0.04279889 0.00230891 0.00223779 0.08604243 0.00309144 0.00840355 0.01217635 0.00126982 
0.03896451 0.04998034 0.01218059 0.00210096 0.00054374 0.00256284 0.01406074 0.00759115 0.04261250 0.00228431 0.00222634 0.08561517 0.00300594 0.00829004 0.01222682 0.00127159 
0.04008236 0.05012648 0.01272313 0.00209702 0.00051274 0.00252724 0.01390279 0.00748106 0.04237947 0.00225970 0.00221533 0.08518142 0.00292351 0.00817398 0.01227859 0.00127357 
0.04118050 0.05028637 0.01327050 0.00209533 0.00048564 0.00249064 0.01373790 0.00736801 0.04210100 0.00223518 0.00220482 0.08474131 0.00284471 0.00805609 0.01233162 0.00127576 
0.04225226 0.05045894 0.01382096 0.00209590 0.00046265 0.00245318 0.01356701 0.00725259 0.04177858 0.00221083 0.00219486 0.08429514 0.00277011 0.00793709 0.01238588 0.00127814 
0.04329117 0.05064297 0.01437274 0.00209875 0.00044393 0.00241498 0.01339113 0.00713536 0.04141402 0.00218674 0.00218551 0.08384339 0.00270028 0.00781768 0.01244130 0.00128071 
0.04429101 0.05083705 0.01492402 0.00210385 0.00042963 0.00237620 0.01321126 0.00701690 0.04100943 0.00216299 0.00217680 0.08338673 0.00263579 0.00769857 0.01249781 0.00128344 
0.04524586 0.05103966 0.01547292 0.00211118 0.00041992 0.00233698 0.01302842 0.00689781 0.04056719 0.00213965 0.00216879 0.08292598 0.00257718 0.00758044 0.01255531 0.00128632 
0.04615011 0.05124912 0.01601757 0.00212072 0.00041493 0.00229748 0.01284363 0.00677869 0.04008993 0.00211680 0.00216150 0.08246215 0.00252497 0.00746397 0.01261367 0.00128934 
0.04699848 0.05146363 0.01655605 0.00213243 0.00041478 0.00225787 0.01265792 0.00666011 0.03958051 0.00209451 0.00215496 0.08199638 0.00247968 0.00734979 0.01267277 0.00129248 
0.04778606 0.05168126 0.01708644 0.00214625 0.00041959 0.00221832 0.01247230 0.00654267 0.03904201 0.00207284 0.00214920 0.08152998 0.00244180 0.00723853 0.01273244 0.00129573 
0.04850835 0.05190000 0.01760683 0.00216213 0.00042945 0.00217898 0.01228777 0.00642695 0.03847769 0.00205186 0.00214424 0.08106438 0.00241178 0.00713078 0.01279252 0.00129906 
0.04916122 0.05211777 0.01811531 0.00218000 0.00044444 0.00214003 0.01210531 0.00631350 0.03789098 0.00203162 0.00214009 0.08060116 0.00239004 0.00702708 0.01285281 0.00130245 
0.04974100 0.05233241 0.01861000 0.00219979 0.00046462 0.00210164 0.01192587 0.00620287 0.03728542 0.00201218 0.00213676 0.08014197 0.00237699 0.00692795 0.01291312 0.00130589 
0.05024446 0.05254170 0.01908903 0.00222140 0.00049005 0.00206398 0.01175038 0.00609559 0.03666470 0.00199359 0.00213423 0.07968861 0.00237297 0.00683385 0.01297322 0.00130935 
0.05066882 0.05274343 0.01955057 0.00224475 0.00052075 0.00202722 0.01157971 0.00599214 0.03603255 0.00197588 0.00213252 0.07924293 0.00237829 0.00674522 0.01303290 0.00131280 
0.05101176 0.05293535 0.01999287 0.00226974 0.00055673 0.00199153 0.01141470 0.00589302 0.03539278 0.00195910 0.00213161 0.07880685 0.00239323 0.00666243 0.01309193 0.00131623 
0.05127146 0.05311524 0.02041421 0.00229626 0.00059798 0.00195707 0.01125615 0.00579864 0.03474924 0.00194328 0.00213149 0.07838237 0.00241801 0.00658581 0.01315006 0.00131962 
0.05144654 0.05328089 0.02081294 0.00232419 0.00064448 0.00192399 0.01110478 0.00570943 0.03410575 0.00192845 0.00213212 0.07797148 0.00245281 0.00651564 0.01320706 0.00132293 
0.05153614 0.05343016 0.02118748 0.00235342 0.00069617 0.00189245 0.01096128 0.00562576 0.03346612 0.00191463 0.00213349 0.07757623 0.00249774 0.00645214 0.01326268 0.00132614 
0.05153986 0.05356098 0.02153635 0.00238381 0.00075299 0.00186258 0.01082627 0.00554794 0.03283413 0.00190184 0.00213557 0.07719865 0.00255289 0.00639550 0.01331668 0.00132923 
0.05145778 0.05367134 0.02185815 0.00241525 0.00081485 0.00183454 0.01070029 0.00547629 0.03221347 0.00189010 0.00213833 0.07684074 0.00261827 0.00634583 0.01336883 0.00133218 
0.05129044 0.05375938 0.02215158 0.00244759 0.00088163 0.00180844 0.01058384 0.00541104 0.03160772 0.00187941 0.00214172 0.07650448 0.00269385 0.00630321 0.01341890 0.00133496 
0.05103887 0.05382333 0.02241545 0.00248071 0.00095320 0.00178439 0.01047732 0.00535241 0.03102037 0.00186979 0.00214570 0.07619180 0.00277954 0.00626765 0.01346666 0.00133755 
0.05070453 0.05386158 0.02264868 0.00251445 0.00102942 0.00176252 0.01038107 0.00530055 0.03045473 0.00186123 0.00215024 0.07590454 0.00287519 0.00623910 0.01351191 0.00133992 
0.05028932 0.05387266 0.02285031 0.00254868 0.00111010 0.00174291 0.01029538 0.00525559 0.02991400 0.00185373 0.00215528 0.07564445 0.00298060 0.00621750 0.01355445 0.00134206 
0.04979558 0.05385531 0.02301949 0.00258326 0.00119505 0.00172565 0.01022042 0.00521758 0.02940114 0.00184730 0.00216078 0.07541319 0.00309552 0.00620269 0.01359410 0.00134393 
0.04922602 0.05380843 0.02315553 0.00261804 0.00128405 0.00171080 0.01015633 0.00518656 0.02891897 0.00184191 0.00216668 0.07521227 0.00321964 0.00619449 0.01363070 0.00134553 
0.04858376 0.05373111 0.02325783 0.00265287 0.00137688 0.00169843 0.01010315 0.00516251 0.02847007 0.00183756 0.00217295 0.07504306 0.00335259 0.00619268 0.01366411 0.00134683 
0.04787229 0.05362270 0.02332596 0.00268763 0.00147326 0.00168858 0.01006086 0.00514535 0.02805679 0.00183424 0.00217953 0.07490681 0.00349395 0.00619698 0.01369421 0.00134780 
0.04709541 0.05348272 0.02335960 0.00272216 0.00157293 0.00168129 0.01002935 0.00513499 0.02768126 0.00183192 0.00218637 0.07480454 0.00364327 0.00620707 0.01372091 0.00134845 
0.04625726 0.05331095 0.02335858 0.00275634 0.00167559 0.00167656 0.01000847 0.00513126 0.02734536 0.00183060 0.00219341 0.07473714 0.00380003 0.00622261 0.01374414 0.00134874 
0.04536225 0.05310740 0.02332288 0.00279002 0.00178093 0.00167440 0.00999798 0.00513397 0.02705070 0.00183025 0.00220063 0.07470526 0.00396366 0.00624319 0.01376385 0.00134868 
0.04441506 0.05287233 0.02325261 0.00282307 0.00188862 0.00167481 0.00999758 0.00514290 0.02679867 0.00183085 0.00220796 0.07470937 0.00413357 0.00626842 0.01378003 0.00134823 
0.04342059 0.05260622 0.02314801 0.00285538 0.00199832 0.00167774 0.01000691 0.00515777 0.02659035 0.00183238 0.00221536 0.07474970 0.00430911 0.00629783 0.01379268 0.00134740 
0.04238396 0.05230984 0.02300947 0.00288682 0.00210967 0.00168317 0.01002557 0.00517827 0.02642659 0.00183483 0.00222280 0.07482628 0.00448960 0.00633096 0.01380186 0.00134618 
0.04131044 0.05198415 0.02283751 0.00291727 0.00222230 0.00169104 0.01005309 0.00520407 0.02630795 0.00183815 0.00223024 0.07493887 0.00467433 0.00636731 0.01380761 0.00134455 
0.04020546 0.05163041 0.02263279 0.00294663 0.00233582 0.00170128 0.01008896 0.00523481 0.02623475 0.00184235 0.00223764 0.07508702 0.00486257 0.00640638 0.01381004 0.00134252 
0.03907453 0.05125006 0.02239609 0.00297480 0.00244984 0.00171381 0.01013261 0.00527008 0.02620704 0.00184738 0.00224497 0.07527004 0.00505353 0.00644764 0.01380927 0.00134009 
0.03792327 0.05084482 0.02212832 0.00300168 0.00256396 0.00172854 0.01018348 0.00530949 0.02622460 0.00185324 0.00225222 0.07548696 0.00524645 0.00649055 0.01380544 0.00133725 
0.03675732 0.05041660 0.02183052 0.00302719 0.00267777 0.00174536 0.01024092 0.00535258 0.02628699 0.00185989 0.00225935 0.07573661 0.00544050 0.00653459 0.01379872 0.00133400 
0.03558235 0.04996755 0.02150384 0.00305125 0.00279086 0.00176416 0.01030430 0.00539891 0.02639351 0.00186733 0.00226636 0.07601754 0.00563488 0.00657921 0.01378931 0.00133036 
0.03440402 0.04949998 0.02114952 0.00307380 0.00290281 0.00178481 0.01037296 0.00544802 0.02654324 0.00187552 0.00227324 0.07632808 0.00582877 0.00662387 0.01377741 0.00132633 
0.03322792 0.04901644 0.02076893 0.00309477 0.00301319 0.00180716 0.01044620 0.00549943 0.02673502 0.00188446 0.00227997 0.07666632 0.00602133 0.00666805 0.01376327 0.00132193 
0.03205959 0.04851960 0.02036353 0.00311411 0.00312160 0.00183109 0.01052337 0.00555267 0.02696752 0.00189413 0.00228657 0.07703012 0.00621175 0.00671121 0.01374713 0.00131715 
0.03090446 0.04801232 0.01993486 0.00313178 0.00322760 0.00185642 0.01060376 0.00560725 0.02723917 0.00190451 0.00229304 0.07741713 0.00639920 0.00675285 0.01372925 0.00131203 
0.02976783 0.04749758 0.01948456 0.00314775 0.00333081 0.00188300 0.01068670 0.00566269 0.02754825 0.00191559 0.00229940 0.07782476 0.00658288 0.00679248 0.01370991 0.00130657 
0.02865483 0.04697849 0.01901432 0.00316201 0.00343079 0.00191067 0.01077153 0.00571852 0.02789288 0.00192735 0.00230566 0.07825027 0.00676201 0.00682961 0.01368939 0.00130079 
0.02757043 0.04645823 0.01852591 0.00317453 0.00352717 0.00193924 0.01085760 0.00577427 0.02827100 0.00193980 0.00231185 0.07869069 0.00693582 0.00686380 0.01366799 0.00129473 
0.02651938 0.04594009 0.01802115 0.00318531 0.00361955 0.00196855 0.01094428 0.00582950 0.02868043 0.00195291 0.00231800 0.07914292 0.00710356 0.00689461 0.01364599 0.00128840 
0.02550621 0.04542738 0.01750193 0.00319437 0.00370756 0.00199841 0.01103099 0.00588375 0.02911889 0.00196668 0.00232415 0.07960367 0.00726452 0.00692164 0.01362368 0.00128182 
0.02453520 0.04492348 0.01697014 0.00320172 0.00379083 0.00202864 0.01111717 0.00593661 0.02958397 0.00198110 0.00233035 0.08006955 0.00741803 0.00694452 0.01360136 0.00127504 
0.02361037 0.04443173 0.01642773 0.00320739 0.00386903 0.00205906 0.01120229 0.00598767 0.03007318 0.00199618 0.00233663 0.08053704 0.00756344 0.00696291 0.01357930 0.00126807 
0.02273544 0.04395549 0.01587667 0.00321140 0.00394183 0.00208949 0.01128589 0.00603657 0.03058398 0.00201190 0.00234306 0.08100254 0.00770016 0.00697649 0.01355777 0.00126096 
0.02191386 0.04349805 0.01531893 0.00321381 0.00400892 0.00211975 0.01136754 0.00608294 0.03111375 0.00202826 0.00234969 0.08146234 0.00782764 0.00698499 0.01353703 0.00125372 
0.02114874 0.04306266 0.01475649 0.00321467 0.00407003 0.00214967 0.01144686 0.00612647 0.03165987 0.00204527 0.00235658 0.08191274 0.00794537 0.00698817 0.01351732 0.00124641 
0.02044288 0.04265247 0.01419133 0.00321404 0.00412488 0.00217907 0.01152354 0.00616685 0.03221966 0.00206291 0.00236381 0.08234996 0.00805291 0.00698583 0.01349886 0.00123906 
0.01979875 0.04227052 0.01362540 0.00321198 0.00417324 0.00220778 0.01159733 0.00620383 0.03279046 0.00208119 0.00237144 0.08277026 0.00814984 0.00697780 0.01348185 0.00123170 
0.01921847 0.04191971 0.01306064 0.00320858 0.00421491 0.00223565 0.01166802 0.00623717 0.03336962 0.00210010 0.00237954 0.08316990 0.00823584 0.00696394 0.01346647 0.00122437 
0.01870382 0.04160278 0.01249895 0.00320390 0.00424970 0.00226251 0.01173548 0.00626669 0.03395450 0.00211965 0.00238820 0.08354520 0.00831062 0.00694418 0.01345285 0.00121711 
0.01825624 0.04132231 0.01194222 0.00319805 0.00427746 0.00228823 0.01179964 0.00629220 0.03454252 0.00213983 0.00239750 0.08389255 0.00837395 0.00691845 0.01344112 0.00120997 
0.01787679 0.04108067 0.01139225 0.00319110 0.00429806 0.00231267 0.01186049 0.00631360 0.03513111 0.00216064 0.00240750 0.08420843 0.00842568 0.00688675 0.01343137 0.00120298 
0.01756621 0.04088001 0.01085082 0.00318318 0.00431141 0.00233571 0.01191809 0.00633078 0.03571781 0.00218207 0.00241830 0.08448947 0.00846571 0.00684908 0.01342366 0.00119619 
0.01732487 0.04072224 0.01031964 0.00317436 0.00431744 0.00235721 0.01197256 0.00634369 0.03630020 0.00220411 0.00242998 0.08473244 0.00849398 0.00680552 0.01341801 0.00118963 
0.01715280 0.04060905 0.00980034 0.00316476 0.00431614 0.00237709 0.01202409 0.00635230 0.03687594 0.00222677 0.00244263 0.08493426 0.00851054 0.00675616 0.01341442 0.00118334 
0.01704967 0.04054182 0.00929450 0.00315450 0.00430749 0.00239525 0.01207292 0.00635663 0.03744279 0.00225004 0.00245631 0.08509209 0.00851546 0.00670112 0.01341283 0.00117736 
0.01701485 0.04052169 0.00880361 0.00314367 0.00429152 0.00241162 0.01211937 0.00635673 0.03799862 0.00227389 0.00247112 0.08520329 0.00850889 0.00664057 0.01341317 0.00117174 
0.01704735 0.04054950 0.00832907 0.00313240 0.00426831 0.00242611 0.01216378 0.00635266 0.03854138 0.00229832 0.00248714 0.08526545 0.00849104 0.00657470 0.01341534 0.00116650 
0.01714589 0.04062578 0.00787221 0.00312079 0.00423795 0.00243869 0.01220658 0.00634454 0.03906914 0.00232332 0.00250444 0.08527646 0.00846216 0.00650374 0.01341919 0.00116169 
0.01730885 0.04075076 0.00743425 0.00310897 0.00420057 0.00244931 0.01224823 0.00633251 0.03958008 0.00234886 0.00252311 0.08523445 0.00842258 0.00642795 0.01342455 0.00115733 
0.01753435 0.04092437 0.00701632 0.00309704 0.00415633 0.00245795 0.01228924 0.00631672 0.04007251 0.00237492 0.00254320 0.08513789 0.00837267 0.00634760 0.01343121 0.00115346 
0.01782022 0.04114623 0.00661947 0.00308512 0.00410542 0.00246460 0.01233016 0.00629736 0.04054483 0.00240149 0.00256480 0.08498554 0.00831286 0.00626302 0.01343895 0.00115012 
0.01816402 0.04141562 0.00624463 0.00307332 0.00404805 0.00246926 0.01237158 0.00627464 0.04099560 0.00242854 0.00258796 0.08477651 0.00824360 0.00617452 0.01344750 0.00114732 
0.01856306 0.04173153 0.00589262 0.00306174 0.00398448 0.00247196 0.01241411 0.00624880 0.04142348 0.00245603 0.00261275 0.08451026 0.00816543 0.00608248 0.01345659 0.00114510 
0.01901443 0.04209265 0.00556418 0.00305050 0.00391497 0.00247271 0.01245840 0.00622009 0.04182724 0.00248393 0.00263921 0.08418658 0.00807889 0.00598726 0.01346592 0.00114347 
0.01951499 0.04249734 0.00525993 0.00303969 0.00383984 0.00247158 0.01250510 0.00618876 0.04220578 0.00251222 0.00266741 0.08380564 0.00798459 0.00588925 0.01347517 0.00114246 
0.02006142 0.04294368 0.00498039 0.00302941 0.00375940 0.00246863 0.01255490 0.00615509 0.04255813 0.00254085 0.00269739 0.08336800 0.00788315 0.00578888 0.01348401 0.00114208 
0.02065023 0.04342946 0.00472597 0.00301975 0.00367401 0.00246391 0.01260847 0.00611938 0.04288341 0.00256978 0.00272918 0.08287456 0.00777522 0.00568656 0.01349210 0.00114235 
0.02127775 0.04395221 0.00449698 0.00301079 0.00358402 0.00245753 0.01266650 0.00608190 0.04318088 0.00259897 0.00276281 0.08232661 0.00766149 0.00558274 0.01349910 0.00114328 
0.02194020 0.04450918 0.00429364 0.00300263 0.00348984 0.00244958 0.01272965 0.00604296 0.04344988 0.00262838 0.00279832 0.08172584 0.00754267 0.00547786 0.01350467 0.00114488 
0.02263366 0.04509738 0.00411605 0.00299533 0.00339186 0.00244018 0.01279860 0.00600286 0.04368987 0.00265795 0.00283571 0.08107428 0.00741947 0.00537239 0.01350844 0.00114714 
0.02335414 0.04571360 0.00396421 0.00298895 0.00329051 0.00242943 0.01287398 0.00596189 0.04390040 0.00268764 0.00287501 0.08037434 0.00729263 0.00526677 0.01351010 0.00115007 
0.02409757 0.04635441 0.00383805 0.00298357 0.00318623 0.00241748 0.01295642 0.00592034 0.04408114 0.00271740 0.00291620 0.07962881 0.00716288 0.00516150 0.01350931 0.00115367 
0.02485982 0.04701619 0.00373737 0.00297922 0.00307945 0.00240446 0.01304651 0.00587849 0.04423181 0.00274717 0.00295931 0.07884079 0.00703096 0.00505702 0.01350575 0.00115792 
0.02563675 0.04769517 0.00366191 0.00297596 0.00297063 0.00239053 0.01314479 0.00583663 0.04435223 0.00277691 0.00300430 0.07801377 0.00689762 0.00495383 0.01349915 0.00116282 
0.02642418 0.04838742 0.00361131 0.00297382 0.00286023 0.00237584 0.01325177 0.00579501 0.04444232 0.00280656 0.00305117 0.07715153 0.00676359 0.00485240 0.01348923 0.00116835 
0.02721797 0.04908888 0.00358512 0.00297282 0.00274873 0.00236056 0.01336792 0.00575388 0.04450204 0.00283606 0.00309988 0.07625816 0.00662959 0.00475318 0.01347575 0.00117450 
0.02801400 0.04979542 0.00358284 0.00297299 0.00263658 0.00234485 0.01349363 0.00571347 0.04453145 0.00286536 0.00315042 0.07533805 0.00649633 0.00465666 0.01345850 0.00118124 
0.02880821 0.05050281 0.00360387 0.00297433 0.00252425 0.00232889 0.01362927 0.00567401 0.04453065 0.00289441 0.00320273 0.07439585 0.00636451 0.00456329 0.01343731 0.00118854 
0.02959661 0.05120679 0.00364754 0.00297684 0.00241221 0.00231286 0.01377511 0.00563567 0.04449980 0.00292316 0.00325678 0.07343647 0.00623478 0.00447352 0.01341205 0.00119638 
0.03037529 0.05190308 0.00371313 0.00298053 0.00230091 0.00229693 0.01393137 0.00559863 0.04443914 0.00295156 0.00331251 0.07246501 0.00610779 0.00438780 0.01338263 0.00120473 
0.03114047 0.05258740 0.00379986 0.00298536 0.00219082 0.00228128 0.01409821 0.00556305 0.04434894 0.00297955 0.00336985 0.07148681 0.00598416 0.00430657 0.01334899 0.00121355 
0.03188849 0.05325551 0.00390688 0.00299131 0.00208237 0.00226611 0.01427570 0.00552904 0.04422951 0.00300710 0.00342876 0.07050733 0.00586447 0.00423024 0.01331115 0.00122280 
0.03261583 0.05390321 0.00403332 0.00299835 0.00197601 0.00225158 0.01446384 0.00549671 0.04408123 0.00303415 0.00348914 0.06953220 0.00574926 0.00415923 0.01326914 0.00123244 
0.03331914 0.05452642 0.00417823 0.00300644 0.00187214 0.00223789 0.01466256 0.00546613 0.04390450 0.00306068 0.00355093 0.06856715 0.00563904 0.00409394 0.01322307 0.00124244 
0.03399525 0.05512114 0.00434064 0.00301553 0.00177117 0.00222519 0.01487171 0.00543735 0.04369976 0.00308663 0.00361404 0.06761799 0.00553429 0.00403474 0.01317310 0.00125273 
0.03464117 0.05568352 0.00451957 0.00302556 0.00167350 0.00221367 0.01509106 0.00541040 0.04346750 0.00311198 0.00367838 0.06669056 0.00543543 0.00398199 0.01311942 0.00126328 
0.03525413 0.05620987 0.00471396 0.00303647 0.00157948 0.00220348 0.01532029 0.00538526 0.04320823 0.00313671 0.00374386 0.06579073 0.00534284 0.00393604 0.01306231 0.00127404 
0.03583157 0.05669668 0.00492277 0.00304818 0.00148949 0.00219480 0.01555903 0.00536191 0.04292251 0.00316077 0.00381037 0.06492436 0.00525688 0.00389721 0.01300206 0.00128495 
0.03637117 0.05714063 0.00514494 0.00306061 0.00140383 0.00218777 0.01580680 0.00534030 0.04261093 0.00318417 0.00387782 0.06409722 0.00517783 0.00386581 0.01293906 0.00129596 
0.03687083 0.05753865 0.00537937 0.00307369 0.00132282 0.00218254 0.01606306 0.00532034 0.04227410 0.00320687 0.00394609 0.06331502 0.00510595 0.00384212 0.01287370 0.00130702 
0.03732873 0.05788790 0.00562498 0.00308732 0.00124673 0.00217924 0.01632721 0.00530195 0.04191268 0.00322888 0.00401507 0.06258336 0.00504145 0.00382639 0.01280647 0.00131807 
0.03774327 0.05818582 0.00588067 0.00310142 0.00117583 0.00217801 0.01659855 0.00528499 0.04152736 0.00325018 0.00408466 0.06190767 0.00498450 0.00381885 0.01273787 0.00132907 
0.03811314 0.05843011 0.00614535 0.00311588 0.00111034 0.00217895 0.01687635 0.00526932 0.04111887 0.00327078 0.00415471 0.06129320 0.00493520 0.00381972 0.01266845 0.00133995 
0.03843730 0.05861877 0.00641795 0.00313062 0.00105047 0.00218218 0.01715977 0.00525478 0.04068796 0.00329069 0.00422513 0.06074498 0.00489363 0.00382918 0.01259883 0.00135066 
0.03871497 0.05875011 0.00669738 0.00314552 0.00099639 0.00218778 0.01744796 0.00524119 0.04023545 0.00330991 0.00429577 0.06026781 0.00485983 0.00384738 0.01252963 0.00136115 
0.03894565 0.05882277 0.00698258 0.00316048 0.00094825 0.00219584 0.01773999 0.00522837 0.03976218 0.00332846 0.00436653 0.05986621 0.00483379 0.00387443 0.01246153 0.00137137 
0.03912912 0.05883571 0.00727252 0.00317541 0.00090618 0.00220642 0.01803487 0.00521609 0.03926904 0.00334637 0.00443725 0.05954438 0.00481545 0.00391045 0.01239523 0.00138126 
0.03926545 0.05878822 0.00756617 0.00319019 0.00087024 0.00221958 0.01833160 0.00520414 0.03875695 0.00336366 0.00450783 0.05930620 0.00480474 0.00395548 0.01233145 0.00139077 
0.03935497 0.05867994 0.00786253 0.00320473 0.00084052 0.00223536 0.01862910 0.00519231 0.03822691 0.00338035 0.00457811 0.05915522 0.00480152 0.00400957 0.01227094 0.00139985 
0.03939829 0.05851087 0.00816065 0.00321894 0.00081705 0.00225380 0.01892631 0.00518034 0.03767995 0.00339649 0.00464798 0.05909457 0.00480565 0.00407271 0.01221445 0.00140847 
0.03939628 0.05828133 0.00845957 0.00323270 0.00079981 0.00227489 0.01922210 0.00516802 0.03711715 0.00341212 0.00471729 0.05912701 0.00481693 0.00414487 0.01216275 0.00141656 
0.03935009 0.05799202 0.00875841 0.00324594 0.00078881 0.00229864 0.01951535 0.00515509 0.03653965 0.00342727 0.00478592 0.05925487 0.00483515 0.00422598 0.01211661 0.00142409 
0.03926113 0.05764398 0.00905627 0.00325855 0.00078397 0.00232503 0.01980490 0.00514133 0.03594865 0.00344198 0.00485372 0.05948005 0.00486008 0.00431593 0.01207679 0.00143103 
0.03913104 0.05723857 0.00935234 0.00327047 0.00078522 0.00235404 0.02008963 0.00512650 0.03534541 0.00345632 0.00492057 0.05980399 0.00489144 0.00441460 0.01204405 0.00143733 
0.03896174 0.05677752 0.00964581 0.00328161 0.00079247 0.00238562 0.02036837 0.00511037 0.03473124 0.00347032 0.00498633 0.06022767 0.00492895 0.00452181 0.01201913 0.00144296 
0.03875534 0.05626287 0.00993593 0.00329190 0.00080557 0.00241971 0.02064000 0.00509272 0.03410752 0.00348405 0.00505086 0.06075161 0.00497232 0.00463734 0.01200273 0.00144790 
0.03851420 0.05569700 0.01022197 0.00330129 0.00082436 0.00245623 0.02090340 0.00507335 0.03347569 0.00349753 0.00511403 0.06137582 0.00502123 0.00476096 0.01199555 0.00145211 
0.03824088 0.05508258 0.01050326 0.00330972 0.00084868 0.00249511 0.02115747 0.00505206 0.03283725 0.00351084 0.00517572 0.06209985 0.00507536 0.00489239 0.01199824 0.00145557 
0.03793813 0.05442260 0.01077916 0.00331715 0.00087832 0.00253623 0.02140114 0.00502867 0.03219376 0.00352403 0.00523578 0.06292275 0.00513436 0.00503130 0.01201140 0.00145826 
0.03760888 0.05372032 0.01104908 0.00332354 0.00091306 0.00257950 0.02163339 0.00500302 0.03154684 0.00353713 0.00529409 0.06384308 0.00519790 0.00517736 0.01203560 0.00146017 
0.03725625 0.05297927 0.01131245 0.00332887 0.00095265 0.00262478 0.02185322 0.00497495 0.03089819 0.00355020 0.00535053 0.06485890 0.00526564 0.00533016 0.01207134 0.00146128 
0.03688347 0.05220325 0.01156878 0.00333314 0.00099684 0.00267194 0.02205969 0.00494435 0.03024953 0.00356329 0.00540496 0.06596782 0.00533723 0.00548929 0.01211906 0.00146159 
0.03649394 0.05139628 0.01181757 0.00333633 0.00104534 0.00272083 0.02225192 0.00491111 0.02960267 0.00357643 0.00545726 0.06716694 0.00541232 0.00565430 0.01217917 0.00146110 
0.03609115 0.05056259 0.01205839 0.00333845 0.00109786 0.00277129 0.02242907 0.00487514 0.02895946 0.00358968 0.00550732 0.06845292 0.00549060 0.00582469 0.01225197 0.00145980 
0.03567870 0.04970661 0.01229085 0.00333954 0.00115409 0.00282315 0.02259037 0.00483640 0.02832178 0.00360306 0.00555501 0.06982196 0.00557171 0.00599994 0.01233770 0.00145770 
0.03526027 0.04883296 0.01251458 0.00333963 0.00121372 0.00287624 0.02273513 0.00479485 0.02769158 0.00361660 0.00560023 0.07126983 0.00565535 0.00617950 0.01243653 0.00145480 
0.03483959 0.04794639 0.01272926 0.00333876 0.00127641 0.00293036 0.02286271 0.00475048 0.02707084 0.00363033 0.00564285 0.07279186 0.00574119 0.00636280 0.01254855 0.00145112 
0.03442044 0.04705178 0.01293459 0.00333699 0.00134182 0.00298534 0.02297256 0.00470332 0.02646156 0.00364428 0.00568277 0.07438301 0.00582895 0.00654923 0.01267375 0.00144667 
0.03400661 0.04615413 0.01313031 0.00333440 0.00140961 0.00304096 0.02306420 0.00465341 0.02586577 0.00365845 0.00571989 0.07603784 0.00591832 0.00673814 0.01281207 0.00144147 
0.03360189 0.04525850 0.01331620 0.00333106 0.00147942 0.00309702 0.02313723 0.00460083 0.02528554 0.00367285 0.00575411 0.07775057 0.00600904 0.00692889 0.01296331 0.00143555 
0.03321007 0.04437002 0.01349205 0.00332707 0.00155089 0.00315331 0.02319133 0.00454567 0.02472292 0.00368748 0.00578534 0.07951509 0.00610085 0.00712080 0.01312723 0.00142892 
0.03283487 0.04349385 0.01365769 0.00332255 0.00162367 0.00320962 0.02322625 0.00448807 0.02417997 0.00370235 0.00581347 0.08132498 0.00619351 0.00731316 0.01330348 0.00142163 
0.03247997 0.04263514 0.01381298 0.00331760 0.00169740 0.00326573 0.02324185 0.00442818 0.02365875 0.00371743 0.00583844 0.08317356 0.00628679 0.00750528 0.01349161 0.00141369 
0.03214898 0.04179904 0.01395778 0.00331235 0.00177171 0.00332143 0.02323805 0.00436617 0.02316131 0.00373270 0.00586015 0.08505391 0.00638048 0.00769641 0.01369111 0.00140515 
0.03184538 0.04099064 0.01409199 0.00330694 0.00184625 0.00337648 0.02321486 0.00430224 0.02268965 0.00374815 0.00587854 0.08695889 0.00647440 0.00788583 0.01390136 0.00139604 
0.03157256 0.04021497 0.01421553 0.00330152 0.00192067 0.00343068 0.02317237 0.00423663 0.02224576 0.00376373 0.00589354 0.08888120 0.00656835 0.00807279 0.01412166 0.00138640 
0.03133375 0.03947695 0.01432834 0.00329624 0.00199462 0.00348381 0.02311074 0.00416958 0.02183155 0.00377941 0.00590508 0.09081340 0.00666219 0.00825654 0.01435122 0.00137628 
0.03113206 0.03878140 0.01443036 0.00329126 0.00206776 0.00353565 0.02303022 0.00410135 0.02144891 0.00379513 0.00591311 0.09274793 0.00675576 0.00843634 0.01458921 0.00136571 
0.03097039 0.03813297 0.01452155 0.00328675 0.00213975 0.00358599 0.02293112 0.00403223 0.02109962 0.00381085 0.00591759 0.09467718 0.00684894 0.00861143 0.01483466 0.00135474 
0.03085149 0.03753617 0.01460190 0.00328287 0.00221029 0.00363462 0.02281383 0.00396252 0.02078542 0.00382649 0.00591847 0.09659349 0.00694161 0.00878109 0.01508659 0.00134342 
0.03077787 0.03699530 0.01467138 0.00327981 0.00227906 0.00368133 0.02267882 0.00389254 0.02050792 0.00384200 0.00591573 0.09848922 0.00703366 0.00894457 0.01534392 0.00133180 
0.03075185 0.03651446 0.01473001 0.00327775 0.00234576 0.00372594 0.02252660 0.00382261 0.02026865 0.00385730 0.00590932 0.10035677 0.00712501 0.00910118 0.01560551 0.00131993 
0.03077549 0.03609751 0.01477779 0.00327685 0.00241010 0.00376825 0.02235774 0.00375308 0.02006901 0.00387232 0.00589925 0.10218860 0.00721557 0.00925020 0.01587019 0.00130785 
0.03085065 0.03574805 0.01481473 0.00327731 0.00247182 0.00380808 0.02217289 0.00368430 0.01991029 0.00388696 0.00588550 0.10397731 0.00730527 0.00939097 0.01613672 0.00129562 
0.03097889 0.03546943 0.01484085 0.00327930 0.00253066 0.00384525 0.02197273 0.00361662 0.01979363 0.00390115 0.00586806 0.10571564 0.00739404 0.00952284 0.01640382 0.00128327 
0.03116152 0.03526467 0.01485619 0.00328299 0.00258638 0.00387961 0.02175799 0.00355040 0.01972003 0.00391480 0.00584695 0.10739651 0.00748183 0.00964518 0.01667019 0.00127088 
0.03139958 0.03513653 0.01486078 0.00328856 0.00263877 0.00391101 0.02152944 0.00348601 0.01969032 0.00392780 0.00582218 0.10901306 0.00756858 0.00975742 0.01693449 0.00125847 
0.03169382 0.03508741 0.01485466 0.00329617 0.00268762 0.00393929 0.02128788 0.00342379 0.01970519 0.00394008 0.00579378 0.11055871 0.00765423 0.00985899 0.01719538 0.00124611 
0.03204470 0.03511939 0.01483788 0.00330598 0.00273274 0.00396433 0.02103415 0.00336411 0.01976512 0.00395152 0.00576179 0.11202715 0.00773875 0.00994938 0.01745149 0.00123383 
0.03245239 0.03523419 0.01481050 0.00331814 0.00277396 0.00398601 0.02076910 0.00330731 0.01987043 0.00396205 0.00572623 0.11341239 0.00782208 0.01002814 0.01770146 0.00122170 
0.03291675 0.03543319 0.01477257 0.00333278 0.00281115 0.00400424 0.02049361 0.00325375 0.02002125 0.00397154 0.00568717 0.11470879 0.00790418 0.01009484 0.01794394 0.00120974 
0.03343735 0.03571739 0.01472418 0.00335005 0.00284417 0.00401891 0.02020856 0.00320376 0.02021748 0.00397993 0.00564467 0.11591109 0.00798499 0.01014910 0.01817759 0.00119800 
0.03401346 0.03608739 0.01466538 0.00337004 0.00287291 0.00402996 0.01991486 0.00315765 0.02045887 0.00398710 0.00559879 0.11701444 0.00806446 0.01019062 0.01840110 0.00118653 
0.03464403 0.03654344 0.01459628 0.00339287 0.00289728 0.00403731 0.01961339 0.00311573 0.02074490 0.00399297 0.00554961 0.11801441 0.00814253 0.01021913 0.01861318 0.00117536 
0.03532773 0.03708539 0.01451697 0.00341861 0.00291721 0.00404093 0.01930505 0.00307830 0.02107490 0.00399745 0.00549722 0.11890704 0.00821914 0.01023442 0.01881261 0.00116454 
0.03606291 0.03771270 0.01442755 0.00344735 0.00293265 0.00404078 0.01899073 0.00304563 0.02144794 0.00400045 0.00544171 0.11968882 0.00829422 0.01023636 0.01899818 0.00115409 
0.03684766 0.03842444 0.01432816 0.00347912 0.00294358 0.00403685 0.01867129 0.00301796 0.02186288 0.00400190 0.00538319 0.12035675 0.00836770 0.01022486 0.01916878 0.00114405 
0.03767977 0.03921929 0.01421893 0.00351398 0.00294996 0.00402913 0.01834760 0.00299553 0.02231839 0.00400172 0.00532176 0.12090832 0.00843950 0.01019990 0.01932333 0.00113444 
0.03855673 0.04009553 0.01410001 0.00355193 0.00295182 0.00401765 0.01802048 0.00297855 0.02281290 0.00399984 0.00525754 0.12134157 0.00850953 0.01016153 0.01946085 0.00112530 
0.03947580 0.04105110 0.01397159 0.00359296 0.00294917 0.00400243 0.01769075 0.00296720 0.02334464 0.00399620 0.00519066 0.12165503 0.00857770 0.01010987 0.01958043 0.00111666 
0.04043395 0.04208352 0.01383386 0.00363706 0.00294206 0.00398351 0.01735919 0.00296163 0.02391162 0.00399075 0.00512126 0.12184779 0.00864390 0.01004509 0.01968124 0.00110852 
0.04142792 0.04318997 0.01368704 0.00368418 0.00293053 0.00396096 0.01702655 0.00296199 0.02451165 0.00398343 0.00504946 0.12191949 0.00870803 0.00996745 0.01976255 0.00110090 
0.04245421 0.04436727 0.01353138 0.00373424 0.00291466 0.00393486 0.01669354 0.00296836 0.02514235 0.00397421 0.00497541 0.12187030 0.00876999 0.00987725 0.01982374 0.00109383 
0.04350911 0.04561190 0.01336714 0.00378717 0.00289454 0.00390530 0.01636084 0.00298084 0.02580113 0.00396305 0.00489928 0.12170095 0.00882965 0.00977487 0.01986428 0.00108732 
0.04458870 0.04692001 0.01319462 0.00384285 0.00287028 0.00387239 0.01602911 0.00299945 0.02648525 0.00394993 0.00482120 0.12141270 0.00888689 0.00966078 0.01988374 0.00108137 
0.04568887 0.04828745 0.01301417 0.00390116 0.00284197 0.00383624 0.01569893 0.00302424 0.02719178 0.00393485 0.00474135 0.12100735 0.00894159 0.00953546 0.01988183 0.00107598 
0.04680534 0.04970975 0.01282614 0.00396193 0.00280976 0.00379700 0.01537088 0.00305517 0.02791762 0.00391778 0.00465989 0.12048723 0.00899364 0.00939951 0.01985835 0.00107117 
0.04793368 0.05118220 0.01263093 0.00402500 0.00277378 0.00375481 0.01504548 0.00309222 0.02865954 0.00389875 0.00457700 0.11985517 0.00904289 0.00925355 0.01981324 0.00106692 
0.04906934 0.05269981 0.01242898 0.00409018 0.00273418 0.00370982 0.01472321 0.00313531 0.02941418 0.00387775 0.00449284 0.11911452 0.00908924 0.00909828 0.01974653 0.00106324 
0.05020764 0.05425739 0.01222076 0.00415725 0.00269112 0.00366223 0.01440453 0.00318435 0.03017805 0.00385482 0.00440760 0.11826909 0.00913257 0.00893445 0.01965840 0.00106012 
0.05134383 0.05584950 0.01200677 0.00422598 0.00264477 0.00361220 0.01408983 0.00323921 0.03094758 0.00382999 0.00432145 0.11732316 0.00917275 0.00876286 0.01954913 0.00105754 
0.05247308 0.05747058 0.01178758 0.00429613 0.00259530 0.00355994 0.01377948 0.00329976 0.03171909 0.00380330 0.00423458 0.11628146 0.00920969 0.00858438 0.01941913 0.00105550 
0.05359052 0.05911486 0.01156376 0.00436743 0.00254290 0.00350565 0.01347382 0.00336580 0.03248886 0.00377480 0.00414719 0.11514912 0.00924329 0.00839988 0.01926892 0.00105398 
0.05469124 0.06077647 0.01133595 0.00443961 0.00248775 0.00344954 0.01317316 0.00343714 0.03325311 0.00374455 0.00405945 0.11393165 0.00927345 0.00821033 0.01909915 0.00105297 
0.05577036 0.06244946 0.01110481 0.00451238 0.00243004 0.00339184 0.01287774 0.00351355 0.03400804 0.00371262 0.00397156 0.11263493 0.00930010 0.00801670 0.01891057 0.00105243 
0.05682301 0.06412778 0.01087104 0.00458543 0.00236998 0.00333277 0.01258782 0.00359480 0.03474986 0.00367909 0.00388371 0.11126516 0.00932319 0.00782000 0.01870404 0.00105235 
0.05784436 0.06580537 0.01063540 0.00465845 0.00230776 0.00327257 0.01230361 0.00368061 0.03547477 0.00364404 0.00379609 0.10982882 0.00934267 0.00762128 0.01848054 0.00105271 
0.05882967 0.06747614 0.01039866 0.00473112 0.00224358 0.00321147 0.01202530 0.00377070 0.03617904 0.00360757 0.00370890 0.10833265 0.00935851 0.00742161 0.01824112 0.00105348 
0.05977427 0.06913404 0.01016165 0.00480312 0.00217764 0.00314973 0.01175306 0.00386476 0.03685899 0.00356978 0.00362233 0.10678362 0.00937071 0.00722206 0.01798696 0.00105462 
0.06067363 0.07077309 0.00992520 0.00487413 0.00211016 0.00308759 0.01148704 0.00396249 0.03751100 0.00353076 0.00353657 0.10518885 0.00937929 0.00702373 0.01771930 0.00105612 
0.06152336 0.07238737 0.00969021 0.00494379 0.00204134 0.00302529 0.01122738 0.00406354 0.03813161 0.00349065 0.00345182 0.10355563 0.00938427 0.00682773 0.01743946 0.00105794 
0.06231922 0.07397108 0.00945758 0.00501180 0.00197136 0.00296309 0.01097422 0.00416758 0.03871744 0.00344955 0.00336828 0.10189134 0.00938573 0.00663517 0.01714886 0.00106004 
0.06305717 0.07551860 0.00922824 0.00507781 0.00190045 0.00290123 0.01072768 0.00427424 0.03926529 0.00340760 0.00328613 0.10020341 0.00938375 0.00644716 0.01684895 0.00106240 
0.06373337 0.07702446 0.00900316 0.00514151 0.00182879 0.00283996 0.01048789 0.00438318 0.03977213 0.00336491 0.00320558 0.09849929 0.00937845 0.00626477 0.01654126 0.00106499 
0.06434421 0.07848340 0.00878330 0.00520258 0.00175659 0.00277952 0.01025496 0.00449403 0.04023513 0.00332163 0.00312680 0.09678642 0.00936996 0.00608910 0.01622735 0.00106776 
0.06488635 0.07989042 0.00856965 0.00526072 0.00168403 0.00272017 0.01002903 0.00460640 0.04065167 0.00327789 0.00305000 0.09507217 0.00935846 0.00592120 0.01590882 0.00107068 
0.06535667 0.08124077 0.00836320 0.00531562 0.00161131 0.00266212 0.00981024 0.00471994 0.04101936 0.00323384 0.00297536 0.09336380 0.00934414 0.00576210 0.01558730 0.00107373 
0.06575238 0.08252998 0.00816497 0.00536701 0.00153861 0.00260562 0.00959873 0.00483427 0.04133609 0.00318961 0.00290308 0.09166843 0.00932723 0.00561279 0.01526445 0.00107687 
0.06607097 0.08375392 0.00797594 0.00541462 0.00146613 0.00255087 0.00939467 0.00494902 0.04159999 0.00314535 0.00283334 0.08999301 0.00930797 0.00547424 0.01494191 0.00108007 
0.06631026 0.08490879 0.00779710 0.00545820 0.00139403 0.00249811 0.00919822 0.00506382 0.04180952 0.00310122 0.00276633 0.08834425 0.00928665 0.00534735 0.01462133 0.00108329 
0.06646837 0.08599114 0.00762944 0.00549752 0.00132249 0.00244754 0.00900960 0.00517831 0.04196343 0.00305734 0.00270223 0.08672861 0.00926355 0.00523301 0.01430435 0.00108651 
0.06654379 0.08699790 0.00747392 0.00553238 0.00125169 0.00239934 0.00882900 0.00529214 0.04206077 0.00301388 0.00264122 0.08515227 0.00923903 0.00513201 0.01399259 0.00108969 
0.06653535 0.08792642 0.00733148 0.00556259 0.00118179 0.00235372 0.00865667 0.00540495 0.04210096 0.00297099 0.00258349 0.08362109 0.00921341 0.00504511 0.01368762 0.00109281 
0.06644225 0.08877444 0.00720303 0.00558798 0.00111295 0.00231084 0.00849286 0.00551642 0.04208373 0.00292880 0.00252922 0.08214056 0.00918707 0.00497300 0.01339097 0.00109585 
0.06626405 0.08954013 0.00708943 0.00560844 0.00104533 0.00227086 0.00833787 0.00562622 0.04200919 0.00288746 0.00247858 0.08071581 0.00916041 0.00491631 0.01310414 0.00109878 
0.06600068 0.09022210 0.00699153 0.00562385 0.00097909 0.00223394 0.00819200 0.00573404 0.04187779 0.00284713 0.00243175 0.07935156 0.00913383 0.00487558 0.01282853 0.00110158 
0.06565245 0.09081939 0.00691011 0.00563413 0.00091437 0.00220020 0.00805559 0.00583958 0.04169035 0.00280793 0.00238889 0.07805209 0.00910776 0.00485130 0.01256550 0.00110422 
0.06522004 0.09133151 0.00684590 0.00563923 0.00085132 0.00216978 0.00792898 0.00594256 0.04144805 0.00277002 0.00235018 0.07682126 0.00908262 0.00484385 0.01231632 0.00110670 
0.06470452 0.09175841 0.00679958 0.00563913 0.00079009 0.00214278 0.00781256 0.00604271 0.04115244 0.00273353 0.00231578 0.07566245 0.00905885 0.00485356 0.01208218 0.00110900 
0.06410732 0.09210047 0.00677176 0.00563384 0.00073081 0.00211928 0.00770674 0.00613979 0.04080544 0.00269859 0.00228584 0.07457857 0.00903692 0.00488065 0.01186415 0.00111111 
0.06343025 0.09235856 0.00676298 0.00562340 0.00067362 0.00209937 0.00761193 0.00623355 0.04040931 0.00266533 0.00226053 0.07357205 0.00901726 0.00492530 0.01166323 0.00111301 
0.06267545 0.09253395 0.00677371 0.00560789 0.00061865 0.00208310 0.00752858 0.00632380 0.03996667 0.00263389 0.00224000 0.07264481 0.00900032 0.00498754 0.01148030 0.00111471 
0.06184545 0.09262836 0.00680433 0.00558740 0.00056603 0.00207052 0.00745713 0.00641032 0.03948049 0.00260437 0.00222439 0.07179831 0.00898655 0.00506736 0.01131613 0.00111620 
0.06094310 0.09264395 0.00685516 0.00556207 0.00051589 0.00206166 0.00739808 0.00649295 0.03895406 0.00257691 0.00221384 0.07103348 0.00897639 0.00516466 0.01117138 0.00111748 
0.05997158 0.09258326 0.00692643 0.00553205 0.00046836 0.00205652 0.00735188 0.00657153 0.03839100 0.00255161 0.00220849 0.07035078 0.00897025 0.00527922 0.01104657 0.00111855 
0.05893439 0.09244924 0.00701825 0.00549754 0.00042355 0.00205511 0.00731903 0.00664592 0.03779520 0.00252859 0.00220846 0.06975019 0.00896854 0.00541078 0.01094213 0.00111942 
0.05783531 0.09224520 0.00713068 0.00545875 0.00038158 0.00205740 0.00730003 0.00671599 0.03717087 0.00250793 0.00221387 0.06923121 0.00897165 0.00555894 0.01085834 0.00112009 
0.05667842 0.09197482 0.00726366 0.00541591 0.00034258 0.00206335 0.00729535 0.00678165 0.03652245 0.00248975 0.00222483 0.06879287 0.00897994 0.00572326 0.01079536 0.00112059 
0.05546805 0.09164210 0.00741704 0.00536931 0.00030666 0.00207291 0.00730549 0.00684282 0.03585463 0.00247414 0.00224144 0.06843378 0.00899374 0.00590320 0.01075323 0.00112091 
0.05420874 0.09125132 0.00759057 0.00531923 0.00027392 0.00208600 0.00733091 0.00689943 0.03517232 0.00246117 0.00226380 0.06815212 0.00901337 0.00609815 0.01073188 0.00112109 
0.05290528 0.09080708 0.00778393 0.00526597 0.00024448 0.00210256 0.00737207 0.00695143 0.03448058 0.00245093 0.00229199 0.06794564 0.00903909 0.00630740 0.01073109 0.00112113 
0.05156263 0.09031420 0.00799666 0.00520988 0.00021846 0.00212247 0.00742941 0.00699879 0.03378467 0.00244350 0.00232607 0.06781176 0.00907113 0.00653020 0.01075054 0.00112106 
0.05018592 0.08977771 0.00822822 0.00515129 0.00019595 0.00214563 0.00750335 0.00704151 0.03308996 0.00243893 0.00236610 0.06774753 0.00910969 0.00676570 0.01078978 0.00112091 
0.04878040 0.08920282 0.00847800 0.00509057 0.00017705 0.00217190 0.00759427 0.00707959 0.03240189 0.00243730 0.00241212 0.06774965 0.00915492 0.00701300 0.01084826 0.00112069 
0.04735145 0.08859492 0.00874525 0.00502810 0.00016187 0.00220114 0.00770251 0.00711304 0.03172601 0.00243864 0.00246417 0.06781459 0.00920691 0.00727113 0.01092532 0.00112044 
0.04590450 0.08795948 0.00902918 0.00496426 0.00015051 0.00223322 0.00782839 0.00714191 0.03106785 0.00244302 0.00252226 0.06793851 0.00926572 0.00753909 0.01102017 0.00112018 
0.04444506 0.08730206 0.00932887 0.00489944 0.00014306 0.00226795 0.00797218 0.00716624 0.03043295 0.00245046 0.00258639 0.06811739 0.00933136 0.00781581 0.01113198 0.00111994 
0.04297865 0.08662826 0.00964334 0.00483404 0.00013960 0.00230516 0.00813408 0.00718608 0.02982682 0.00246100 0.00265653 0.06834699 0.00940377 0.00810016 0.01125977 0.00111976 
0.04151078 0.08594369 0.00997152 0.00476846 0.00014022 0.00234468 0.00831427 0.00720153 0.02925488 0.00247465 0.00273266 0.06862295 0.00948285 0.00839101 0.01140253 0.00111966 
0.04004692 0.08525392 0.01031228 0.00470310 0.00014500 0.00238630 0.00851283 0.00721266 0.02872242 0.00249145 0.00281472 0.06894077 0.00956845 0.00868716 0.01155914 0.00111967 
0.03859247 0.08456447 0.01066439 0.00463835 0.00015402 0.00242982 0.00872982 0.00721957 0.02823460 0.00251138 0.00290264 0.06929588 0.00966036 0.00898741 0.01172843 0.00111984 
0.03715274 0.08388075 0.01102659 0.00457461 0.00016734 0.00247504 0.00896520 0.00722236 0.02779639 0.00253446 0.00299632 0.06968369 0.00975830 0.00929053 0.01190917 0.00112018 
0.03573291 0.08320801 0.01139755 0.00451226 0.00018503 0.00252173 0.00921887 0.00722116 0.02741252 0.00256066 0.00309566 0.07009958 0.00986196 0.00959528 0.01210009 0.00112074 
0.03433801 0.08255135 0.01177588 0.00445166 0.00020713 0.00256969 0.00949067 0.00721609 0.02708747 0.00258998 0.00320051 0.07053898 0.00997096 0.00990041 0.01229986 0.00112153 
0.03297289 0.08191566 0.01216015 0.00439317 0.00023370 0.00261868 0.00978034 0.00720728 0.02682544 0.00262238 0.00331073 0.07099739 0.01008488 0.01020467 0.01250715 0.00112260 
0.03164218 0.08130559 0.01254890 0.00433714 0.00026477 0.00266848 0.01008756 0.00719487 0.02663030 0.00265782 0.00342613 0.07147039 0.01020322 0.01050684 0.01272059 0.00112396 
0.03035029 0.08072552 0.01294065 0.00428388 0.00030037 0.00271885 0.01041191 0.00717901 0.02650556 0.00269626 0.00354653 0.07195371 0.01032546 0.01080567 0.01293880 0.00112565 
0.02910136 0.08017954 0.01333386 0.00423369 0.00034052 0.00276957 0.01075290 0.00715985 0.02645434 0.00273765 0.00367169 0.07244325 0.01045102 0.01109997 0.01316042 0.00112768 
0.02789928 0.07967139 0.01372701 0.00418685 0.00038522 0.00282040 0.01110995 0.00713755 0.02647936 0.00278191 0.00380137 0.07293510 0.01057928 0.01138856 0.01338409 0.00113009 
0.02674762 0.07920449 0.01411858 0.00414361 0.00043446 0.00287112 0.01148239 0.00711227 0.02658290 0.00282897 0.00393532 0.07342554 0.01070956 0.01167029 0.01360845 0.00113289 
0.02564964 0.07878187 0.01450701 0.00410420 0.00048823 0.00292150 0.01186948 0.00708417 0.02676679 0.00287874 0.00407324 0.07391113 0.01084118 0.01194407 0.01383219 0.00113610 
0.02460826 0.07840619 0.01489080 0.00406881 0.00054650 0.00297131 0.01227038 0.00705342 0.02703236 0.00293112 0.00421482 0.07438868 0.01097338 0.01220883 0.01405403 0.00113973 
0.02362606 0.07807967 0.01526844 0.00403761 0.00060922 0.00302034 0.01268417 0.00702020 0.02738046 0.00298601 0.00435973 0.07485528 0.01110539 0.01246356 0.01427273 0.00114379 
0.02270525 0.07780413 0.01563844 0.00401073 0.00067634 0.00306838 0.01310986 0.00698467 0.02781142 0.00304330 0.00450762 0.07530832 0.01123642 0.01270731 0.01448711 0.00114830 
0.02184769 0.07758095 0.01599936 0.00398827 0.00074777 0.00311521 0.01354635 0.00694701 0.02832505 0.00310284 0.00465811 0.07574550 0.01136564 0.01293920 0.01469605 0.00115326 
0.02105484 0.07741106 0.01634978 0.00397031 0.00082343 0.00316063 0.01399250 0.00690739 0.02892062 0.00316451 0.00481082 0.07616484 0.01149223 0.01315838 0.01489849 0.00115868 
0.02032779 0.07729494 0.01668836 0.00395688 0.00090322 0.00320445 0.01444706 0.00686600 0.02959688 0.00322815 0.00496534 0.07656469 0.01161532 0.01336411 0.01509344 0.00116454 
0.01966724 0.07723263 0.01701379 0.00394798 0.00098700 0.00324649 0.01490873 0.00682301 0.03035203 0.00329360 0.00512123 0.07694372 0.01173407 0.01355570 0.01528000 0.00117085 
0.01907349 0.07722369 0.01732481 0.00394359 0.00107466 0.00328657 0.01537614 0.00677859 0.03118373 0.00336070 0.00527806 0.07730094 0.01184761 0.01373254 0.01545735 0.00117760 
0.01854647 0.07726724 0.01762025 0.00394364 0.00116602 0.00332454 0.01584784 0.00673294 0.03208911 0.00342926 0.00543536 0.07763570 0.01195508 0.01389411 0.01562476 0.00118478 
0.01808572 0.07736198 0.01789901 0.00394802 0.00126091 0.00336023 0.01632236 0.00668621 0.03306478 0.00349910 0.00559266 0.07794763 0.01205564 0.01403995 0.01578157 0.00119237 
0.01769040 0.07750612 0.01816005 0.00395662 0.00135916 0.00339350 0.01679815 0.00663859 0.03410684 0.00357001 0.00574947 0.07823672 0.01214845 0.01416969 0.01592725 0.00120036 
0.01735932 0.07769750 0.01840241 0.00396927 0.00146054 0.00342423 0.01727361 0.00659025 0.03521089 0.00364180 0.00590531 0.07850322 0.01223269 0.01428307 0.01606134 0.00120873 
0.01709092 0.07793351 0.01862525 0.00398578 0.00156485 0.00345231 0.01774712 0.00654138 0.03637205 0.00371423 0.00605967 0.07874770 0.01230759 0.01437987 0.01618348 0.00121744 
0.01688329 0.07821117 0.01882777 0.00400592 0.00167184 0.00347762 0.01821702 0.00649213 0.03758501 0.00378710 0.00621204 0.07897097 0.01237236 0.01445999 0.01629341 0.00122648 
0.01673420 0.07852710 0.01900930 0.00402946 0.00178126 0.00350008 0.01868162 0.00644268 0.03884401 0.00386017 0.00636191 0.07917411 0.01242630 0.01452340 0.01639097 0.00123582 
0.01664111 0.07887760 0.01916925 0.00405611 0.00189284 0.00351962 0.01913923 0.00639320 0.04014288 0.00393320 0.00650875 0.07935840 0.01246872 0.01457015 0.01647610 0.00124541 
0.01660119 0.07925861 0.01930711 0.00408557 0.00200630 0.00353618 0.01958813 0.00634386 0.04147512 0.00400594 0.00665206 0.07952536 0.01249896 0.01460038 0.01654882 0.00125524 
0.01661133 0.07966580 0.01942248 0.00411754 0.00212134 0.00354970 0.02002659 0.00629482 0.04283387 0.00407815 0.00679133 0.07967666 0.01251645 0.01461432 0.01660924 0.00126525 
0.01666818 0.08009454 0.01951507 0.00415168 0.00223765 0.00356016 0.02045293 0.00624625 0.04421198 0.00414958 0.00692603 0.07981412 0.01252065 0.01461225 0.01665759 0.00127542 
0.01676816 0.08053997 0.01958467 0.00418762 0.00235491 0.00356754 0.02086543 0.00619829 0.04560206 0.00421997 0.00705567 0.07993971 0.01251106 0.01459454 0.01669414 0.00128571 
0.01690750 0.08099701 0.01963116 0.00422500 0.00247279 0.00357185 0.02126243 0.00615112 0.04699649 0.00428907 0.00717976 0.08005546 0.01248728 0.01456165 0.01671927 0.00129606 
0.01708223 0.08146043 0.01965452 0.00426344 0.00259094 0.00357308 0.02164229 0.00610488 0.04838749 0.00435660 0.00729781 0.08016349 0.01244894 0.01451409 0.01673343 0.00130644 
0.01728827 0.08192482 0.01965484 0.00430256 0.00270902 0.00357127 0.02200341 0.00605972 0.04976718 0.00442232 0.00740936 0.08026594 0.01239577 0.01445243 0.01673712 0.00131681 
0.01752139 0.08238469 0.01963227 0.00434196 0.00282667 0.00356646 0.02234422 0.00601580 0.05112758 0.00448596 0.00751394 0.08036497 0.01232753 0.01437731 0.01673094 0.00132712 
0.01777729 0.08283447 0.01958707 0.00438125 0.00294353 0.00355871 0.02266322 0.00597324 0.05246070 0.00454728 0.00761113 0.08046269 0.01224409 0.01428943 0.01671550 0.00133733 
0.01805160 0.08326855 0.01951957 0.00442002 0.00305923 0.00354808 0.02295899 0.00593220 0.05375857 0.00460601 0.00770051 0.08056118 0.01214537 0.01418953 0.01669151 0.00134739 
0.01833993 0.08368133 0.01943020 0.00445789 0.00317342 0.00353466 0.02323015 0.00589280 0.05501331 0.00466191 0.00778170 0.08066243 0.01203138 0.01407841 0.01665968 0.00135727 
0.01863786 0.08406725 0.01931945 0.00449447 0.00328572 0.00351854 0.02347540 0.00585518 0.05621715 0.00471475 0.00785432 0.08076832 0.01190219 0.01395689 0.01662078 0.00136691 
0.01894103 0.08442084 0.01918787 0.00452939 0.00339576 0.00349984 0.02369355 0.00581946 0.05736252 0.00476428 0.00791803 0.08088060 0.01175797 0.01382586 0.01657560 0.00137628 
0.01924513 0.08473671 0.01903611 0.00456227 0.00350319 0.00347866 0.02388349 0.00578577 0.05844206 0.00481029 0.00797253 0.08100086 0.01159893 0.01368620 0.01652496 0.00138534 
0.01954591 0.08500966 0.01886486 0.00459278 0.00360765 0.00345515 0.02404418 0.00575421 0.05944871 0.00485256 0.00801753 0.08113051 0.01142540 0.01353884 0.01646968 0.00139405 
0.01983926 0.08523465 0.01867487 0.00462057 0.00370879 0.00342945 0.02417474 0.00572489 0.06037573 0.00489089 0.00805279 0.08127077 0.01123776 0.01338472 0.01641059 0.00140236 
0.02012119 0.08540686 0.01846694 0.00464534 0.00380628 0.00340170 0.02427434 0.00569793 0.06121674 0.00492510 0.00807809 0.08142264 0.01103646 0.01322479 0.01634852 0.00141026 
0.02038788 0.08552175 0.01824192 0.00466679 0.00389977 0.00337207 0.02434230 0.00567341 0.06196581 0.00495500 0.00809325 0.08158688 0.01082204 0.01306002 0.01628430 0.00141769 
0.02063571 0.08557503 0.01800071 0.00468467 0.00398897 0.00334073 0.02437806 0.00565143 0.06261745 0.00498044 0.00809814 0.08176402 0.01059510 0.01289136 0.01621872 0.00142464 
0.02086125 0.08556274 0.01774422 0.00469873 0.00407356 0.00330786 0.02438117 0.00563207 0.06316670 0.00500129 0.00809264 0.08195434 0.01035630 0.01271978 0.01615258 0.00143108 
0.02106133 0.08548126 0.01747341 0.00470877 0.00415325 0.00327364 0.02435131 0.00561541 0.06360913 0.00501740 0.00807669 0.08215786 0.01010639 0.01254621 0.01608663 0.00143698 
0.02123302 0.08532735 0.01718926 0.00471460 0.00422779 0.00323828 0.02428828 0.00560152 0.06394089 0.00502869 0.00805027 0.08237434 0.00984615 0.01237161 0.01602158 0.00144232 
0.02137365 0.08509815 0.01689276 0.00471609 0.00429692 0.00320196 0.02419203 0.00559046 0.06415875 0.00503507 0.00801338 0.08260329 0.00957645 0.01219687 0.01595811 0.00144708 
0.02148087 0.08479121 0.01658492 0.00471313 0.00436041 0.00316488 0.02406263 0.00558229 0.06426012 0.00503647 0.00796608 0.08284395 0.00929819 0.01202289 0.01589687 0.00145124 
0.02155260 0.08440453 0.01626676 0.00470563 0.00441807 0.00312726 0.02390030 0.00557705 0.06424309 0.00503285 0.00790846 0.08309533 0.00901233 0.01185052 0.01583843 0.00145480 
0.02158710 0.08393653 0.01593930 0.00469356 0.00446969 0.00308931 0.02370537 0.00557479 0.06410642 0.00502419 0.00784067 0.08335619 0.00871989 0.01168059 0.01578332 0.00145775 
0.02158295 0.08338612 0.01560354 0.00467691 0.00451514 0.00305122 0.02347833 0.00557553 0.06384958 0.00501050 0.00776286 0.08362507 0.00842189 0.01151389 0.01573202 0.00146007 
0.02153907 0.08275268 0.01526051 0.00465572 0.00455427 0.00301323 0.02321979 0.00557929 0.06347277 0.00499180 0.00767527 0.08390028 0.00811944 0.01135116 0.01568493 0.00146178 
0.02145472 0.08203605 0.01491120 0.00463004 0.00458697 0.00297553 0.02293049 0.00558609 0.06297692 0.00496814 0.00757813 0.08417995 0.00781364 0.01119311 0.01564241 0.00146286 
0.02132949 0.08123659 0.01455659 0.00460000 0.00461318 0.00293835 0.02261132 0.00559593 0.06236368 0.00493959 0.00747175 0.08446206 0.00750563 0.01104038 0.01560475 0.00146332 
0.02116335 0.08035513 0.01419766 0.00456573 0.00463283 0.00290189 0.02226328 0.00560881 0.06163544 0.00490626 0.00735646 0.08474441 0.00719657 0.01089358 0.01557216 0.00146317 
0.02095659 0.07939298 0.01383534 0.00452741 0.00464591 0.00286636 0.02188750 0.00562471 0.06079530 0.00486826 0.00723262 0.08502468 0.00688765 0.01075327 0.01554480 0.00146243 
0.02070986 0.07835195 0.01347056 0.00448524 0.00465241 0.00283196 0.02148523 0.00564360 0.05984711 0.00482574 0.00710064 0.08530046 0.00658005 0.01061994 0.01552276 0.00146110 
0.02042414 0.07723432 0.01310420 0.00443949 0.00465237 0.00279890 0.02105785 0.00566546 0.05879539 0.00477886 0.00696095 0.08556928 0.00627496 0.01049402 0.01550607 0.00145920 
0.02010076 0.07604284 0.01273714 0.00439041 0.00464586 0.00276736 0.02060684 0.00569025 0.05764535 0.00472782 0.00681403 0.08582861 0.00597356 0.01037591 0.01549470 0.00145675 
0.01974137 0.07478073 0.01237021 0.00433832 0.00463295 0.00273755 0.02013379 0.00571791 0.05640288 0.00467282 0.00666036 0.08607594 0.00567705 0.01026594 0.01548855 0.00145378 
0.01934792 0.07345162 0.01200420 0.00428355 0.00461377 0.00270963 0.01964041 0.00574838 0.05507446 0.00461411 0.00650050 0.08630877 0.00538658 0.01016437 0.01548746 0.00145031 
0.01892268 0.07205957 0.01163989 0.00422646 0.00458846 0.00268379 0.01912847 0.00578159 0.05366720 0.00455192 0.00633497 0.08652464 0.00510332 0.01007142 0.01549123 0.00144636 
0.01846820 0.07060907 0.01127801 0.00416745 0.00455718 0.00266019 0.01859987 0.00581747 0.05218876 0.00448654 0.00616438 0.08672122 0.00482839 0.00998725 0.01549960 0.00144196 
0.01798730 0.06910495 0.01091926 0.00410691 0.00452013 0.00263899 0.01805657 0.00585594 0.05064732 0.00441824 0.00598932 0.08689626 0.00456290 0.00991195 0.01551227 0.00143715 
0.01748305 0.06755242 0.01056430 0.00404526 0.00447753 0.00262034 0.01750060 0.00589688 0.04905153 0.00434733 0.00581041 0.08704768 0.00430790 0.00984557 0.01552888 0.00143195 
0.01695876 0.06595699 0.01021376 0.00398296 0.00442961 0.00260437 0.01693407 0.00594021 0.04741048 0.00427414 0.00562828 0.08717360 0.00406444 0.00978811 0.01554905 0.00142641 
0.01641795 0.06432448 0.00986824 0.00392045 0.00437664 0.00259120 0.01635916 0.00598581 0.04573362 0.00419898 0.00544361 0.08727232 0.00383349 0.00973951 0.01557235 0.00142055 
0.01586432 0.06266098 0.00952830 0.00385819 0.00431890 0.00258095 0.01577808 0.00603356 0.04403072 0.00412221 0.00525704 0.08734240 0.00361599 0.00969966 0.01559835 0.00141441 
0.01530176 0.06097278 0.00919448 0.00379665 0.00425669 0.00257373 0.01519308 0.00608334 0.04231184 0.00404417 0.00506925 0.08738266 0.00341283 0.00966842 0.01562657 0.00140803 
0.01473427 0.05926641 0.00886727 0.00373631 0.00419032 0.00256962 0.01460648 0.00613501 0.04058722 0.00396522 0.00488093 0.08739221 0.00322484 0.00964558 0.01565652 0.00140145 
0.01416600 0.05754850 0.00854715 0.00367763 0.00412012 0.00256869 0.01402058 0.00618844 0.03886725 0.00388572 0.00469276 0.08737047 0.00305279 0.00963090 0.01568770 0.00139469 
0.01360116 0.05582587 0.00823455 0.00362110 0.00404644 0.00257101 0.01343773 0.00624348 0.03716241 0.00380604 0.00450542 0.08731719 0.00289740 0.00962411 0.01571961 0.00138781 
0.01304405 0.05410536 0.00792991 0.00356715 0.00396963 0.00257663 0.01286027 0.00629998 0.03548319 0.00372655 0.00431959 0.08723246 0.00275929 0.00962491 0.01575175 0.00138083 
0.01249898 0.05239389 0.00763360 0.00351626 0.00389005 0.00258557 0.01229055 0.00635779 0.03384005 0.00364760 0.00413595 0.08711672 0.00263904 0.00963294 0.01578360 0.00137379 
0.01197030 0.05069839 0.00734600 0.00346886 0.00380808 0.00259785 0.01173089 0.00641674 0.03224331 0.00356958 0.00395518 0.08697079 0.00253716 0.00964784 0.01581469 0.00136673 
0.01146232 0.04902574 0.00706746 0.00342537 0.00372409 0.00261349 0.01118362 0.00647668 0.03070315 0.00349282 0.00377792 0.08679584 0.00245406 0.00966922 0.01584453 0.00135969 
0.01097931 0.04738276 0.00679830 0.00338619 0.00363845 0.00263246 0.01065101 0.00653743 0.02922949 0.00341769 0.00360483 0.08659344 0.00239011 0.00969666 0.01587267 0.00135269 
0.01052548 0.04577616 0.00653885 0.00335170 0.00355155 0.00265474 0.01013530 0.00659882 0.02783196 0.00334452 0.00343652 0.08636551 0.00234556 0.00972973 0.01589868 0.00134576 
0.01010492 0.04421249 0.00628939 0.00332227 0.00346377 0.00268029 0.00963869 0.00666069 0.02651982 0.00327363 0.00327362 0.08611433 0.00232062 0.00976798 0.01592215 0.00133895 
0.00972161 0.04269815 0.00605022 0.00329821 0.00337547 0.00270906 0.00916332 0.00672285 0.02530191 0.00320536 0.00311669 0.08584254 0.00231539 0.00981096 0.01594272 0.00133228 
0.00937939 0.04123929 0.00582160 0.00327982 0.00328704 0.00274096 0.00871126 0.00678513 0.02418660 0.00313999 0.00296632 0.08555314 0.00232992 0.00985820 0.01596003 0.00132577 
0.00908191 0.03984182 0.00560379 0.00326736 0.00319882 0.00277593 0.00828451 0.00684735 0.02318170 0.00307781 0.00282303 0.08524943 0.00236414 0.00990925 0.01597381 0.00131946 
0.00883262 0.03851135 0.00539706 0.00326107 0.00311118 0.00281384 0.00788499 0.00690934 0.02229445 0.00301908 0.00268732 0.08493503 0.00241794 0.00996364 0.01598379 0.00131336 
0.00863477 0.03725320 0.00520163 0.00326113 0.00302446 0.00285460 0.00751452 0.00697092 0.02153147 0.00296405 0.00255968 0.08461384 0.00249109 0.01002090 0.01598975 0.00130750 
0.00849135 0.03607231 0.00501774 0.00326770 0.00293899 0.00289808 0.00717484 0.00703191 0.02089866 0.00291293 0.00244055 0.08429001 0.00258332 0.01008059 0.01599153 0.00130189 
0.00840509 0.03497327 0.00484563 0.00328089 0.00285510 0.00294413 0.00686755 0.00709214 0.02040124 0.00286593 0.00233033 0.08396793 0.00269426 0.01014226 0.01598901 0.00129656 
0.00837847 0.03396026 0.00468552 0.00330077 0.00277307 0.00299260 0.00659418 0.00715143 0.02004363 0.00282322 0.00222939 0.08365217 0.00282345 0.01020549 0.01598211 0.00129151 
0.00841364 0.03303704 0.00453763 0.00332737 0.00269320 0.00304332 0.00635612 0.00720961 0.01982949 0.00278494 0.00213807 0.08334747 0.00297038 0.01026985 0.01597080 0.00128677 
0.00851246 0.03220692 0.00440217 0.00336067 0.00261576 0.00309613 0.00615463 0.00726652 0.01976165 0.00275121 0.00205665 0.08305868 0.00313446 0.01033495 0.01595509 0.00128233 
0.00867645 0.03147277 0.00427935 0.00340062 0.00254101 0.00315083 0.00599084 0.00732199 0.01984209 0.00272214 0.00198539 0.08279075 0.00331501 0.01040041 0.01593504 0.00127821 
0.00890683 0.03083696 0.00416937 0.00344712 0.00246916 0.00320723 0.00586575 0.00737587 0.02007194 0.00269778 0.00192449 0.08254865 0.00351132 0.01046588 0.01591077 0.00127441 
0.00920443 0.03030138 0.00407242 0.00350002 0.00240043 0.00326512 0.00578022 0.00742798 0.02045144 0.00267818 0.00187413 0.08233738 0.00372257 0.01053102 0.01588242 0.00127094 
0.00956978 0.02986743 0.00398870 0.00355915 0.00233501 0.00332429 0.00573496 0.00747819 0.02097998 0.00266335 0.00183442 0.08216187 0.00394792 0.01059553 0.01585018 0.00126779 
0.01000301 0.02953598 0.00391838 0.00362427 0.00227308 0.00338452 0.00573054 0.00752635 0.02165603 0.00265326 0.00180543 0.08202699 0.00418644 0.01065914 0.01581428 0.00126496 
0.01050393 0.02930742 0.00386164 0.00369512 0.00221476 0.00344558 0.00576735 0.00757231 0.02247722 0.00264788 0.00178722 0.08193748 0.00443715 0.01072158 0.01577498 0.00126245 
0.01107196 0.02918162 0.00381863 0.00377139 0.00216020 0.00350725 0.00584567 0.00761595 0.02344028 0.00264714 0.00177975 0.08189789 0.00469905 0.01078263 0.01573258 0.00126025 
0.01170619 0.02915793 0.00378950 0.00385274 0.00210950 0.00356928 0.00596557 0.00765712 0.02454110 0.00265092 0.00178298 0.08191258 0.00497105 0.01084211 0.01568740 0.00125836 
0.01240533 0.02923520 0.00377439 0.00393879 0.00206272 0.00363145 0.00612700 0.00769572 0.02577474 0.00265911 0.00179681 0.08198565 0.00525205 0.01089983 0.01563980 0.00125676 
0.01316776 0.02941179 0.00377342 0.00402913 0.00201994 0.00369350 0.00632975 0.00773162 0.02713544 0.00267156 0.00182108 0.08212093 0.00554090 0.01095568 0.01559015 0.00125545 
0.01399151 0.02968558 0.00378668 0.00412331 0.00198119 0.00375520 0.00657341 0.00776472 0.02861666 0.00268810 0.00185563 0.08232188 0.00583642 0.01100954 0.01553885 0.00125440 
0.01487429 0.03005395 0.00381425 0.00422086 0.00194647 0.00381632 0.00685747 0.00779492 0.03021114 0.00270852 0.00190021 0.08259163 0.00613741 0.01106133 0.01548630 0.00125361 
0.01581347 0.03051385 0.00385620 0.00432128 0.00191580 0.00387660 0.00718121 0.00782214 0.03191088 0.00273261 0.00195456 0.08293291 0.00644263 0.01111101 0.01543293 0.00125305 
0.01680614 0.03106176 0.00391255 0.00442406 0.00188914 0.00393583 0.00754378 0.00784627 0.03370726 0.00276014 0.00201837 0.08334801 0.00675084 0.01115855 0.01537916 0.00125272 
0.01784906 0.03169377 0.00398333 0.00452865 0.00186644 0.00399376 0.00794418 0.00786727 0.03559102 0.00279084 0.00209129 0.08383878 0.00706080 0.01120396 0.01532542 0.00125258 
0.01893877 0.03240555 0.00406849 0.00463449 0.00184765 0.00405017 0.00838122 0.00788505 0.03755237 0.00282446 0.00217294 0.08440658 0.00737123 0.01124725 0.01527214 0.00125264 
0.02007151 0.03319240 0.00416800 0.00474102 0.00183268 0.00410484 0.00885362 0.00789956 0.03958101 0.00286070 0.00226290 0.08505230 0.00768088 0.01128850 0.01521974 0.00125285 
0.02124330 0.03404927 0.00428176 0.00484766 0.00182143 0.00415756 0.00935991 0.00791076 0.04166618 0.00289926 0.00236072 0.08577630 0.00798850 0.01132777 0.01516864 0.00125321 
0.02244996 0.03497081 0.00440965 0.00495382 0.00181380 0.00420811 0.00989849 0.00791862 0.04379678 0.00293985 0.00246591 0.08657841 0.00829283 0.01136515 0.01511924 0.00125370 
0.02368711 0.03595136 0.00455152 0.00505891 0.00180965 0.00425632 0.01046765 0.00792310 0.04596137 0.00298214 0.00257796 0.08745794 0.00859267 0.01140076 0.01507193 0.00125428 
0.02495020 0.03698501 0.00470716 0.00516234 0.00180884 0.00430199 0.01106552 0.00792419 0.04814829 0.00302582 0.00269634 0.08841367 0.00888679 0.01143473 0.01502708 0.00125495 
0.02623455 0.03806563 0.00487634 0.00526353 0.00181122 0.00434495 0.01169012 0.00792189 0.05034568 0.00307056 0.00282049 0.08944383 0.00917404 0.01146721 0.01498504 0.00125569 
0.02753536 0.03918688 0.00505877 0.00536190 0.00181663 0.00438503 0.01233937 0.00791620 0.05254161 0.00311605 0.00294981 0.09054613 0.00945325 0.01149835 0.01494612 0.00125647 
0.02884775 0.04034227 0.00525412 0.00545689 0.00182489 0.00442209 0.01301106 0.00790715 0.05472408 0.00316195 0.00308371 0.09171776 0.00972334 0.01152832 0.01491063 0.00125727 
0.03016677 0.04152522 0.00546202 0.00554795 0.00183582 0.00445599 0.01370289 0.00789476 0.05688115 0.00320795 0.00322158 0.09295541 0.00998323 0.01155729 0.01487884 0.00125808 
0.03148747 0.04272901 0.00568205 0.00563455 0.00184924 0.00448660 0.01441249 0.00787907 0.05900100 0.00325373 0.00336277 0.09425526 0.01023192 0.01158545 0.01485097 0.00125888 
0.03280486 0.04394692 0.00591375 0.00571618 0.00186496 0.00451383 0.01513736 0.00786014 0.06107196 0.00329900 0.00350666 0.09561304 0.01046845 0.01161298 0.01482724 0.00125966 
0.03411400 0.04517217 0.00615659 0.00579235 0.00188276 0.00453757 0.01587498 0.00783803 0.06308265 0.00334345 0.00365259 0.09702404 0.01069191 0.01164006 0.01480781 0.00126039 
0.03540999 0.04639805 0.00641001 0.00586260 0.00190247 0.00455776 0.01662272 0.00781282 0.06502198 0.00338680 0.00379990 0.09848311 0.01090145 0.01166689 0.01479282 0.00126107 
0.03668803 0.04761786 0.00667340 0.00592650 0.00192387 0.00457433 0.01737794 0.00778459 0.06687927 0.00342877 0.00394794 0.09998474 0.01109631 0.01169363 0.01478236 0.00126168 
0.03794342 0.04882503 0.00694611 0.00598366 0.00194676 0.00458723 0.01813793 0.00775345 0.06864427 0.00346913 0.00409607 0.10152309 0.01127577 0.01172048 0.01477652 0.00126221 
0.03917158 0.05001310 0.00722741 0.00603372 0.00197094 0.00459644 0.01889996 0.00771951 0.07030726 0.00350762 0.00424362 0.10309197 0.01143920 0.01174759 0.01477530 0.00126265 
0.04036813 0.05117577 0.00751657 0.00607635 0.00199621 0.00460194 0.01966127 0.00768289 0.07185907 0.00354403 0.00438996 0.10468495 0.01158603 0.01177512 0.01477870 0.00126300 
0.04152885 0.05230693 0.00781277 0.00611127 0.00202238 0.00460374 0.02041909 0.00764374 0.07329119 0.00357816 0.00453445 0.10629539 0.01171578 0.01180322 0.01478669 0.00126324 
0.04264973 0.05340070 0.00811519 0.00613824 0.00204925 0.00460185 0.02117066 0.00760221 0.07459576 0.00360983 0.00467647 0.10791644 0.01182803 0.01183202 0.01479919 0.00126338 
0.04372700 0.05445146 0.00842294 0.00615704 0.00207663 0.00459631 0.02191322 0.00755845 0.07576565 0.00363889 0.00481542 0.10954114 0.01192247 0.01186165 0.01481608 0.00126341 
0.04475717 0.05545387 0.00873509 0.00616753 0.00210436 0.00458718 0.02264404 0.00751265 0.07679449 0.00366520 0.00495072 0.11116244 0.01199884 0.01189219 0.01483723 0.00126333 
0.04573697 0.05640287 0.00905070 0.00616958 0.00213224 0.00457451 0.02336042 0.00746498 0.07767672 0.00368867 0.00508178 0.11277326 0.01205700 0.01192374 0.01486247 0.00126313 
0.04666349 0.05729377 0.00936876 0.00616314 0.00216012 0.00455838 0.02405971 0.00741565 0.07840763 0.00370920 0.00520808 0.11436652 0.01209684 0.01195636 0.01489159 0.00126284 
0.04753406 0.05812221 0.00968827 0.00614816 0.00218782 0.00453890 0.02473931 0.00736487 0.07898335 0.00372673 0.00532909 0.11593521 0.01211840 0.01199010 0.01492437 0.00126244 
0.04834639 0.05888422 0.01000817 0.00612467 0.00221522 0.00451617 0.02539669 0.00731285 0.07940091 0.00374124 0.00544433 0.11747245 0.01212174 0.01202497 0.01496056 0.00126194 
0.04909849 0.05957621 0.01032740 0.00609275 0.00224215 0.00449030 0.02602939 0.00725983 0.07965823 0.00375271 0.00555332 0.11897150 0.01210704 0.01206097 0.01499988 0.00126136 
0.04978873 0.06019502 0.01064486 0.00605249 0.00226849 0.00446144 0.02663504 0.00720604 0.07975415 0.00376117 0.00565564 0.12042582 0.01207455 0.01209808 0.01504205 0.00126069 
0.05041582 0.06073789 0.01095946 0.00600405 0.00229411 0.00442972 0.02721138 0.00715174 0.07968843 0.00376664 0.00575090 0.12182915 0.01202460 0.01213626 0.01508674 0.00125996 
0.05097884 0.06120250 0.01127008 0.00594762 0.00231891 0.00439530 0.02775623 0.00709718 0.07946174 0.00376920 0.00583874 0.12317549 0.01195759 0.01217544 0.01513365 0.00125917 
0.05147723 0.06158698 0.01157560 0.00588346 0.00234278 0.00435834 0.02826755 0.00704263 0.07907565 0.00376893 0.00591882 0.12445921 0.01187401 0.01221552 0.01518242 0.00125833 
0.05191079 0.06188990 0.01187491 0.00581182 0.00236562 0.00431901 0.02874341 0.00698836 0.07853267 0.00376595 0.00599086 0.12567504 0.01177442 0.01225639 0.01523271 0.00125746 
0.05227968 0.06211028 0.01216689 0.00573304 0.00238736 0.00427749 0.02918201 0.00693465 0.07783613 0.00376037 0.00605461 0.12681812 0.01165943 0.01229791 0.01528417 0.00125658 
0.05258442 0.06224761 0.01245044 0.00564746 0.00240793 0.00423397 0.02958170 0.00688178 0.07699028 0.00375236 0.00610986 0.12788404 0.01152973 0.01233991 0.01533644 0.00125570 
0.05282587 0.06230181 0.01272447 0.00555548 0.00242725 0.00418863 0.02994097 0.00683005 0.07600015 0.00374208 0.00615645 0.12886886 0.01138606 0.01238223 0.01538915 0.00125483 
0.05300524 0.06227326 0.01298791 0.00545751 0.00244527 0.00414168 0.03025847 0.00677974 0.07487159 0.00372972 0.00619424 0.12976915 0.01122925 0.01242465 0.01544195 0.00125400 
0.05312409 0.06216277 0.01323972 0.00535401 0.00246196 0.00409330 0.03053299 0.00673115 0.07361122 0.00371548 0.00622315 0.13058199 0.01106013 0.01246695 0.01549447 0.00125323 
0.05318427 0.06197159 0.01347887 0.00524546 0.00247728 0.00404370 0.03076350 0.00668457 0.07222634 0.00369957 0.00624314 0.13130501 0.01087963 0.01250890 0.01554637 0.00125252 
0.05318795 0.06170138 0.01370440 0.00513236 0.00249120 0.00399308 0.03094914 0.00664030 0.07072496 0.00368222 0.00625419 0.13193641 0.01068868 0.01255024 0.01559730 0.00125190 
0.05313761 0.06135421 0.01391536 0.00501524 0.00250370 0.00394163 0.03108921 0.00659862 0.06911568 0.00366367 0.00625635 0.13247493 0.01048828 0.01259070 0.01564692 0.00125139 
0.05303595 0.06093255 0.01411086 0.00489464 0.00251477 0.00388956 0.03118319 0.00655982 0.06740768 0.00364416 0.00624969 0.13291991 0.01027945 0.01262999 0.01569492 0.00125100 
0.05288597 0.06043923 0.01429005 0.00477112 0.00252441 0.00383706 0.03123073 0.00652419 0.06561063 0.00362395 0.00623434 0.13327126 0.01006322 0.01266782 0.01574099 0.00125075 
0.05269087 0.05987743 0.01445216 0.00464527 0.00253263 0.00378433 0.03123167 0.00649200 0.06373467 0.00360328 0.00621044 0.13352945 0.00984068 0.01270388 0.01578483 0.00125066 
0.05245407 0.05925067 0.01459646 0.00451766 0.00253942 0.00373155 0.03118602 0.00646351 0.06179030 0.00358242 0.00617820 0.13369553 0.00961291 0.01273788 0.01582616 0.00125075 
0.05217917 0.05856277 0.01472227 0.00438888 0.00254481 0.00367892 0.03109396 0.00643899 0.05978834 0.00356163 0.00613786 0.13377113 0.00938099 0.01276948 0.01586474 0.00125102 
0.05186992 0.05781785 0.01482900 0.00425954 0.00254881 0.00362660 0.03095587 0.00641868 0.05773988 0.00354116 0.00608967 0.13375840 0.00914603 0.01279837 0.01590033 0.00125149 
0.05153021 0.05702025 0.01491612 0.00413023 0.00255145 0.00357477 0.03077227 0.00640282 0.05565616 0.00352126 0.00603394 0.13366003 0.00890913 0.01282424 0.01593271 0.00125218 
0.05116401 0.05617457 0.01498320 0.00400154 0.00255275 0.00352359 0.03054388 0.00639162 0.05354856 0.00350219 0.00597102 0.13347921 0.00867138 0.01284676 0.01596169 0.00125310 
0.05077540 0.05528559 0.01502984 0.00387406 0.00255275 0.00347323 0.03027158 0.00638530 0.05142849 0.00348417 0.00590126 0.13321963 0.00843385 0.01286564 0.01598710 0.00125425 
0.05036847 0.05435828 0.01505576 0.00374837 0.00255147 0.00342382 0.02995641 0.00638402 0.04930734 0.00346745 0.00582508 0.13288542 0.00819762 0.01288057 0.01600881 0.00125565 
0.04994737 0.05339773 0.01506076 0.00362504 0.00254895 0.00337550 0.02959959 0.00638797 0.04719640 0.00345223 0.00574288 0.13248114 0.00796370 0.01289125 0.01602670 0.00125730 
0.04951620 0.05240916 0.01504470 0.00350462 0.00254522 0.00332841 0.02920246 0.00639728 0.04510680 0.00343873 0.00565512 0.13201174 0.00773313 0.01289741 0.01604066 0.00125921 
0.04907905 0.05139785 0.01500754 0.00338766 0.00254032 0.00328266 0.02876654 0.00641208 0.04304945 0.00342714 0.00556229 0.13148254 0.00750687 0.01289879 0.01605065 0.00126138 
0.04863994 0.05036914 0.01494934 0.00327466 0.00253429 0.00323835 0.02829347 0.00643246 0.04103495 0.00341763 0.00546486 0.13089916 0.00728586 0.01289514 0.01605661 0.00126381 
0.04820279 0.04932838 0.01487024 0.00316612 0.00252715 0.00319558 0.02778503 0.00645851 0.03907356 0.00341036 0.00536335 0.13026749 0.00707101 0.01288624 0.01605853 0.00126650 
0.04777141 0.04828093 0.01477045 0.00306253 0.00251895 0.00315444 0.02724314 0.00649028 0.03717510 0.00340548 0.00525828 0.12959368 0.00686315 0.01287188 0.01605642 0.00126945 
0.04734946 0.04723209 0.01465030 0.00296431 0.00250972 0.00311500 0.02666983 0.00652777 0.03534895 0.00340311 0.00515021 0.12888405 0.00666310 0.01285188 0.01605033 0.00127265 
0.04694045 0.04618708 0.01451018 0.00287189 0.00249950 0.00307732 0.02606723 0.00657100 0.03360392 0.00340335 0.00503968 0.12814509 0.00647160 0.01282611 0.01604030 0.00127610 
0.04654769 0.04515105 0.01435058 0.00278565 0.00248831 0.00304145 0.02543757 0.00661991 0.03194829 0.00340629 0.00492724 0.12738335 0.00628934 0.01279443 0.01602644 0.00127978 
0.04617426 0.04412899 0.01417207 0.00270595 0.00247618 0.00300743 0.02478319 0.00667446 0.03038968 0.00341199 0.00481347 0.12660549 0.00611695 0.01275677 0.01600886 0.00128368 
0.04582305 0.04312579 0.01397532 0.00263311 0.00246315 0.00297530 0.02410649 0.00673454 0.02893505 0.00342048 0.00469893 0.12581815 0.00595499 0.01271305 0.01598768 0.00128780 
0.04549667 0.04214611 0.01376107 0.00256742 0.00244924 0.00294505 0.02340996 0.00680003 0.02759065 0.00343179 0.00458418 0.12502793 0.00580398 0.01266327 0.01596307 0.00129212 
0.04519747 0.04119444 0.01353011 0.00250912 0.00243447 0.00291671 0.02269613 0.00687078 0.02636201 0.00344592 0.00446979 0.12424138 0.00566435 0.01260742 0.01593520 0.00129661 
0.04492754 0.04027507 0.01328336 0.00245844 0.00241887 0.00289027 0.02196760 0.00694659 0.02525388 0.00346283 0.00435632 0.12346491 0.00553647 0.01254557 0.01590429 0.00130126 
0.04468866 0.03939201 0.01302177 0.00241554 0.00240247 0.00286571 0.02122699 0.00702725 0.02427020 0.00348250 0.00424431 0.12270477 0.00542064 0.01247780 0.01587055 0.00130605 
0.04448231 0.03854906 0.01274637 0.00238057 0.00238527 0.00284301 0.02047698 0.00711252 0.02341414 0.00350484 0.00413430 0.12196699 0.00531709 0.01240423 0.01583421 0.00131096 
0.04430968 0.03774972 0.01245826 0.00235363 0.00236731 0.00282213 0.01972022 0.00720211 0.02268800 0.00352978 0.00402682 0.12125739 0.00522598 0.01232503 0.01579555 0.00131596 
0.04417162 0.03699723 0.01215859 0.00233479 0.00234860 0.00280304 0.01895943 0.00729573 0.02209329 0.00355720 0.00392238 0.12058149 0.00514740 0.01224040 0.01575483 0.00132102 
0.04406869 0.03629453 0.01184856 0.00232406 0.00232915 0.00278567 0.01819726 0.00739303 0.02163064 0.00358699 0.00382147 0.11994447 0.00508138 0.01215058 0.01571234 0.00132613 
0.04400111 0.03564426 0.01152944 0.00232145 0.00230899 0.00276998 0.01743641 0.00749365 0.02129988 0.00361900 0.00372456 0.11935121 0.00502787 0.01205585 0.01566840 0.00133124 
0.04396878 0.03504874 0.01120253 0.00232689 0.00228814 0.00275590 0.01667951 0.00759721 0.02109999 0.00365307 0.00363210 0.11880618 0.00498676 0.01195653 0.01562330 0.00133634 
0.04397131 0.03451002 0.01086916 0.00234031 0.00226660 0.00274335 0.01592920 0.00770330 0.02102914 0.00368903 0.00354450 0.11831344 0.00495788 0.01185297 0.01557738 0.00134139 
0.04400797 0.03402980 0.01053071 0.00236159 0.00224441 0.00273226 0.01518803 0.00781148 0.02108471 0.00372668 0.00346218 0.11787664 0.00494098 0.01174556 0.01553098 0.00134636 
0.04407776 0.03360949 0.01018857 0.00239057 0.00222158 0.00272255 0.01445853 0.00792129 0.02126329 0.00376583 0.00338549 0.11749898 0.00493576 0.01163471 0.01548444 0.00135122 
0.04417936 0.03325019 0.00984416 0.00242706 0.00219813 0.00271411 0.01374317 0.00803226 0.02156074 0.00380627 0.00331478 0.11718316 0.00494187 0.01152089 0.01543810 0.00135593 
0.04431118 0.03295270 0.00949892 0.00247085 0.00217409 0.00270687 0.01304434 0.00814390 0.02197216 0.00384776 0.00325035 0.11693144 0.00495889 0.01140458 0.01539233 0.00136048 
0.04447137 0.03271753 0.00915429 0.00252168 0.00214948 0.00270073 0.01236436 0.00825571 0.02249201 0.00389008 0.00319248 0.11674556 0.00498634 0.01128629 0.01534747 0.00136483 
0.04465782 0.03254489 0.00881171 0.00257928 0.00212434 0.00269558 0.01170545 0.00836716 0.02311409 0.00393299 0.00314141 0.11662677 0.00502372 0.01116655 0.01530389 0.00136894 
0.04486819 0.03243473 0.00847262 0.00264335 0.00209871 0.00269133 0.01106976 0.00847772 0.02383158 0.00397624 0.00309734 0.11657580 0.00507047 0.01104592 0.01526194 0.00137278 
0.04509992 0.03238675 0.00813844 0.00271354 0.00207262 0.00268787 0.01045932 0.00858687 0.02463714 0.00401960 0.00306045 0.11659288 0.00512598 0.01092499 0.01522197 0.00137634 
0.04535025 0.03240039 0.00781060 0.00278950 0.00204611 0.00268511 0.00987606 0.00869406 0.02552291 0.00406280 0.00303086 0.11667775 0.00518961 0.01080434 0.01518434 0.00137957 
0.04561624 0.03247486 0.00749048 0.00287087 0.00201923 0.00268293 0.00932180 0.00879876 0.02648056 0.00410561 0.00300868 0.11682964 0.00526070 0.01068459 0.01514938 0.00138245 
0.04589481 0.03260918 0.00717945 0.00295723 0.00199204 0.00268124 0.00879825 0.00890041 0.02750140 0.00414777 0.00299396 0.11704728 0.00533854 0.01056634 0.01511743 0.00138496 
0.04618273 0.03280214 0.00687883 0.00304819 0.00196460 0.00267994 0.00830697 0.00899850 0.02857638 0.00418905 0.00298673 0.11732894 0.00542240 0.01045023 0.01508880 0.00138708 
0.04647668 0.03305240 0.00658991 0.00314330 0.00193696 0.00267891 0.00784942 0.00909250 0.02969619 0.00422920 0.00298696 0.11767240 0.00551154 0.01033686 0.01506382 0.00138877 
0.04677325 0.03335844 0.00631393 0.00324214 0.00190922 0.00267807 0.00742692 0.00918188 0.03085127 0.00426799 0.00299462 0.11807503 0.00560521 0.01022687 0.01504277 0.00139003 
0.04706896 0.03371861 0.00605210 0.00334424 0.00188143 0.00267731 0.00704065 0.00926616 0.03203195 0.00430521 0.00300960 0.11853375 0.00570263 0.01012087 0.01502593 0.00139082 
0.04736032 0.03413116 0.00580554 0.00344915 0.00185369 0.00267656 0.00669165 0.00934483 0.03322844 0.00434063 0.00303178 0.11904508 0.00580304 0.01001945 0.01501356 0.00139115 
0.04764380 0.03459425 0.00557534 0.00355639 0.00182609 0.00267570 0.00638083 0.00941744 0.03443093 0.00437405 0.00306101 0.11960517 0.00590564 0.00992320 0.01500591 0.00139099 
0.04791591 0.03510597 0.00536253 0.00366550 0.00179872 0.00267467 0.00610895 0.00948355 0.03562964 0.00440529 0.00309708 0.12020980 0.00600968 0.00983270 0.01500320 0.00139033 
0.04817320 0.03566436 0.00516804 0.00377600 0.00177169 0.00267337 0.00587661 0.00954274 0.03681490 0.00443417 0.00313978 0.12085446 0.00611439 0.00974849 0.01500560 0.00138917 
0.04841226 0.03626742 0.00499276 0.00388742 0.00174510 0.00267173 0.00568430 0.00959461 0.03797719 0.00446052 0.00318884 0.12153431 0.00621903 0.00967109 0.01501330 0.00138750 
0.04862981 0.03691318 0.00483749 0.00399929 0.00171908 0.00266969 0.00553233 0.00963881 0.03910722 0.00448420 0.00324396 0.12224427 0.00632285 0.00960099 0.01502644 0.00138531 
0.04882265 0.03759966 0.00470297 0.00411114 0.00169373 0.00266716 0.00542090 0.00967502 0.04019597 0.00450507 0.00330484 0.12297905 0.00642516 0.00953864 0.01504512 0.00138262 
0.04898772 0.03832490 0.00458984 0.00422250 0.00166920 0.00266410 0.00535002 0.00970294 0.04123476 0.00452304 0.00337113 0.12373314 0.00652526 0.00948445 0.01506943 0.00137943 
0.04912213 0.03908702 0.00449867 0.00433293 0.00164560 0.00266045 0.00531960 0.00972232 0.04221531 0.00453800 0.00344245 0.12450087 0.00662250 0.00943879 0.01509942 0.00137573 
0.04922315 0.03988416 0.00442994 0.00444198 0.00162308 0.00265615 0.00532937 0.00973294 0.04312977 0.00454988 0.00351842 0.12527648 0.00671626 0.00940200 0.01513511 0.00137155 
0.04928827 0.04071458 0.00438407 0.00454923 0.00160177 0.00265117 0.00537896 0.00973463 0.04397080 0.00455862 0.00359861 0.12605408 0.00680596 0.00937435 0.01517646 0.00136689 
0.04931516 0.04157659 0.00436136 0.00465426 0.00158181 0.00264547 0.00546783 0.00972726 0.04473158 0.00456418 0.00368259 0.12682777 0.00689105 0.00935607 0.01522345 0.00136177 
0.04930176 0.04246863 0.00436206 0.00475666 0.00156335 0.00263902 0.00559532 0.00971074 0.04540590 0.00456655 0.00376991 0.12759162 0.00697103 0.00934733 0.01527596 0.00135622 
0.04924623 0.04338923 0.00438629 0.00485606 0.00154652 0.00263180 0.00576063 0.00968502 0.04598815 0.00456573 0.00386011 0.12833970 0.00704545 0.00934826 0.01533389 0.00135025 
0.04914699 0.04433704 0.00443413 0.00495209 0.00153148 0.00262379 0.00596285 0.00965012 0.04647338 0.00456174 0.00395271 0.12906617 0.00711390 0.00935891 0.01539706 0.00134388 
0.04900274 0.04531083 0.00450554 0.00504441 0.00151836 0.00261498 0.00620092 0.00960606 0.04685734 0.00455462 0.00404722 0.12976526 0.00717603 0.00937929 0.01546528 0.00133716 
0.04881247 0.04630948 0.00460042 0.00513269 0.00150731 0.00260537 0.00647369 0.00955296 0.04713647 0.00454443 0.00414316 0.13043132 0.00723152 0.00940933 0.01553831 0.00133010 
0.04857544 0.04733201 0.00471858 0.00521664 0.00149848 0.00259497 0.00677988 0.00949094 0.04730796 0.00453125 0.00424002 0.13105888 0.00728014 0.00944892 0.01561588 0.00132275 
0.04829123 0.04837753 0.00485975 0.00529598 0.00149199 0.00258378 0.00711811 0.00942019 0.04736976 0.00451518 0.00433731 0.13164262 0.00732169 0.00949788 0.01569769 0.00131513 
0.04795970 0.04944530 0.00502357 0.00537046 0.00148798 0.00257183 0.00748689 0.00934093 0.04732058 0.00449634 0.00443454 0.13217748 0.00735603 0.00955597 0.01578338 0.00130729 
0.04758105 0.05053466 0.00520961 0.00543987 0.00148658 0.00255914 0.00788465 0.00925344 0.04715989 0.00447484 0.00453121 0.13265861 0.00738307 0.00962288 0.01587258 0.00129926 
0.04715575 0.05164508 0.00541737 0.00550400 0.00148791 0.00254574 0.00830970 0.00915803 0.04688796 0.00445084 0.00462683 0.13308144 0.00740280 0.00969826 0.01596489 0.00129108 
0.04668461 0.05277609 0.00564628 0.00556268 0.00149207 0.00253166 0.00876032 0.00905506 0.04650583 0.00442449 0.00472094 0.13344172 0.00741523 0.00978168 0.01605986 0.00128281 
0.04616872 0.05392731 0.00589569 0.00561577 0.00149919 0.00251696 0.00923465 0.00894492 0.04601529 0.00439599 0.00481306 0.13373549 0.00742047 0.00987266 0.01615702 0.00127447 
0.04560950 0.05509845 0.00616490 0.00566317 0.00150935 0.00250168 0.00973082 0.00882804 0.04541890 0.00436550 0.00490274 0.13395916 0.00741866 0.00997068 0.01625588 0.00126613 
0.04500864 0.05628923 0.00645313 0.00570479 0.00152263 0.00248588 0.01024687 0.00870489 0.04471998 0.00433323 0.00498956 0.13410948 0.00740998 0.01007516 0.01635592 0.00125781 
0.04436815 0.05749943 0.00675955 0.00574058 0.00153912 0.00246962 0.01078079 0.00857597 0.04392254 0.00429939 0.00507309 0.13418359 0.00739470 0.01018545 0.01645659 0.00124958 
0.04369029 0.05872886 0.00708328 0.00577052 0.00155886 0.00245297 0.01133053 0.00844181 0.04303130 0.00426420 0.00515295 0.13417904 0.00737310 0.01030089 0.01655734 0.00124147 
0.04297761 0.05997728 0.00742339 0.00579461 0.00158192 0.00243600 0.01189400 0.00830296 0.04205166 0.00422788 0.00522876 0.13409376 0.00734554 0.01042075 0.01665758 0.00123354 
0.04223293 0.06124448 0.00777888 0.00581290 0.00160833 0.00241878 0.01246908 0.00816001 0.04098964 0.00419067 0.00530018 0.13392613 0.00731242 0.01054427 0.01675673 0.00122582 
0.04145930 0.06253019 0.00814875 0.00582545 0.00163810 0.00240140 0.01305364 0.00801357 0.03985186 0.00415280 0.00536689 0.13367494 0.00727417 0.01067067 0.01685420 0.00121837 
0.04066001 0.06383405 0.00853191 0.00583235 0.00167124 0.00238394 0.01364554 0.00786425 0.03864550 0.00411452 0.00542860 0.13333942 0.00723128 0.01079912 0.01694937 0.00121123 
0.03983855 0.06515567 0.00892728 0.00583374 0.00170774 0.00236650 0.01424261 0.00771269 0.03737825 0.00407606 0.00548505 0.13291925 0.00718426 0.01092878 0.01704166 0.00120443 
0.03899864 0.06649451 0.00933372 0.00582977 0.00174757 0.00234915 0.01484272 0.00755954 0.03605827 0.00403767 0.00553602 0.13241455 0.00713366 0.01105878 0.01713045 0.00119803 
0.03814416 0.06784992 0.00975007 0.00582062 0.00179070 0.00233201 0.01544374 0.00740545 0.03469413 0.00399959 0.00558130 0.13182589 0.00708008 0.01118824 0.01721517 0.00119206 
0.03727916 0.06922113 0.01017516 0.00580650 0.00183705 0.00231517 0.01604354 0.00725109 0.03329477 0.00396207 0.00562075 0.13115428 0.00702412 0.01131629 0.01729522 0.00118656 
0.03640783 0.07060716 0.01060779 0.00578765 0.00188655 0.00229872 0.01664007 0.00709711 0.03186944 0.00392534 0.00565422 0.13040117 0.00696641 0.01144203 0.01737005 0.00118157 
0.03553449 0.07200689 0.01104675 0.00576434 0.00193911 0.00228278 0.01723126 0.00694417 0.03042764 0.00388963 0.00568164 0.12956845 0.00690762 0.01156457 0.01743910 0.00117711 
0.03466354 0.07341899 0.01149081 0.00573684 0.00199460 0.00226744 0.01781514 0.00679292 0.02897907 0.00385517 0.00570295 0.12865844 0.00684840 0.01168305 0.01750187 0.00117322 
0.03379948 0.07484189 0.01193874 0.00570547 0.00205292 0.00225281 0.01838975 0.00664400 0.02753354 0.00382218 0.00571812 0.12767386 0.00678944 0.01179660 0.01755786 0.00116992 
0.03294685 0.07627383 0.01238932 0.00567057 0.00211390 0.00223899 0.01895322 0.00649804 0.02610096 0.00379086 0.00572718 0.12661785 0.00673143 0.01190438 0.01760662 0.00116724 
0.03211024 0.07771280 0.01284130 0.00563249 0.00217738 0.00222609 0.01950374 0.00635565 0.02469126 0.00376144 0.00573017 0.12549396 0.00667506 0.01200557 0.01764771 0.00116519 
0.03129424 0.07915653 0.01329347 0.00559159 0.00224318 0.00221421 0.02003958 0.00621742 0.02331430 0.00373408 0.00572719 0.12430607 0.00662100 0.01209940 0.01768078 0.00116380 
0.03050341 0.08060249 0.01374459 0.00554828 0.00231112 0.00220346 0.02055907 0.00608390 0.02197986 0.00370897 0.00571836 0.12305846 0.00656994 0.01218512 0.01770547 0.00116308 
0.02974229 0.08204792 0.01419347 0.00550296 0.00238097 0.00219394 0.02106066 0.00595565 0.02069751 0.00368629 0.00570383 0.12175575 0.00652255 0.01226204 0.01772152 0.00116302 
0.02901535 0.08348976 0.01463891 0.00545605 0.00245253 0.00218575 0.02154288 0.00583317 0.01947665 0.00366617 0.00568379 0.12040285 0.00647948 0.01232949 0.01772867 0.00116365 
0.02832699 0.08492472 0.01507973 0.00540799 0.00252553 0.00217898 0.02200435 0.00571693 0.01832635 0.00364877 0.00565847 0.11900501 0.00644137 0.01238688 0.01772676 0.00116496 
0.02768149 0.08634922 0.01551476 0.00535922 0.00259975 0.00217373 0.02244380 0.00560737 0.01725537 0.00363420 0.00562812 0.11756771 0.00640882 0.01243368 0.01771567 0.00116694 
0.02708298 0.08775945 0.01594288 0.00531020 0.00267492 0.00217010 0.02286008 0.00550492 0.01627207 0.00362258 0.00559302 0.11609672 0.00638241 0.01246939 0.01769532 0.00116960 
0.02653548 0.08915134 0.01636298 0.00526139 0.00275075 0.00216816 0.02325214 0.00540991 0.01538435 0.00361400 0.00555346 0.11459802 0.00636269 0.01249362 0.01766574 0.00117291 
0.02604280 0.09052060 0.01677396 0.00521325 0.00282699 0.00216801 0.02361905 0.00532269 0.01459963 0.00360853 0.00550980 0.11307778 0.00635019 0.01250601 0.01762697 0.00117686 
0.02560857 0.09186271 0.01717477 0.00516626 0.00290333 0.00216973 0.02396000 0.00524354 0.01392479 0.00360624 0.00546237 0.11154234 0.00634536 0.01250630 0.01757916 0.00118144 
0.02523620 0.09317295 0.01756440 0.00512088 0.00297948 0.00217338 0.02427430 0.00517269 0.01336612 0.00360716 0.00541156 0.10999820 0.00634864 0.01249431 0.01752249 0.00118662 
0.02492886 0.09444643 0.01794186 0.00507758 0.00305515 0.00217904 0.02456138 0.00511034 0.01292930 0.00361134 0.00535776 0.10845194 0.00636043 0.01246990 0.01745724 0.00119238 
0.02468947 0.09567809 0.01830618 0.00503683 0.00313002 0.00218677 0.02482080 0.00505664 0.01261933 0.00361876 0.00530138 0.10691024 0.00638104 0.01243306 0.01738374 0.00119868 
0.02452069 0.09686275 0.01865646 0.00499909 0.00320380 0.00219664 0.02505223 0.00501170 0.01244055 0.00362944 0.00524284 0.10537982 0.00641078 0.01238383 0.01730237 0.00120549 
0.02442488 0.09799511 0.01899183 0.00496479 0.00327617 0.00220868 0.02525547 0.00497556 0.01239654 0.00364333 0.00518258 0.10386742 0.00644986 0.01232234 0.01721362 0.00121277 
0.02440410 0.09906982 0.01931144 0.00493438 0.00334683 0.00222294 0.02543047 0.00494824 0.01249019 0.00366040 0.00512103 0.10237976 0.00649847 0.01224880 0.01711800 0.00122049 
0.02446010 0.10008146 0.01961451 0.00490829 0.00341549 0.00223947 0.02557725 0.00492971 0.01272357 0.00368059 0.00505864 0.10092352 0.00655672 0.01216353 0.01701610 0.00122861 
0.02459430 0.10102462 0.01990029 0.00488691 0.00348183 0.00225829 0.02569600 0.00491989 0.01309803 0.00370383 0.00499586 0.09950529 0.00662466 0.01206688 0.01690859 0.00123707 
0.02480779 0.10189391 0.02016807 0.00487065 0.00354557 0.00227942 0.02578700 0.00491865 0.01361410 0.00373001 0.00493312 0.09813155 0.00670231 0.01195934 0.01679616 0.00124584 
0.02510130 0.10268400 0.02041719 0.00485987 0.00360643 0.00230289 0.02585064 0.00492584 0.01427153 0.00375904 0.00487089 0.09680864 0.00678958 0.01184143 0.01667957 0.00125486 
0.02547521 0.10338967 0.02064705 0.00485493 0.00366412 0.00232869 0.02588745 0.00494125 0.01506926 0.00379079 0.00480958 0.09554271 0.00688636 0.01171379 0.01655966 0.00126408 
0.02592956 0.10400584 0.02085709 0.00485614 0.00371838 0.00235684 0.02589803 0.00496463 0.01600548 0.00382512 0.00474963 0.09433974 0.00699246 0.01157709 0.01643727 0.00127346 
0.02646400 0.10452760 0.02104679 0.00486380 0.00376895 0.00238732 0.02588311 0.00499570 0.01707755 0.00386188 0.00469145 0.09320542 0.00710762 0.01143212 0.01631331 0.00128294 
0.02707781 0.10495026 0.02121570 0.00487819 0.00381560 0.00242011 0.02584352 0.00503414 0.01828210 0.00390091 0.00463544 0.09214523 0.00723154 0.01127969 0.01618872 0.00129248 
