0.07441541 0.02093380 0.01068094 0.00156027 0.00043230 0.00172631 0.00809962 0.00629312 0.00874012 0.00185218 0.00163966 0.02859363 0.00376831 0.00218997 0.00400859 0.00129506 
0.07379712 0.02132866 0.01047271 0.00155613 0.00043784 0.00173858 0.00814582 0.00631869 0.00852432 0.00181365 0.00162042 0.02896967 0.00389065 0.00218134 0.00399558 0.00129178 
0.07320345 0.02172119 0.01025294 0.00155241 0.00044395 0.00175280 0.00820328 0.00634222 0.00831757 0.00177485 0.00160367 0.02929884 0.00402150 0.00217256 0.00398043 0.00128861 
0.07264134 0.02210948 0.01002264 0.00154911 0.00045062 0.00176888 0.00827138 0.00636368 0.00812117 0.00173596 0.00158939 0.02957993 0.00416016 0.00216371 0.00396317 0.00128555 
0.07211738 0.02249170 0.00978284 0.00154624 0.00045779 0.00178674 0.00834946 0.00638301 0.00793641 0.00169711 0.00157755 0.02981200 0.00430590 0.00215490 0.00394382 0.00128263 
0.07163781 0.02286613 0.00953462 0.00154381 0.00046544 0.00180628 0.00843680 0.00640018 0.00776461 0.00165848 0.00156811 0.02999436 0.00445799 0.00214620 0.00392246 0.00127985 
0.07120843 0.02323117 0.00927905 0.00154184 0.00047351 0.00182736 0.00853263 0.00641519 0.00760709 0.00162020 0.00156101 0.03012658 0.00461569 0.00213771 0.00389915 0.00127723 
0.07083459 0.02358531 0.00901727 0.00154031 0.00048197 0.00184987 0.00863615 0.00642802 0.00746516 0.00158245 0.00155616 0.03020850 0.00477823 0.00212950 0.00387398 0.00127477 
0.07052111 0.02392723 0.00875039 0.00153925 0.00049077 0.00187367 0.00874653 0.00643869 0.00734014 0.00154537 0.00155350 0.03024018 0.00494485 0.00212164 0.00384707 0.00127247 
0.07027226 0.02425572 0.00847955 0.00153865 0.00049986 0.00189862 0.00886290 0.00644723 0.00723330 0.00150910 0.00155291 0.03022198 0.00511477 0.00211419 0.00381854 0.00127035 
0.07009174 0.02456975 0.00820588 0.00153851 0.00050920 0.00192455 0.00898437 0.00645370 0.00714592 0.00147380 0.00155428 0.03015444 0.00528723 0.00210722 0.00378853 0.00126842 
0.06998260 0.02486846 0.00793053 0.00153883 0.00051875 0.00195130 0.00911004 0.00645817 0.00707919 0.00143961 0.00155750 0.03003840 0.00546146 0.00210077 0.00375718 0.00126668 
0.06994725 0.02515118 0.00765461 0.00153960 0.00052846 0.00197871 0.00923899 0.00646073 0.00703431 0.00140665 0.00156244 0.02987488 0.00563669 0.00209487 0.00372468 0.00126513 
0.06998745 0.02541740 0.00737925 0.00154082 0.00053828 0.00200659 0.00937032 0.00646150 0.00701237 0.00137507 0.00156895 0.02966513 0.00581217 0.00208957 0.00369120 0.00126378 
0.07010425 0.02566684 0.00710554 0.00154249 0.00054817 0.00203478 0.00950312 0.00646062 0.00701442 0.00134498 0.00157688 0.02941062 0.00598716 0.00208487 0.00365693 0.00126263 
0.07029800 0.02589938 0.00683455 0.00154459 0.00055808 0.00206307 0.00963649 0.00645825 0.00704142 0.00131650 0.00158610 0.02911300 0.00616092 0.00208078 0.00362209 0.00126168 
0.07056837 0.02611511 0.00656733 0.00154711 0.00056796 0.00209130 0.00976954 0.00645459 0.00709426 0.00128975 0.00159643 0.02877411 0.00633275 0.00207732 0.00358688 0.00126095 
0.07091429 0.02631435 0.00630488 0.00155003 0.00057779 0.00211927 0.00990142 0.00644984 0.00717371 0.00126481 0.00160772 0.02839594 0.00650195 0.00207445 0.00355154 0.00126042 
0.07133401 0.02649757 0.00604819 0.00155336 0.00058751 0.00214680 0.01003130 0.00644425 0.00728047 0.00124179 0.00161980 0.02798067 0.00666786 0.00207217 0.00351628 0.00126009 
0.07182509 0.02666548 0.00579818 0.00155707 0.00059708 0.00217370 0.01015839 0.00643808 0.00741508 0.00122076 0.00163251 0.02753058 0.00682983 0.00207043 0.00348135 0.00125998 
0.07238441 0.02681897 0.00555575 0.00156113 0.00060648 0.00219979 0.01028193 0.00643161 0.00757801 0.00120180 0.00164567 0.02704810 0.00698724 0.00206920 0.00344700 0.00126007 
0.07300817 0.02695911 0.00532173 0.00156555 0.00061565 0.00222490 0.01040120 0.00642515 0.00776956 0.00118498 0.00165912 0.02653574 0.00713949 0.00206842 0.00341345 0.00126036 
0.07369199 0.02708716 0.00509692 0.00157029 0.00062457 0.00224886 0.01051555 0.00641903 0.00798991 0.00117035 0.00167270 0.02599614 0.00728604 0.00206803 0.00338097 0.00126085 
0.07443083 0.02720456 0.00488205 0.00157533 0.00063320 0.00227149 0.01062438 0.00641362 0.00823910 0.00115796 0.00168625 0.02543197 0.00742635 0.00206797 0.00334979 0.00126154 
0.07521913 0.02731290 0.00467780 0.00158065 0.00064152 0.00229264 0.01072713 0.00640928 0.00851703 0.00114785 0.00169959 0.02484600 0.00755993 0.00206814 0.00332016 0.00126243 
0.07605078 0.02741395 0.00448480 0.00158623 0.00064949 0.00231217 0.01082331 0.00640641 0.00882343 0.00114003 0.00171259 0.02424101 0.00768632 0.00206847 0.00329231 0.00126350 
0.07691917 0.02750959 0.00430361 0.00159204 0.00065709 0.00232994 0.01091251 0.00640541 0.00915790 0.00113452 0.00172510 0.02361982 0.00780511 0.00206886 0.00326648 0.00126476 
0.07781728 0.02760184 0.00413472 0.00159806 0.00066430 0.00234582 0.01099437 0.00640671 0.00951984 0.00113134 0.00173696 0.02298526 0.00791589 0.00206921 0.00324289 0.00126619 
0.07873769 0.02769284 0.00397857 0.00160425 0.00067111 0.00235970 0.01106860 0.00641075 0.00990854 0.00113047 0.00174806 0.02234014 0.00801834 0.00206942 0.00322175 0.00126780 
0.07967262 0.02778481 0.00383555 0.00161060 0.00067748 0.00237148 0.01113498 0.00641796 0.01032308 0.00113191 0.00175826 0.02168727 0.00811213 0.00206937 0.00320327 0.00126957 
0.08061403 0.02788005 0.00370596 0.00161707 0.00068341 0.00238107 0.01119337 0.00642881 0.01076242 0.00113563 0.00176744 0.02102941 0.00819702 0.00206897 0.00318764 0.00127150 
0.08155365 0.02798094 0.00359004 0.00162364 0.00068889 0.00238840 0.01124370 0.00644374 0.01122533 0.00114160 0.00177552 0.02036928 0.00827276 0.00206808 0.00317504 0.00127357 
0.08248304 0.02808988 0.00348800 0.00163027 0.00069391 0.00239342 0.01128597 0.00646322 0.01171043 0.00114978 0.00178237 0.01970953 0.00833918 0.00206660 0.00316561 0.00127579 
0.08339363 0.02820929 0.00339995 0.00163693 0.00069845 0.00239608 0.01132025 0.00648769 0.01221619 0.00116013 0.00178794 0.01905273 0.00839612 0.00206440 0.00315952 0.00127815 
0.08427683 0.02834160 0.00332596 0.00164359 0.00070253 0.00239638 0.01134668 0.00651761 0.01274092 0.00117258 0.00179214 0.01840137 0.00844349 0.00206138 0.00315687 0.00128063 
0.08512405 0.02848923 0.00326603 0.00165023 0.00070613 0.00239430 0.01136548 0.00655340 0.01328278 0.00118707 0.00179491 0.01775785 0.00848122 0.00205743 0.00315777 0.00128322 
0.08592678 0.02865455 0.00322012 0.00165681 0.00070926 0.00238986 0.01137692 0.00659551 0.01383982 0.00120354 0.00179621 0.01712445 0.00850928 0.00205242 0.00316230 0.00128592 
0.08667662 0.02883986 0.00318811 0.00166329 0.00071193 0.00238310 0.01138135 0.00664432 0.01440991 0.00122191 0.00179600 0.01650334 0.00852769 0.00204626 0.00317052 0.00128872 
0.08736538 0.02904740 0.00316984 0.00166966 0.00071413 0.00237405 0.01137918 0.00670022 0.01499084 0.00124210 0.00179426 0.01589656 0.00853651 0.00203884 0.00318247 0.00129161 
0.08798512 0.02927929 0.00316510 0.00167587 0.00071589 0.00236280 0.01137087 0.00676358 0.01558026 0.00126402 0.00179099 0.01530604 0.00853582 0.00203008 0.00319814 0.00129457 
0.08852819 0.02953754 0.00317365 0.00168189 0.00071720 0.00234942 0.01135694 0.00683471 0.01617573 0.00128759 0.00178619 0.01473356 0.00852575 0.00201988 0.00321754 0.00129761 
0.08898732 0.02982402 0.00319516 0.00168770 0.00071809 0.00233402 0.01133797 0.00691392 0.01677472 0.00131270 0.00177989 0.01418076 0.00850648 0.00200816 0.00324062 0.00130070 
0.08935563 0.03014043 0.00322930 0.00169326 0.00071857 0.00231674 0.01131456 0.00700147 0.01737461 0.00133927 0.00177210 0.01364914 0.00847820 0.00199486 0.00326731 0.00130383 
0.08962671 0.03048832 0.00327568 0.00169855 0.00071866 0.00229769 0.01128738 0.00709756 0.01797273 0.00136719 0.00176288 0.01314006 0.00844113 0.00197991 0.00329753 0.00130701 
0.08979463 0.03086900 0.00333389 0.00170353 0.00071838 0.00227705 0.01125713 0.00720239 0.01856634 0.00139637 0.00175229 0.01265472 0.00839556 0.00196327 0.00333115 0.00131021 
0.08985403 0.03128362 0.00340347 0.00170817 0.00071774 0.00225497 0.01122453 0.00731606 0.01915268 0.00142670 0.00174040 0.01219419 0.00834177 0.00194490 0.00336805 0.00131343 
0.08980012 0.03173308 0.00348395 0.00171246 0.00071678 0.00223166 0.01119034 0.00743866 0.01972898 0.00145809 0.00172729 0.01175939 0.00828010 0.00192478 0.00340804 0.00131666 
0.08962871 0.03221804 0.00357482 0.00171635 0.00071551 0.00220730 0.01115532 0.00757021 0.02029243 0.00149043 0.00171305 0.01135108 0.00821088 0.00190288 0.00345095 0.00131989 
0.08933629 0.03273893 0.00367557 0.00171983 0.00071396 0.00218211 0.01112027 0.00771067 0.02084027 0.00152363 0.00169779 0.01096991 0.00813451 0.00187921 0.00349657 0.00132310 
0.08891998 0.03329591 0.00378564 0.00172288 0.00071216 0.00215633 0.01108599 0.00785994 0.02136974 0.00155758 0.00168163 0.01061637 0.00805138 0.00185378 0.00354465 0.00132630 
0.08837761 0.03388887 0.00390450 0.00172546 0.00071013 0.00213018 0.01105327 0.00801788 0.02187816 0.00159221 0.00166469 0.01029082 0.00796192 0.00182662 0.00359496 0.00132946 
0.08770770 0.03451745 0.00403157 0.00172756 0.00070791 0.00210391 0.01102291 0.00818427 0.02236289 0.00162740 0.00164710 0.00999349 0.00786657 0.00179776 0.00364721 0.00133259 
0.08690951 0.03518098 0.00416630 0.00172915 0.00070551 0.00207777 0.01099570 0.00835883 0.02282137 0.00166309 0.00162901 0.00972449 0.00776579 0.00176727 0.00370113 0.00133567 
0.08598300 0.03587854 0.00430809 0.00173023 0.00070297 0.00205203 0.01097240 0.00854121 0.02325116 0.00169917 0.00161056 0.00948382 0.00766007 0.00173520 0.00375640 0.00133869 
0.08492886 0.03660892 0.00445640 0.00173077 0.00070032 0.00202695 0.01095378 0.00873101 0.02364991 0.00173559 0.00159192 0.00927137 0.00754989 0.00170164 0.00381272 0.00134165 
0.08374850 0.03737063 0.00461064 0.00173075 0.00069758 0.00200281 0.01094055 0.00892776 0.02401542 0.00177225 0.00157325 0.00908690 0.00743576 0.00166668 0.00386975 0.00134453 
0.08244403 0.03816191 0.00477026 0.00173018 0.00069479 0.00197986 0.01093341 0.00913091 0.02434565 0.00180910 0.00155471 0.00893012 0.00731820 0.00163043 0.00392717 0.00134733 
0.08101829 0.03898073 0.00493471 0.00172902 0.00069198 0.00195840 0.01093302 0.00933988 0.02463870 0.00184607 0.00153647 0.00880062 0.00719772 0.00159300 0.00398462 0.00135005 
0.07947477 0.03982479 0.00510345 0.00172729 0.00068917 0.00193868 0.01093999 0.00955400 0.02489287 0.00188310 0.00151871 0.00869791 0.00707485 0.00155453 0.00404177 0.00135268 
0.07781764 0.04069155 0.00527596 0.00172496 0.00068639 0.00192098 0.01095490 0.00977257 0.02510664 0.00192014 0.00150160 0.00862145 0.00695013 0.00151515 0.00409827 0.00135520 
0.07605169 0.04157823 0.00545174 0.00172205 0.00068367 0.00190556 0.01097826 0.00999480 0.02527872 0.00195716 0.00148532 0.00857061 0.00682409 0.00147503 0.00415378 0.00135762 
0.07418234 0.04248181 0.00563030 0.00171854 0.00068104 0.00189268 0.01101054 0.01021988 0.02540802 0.00199411 0.00147004 0.00854474 0.00669725 0.00143431 0.00420796 0.00135993 
0.07221556 0.04339908 0.00581118 0.00171444 0.00067852 0.00188259 0.01105214 0.01044693 0.02549370 0.00203095 0.00145594 0.00854310 0.00657016 0.00139317 0.00426047 0.00136212 
0.07015787 0.04432660 0.00599395 0.00170974 0.00067614 0.00187552 0.01110342 0.01067504 0.02553516 0.00206768 0.00144319 0.00856495 0.00644334 0.00135178 0.00431099 0.00136420 
0.06801628 0.04526080 0.00617818 0.00170447 0.00067392 0.00187171 0.01116464 0.01090324 0.02553204 0.00210426 0.00143196 0.00860949 0.00631731 0.00131034 0.00435920 0.00136614 
0.06579827 0.04619791 0.00636350 0.00169863 0.00067188 0.00187137 0.01123603 0.01113056 0.02548425 0.00214069 0.00142240 0.00867592 0.00619258 0.00126903 0.00440483 0.00136796 
0.06351170 0.04713405 0.00654954 0.00169222 0.00067006 0.00187471 0.01131772 0.01135596 0.02539198 0.00217696 0.00141468 0.00876340 0.00606966 0.00122804 0.00444757 0.00136965 
0.06116482 0.04806523 0.00673598 0.00168526 0.00066846 0.00188190 0.01140980 0.01157841 0.02525566 0.00221306 0.00140895 0.00887110 0.00594903 0.00118758 0.00448717 0.00137121 
0.05876618 0.04898736 0.00692251 0.00167778 0.00066711 0.00189312 0.01151227 0.01179685 0.02507603 0.00224901 0.00140535 0.00899818 0.00583119 0.00114783 0.00452340 0.00137263 
0.05632460 0.04989629 0.00710885 0.00166979 0.00066602 0.00190852 0.01162505 0.01201019 0.02485408 0.00228482 0.00140402 0.00914379 0.00571658 0.00110901 0.00455605 0.00137392 
0.05384911 0.05078784 0.00729478 0.00166130 0.00066522 0.00192823 0.01174801 0.01221738 0.02459108 0.00232050 0.00140509 0.00930712 0.00560566 0.00107132 0.00458491 0.00137507 
0.05134889 0.05165781 0.00748007 0.00165236 0.00066471 0.00195235 0.01188092 0.01241733 0.02428860 0.00235606 0.00140866 0.00948734 0.00549887 0.00103494 0.00460983 0.00137608 
0.04883323 0.05250202 0.00766454 0.00164298 0.00066450 0.00198096 0.01202351 0.01260898 0.02394845 0.00239153 0.00141484 0.00968366 0.00539662 0.00100009 0.00463069 0.00137696 
0.04631148 0.05331633 0.00784803 0.00163319 0.00066462 0.00201414 0.01217540 0.01279129 0.02357272 0.00242695 0.00142373 0.00989529 0.00529929 0.00096694 0.00464738 0.00137769 
0.04379297 0.05409669 0.00803043 0.00162302 0.00066507 0.00205192 0.01233618 0.01296324 0.02316376 0.00246232 0.00143541 0.01012149 0.00520726 0.00093570 0.00465983 0.00137829 
0.04128700 0.05483912 0.00821161 0.00161251 0.00066585 0.00209431 0.01250534 0.01312384 0.02272417 0.00249770 0.00144995 0.01036153 0.00512088 0.00090653 0.00466801 0.00137876 
0.03880274 0.05553979 0.00839152 0.00160170 0.00066698 0.00214130 0.01268232 0.01327215 0.02225679 0.00253310 0.00146739 0.01061472 0.00504048 0.00087962 0.00467192 0.00137910 
0.03634922 0.05619500 0.00857011 0.00159063 0.00066845 0.00219285 0.01286650 0.01340726 0.02176469 0.00256857 0.00148777 0.01088041 0.00496636 0.00085513 0.00467159 0.00137931 
0.03393527 0.05680125 0.00874733 0.00157932 0.00067027 0.00224890 0.01305720 0.01352834 0.02125115 0.00260413 0.00151113 0.01115795 0.00489880 0.00083321 0.00466709 0.00137939 
0.03156944 0.05735523 0.00892320 0.00156783 0.00067244 0.00230936 0.01325365 0.01363458 0.02071966 0.00263982 0.00153747 0.01144675 0.00483804 0.00081400 0.00465852 0.00137934 
0.02926001 0.05785385 0.00909772 0.00155619 0.00067495 0.00237410 0.01345509 0.01372528 0.02017390 0.00267567 0.00156678 0.01174626 0.00478432 0.00079765 0.00464602 0.00137918 
0.02701492 0.05829430 0.00927093 0.00154446 0.00067781 0.00244298 0.01366065 0.01379979 0.01961770 0.00271171 0.00159905 0.01205594 0.00473784 0.00078426 0.00462976 0.00137891 
0.02484172 0.05867402 0.00944287 0.00153267 0.00068100 0.00251584 0.01386946 0.01385754 0.01905504 0.00274797 0.00163423 0.01237530 0.00469876 0.00077396 0.00460994 0.00137852 
0.02274753 0.05899075 0.00961362 0.00152087 0.00068452 0.00259247 0.01408057 0.01389806 0.01849004 0.00278447 0.00167228 0.01270387 0.00466724 0.00076683 0.00458680 0.00137803 
0.02073906 0.05924254 0.00978323 0.00150910 0.00068837 0.00267265 0.01429304 0.01392095 0.01792692 0.00282123 0.00171312 0.01304122 0.00464338 0.00076295 0.00456061 0.00137744 
0.01882249 0.05942777 0.00995181 0.00149742 0.00069252 0.00275614 0.01450588 0.01392592 0.01736999 0.00285826 0.00175667 0.01338693 0.00462728 0.00076239 0.00453165 0.00137675 
0.01700354 0.05954516 0.01011944 0.00148587 0.00069696 0.00284267 0.01471805 0.01391277 0.01682360 0.00289559 0.00180284 0.01374062 0.00461899 0.00076519 0.00450025 0.00137598 
0.01528734 0.05959381 0.01028622 0.00147450 0.00070169 0.00293193 0.01492854 0.01388141 0.01629217 0.00293320 0.00185151 0.01410192 0.00461855 0.00077138 0.00446675 0.00137512 
0.01367853 0.05957315 0.01045225 0.00146335 0.00070668 0.00302363 0.01513628 0.01383185 0.01578010 0.00297111 0.00190254 0.01447049 0.00462595 0.00078099 0.00443153 0.00137418 
0.01218112 0.05948302 0.01061763 0.00145246 0.00071192 0.00311743 0.01534024 0.01376420 0.01529180 0.00300931 0.00195580 0.01484599 0.00464119 0.00079401 0.00439497 0.00137318 
0.01079858 0.05932364 0.01078246 0.00144188 0.00071739 0.00321296 0.01553936 0.01367868 0.01483165 0.00304778 0.00201113 0.01522810 0.00466420 0.00081043 0.00435747 0.00137211 
0.00953377 0.05909559 0.01094684 0.00143166 0.00072306 0.00330987 0.01573257 0.01357564 0.01440393 0.00308651 0.00206836 0.01561650 0.00469490 0.00083022 0.00431946 0.00137099 
0.00838896 0.05879987 0.01111087 0.00142182 0.00072892 0.00340776 0.01591886 0.01345550 0.01401287 0.00312546 0.00212730 0.01601088 0.00473318 0.00085332 0.00428137 0.00136981 
0.00736580 0.05843786 0.01127461 0.00141242 0.00073494 0.00350623 0.01609719 0.01331881 0.01366257 0.00316461 0.00218777 0.01641093 0.00477892 0.00087967 0.00424365 0.00136859 
0.00646537 0.05801130 0.01143814 0.00140349 0.00074110 0.00360488 0.01626657 0.01316624 0.01335701 0.00320390 0.00224956 0.01681632 0.00483194 0.00090919 0.00420673 0.00136734 
0.00568814 0.05752234 0.01160153 0.00139505 0.00074737 0.00370329 0.01642603 0.01299854 0.01309997 0.00324329 0.00231245 0.01722674 0.00489208 0.00094179 0.00417106 0.00136605 
0.00503399 0.05697349 0.01176481 0.00138716 0.00075373 0.00380102 0.01657463 0.01281657 0.01289508 0.00328272 0.00237622 0.01764184 0.00495910 0.00097735 0.00413709 0.00136474 
0.00450226 0.05636762 0.01192802 0.00137982 0.00076014 0.00389765 0.01671149 0.01262129 0.01274575 0.00332213 0.00244064 0.01806126 0.00503278 0.00101575 0.00410527 0.00136342 
0.00409171 0.05570792 0.01209115 0.00137307 0.00076659 0.00399273 0.01683576 0.01241374 0.01265516 0.00336144 0.00250547 0.01848463 0.00511286 0.00105685 0.00407602 0.00136208 
0.00380057 0.05499795 0.01225422 0.00136694 0.00077304 0.00408584 0.01694664 0.01219507 0.01262622 0.00340057 0.00257048 0.01891155 0.00519906 0.00110050 0.00404978 0.00136074 
0.00362655 0.05424156 0.01241718 0.00136143 0.00077946 0.00417653 0.01704339 0.01196648 0.01266160 0.00343944 0.00263540 0.01934159 0.00529107 0.00114653 0.00402695 0.00135939 
0.00356688 0.05344288 0.01257997 0.00135657 0.00078583 0.00426437 0.01712534 0.01172928 0.01276366 0.00347795 0.00270000 0.01977429 0.00538858 0.00119477 0.00400791 0.00135806 
0.00361833 0.05260632 0.01274253 0.00135236 0.00079211 0.00434894 0.01719188 0.01148484 0.01293444 0.00351599 0.00276401 0.02020917 0.00549123 0.00124504 0.00399305 0.00135674 
0.00377722 0.05173655 0.01290475 0.00134882 0.00079828 0.00442982 0.01724247 0.01123456 0.01317569 0.00355348 0.00282719 0.02064570 0.00559867 0.00129714 0.00398270 0.00135544 
0.00403948 0.05083842 0.01306650 0.00134594 0.00080431 0.00450661 0.01727665 0.01097994 0.01348878 0.00359029 0.00288929 0.02108333 0.00571053 0.00135086 0.00397719 0.00135415 
0.00440068 0.04991701 0.01322763 0.00134373 0.00081018 0.00457891 0.01729402 0.01072250 0.01387476 0.00362631 0.00295004 0.02152144 0.00582640 0.00140599 0.00397682 0.00135290 
0.00485604 0.04897752 0.01338796 0.00134218 0.00081584 0.00464636 0.01729429 0.01046378 0.01433432 0.00366142 0.00300922 0.02195941 0.00594589 0.00146232 0.00398183 0.00135167 
0.00540048 0.04802532 0.01354728 0.00134129 0.00082129 0.00470858 0.01727723 0.01020538 0.01486774 0.00369550 0.00306656 0.02239655 0.00606857 0.00151963 0.00399245 0.00135049 
0.00602868 0.04706584 0.01370536 0.00134104 0.00082648 0.00476525 0.01724270 0.00994891 0.01547498 0.00372843 0.00312184 0.02283214 0.00619400 0.00157768 0.00400888 0.00134933 
0.00673508 0.04610459 0.01386193 0.00134141 0.00083140 0.00481605 0.01719066 0.00969596 0.01615559 0.00376007 0.00317483 0.02326543 0.00632176 0.00163625 0.00403127 0.00134822 
0.00751395 0.04514713 0.01401671 0.00134238 0.00083602 0.00486068 0.01712115 0.00944815 0.01690872 0.00379032 0.00322531 0.02369560 0.00645139 0.00169511 0.00405973 0.00134715 
0.00835939 0.04419897 0.01416938 0.00134394 0.00084032 0.00489889 0.01703430 0.00920707 0.01773315 0.00381903 0.00327306 0.02412182 0.00658244 0.00175401 0.00409434 0.00134613 
0.00926542 0.04326562 0.01431960 0.00134605 0.00084428 0.00493043 0.01693034 0.00897429 0.01862730 0.00384608 0.00331788 0.02454320 0.00671444 0.00181274 0.00413512 0.00134515 
0.01022597 0.04235251 0.01446702 0.00134868 0.00084787 0.00495509 0.01680957 0.00875136 0.01958918 0.00387136 0.00335959 0.02495883 0.00684693 0.00187105 0.00418207 0.00134422 
0.01123497 0.04146496 0.01461124 0.00135179 0.00085109 0.00497269 0.01667241 0.00853977 0.02061643 0.00389475 0.00339800 0.02536775 0.00697945 0.00192873 0.00423513 0.00134333 
0.01228633 0.04060813 0.01475187 0.00135536 0.00085391 0.00498309 0.01651934 0.00834097 0.02170634 0.00391612 0.00343296 0.02576898 0.00711154 0.00198554 0.00429421 0.00134249 
0.01337401 0.03978704 0.01488847 0.00135933 0.00085632 0.00498618 0.01635094 0.00815634 0.02285582 0.00393537 0.00346431 0.02616151 0.00724273 0.00204126 0.00435917 0.00134170 
0.01449206 0.03900647 0.01502061 0.00136367 0.00085831 0.00498186 0.01616787 0.00798719 0.02406146 0.00395240 0.00349194 0.02654430 0.00737257 0.00209568 0.00442984 0.00134095 
0.01563461 0.03827099 0.01514782 0.00136833 0.00085987 0.00497011 0.01597088 0.00783475 0.02531951 0.00396710 0.00351571 0.02691629 0.00750061 0.00214860 0.00450599 0.00134024 
0.01679598 0.03758487 0.01526964 0.00137327 0.00086098 0.00495089 0.01576080 0.00770017 0.02662590 0.00397940 0.00353553 0.02727640 0.00762641 0.00219981 0.00458736 0.00133958 
0.01797063 0.03695212 0.01538557 0.00137844 0.00086165 0.00492425 0.01553852 0.00758450 0.02797628 0.00398920 0.00355132 0.02762356 0.00774953 0.00224912 0.00467366 0.00133895 
0.01915324 0.03637638 0.01549515 0.00138378 0.00086187 0.00489023 0.01530502 0.00748867 0.02936600 0.00399643 0.00356301 0.02795666 0.00786956 0.00229635 0.00476454 0.00133836 
0.02033870 0.03586099 0.01559786 0.00138925 0.00086164 0.00484892 0.01506134 0.00741351 0.03079017 0.00400104 0.00357057 0.02827461 0.00798610 0.00234133 0.00485965 0.00133780 
0.02152216 0.03540889 0.01569322 0.00139481 0.00086096 0.00480047 0.01480857 0.00735975 0.03224367 0.00400298 0.00357396 0.02857633 0.00809874 0.00238390 0.00495857 0.00133727 
0.02269905 0.03502262 0.01578072 0.00140039 0.00085983 0.00474503 0.01454787 0.00732796 0.03372115 0.00400219 0.00357318 0.02886073 0.00820714 0.00242391 0.00506087 0.00133676 
0.02386508 0.03470433 0.01585989 0.00140595 0.00085826 0.00468279 0.01428045 0.00731861 0.03521710 0.00399866 0.00356823 0.02912677 0.00831093 0.00246123 0.00516610 0.00133627 
0.02501628 0.03445575 0.01593023 0.00141144 0.00085625 0.00461399 0.01400755 0.00733203 0.03672584 0.00399237 0.00355916 0.02937339 0.00840978 0.00249572 0.00527377 0.00133580 
0.02614900 0.03427814 0.01599128 0.00141682 0.00085382 0.00453888 0.01373047 0.00736839 0.03824156 0.00398331 0.00354600 0.02959960 0.00850340 0.00252729 0.00538336 0.00133533 
0.02725989 0.03417236 0.01604258 0.00142203 0.00085098 0.00445776 0.01345053 0.00742776 0.03975835 0.00397150 0.00352882 0.02980443 0.00859150 0.00255583 0.00549435 0.00133486 
0.02834599 0.03413876 0.01608369 0.00142704 0.00084773 0.00437094 0.01316907 0.00751004 0.04127023 0.00395696 0.00350772 0.02998697 0.00867384 0.00258126 0.00560621 0.00133440 
0.02940465 0.03417730 0.01611419 0.00143180 0.00084411 0.00427878 0.01288746 0.00761499 0.04277118 0.00393972 0.00348279 0.03014634 0.00875019 0.00260353 0.00571837 0.00133392 
0.03043358 0.03428742 0.01613369 0.00143628 0.00084012 0.00418164 0.01260706 0.00774224 0.04425515 0.00391984 0.00345415 0.03028173 0.00882036 0.00262257 0.00583027 0.00133342 
0.03143083 0.03446816 0.01614183 0.00144043 0.00083579 0.00407993 0.01232925 0.00789127 0.04571613 0.00389737 0.00342195 0.03039240 0.00888419 0.00263836 0.00594135 0.00133291 
0.03239480 0.03471807 0.01613827 0.00144423 0.00083114 0.00397405 0.01205541 0.00806142 0.04714814 0.00387240 0.00338633 0.03047769 0.00894156 0.00265086 0.00605105 0.00133237 
0.03332424 0.03503529 0.01612272 0.00144766 0.00082618 0.00386445 0.01178689 0.00825189 0.04854528 0.00384501 0.00334746 0.03053700 0.00899236 0.00266008 0.00615878 0.00133179 
0.03421822 0.03541752 0.01609491 0.00145067 0.00082095 0.00375157 0.01152504 0.00846175 0.04990178 0.00381530 0.00330553 0.03056983 0.00903656 0.00266603 0.00626401 0.00133117 
0.03507613 0.03586207 0.01605462 0.00145326 0.00081547 0.00363590 0.01127115 0.00868993 0.05121196 0.00378339 0.00326072 0.03057577 0.00907412 0.00266873 0.00636617 0.00133051 
0.03589767 0.03636583 0.01600169 0.00145541 0.00080977 0.00351790 0.01102652 0.00893525 0.05247036 0.00374940 0.00321325 0.03055450 0.00910506 0.00266822 0.00646473 0.00132979 
0.03668284 0.03692534 0.01593597 0.00145711 0.00080388 0.00339808 0.01079238 0.00919639 0.05367167 0.00371346 0.00316334 0.03050583 0.00912944 0.00266455 0.00655917 0.00132902 
0.03743192 0.03753680 0.01585739 0.00145834 0.00079782 0.00327693 0.01056991 0.00947194 0.05481082 0.00367574 0.00311120 0.03042963 0.00914735 0.00265781 0.00664901 0.00132818 
0.03814546 0.03819607 0.01576592 0.00145911 0.00079162 0.00315494 0.01036026 0.00976036 0.05588298 0.00363637 0.00305708 0.03032594 0.00915892 0.00264807 0.00673375 0.00132727 
0.03882422 0.03889873 0.01566157 0.00145942 0.00078532 0.00303264 0.01016450 0.01006004 0.05688360 0.00359553 0.00300122 0.03019487 0.00916432 0.00263543 0.00681297 0.00132629 
0.03946923 0.03964011 0.01554442 0.00145928 0.00077894 0.00291052 0.00998363 0.01036927 0.05780841 0.00355339 0.00294386 0.03003668 0.00916375 0.00262000 0.00688624 0.00132523 
0.04008167 0.04041531 0.01541460 0.00145870 0.00077251 0.00278908 0.00981858 0.01068625 0.05865346 0.00351012 0.00288527 0.02985173 0.00915747 0.00260191 0.00695318 0.00132408 
0.04066291 0.04121924 0.01527231 0.00145770 0.00076607 0.00266882 0.00967023 0.01100912 0.05941514 0.00346592 0.00282569 0.02964052 0.00914576 0.00258130 0.00701344 0.00132285 
0.04121450 0.04204666 0.01511777 0.00145629 0.00075964 0.00255023 0.00953933 0.01133598 0.06009017 0.00342097 0.00276540 0.02940368 0.00912892 0.00255831 0.00706672 0.00132153 
0.04173808 0.04289220 0.01495130 0.00145451 0.00075325 0.00243378 0.00942659 0.01166486 0.06067567 0.00337547 0.00270463 0.02914194 0.00910732 0.00253311 0.00711274 0.00132012 
0.04223540 0.04375043 0.01477325 0.00145238 0.00074693 0.00231994 0.00933258 0.01199376 0.06116913 0.00332962 0.00264366 0.02885618 0.00908133 0.00250586 0.00715129 0.00131861 
0.04270829 0.04461589 0.01458404 0.00144994 0.00074071 0.00220916 0.00925783 0.01232068 0.06156842 0.00328360 0.00258275 0.02854740 0.00905138 0.00247675 0.00718217 0.00131700 
0.04315865 0.04548311 0.01438414 0.00144722 0.00073461 0.00210186 0.00920273 0.01264358 0.06187184 0.00323763 0.00252213 0.02821670 0.00901790 0.00244596 0.00720525 0.00131530 
0.04358837 0.04634666 0.01417407 0.00144427 0.00072867 0.00199846 0.00916760 0.01296044 0.06207808 0.00319189 0.00246207 0.02786533 0.00898139 0.00241369 0.00722044 0.00131350 
0.04399936 0.04720120 0.01395443 0.00144113 0.00072290 0.00189934 0.00915264 0.01326926 0.06218625 0.00314658 0.00240279 0.02749463 0.00894233 0.00238014 0.00722770 0.00131161 
0.04439351 0.04804151 0.01372585 0.00143785 0.00071732 0.00180488 0.00915796 0.01356805 0.06219590 0.00310190 0.00234455 0.02710606 0.00890125 0.00234553 0.00722702 0.00130962 
0.04477266 0.04886255 0.01348900 0.00143448 0.00071196 0.00171541 0.00918356 0.01385488 0.06210699 0.00305802 0.00228755 0.02670120 0.00885869 0.00231006 0.00721846 0.00130753 
0.04513859 0.04965945 0.01324463 0.00143107 0.00070685 0.00163124 0.00922937 0.01412786 0.06191989 0.00301514 0.00223203 0.02628169 0.00881522 0.00227395 0.00720211 0.00130535 
0.04549298 0.05042759 0.01299352 0.00142767 0.00070198 0.00155267 0.00929517 0.01438518 0.06163540 0.00297343 0.00217818 0.02584929 0.00877140 0.00223743 0.00717812 0.00130309 
0.04583741 0.05116262 0.01273648 0.00142435 0.00069739 0.00147994 0.00938067 0.01462510 0.06125473 0.00293306 0.00212621 0.02540584 0.00872783 0.00220070 0.00714667 0.00130075 
0.04617333 0.05186048 0.01247439 0.00142116 0.00069308 0.00141328 0.00948550 0.01484597 0.06077949 0.00289418 0.00207629 0.02495324 0.00868511 0.00216400 0.00710801 0.00129832 
0.04650206 0.05251744 0.01220813 0.00141815 0.00068908 0.00135288 0.00960916 0.01504625 0.06021169 0.00285694 0.00202859 0.02449348 0.00864382 0.00212755 0.00706240 0.00129582 
0.04682476 0.05313015 0.01193865 0.00141538 0.00068538 0.00129891 0.00975108 0.01522450 0.05955371 0.00282148 0.00198327 0.02402858 0.00860458 0.00209156 0.00701017 0.00129326 
0.04714240 0.05369562 0.01166690 0.00141292 0.00068199 0.00125149 0.00991061 0.01537942 0.05880830 0.00278794 0.00194047 0.02356062 0.00856797 0.00205625 0.00695167 0.00129064 
0.04745579 0.05421127 0.01139387 0.00141081 0.00067893 0.00121073 0.01008700 0.01550982 0.05797859 0.00275642 0.00190032 0.02309169 0.00853459 0.00202183 0.00688730 0.00128796 
0.04776557 0.05467494 0.01112057 0.00140911 0.00067619 0.00117667 0.01027943 0.01561467 0.05706799 0.00272704 0.00186292 0.02262394 0.00850502 0.00198851 0.00681748 0.00128525 
0.04807215 0.05508492 0.01084801 0.00140788 0.00067379 0.00114937 0.01048702 0.01569308 0.05608028 0.00269987 0.00182839 0.02215950 0.00847983 0.00195649 0.00674269 0.00128250 
0.04837577 0.05543994 0.01057724 0.00140718 0.00067171 0.00112880 0.01070881 0.01574433 0.05501951 0.00267500 0.00179678 0.02170050 0.00845956 0.00192596 0.00666341 0.00127973 
0.04867645 0.05573919 0.01030928 0.00140704 0.00066995 0.00111495 0.01094378 0.01576785 0.05389000 0.00265248 0.00176817 0.02124908 0.00844474 0.00189710 0.00658015 0.00127694 
0.04897403 0.05598232 0.01004519 0.00140752 0.00066852 0.00110773 0.01119086 0.01576324 0.05269634 0.00263237 0.00174261 0.02080732 0.00843588 0.00187010 0.00649345 0.00127415 
0.04926813 0.05616944 0.00978600 0.00140866 0.00066741 0.00110706 0.01144893 0.01573027 0.05144332 0.00261471 0.00172013 0.02037729 0.00843346 0.00184511 0.00640387 0.00127137 
0.04955819 0.05630113 0.00953275 0.00141051 0.00066660 0.00111282 0.01171685 0.01566890 0.05013596 0.00259950 0.00170073 0.01996099 0.00843791 0.00182228 0.00631199 0.00126861 
0.04984347 0.05637842 0.00928646 0.00141310 0.00066610 0.00112483 0.01199343 0.01557926 0.04877944 0.00258675 0.00168444 0.01956037 0.00844964 0.00180176 0.00621838 0.00126588 
0.05012304 0.05640278 0.00904812 0.00141647 0.00066589 0.00114293 0.01227744 0.01546165 0.04737910 0.00257646 0.00167122 0.01917728 0.00846903 0.00178367 0.00612363 0.00126320 
0.05039581 0.05637612 0.00881872 0.00142066 0.00066595 0.00116690 0.01256766 0.01531656 0.04594040 0.00256860 0.00166105 0.01881352 0.00849640 0.00176813 0.00602835 0.00126058 
0.05066052 0.05630075 0.00859922 0.00142568 0.00066629 0.00119652 0.01286286 0.01514465 0.04446890 0.00256313 0.00165389 0.01847076 0.00853205 0.00175522 0.00593312 0.00125802 
0.05091578 0.05617939 0.00839053 0.00143156 0.00066688 0.00123152 0.01316179 0.01494677 0.04297023 0.00256001 0.00164968 0.01815058 0.00857621 0.00174504 0.00583854 0.00125555 
0.05116008 0.05601510 0.00819355 0.00143833 0.00066770 0.00127163 0.01346321 0.01472391 0.04145007 0.00255916 0.00164835 0.01785442 0.00862908 0.00173765 0.00574518 0.00125317 
0.05139178 0.05581131 0.00800912 0.00144599 0.00066875 0.00131656 0.01376591 0.01447727 0.03991412 0.00256051 0.00164981 0.01758363 0.00869080 0.00173309 0.00565363 0.00125090 
0.05160918 0.05557175 0.00783804 0.00145456 0.00067000 0.00136599 0.01406868 0.01420816 0.03836807 0.00256397 0.00165398 0.01733939 0.00876147 0.00173140 0.00556444 0.00124875 
0.05181046 0.05530043 0.00768108 0.00146405 0.00067145 0.00141960 0.01437036 0.01391810 0.03681758 0.00256944 0.00166076 0.01712275 0.00884113 0.00173260 0.00547814 0.00124674 
0.05199380 0.05500161 0.00753893 0.00147445 0.00067307 0.00147704 0.01466979 0.01360870 0.03526824 0.00257681 0.00167002 0.01693460 0.00892978 0.00173667 0.00539525 0.00124487 
0.05215731 0.05467976 0.00741224 0.00148576 0.00067484 0.00153797 0.01496588 0.01328176 0.03372560 0.00258597 0.00168164 0.01677568 0.00902733 0.00174361 0.00531626 0.00124315 
0.05229911 0.05433951 0.00730161 0.00149798 0.00067675 0.00160203 0.01525759 0.01293915 0.03219506 0.00259678 0.00169551 0.01664657 0.00913369 0.00175337 0.00524162 0.00124161 
0.05241732 0.05398563 0.00720756 0.00151111 0.00067879 0.00166884 0.01554391 0.01258291 0.03068193 0.00260911 0.00171147 0.01654769 0.00924868 0.00176589 0.00517177 0.00124024 
0.05251008 0.05362299 0.00713055 0.00152511 0.00068092 0.00173804 0.01582391 0.01221516 0.02919136 0.00262282 0.00172940 0.01647927 0.00937208 0.00178111 0.00510710 0.00123906 
0.05257561 0.05325650 0.00707099 0.00153998 0.00068315 0.00180925 0.01609672 0.01183809 0.02772833 0.00263775 0.00174914 0.01644140 0.00950361 0.00179893 0.00504797 0.00123808 
0.05261219 0.05289107 0.00702920 0.00155569 0.00068545 0.00188211 0.01636153 0.01145401 0.02629767 0.00265377 0.00177055 0.01643397 0.00964295 0.00181925 0.00499469 0.00123730 
0.05261818 0.05253160 0.00700544 0.00157223 0.00068782 0.00195625 0.01661761 0.01106527 0.02490397 0.00267070 0.00179348 0.01645673 0.00978973 0.00184194 0.00494754 0.00123674 
0.05259208 0.05218288 0.00699989 0.00158956 0.00069022 0.00203128 0.01686430 0.01067428 0.02355163 0.00268841 0.00181777 0.01650924 0.00994353 0.00186686 0.00490674 0.00123640 
0.05253250 0.05184963 0.00701267 0.00160764 0.00069266 0.00210687 0.01710104 0.01028348 0.02224483 0.00270671 0.00184328 0.01659092 0.01010390 0.00189386 0.00487250 0.00123628 
0.05243822 0.05153638 0.00704381 0.00162646 0.00069511 0.00218264 0.01732731 0.00989533 0.02098748 0.00272547 0.00186985 0.01670099 0.01027031 0.00192278 0.00484494 0.00123640 
0.05230816 0.05124747 0.00709328 0.00164597 0.00069758 0.00225827 0.01754272 0.00951232 0.01978328 0.00274451 0.00189734 0.01683855 0.01044223 0.00195343 0.00482417 0.00123675 
0.05214144 0.05098702 0.00716095 0.00166614 0.00070004 0.00233342 0.01774692 0.00913689 0.01863563 0.00276369 0.00192560 0.01700255 0.01061908 0.00198562 0.00481022 0.00123734 
0.05193737 0.05075887 0.00724665 0.00168692 0.00070249 0.00240777 0.01793969 0.00877150 0.01754769 0.00278286 0.00195448 0.01719178 0.01080025 0.00201915 0.00480311 0.00123817 
0.05169546 0.05056659 0.00735011 0.00170828 0.00070492 0.00248102 0.01812086 0.00841853 0.01652233 0.00280185 0.00198386 0.01740491 0.01098510 0.00205380 0.00480277 0.00123924 
0.05141545 0.05041339 0.00747098 0.00173018 0.00070733 0.00255288 0.01829035 0.00808034 0.01556215 0.00282053 0.00201360 0.01764047 0.01117295 0.00208935 0.00480913 0.00124054 
0.05109727 0.05030214 0.00760886 0.00175256 0.00070971 0.00262309 0.01844818 0.00775921 0.01466947 0.00283877 0.00204358 0.01789690 0.01136314 0.00212557 0.00482202 0.00124208 
0.05074112 0.05023531 0.00776326 0.00177539 0.00071205 0.00269139 0.01859443 0.00745732 0.01384632 0.00285643 0.00207368 0.01817252 0.01155494 0.00216223 0.00484128 0.00124386 
0.05034740 0.05021500 0.00793363 0.00179863 0.00071436 0.00275754 0.01872927 0.00717677 0.01309444 0.00287339 0.00210379 0.01846556 0.01174764 0.00219909 0.00486666 0.00124586 
0.04991677 0.05024286 0.00811934 0.00182223 0.00071664 0.00282135 0.01885294 0.00691956 0.01241529 0.00288953 0.00213381 0.01877418 0.01194053 0.00223590 0.00489789 0.00124808 
0.04945009 0.05032011 0.00831971 0.00184615 0.00071888 0.00288261 0.01896575 0.00668755 0.01181006 0.00290475 0.00216365 0.01909645 0.01213286 0.00227242 0.00493466 0.00125052 
0.04894849 0.05044755 0.00853398 0.00187034 0.00072108 0.00294117 0.01906809 0.00648247 0.01127964 0.00291895 0.00219322 0.01943041 0.01232391 0.00230841 0.00497661 0.00125317 
0.04841328 0.05062548 0.00876133 0.00189476 0.00072325 0.00299686 0.01916039 0.00630590 0.01082464 0.00293205 0.00222245 0.01977404 0.01251296 0.00234363 0.00502335 0.00125601 
0.04784605 0.05085378 0.00900089 0.00191937 0.00072539 0.00304956 0.01924317 0.00615928 0.01044543 0.00294396 0.00225128 0.02012531 0.01269928 0.00237782 0.00507445 0.00125904 
0.04724853 0.05113187 0.00925173 0.00194414 0.00072751 0.00309917 0.01931697 0.00604387 0.01014209 0.00295464 0.00227964 0.02048215 0.01288218 0.00241077 0.00512947 0.00126224 
0.04662272 0.05145868 0.00951288 0.00196901 0.00072961 0.00314561 0.01938240 0.00596077 0.00991444 0.00296401 0.00230751 0.02084252 0.01306096 0.00244224 0.00518791 0.00126560 
0.04597075 0.05183274 0.00978331 0.00199396 0.00073169 0.00318881 0.01944009 0.00591089 0.00976206 0.00297205 0.00233483 0.02120436 0.01323496 0.00247202 0.00524926 0.00126911 
0.04529497 0.05225211 0.01006193 0.00201894 0.00073377 0.00322873 0.01949074 0.00589496 0.00968427 0.00297872 0.00236158 0.02156566 0.01340353 0.00249988 0.00531300 0.00127276 
0.04459785 0.05271446 0.01034765 0.00204393 0.00073585 0.00326536 0.01953503 0.00591353 0.00968018 0.00298399 0.00238776 0.02192444 0.01356607 0.00252563 0.00537857 0.00127651 
0.04388203 0.05321701 0.01063931 0.00206888 0.00073794 0.00329869 0.01957371 0.00596693 0.00974865 0.00298787 0.00241334 0.02227877 0.01372198 0.00254908 0.00544541 0.00128037 
0.04315026 0.05375666 0.01093574 0.00209378 0.00074004 0.00332874 0.01960750 0.00605532 0.00988834 0.00299034 0.00243833 0.02262678 0.01387072 0.00257005 0.00551294 0.00128432 
0.04240540 0.05432989 0.01123572 0.00211858 0.00074217 0.00335556 0.01963718 0.00617865 0.01009769 0.00299144 0.00246274 0.02296668 0.01401177 0.00258839 0.00558058 0.00128832 
0.04165039 0.05493290 0.01153804 0.00214327 0.00074432 0.00337919 0.01966348 0.00633669 0.01037496 0.00299118 0.00248659 0.02329676 0.01414467 0.00260395 0.00564774 0.00129238 
0.04088824 0.05556155 0.01184145 0.00216782 0.00074652 0.00339970 0.01968717 0.00652899 0.01071821 0.00298959 0.00250989 0.02361540 0.01426898 0.00261659 0.00571384 0.00129646 
0.04012199 0.05621145 0.01214468 0.00219220 0.00074877 0.00341718 0.01970896 0.00675492 0.01112534 0.00298673 0.00253268 0.02392110 0.01438431 0.00262621 0.00577828 0.00130054 
0.03935473 0.05687798 0.01244648 0.00221639 0.00075107 0.00343172 0.01972960 0.00701367 0.01159407 0.00298263 0.00255499 0.02421246 0.01449032 0.00263272 0.00584051 0.00130462 
0.03858952 0.05755630 0.01274558 0.00224038 0.00075343 0.00344345 0.01974976 0.00730424 0.01212197 0.00297737 0.00257687 0.02448820 0.01458672 0.00263603 0.00589994 0.00130867 
0.03782941 0.05824143 0.01304071 0.00226415 0.00075587 0.00345247 0.01977011 0.00762545 0.01270647 0.00297102 0.00259835 0.02474717 0.01467325 0.00263609 0.00595603 0.00131267 
0.03707742 0.05892826 0.01333062 0.00228767 0.00075837 0.00345892 0.01979128 0.00797595 0.01334488 0.00296365 0.00261949 0.02498835 0.01474972 0.00263288 0.00600825 0.00131659 
0.03633648 0.05961159 0.01361405 0.00231094 0.00076096 0.00346294 0.01981387 0.00835423 0.01403436 0.00295535 0.00264034 0.02521085 0.01481597 0.00262636 0.00605609 0.00132043 
0.03560948 0.06028618 0.01388979 0.00233395 0.00076362 0.00346467 0.01983839 0.00875864 0.01477199 0.00294620 0.00266094 0.02541392 0.01487191 0.00261656 0.00609906 0.00132417 
0.03489916 0.06094680 0.01415663 0.00235668 0.00076638 0.00346426 0.01986536 0.00918736 0.01555474 0.00293630 0.00268136 0.02559697 0.01491746 0.00260350 0.00613671 0.00132777 
0.03420819 0.06158823 0.01441339 0.00237912 0.00076922 0.00346188 0.01989519 0.00963847 0.01637947 0.00292575 0.00270163 0.02575952 0.01495263 0.00258722 0.00616861 0.00133124 
0.03353908 0.06220537 0.01465892 0.00240126 0.00077215 0.00345766 0.01992826 0.01010991 0.01724299 0.00291466 0.00272182 0.02590125 0.01497745 0.00256779 0.00619437 0.00133454 
0.03289418 0.06279320 0.01489213 0.00242310 0.00077518 0.00345177 0.01996487 0.01059952 0.01814203 0.00290312 0.00274198 0.02602199 0.01499201 0.00254530 0.00621363 0.00133766 
0.03227572 0.06334689 0.01511194 0.00244464 0.00077829 0.00344436 0.02000528 0.01110505 0.01907325 0.00289124 0.00276215 0.02612168 0.01499642 0.00251985 0.00622607 0.00134060 
0.03168571 0.06386178 0.01531734 0.00246585 0.00078149 0.00343559 0.02004966 0.01162418 0.02003327 0.00287914 0.00278238 0.02620042 0.01499086 0.00249158 0.00623142 0.00134333 
0.03112600 0.06433345 0.01550735 0.00248675 0.00078477 0.00342561 0.02009810 0.01215449 0.02101868 0.00286691 0.00280271 0.02625844 0.01497554 0.00246062 0.00622945 0.00134584 
0.03059826 0.06475775 0.01568107 0.00250731 0.00078813 0.00341456 0.02015064 0.01269355 0.02202602 0.00285467 0.00282317 0.02629608 0.01495068 0.00242713 0.00621995 0.00134811 
0.03010394 0.06513083 0.01583765 0.00252755 0.00079157 0.00340258 0.02020724 0.01323887 0.02305182 0.00284253 0.00284380 0.02631382 0.01491658 0.00239129 0.00620280 0.00135015 
0.02964430 0.06544917 0.01597629 0.00254745 0.00079507 0.00338981 0.02026779 0.01378793 0.02409259 0.00283058 0.00286462 0.02631223 0.01487355 0.00235329 0.00617787 0.00135193 
0.02922040 0.06570958 0.01609627 0.00256701 0.00079864 0.00337637 0.02033210 0.01433823 0.02514485 0.00281892 0.00288566 0.02629200 0.01482191 0.00231334 0.00614514 0.00135345 
0.02883309 0.06590929 0.01619694 0.00258622 0.00080225 0.00336238 0.02039991 0.01488725 0.02620512 0.00280766 0.00290692 0.02625393 0.01476205 0.00227165 0.00610457 0.00135470 
0.02848302 0.06604591 0.01627772 0.00260508 0.00080591 0.00334795 0.02047090 0.01543252 0.02726993 0.00279688 0.00292841 0.02619889 0.01469434 0.00222845 0.00605623 0.00135568 
0.02817066 0.06611747 0.01633811 0.00262359 0.00080960 0.00333318 0.02054466 0.01597157 0.02833583 0.00278667 0.00295013 0.02612784 0.01461921 0.00218398 0.00600019 0.00135639 
0.02789626 0.06612245 0.01637769 0.00264174 0.00081332 0.00331815 0.02062074 0.01650201 0.02939941 0.00277712 0.00297208 0.02604181 0.01453707 0.00213849 0.00593659 0.00135681 
0.02765991 0.06605978 0.01639612 0.00265952 0.00081704 0.00330295 0.02069861 0.01702149 0.03045731 0.00276829 0.00299423 0.02594188 0.01444837 0.00209222 0.00586561 0.00135696 
0.02746152 0.06592883 0.01639314 0.00267692 0.00082076 0.00328764 0.02077768 0.01752776 0.03150619 0.00276027 0.00301657 0.02582921 0.01435357 0.00204544 0.00578747 0.00135683 
0.02730084 0.06572946 0.01636859 0.00269395 0.00082447 0.00327228 0.02085732 0.01801863 0.03254280 0.00275311 0.00303906 0.02570496 0.01425313 0.00199841 0.00570244 0.00135642 
0.02717747 0.06546199 0.01632238 0.00271058 0.00082816 0.00325691 0.02093683 0.01849204 0.03356393 0.00274688 0.00306168 0.02557036 0.01414750 0.00195138 0.00561084 0.00135573 
0.02709087 0.06512720 0.01625453 0.00272681 0.00083181 0.00324158 0.02101548 0.01894601 0.03456646 0.00274161 0.00308436 0.02542664 0.01403718 0.00190462 0.00551300 0.00135479 
0.02704040 0.06472635 0.01616514 0.00274264 0.00083541 0.00322630 0.02109249 0.01937868 0.03554734 0.00273735 0.00310707 0.02527504 0.01392262 0.00185840 0.00540932 0.00135358 
0.02702530 0.06426113 0.01605438 0.00275804 0.00083894 0.00321108 0.02116704 0.01978835 0.03650362 0.00273414 0.00312975 0.02511681 0.01380429 0.00181296 0.00530022 0.00135212 
0.02704472 0.06373369 0.01592255 0.00277302 0.00084241 0.00319594 0.02123828 0.02017342 0.03743243 0.00273200 0.00315233 0.02495319 0.01368265 0.00176855 0.00518616 0.00135042 
0.02709776 0.06314662 0.01577002 0.00278755 0.00084579 0.00318087 0.02130535 0.02053245 0.03833103 0.00273095 0.00317475 0.02478539 0.01355817 0.00172543 0.00506762 0.00134848 
0.02718347 0.06250290 0.01559724 0.00280162 0.00084907 0.00316585 0.02136736 0.02086415 0.03919677 0.00273101 0.00319694 0.02461461 0.01343127 0.00168383 0.00494511 0.00134633 
0.02730086 0.06180592 0.01540477 0.00281523 0.00085225 0.00315085 0.02142342 0.02116737 0.04002712 0.00273217 0.00321881 0.02444201 0.01330240 0.00164396 0.00481917 0.00134398 
0.02744894 0.06105943 0.01519326 0.00282835 0.00085531 0.00313586 0.02147261 0.02144114 0.04081970 0.00273444 0.00324031 0.02426871 0.01317197 0.00160606 0.00469037 0.00134143 
0.02762672 0.06026753 0.01496341 0.00284098 0.00085825 0.00312083 0.02151404 0.02168462 0.04157224 0.00273780 0.00326133 0.02409577 0.01304038 0.00157032 0.00455927 0.00133871 
0.02783325 0.05943463 0.01471606 0.00285309 0.00086106 0.00310573 0.02154682 0.02189716 0.04228262 0.00274224 0.00328181 0.02392420 0.01290801 0.00153693 0.00442647 0.00133583 
0.02806761 0.05856542 0.01445210 0.00286468 0.00086374 0.00309049 0.02157007 0.02207825 0.04294886 0.00274774 0.00330165 0.02375496 0.01277524 0.00150606 0.00429257 0.00133282 
0.02832897 0.05766487 0.01417249 0.00287573 0.00086627 0.00307508 0.02158293 0.02222755 0.04356915 0.00275427 0.00332078 0.02358893 0.01264241 0.00147787 0.00415818 0.00132968 
0.02861655 0.05673813 0.01387830 0.00288622 0.00086866 0.00305944 0.02158458 0.02234488 0.04414181 0.00276178 0.00333911 0.02342693 0.01250984 0.00145251 0.00402392 0.00132644 
0.02892968 0.05579057 0.01357064 0.00289614 0.00087090 0.00304350 0.02157422 0.02243023 0.04466536 0.00277025 0.00335656 0.02326969 0.01237784 0.00143008 0.00389040 0.00132311 
0.02926780 0.05482769 0.01325072 0.00290548 0.00087299 0.00302723 0.02155112 0.02248372 0.04513844 0.00277963 0.00337306 0.02311788 0.01224669 0.00141071 0.00375823 0.00131972 
0.02963048 0.05385509 0.01291980 0.00291422 0.00087493 0.00301055 0.02151456 0.02250563 0.04555992 0.00278987 0.00338853 0.02297210 0.01211665 0.00139447 0.00362801 0.00131629 
0.03001741 0.05287847 0.01257920 0.00292235 0.00087673 0.00299341 0.02146389 0.02249638 0.04592880 0.00280092 0.00340290 0.02283283 0.01198796 0.00138142 0.00350035 0.00131283 
0.03042842 0.05190353 0.01223030 0.00292986 0.00087839 0.00297576 0.02139854 0.02245654 0.04624427 0.00281272 0.00341610 0.02270052 0.01186083 0.00137162 0.00337581 0.00130937 
0.03086352 0.05093599 0.01187454 0.00293673 0.00087991 0.00295755 0.02131797 0.02238681 0.04650573 0.00282521 0.00342809 0.02257550 0.01173545 0.00136509 0.00325498 0.00130592 
0.03132283 0.04998151 0.01151340 0.00294296 0.00088130 0.00293873 0.02122173 0.02228799 0.04671273 0.00283834 0.00343879 0.02245804 0.01161199 0.00136183 0.00313839 0.00130251 
0.03180668 0.04904568 0.01114840 0.00294855 0.00088257 0.00291925 0.02110943 0.02216101 0.04686503 0.00285205 0.00344818 0.02234834 0.01149061 0.00136184 0.00302656 0.00129916 
0.03231552 0.04813395 0.01078110 0.00295347 0.00088373 0.00289909 0.02098077 0.02200692 0.04696256 0.00286626 0.00345620 0.02224651 0.01137143 0.00136507 0.00292000 0.00129587 
0.03284997 0.04725164 0.01041308 0.00295773 0.00088479 0.00287820 0.02083552 0.02182684 0.04700544 0.00288091 0.00346284 0.02215258 0.01125456 0.00137147 0.00281916 0.00129268 
0.03341082 0.04640384 0.01004596 0.00296133 0.00088575 0.00285657 0.02067355 0.02162200 0.04699399 0.00289595 0.00346806 0.02206654 0.01114009 0.00138098 0.00272450 0.00128960 
0.03399900 0.04559546 0.00968137 0.00296426 0.00088664 0.00283418 0.02049479 0.02139369 0.04692870 0.00291130 0.00347185 0.02198828 0.01102809 0.00139349 0.00263641 0.00128664 
0.03461558 0.04483111 0.00932095 0.00296652 0.00088747 0.00281102 0.02029927 0.02114328 0.04681025 0.00292690 0.00347421 0.02191765 0.01091861 0.00140891 0.00255527 0.00128382 
0.03526176 0.04411513 0.00896635 0.00296813 0.00088824 0.00278708 0.02008713 0.02087219 0.04663950 0.00294269 0.00347514 0.02185443 0.01081169 0.00142710 0.00248140 0.00128116 
0.03593887 0.04345155 0.00861921 0.00296907 0.00088899 0.00276239 0.01985857 0.02058188 0.04641748 0.00295860 0.00347465 0.02179837 0.01070735 0.00144792 0.00241510 0.00127867 
0.03664834 0.04284404 0.00828116 0.00296937 0.00088972 0.00273694 0.01961389 0.02027386 0.04614540 0.00297459 0.00347278 0.02174914 0.01060561 0.00147123 0.00235663 0.00127636 
0.03739168 0.04229590 0.00795383 0.00296903 0.00089046 0.00271078 0.01935349 0.01994966 0.04582463 0.00299058 0.00346954 0.02170639 0.01050644 0.00149684 0.00230620 0.00127424 
0.03817049 0.04181007 0.00763881 0.00296807 0.00089122 0.00268393 0.01907784 0.01961081 0.04545670 0.00300653 0.00346498 0.02166973 0.01040985 0.00152458 0.00226397 0.00127233 
0.03898641 0.04138904 0.00733768 0.00296649 0.00089201 0.00265644 0.01878752 0.01925888 0.04504331 0.00302237 0.00345915 0.02163872 0.01031581 0.00155425 0.00223008 0.00127063 
0.03984109 0.04103492 0.00705196 0.00296433 0.00089286 0.00262836 0.01848319 0.01889539 0.04458629 0.00303806 0.00345210 0.02161291 0.01022427 0.00158566 0.00220461 0.00126914 
0.04073622 0.04074935 0.00678316 0.00296159 0.00089379 0.00259975 0.01816558 0.01852189 0.04408762 0.00305355 0.00344390 0.02159183 0.01013520 0.00161858 0.00218761 0.00126788 
0.04167344 0.04053356 0.00653272 0.00295831 0.00089481 0.00257068 0.01783550 0.01813987 0.04354939 0.00306880 0.00343462 0.02157499 0.01004856 0.00165279 0.00217907 0.00126685 
0.04265436 0.04038828 0.00630203 0.00295450 0.00089595 0.00254122 0.01749386 0.01775083 0.04297385 0.00308375 0.00342434 0.02156187 0.00996429 0.00168809 0.00217895 0.00126604 
0.04368053 0.04031384 0.00609241 0.00295020 0.00089721 0.00251146 0.01714163 0.01735619 0.04236333 0.00309838 0.00341314 0.02155197 0.00988232 0.00172422 0.00218717 0.00126547 
0.04475336 0.04031007 0.00590514 0.00294544 0.00089862 0.00248149 0.01677983 0.01695734 0.04172028 0.00311264 0.00340112 0.02154478 0.00980262 0.00176097 0.00220359 0.00126514 
0.04587418 0.04037636 0.00574140 0.00294024 0.00090018 0.00245140 0.01640958 0.01655564 0.04104722 0.00312651 0.00338836 0.02153977 0.00972511 0.00179810 0.00222806 0.00126503 
0.04704414 0.04051167 0.00560231 0.00293466 0.00090193 0.00242129 0.01603202 0.01615237 0.04034678 0.00313994 0.00337497 0.02153646 0.00964974 0.00183537 0.00226037 0.00126515 
0.04826422 0.04071449 0.00548890 0.00292871 0.00090387 0.00239128 0.01564838 0.01574874 0.03962163 0.00315292 0.00336104 0.02153434 0.00957644 0.00187256 0.00230027 0.00126549 
0.04953518 0.04098289 0.00540210 0.00292245 0.00090601 0.00236146 0.01525990 0.01534590 0.03887453 0.00316542 0.00334668 0.02153293 0.00950516 0.00190944 0.00234750 0.00126605 
0.05085757 0.04131453 0.00534279 0.00291592 0.00090837 0.00233195 0.01486789 0.01494495 0.03810826 0.00317742 0.00333199 0.02153178 0.00943585 0.00194578 0.00240173 0.00126683 
0.05223165 0.04170668 0.00531170 0.00290915 0.00091096 0.00230286 0.01447369 0.01454689 0.03732565 0.00318889 0.00331709 0.02153042 0.00936845 0.00198137 0.00246264 0.00126780 
0.05365742 0.04215621 0.00530949 0.00290221 0.00091378 0.00227431 0.01407864 0.01415266 0.03652954 0.00319982 0.00330206 0.02152846 0.00930292 0.00201600 0.00252985 0.00126897 
0.05513456 0.04265965 0.00533672 0.00289512 0.00091684 0.00224641 0.01368415 0.01376310 0.03572280 0.00321020 0.00328703 0.02152548 0.00923921 0.00204946 0.00260296 0.00127032 
0.05666245 0.04321317 0.00539383 0.00288795 0.00092016 0.00221927 0.01329159 0.01337900 0.03490827 0.00322001 0.00327209 0.02152112 0.00917728 0.00208158 0.00268157 0.00127184 
0.05824009 0.04381266 0.00548115 0.00288074 0.00092373 0.00219300 0.01290239 0.01300107 0.03408881 0.00322924 0.00325733 0.02151504 0.00911711 0.00211215 0.00276522 0.00127353 
0.05986614 0.04445371 0.00559890 0.00287355 0.00092756 0.00216772 0.01251795 0.01262992 0.03326724 0.00323789 0.00324287 0.02150693 0.00905867 0.00214103 0.00285346 0.00127536 
0.06153887 0.04513166 0.00574721 0.00286643 0.00093166 0.00214353 0.01213966 0.01226611 0.03244634 0.00324595 0.00322877 0.02149649 0.00900193 0.00216805 0.00294582 0.00127732 
0.06325620 0.04584164 0.00592606 0.00285943 0.00093601 0.00212052 0.01176891 0.01191011 0.03162886 0.00325341 0.00321514 0.02148350 0.00894690 0.00219307 0.00304182 0.00127940 
0.06501560 0.04657859 0.00613533 0.00285261 0.00094061 0.00209880 0.01140708 0.01156233 0.03081747 0.00326026 0.00320205 0.02146772 0.00889356 0.00221596 0.00314095 0.00128158 
0.06681418 0.04733727 0.00637480 0.00284603 0.00094547 0.00207845 0.01105551 0.01122312 0.03001479 0.00326651 0.00318958 0.02144897 0.00884191 0.00223661 0.00324272 0.00128386 
0.06864864 0.04811234 0.00664410 0.00283974 0.00095059 0.00205956 0.01071551 0.01089275 0.02922337 0.00327216 0.00317780 0.02142709 0.00879196 0.00225493 0.00334662 0.00128620 
0.07051526 0.04889839 0.00694279 0.00283379 0.00095594 0.00204220 0.01038834 0.01057144 0.02844565 0.00327719 0.00316676 0.02140197 0.00874374 0.00227084 0.00345214 0.00128861 
0.07240994 0.04968991 0.00727027 0.00282825 0.00096153 0.00202644 0.01007525 0.01025937 0.02768400 0.00328162 0.00315652 0.02137350 0.00869726 0.00228426 0.00355879 0.00129105 
0.07432818 0.05048142 0.00762587 0.00282318 0.00096734 0.00201233 0.00977740 0.00995665 0.02694067 0.00328544 0.00314713 0.02134163 0.00865255 0.00229516 0.00366607 0.00129352 
0.07626510 0.05126743 0.00800878 0.00281862 0.00097337 0.00199994 0.00949591 0.00966337 0.02621781 0.00328866 0.00313862 0.02130631 0.00860965 0.00230351 0.00377349 0.00129600 
0.07821546 0.05204251 0.00841809 0.00281464 0.00097960 0.00198930 0.00923186 0.00937956 0.02551744 0.00329127 0.00313101 0.02126755 0.00856861 0.00230928 0.00388056 0.00129848 
0.08017368 0.05280134 0.00885279 0.00281130 0.00098602 0.00198044 0.00898624 0.00910523 0.02484148 0.00329328 0.00312434 0.02122537 0.00852946 0.00231249 0.00398682 0.00130093 
0.08213384 0.05353868 0.00931178 0.00280864 0.00099261 0.00197339 0.00875996 0.00884038 0.02419169 0.00329469 0.00311861 0.02117981 0.00849227 0.00231315 0.00409183 0.00130336 
0.08408972 0.05424949 0.00979385 0.00280673 0.00099936 0.00196815 0.00855389 0.00858497 0.02356973 0.00329550 0.00311383 0.02113096 0.00845709 0.00231130 0.00419514 0.00130573 
0.08603484 0.05492888 0.01029769 0.00280561 0.00100626 0.00196474 0.00836881 0.00833895 0.02297709 0.00329571 0.00310999 0.02107889 0.00842399 0.00230699 0.00429634 0.00130804 
0.08796246 0.05557220 0.01082192 0.00280534 0.00101329 0.00196315 0.00820539 0.00810228 0.02241515 0.00329533 0.00310707 0.02102375 0.00839302 0.00230028 0.00439505 0.00131028 
0.08986564 0.05617504 0.01136506 0.00280597 0.00102042 0.00196335 0.00806426 0.00787491 0.02188511 0.00329437 0.00310506 0.02096566 0.00836427 0.00229127 0.00449089 0.00131243 
0.09173729 0.05673326 0.01192557 0.00280755 0.00102765 0.00196533 0.00794593 0.00765678 0.02138806 0.00329282 0.00310393 0.02090479 0.00833780 0.00228003 0.00458352 0.00131449 
0.09357014 0.05724303 0.01250183 0.00281013 0.00103495 0.00196905 0.00785084 0.00744786 0.02092491 0.00329068 0.00310365 0.02084132 0.00831368 0.00226669 0.00467262 0.00131644 
0.09535688 0.05770083 0.01309215 0.00281374 0.00104231 0.00197446 0.00777933 0.00724814 0.02049644 0.00328796 0.00310416 0.02077545 0.00829199 0.00225136 0.00475791 0.00131827 
0.09709011 0.05810350 0.01369479 0.00281844 0.00104970 0.00198152 0.00773165 0.00705759 0.02010327 0.00328467 0.00310542 0.02070739 0.00827280 0.00223417 0.00483913 0.00131998 
0.09876246 0.05844822 0.01430796 0.00282426 0.00105712 0.00199017 0.00770796 0.00687626 0.01974588 0.00328080 0.00310738 0.02063738 0.00825619 0.00221526 0.00491603 0.00132156 
0.10036658 0.05873257 0.01492980 0.00283123 0.00106454 0.00200033 0.00770833 0.00670418 0.01942460 0.00327636 0.00310997 0.02056565 0.00824222 0.00219478 0.00498843 0.00132300 
0.10189523 0.05895454 0.01555844 0.00283939 0.00107194 0.00201195 0.00773271 0.00654143 0.01913961 0.00327136 0.00311314 0.02049247 0.00823097 0.00217289 0.00505614 0.00132430 
0.10334130 0.05911249 0.01619196 0.00284878 0.00107931 0.00202493 0.00778098 0.00638813 0.01889094 0.00326580 0.00311680 0.02041812 0.00822249 0.00214976 0.00511903 0.00132545 
0.10469787 0.05920522 0.01682843 0.00285940 0.00108662 0.00203919 0.00785293 0.00624443 0.01867849 0.00325968 0.00312088 0.02034286 0.00821685 0.00212556 0.00517699 0.00132645 
0.10595827 0.05923197 0.01746589 0.00287129 0.00109387 0.00205464 0.00794825 0.00611050 0.01850200 0.00325300 0.00312532 0.02026700 0.00821411 0.00210046 0.00522993 0.00132730 
0.10711608 0.05919237 0.01810238 0.00288446 0.00110104 0.00207119 0.00806652 0.00598657 0.01836111 0.00324578 0.00313002 0.02019084 0.00821430 0.00207465 0.00527780 0.00132800 
0.10816526 0.05908651 0.01873593 0.00289892 0.00110811 0.00208874 0.00820725 0.00587290 0.01825530 0.00323802 0.00313492 0.02011469 0.00821748 0.00204829 0.00532058 0.00132855 
0.10910012 0.05891491 0.01936458 0.00291468 0.00111507 0.00210719 0.00836987 0.00576977 0.01818391 0.00322972 0.00313992 0.02003888 0.00822368 0.00202158 0.00535828 0.00132895 
0.10991541 0.05867851 0.01998639 0.00293173 0.00112191 0.00212643 0.00855370 0.00567753 0.01814620 0.00322090 0.00314494 0.01996374 0.00823292 0.00199470 0.00539092 0.00132920 
0.11060633 0.05837866 0.02059941 0.00295009 0.00112860 0.00214637 0.00875799 0.00559653 0.01814126 0.00321155 0.00314991 0.01988959 0.00824521 0.00196782 0.00541856 0.00132931 
0.11116862 0.05801713 0.02120176 0.00296972 0.00113515 0.00216691 0.00898190 0.00552716 0.01816811 0.00320169 0.00315474 0.01981679 0.00826057 0.00194112 0.00544129 0.00132928 
0.11159855 0.05759611 0.02179156 0.00299062 0.00114154 0.00218792 0.00922453 0.00546986 0.01822565 0.00319133 0.00315935 0.01974568 0.00827897 0.00191477 0.00545921 0.00132912 
0.11189297 0.05711815 0.02236699 0.00301276 0.00114775 0.00220933 0.00948488 0.00542507 0.01831265 0.00318048 0.00316366 0.01967661 0.00830041 0.00188895 0.00547244 0.00132883 
0.11204937 0.05658618 0.02292627 0.00303612 0.00115378 0.00223101 0.00976189 0.00539325 0.01842781 0.00316914 0.00316760 0.01960995 0.00832485 0.00186381 0.00548114 0.00132841 
0.11206586 0.05600349 0.02346766 0.00306066 0.00115963 0.00225288 0.01005445 0.00537490 0.01856975 0.00315733 0.00317108 0.01954604 0.00835225 0.00183950 0.00548547 0.00132788 
0.11194124 0.05537370 0.02398951 0.00308633 0.00116528 0.00227484 0.01036135 0.00537051 0.01873698 0.00314506 0.00317404 0.01948526 0.00838255 0.00181618 0.00548561 0.00132724 
0.11167500 0.05470074 0.02449022 0.00311309 0.00117072 0.00229679 0.01068136 0.00538058 0.01892794 0.00313235 0.00317642 0.01942796 0.00841567 0.00179399 0.00548176 0.00132651 
0.11126735 0.05398884 0.02496825 0.00314088 0.00117596 0.00231865 0.01101317 0.00540562 0.01914100 0.00311920 0.00317815 0.01937450 0.00845152 0.00177304 0.00547413 0.00132568 
0.11071920 0.05324248 0.02542216 0.00316963 0.00118098 0.00234034 0.01135543 0.00544611 0.01937447 0.00310564 0.00317916 0.01932525 0.00849001 0.00175345 0.00546294 0.00132478 
0.11003223 0.05246637 0.02585057 0.00319928 0.00118578 0.00236176 0.01170674 0.00550255 0.01962661 0.00309168 0.00317942 0.01928058 0.00853101 0.00173534 0.00544842 0.00132380 
0.10920883 0.05166545 0.02625221 0.00322976 0.00119035 0.00238286 0.01206566 0.00557539 0.01989560 0.00307734 0.00317886 0.01924082 0.00857439 0.00171880 0.00543081 0.00132275 
0.10825213 0.05084482 0.02662587 0.00326097 0.00119470 0.00240355 0.01243072 0.00566508 0.02017961 0.00306264 0.00317745 0.01920634 0.00862001 0.00170390 0.00541036 0.00132166 
0.10716600 0.05000972 0.02697046 0.00329282 0.00119881 0.00242378 0.01280043 0.00577201 0.02047675 0.00304759 0.00317513 0.01917748 0.00866769 0.00169073 0.00538731 0.00132052 
0.10595502 0.04916553 0.02728497 0.00332523 0.00120269 0.00244350 0.01317326 0.00589655 0.02078511 0.00303223 0.00317189 0.01915458 0.00871726 0.00167932 0.00536192 0.00131934 
0.10462448 0.04831768 0.02756851 0.00335809 0.00120633 0.00246264 0.01354766 0.00603903 0.02110277 0.00301657 0.00316769 0.01913797 0.00876853 0.00166973 0.00533444 0.00131814 
0.10318036 0.04747169 0.02782026 0.00339130 0.00120973 0.00248117 0.01392210 0.00619970 0.02142778 0.00300063 0.00316251 0.01912797 0.00882128 0.00166199 0.00530511 0.00131692 
0.10162928 0.04663305 0.02803953 0.00342474 0.00121289 0.00249905 0.01429501 0.00637878 0.02175818 0.00298445 0.00315634 0.01912488 0.00887531 0.00165612 0.00527419 0.00131570 
0.09997852 0.04580727 0.02822574 0.00345830 0.00121580 0.00251624 0.01466484 0.00657640 0.02209203 0.00296805 0.00314915 0.01912899 0.00893036 0.00165211 0.00524192 0.00131447 
0.09823592 0.04499980 0.02837840 0.00349185 0.00121846 0.00253273 0.01503004 0.00679264 0.02242738 0.00295145 0.00314095 0.01914058 0.00898620 0.00164995 0.00520854 0.00131326 
0.09640991 0.04421599 0.02849712 0.00352528 0.00122088 0.00254849 0.01538908 0.00702750 0.02276231 0.00293470 0.00313173 0.01915992 0.00904258 0.00164963 0.00517429 0.00131205 
0.09450941 0.04346110 0.02858166 0.00355845 0.00122303 0.00256351 0.01574044 0.00728088 0.02309492 0.00291781 0.00312149 0.01918723 0.00909922 0.00165111 0.00513939 0.00131087 
0.09254383 0.04274023 0.02863183 0.00359124 0.00122493 0.00257778 0.01608263 0.00755262 0.02342334 0.00290083 0.00311026 0.01922274 0.00915584 0.00165434 0.00510407 0.00130972 
0.09052296 0.04205828 0.02864760 0.00362352 0.00122658 0.00259131 0.01641421 0.00784246 0.02374574 0.00288379 0.00309803 0.01926665 0.00921218 0.00165926 0.00506852 0.00130861 
0.08845701 0.04141998 0.02862902 0.00365515 0.00122795 0.00260408 0.01673376 0.00815005 0.02406035 0.00286673 0.00308483 0.01931912 0.00926793 0.00166580 0.00503295 0.00130753 
0.08635647 0.04082979 0.02857624 0.00368601 0.00122907 0.00261613 0.01703990 0.00847493 0.02436545 0.00284967 0.00307068 0.01938029 0.00932282 0.00167388 0.00499755 0.00130649 
0.08423206 0.04029191 0.02848952 0.00371597 0.00122991 0.00262744 0.01733133 0.00881656 0.02465936 0.00283267 0.00305561 0.01945029 0.00937653 0.00168340 0.00496250 0.00130551 
0.08209474 0.03981026 0.02836924 0.00374489 0.00123048 0.00263806 0.01760678 0.00917431 0.02494050 0.00281577 0.00303966 0.01952919 0.00942878 0.00169427 0.00492797 0.00130457 
0.07995556 0.03938841 0.02821584 0.00377265 0.00123077 0.00264799 0.01786507 0.00954742 0.02520736 0.00279900 0.00302284 0.01961706 0.00947928 0.00170638 0.00489410 0.00130368 
0.07782564 0.03902962 0.02802989 0.00379913 0.00123078 0.00265725 0.01810506 0.00993506 0.02545853 0.00278242 0.00300522 0.01971391 0.00952772 0.00171962 0.00486105 0.00130285 
0.07571613 0.03873678 0.02781203 0.00382421 0.00123051 0.00266588 0.01832571 0.01033629 0.02569266 0.00276606 0.00298681 0.01981972 0.00957383 0.00173385 0.00482894 0.00130207 
0.07363806 0.03851238 0.02756300 0.00384778 0.00122994 0.00267391 0.01852607 0.01075008 0.02590854 0.00274999 0.00296768 0.01993445 0.00961733 0.00174896 0.00479790 0.00130134 
0.07160238 0.03835852 0.02728363 0.00386972 0.00122908 0.00268137 0.01870524 0.01117531 0.02610503 0.00273424 0.00294787 0.02005800 0.00965794 0.00176480 0.00476803 0.00130067 
0.06961981 0.03827688 0.02697482 0.00388993 0.00122792 0.00268828 0.01886244 0.01161075 0.02628114 0.00271887 0.00292742 0.02019026 0.00969542 0.00178124 0.00473943 0.00130006 
0.06770083 0.03826873 0.02663756 0.00390833 0.00122645 0.00269468 0.01899700 0.01205512 0.02643597 0.00270392 0.00290640 0.02033106 0.00972950 0.00179815 0.00471219 0.00129949 
0.06585559 0.03833489 0.02627289 0.00392482 0.00122468 0.00270060 0.01910831 0.01250702 0.02656877 0.00268947 0.00288485 0.02048019 0.00975997 0.00181538 0.00468638 0.00129897 
0.06409385 0.03847573 0.02588195 0.00393933 0.00122259 0.00270608 0.01919590 0.01296500 0.02667891 0.00267555 0.00286282 0.02063741 0.00978661 0.00183278 0.00466206 0.00129849 
0.06242492 0.03869117 0.02546592 0.00395180 0.00122019 0.00271115 0.01925941 0.01342754 0.02676591 0.00266222 0.00284039 0.02080243 0.00980922 0.00185023 0.00463929 0.00129806 
0.06085763 0.03898069 0.02502605 0.00396215 0.00121747 0.00271583 0.01929856 0.01389304 0.02682940 0.00264955 0.00281759 0.02097493 0.00982765 0.00186757 0.00461811 0.00129767 
0.05940024 0.03934331 0.02456364 0.00397036 0.00121442 0.00272015 0.01931321 0.01435988 0.02686919 0.00263759 0.00279450 0.02115455 0.00984173 0.00188467 0.00459855 0.00129731 
0.05806040 0.03977760 0.02408004 0.00397638 0.00121106 0.00272415 0.01930334 0.01482635 0.02688522 0.00262639 0.00277117 0.02134087 0.00985135 0.00190140 0.00458065 0.00129698 
0.05684510 0.04028168 0.02357664 0.00398019 0.00120736 0.00272785 0.01926905 0.01529074 0.02687760 0.00261602 0.00274765 0.02153346 0.00985641 0.00191763 0.00456442 0.00129667 
0.05576066 0.04085325 0.02305489 0.00398179 0.00120335 0.00273125 0.01921054 0.01575127 0.02684656 0.00260653 0.00272402 0.02173183 0.00985685 0.00193322 0.00454987 0.00129638 
0.05481264 0.04148959 0.02251625 0.00398116 0.00119900 0.00273439 0.01912815 0.01620619 0.02679252 0.00259799 0.00270033 0.02193546 0.00985262 0.00194807 0.00453700 0.00129611 
0.05400582 0.04218754 0.02196221 0.00397833 0.00119434 0.00273728 0.01902234 0.01665370 0.02671604 0.00259044 0.00267663 0.02214381 0.00984372 0.00196206 0.00452581 0.00129585 
0.05334419 0.04294359 0.02139430 0.00397333 0.00118935 0.00273992 0.01889369 0.01709202 0.02661784 0.00258396 0.00265299 0.02235627 0.00983018 0.00197508 0.00451629 0.00129559 
0.05283093 0.04375382 0.02081407 0.00396619 0.00118405 0.00274232 0.01874289 0.01751937 0.02649878 0.00257859 0.00262947 0.02257224 0.00981206 0.00198704 0.00450843 0.00129533 
0.05246832 0.04461398 0.02022306 0.00395697 0.00117844 0.00274448 0.01857076 0.01793398 0.02635988 0.00257439 0.00260612 0.02279106 0.00978944 0.00199786 0.00450220 0.00129506 
0.05225783 0.04551948 0.01962286 0.00394574 0.00117253 0.00274640 0.01837825 0.01833414 0.02620232 0.00257140 0.00258299 0.02301206 0.00976246 0.00200745 0.00449758 0.00129479 
0.05220002 0.04646544 0.01901502 0.00393256 0.00116632 0.00274807 0.01816639 0.01871816 0.02602742 0.00256970 0.00256016 0.02323453 0.00973128 0.00201574 0.00449453 0.00129450 
0.05229458 0.04744670 0.01840112 0.00391754 0.00115983 0.00274948 0.01793635 0.01908439 0.02583663 0.00256931 0.00253766 0.02345776 0.00969609 0.00202268 0.00449303 0.00129419 
0.05254032 0.04845786 0.01778274 0.00390078 0.00115306 0.00275062 0.01768939 0.01943126 0.02563154 0.00257030 0.00251555 0.02368101 0.00965712 0.00202822 0.00449304 0.00129386 
0.05293518 0.04949332 0.01716144 0.00388238 0.00114604 0.00275146 0.01742689 0.01975726 0.02541388 0.00257269 0.00249389 0.02390351 0.00961464 0.00203232 0.00449451 0.00129350 
0.05347624 0.05054729 0.01653877 0.00386248 0.00113877 0.00275198 0.01715031 0.02006097 0.02518548 0.00257654 0.00247272 0.02412450 0.00956894 0.00203497 0.00449741 0.00129311 
0.05415973 0.05161384 0.01591626 0.00384120 0.00113128 0.00275216 0.01686121 0.02034104 0.02494830 0.00258187 0.00245210 0.02434321 0.00952035 0.00203613 0.00450168 0.00129269 
0.05498105 0.05268696 0.01529543 0.00381870 0.00112358 0.00275196 0.01656123 0.02059622 0.02470440 0.00258872 0.00243207 0.02455886 0.00946922 0.00203582 0.00450727 0.00129224 
0.05593480 0.05376057 0.01467779 0.00379512 0.00111570 0.00275136 0.01625210 0.02082537 0.02445592 0.00259712 0.00241267 0.02477067 0.00941595 0.00203404 0.00451413 0.00129175 
0.05701484 0.05482854 0.01406480 0.00377062 0.00110765 0.00275032 0.01593561 0.02102747 0.02420511 0.00260709 0.00239396 0.02497785 0.00936095 0.00203081 0.00452221 0.00129123 
0.05821426 0.05588479 0.01345789 0.00374537 0.00109947 0.00274879 0.01561363 0.02120160 0.02395426 0.00261863 0.00237598 0.02517966 0.00930465 0.00202615 0.00453144 0.00129067 
0.05952549 0.05692329 0.01285849 0.00371954 0.00109117 0.00274675 0.01528807 0.02134697 0.02370573 0.00263178 0.00235876 0.02537531 0.00924752 0.00202012 0.00454176 0.00129008 
0.06094031 0.05793810 0.01226797 0.00369331 0.00108279 0.00274416 0.01496090 0.02146294 0.02346193 0.00264652 0.00234236 0.02556409 0.00919004 0.00201276 0.00455311 0.00128945 
0.06244989 0.05892342 0.01168767 0.00366685 0.00107435 0.00274097 0.01463413 0.02154896 0.02322531 0.00266286 0.00232679 0.02574527 0.00913271 0.00200414 0.00456541 0.00128880 
0.06404485 0.05987363 0.01111888 0.00364036 0.00106589 0.00273715 0.01430978 0.02160466 0.02299830 0.00268079 0.00231211 0.02591815 0.00907605 0.00199432 0.00457861 0.00128811 
0.06571534 0.06078334 0.01056287 0.00361400 0.00105744 0.00273266 0.01398992 0.02162979 0.02278338 0.00270030 0.00229835 0.02608208 0.00902057 0.00198338 0.00459262 0.00128739 
0.06745107 0.06164743 0.01002086 0.00358797 0.00104903 0.00272746 0.01367661 0.02162425 0.02258300 0.00272136 0.00228554 0.02623641 0.00896682 0.00197141 0.00460737 0.00128666 
0.06924135 0.06246104 0.00949401 0.00356245 0.00104069 0.00272153 0.01337193 0.02158808 0.02239956 0.00274395 0.00227372 0.02638055 0.00891533 0.00195851 0.00462277 0.00128591 
0.07107522 0.06321968 0.00898345 0.00353761 0.00103246 0.00271483 0.01307794 0.02152147 0.02223544 0.00276804 0.00226291 0.02651395 0.00886664 0.00194477 0.00463874 0.00128514 
0.07294145 0.06391923 0.00849025 0.00351363 0.00102439 0.00270734 0.01279668 0.02142474 0.02209296 0.00279357 0.00225314 0.02663609 0.00882128 0.00193032 0.00465520 0.00128436 
0.07482862 0.06455596 0.00801544 0.00349068 0.00101649 0.00269904 0.01253017 0.02129838 0.02197437 0.00282050 0.00224445 0.02674651 0.00877979 0.00191525 0.00467205 0.00128359 
0.07672522 0.06512659 0.00756000 0.00346893 0.00100883 0.00268991 0.01228039 0.02114299 0.02188182 0.00284877 0.00223686 0.02684481 0.00874270 0.00189969 0.00468919 0.00128281 
0.07861965 0.06562831 0.00712484 0.00344853 0.00100142 0.00267994 0.01204928 0.02095932 0.02181735 0.00287831 0.00223039 0.02693061 0.00871049 0.00188376 0.00470654 0.00128205 
0.08050037 0.06605880 0.00671085 0.00342964 0.00099431 0.00266913 0.01183871 0.02074827 0.02178290 0.00290907 0.00222507 0.02700363 0.00868368 0.00186758 0.00472398 0.00128130 
0.08235588 0.06641627 0.00631882 0.00341238 0.00098754 0.00265750 0.01165049 0.02051083 0.02178026 0.00294094 0.00222091 0.02706361 0.00866272 0.00185128 0.00474140 0.00128058 
0.08417487 0.06669945 0.00594953 0.00339691 0.00098115 0.00264504 0.01148635 0.02024816 0.02181109 0.00297386 0.00221795 0.02711039 0.00864806 0.00183500 0.00475871 0.00127989 
0.08594620 0.06690766 0.00560368 0.00338332 0.00097517 0.00263178 0.01134793 0.01996150 0.02187685 0.00300772 0.00221619 0.02714384 0.00864011 0.00181885 0.00477578 0.00127924 
0.08765903 0.06704077 0.00528192 0.00337174 0.00096964 0.00261775 0.01123680 0.01965222 0.02197888 0.00304243 0.00221566 0.02716391 0.00863925 0.00180297 0.00479250 0.00127864 
0.08930284 0.06709924 0.00498483 0.00336225 0.00096460 0.00260298 0.01115440 0.01932179 0.02211829 0.00307788 0.00221637 0.02717061 0.00864585 0.00178748 0.00480874 0.00127809 
0.09086752 0.06708415 0.00471295 0.00335494 0.00096008 0.00258754 0.01110207 0.01897177 0.02229602 0.00311397 0.00221833 0.02716404 0.00866020 0.00177251 0.00482440 0.00127761 
0.09234337 0.06699716 0.00446675 0.00334987 0.00095611 0.00257147 0.01108103 0.01860380 0.02251278 0.00315058 0.00222156 0.02714432 0.00868257 0.00175818 0.00483933 0.00127719 
0.09372123 0.06684053 0.00424666 0.00334711 0.00095274 0.00255484 0.01109239 0.01821963 0.02276909 0.00318758 0.00222606 0.02711169 0.00871319 0.00174461 0.00485341 0.00127686 
0.09499246 0.06661712 0.00405302 0.00334668 0.00094998 0.00253773 0.01113709 0.01782104 0.02306524 0.00322485 0.00223184 0.02706643 0.00875223 0.00173190 0.00486652 0.00127660 
0.09614902 0.06633037 0.00388614 0.00334862 0.00094788 0.00252022 0.01121598 0.01740989 0.02340128 0.00326227 0.00223892 0.02700888 0.00879984 0.00172017 0.00487852 0.00127644 
0.09718352 0.06598432 0.00374625 0.00335292 0.00094645 0.00250242 0.01132973 0.01698808 0.02377703 0.00329971 0.00224729 0.02693945 0.00885607 0.00170952 0.00488929 0.00127638 
0.09808921 0.06558356 0.00363352 0.00335960 0.00094573 0.00248443 0.01147887 0.01655754 0.02419208 0.00333702 0.00225695 0.02685862 0.00892097 0.00170004 0.00489868 0.00127642 
0.09886008 0.06513320 0.00354809 0.00336862 0.00094573 0.00246636 0.01166379 0.01612026 0.02464577 0.00337408 0.00226791 0.02676693 0.00899451 0.00169183 0.00490658 0.00127656 
0.09949084 0.06463891 0.00348999 0.00337995 0.00094647 0.00244833 0.01188472 0.01567821 0.02513722 0.00341074 0.00228016 0.02666497 0.00907660 0.00168496 0.00491284 0.00127683 
0.09997696 0.06410682 0.00345923 0.00339355 0.00094798 0.00243048 0.01214171 0.01523339 0.02566528 0.00344688 0.00229369 0.02655339 0.00916710 0.00167950 0.00491735 0.00127720 
0.10031467 0.06354353 0.00345575 0.00340933 0.00095026 0.00241295 0.01243467 0.01478778 0.02622859 0.00348235 0.00230849 0.02643290 0.00926584 0.00167552 0.00491998 0.00127770 
0.10050103 0.06295605 0.00347941 0.00342723 0.00095334 0.00239589 0.01276335 0.01434337 0.02682554 0.00351702 0.00232455 0.02630423 0.00937256 0.00167308 0.00492060 0.00127833 
0.10053388 0.06235181 0.00353004 0.00344715 0.00095722 0.00237943 0.01312733 0.01390210 0.02745430 0.00355075 0.00234186 0.02616820 0.00948697 0.00167221 0.00491910 0.00127907 
0.10041187 0.06173853 0.00360739 0.00346899 0.00096190 0.00236375 0.01352602 0.01346590 0.02811281 0.00358342 0.00236040 0.02602562 0.00960871 0.00167296 0.00491538 0.00127995 
0.10013446 0.06112428 0.00371114 0.00349263 0.00096740 0.00234899 0.01395867 0.01303664 0.02879881 0.00361488 0.00238014 0.02587737 0.00973738 0.00167535 0.00490931 0.00128096 
0.09970193 0.06051734 0.00384095 0.00351794 0.00097370 0.00233533 0.01442438 0.01261614 0.02950982 0.00364503 0.00240105 0.02572435 0.00987253 0.00167940 0.00490081 0.00128209 
0.09911535 0.05992621 0.00399638 0.00354478 0.00098081 0.00232293 0.01492209 0.01220617 0.03024318 0.00367373 0.00242312 0.02556749 0.01001365 0.00168511 0.00488979 0.00128334 
0.09837657 0.05935953 0.00417694 0.00357300 0.00098872 0.00231195 0.01545057 0.01180841 0.03099604 0.00370086 0.00244629 0.02540771 0.01016020 0.00169248 0.00487615 0.00128473 
0.09748820 0.05882601 0.00438211 0.00360245 0.00099741 0.00230256 0.01600844 0.01142450 0.03176541 0.00372633 0.00247054 0.02524600 0.01031158 0.00170150 0.00485984 0.00128623 
0.09645362 0.05833444 0.00461128 0.00363295 0.00100689 0.00229492 0.01659421 0.01105596 0.03254812 0.00375002 0.00249582 0.02508330 0.01046718 0.00171215 0.00484077 0.00128785 
0.09527691 0.05789352 0.00486380 0.00366433 0.00101712 0.00228920 0.01720619 0.01070424 0.03334087 0.00377184 0.00252208 0.02492059 0.01062632 0.00172439 0.00481892 0.00128958 
0.09396285 0.05751193 0.00513896 0.00369642 0.00102810 0.00228554 0.01784261 0.01037067 0.03414026 0.00379169 0.00254927 0.02475883 0.01078830 0.00173818 0.00479423 0.00129142 
0.09251686 0.05719815 0.00543601 0.00372903 0.00103979 0.00228411 0.01850153 0.01005652 0.03494278 0.00380950 0.00257733 0.02459897 0.01095240 0.00175348 0.00476667 0.00129337 
0.09094501 0.05696049 0.00575411 0.00376198 0.00105218 0.00228503 0.01918091 0.00976291 0.03574483 0.00382518 0.00260622 0.02444197 0.01111788 0.00177023 0.00473625 0.00129540 
0.08925393 0.05680699 0.00609242 0.00379507 0.00106523 0.00228845 0.01987859 0.00949088 0.03654277 0.00383868 0.00263585 0.02428873 0.01128395 0.00178835 0.00470295 0.00129753 
0.08745080 0.05674535 0.00645001 0.00382813 0.00107891 0.00229448 0.02059231 0.00924134 0.03733290 0.00384993 0.00266615 0.02414014 0.01144985 0.00180779 0.00466678 0.00129973 
0.08554329 0.05678289 0.00682592 0.00386096 0.00109319 0.00230325 0.02131971 0.00901508 0.03811153 0.00385889 0.00269707 0.02399707 0.01161477 0.00182844 0.00462779 0.00130200 
0.08353953 0.05692652 0.00721916 0.00389337 0.00110804 0.00231486 0.02205834 0.00881279 0.03887493 0.00386552 0.00272851 0.02386034 0.01177792 0.00185024 0.00458602 0.00130434 
0.08144803 0.05718262 0.00762866 0.00392519 0.00112341 0.00232939 0.02280568 0.00863503 0.03961943 0.00386979 0.00276039 0.02373072 0.01193849 0.00187308 0.00454152 0.00130672 
0.07927768 0.05755704 0.00805334 0.00395622 0.00113926 0.00234691 0.02355915 0.00848224 0.04034139 0.00387169 0.00279263 0.02360893 0.01209571 0.00189687 0.00449437 0.00130915 
0.07703764 0.05805504 0.00849206 0.00398630 0.00115555 0.00236748 0.02431609 0.00835473 0.04103724 0.00387119 0.00282514 0.02349566 0.01224878 0.00192150 0.00444467 0.00131160 
0.07473734 0.05868121 0.00894367 0.00401525 0.00117223 0.00239114 0.02507383 0.00825271 0.04170348 0.00386830 0.00285782 0.02339153 0.01239693 0.00194687 0.00439252 0.00131407 
0.07238638 0.05943950 0.00940697 0.00404291 0.00118926 0.00241793 0.02582965 0.00817626 0.04233675 0.00386304 0.00289058 0.02329708 0.01253943 0.00197286 0.00433805 0.00131655 
0.06999454 0.06033308 0.00988073 0.00406913 0.00120660 0.00244783 0.02658082 0.00812534 0.04293379 0.00385542 0.00292331 0.02321280 0.01267555 0.00199937 0.00428140 0.00131902 
0.06757164 0.06136440 0.01036369 0.00409377 0.00122418 0.00248084 0.02732458 0.00809981 0.04349150 0.00384547 0.00295592 0.02313913 0.01280460 0.00202627 0.00422272 0.00132148 
0.06512759 0.06253510 0.01085458 0.00411667 0.00124197 0.00251693 0.02805819 0.00809941 0.04400695 0.00383324 0.00298830 0.02307640 0.01292592 0.00205346 0.00416218 0.00132391 
0.06267225 0.06384600 0.01135210 0.00413772 0.00125990 0.00255605 0.02877893 0.00812377 0.04447739 0.00381876 0.00302033 0.02302490 0.01303891 0.00208080 0.00409998 0.00132630 
0.06021543 0.06529708 0.01185493 0.00415681 0.00127794 0.00259812 0.02948412 0.00817241 0.04490027 0.00380210 0.00305193 0.02298482 0.01314298 0.00210819 0.00403630 0.00132864 
0.05776681 0.06688748 0.01236175 0.00417383 0.00129603 0.00264305 0.03017108 0.00824478 0.04527325 0.00378332 0.00308297 0.02295629 0.01323762 0.00213552 0.00397135 0.00133093 
0.05533593 0.06861545 0.01287122 0.00418868 0.00131412 0.00269073 0.03083722 0.00834021 0.04559425 0.00376249 0.00311335 0.02293937 0.01332236 0.00216265 0.00390537 0.00133313 
0.05293211 0.07047838 0.01338198 0.00420130 0.00133216 0.00274103 0.03148000 0.00845794 0.04586140 0.00373971 0.00314296 0.02293400 0.01339677 0.00218949 0.00383859 0.00133526 
0.05056443 0.07247277 0.01389270 0.00421162 0.00135011 0.00279380 0.03209696 0.00859713 0.04607312 0.00371505 0.00317171 0.02294010 0.01346049 0.00221591 0.00377125 0.00133729 
0.04824165 0.07459428 0.01440203 0.00421958 0.00136790 0.00284886 0.03268574 0.00875688 0.04622807 0.00368861 0.00319947 0.02295747 0.01351324 0.00224182 0.00370360 0.00133923 
0.04597222 0.07683769 0.01490863 0.00422515 0.00138550 0.00290605 0.03324406 0.00893620 0.04632520 0.00366050 0.00322615 0.02298586 0.01355476 0.00226711 0.00363592 0.00134105 
0.04376422 0.07919696 0.01541116 0.00422830 0.00140286 0.00296514 0.03376976 0.00913402 0.04636375 0.00363082 0.00325166 0.02302493 0.01358490 0.00229168 0.00356846 0.00134276 
0.04162532 0.08166522 0.01590830 0.00422903 0.00141993 0.00302592 0.03426079 0.00934924 0.04634324 0.00359970 0.00327589 0.02307428 0.01360354 0.00231543 0.00350149 0.00134434 
0.03956274 0.08423481 0.01639875 0.00422733 0.00143668 0.00308816 0.03471526 0.00958069 0.04626349 0.00356723 0.00329876 0.02313344 0.01361065 0.00233828 0.00343531 0.00134579 
0.03758327 0.08689733 0.01688123 0.00422323 0.00145306 0.00315160 0.03513139 0.00982714 0.04612460 0.00353356 0.00332019 0.02320186 0.01360626 0.00236014 0.00337018 0.00134711 
0.03569316 0.08964366 0.01735448 0.00421674 0.00146904 0.00321599 0.03550756 0.01008735 0.04592699 0.00349881 0.00334008 0.02327896 0.01359046 0.00238094 0.00330639 0.00134828 
0.03389821 0.09246400 0.01781726 0.00420792 0.00148458 0.00328104 0.03584231 0.01036002 0.04567136 0.00346311 0.00335838 0.02336407 0.01356342 0.00240060 0.00324421 0.00134931 
0.03220363 0.09534793 0.01826838 0.00419682 0.00149964 0.00334647 0.03613434 0.01064382 0.04535869 0.00342659 0.00337502 0.02345650 0.01352537 0.00241907 0.00318392 0.00135020 
0.03061411 0.09828446 0.01870665 0.00418349 0.00151419 0.00341200 0.03638253 0.01093742 0.04499028 0.00338939 0.00338993 0.02355549 0.01347661 0.00243627 0.00312580 0.00135093 
0.02913378 0.10126210 0.01913097 0.00416803 0.00152822 0.00347733 0.03658591 0.01123944 0.04456767 0.00335165 0.00340307 0.02366024 0.01341749 0.00245217 0.00307010 0.00135151 
0.02776620 0.10426888 0.01954023 0.00415052 0.00154169 0.00354215 0.03674374 0.01154852 0.04409270 0.00331350 0.00341440 0.02376992 0.01334844 0.00246672 0.00301709 0.00135194 
0.02651433 0.10729247 0.01993340 0.00413105 0.00155458 0.00360615 0.03685542 0.01186328 0.04356745 0.00327509 0.00342389 0.02388367 0.01326994 0.00247988 0.00296702 0.00135223 
0.02538056 0.11032021 0.02030948 0.00410973 0.00156687 0.00366904 0.03692056 0.01218233 0.04299428 0.00323655 0.00343152 0.02400061 0.01318252 0.00249162 0.00292011 0.00135237 
0.02436671 0.11333918 0.02066751 0.00408668 0.00157855 0.00373051 0.03693897 0.01250432 0.04237575 0.00319803 0.00343728 0.02411982 0.01308678 0.00250193 0.00287661 0.00135236 
0.02347401 0.11633629 0.02100661 0.00406201 0.00158960 0.00379025 0.03691064 0.01282788 0.04171466 0.00315965 0.00344116 0.02424038 0.01298334 0.00251079 0.00283672 0.00135222 
0.02270309 0.11929834 0.02132594 0.00403585 0.00160001 0.00384798 0.03683575 0.01315166 0.04101404 0.00312157 0.00344317 0.02436138 0.01287289 0.00251820 0.00280064 0.00135194 
0.02205404 0.12221213 0.02162471 0.00400834 0.00160978 0.00390339 0.03671470 0.01347434 0.04027707 0.00308391 0.00344335 0.02448189 0.01275616 0.00252415 0.00276855 0.00135154 
0.02152639 0.12506445 0.02190220 0.00397961 0.00161890 0.00395621 0.03654805 0.01379463 0.03950712 0.00304682 0.00344172 0.02460099 0.01263389 0.00252865 0.00274061 0.00135101 
0.02111910 0.12784228 0.02215777 0.00394980 0.00162737 0.00400617 0.03633657 0.01411125 0.03870773 0.00301040 0.00343832 0.02471777 0.01250689 0.00253172 0.00271697 0.00135037 
0.02083061 0.13053274 0.02239080 0.00391905 0.00163519 0.00405302 0.03608121 0.01442296 0.03788254 0.00297481 0.00343321 0.02483133 0.01237597 0.00253338 0.00269775 0.00134962 
0.02065885 0.13312326 0.02260077 0.00388751 0.00164237 0.00409650 0.03578311 0.01472858 0.03703532 0.00294016 0.00342646 0.02494082 0.01224196 0.00253366 0.00268306 0.00134877 
0.02060125 0.13560160 0.02278721 0.00385531 0.00164891 0.00413640 0.03544359 0.01502694 0.03616996 0.00290657 0.00341814 0.02504539 0.01210571 0.00253258 0.00267297 0.00134784 
0.02065477 0.13795595 0.02294975 0.00382261 0.00165482 0.00417250 0.03506412 0.01531692 0.03529036 0.00287416 0.00340834 0.02514425 0.01196810 0.00253020 0.00266754 0.00134683 
0.02081591 0.14017498 0.02308803 0.00378953 0.00166010 0.00420462 0.03464635 0.01559747 0.03440053 0.00284303 0.00339716 0.02523661 0.01182998 0.00252655 0.00266682 0.00134575 
0.02108075 0.14224793 0.02320183 0.00375621 0.00166478 0.00423258 0.03419208 0.01586756 0.03350447 0.00281331 0.00338470 0.02532177 0.01169222 0.00252167 0.00267082 0.00134461 
0.02144495 0.14416465 0.02329095 0.00372279 0.00166887 0.00425624 0.03370328 0.01612623 0.03260619 0.00278509 0.00337108 0.02539903 0.01155568 0.00251564 0.00267952 0.00134343 
0.02190383 0.14591567 0.02335527 0.00368939 0.00167238 0.00427548 0.03318202 0.01637256 0.03170969 0.00275847 0.00335642 0.02546778 0.01142121 0.00250850 0.00269289 0.00134222 
0.02245233 0.14749226 0.02339477 0.00365613 0.00167532 0.00429018 0.03263053 0.01660571 0.03081893 0.00273354 0.00334087 0.02552745 0.01128964 0.00250031 0.00271088 0.00134098 
0.02308509 0.14888649 0.02340948 0.00362313 0.00167772 0.00430028 0.03205115 0.01682486 0.02993780 0.00271039 0.00332454 0.02557750 0.01116177 0.00249114 0.00273341 0.00133972 
0.02379648 0.15009126 0.02339951 0.00359049 0.00167960 0.00430573 0.03144630 0.01702930 0.02907012 0.00268909 0.00330760 0.02561749 0.01103840 0.00248105 0.00276038 0.00133847 
0.02458058 0.15110035 0.02336503 0.00355831 0.00168097 0.00430649 0.03081854 0.01721833 0.02821960 0.00266973 0.00329019 0.02564702 0.01092026 0.00247012 0.00279166 0.00133723 
0.02543127 0.15190846 0.02330630 0.00352667 0.00168186 0.00430258 0.03017047 0.01739133 0.02738983 0.00265238 0.00327246 0.02566575 0.01080807 0.00245842 0.00282710 0.00133601 
0.02634225 0.15251123 0.02322365 0.00349567 0.00168228 0.00429401 0.02950477 0.01754777 0.02658426 0.00263708 0.00325458 0.02567340 0.01070249 0.00244601 0.00286654 0.00133482 
0.02730703 0.15290530 0.02311746 0.00346535 0.00168226 0.00428084 0.02882419 0.01768714 0.02580619 0.00262391 0.00323670 0.02566975 0.01060416 0.00243297 0.00290980 0.00133367 
0.02831901 0.15308828 0.02298821 0.00343579 0.00168181 0.00426315 0.02813150 0.01780902 0.02505871 0.00261292 0.00321898 0.02565467 0.01051365 0.00241938 0.00295667 0.00133257 
0.02937151 0.15305882 0.02283643 0.00340703 0.00168096 0.00424105 0.02742950 0.01791305 0.02434477 0.00260413 0.00320160 0.02562806 0.01043148 0.00240531 0.00300694 0.00133153 
0.03045777 0.15281656 0.02266273 0.00337910 0.00167972 0.00421465 0.02672101 0.01799893 0.02366707 0.00259759 0.00318469 0.02558989 0.01035811 0.00239083 0.00306035 0.00133057 
0.03157100 0.15236217 0.02246777 0.00335204 0.00167811 0.00418412 0.02600885 0.01806642 0.02302812 0.00259333 0.00316843 0.02554020 0.01029396 0.00237602 0.00311667 0.00132968 
0.03270443 0.15169737 0.02225229 0.00332584 0.00167615 0.00414962 0.02529582 0.01811534 0.02243019 0.00259137 0.00315297 0.02547907 0.01023938 0.00236093 0.00317563 0.00132887 
0.03385130 0.15082484 0.02201709 0.00330052 0.00167385 0.00411136 0.02458468 0.01814560 0.02187530 0.00259172 0.00313845 0.02540665 0.01019464 0.00234566 0.00323696 0.00132815 
0.03500493 0.14974829 0.02176303 0.00327607 0.00167124 0.00406956 0.02387817 0.01815714 0.02136524 0.00259439 0.00312503 0.02532313 0.01015998 0.00233025 0.00330037 0.00132753 
0.03615872 0.14847237 0.02149102 0.00325245 0.00166832 0.00402446 0.02317896 0.01814999 0.02090153 0.00259939 0.00311283 0.02522877 0.01013554 0.00231478 0.00336558 0.00132701 
0.03730622 0.14700272 0.02120205 0.00322965 0.00166510 0.00397630 0.02248964 0.01812421 0.02048543 0.00260670 0.00310198 0.02512386 0.01012142 0.00229931 0.00343229 0.00132659 
0.03844109 0.14534583 0.02089714 0.00320761 0.00166160 0.00392537 0.02181273 0.01807994 0.02011795 0.00261631 0.00309260 0.02500874 0.01011764 0.00228391 0.00350021 0.00132628 
0.03955719 0.14350911 0.02057737 0.00318630 0.00165783 0.00387196 0.02115066 0.01801738 0.01979981 0.00262820 0.00308481 0.02488379 0.01012416 0.00226862 0.00356903 0.00132608 
0.04064858 0.14150078 0.02024387 0.00316564 0.00165380 0.00381635 0.02050574 0.01793677 0.01953147 0.00264234 0.00307870 0.02474942 0.01014087 0.00225350 0.00363846 0.00132599 
0.04170954 0.13932985 0.01989781 0.00314556 0.00164951 0.00375887 0.01988018 0.01783843 0.01931314 0.00265869 0.00307436 0.02460610 0.01016761 0.00223860 0.00370820 0.00132601 
0.04273460 0.13700603 0.01954041 0.00312599 0.00164496 0.00369983 0.01927603 0.01772271 0.01914475 0.00267722 0.00307186 0.02445431 0.01020414 0.00222397 0.00377797 0.00132613 
0.04371857 0.13453975 0.01917292 0.00310685 0.00164017 0.00363957 0.01869525 0.01759002 0.01902597 0.00269787 0.00307126 0.02429456 0.01025017 0.00220964 0.00384748 0.00132637 
0.04465654 0.13194201 0.01879663 0.00308803 0.00163513 0.00357841 0.01813961 0.01744082 0.01895622 0.00272059 0.00307260 0.02412737 0.01030536 0.00219567 0.00391646 0.00132670 
0.04554390 0.12922438 0.01841284 0.00306945 0.00162985 0.00351670 0.01761075 0.01727563 0.01893467 0.00274531 0.00307592 0.02395332 0.01036928 0.00218209 0.00398465 0.00132713 
0.04637638 0.12639891 0.01802289 0.00305100 0.00162433 0.00345476 0.01711015 0.01709500 0.01896026 0.00277196 0.00308124 0.02377297 0.01044150 0.00216892 0.00405180 0.00132766 
0.04715005 0.12347804 0.01762816 0.00303258 0.00161856 0.00339294 0.01663911 0.01689951 0.01903171 0.00280047 0.00308856 0.02358691 0.01052149 0.00215620 0.00411767 0.00132828 
0.04786132 0.12047460 0.01723001 0.00301409 0.00161255 0.00333156 0.01619877 0.01668982 0.01914749 0.00283075 0.00309785 0.02339574 0.01060871 0.00214395 0.00418206 0.00132898 
0.04850697 0.11740163 0.01682983 0.00299540 0.00160630 0.00327096 0.01579010 0.01646659 0.01930590 0.00286272 0.00310910 0.02320007 0.01070256 0.00213218 0.00424475 0.00132975 
0.04908416 0.11427243 0.01642902 0.00297642 0.00159979 0.00321145 0.01541387 0.01623053 0.01950505 0.00289628 0.00312225 0.02300051 0.01080242 0.00212092 0.00430557 0.00133059 
0.04959043 0.11110036 0.01602896 0.00295704 0.00159304 0.00315335 0.01507070 0.01598238 0.01974284 0.00293133 0.00313725 0.02279768 0.01090762 0.00211018 0.00436437 0.00133149 
0.05002371 0.10789888 0.01563105 0.00293715 0.00158603 0.00309695 0.01476100 0.01572292 0.02001705 0.00296776 0.00315401 0.02259220 0.01101746 0.00209996 0.00442100 0.00133243 
0.05038231 0.10468140 0.01523667 0.00291665 0.00157877 0.00304255 0.01448503 0.01545294 0.02032528 0.00300547 0.00317245 0.02238469 0.01113123 0.00209028 0.00447534 0.00133342 
0.05066494 0.10146124 0.01484718 0.00289544 0.00157125 0.00299041 0.01424284 0.01517325 0.02066505 0.00304433 0.00319247 0.02217577 0.01124820 0.00208113 0.00452732 0.00133443 
0.05087072 0.09825153 0.01446393 0.00287342 0.00156348 0.00294080 0.01403432 0.01488469 0.02103372 0.00308423 0.00321393 0.02196607 0.01136761 0.00207252 0.00457686 0.00133546 
0.05099914 0.09506520 0.01408823 0.00285052 0.00155545 0.00289394 0.01385920 0.01458813 0.02142858 0.00312505 0.00323670 0.02175619 0.01148871 0.00206444 0.00462393 0.00133650 
0.05105010 0.09191483 0.01372137 0.00282665 0.00154716 0.00285008 0.01371702 0.01428441 0.02184685 0.00316665 0.00326065 0.02154675 0.01161073 0.00205689 0.00466851 0.00133754 
0.05102387 0.08881265 0.01336459 0.00280175 0.00153863 0.00280939 0.01360716 0.01397443 0.02228569 0.00320890 0.00328561 0.02133836 0.01173291 0.00204986 0.00471060 0.00133856 
0.05092110 0.08577045 0.01301911 0.00277574 0.00152984 0.00277208 0.01352886 0.01365906 0.02274222 0.00325167 0.00331140 0.02113163 0.01185449 0.00204334 0.00475025 0.00133955 
0.05074283 0.08279953 0.01268608 0.00274857 0.00152081 0.00273829 0.01348118 0.01333919 0.02321353 0.00329483 0.00333786 0.02092716 0.01197472 0.00203731 0.00478753 0.00134051 
0.05049043 0.07991064 0.01236659 0.00272021 0.00151155 0.00270816 0.01346308 0.01301569 0.02369673 0.00333823 0.00336480 0.02072554 0.01209287 0.00203177 0.00482250 0.00134141 
0.05016564 0.07711391 0.01206170 0.00269061 0.00150206 0.00268180 0.01347334 0.01268945 0.02418894 0.00338173 0.00339201 0.02052739 0.01220821 0.00202670 0.00485530 0.00134226 
0.04977053 0.07441884 0.01177238 0.00265977 0.00149236 0.00265931 0.01351066 0.01236133 0.02468729 0.00342519 0.00341929 0.02033328 0.01232006 0.00202207 0.00488605 0.00134303 
0.04930749 0.07183423 0.01149955 0.00262767 0.00148247 0.00264075 0.01357358 0.01203221 0.02518897 0.00346847 0.00344644 0.02014382 0.01242774 0.00201789 0.00491490 0.00134372 
0.04877921 0.06936815 0.01124404 0.00259432 0.00147239 0.00262617 0.01366059 0.01170291 0.02569125 0.00351142 0.00347324 0.01995961 0.01253062 0.00201411 0.00494205 0.00134432 
0.04818868 0.06702789 0.01100660 0.00255974 0.00146216 0.00261558 0.01377004 0.01137428 0.02619147 0.00355389 0.00349948 0.01978123 0.01262810 0.00201074 0.00496769 0.00134482 
0.04753915 0.06481999 0.01078793 0.00252394 0.00145180 0.00260897 0.01390022 0.01104711 0.02668704 0.00359575 0.00352495 0.01960930 0.01271960 0.00200774 0.00499203 0.00134520 
0.04683414 0.06275012 0.01058860 0.00248699 0.00144133 0.00260632 0.01404935 0.01072218 0.02717551 0.00363685 0.00354942 0.01944441 0.01280459 0.00200511 0.00501532 0.00134547 
0.04607736 0.06082315 0.01040913 0.00244892 0.00143079 0.00260757 0.01421560 0.01040026 0.02765454 0.00367705 0.00357267 0.01928717 0.01288260 0.00200281 0.00503781 0.00134561 
0.04527278 0.05904310 0.01024993 0.00240982 0.00142020 0.00261266 0.01439709 0.01008207 0.02812189 0.00371621 0.00359451 0.01913819 0.01295317 0.00200084 0.00505975 0.00134561 
0.04442454 0.05741311 0.01011131 0.00236976 0.00140960 0.00262149 0.01459188 0.00976831 0.02857550 0.00375418 0.00361472 0.01899809 0.01301590 0.00199918 0.00508144 0.00134548 
0.04353693 0.05593550 0.00999349 0.00232883 0.00139903 0.00263394 0.01479806 0.00945962 0.02901343 0.00379084 0.00363309 0.01886750 0.01307046 0.00199780 0.00510314 0.00134520 
0.04261441 0.05461170 0.00989661 0.00228713 0.00138853 0.00264987 0.01501366 0.00915664 0.02943391 0.00382605 0.00364942 0.01874704 0.01311652 0.00199669 0.00512516 0.00134476 
0.04166154 0.05344233 0.00982067 0.00224479 0.00137815 0.00266914 0.01523676 0.00885996 0.02983532 0.00385968 0.00366354 0.01863736 0.01315384 0.00199584 0.00514779 0.00134417 
0.04068302 0.05242714 0.00976561 0.00220192 0.00136793 0.00269157 0.01546543 0.00857010 0.03021621 0.00389160 0.00367526 0.01853909 0.01318222 0.00199522 0.00517134 0.00134342 
0.03968358 0.05156510 0.00973125 0.00215866 0.00135792 0.00271697 0.01569776 0.00828758 0.03057531 0.00392169 0.00368440 0.01845289 0.01320148 0.00199484 0.00519610 0.00134251 
0.03866804 0.05085435 0.00971732 0.00211515 0.00134817 0.00274514 0.01593189 0.00801285 0.03091151 0.00394984 0.00369082 0.01837941 0.01321153 0.00199467 0.00522237 0.00134144 
0.03764123 0.05029230 0.00972344 0.00207154 0.00133874 0.00277587 0.01616602 0.00774633 0.03122388 0.00397593 0.00369436 0.01831931 0.01321230 0.00199470 0.00525045 0.00134021 
0.03660800 0.04987561 0.00974913 0.00202799 0.00132968 0.00280892 0.01639840 0.00748838 0.03151166 0.00399985 0.00369489 0.01827325 0.01320377 0.00199492 0.00528061 0.00133882 
0.03557319 0.04960024 0.00979383 0.00198467 0.00132104 0.00284407 0.01662734 0.00723932 0.03177425 0.00402151 0.00369230 0.01824190 0.01318597 0.00199533 0.00531315 0.00133726 
0.03454161 0.04946150 0.00985688 0.00194175 0.00131289 0.00288107 0.01685124 0.00699943 0.03201126 0.00404079 0.00368647 0.01822592 0.01315897 0.00199592 0.00534832 0.00133555 
0.03351800 0.04945407 0.00993751 0.00189938 0.00130529 0.00291966 0.01706859 0.00676895 0.03222242 0.00405763 0.00367733 0.01822597 0.01312288 0.00199667 0.00538637 0.00133369 
0.03250706 0.04957206 0.01003490 0.00185776 0.00129828 0.00295958 0.01727796 0.00654805 0.03240766 0.00407192 0.00366480 0.01824268 0.01307786 0.00199759 0.00542753 0.00133168 
0.03151336 0.04980907 0.01014810 0.00181705 0.00129192 0.00300058 0.01747803 0.00633686 0.03256703 0.00408360 0.00364882 0.01827671 0.01302408 0.00199866 0.00547202 0.00132952 
0.03054139 0.05015822 0.01027613 0.00177744 0.00128629 0.00304240 0.01766761 0.00613550 0.03270077 0.00409259 0.00362936 0.01832868 0.01296177 0.00199990 0.00552004 0.00132723 
0.02959550 0.05061220 0.01041789 0.00173910 0.00128142 0.00308476 0.01784559 0.00594400 0.03280923 0.00409884 0.00360640 0.01839918 0.01289117 0.00200128 0.00557176 0.00132480 
0.02867990 0.05116335 0.01057224 0.00170219 0.00127738 0.00312741 0.01801100 0.00576237 0.03289292 0.00410229 0.00357994 0.01848882 0.01281257 0.00200282 0.00562731 0.00132226 
0.02779865 0.05180368 0.01073795 0.00166690 0.00127422 0.00317008 0.01816298 0.00559058 0.03295247 0.00410289 0.00354998 0.01859813 0.01272627 0.00200451 0.00568682 0.00131960 
0.02695563 0.05252495 0.01091376 0.00163339 0.00127199 0.00321253 0.01830083 0.00542857 0.03298862 0.00410060 0.00351658 0.01872764 0.01263259 0.00200635 0.00575039 0.00131683 
0.02615453 0.05331874 0.01109834 0.00160182 0.00127074 0.00325450 0.01842393 0.00527621 0.03300222 0.00409540 0.00347977 0.01887784 0.01253187 0.00200834 0.00581808 0.00131397 
0.02539887 0.05417645 0.01129031 0.00157234 0.00127051 0.00329576 0.01853182 0.00513338 0.03299425 0.00408727 0.00343964 0.01904917 0.01242447 0.00201048 0.00588992 0.00131102 
0.02469194 0.05508944 0.01148826 0.00154510 0.00127135 0.00333606 0.01862417 0.00499990 0.03296573 0.00407620 0.00339626 0.01924200 0.01231075 0.00201277 0.00596591 0.00130800 
0.02403683 0.05604900 0.01169074 0.00152023 0.00127329 0.00337519 0.01870078 0.00487557 0.03291779 0.00406218 0.00334975 0.01945669 0.01219111 0.00201521 0.00604602 0.00130492 
0.02343641 0.05704646 0.01189629 0.00149787 0.00127636 0.00341294 0.01876157 0.00476017 0.03285163 0.00404522 0.00330023 0.01969350 0.01206591 0.00201780 0.00613020 0.00130178 
0.02289332 0.05807323 0.01210340 0.00147812 0.00128059 0.00344911 0.01880659 0.00465344 0.03276850 0.00402535 0.00324783 0.01995265 0.01193556 0.00202053 0.00621834 0.00129861 
0.02240997 0.05912084 0.01231059 0.00146110 0.00128601 0.00348351 0.01883603 0.00455512 0.03266969 0.00400258 0.00319272 0.02023426 0.01180043 0.00202342 0.00631033 0.00129541 
0.02198852 0.06018101 0.01251633 0.00144690 0.00129263 0.00351598 0.01885018 0.00446492 0.03255655 0.00397696 0.00313505 0.02053840 0.01166091 0.00202645 0.00640601 0.00129219 
0.02163092 0.06124566 0.01271915 0.00143559 0.00130045 0.00354636 0.01884946 0.00438256 0.03243044 0.00394854 0.00307503 0.02086504 0.01151739 0.00202962 0.00650518 0.00128897 
0.02133885 0.06230702 0.01291753 0.00142724 0.00130950 0.00357451 0.01883441 0.00430773 0.03229273 0.00391738 0.00301284 0.02121407 0.01137025 0.00203294 0.00660762 0.00128576 
0.02111378 0.06335760 0.01311002 0.00142191 0.00131976 0.00360030 0.01880565 0.00424013 0.03214483 0.00388353 0.00294869 0.02158528 0.01121985 0.00203639 0.00671308 0.00128258 
0.02095692 0.06439026 0.01329518 0.00141962 0.00133122 0.00362364 0.01876392 0.00417944 0.03198812 0.00384710 0.00288282 0.02197837 0.01106655 0.00203997 0.00682128 0.00127943 
0.02086925 0.06539826 0.01347158 0.00142042 0.00134387 0.00364444 0.01871007 0.00412536 0.03182399 0.00380816 0.00281545 0.02239292 0.01091071 0.00204367 0.00693192 0.00127632 
0.02085151 0.06637527 0.01363787 0.00142429 0.00135768 0.00366262 0.01864500 0.00407759 0.03165380 0.00376682 0.00274684 0.02282844 0.01075266 0.00204748 0.00704465 0.00127327 
0.02090422 0.06731540 0.01379273 0.00143124 0.00137263 0.00367815 0.01856971 0.00403585 0.03147891 0.00372320 0.00267722 0.02328431 0.01059272 0.00205139 0.00715911 0.00127029 
0.02102766 0.06821326 0.01393488 0.00144123 0.00138868 0.00369098 0.01848528 0.00399985 0.03130061 0.00367740 0.00260687 0.02375979 0.01043121 0.00205540 0.00727492 0.00126740 
0.02122191 0.06906390 0.01406313 0.00145424 0.00140577 0.00370111 0.01839283 0.00396935 0.03112019 0.00362958 0.00253605 0.02425404 0.01026844 0.00205948 0.00739168 0.00126459 
0.02148681 0.06986293 0.01417635 0.00147020 0.00142387 0.00370853 0.01829354 0.00394410 0.03093889 0.00357987 0.00246503 0.02476612 0.01010468 0.00206363 0.00750897 0.00126189 
0.02182202 0.07060646 0.01427346 0.00148905 0.00144290 0.00371328 0.01818865 0.00392389 0.03075789 0.00352842 0.00239409 0.02529496 0.00994022 0.00206782 0.00762633 0.00125930 
0.02222697 0.07129112 0.01435349 0.00151071 0.00146280 0.00371539 0.01807942 0.00390853 0.03057832 0.00347541 0.00232350 0.02583939 0.00977532 0.00207203 0.00774332 0.00125683 
0.02270091 0.07191409 0.01441554 0.00153507 0.00148351 0.00371493 0.01796714 0.00389786 0.03040127 0.00342099 0.00225356 0.02639812 0.00961022 0.00207625 0.00785948 0.00125449 
0.02324291 0.07247309 0.01445881 0.00156202 0.00150493 0.00371195 0.01785312 0.00389176 0.03022777 0.00336537 0.00218454 0.02696975 0.00944519 0.00208045 0.00797431 0.00125229 
0.02385186 0.07296638 0.01448257 0.00159144 0.00152699 0.00370657 0.01773867 0.00389011 0.03005876 0.00330872 0.00211671 0.02755278 0.00928044 0.00208461 0.00808736 0.00125023 
0.02452646 0.07339274 0.01448622 0.00162319 0.00154958 0.00369889 0.01762509 0.00389287 0.02989517 0.00325126 0.00205036 0.02814562 0.00911621 0.00208871 0.00819812 0.00124832 
0.02526528 0.07375148 0.01446923 0.00165711 0.00157262 0.00368902 0.01751369 0.00390001 0.02973782 0.00319318 0.00198577 0.02874658 0.00895273 0.00209270 0.00830611 0.00124658 
0.02606672 0.07404242 0.01443121 0.00169306 0.00159599 0.00367711 0.01740574 0.00391153 0.02958749 0.00313470 0.00192319 0.02935386 0.00879021 0.00209658 0.00841084 0.00124499 
0.02692905 0.07426586 0.01437184 0.00173085 0.00161960 0.00366330 0.01730250 0.00392750 0.02944488 0.00307604 0.00186290 0.02996559 0.00862887 0.00210029 0.00851185 0.00124357 
0.02785040 0.07442260 0.01429094 0.00177032 0.00164332 0.00364775 0.01720516 0.00394799 0.02931065 0.00301744 0.00180514 0.03057984 0.00846893 0.00210382 0.00860865 0.00124232 
0.02882875 0.07451387 0.01418843 0.00181125 0.00166705 0.00363065 0.01711490 0.00397313 0.02918538 0.00295912 0.00175017 0.03119460 0.00831061 0.00210713 0.00870077 0.00124125 
0.02986201 0.07454134 0.01406433 0.00185348 0.00169067 0.00361216 0.01703281 0.00400309 0.02906959 0.00290132 0.00169823 0.03180779 0.00815414 0.00211019 0.00878778 0.00124035 
0.03094796 0.07450708 0.01391879 0.00189678 0.00171405 0.00359248 0.01695994 0.00403807 0.02896373 0.00284428 0.00164953 0.03241730 0.00799974 0.00211295 0.00886923 0.00123962 
0.03208425 0.07441354 0.01375207 0.00194095 0.00173708 0.00357181 0.01689727 0.00407830 0.02886821 0.00278825 0.00160430 0.03302097 0.00784766 0.00211538 0.00894471 0.00123907 
0.03326849 0.07426352 0.01356453 0.00198579 0.00175963 0.00355036 0.01684568 0.00412406 0.02878336 0.00273346 0.00156273 0.03361662 0.00769814 0.00211746 0.00901383 0.00123870 
0.03449817 0.07406011 0.01335667 0.00203107 0.00178158 0.00352833 0.01680599 0.00417565 0.02870948 0.00268017 0.00152502 0.03420206 0.00755144 0.00211913 0.00907619 0.00123851 
0.03577072 0.07380669 0.01312907 0.00207658 0.00180281 0.00350594 0.01677893 0.00423339 0.02864679 0.00262861 0.00149133 0.03477509 0.00740784 0.00212036 0.00913146 0.00123849 
0.03708348 0.07350689 0.01288243 0.00212211 0.00182319 0.00348341 0.01676513 0.00429765 0.02859549 0.00257903 0.00146183 0.03533351 0.00726761 0.00212111 0.00917932 0.00123864 
0.03843375 0.07316455 0.01261756 0.00216744 0.00184261 0.00346095 0.01676512 0.00436881 0.02855568 0.00253167 0.00143665 0.03587515 0.00713105 0.00212135 0.00921945 0.00123896 
0.03981875 0.07278366 0.01233538 0.00221236 0.00186096 0.00343878 0.01677933 0.00444728 0.02852747 0.00248676 0.00141592 0.03639790 0.00699849 0.00212103 0.00925161 0.00123944 
0.04123567 0.07236837 0.01203689 0.00225665 0.00187812 0.00341711 0.01680809 0.00453347 0.02851089 0.00244454 0.00139973 0.03689965 0.00687024 0.00212013 0.00927555 0.00124009 
0.04268162 0.07192292 0.01172319 0.00230012 0.00189398 0.00339616 0.01685163 0.00462781 0.02850593 0.00240522 0.00138819 0.03737840 0.00674666 0.00211860 0.00929108 0.00124089 
0.04415372 0.07145162 0.01139550 0.00234257 0.00190845 0.00337614 0.01691005 0.00473074 0.02851255 0.00236903 0.00138136 0.03783218 0.00662810 0.00211642 0.00929802 0.00124184 
0.04564901 0.07095880 0.01105508 0.00238379 0.00192142 0.00335725 0.01698337 0.00484271 0.02853064 0.00233616 0.00137928 0.03825915 0.00651494 0.00211354 0.00929624 0.00124294 
0.04716451 0.07044880 0.01070332 0.00242361 0.00193281 0.00333970 0.01707146 0.00496415 0.02856010 0.00230681 0.00138198 0.03865753 0.00640756 0.00210993 0.00928564 0.00124418 
0.04869723 0.06992591 0.01034166 0.00246184 0.00194254 0.00332366 0.01717412 0.00509550 0.02860075 0.00228118 0.00138947 0.03902569 0.00630638 0.00210557 0.00926617 0.00124554 
0.05024414 0.06939434 0.00997161 0.00249834 0.00195053 0.00330932 0.01729102 0.00523718 0.02865239 0.00225942 0.00140174 0.03936209 0.00621180 0.00210042 0.00923779 0.00124704 
0.05180218 0.06885821 0.00959476 0.00253292 0.00195671 0.00329685 0.01742173 0.00538959 0.02871479 0.00224171 0.00141875 0.03966535 0.00612426 0.00209447 0.00920052 0.00124865 
0.05336831 0.06832151 0.00921275 0.00256547 0.00196103 0.00328641 0.01756572 0.00555311 0.02878766 0.00222818 0.00144045 0.03993422 0.00604418 0.00208769 0.00915440 0.00125037 
0.05493944 0.06778805 0.00882726 0.00259583 0.00196344 0.00327815 0.01772235 0.00572811 0.02887070 0.00221896 0.00146677 0.04016761 0.00597199 0.00208005 0.00909951 0.00125220 
0.05651251 0.06726148 0.00844004 0.00262390 0.00196391 0.00327221 0.01789088 0.00591489 0.02896356 0.00221416 0.00149762 0.04036459 0.00590815 0.00207154 0.00903599 0.00125412 
0.05808441 0.06674521 0.00805287 0.00264957 0.00196241 0.00326870 0.01807050 0.00611374 0.02906587 0.00221388 0.00153287 0.04052442 0.00585308 0.00206214 0.00896397 0.00125613 
0.05965206 0.06624245 0.00766753 0.00267276 0.00195892 0.00326773 0.01826029 0.00632489 0.02917720 0.00221818 0.00157240 0.04064651 0.00580723 0.00205185 0.00888366 0.00125822 
0.06121237 0.06575612 0.00728588 0.00269338 0.00195344 0.00326940 0.01845925 0.00654854 0.02929711 0.00222712 0.00161605 0.04073047 0.00577102 0.00204066 0.00879526 0.00126038 
0.06276226 0.06528891 0.00690974 0.00271138 0.00194597 0.00327377 0.01866631 0.00678481 0.02942510 0.00224074 0.00166365 0.04077610 0.00574488 0.00202857 0.00869904 0.00126260 
0.06429866 0.06484320 0.00654096 0.00272672 0.00193654 0.00328092 0.01888033 0.00703378 0.02956065 0.00225905 0.00171501 0.04078339 0.00572919 0.00201557 0.00859529 0.00126488 
0.06581849 0.06442108 0.00618141 0.00273937 0.00192516 0.00329088 0.01910011 0.00729547 0.02970320 0.00228204 0.00176992 0.04075252 0.00572436 0.00200167 0.00848430 0.00126721 
0.06731872 0.06402435 0.00583291 0.00274932 0.00191189 0.00330369 0.01932438 0.00756981 0.02985212 0.00230968 0.00182817 0.04068386 0.00573075 0.00198689 0.00836644 0.00126957 
0.06879630 0.06365446 0.00549730 0.00275657 0.00189677 0.00331934 0.01955182 0.00785669 0.03000679 0.00234192 0.00188951 0.04057800 0.00574868 0.00197123 0.00824207 0.00127197 
0.07024825 0.06331257 0.00517637 0.00276116 0.00187986 0.00333783 0.01978110 0.00815590 0.03016652 0.00237868 0.00195369 0.04043569 0.00577846 0.00195472 0.00811158 0.00127439 
0.07167157 0.06299953 0.00487189 0.00276311 0.00186125 0.00335914 0.02001083 0.00846717 0.03033057 0.00241988 0.00202044 0.04025790 0.00582037 0.00193738 0.00797540 0.00127683 
0.07306331 0.06271583 0.00458558 0.00276249 0.00184101 0.00338323 0.02023960 0.00879014 0.03049818 0.00246538 0.00208949 0.04004575 0.00587463 0.00191924 0.00783396 0.00127928 
0.07442058 0.06246168 0.00431913 0.00275937 0.00181923 0.00341003 0.02046598 0.00912438 0.03066853 0.00251506 0.00216054 0.03980058 0.00594143 0.00190034 0.00768772 0.00128173 
0.07574050 0.06223696 0.00407415 0.00275383 0.00179603 0.00343947 0.02068856 0.00946937 0.03084078 0.00256874 0.00223329 0.03952387 0.00602091 0.00188072 0.00753715 0.00128417 
0.07702026 0.06204124 0.00385221 0.00274598 0.00177152 0.00347146 0.02090588 0.00982451 0.03101402 0.00262625 0.00230745 0.03921728 0.00611317 0.00186041 0.00738275 0.00128661 
0.07825708 0.06187379 0.00365479 0.00273592 0.00174581 0.00350589 0.02111654 0.01018911 0.03118732 0.00268738 0.00238268 0.03888262 0.00621823 0.00183948 0.00722502 0.00128903 
0.07944827 0.06173362 0.00348330 0.00272380 0.00171904 0.00354263 0.02131914 0.01056242 0.03135970 0.00275192 0.00245867 0.03852186 0.00633609 0.00181797 0.00706447 0.00129142 
0.08059118 0.06161945 0.00333907 0.00270976 0.00169134 0.00358155 0.02151229 0.01094358 0.03153014 0.00281961 0.00253509 0.03813707 0.00646665 0.00179596 0.00690163 0.00129378 
0.08168325 0.06152972 0.00322333 0.00269395 0.00166287 0.00362248 0.02169466 0.01133167 0.03169759 0.00289020 0.00261162 0.03773047 0.00660978 0.00177349 0.00673703 0.00129611 
0.08272199 0.06146268 0.00313722 0.00267654 0.00163376 0.00366528 0.02186494 0.01172569 0.03186095 0.00296342 0.00268792 0.03730436 0.00676527 0.00175065 0.00657119 0.00129840 
0.08370502 0.06141631 0.00308177 0.00265770 0.00160417 0.00370975 0.02202188 0.01212455 0.03201911 0.00303896 0.00276366 0.03686117 0.00693285 0.00172750 0.00640466 0.00130064 
0.08463002 0.06138842 0.00305792 0.00263763 0.00157427 0.00375571 0.02216429 0.01252712 0.03217090 0.00311654 0.00283853 0.03640336 0.00711218 0.00170413 0.00623797 0.00130283 
0.08549480 0.06137663 0.00306646 0.00261653 0.00154421 0.00380296 0.02229105 0.01293216 0.03231516 0.00319582 0.00291219 0.03593349 0.00730286 0.00168063 0.00607164 0.00130497 
0.08629726 0.06137838 0.00310811 0.00259459 0.00151416 0.00385128 0.02240109 0.01333842 0.03245068 0.00327648 0.00298432 0.03545415 0.00750442 0.00165707 0.00590622 0.00130705 
0.08703545 0.06139099 0.00318342 0.00257203 0.00148428 0.00390046 0.02249343 0.01374454 0.03257624 0.00335818 0.00305462 0.03496794 0.00771630 0.00163355 0.00574221 0.00130906 
0.08770752 0.06141168 0.00329286 0.00254906 0.00145474 0.00395028 0.02256717 0.01414916 0.03269062 0.00344057 0.00312277 0.03447751 0.00793792 0.00161017 0.00558014 0.00131101 
0.08831175 0.06143757 0.00343672 0.00252590 0.00142570 0.00400050 0.02262150 0.01455084 0.03279257 0.00352329 0.00318849 0.03398547 0.00816859 0.00158702 0.00542051 0.00131288 
0.08884659 0.06146569 0.00361520 0.00250278 0.00139733 0.00405088 0.02265570 0.01494811 0.03288086 0.00360600 0.00325148 0.03349442 0.00840757 0.00156420 0.00526380 0.00131468 
0.08931062 0.06149308 0.00382836 0.00247991 0.00136979 0.00410119 0.02266915 0.01533948 0.03295427 0.00368833 0.00331148 0.03300692 0.00865409 0.00154182 0.00511050 0.00131640 
0.08970257 0.06151672 0.00407610 0.00245753 0.00134323 0.00415118 0.02266132 0.01572343 0.03301156 0.00376992 0.00336823 0.03252548 0.00890727 0.00151998 0.00496105 0.00131804 
0.09002136 0.06153363 0.00435821 0.00243585 0.00131780 0.00420061 0.02263180 0.01609844 0.03305155 0.00385040 0.00342149 0.03205252 0.00916622 0.00149878 0.00481592 0.00131960 
0.09026606 0.06154085 0.00467433 0.00241509 0.00129366 0.00424924 0.02258026 0.01646295 0.03307307 0.00392942 0.00347102 0.03159039 0.00942997 0.00147834 0.00467552 0.00132107 
0.09043594 0.06153549 0.00502397 0.00239548 0.00127094 0.00429683 0.02250650 0.01681545 0.03307499 0.00400663 0.00351662 0.03114133 0.00969753 0.00145875 0.00454024 0.00132245 
0.09053042 0.06151473 0.00540649 0.00237722 0.00124977 0.00434314 0.02241042 0.01715439 0.03305620 0.00408169 0.00355811 0.03070745 0.00996785 0.00144012 0.00441049 0.00132374 
0.09054914 0.06147587 0.00582114 0.00236051 0.00123028 0.00438794 0.02229202 0.01747829 0.03301569 0.00415425 0.00359530 0.03029074 0.01023985 0.00142256 0.00428660 0.00132493 
0.09049193 0.06141633 0.00626701 0.00234556 0.00121259 0.00443099 0.02215143 0.01778567 0.03295246 0.00422398 0.00362804 0.02989304 0.01051243 0.00140618 0.00416892 0.00132603 
0.09035880 0.06133367 0.00674309 0.00233256 0.00119680 0.00447208 0.02198886 0.01807510 0.03286561 0.00429058 0.00365621 0.02951604 0.01078444 0.00139106 0.00405776 0.00132703 
0.09014999 0.06122563 0.00724821 0.00232168 0.00118301 0.00451099 0.02180466 0.01834518 0.03275432 0.00435374 0.00367969 0.02916125 0.01105475 0.00137732 0.00395338 0.00132793 
0.08986592 0.06109014 0.00778110 0.00231309 0.00117130 0.00454752 0.02159925 0.01859460 0.03261782 0.00441318 0.00369841 0.02883001 0.01132219 0.00136504 0.00385606 0.00132872 
0.08950723 0.06092533 0.00834036 0.00230695 0.00116175 0.00458147 0.02137317 0.01882209 0.03245548 0.00446862 0.00371229 0.02852348 0.01158560 0.00135432 0.00376600 0.00132942 
0.08907478 0.06072954 0.00892448 0.00230341 0.00115442 0.00461265 0.02112706 0.01902645 0.03226674 0.00451982 0.00372129 0.02824262 0.01184382 0.00134524 0.00368342 0.00133001 
0.08856960 0.06050137 0.00953185 0.00230259 0.00114935 0.00464090 0.02086166 0.01920659 0.03205115 0.00456654 0.00372540 0.02798818 0.01209571 0.00133789 0.00360846 0.00133049 
0.08799296 0.06023963 0.01016075 0.00230461 0.00114659 0.00466606 0.02057779 0.01936149 0.03180838 0.00460858 0.00372462 0.02776074 0.01234013 0.00133233 0.00354128 0.00133087 
0.08734634 0.05994343 0.01080935 0.00230958 0.00114616 0.00468797 0.02027636 0.01949022 0.03153824 0.00464574 0.00371898 0.02756065 0.01257598 0.00132864 0.00348197 0.00133114 
0.08663140 0.05961212 0.01147574 0.00231757 0.00114807 0.00470650 0.01995837 0.01959198 0.03124064 0.00467786 0.00370853 0.02738806 0.01280218 0.00132687 0.00343061 0.00133130 
0.08585002 0.05924532 0.01215795 0.00232865 0.00115231 0.00472154 0.01962489 0.01966607 0.03091563 0.00470480 0.00369334 0.02724291 0.01301771 0.00132709 0.00338724 0.00133135 
0.08500425 0.05884295 0.01285391 0.00234289 0.00115887 0.00473297 0.01927706 0.01971188 0.03056342 0.00472644 0.00367351 0.02712495 0.01322157 0.00132933 0.00335188 0.00133130 
0.08409636 0.05840521 0.01356149 0.00236030 0.00116773 0.00474073 0.01891610 0.01972897 0.03018432 0.00474268 0.00364916 0.02703370 0.01341284 0.00133363 0.00332450 0.00133113 
0.08312877 0.05793256 0.01427850 0.00238091 0.00117884 0.00474472 0.01854325 0.01971699 0.02977883 0.00475346 0.00362041 0.02696851 0.01359065 0.00134001 0.00330507 0.00133086 
0.08210411 0.05742577 0.01500272 0.00240472 0.00119214 0.00474490 0.01815986 0.01967572 0.02934757 0.00475873 0.00358744 0.02692853 0.01375418 0.00134850 0.00329349 0.00133048 
0.08102513 0.05688589 0.01573186 0.00243171 0.00120758 0.00474122 0.01776727 0.01960511 0.02889131 0.00475848 0.00355041 0.02691273 0.01390270 0.00135910 0.00328966 0.00133000 
0.07989479 0.05631424 0.01646363 0.00246184 0.00122506 0.00473367 0.01736690 0.01950520 0.02841098 0.00475272 0.00350953 0.02691988 0.01403555 0.00137180 0.00329343 0.00132941 
0.07871615 0.05571241 0.01719571 0.00249506 0.00124450 0.00472223 0.01696017 0.01937619 0.02790766 0.00474147 0.00346500 0.02694862 0.01415216 0.00138659 0.00330465 0.00132871 
0.07749243 0.05508226 0.01792576 0.00253130 0.00126580 0.00470691 0.01654855 0.01921840 0.02738256 0.00472481 0.00341705 0.02699740 0.01425203 0.00140345 0.00332312 0.00132792 
0.07622695 0.05442591 0.01865145 0.00257046 0.00128885 0.00468774 0.01613350 0.01903232 0.02683706 0.00470280 0.00336593 0.02706455 0.01433476 0.00142232 0.00334860 0.00132702 
0.07492316 0.05374570 0.01937045 0.00261245 0.00131351 0.00466476 0.01571650 0.01881852 0.02627266 0.00467555 0.00331188 0.02714826 0.01440004 0.00144317 0.00338086 0.00132603 
0.07358459 0.05304423 0.02008047 0.00265714 0.00133967 0.00463803 0.01529904 0.01857776 0.02569102 0.00464320 0.00325518 0.02724659 0.01444767 0.00146593 0.00341961 0.00132494 
0.07221486 0.05232429 0.02077924 0.00270439 0.00136717 0.00460761 0.01488260 0.01831089 0.02509390 0.00460590 0.00319610 0.02735753 0.01447752 0.00149053 0.00346455 0.00132376 
0.07081764 0.05158890 0.02146451 0.00275407 0.00139588 0.00457359 0.01446864 0.01801890 0.02448322 0.00456381 0.00313494 0.02747893 0.01448957 0.00151687 0.00351536 0.00132250 
0.06939666 0.05084122 0.02213410 0.00280599 0.00142563 0.00453608 0.01405861 0.01770290 0.02386101 0.00451714 0.00307197 0.02760862 0.01448392 0.00154487 0.00357170 0.00132115 
0.06795568 0.05008460 0.02278588 0.00285998 0.00145626 0.00449517 0.01365391 0.01736411 0.02322939 0.00446609 0.00300751 0.02774432 0.01446073 0.00157441 0.00363320 0.00131973 
0.06649848 0.04932254 0.02341781 0.00291585 0.00148761 0.00445100 0.01325594 0.01700386 0.02259062 0.00441088 0.00294184 0.02788376 0.01442029 0.00160537 0.00369947 0.00131823 
0.06502883 0.04855864 0.02402788 0.00297341 0.00151951 0.00440370 0.01286604 0.01662358 0.02194701 0.00435177 0.00287529 0.02802460 0.01436297 0.00163762 0.00377012 0.00131666 
0.06355049 0.04779662 0.02461421 0.00303243 0.00155178 0.00435342 0.01248550 0.01622481 0.02130100 0.00428900 0.00280815 0.02816453 0.01428925 0.00167101 0.00384472 0.00131503 
0.06206719 0.04704026 0.02517500 0.00309270 0.00158424 0.00430031 0.01211557 0.01580916 0.02065505 0.00422286 0.00274072 0.02830121 0.01419968 0.00170540 0.00392284 0.00131335 
0.06058261 0.04629340 0.02570853 0.00315400 0.00161673 0.00424455 0.01175744 0.01537831 0.02001172 0.00415362 0.00267331 0.02843236 0.01409493 0.00174062 0.00400404 0.00131162 
0.05910035 0.04555993 0.02621321 0.00321608 0.00164905 0.00418630 0.01141224 0.01493402 0.01937360 0.00408157 0.00260621 0.02855571 0.01397571 0.00177650 0.00408785 0.00130984 
0.05762395 0.04484371 0.02668756 0.00327871 0.00168103 0.00412575 0.01108102 0.01447811 0.01874331 0.00400702 0.00253972 0.02866907 0.01384285 0.00181286 0.00417382 0.00130803 
0.05615683 0.04414861 0.02713022 0.00334165 0.00171250 0.00406308 0.01076477 0.01401243 0.01812349 0.00393027 0.00247412 0.02877030 0.01369724 0.00184951 0.00426148 0.00130620 
0.05470231 0.04347843 0.02753995 0.00340465 0.00174328 0.00399849 0.01046441 0.01353888 0.01751681 0.00385162 0.00240968 0.02885737 0.01353984 0.00188626 0.00435034 0.00130434 
0.05326358 0.04283694 0.02791566 0.00346746 0.00177320 0.00393218 0.01018075 0.01305939 0.01692590 0.00377140 0.00234666 0.02892834 0.01337167 0.00192290 0.00443993 0.00130248 
0.05184369 0.04222777 0.02825636 0.00352985 0.00180210 0.00386436 0.00991457 0.01257588 0.01635339 0.00368991 0.00228532 0.02898137 0.01319381 0.00195924 0.00452977 0.00130061 
0.05044554 0.04165448 0.02856124 0.00359156 0.00182982 0.00379521 0.00966651 0.01209032 0.01580188 0.00360746 0.00222590 0.02901477 0.01300738 0.00199506 0.00461937 0.00129876 
0.04907184 0.04112044 0.02882959 0.00365235 0.00185620 0.00372496 0.00943717 0.01160461 0.01527390 0.00352437 0.00216863 0.02902697 0.01281357 0.00203016 0.00470826 0.00129692 
0.04772515 0.04062891 0.02906088 0.00371200 0.00188110 0.00365381 0.00922702 0.01112069 0.01477193 0.00344093 0.00211370 0.02901657 0.01261356 0.00206432 0.00479597 0.00129511 
0.04640784 0.04018291 0.02925471 0.00377025 0.00190438 0.00358196 0.00903648 0.01064043 0.01429837 0.00335746 0.00206133 0.02898231 0.01240860 0.00209733 0.00488203 0.00129333 
0.04512206 0.03978530 0.02941080 0.00382690 0.00192590 0.00350963 0.00886586 0.01016568 0.01385554 0.00327423 0.00201168 0.02892311 0.01219993 0.00212897 0.00496598 0.00129160 
0.04386979 0.03943868 0.02952906 0.00388172 0.00194555 0.00343702 0.00871537 0.00969825 0.01344564 0.00319154 0.00196491 0.02883806 0.01198882 0.00215905 0.00504738 0.00128993 
0.04265278 0.03914541 0.02960950 0.00393450 0.00196322 0.00336434 0.00858515 0.00923985 0.01307077 0.00310966 0.00192117 0.02872643 0.01177654 0.00218736 0.00512579 0.00128833 
0.04147257 0.03890761 0.02965231 0.00398505 0.00197881 0.00329178 0.00847523 0.00879217 0.01273289 0.00302885 0.00188057 0.02858769 0.01156433 0.00221369 0.00520081 0.00128680 
0.04033048 0.03872708 0.02965779 0.00403317 0.00199222 0.00321954 0.00838556 0.00835678 0.01243384 0.00294936 0.00184323 0.02842149 0.01135346 0.00223786 0.00527201 0.00128536 
0.03922761 0.03860535 0.02962639 0.00407870 0.00200338 0.00314781 0.00831602 0.00793519 0.01217528 0.00287142 0.00180922 0.02822768 0.01114514 0.00225968 0.00533903 0.00128402 
0.03816486 0.03854365 0.02955868 0.00412145 0.00201223 0.00307679 0.00826637 0.00752882 0.01195874 0.00279527 0.00177861 0.02800631 0.01094057 0.00227898 0.00540150 0.00128278 
0.03714288 0.03854286 0.02945537 0.00416129 0.00201870 0.00300665 0.00823631 0.00713895 0.01178556 0.00272110 0.00175143 0.02775762 0.01074091 0.00229560 0.00545907 0.00128166 
0.03616212 0.03860355 0.02931728 0.00419808 0.00202276 0.00293757 0.00822545 0.00676680 0.01165693 0.00264910 0.00172773 0.02748205 0.01054728 0.00230938 0.00551143 0.00128067 
0.03522284 0.03872596 0.02914536 0.00423169 0.00202438 0.00286973 0.00823333 0.00641346 0.01157384 0.00257945 0.00170749 0.02718023 0.01036075 0.00232020 0.00555829 0.00127981 
0.03432505 0.03890998 0.02894066 0.00426201 0.00202355 0.00280328 0.00825940 0.00607987 0.01153708 0.00251231 0.00169071 0.02685300 0.01018232 0.00232792 0.00559937 0.00127909 
0.03346860 0.03915515 0.02870434 0.00428895 0.00202025 0.00273837 0.00830306 0.00576690 0.01154726 0.00244780 0.00167735 0.02650137 0.01001294 0.00233246 0.00563444 0.00127852 
0.03265312 0.03946067 0.02843763 0.00431244 0.00201450 0.00267517 0.00836363 0.00547527 0.01160480 0.00238606 0.00166735 0.02612653 0.00985350 0.00233371 0.00566329 0.00127811 
0.03187809 0.03982540 0.02814188 0.00433240 0.00200633 0.00261380 0.00844035 0.00520556 0.01170990 0.00232718 0.00166066 0.02572984 0.00970479 0.00233162 0.00568573 0.00127786 
0.03114280 0.04024785 0.02781851 0.00434879 0.00199576 0.00255441 0.00853244 0.00495825 0.01186258 0.00227125 0.00165718 0.02531286 0.00956754 0.00232614 0.00570161 0.00127779 
0.03044638 0.04072618 0.02746900 0.00436158 0.00198284 0.00249711 0.00863902 0.00473367 0.01206264 0.00221833 0.00165681 0.02487726 0.00944239 0.00231724 0.00571082 0.00127789 
0.02978784 0.04125825 0.02709490 0.00437075 0.00196763 0.00244202 0.00875920 0.00453203 0.01230967 0.00216847 0.00165944 0.02442491 0.00932991 0.00230493 0.00571327 0.00127818 
0.02916605 0.04184157 0.02669781 0.00437629 0.00195019 0.00238925 0.00889203 0.00435341 0.01260309 0.00212170 0.00166492 0.02395777 0.00923056 0.00228923 0.00570890 0.00127865 
0.02857975 0.04247336 0.02627938 0.00437822 0.00193062 0.00233889 0.00903650 0.00419778 0.01294211 0.00207804 0.00167312 0.02347797 0.00914471 0.00227018 0.00569769 0.00127931 
0.02802761 0.04315053 0.02584130 0.00437657 0.00190900 0.00229104 0.00919160 0.00406495 0.01332572 0.00203746 0.00168388 0.02298773 0.00907266 0.00224786 0.00567965 0.00128016 
0.02750820 0.04386972 0.02538525 0.00437137 0.00188543 0.00224577 0.00935626 0.00395466 0.01375277 0.00199997 0.00169702 0.02248937 0.00901459 0.00222237 0.00565484 0.00128121 
