0.01114150 0.01003896 0.00494981 0.00202016 0.00677810 0.00099215 0.00396209 0.00277141 0.02879808 0.00238228 0.01367735 0.00103086 0.01508911 0.04531158 0.01407687 0.00191968 
0.01108546 0.01017460 0.00496918 0.00206312 0.00690558 0.00101883 0.00403868 0.00285883 0.02909045 0.00237288 0.01384644 0.00103652 0.01529035 0.04539471 0.01413455 0.00200547 
0.01101497 0.01033729 0.00498659 0.00210729 0.00704564 0.00104783 0.00412496 0.00294853 0.02933697 0.00236179 0.01400884 0.00104142 0.01549138 0.04546171 0.01418414 0.00209068 
0.01093053 0.01052531 0.00500195 0.00215251 0.00719678 0.00107909 0.00422050 0.00304021 0.02953684 0.00234908 0.01416412 0.00104552 0.01569091 0.04551306 0.01422577 0.00217497 
0.01083275 0.01073682 0.00501517 0.00219859 0.00735750 0.00111253 0.00432483 0.00313358 0.02968951 0.00233482 0.01431190 0.00104877 0.01588766 0.04554924 0.01425964 0.00225802 
0.01072233 0.01096994 0.00502620 0.00224536 0.00752629 0.00114808 0.00443747 0.00322831 0.02979462 0.00231910 0.01445183 0.00105112 0.01608035 0.04557073 0.01428592 0.00233949 
0.01060001 0.01122272 0.00503499 0.00229264 0.00770165 0.00118564 0.00455791 0.00332408 0.02985207 0.00230203 0.01458356 0.00105255 0.01626769 0.04557798 0.01430482 0.00241905 
0.01046665 0.01149314 0.00504152 0.00234025 0.00788207 0.00122512 0.00468561 0.00342056 0.02986199 0.00228372 0.01470678 0.00105302 0.01644844 0.04557140 0.01431655 0.00249637 
0.01032313 0.01177916 0.00504580 0.00238801 0.00806607 0.00126642 0.00482003 0.00351740 0.02982475 0.00226430 0.01482122 0.00105251 0.01662140 0.04555137 0.01432132 0.00257112 
0.01017044 0.01207874 0.00504784 0.00243575 0.00825222 0.00130942 0.00496060 0.00361427 0.02974094 0.00224390 0.01492661 0.00105100 0.01678538 0.04551824 0.01431935 0.00264299 
0.01000960 0.01238977 0.00504767 0.00248329 0.00843911 0.00135401 0.00510672 0.00371081 0.02961141 0.00222267 0.01502273 0.00104850 0.01693929 0.04547231 0.01431085 0.00271167 
0.00984167 0.01271019 0.00504535 0.00253045 0.00862536 0.00140005 0.00525781 0.00380667 0.02943722 0.00220076 0.01510939 0.00104499 0.01708205 0.04541383 0.01429604 0.00277686 
0.00966778 0.01303792 0.00504093 0.00257708 0.00880968 0.00144741 0.00541326 0.00390152 0.02921965 0.00217835 0.01518643 0.00104049 0.01721269 0.04534298 0.01427514 0.00283827 
0.00948908 0.01337091 0.00503450 0.00262301 0.00899082 0.00149596 0.00557246 0.00399500 0.02896020 0.00215559 0.01525371 0.00103500 0.01733030 0.04525993 0.01424836 0.00289562 
0.00930674 0.01370714 0.00502615 0.00266808 0.00916761 0.00154556 0.00573479 0.00408679 0.02866061 0.00213267 0.01531114 0.00102855 0.01743404 0.04516475 0.01421589 0.00294866 
0.00912198 0.01404464 0.00501598 0.00271214 0.00933892 0.00159604 0.00589962 0.00417654 0.02832278 0.00210978 0.01535864 0.00102116 0.01752318 0.04505749 0.01417794 0.00299716 
0.00893601 0.01438147 0.00500410 0.00275505 0.00950375 0.00164727 0.00606636 0.00426394 0.02794883 0.00208708 0.01539619 0.00101288 0.01759709 0.04493811 0.01413467 0.00304088 
0.00875006 0.01471578 0.00499065 0.00279667 0.00966114 0.00169907 0.00623438 0.00434868 0.02754106 0.00206478 0.01542377 0.00100374 0.01765522 0.04480656 0.01408628 0.00307963 
0.00856536 0.01504576 0.00497575 0.00283686 0.00981024 0.00175130 0.00640308 0.00443045 0.02710195 0.00204307 0.01544142 0.00099379 0.01769714 0.04466271 0.01403292 0.00311324 
0.00838313 0.01536969 0.00495954 0.00287551 0.00995029 0.00180378 0.00657188 0.00450898 0.02663412 0.00202213 0.01544920 0.00098309 0.01772255 0.04450640 0.01397475 0.00314154 
0.00820458 0.01568594 0.00494216 0.00291250 0.01008061 0.00185635 0.00674017 0.00458400 0.02614035 0.00200215 0.01544720 0.00097170 0.01773123 0.04433743 0.01391191 0.00316440 
0.00803089 0.01599296 0.00492376 0.00294773 0.01020063 0.00190885 0.00690740 0.00465525 0.02562355 0.00198332 0.01543555 0.00095970 0.01772310 0.04415557 0.01384452 0.00318173 
0.00786322 0.01628932 0.00490450 0.00298110 0.01030986 0.00196109 0.00707302 0.00472250 0.02508675 0.00196583 0.01541439 0.00094714 0.01769820 0.04396056 0.01377271 0.00319344 
0.00770272 0.01657367 0.00488452 0.00301252 0.01040792 0.00201292 0.00723650 0.00478555 0.02453307 0.00194985 0.01538392 0.00093411 0.01765667 0.04375212 0.01369659 0.00319949 
0.00755045 0.01684479 0.00486397 0.00304191 0.01049450 0.00206416 0.00739733 0.00484421 0.02396574 0.00193555 0.01534434 0.00092070 0.01759880 0.04352998 0.01361627 0.00319985 
0.00740746 0.01710154 0.00484301 0.00306921 0.01056943 0.00211464 0.00755502 0.00489831 0.02338802 0.00192310 0.01529589 0.00090698 0.01752498 0.04329387 0.01353185 0.00319454 
0.00727475 0.01734295 0.00482179 0.00309435 0.01063259 0.00216420 0.00770911 0.00494771 0.02280326 0.00191266 0.01523883 0.00089305 0.01743572 0.04304351 0.01344342 0.00318358 
0.00715325 0.01756812 0.00480044 0.00311728 0.01068396 0.00221266 0.00785918 0.00499229 0.02221482 0.00190437 0.01517347 0.00087901 0.01733165 0.04277869 0.01335108 0.00316706 
0.00704383 0.01777630 0.00477912 0.00313797 0.01072362 0.00225987 0.00800482 0.00503198 0.02162609 0.00189837 0.01510010 0.00086495 0.01721352 0.04249921 0.01325491 0.00314507 
0.00694729 0.01796687 0.00475796 0.00315637 0.01075172 0.00230567 0.00814565 0.00506669 0.02104045 0.00189478 0.01501908 0.00085096 0.01708217 0.04220493 0.01315503 0.00311773 
0.00686438 0.01813930 0.00473710 0.00317247 0.01076849 0.00234988 0.00828135 0.00509641 0.02046125 0.00189371 0.01493074 0.00083714 0.01693857 0.04189578 0.01305153 0.00308521 
0.00679576 0.01829323 0.00471664 0.00318625 0.01077425 0.00239238 0.00841159 0.00512111 0.01989182 0.00189526 0.01483548 0.00082359 0.01678377 0.04157177 0.01294454 0.00304769 
0.00674201 0.01842839 0.00469672 0.00319771 0.01076938 0.00243300 0.00853611 0.00514082 0.01933542 0.00189951 0.01473367 0.00081042 0.01661891 0.04123301 0.01283417 0.00300539 
0.00670364 0.01854466 0.00467743 0.00320684 0.01075430 0.00247160 0.00865467 0.00515558 0.01879524 0.00190653 0.01462574 0.00079771 0.01644524 0.04087969 0.01272057 0.00295856 
0.00668108 0.01864202 0.00465889 0.00321365 0.01072953 0.00250806 0.00876705 0.00516548 0.01827438 0.00191637 0.01451210 0.00078557 0.01626407 0.04051217 0.01260391 0.00290746 
0.00667466 0.01872058 0.00464117 0.00321817 0.01069562 0.00254223 0.00887308 0.00517060 0.01777582 0.00192906 0.01439319 0.00077408 0.01607677 0.04013090 0.01248437 0.00285240 
0.00668465 0.01878057 0.00462437 0.00322041 0.01065316 0.00257400 0.00897262 0.00517108 0.01730241 0.00194462 0.01426946 0.00076334 0.01588480 0.03973650 0.01236217 0.00279371 
0.00671121 0.01882232 0.00460855 0.00322041 0.01060279 0.00260326 0.00906558 0.00516707 0.01685689 0.00196305 0.01414135 0.00075343 0.01568965 0.03932975 0.01223755 0.00273173 
0.00675442 0.01884628 0.00459378 0.00321821 0.01054519 0.00262989 0.00915186 0.00515874 0.01644181 0.00198432 0.01400933 0.00074444 0.01549287 0.03891160 0.01211078 0.00266684 
0.00681430 0.01885301 0.00458011 0.00321385 0.01048104 0.00265380 0.00923144 0.00514631 0.01605954 0.00200841 0.01387385 0.00073644 0.01529604 0.03848316 0.01198218 0.00259943 
0.00689075 0.01884315 0.00456757 0.00320738 0.01041106 0.00267490 0.00930431 0.00512999 0.01571230 0.00203525 0.01373539 0.00072952 0.01510074 0.03804576 0.01185211 0.00252991 
0.00698360 0.01881744 0.00455622 0.00319885 0.01033599 0.00269311 0.00937048 0.00511002 0.01540208 0.00206477 0.01359441 0.00072372 0.01490860 0.03760092 0.01172094 0.00245871 
0.00709262 0.01877670 0.00454606 0.00318833 0.01025654 0.00270837 0.00943000 0.00508668 0.01513066 0.00209689 0.01345137 0.00071913 0.01472124 0.03715034 0.01158912 0.00238629 
0.00721745 0.01872185 0.00453711 0.00317588 0.01017347 0.00272061 0.00948296 0.00506025 0.01489960 0.00213149 0.01330675 0.00071579 0.01454025 0.03669596 0.01145713 0.00231310 
0.00735771 0.01865386 0.00452938 0.00316156 0.01008749 0.00272978 0.00952944 0.00503103 0.01471025 0.00216844 0.01316098 0.00071374 0.01436723 0.03623991 0.01132549 0.00223961 
0.00751291 0.01857377 0.00452286 0.00314546 0.00999931 0.00273586 0.00956959 0.00499934 0.01456369 0.00220761 0.01301452 0.00071304 0.01420374 0.03578455 0.01119479 0.00216631 
0.00768249 0.01848268 0.00451754 0.00312764 0.00990963 0.00273880 0.00960354 0.00496550 0.01446075 0.00224884 0.01286782 0.00071370 0.01405130 0.03533243 0.01106563 0.00209369 
0.00786585 0.01838175 0.00451340 0.00310818 0.00981913 0.00273859 0.00963146 0.00492986 0.01440204 0.00229194 0.01272129 0.00071576 0.01391138 0.03488632 0.01093871 0.00202223 
0.00806231 0.01827215 0.00451041 0.00308717 0.00972843 0.00273524 0.00965354 0.00489276 0.01438787 0.00233675 0.01257536 0.00071923 0.01378541 0.03444919 0.01081472 0.00195244 
0.00827112 0.01815512 0.00450854 0.00306467 0.00963816 0.00272873 0.00966999 0.00485457 0.01441831 0.00238304 0.01243042 0.00072413 0.01367472 0.03402420 0.01069445 0.00188481 
0.00849150 0.01803189 0.00450774 0.00304079 0.00954887 0.00271911 0.00968100 0.00481565 0.01449317 0.00243061 0.01228687 0.00073044 0.01358058 0.03361469 0.01057869 0.00181983 
0.00872261 0.01790372 0.00450797 0.00301560 0.00946110 0.00270638 0.00968682 0.00477635 0.01461199 0.00247924 0.01214508 0.00073816 0.01350418 0.03322418 0.01046831 0.00175798 
0.00896358 0.01777188 0.00450917 0.00298919 0.00937532 0.00269059 0.00968767 0.00473705 0.01477404 0.00252868 0.01200539 0.00074727 0.01344660 0.03285636 0.01036419 0.00169975 
0.00921348 0.01763764 0.00451130 0.00296164 0.00929197 0.00267180 0.00968379 0.00469812 0.01497835 0.00257870 0.01186814 0.00075775 0.01340883 0.03251503 0.01026726 0.00164561 
0.00947138 0.01750223 0.00451428 0.00293305 0.00921143 0.00265007 0.00967544 0.00465990 0.01522367 0.00262905 0.01173364 0.00076957 0.01339176 0.03220413 0.01017848 0.00159601 
0.00973629 0.01736690 0.00451805 0.00290349 0.00913402 0.00262546 0.00966286 0.00462276 0.01550852 0.00267946 0.01160218 0.00078267 0.01339615 0.03192771 0.01009884 0.00155138 
0.01000724 0.01723285 0.00452254 0.00287305 0.00906003 0.00259806 0.00964631 0.00458705 0.01583117 0.00272969 0.01147404 0.00079702 0.01342265 0.03168987 0.01002934 0.00151215 
0.01028321 0.01710124 0.00452769 0.00284181 0.00898968 0.00256797 0.00962602 0.00455310 0.01618967 0.00277945 0.01134944 0.00081255 0.01347177 0.03149478 0.00997100 0.00147871 
0.01056320 0.01697321 0.00453341 0.00280987 0.00892311 0.00253529 0.00960225 0.00452124 0.01658183 0.00282850 0.01122863 0.00082920 0.01354393 0.03134664 0.00992487 0.00145145 
0.01084621 0.01684981 0.00453964 0.00277730 0.00886046 0.00250013 0.00957523 0.00449178 0.01700525 0.00287657 0.01111178 0.00084690 0.01363937 0.03124964 0.00989196 0.00143071 
0.01113122 0.01673207 0.00454630 0.00274419 0.00880176 0.00246261 0.00954520 0.00446502 0.01745734 0.00292340 0.01099908 0.00086557 0.01375824 0.03120793 0.00987332 0.00141681 
0.01141725 0.01662093 0.00455331 0.00271060 0.00874702 0.00242287 0.00951238 0.00444123 0.01793532 0.00296872 0.01089068 0.00088513 0.01390054 0.03122561 0.00986995 0.00141005 
0.01170332 0.01651726 0.00456060 0.00267663 0.00869618 0.00238105 0.00947700 0.00442069 0.01843625 0.00301230 0.01078669 0.00090548 0.01406613 0.03130667 0.00988286 0.00141068 
0.01198849 0.01642188 0.00456810 0.00264234 0.00864915 0.00233729 0.00943926 0.00440363 0.01895703 0.00305388 0.01068722 0.00092655 0.01425475 0.03145497 0.00991301 0.00141893 
0.01227183 0.01633549 0.00457572 0.00260780 0.00860577 0.00229174 0.00939934 0.00439027 0.01949443 0.00309324 0.01059234 0.00094821 0.01446600 0.03167422 0.00996132 0.00143498 
0.01255247 0.01625872 0.00458340 0.00257310 0.00856585 0.00224457 0.00935744 0.00438082 0.02004510 0.00313015 0.01050211 0.00097039 0.01469935 0.03196792 0.01002867 0.00145899 
0.01282955 0.01619211 0.00459107 0.00253829 0.00852915 0.00219594 0.00931373 0.00437544 0.02060559 0.00316440 0.01041654 0.00099296 0.01495415 0.03233934 0.01011590 0.00149107 
0.01310229 0.01613611 0.00459866 0.00250344 0.00849540 0.00214602 0.00926836 0.00437429 0.02117237 0.00319580 0.01033566 0.00101583 0.01522963 0.03279149 0.01022376 0.00153128 
0.01336992 0.01609106 0.00460609 0.00246862 0.00846427 0.00209499 0.00922147 0.00437749 0.02174188 0.00322416 0.01025943 0.00103889 0.01552489 0.03332709 0.01035293 0.00157966 
0.01363175 0.01605719 0.00461331 0.00243388 0.00843544 0.00204302 0.00917320 0.00438514 0.02231049 0.00324933 0.01018783 0.00106202 0.01583892 0.03394850 0.01050403 0.00163618 
0.01388715 0.01603467 0.00462024 0.00239929 0.00840853 0.00199031 0.00912366 0.00439733 0.02287457 0.00327116 0.01012080 0.00108512 0.01617063 0.03465773 0.01067757 0.00170078 
0.01413554 0.01602353 0.00462684 0.00236488 0.00838314 0.00193703 0.00907296 0.00441409 0.02343051 0.00328953 0.01005826 0.00110808 0.01651879 0.03545643 0.01087396 0.00177337 
0.01437641 0.01602370 0.00463304 0.00233073 0.00835887 0.00188338 0.00902118 0.00443545 0.02397472 0.00330433 0.01000013 0.00113080 0.01688212 0.03634578 0.01109351 0.00185378 
0.01460931 0.01603504 0.00463879 0.00229687 0.00833530 0.00182953 0.00896841 0.00446141 0.02450365 0.00331549 0.00994629 0.00115315 0.01725921 0.03732654 0.01133643 0.00194183 
0.01483386 0.01605727 0.00464404 0.00226336 0.00831198 0.00177567 0.00891471 0.00449193 0.02501384 0.00332296 0.00989664 0.00117505 0.01764862 0.03839901 0.01160278 0.00203727 
0.01504976 0.01609004 0.00464874 0.00223023 0.00828849 0.00172200 0.00886013 0.00452698 0.02550192 0.00332669 0.00985104 0.00119639 0.01804882 0.03956297 0.01189253 0.00213981 
0.01525678 0.01613290 0.00465284 0.00219752 0.00826438 0.00166869 0.00880473 0.00456646 0.02596464 0.00332668 0.00980935 0.00121707 0.01845823 0.04081770 0.01220548 0.00224911 
0.01545475 0.01618529 0.00465630 0.00216528 0.00823921 0.00161593 0.00874854 0.00461028 0.02639887 0.00332297 0.00977141 0.00123701 0.01887522 0.04216198 0.01254134 0.00236481 
0.01564359 0.01624659 0.00465908 0.00213353 0.00821257 0.00156390 0.00869158 0.00465832 0.02680165 0.00331558 0.00973709 0.00125611 0.01929812 0.04359401 0.01289963 0.00248648 
0.01582328 0.01631608 0.00466115 0.00210231 0.00818403 0.00151276 0.00863389 0.00471042 0.02717020 0.00330459 0.00970620 0.00127430 0.01972523 0.04511148 0.01327977 0.00261365 
0.01599387 0.01639297 0.00466247 0.00207165 0.00815320 0.00146271 0.00857548 0.00476644 0.02750191 0.00329011 0.00967860 0.00129150 0.02015486 0.04671150 0.01368103 0.00274582 
0.01615548 0.01647639 0.00466300 0.00204158 0.00811970 0.00141389 0.00851637 0.00482617 0.02779441 0.00327227 0.00965412 0.00130764 0.02058527 0.04839064 0.01410250 0.00288245 
0.01630832 0.01656540 0.00466274 0.00201211 0.00808319 0.00136647 0.00845656 0.00488941 0.02804552 0.00325121 0.00963260 0.00132265 0.02101476 0.05014492 0.01454318 0.00302295 
0.01645263 0.01665903 0.00466164 0.00198327 0.00804332 0.00132060 0.00839607 0.00495596 0.02825333 0.00322712 0.00961388 0.00133649 0.02144163 0.05196982 0.01500189 0.00316671 
0.01658873 0.01675623 0.00465969 0.00195509 0.00799982 0.00127643 0.00833490 0.00502558 0.02841616 0.00320020 0.00959781 0.00134911 0.02186418 0.05386026 0.01547731 0.00331308 
0.01671701 0.01685592 0.00465687 0.00192757 0.00795242 0.00123409 0.00827307 0.00509801 0.02853261 0.00317069 0.00958425 0.00136046 0.02228079 0.05581066 0.01596800 0.00346137 
0.01683789 0.01695697 0.00465316 0.00190074 0.00790089 0.00119372 0.00821059 0.00517300 0.02860154 0.00313885 0.00957305 0.00137053 0.02268985 0.05781494 0.01647239 0.00361087 
0.01695185 0.01705825 0.00464854 0.00187461 0.00784505 0.00115544 0.00814748 0.00525029 0.02862209 0.00310495 0.00956410 0.00137928 0.02308979 0.05986652 0.01698877 0.00376086 
0.01705943 0.01715859 0.00464302 0.00184918 0.00778474 0.00111935 0.00808377 0.00532959 0.02859372 0.00306931 0.00955727 0.00138671 0.02347914 0.06195839 0.01751530 0.00391056 
0.01716118 0.01725680 0.00463657 0.00182448 0.00771986 0.00108557 0.00801948 0.00541063 0.02851613 0.00303224 0.00955247 0.00139280 0.02385646 0.06408309 0.01805006 0.00405922 
0.01725771 0.01735172 0.00462919 0.00180051 0.00765034 0.00105417 0.00795464 0.00549311 0.02838936 0.00299410 0.00954961 0.00139756 0.02422041 0.06623278 0.01859100 0.00420604 
0.01734965 0.01744217 0.00462088 0.00177728 0.00757616 0.00102525 0.00788931 0.00557675 0.02821372 0.00295524 0.00954863 0.00140102 0.02456971 0.06839928 0.01913598 0.00435022 
0.01743765 0.01752700 0.00461164 0.00175479 0.00749735 0.00099887 0.00782354 0.00566125 0.02798984 0.00291606 0.00954946 0.00140317 0.02490319 0.07057406 0.01968280 0.00449096 
0.01752238 0.01760508 0.00460146 0.00173306 0.00741396 0.00097509 0.00775739 0.00574633 0.02771861 0.00287693 0.00955207 0.00140406 0.02521976 0.07274836 0.02022915 0.00462744 
0.01760451 0.01767530 0.00459035 0.00171208 0.00732611 0.00095396 0.00769094 0.00583168 0.02740123 0.00283828 0.00955644 0.00140373 0.02551844 0.07491316 0.02077270 0.00475886 
0.01768471 0.01773662 0.00457832 0.00169187 0.00723395 0.00093552 0.00762426 0.00591704 0.02703919 0.00280051 0.00956258 0.00140221 0.02579835 0.07705929 0.02131104 0.00488442 
0.01776368 0.01778803 0.00456537 0.00167242 0.00713766 0.00091979 0.00755747 0.00600210 0.02663424 0.00276406 0.00957049 0.00139956 0.02605872 0.07917743 0.02184174 0.00500333 
0.01784205 0.01782858 0.00455151 0.00165374 0.00703749 0.00090678 0.00749065 0.00608661 0.02618838 0.00272936 0.00958022 0.00139585 0.02629888 0.08125821 0.02236238 0.00511482 
0.01792049 0.01785737 0.00453676 0.00163583 0.00693370 0.00089650 0.00742394 0.00617028 0.02570390 0.00269683 0.00959181 0.00139113 0.02651829 0.08329222 0.02287048 0.00521812 
0.01799960 0.01787359 0.00452112 0.00161870 0.00682661 0.00088894 0.00735747 0.00625286 0.02518329 0.00266692 0.00960535 0.00138548 0.02671652 0.08527010 0.02336362 0.00531252 
0.01807998 0.01787651 0.00450461 0.00160235 0.00671655 0.00088407 0.00729137 0.00633409 0.02462929 0.00264006 0.00962091 0.00137897 0.02689324 0.08718259 0.02383939 0.00539730 
0.01816217 0.01786547 0.00448726 0.00158677 0.00660392 0.00088187 0.00722580 0.00641375 0.02404484 0.00261668 0.00963859 0.00137170 0.02704826 0.08902054 0.02429540 0.00547180 
0.01824667 0.01783990 0.00446907 0.00157198 0.00648911 0.00088229 0.00716092 0.00649159 0.02343306 0.00259720 0.00965852 0.00136375 0.02718150 0.09077506 0.02472935 0.00553539 
0.01833394 0.01779932 0.00445008 0.00155797 0.00637256 0.00088528 0.00709691 0.00656741 0.02279726 0.00258202 0.00968082 0.00135521 0.02729298 0.09243746 0.02513900 0.00558750 
0.01842437 0.01774336 0.00443030 0.00154476 0.00625474 0.00089077 0.00703395 0.00664099 0.02214089 0.00257155 0.00970563 0.00134618 0.02738285 0.09399942 0.02552218 0.00562758 
0.01851829 0.01767174 0.00440976 0.00153233 0.00613614 0.00089869 0.00697223 0.00671215 0.02146753 0.00256616 0.00973310 0.00133675 0.02745136 0.09545296 0.02587684 0.00565514 
0.01861599 0.01758429 0.00438848 0.00152070 0.00601725 0.00090897 0.00691196 0.00678072 0.02078086 0.00256623 0.00976338 0.00132703 0.02749886 0.09679053 0.02620105 0.00566978 
0.01871765 0.01748094 0.00436649 0.00150987 0.00589859 0.00092149 0.00685334 0.00684653 0.02008467 0.00257208 0.00979665 0.00131712 0.02752583 0.09800503 0.02649299 0.00567111 
0.01882339 0.01736172 0.00434383 0.00149984 0.00578071 0.00093617 0.00679658 0.00690943 0.01938279 0.00258405 0.00983305 0.00130712 0.02753281 0.09908992 0.02675098 0.00565884 
0.01893328 0.01722679 0.00432052 0.00149061 0.00566414 0.00095290 0.00674190 0.00696930 0.01867909 0.00260241 0.00987276 0.00129713 0.02752046 0.10003920 0.02697352 0.00563274 
0.01904726 0.01707640 0.00429659 0.00148220 0.00554943 0.00097156 0.00668951 0.00702601 0.01797746 0.00262744 0.00991594 0.00128726 0.02748952 0.10084746 0.02715925 0.00559265 
0.01916524 0.01691090 0.00427208 0.00147460 0.00543715 0.00099202 0.00663966 0.00707946 0.01728179 0.00265936 0.00996275 0.00127760 0.02744082 0.10150996 0.02730699 0.00553849 
0.01928700 0.01673076 0.00424702 0.00146782 0.00532783 0.00101417 0.00659254 0.00712956 0.01659591 0.00269838 0.01001332 0.00126826 0.02737526 0.10202263 0.02741574 0.00547026 
0.01941228 0.01653655 0.00422144 0.00146186 0.00522204 0.00103785 0.00654840 0.00717624 0.01592362 0.00274465 0.01006782 0.00125932 0.02729380 0.10238210 0.02748471 0.00538803 
0.01954070 0.01632893 0.00419539 0.00145673 0.00512032 0.00106294 0.00650744 0.00721943 0.01526861 0.00279831 0.01012635 0.00125088 0.02719748 0.10258574 0.02751328 0.00529198 
0.01967183 0.01610866 0.00416888 0.00145243 0.00502321 0.00108928 0.00646989 0.00725910 0.01463450 0.00285944 0.01018904 0.00124304 0.02708739 0.10263167 0.02750106 0.00518234 
0.01980513 0.01587661 0.00414197 0.00144896 0.00493123 0.00111674 0.00643597 0.00729520 0.01402476 0.00292810 0.01025598 0.00123586 0.02696465 0.10251880 0.02744785 0.00505946 
0.01994001 0.01563371 0.00411469 0.00144632 0.00484488 0.00114516 0.00640586 0.00732771 0.01344270 0.00300429 0.01032725 0.00122943 0.02683045 0.10224679 0.02735368 0.00492376 
0.02007578 0.01538098 0.00408707 0.00144453 0.00476467 0.00117439 0.00637979 0.00735663 0.01289149 0.00308797 0.01040289 0.00122382 0.02668601 0.10181613 0.02721875 0.00477576 
0.02021169 0.01511952 0.00405915 0.00144357 0.00469107 0.00120428 0.00635793 0.00738196 0.01237410 0.00317907 0.01048294 0.00121910 0.02653255 0.10122807 0.02704353 0.00461607 
0.02034694 0.01485051 0.00403097 0.00144345 0.00462453 0.00123467 0.00634047 0.00740370 0.01189328 0.00327747 0.01056739 0.00121533 0.02637133 0.10048465 0.02682865 0.00444538 
0.02048063 0.01457516 0.00400255 0.00144417 0.00456548 0.00126542 0.00632758 0.00742189 0.01145156 0.00338300 0.01065623 0.00121256 0.02620362 0.09958872 0.02657498 0.00426447 
0.02061185 0.01429477 0.00397394 0.00144572 0.00451432 0.00129636 0.00631942 0.00743656 0.01105125 0.00349547 0.01074940 0.00121083 0.02603070 0.09854387 0.02628358 0.00407421 
0.02073960 0.01401066 0.00394517 0.00144810 0.00447144 0.00132735 0.00631613 0.00744775 0.01069437 0.00361461 0.01084680 0.00121018 0.02585382 0.09735444 0.02595570 0.00387558 
0.02086286 0.01372420 0.00391628 0.00145131 0.00443717 0.00135825 0.00631785 0.00745550 0.01038270 0.00374014 0.01094832 0.00121064 0.02567425 0.09602551 0.02559278 0.00366960 
0.02098058 0.01343679 0.00388728 0.00145533 0.00441183 0.00138890 0.00632468 0.00745989 0.01011774 0.00387173 0.01105382 0.00121223 0.02549324 0.09456283 0.02519647 0.00345741 
0.02109167 0.01314986 0.00385822 0.00146016 0.00439572 0.00141917 0.00633674 0.00746096 0.00990068 0.00400900 0.01116310 0.00121497 0.02531199 0.09297285 0.02476856 0.00324021 
0.02119502 0.01286483 0.00382913 0.00146578 0.00438910 0.00144892 0.00635411 0.00745880 0.00973243 0.00415153 0.01127596 0.00121886 0.02513171 0.09126261 0.02431102 0.00301927 
0.02128952 0.01258315 0.00380002 0.00147218 0.00439217 0.00147802 0.00637685 0.00745348 0.00961362 0.00429888 0.01139214 0.00122390 0.02495354 0.08943977 0.02382595 0.00279594 
0.02137406 0.01230625 0.00377093 0.00147934 0.00440515 0.00150635 0.00640503 0.00744507 0.00954453 0.00445056 0.01151136 0.00123007 0.02477860 0.08751252 0.02331561 0.00257164 
0.02144753 0.01203554 0.00374189 0.00148724 0.00442818 0.00153378 0.00643867 0.00743368 0.00952518 0.00460606 0.01163332 0.00123736 0.02460796 0.08548952 0.02278237 0.00234783 
0.02150884 0.01177243 0.00371291 0.00149586 0.00446139 0.00156021 0.00647780 0.00741938 0.00955526 0.00476481 0.01175768 0.00124573 0.02444265 0.08337992 0.02222871 0.00212604 
0.02155692 0.01151828 0.00368401 0.00150517 0.00450489 0.00158554 0.00652241 0.00740226 0.00963416 0.00492625 0.01188407 0.00125516 0.02428363 0.08119321 0.02165720 0.00190785 
0.02159075 0.01127441 0.00365522 0.00151515 0.00455873 0.00160966 0.00657250 0.00738244 0.00976097 0.00508977 0.01201209 0.00126560 0.02413182 0.07893926 0.02107049 0.00169487 
0.02160935 0.01104210 0.00362654 0.00152576 0.00462294 0.00163249 0.00662803 0.00735999 0.00993450 0.00525473 0.01214133 0.00127699 0.02398807 0.07662818 0.02047131 0.00148874 
0.02161180 0.01082258 0.00359800 0.00153697 0.00469753 0.00165395 0.00668896 0.00733502 0.01015326 0.00542051 0.01227137 0.00128929 0.02385316 0.07427032 0.01986239 0.00129115 
0.02159721 0.01061699 0.00356961 0.00154873 0.00478246 0.00167397 0.00675522 0.00730764 0.01041551 0.00558642 0.01240174 0.00130242 0.02372782 0.07187616 0.01924653 0.00110378 
0.02156482 0.01042644 0.00354138 0.00156102 0.00487769 0.00169248 0.00682674 0.00727794 0.01071921 0.00575181 0.01253199 0.00131633 0.02361271 0.06945629 0.01862651 0.00092834 
0.02151389 0.01025192 0.00351332 0.00157378 0.00498312 0.00170944 0.00690343 0.00724602 0.01106211 0.00591597 0.01266164 0.00133093 0.02350842 0.06702134 0.01800514 0.00076653 
0.02144380 0.01009436 0.00348543 0.00158697 0.00509864 0.00172481 0.00698518 0.00721200 0.01144170 0.00607824 0.01279020 0.00134614 0.02341547 0.06458190 0.01738516 0.00062004 
0.02135402 0.00995459 0.00345771 0.00160054 0.00522412 0.00173855 0.00707189 0.00717596 0.01185527 0.00623790 0.01291721 0.00136189 0.02333431 0.06214848 0.01676929 0.00049055 
0.02124413 0.00983336 0.00343018 0.00161443 0.00535940 0.00175063 0.00716342 0.00713803 0.01229988 0.00639428 0.01304218 0.00137808 0.02326532 0.05973142 0.01616022 0.00037972 
0.02111379 0.00973129 0.00340284 0.00162860 0.00550429 0.00176106 0.00725965 0.00709829 0.01277245 0.00654670 0.01316463 0.00139462 0.02320882 0.05734088 0.01556052 0.00028915 
0.02096281 0.00964894 0.00337567 0.00164298 0.00565858 0.00176982 0.00736042 0.00705685 0.01326972 0.00669447 0.01328411 0.00141142 0.02316505 0.05498674 0.01497271 0.00022043 
0.02079107 0.00958671 0.00334869 0.00165751 0.00582206 0.00177691 0.00746558 0.00701382 0.01378828 0.00683695 0.01340018 0.00142839 0.02313419 0.05267856 0.01439919 0.00017505 
0.02059861 0.00954494 0.00332189 0.00167214 0.00599446 0.00178237 0.00757499 0.00696929 0.01432461 0.00697348 0.01351241 0.00144543 0.02311635 0.05042555 0.01384225 0.00015448 
0.02038559 0.00952383 0.00329526 0.00168680 0.00617554 0.00178620 0.00768847 0.00692337 0.01487512 0.00710346 0.01362040 0.00146243 0.02311157 0.04823649 0.01330405 0.00016009 
0.02015227 0.00952346 0.00326880 0.00170143 0.00636501 0.00178846 0.00780587 0.00687615 0.01543611 0.00722627 0.01372379 0.00147932 0.02311985 0.04611968 0.01278661 0.00019317 
0.01989906 0.00954381 0.00324250 0.00171597 0.00656258 0.00178917 0.00792700 0.00682774 0.01600387 0.00734137 0.01382224 0.00149599 0.02314111 0.04408295 0.01229180 0.00025491 
0.01962650 0.00958475 0.00321635 0.00173034 0.00676794 0.00178839 0.00805171 0.00677824 0.01657465 0.00744821 0.01391546 0.00151235 0.02317522 0.04213357 0.01182133 0.00034643 
0.01933524 0.00964604 0.00319035 0.00174448 0.00698075 0.00178619 0.00817983 0.00672774 0.01714469 0.00754630 0.01400320 0.00152830 0.02322198 0.04027821 0.01137676 0.00046869 
0.01902607 0.00972729 0.00316450 0.00175833 0.00720070 0.00178263 0.00831118 0.00667635 0.01771029 0.00763516 0.01408525 0.00154376 0.02328116 0.03852296 0.01095944 0.00062257 
0.01869989 0.00982806 0.00313877 0.00177182 0.00742744 0.00177778 0.00844560 0.00662415 0.01826777 0.00771438 0.01416145 0.00155864 0.02335246 0.03687328 0.01057056 0.00080882 
0.01835773 0.00994776 0.00311317 0.00178489 0.00766060 0.00177173 0.00858293 0.00657125 0.01881354 0.00778359 0.01423172 0.00157287 0.02343554 0.03533396 0.01021113 0.00102803 
0.01800074 0.01008571 0.00308769 0.00179748 0.00789981 0.00176457 0.00872301 0.00651775 0.01934412 0.00784244 0.01429599 0.00158636 0.02353003 0.03390911 0.00988195 0.00128068 
0.01763017 0.01024113 0.00306231 0.00180953 0.00814471 0.00175639 0.00886569 0.00646372 0.01985612 0.00789066 0.01435428 0.00159905 0.02363549 0.03260218 0.00958366 0.00156709 
0.01724739 0.01041317 0.00303704 0.00182097 0.00839490 0.00174728 0.00901082 0.00640928 0.02034633 0.00792800 0.01440666 0.00161087 0.02375147 0.03141590 0.00931669 0.00188743 
0.01685384 0.01060085 0.00301187 0.00183176 0.00864998 0.00173737 0.00915827 0.00635451 0.02081168 0.00795429 0.01445328 0.00162175 0.02387746 0.03035234 0.00908128 0.00224170 
0.01645108 0.01080315 0.00298679 0.00184183 0.00890956 0.00172674 0.00930789 0.00629951 0.02124928 0.00796938 0.01449432 0.00163165 0.02401293 0.02941283 0.00887748 0.00262976 
0.01604073 0.01101896 0.00296180 0.00185116 0.00917321 0.00171552 0.00945956 0.00624437 0.02165646 0.00797321 0.01453004 0.00164051 0.02415733 0.02859806 0.00870517 0.00305129 
0.01562451 0.01124709 0.00293691 0.00185968 0.00944052 0.00170381 0.00961317 0.00618919 0.02203077 0.00796575 0.01456078 0.00164831 0.02431006 0.02790800 0.00856405 0.00350582 
0.01520419 0.01148632 0.00291211 0.00186736 0.00971105 0.00169174 0.00976859 0.00613404 0.02236998 0.00794702 0.01458690 0.00165500 0.02447051 0.02734199 0.00845362 0.00399270 
0.01478158 0.01173535 0.00288740 0.00187418 0.00998436 0.00167942 0.00992574 0.00607903 0.02267212 0.00791712 0.01460887 0.00166056 0.02463805 0.02689871 0.00837325 0.00451110 
0.01435855 0.01199285 0.00286279 0.00188009 0.01026000 0.00166698 0.01008451 0.00602424 0.02293550 0.00787617 0.01462718 0.00166497 0.02481203 0.02657620 0.00832213 0.00506006 
0.01393701 0.01225748 0.00283829 0.00188507 0.01053750 0.00165453 0.01024481 0.00596976 0.02315867 0.00782436 0.01464240 0.00166822 0.02499178 0.02637193 0.00829930 0.00563841 
0.01351886 0.01252783 0.00281391 0.00188912 0.01081641 0.00164218 0.01040656 0.00591567 0.02334049 0.00776195 0.01465514 0.00167031 0.02517662 0.02628279 0.00830366 0.00624484 
0.01310604 0.01280251 0.00278966 0.00189221 0.01109623 0.00163006 0.01056968 0.00586207 0.02348010 0.00768922 0.01466606 0.00167124 0.02536585 0.02630513 0.00833400 0.00687788 
0.01270049 0.01308012 0.00276556 0.00189435 0.01137649 0.00161829 0.01073410 0.00580904 0.02357694 0.00760651 0.01467588 0.00167102 0.02555878 0.02643481 0.00838896 0.00753589 
0.01230410 0.01335926 0.00274162 0.00189554 0.01165666 0.00160697 0.01089976 0.00575667 0.02363075 0.00751421 0.01468535 0.00166968 0.02575470 0.02666722 0.00846710 0.00821709 
0.01191876 0.01363854 0.00271786 0.00189578 0.01193625 0.00159622 0.01106658 0.00570502 0.02364157 0.00741276 0.01469525 0.00166723 0.02595289 0.02699731 0.00856688 0.00891954 
0.01154633 0.01391660 0.00269432 0.00189510 0.01221472 0.00158614 0.01123451 0.00565419 0.02360975 0.00730264 0.01470640 0.00166371 0.02615264 0.02741969 0.00868667 0.00964119 
0.01118859 0.01419210 0.00267102 0.00189352 0.01249154 0.00157684 0.01140347 0.00560426 0.02353592 0.00718435 0.01471965 0.00165916 0.02635323 0.02792858 0.00882478 0.01037984 
0.01084728 0.01446377 0.00264799 0.00189107 0.01276616 0.00156841 0.01157342 0.00555529 0.02342102 0.00705847 0.01473583 0.00165362 0.02655396 0.02851794 0.00897946 0.01113317 
0.01052406 0.01473037 0.00262526 0.00188779 0.01303803 0.00156094 0.01174428 0.00550737 0.02326627 0.00692557 0.01475584 0.00164713 0.02675411 0.02918147 0.00914893 0.01189875 
0.01022051 0.01499072 0.00260287 0.00188373 0.01330656 0.00155453 0.01191597 0.00546057 0.02307319 0.00678627 0.01478052 0.00163977 0.02695297 0.02991266 0.00933137 0.01267405 
0.00993810 0.01524371 0.00258086 0.00187894 0.01357119 0.00154925 0.01208844 0.00541496 0.02284355 0.00664122 0.01481076 0.00163158 0.02714985 0.03070486 0.00952496 0.01345647 
0.00967821 0.01548831 0.00255928 0.00187348 0.01383131 0.00154517 0.01226159 0.00537060 0.02257938 0.00649109 0.01484739 0.00162262 0.02734405 0.03155129 0.00972786 0.01424331 
0.00944209 0.01572358 0.00253817 0.00186742 0.01408632 0.00154237 0.01243534 0.00532757 0.02228296 0.00633656 0.01489126 0.00161297 0.02753491 0.03244512 0.00993826 0.01503182 
0.00923089 0.01594866 0.00251758 0.00186083 0.01433562 0.00154089 0.01260958 0.00528592 0.02195682 0.00617835 0.01494317 0.00160269 0.02772174 0.03337948 0.01015437 0.01581920 
0.00904561 0.01616278 0.00249756 0.00185379 0.01457859 0.00154080 0.01278420 0.00524572 0.02160367 0.00601715 0.01500387 0.00159186 0.02790389 0.03434754 0.01037442 0.01660261 
0.00888710 0.01636528 0.00247816 0.00184640 0.01481459 0.00154213 0.01295908 0.00520702 0.02122645 0.00585370 0.01507411 0.00158055 0.02808072 0.03534252 0.01059672 0.01737920 
0.00875608 0.01655561 0.00245945 0.00183873 0.01504300 0.00154493 0.01313408 0.00516988 0.02082826 0.00568872 0.01515453 0.00156883 0.02825161 0.03635775 0.01081960 0.01814610 
0.00865312 0.01673332 0.00244148 0.00183089 0.01526318 0.00154921 0.01330904 0.00513435 0.02041237 0.00552294 0.01524577 0.00155678 0.02841594 0.03738670 0.01104150 0.01890047 
0.00857863 0.01689810 0.00242431 0.00182297 0.01547450 0.00155499 0.01348378 0.00510047 0.01998218 0.00535706 0.01534835 0.00154447 0.02857313 0.03842304 0.01126089 0.01963947 
0.00853285 0.01704971 0.00240800 0.00181509 0.01567632 0.00156229 0.01365812 0.00506829 0.01954121 0.00519181 0.01546275 0.00153198 0.02872260 0.03946064 0.01147637 0.02036033 
0.00851587 0.01718807 0.00239262 0.00180734 0.01586800 0.00157110 0.01383185 0.00503784 0.01909307 0.00502787 0.01558936 0.00151938 0.02886379 0.04049360 0.01168662 0.02106030 
0.00852760 0.01731321 0.00237823 0.00179983 0.01604891 0.00158142 0.01400473 0.00500918 0.01864145 0.00486593 0.01572848 0.00150674 0.02899619 0.04151634 0.01189041 0.02173674 
0.00856780 0.01742526 0.00236490 0.00179269 0.01621843 0.00159323 0.01417651 0.00498233 0.01819009 0.00470663 0.01588031 0.00149413 0.02911928 0.04252353 0.01208662 0.02238707 
0.00863606 0.01752448 0.00235268 0.00178602 0.01637595 0.00160649 0.01434691 0.00495732 0.01774274 0.00455062 0.01604497 0.00148162 0.02923257 0.04351021 0.01227426 0.02300881 
0.00873179 0.01761125 0.00234166 0.00177993 0.01652087 0.00162119 0.01451565 0.00493418 0.01730316 0.00439850 0.01622246 0.00146926 0.02933561 0.04447175 0.01245243 0.02359962 
0.00885426 0.01768606 0.00233188 0.00177454 0.01665261 0.00163727 0.01468240 0.00491293 0.01687508 0.00425084 0.01641269 0.00145712 0.02942795 0.04540388 0.01262037 0.02415725 
0.00900257 0.01774952 0.00232342 0.00176997 0.01677060 0.00165469 0.01484682 0.00489360 0.01646220 0.00410817 0.01661545 0.00144525 0.02950918 0.04630272 0.01277741 0.02467964 
0.00917567 0.01780232 0.00231634 0.00176631 0.01687429 0.00167338 0.01500855 0.00487618 0.01606813 0.00397100 0.01683042 0.00143370 0.02957892 0.04716478 0.01292305 0.02516483 
0.00937236 0.01784527 0.00231070 0.00176368 0.01696318 0.00169328 0.01516722 0.00486071 0.01569641 0.00383979 0.01705717 0.00142252 0.02963680 0.04798695 0.01305686 0.02561108 
0.00959129 0.01787927 0.00230656 0.00176219 0.01703678 0.00171432 0.01532241 0.00484718 0.01535044 0.00371496 0.01729515 0.00141174 0.02968249 0.04876655 0.01317856 0.02601678 
0.00983098 0.01790532 0.00230398 0.00176193 0.01709464 0.00173642 0.01547371 0.00483561 0.01503350 0.00359688 0.01754370 0.00140139 0.02971568 0.04950130 0.01328798 0.02638053 
0.01008983 0.01792447 0.00230301 0.00176300 0.01713633 0.00175949 0.01562068 0.00482598 0.01474871 0.00348588 0.01780206 0.00139151 0.02973608 0.05018931 0.01338507 0.02670111 
0.01036612 0.01793788 0.00230371 0.00176549 0.01716147 0.00178344 0.01576286 0.00481830 0.01449902 0.00338224 0.01806933 0.00138211 0.02974344 0.05082911 0.01346989 0.02697753 
0.01065802 0.01794674 0.00230611 0.00176948 0.01716974 0.00180817 0.01589979 0.00481256 0.01428719 0.00328619 0.01834453 0.00137322 0.02973753 0.05141961 0.01354260 0.02720897 
0.01096360 0.01795232 0.00231028 0.00177506 0.01716085 0.00183357 0.01603098 0.00480876 0.01411576 0.00319792 0.01862657 0.00136483 0.02971814 0.05196012 0.01360346 0.02739486 
0.01128086 0.01795593 0.00231624 0.00178228 0.01713455 0.00185955 0.01615594 0.00480686 0.01398704 0.00311756 0.01891425 0.00135696 0.02968509 0.05245031 0.01365286 0.02753480 
0.01160770 0.01795889 0.00232403 0.00179122 0.01709065 0.00188600 0.01627418 0.00480687 0.01390311 0.00304520 0.01920629 0.00134961 0.02963822 0.05289024 0.01369124 0.02762865 
0.01194197 0.01796258 0.00233369 0.00180192 0.01702903 0.00191279 0.01638518 0.00480875 0.01386580 0.00298088 0.01950131 0.00134275 0.02957742 0.05328026 0.01371914 0.02767648 
0.01228150 0.01796837 0.00234523 0.00181444 0.01694961 0.00193981 0.01648845 0.00481248 0.01387667 0.00292458 0.01979785 0.00133639 0.02950256 0.05362111 0.01373717 0.02767856 
0.01262405 0.01797765 0.00235869 0.00182879 0.01685237 0.00196695 0.01658347 0.00481803 0.01393700 0.00287624 0.02009439 0.00133049 0.02941356 0.05391380 0.01374602 0.02763540 
0.01296736 0.01799178 0.00237407 0.00184501 0.01673737 0.00199408 0.01666975 0.00482536 0.01404781 0.00283575 0.02038935 0.00132505 0.02931038 0.05415963 0.01374644 0.02754771 
0.01330919 0.01801213 0.00239139 0.00186311 0.01660470 0.00202108 0.01674678 0.00483444 0.01420982 0.00280297 0.02068106 0.00132002 0.02919295 0.05436016 0.01373921 0.02741642 
0.01364729 0.01804000 0.00241064 0.00188309 0.01645456 0.00204784 0.01681408 0.00484523 0.01442345 0.00277771 0.02096785 0.00131537 0.02906128 0.05451720 0.01372518 0.02724265 
0.01397943 0.01807670 0.00243182 0.00190494 0.01628717 0.00207423 0.01687119 0.00485769 0.01468884 0.00275972 0.02124800 0.00131108 0.02891535 0.05463278 0.01370521 0.02702772 
0.01430342 0.01812344 0.00245493 0.00192865 0.01610286 0.00210014 0.01691763 0.00487175 0.01500584 0.00274874 0.02151974 0.00130708 0.02875520 0.05470909 0.01368021 0.02677315 
0.01461711 0.01818139 0.00247995 0.00195418 0.01590199 0.00212545 0.01695299 0.00488738 0.01537399 0.00274446 0.02178133 0.00130335 0.02858086 0.05474852 0.01365108 0.02648062 
0.01491844 0.01825166 0.00250684 0.00198149 0.01568501 0.00215004 0.01697685 0.00490450 0.01579256 0.00274653 0.02203100 0.00129984 0.02839239 0.05475356 0.01361875 0.02615200 
0.01520538 0.01833525 0.00253560 0.00201052 0.01545244 0.00217380 0.01698882 0.00492307 0.01626051 0.00275459 0.02226701 0.00129649 0.02818988 0.05472684 0.01358414 0.02578930 
0.01547604 0.01843310 0.00256617 0.00204122 0.01520486 0.00219662 0.01698856 0.00494301 0.01677654 0.00276823 0.02248764 0.00129326 0.02797341 0.05467106 0.01354815 0.02539468 
0.01572860 0.01854602 0.00259851 0.00207351 0.01494290 0.00221841 0.01697574 0.00496426 0.01733908 0.00278704 0.02269119 0.00129009 0.02774310 0.05458897 0.01351169 0.02497041 
0.01596135 0.01867474 0.00263258 0.00210729 0.01466728 0.00223905 0.01695008 0.00498674 0.01794628 0.00281058 0.02287604 0.00128693 0.02749908 0.05448337 0.01347561 0.02451892 
0.01617273 0.01881986 0.00266832 0.00214249 0.01437876 0.00225846 0.01691133 0.00501037 0.01859605 0.00283838 0.02304060 0.00128374 0.02724150 0.05435705 0.01344075 0.02404269 
0.01636129 0.01898186 0.00270567 0.00217897 0.01407818 0.00227655 0.01685931 0.00503506 0.01928608 0.00286998 0.02318336 0.00128045 0.02697052 0.05421280 0.01340790 0.02354432 
0.01652574 0.01916111 0.00274456 0.00221665 0.01376642 0.00229323 0.01679385 0.00506074 0.02001379 0.00290490 0.02330291 0.00127703 0.02668632 0.05405335 0.01337782 0.02302646 
0.01666494 0.01935784 0.00278491 0.00225537 0.01344442 0.00230843 0.01671485 0.00508731 0.02077644 0.00294265 0.02339792 0.00127342 0.02638911 0.05388139 0.01335120 0.02249182 
0.01677790 0.01957213 0.00282666 0.00229502 0.01311316 0.00232208 0.01662225 0.00511467 0.02157106 0.00298274 0.02346718 0.00126958 0.02607910 0.05369951 0.01332867 0.02194315 
0.01686382 0.01980396 0.00286970 0.00233546 0.01277368 0.00233412 0.01651604 0.00514272 0.02239453 0.00302470 0.02350957 0.00126547 0.02575653 0.05351020 0.01331081 0.02138322 
0.01692205 0.02005314 0.00291395 0.00237653 0.01242706 0.00234448 0.01639628 0.00517136 0.02324356 0.00306804 0.02352412 0.00126105 0.02542165 0.05331584 0.01329813 0.02081479 
0.01695213 0.02031936 0.00295932 0.00241807 0.01207440 0.00235314 0.01626307 0.00520047 0.02411471 0.00311228 0.02350999 0.00125628 0.02507475 0.05311866 0.01329106 0.02024063 
0.01695378 0.02060216 0.00300571 0.00245994 0.01171685 0.00236003 0.01611656 0.00522994 0.02500445 0.00315699 0.02346649 0.00125114 0.02471612 0.05292074 0.01328996 0.01966344 
0.01692692 0.02090096 0.00305301 0.00250196 0.01135558 0.00236514 0.01595698 0.00525965 0.02590913 0.00320170 0.02339306 0.00124560 0.02434610 0.05272401 0.01329511 0.01908593 
0.01687163 0.02121502 0.00310112 0.00254396 0.01099178 0.00236844 0.01578459 0.00528948 0.02682503 0.00324599 0.02328933 0.00123964 0.02396502 0.05253021 0.01330673 0.01851071 
0.01678819 0.02154349 0.00314993 0.00258578 0.01062665 0.00236991 0.01559972 0.00531929 0.02774837 0.00328947 0.02315506 0.00123325 0.02357327 0.05234088 0.01332494 0.01794032 
0.01667706 0.02188540 0.00319932 0.00262724 0.01026141 0.00236956 0.01540276 0.00534897 0.02867535 0.00333175 0.02299020 0.00122642 0.02317126 0.05215741 0.01334978 0.01737722 
0.01653889 0.02223963 0.00324918 0.00266815 0.00989728 0.00236737 0.01519415 0.00537836 0.02960214 0.00337247 0.02279486 0.00121914 0.02275941 0.05198095 0.01338122 0.01682378 
0.01637451 0.02260497 0.00329939 0.00270836 0.00953548 0.00236336 0.01497437 0.00540734 0.03052493 0.00341131 0.02256933 0.00121144 0.02233820 0.05181246 0.01341914 0.01628223 
0.01618491 0.02298009 0.00334985 0.00274768 0.00917720 0.00235755 0.01474399 0.00543576 0.03143993 0.00344798 0.02231408 0.00120330 0.02190813 0.05165270 0.01346335 0.01575470 
0.01597126 0.02336357 0.00340041 0.00278593 0.00882365 0.00234997 0.01450360 0.00546346 0.03234341 0.00348221 0.02202974 0.00119477 0.02146973 0.05150220 0.01351358 0.01524316 
0.01573490 0.02375390 0.00345098 0.00282296 0.00847599 0.00234064 0.01425384 0.00549031 0.03323173 0.00351376 0.02171713 0.00118585 0.02102358 0.05136133 0.01356949 0.01474946 
0.01547731 0.02414947 0.00350142 0.00285858 0.00813537 0.00232961 0.01399540 0.00551616 0.03410130 0.00354245 0.02137724 0.00117658 0.02057030 0.05123021 0.01363066 0.01427528 
0.01520012 0.02454862 0.00355162 0.00289265 0.00780290 0.00231693 0.01372903 0.00554083 0.03494867 0.00356811 0.02101123 0.00116700 0.02011055 0.05110879 0.01369662 0.01382216 
0.01490509 0.02494963 0.00360146 0.00292499 0.00747964 0.00230265 0.01345550 0.00556419 0.03577053 0.00359061 0.02062041 0.00115715 0.01964501 0.05099682 0.01376681 0.01339147 
0.01459413 0.02535071 0.00365083 0.00295546 0.00716664 0.00228684 0.01317561 0.00558608 0.03656370 0.00360986 0.02020627 0.00114709 0.01917444 0.05089387 0.01384063 0.01298439 
0.01426923 0.02575007 0.00369960 0.00298391 0.00686486 0.00226957 0.01289022 0.00560633 0.03732518 0.00362581 0.01977045 0.00113687 0.01869962 0.05079932 0.01391743 0.01260197 
0.01393251 0.02614585 0.00374767 0.00301021 0.00657522 0.00225091 0.01260020 0.00562479 0.03805212 0.00363843 0.01931473 0.00112655 0.01822138 0.05071241 0.01399650 0.01224505 
0.01358615 0.02653621 0.00379493 0.00303424 0.00629859 0.00223093 0.01230643 0.00564130 0.03874192 0.00364773 0.01884104 0.00111621 0.01774061 0.05063220 0.01407708 0.01191432 
0.01323242 0.02691931 0.00384127 0.00305586 0.00603576 0.00220974 0.01200985 0.00565571 0.03939213 0.00365377 0.01835142 0.00110591 0.01725823 0.05055765 0.01415839 0.01161030 
0.01287366 0.02729330 0.00388658 0.00307497 0.00578746 0.00218741 0.01171138 0.00566785 0.04000058 0.00365661 0.01784803 0.00109574 0.01677521 0.05048755 0.01423962 0.01133333 
0.01251224 0.02765637 0.00393077 0.00309148 0.00555435 0.00216404 0.01141196 0.00567757 0.04056528 0.00365637 0.01733317 0.00108577 0.01629258 0.05042061 0.01431991 0.01108359 
0.01215056 0.02800676 0.00397374 0.00310529 0.00533700 0.00213973 0.01111255 0.00568473 0.04108453 0.00365319 0.01680918 0.00107610 0.01581141 0.05035543 0.01439840 0.01086110 
0.01179105 0.02834273 0.00401539 0.00311634 0.00513591 0.00211458 0.01081408 0.00568918 0.04155683 0.00364723 0.01627854 0.00106680 0.01533280 0.05029055 0.01447423 0.01066571 
0.01143614 0.02866262 0.00405565 0.00312456 0.00495149 0.00208870 0.01051751 0.00569077 0.04198098 0.00363868 0.01574376 0.00105798 0.01485790 0.05022442 0.01454650 0.01049715 
0.01108823 0.02896484 0.00409442 0.00312990 0.00478408 0.00206218 0.01022376 0.00568936 0.04235602 0.00362775 0.01520742 0.00104972 0.01438792 0.05015549 0.01461434 0.01035499 
0.01074969 0.02924789 0.00413162 0.00313232 0.00463393 0.00203514 0.00993375 0.00568483 0.04268124 0.00361467 0.01467214 0.00104211 0.01392408 0.05008214 0.01467689 0.01023865 
0.01042287 0.02951035 0.00416720 0.00313179 0.00450120 0.00200768 0.00964839 0.00567704 0.04295623 0.00359970 0.01414057 0.00103526 0.01346767 0.05000277 0.01473328 0.01014747 
0.01011004 0.02975092 0.00420107 0.00312831 0.00438595 0.00197991 0.00936855 0.00566588 0.04318080 0.00358309 0.01361536 0.00102924 0.01301997 0.04991581 0.01478268 0.01008064 
0.00981339 0.02996839 0.00423317 0.00312188 0.00428818 0.00195195 0.00909507 0.00565124 0.04335507 0.00356514 0.01309917 0.00102417 0.01258232 0.04981969 0.01482429 0.01003725 
0.00953505 0.03016171 0.00426345 0.00311252 0.00420779 0.00192389 0.00882876 0.00563302 0.04347938 0.00354612 0.01259465 0.00102012 0.01215607 0.04971291 0.01485734 0.01001631 
0.00927701 0.03032991 0.00429185 0.00310024 0.00414458 0.00189584 0.00857040 0.00561112 0.04355434 0.00352633 0.01210440 0.00101718 0.01174261 0.04959403 0.01488109 0.01001674 
0.00904118 0.03047219 0.00431833 0.00308510 0.00409829 0.00186791 0.00832073 0.00558547 0.04358080 0.00350606 0.01163098 0.00101544 0.01134332 0.04946173 0.01489488 0.01003739 
0.00882933 0.03058787 0.00434285 0.00306715 0.00406857 0.00184020 0.00808042 0.00555600 0.04355987 0.00348563 0.01117688 0.00101498 0.01095959 0.04931476 0.01489806 0.01007705 
0.00864308 0.03067643 0.00436536 0.00304645 0.00405497 0.00181281 0.00785012 0.00552265 0.04349286 0.00346531 0.01074453 0.00101587 0.01059283 0.04915201 0.01489007 0.01013447 
0.00848392 0.03073749 0.00438585 0.00302309 0.00405699 0.00178582 0.00763040 0.00548537 0.04338131 0.00344542 0.01033625 0.00101819 0.01024444 0.04897254 0.01487041 0.01020835 
0.00835317 0.03077081 0.00440428 0.00299715 0.00407405 0.00175935 0.00742180 0.00544414 0.04322698 0.00342623 0.00995427 0.00102200 0.00991580 0.04877552 0.01483863 0.01029739 
0.00825199 0.03077632 0.00442064 0.00296874 0.00410549 0.00173346 0.00722478 0.00539893 0.04303181 0.00340803 0.00960070 0.00102736 0.00960829 0.04856034 0.01479437 0.01040024 
0.00818137 0.03075408 0.00443492 0.00293798 0.00415059 0.00170824 0.00703975 0.00534976 0.04279790 0.00339107 0.00927751 0.00103432 0.00932324 0.04832656 0.01473735 0.01051560 
0.00814210 0.03070432 0.00444709 0.00290499 0.00420857 0.00168378 0.00686705 0.00529663 0.04252754 0.00337561 0.00898654 0.00104291 0.00906198 0.04807396 0.01466736 0.01064213 
0.00813480 0.03062741 0.00445717 0.00286990 0.00427859 0.00166014 0.00670698 0.00523958 0.04222317 0.00336188 0.00872947 0.00105319 0.00882578 0.04780252 0.01458429 0.01077853 
0.00815989 0.03052385 0.00446516 0.00283286 0.00435977 0.00163739 0.00655974 0.00517865 0.04188732 0.00335011 0.00850782 0.00106516 0.00861586 0.04751247 0.01448809 0.01092354 
0.00821761 0.03039431 0.00447105 0.00279401 0.00445117 0.00161558 0.00642549 0.00511391 0.04152267 0.00334049 0.00832295 0.00107886 0.00843340 0.04720426 0.01437885 0.01107591 
0.00830799 0.03023957 0.00447487 0.00275352 0.00455182 0.00159479 0.00630430 0.00504545 0.04113198 0.00333320 0.00817601 0.00109429 0.00827950 0.04687861 0.01425670 0.01123447 
0.00843087 0.03006055 0.00447663 0.00271155 0.00466071 0.00157504 0.00619621 0.00497336 0.04071806 0.00332839 0.00806798 0.00111143 0.00815522 0.04653648 0.01412189 0.01139807 
0.00858589 0.02985829 0.00447636 0.00266827 0.00477681 0.00155639 0.00610115 0.00489777 0.04028381 0.00332619 0.00799966 0.00113030 0.00806149 0.04617911 0.01397477 0.01156565 
0.00877251 0.02963396 0.00447408 0.00262386 0.00489905 0.00153886 0.00601903 0.00481882 0.03983214 0.00332672 0.00797163 0.00115085 0.00799921 0.04580799 0.01381578 0.01173619 
0.00899000 0.02938880 0.00446983 0.00257851 0.00502638 0.00152250 0.00594967 0.00473667 0.03936598 0.00333006 0.00798427 0.00117306 0.00796914 0.04542490 0.01364545 0.01190877 
0.00923741 0.02912419 0.00446364 0.00253238 0.00515770 0.00150730 0.00589282 0.00465149 0.03888825 0.00333626 0.00803777 0.00119689 0.00797198 0.04503188 0.01346441 0.01208251 
0.00951365 0.02884156 0.00445556 0.00248568 0.00529193 0.00149330 0.00584820 0.00456348 0.03840186 0.00334536 0.00813208 0.00122228 0.00800829 0.04463123 0.01327339 0.01225664 
0.00981744 0.02854245 0.00444563 0.00243858 0.00542800 0.00148049 0.00581546 0.00447286 0.03790965 0.00335736 0.00826698 0.00124918 0.00807852 0.04422554 0.01307321 0.01243047 
0.01014732 0.02822844 0.00443391 0.00239128 0.00556484 0.00146888 0.00579419 0.00437986 0.03741443 0.00337226 0.00844202 0.00127750 0.00818303 0.04381764 0.01286476 0.01260337 
0.01050170 0.02790119 0.00442045 0.00234395 0.00570140 0.00145846 0.00578393 0.00428473 0.03691891 0.00339002 0.00865654 0.00130716 0.00832201 0.04341064 0.01264906 0.01277481 
0.01087883 0.02756238 0.00440531 0.00229679 0.00583664 0.00144922 0.00578418 0.00418775 0.03642571 0.00341058 0.00890969 0.00133808 0.00849557 0.04300785 0.01242719 0.01294435 
0.01127680 0.02721374 0.00438856 0.00224998 0.00596956 0.00144114 0.00579440 0.00408919 0.03593733 0.00343384 0.00920041 0.00137016 0.00870363 0.04261287 0.01220030 0.01311161 
0.01169362 0.02685702 0.00437027 0.00220369 0.00609919 0.00143419 0.00581400 0.00398937 0.03545615 0.00345973 0.00952745 0.00140327 0.00894602 0.04222949 0.01196963 0.01327632 
0.01212714 0.02649398 0.00435052 0.00215810 0.00622462 0.00142834 0.00584235 0.00388860 0.03498441 0.00348810 0.00988938 0.00143732 0.00922240 0.04186170 0.01173650 0.01343827 
0.01257513 0.02612638 0.00432938 0.00211338 0.00634495 0.00142355 0.00587881 0.00378722 0.03452419 0.00351884 0.01028458 0.00147216 0.00953230 0.04151370 0.01150228 0.01359733 
0.01303528 0.02575596 0.00430694 0.00206970 0.00645934 0.00141979 0.00592269 0.00368557 0.03407740 0.00355178 0.01071126 0.00150768 0.00987510 0.04118983 0.01126841 0.01375344 
0.01350518 0.02538445 0.00428328 0.00202721 0.00656703 0.00141700 0.00597330 0.00358402 0.03364579 0.00358677 0.01116745 0.00154373 0.01025002 0.04089461 0.01103638 0.01390661 
0.01398239 0.02501355 0.00425850 0.00198605 0.00666728 0.00141513 0.00602991 0.00348295 0.03323091 0.00362363 0.01165105 0.00158018 0.01065616 0.04063266 0.01080773 0.01405690 
0.01446441 0.02464491 0.00423268 0.00194638 0.00675943 0.00141413 0.00609180 0.00338272 0.03283412 0.00366218 0.01215981 0.00161686 0.01109247 0.04040871 0.01058402 0.01420444 
0.01494871 0.02428013 0.00420594 0.00190833 0.00684289 0.00141393 0.00615823 0.00328374 0.03245658 0.00370223 0.01269134 0.00165364 0.01155772 0.04022755 0.01036688 0.01434942 
0.01543275 0.02392075 0.00417838 0.00187201 0.00691714 0.00141448 0.00622845 0.00318641 0.03209926 0.00374359 0.01324313 0.00169035 0.01205060 0.04009402 0.01015792 0.01449204 
0.01591397 0.02356825 0.00415010 0.00183754 0.00698170 0.00141569 0.00630173 0.00309112 0.03176290 0.00378606 0.01381258 0.00172685 0.01256960 0.04001296 0.00995879 0.01463257 
0.01638987 0.02322404 0.00412120 0.00180503 0.00703621 0.00141752 0.00637734 0.00299830 0.03144807 0.00382947 0.01439699 0.00176296 0.01311313 0.03998922 0.00977113 0.01477129 
0.01685793 0.02288943 0.00409182 0.00177456 0.00708034 0.00141987 0.00645456 0.00290834 0.03115510 0.00387360 0.01499355 0.00179854 0.01367944 0.04002756 0.00959661 0.01490852 
0.01731571 0.02256566 0.00406205 0.00174622 0.00711387 0.00142268 0.00653268 0.00282167 0.03088413 0.00391830 0.01559944 0.00183342 0.01426665 0.04013267 0.00943683 0.01504458 
0.01776081 0.02225388 0.00403203 0.00172008 0.00713663 0.00142589 0.00661103 0.00273869 0.03063510 0.00396337 0.01621174 0.00186746 0.01487280 0.04030913 0.00929341 0.01517982 
0.01819092 0.02195513 0.00400187 0.00169620 0.00714855 0.00142940 0.00668894 0.00265980 0.03040776 0.00400866 0.01682753 0.00190048 0.01549579 0.04056135 0.00916793 0.01531458 
0.01860379 0.02167037 0.00397170 0.00167462 0.00714961 0.00143314 0.00676578 0.00258542 0.03020166 0.00405401 0.01744383 0.00193235 0.01613344 0.04089354 0.00906190 0.01544919 
0.01899729 0.02140044 0.00394164 0.00165538 0.00713991 0.00143705 0.00684097 0.00251592 0.03001619 0.00409928 0.01805770 0.00196292 0.01678345 0.04130971 0.00897682 0.01558399 
0.01936941 0.02114610 0.00391183 0.00163850 0.00711957 0.00144104 0.00691393 0.00245171 0.02985055 0.00414436 0.01866617 0.00199204 0.01744348 0.04181356 0.00891409 0.01571928 
0.01971823 0.02090800 0.00388239 0.00162399 0.00708882 0.00144504 0.00698416 0.00239314 0.02970378 0.00418913 0.01926631 0.00201957 0.01811109 0.04240853 0.00887504 0.01585536 
0.02004199 0.02068668 0.00385345 0.00161186 0.00704796 0.00144898 0.00705117 0.00234058 0.02957478 0.00423352 0.01985524 0.00204540 0.01878377 0.04309772 0.00886094 0.01599248 
0.02033907 0.02048259 0.00382514 0.00160210 0.00699734 0.00145279 0.00711453 0.00229437 0.02946233 0.00427745 0.02043010 0.00206938 0.01945900 0.04388383 0.00887294 0.01613088 
0.02060799 0.02029608 0.00379760 0.00159467 0.00693741 0.00145640 0.00717385 0.00225483 0.02936506 0.00432088 0.02098814 0.00209142 0.02013419 0.04476919 0.00891212 0.01627074 
0.02084743 0.02012740 0.00377096 0.00158955 0.00686865 0.00145975 0.00722881 0.00222226 0.02928151 0.00436378 0.02152665 0.00211141 0.02080673 0.04575568 0.00897940 0.01641223 
0.02105625 0.01997671 0.00374535 0.00158669 0.00679161 0.00146277 0.00727911 0.00219695 0.02921013 0.00440616 0.02204304 0.00212924 0.02147401 0.04684471 0.00907563 0.01655544 
0.02123347 0.01984409 0.00372089 0.00158604 0.00670692 0.00146541 0.00732453 0.00217916 0.02914929 0.00444803 0.02253482 0.00214484 0.02213341 0.04803722 0.00920150 0.01670042 
0.02137829 0.01972951 0.00369771 0.00158754 0.00661525 0.00146761 0.00736488 0.00216911 0.02909731 0.00448945 0.02299963 0.00215812 0.02278231 0.04933361 0.00935758 0.01684720 
0.02149008 0.01963289 0.00367595 0.00159110 0.00651730 0.00146932 0.00740005 0.00216701 0.02905245 0.00453046 0.02343521 0.00216903 0.02341815 0.05073374 0.00954429 0.01699571 
0.02156841 0.01955406 0.00365572 0.00159666 0.00641384 0.00147049 0.00742997 0.00217304 0.02901297 0.00457117 0.02383947 0.00217751 0.02403837 0.05223691 0.00976190 0.01714587 
0.02161301 0.01949280 0.00363715 0.00160411 0.00630568 0.00147109 0.00745461 0.00218734 0.02897712 0.00461168 0.02421047 0.00218351 0.02464049 0.05384185 0.01001054 0.01729752 
0.02162381 0.01944881 0.00362036 0.00161337 0.00619365 0.00147106 0.00747402 0.00221002 0.02894315 0.00465212 0.02454642 0.00218701 0.02522209 0.05554668 0.01029015 0.01745045 
0.02160091 0.01942174 0.00360545 0.00162432 0.00607863 0.00147040 0.00748828 0.00224115 0.02890934 0.00469263 0.02484571 0.00218799 0.02578080 0.05734892 0.01060054 0.01760440 
0.02154460 0.01941120 0.00359254 0.00163686 0.00596152 0.00146905 0.00749755 0.00228079 0.02887403 0.00473339 0.02510690 0.00218645 0.02631437 0.05924548 0.01094133 0.01775907 
0.02145534 0.01941676 0.00358173 0.00165086 0.00584322 0.00146700 0.00750201 0.00232894 0.02883559 0.00477457 0.02532875 0.00218239 0.02682065 0.06123266 0.01131198 0.01791408 
0.02133376 0.01943794 0.00357312 0.00166621 0.00572469 0.00146424 0.00750190 0.00238557 0.02879251 0.00481637 0.02551019 0.00217583 0.02729757 0.06330612 0.01171179 0.01806904 
0.02118066 0.01947426 0.00356681 0.00168279 0.00560685 0.00146075 0.00749750 0.00245062 0.02874334 0.00485900 0.02565036 0.00216679 0.02774321 0.06546093 0.01213987 0.01822348 
0.02099699 0.01952520 0.00356288 0.00170045 0.00549066 0.00145652 0.00748915 0.00252397 0.02868673 0.00490268 0.02574859 0.00215534 0.02815577 0.06769156 0.01259517 0.01837692 
0.02078388 0.01959023 0.00356141 0.00171908 0.00537707 0.00145155 0.00747721 0.00260550 0.02862148 0.00494762 0.02580443 0.00214151 0.02853361 0.06999188 0.01307648 0.01852882 
0.02054256 0.01966882 0.00356249 0.00173853 0.00526702 0.00144585 0.00746209 0.00269502 0.02854650 0.00499408 0.02581762 0.00212537 0.02887522 0.07235519 0.01358241 0.01867862 
0.02027444 0.01976043 0.00356617 0.00175867 0.00516145 0.00143943 0.00744423 0.00279232 0.02846085 0.00504227 0.02578811 0.00210700 0.02917924 0.07477425 0.01411143 0.01882571 
0.01998103 0.01986454 0.00357252 0.00177936 0.00506127 0.00143229 0.00742409 0.00289715 0.02836374 0.00509243 0.02571607 0.00208649 0.02944451 0.07724128 0.01466183 0.01896949 
0.01966396 0.01998063 0.00358159 0.00180048 0.00496738 0.00142446 0.00740218 0.00300920 0.02825453 0.00514480 0.02560184 0.00206394 0.02967001 0.07974803 0.01523178 0.01910932 
0.01932498 0.02010820 0.00359342 0.00182187 0.00488066 0.00141595 0.00737900 0.00312816 0.02813276 0.00519960 0.02544602 0.00203944 0.02985491 0.08228577 0.01581927 0.01924456 
0.01896590 0.02024677 0.00360805 0.00184342 0.00480194 0.00140681 0.00735510 0.00325367 0.02799815 0.00525705 0.02524935 0.00201311 0.02999855 0.08484538 0.01642220 0.01937454 
0.01858865 0.02039589 0.00362550 0.00186498 0.00473204 0.00139705 0.00733103 0.00338534 0.02785058 0.00531736 0.02501283 0.00198508 0.03010046 0.08741733 0.01703832 0.01949861 
0.01819520 0.02055514 0.00364580 0.00188643 0.00467171 0.00138672 0.00730735 0.00352273 0.02769011 0.00538073 0.02473760 0.00195548 0.03016036 0.08999179 0.01766527 0.01961612 
0.01778760 0.02072413 0.00366895 0.00190765 0.00462169 0.00137585 0.00728462 0.00366539 0.02751701 0.00544733 0.02442502 0.00192444 0.03017814 0.09255865 0.01830058 0.01972644 
0.01736792 0.02090250 0.00369494 0.00192850 0.00458266 0.00136450 0.00726341 0.00381283 0.02733170 0.00551734 0.02407663 0.00189210 0.03015388 0.09510755 0.01894172 0.01982894 
0.01693829 0.02108993 0.00372378 0.00194889 0.00455525 0.00135271 0.00724428 0.00396455 0.02713479 0.00559088 0.02369413 0.00185861 0.03008786 0.09762800 0.01958604 0.01992303 
0.01650085 0.02128614 0.00375544 0.00196869 0.00454003 0.00134052 0.00722780 0.00412000 0.02692708 0.00566808 0.02327940 0.00182413 0.02998052 0.10010937 0.02023087 0.02000813 
0.01605772 0.02149090 0.00378990 0.00198781 0.00453752 0.00132801 0.00721450 0.00427863 0.02670951 0.00574904 0.02283448 0.00178880 0.02983249 0.10254101 0.02087347 0.02008370 
0.01561106 0.02170400 0.00382712 0.00200613 0.00454819 0.00131521 0.00720492 0.00443986 0.02648321 0.00583381 0.02236155 0.00175279 0.02964457 0.10491226 0.02151106 0.02014926 
0.01516297 0.02192528 0.00386704 0.00202358 0.00457242 0.00130220 0.00719956 0.00460309 0.02624948 0.00592244 0.02186293 0.00171624 0.02941772 0.10721257 0.02214086 0.02020436 
0.01471555 0.02215463 0.00390962 0.00204006 0.00461057 0.00128903 0.00719890 0.00476772 0.02600973 0.00601493 0.02134108 0.00167933 0.02915308 0.10943153 0.02276007 0.02024859 
0.01427085 0.02239195 0.00395480 0.00205549 0.00466291 0.00127577 0.00720341 0.00493313 0.02576554 0.00611126 0.02079858 0.00164220 0.02885193 0.11155894 0.02336592 0.02028162 
0.01383086 0.02263719 0.00400249 0.00206982 0.00472963 0.00126249 0.00721350 0.00509868 0.02551862 0.00621138 0.02023809 0.00160501 0.02851570 0.11358490 0.02395568 0.02030317 
0.01339752 0.02289033 0.00405262 0.00208297 0.00481087 0.00124924 0.00722957 0.00526375 0.02527076 0.00631518 0.01966239 0.00156792 0.02814595 0.11549984 0.02452663 0.02031301 
0.01297269 0.02315140 0.00410509 0.00209490 0.00490672 0.00123611 0.00725197 0.00542770 0.02502390 0.00642256 0.01907434 0.00153109 0.02774438 0.11729465 0.02507617 0.02031099 
0.01255815 0.02342041 0.00415982 0.00210555 0.00501717 0.00122315 0.00728100 0.00558990 0.02478004 0.00653334 0.01847684 0.00149465 0.02731279 0.11896066 0.02560174 0.02029705 
0.01215558 0.02369743 0.00421669 0.00211490 0.00514216 0.00121043 0.00731693 0.00574971 0.02454125 0.00664733 0.01787288 0.00145876 0.02685309 0.12048978 0.02610089 0.02027117 
0.01176658 0.02398254 0.00427559 0.00212291 0.00528156 0.00119803 0.00735999 0.00590653 0.02430968 0.00676432 0.01726548 0.00142355 0.02636729 0.12187452 0.02657130 0.02023342 
0.01139264 0.02427581 0.00433640 0.00212957 0.00543517 0.00118601 0.00741034 0.00605975 0.02408751 0.00688403 0.01665767 0.00138916 0.02585748 0.12310807 0.02701076 0.02018397 
0.01103513 0.02457736 0.00439899 0.00213488 0.00560273 0.00117445 0.00746812 0.00620876 0.02387693 0.00700617 0.01605251 0.00135571 0.02532582 0.12418434 0.02741722 0.02012303 
0.01069531 0.02488727 0.00446323 0.00213882 0.00578391 0.00116340 0.00753338 0.00635300 0.02368016 0.00713041 0.01545306 0.00132332 0.02477450 0.12509803 0.02778878 0.02005091 
0.01037433 0.02520564 0.00452898 0.00214142 0.00597833 0.00115293 0.00760615 0.00649192 0.02349942 0.00725640 0.01486236 0.00129211 0.02420580 0.12584465 0.02812373 0.01996802 
0.01007319 0.02553257 0.00459609 0.00214268 0.00618553 0.00114311 0.00768639 0.00662498 0.02333687 0.00738376 0.01428341 0.00126217 0.02362198 0.12642060 0.02842053 0.01987482 
0.00979278 0.02586811 0.00466442 0.00214265 0.00640500 0.00113399 0.00777403 0.00675169 0.02319465 0.00751206 0.01371918 0.00123362 0.02302536 0.12682318 0.02867785 0.01977187 
0.00953387 0.02621233 0.00473381 0.00214135 0.00663619 0.00112565 0.00786891 0.00687157 0.02307485 0.00764087 0.01317259 0.00120652 0.02241823 0.12705066 0.02889457 0.01965980 
0.00929708 0.02656526 0.00480411 0.00213883 0.00687848 0.00111814 0.00797084 0.00698419 0.02297946 0.00776973 0.01264646 0.00118097 0.02180290 0.12710226 0.02906977 0.01953931 
0.00908291 0.02692690 0.00487515 0.00213514 0.00713121 0.00111150 0.00807959 0.00708915 0.02291040 0.00789817 0.01214356 0.00115703 0.02118164 0.12697820 0.02920279 0.01941119 
0.00889173 0.02729721 0.00494677 0.00213034 0.00739367 0.00110581 0.00819486 0.00718609 0.02286948 0.00802567 0.01166654 0.00113475 0.02055669 0.12667973 0.02929317 0.01927629 
0.00872379 0.02767611 0.00501880 0.00212451 0.00766511 0.00110109 0.00831629 0.00727469 0.02285837 0.00815174 0.01121794 0.00111419 0.01993025 0.12620908 0.02934071 0.01913554 
0.00857920 0.02806348 0.00509107 0.00211773 0.00794474 0.00109741 0.00844350 0.00735466 0.02287863 0.00827584 0.01080018 0.00109540 0.01930447 0.12556956 0.02934545 0.01898991 
0.00845797 0.02845915 0.00516342 0.00211006 0.00823173 0.00109480 0.00857606 0.00742578 0.02293166 0.00839744 0.01041554 0.00107839 0.01868142 0.12476546 0.02930768 0.01884046 
0.00835998 0.02886290 0.00523567 0.00210161 0.00852523 0.00109330 0.00871347 0.00748785 0.02301869 0.00851602 0.01006617 0.00106319 0.01806311 0.12380208 0.02922791 0.01868829 
0.00828500 0.02927443 0.00530765 0.00209247 0.00882436 0.00109295 0.00885521 0.00754074 0.02314079 0.00863102 0.00975405 0.00104980 0.01745146 0.12268574 0.02910693 0.01853453 
0.00823269 0.02969340 0.00537920 0.00208274 0.00912821 0.00109377 0.00900074 0.00758435 0.02329884 0.00874192 0.00948098 0.00103824 0.01684828 0.12142368 0.02894574 0.01838038 
0.00820261 0.03011940 0.00545014 0.00207253 0.00943586 0.00109580 0.00914944 0.00761864 0.02349355 0.00884818 0.00924861 0.00102850 0.01625532 0.12002411 0.02874560 0.01822707 
0.00819423 0.03055195 0.00552032 0.00206194 0.00974638 0.00109905 0.00930070 0.00764362 0.02372539 0.00894928 0.00905838 0.00102055 0.01567419 0.11849612 0.02850799 0.01807584 
0.00820694 0.03099050 0.00558955 0.00205111 0.01005881 0.00110353 0.00945387 0.00765933 0.02399467 0.00904472 0.00891155 0.00101437 0.01510640 0.11684962 0.02823461 0.01792798 
0.00824003 0.03143442 0.00565769 0.00204013 0.01037221 0.00110927 0.00960826 0.00766590 0.02430145 0.00913399 0.00880916 0.00100993 0.01455334 0.11509536 0.02792740 0.01778476 
0.00829274 0.03188303 0.00572458 0.00202914 0.01068563 0.00111627 0.00976318 0.00766346 0.02464559 0.00921663 0.00875207 0.00100719 0.01401630 0.11324478 0.02758846 0.01764748 
0.00836423 0.03233556 0.00579005 0.00201825 0.01099810 0.00112452 0.00991792 0.00765223 0.02502675 0.00929219 0.00874091 0.00100610 0.01349643 0.11131000 0.02722012 0.01751744 
0.00845361 0.03279117 0.00585396 0.00200760 0.01130870 0.00113403 0.01007176 0.00763245 0.02544435 0.00936023 0.00877608 0.00100660 0.01299476 0.10930376 0.02682487 0.01739591 
0.00855995 0.03324895 0.00591617 0.00199730 0.01161649 0.00114479 0.01022397 0.00760443 0.02589759 0.00942037 0.00885779 0.00100864 0.01251220 0.10723929 0.02640535 0.01728416 
0.00868228 0.03370793 0.00597653 0.00198748 0.01192054 0.00115678 0.01037381 0.00756849 0.02638546 0.00947223 0.00898599 0.00101214 0.01204953 0.10513027 0.02596438 0.01718340 
0.00881958 0.03416705 0.00603491 0.00197826 0.01221997 0.00116998 0.01052054 0.00752502 0.02690674 0.00951549 0.00916043 0.00101703 0.01160742 0.10299074 0.02550487 0.01709483 
0.00897085 0.03462520 0.00609119 0.00196976 0.01251389 0.00118437 0.01066345 0.00747444 0.02745999 0.00954985 0.00938062 0.00102325 0.01118640 0.10083500 0.02502986 0.01701960 
0.00913502 0.03508122 0.00614523 0.00196212 0.01280146 0.00119991 0.01080182 0.00741722 0.02804358 0.00957505 0.00964586 0.00103069 0.01078692 0.09867753 0.02454247 0.01695879 
0.00931107 0.03553386 0.00619694 0.00195543 0.01308184 0.00121658 0.01093494 0.00735384 0.02865566 0.00959088 0.00995521 0.00103929 0.01040927 0.09653288 0.02404590 0.01691343 
0.00949796 0.03598183 0.00624619 0.00194981 0.01335425 0.00123433 0.01106213 0.00728484 0.02929422 0.00959717 0.01030750 0.00104895 0.01005367 0.09441561 0.02354339 0.01688446 
0.00969464 0.03642381 0.00629290 0.00194538 0.01361792 0.00125311 0.01118272 0.00721075 0.02995703 0.00959378 0.01070137 0.00105959 0.00972022 0.09234012 0.02303820 0.01687275 
0.00990012 0.03685840 0.00633698 0.00194224 0.01387213 0.00127287 0.01129607 0.00713218 0.03064173 0.00958064 0.01113523 0.00107111 0.00940893 0.09032065 0.02253362 0.01687907 
0.01011339 0.03728420 0.00637833 0.00194048 0.01411620 0.00129356 0.01140158 0.00704970 0.03134576 0.00955770 0.01160727 0.00108341 0.00911972 0.08837109 0.02203289 0.01690411 
0.01033351 0.03769976 0.00641690 0.00194020 0.01434948 0.00131511 0.01149867 0.00696395 0.03206646 0.00952497 0.01211550 0.00109641 0.00885242 0.08650497 0.02153923 0.01694843 
0.01055955 0.03810359 0.00645260 0.00194147 0.01457136 0.00133746 0.01158680 0.00687555 0.03280100 0.00948251 0.01265774 0.00111001 0.00860678 0.08473527 0.02105579 0.01701249 
0.01079063 0.03849423 0.00648540 0.00194438 0.01478129 0.00136054 0.01166546 0.00678515 0.03354644 0.00943042 0.01323161 0.00112413 0.00838251 0.08307441 0.02058565 0.01709663 
0.01102592 0.03887016 0.00651523 0.00194900 0.01497875 0.00138427 0.01173419 0.00669339 0.03429975 0.00936885 0.01383455 0.00113865 0.00817923 0.08153413 0.02013176 0.01720105 
0.01126463 0.03922988 0.00654208 0.00195538 0.01516327 0.00140857 0.01179257 0.00660092 0.03505778 0.00929798 0.01446387 0.00115351 0.00799652 0.08012540 0.01969698 0.01732584 
0.01150604 0.03957192 0.00656590 0.00196358 0.01533442 0.00143336 0.01184024 0.00650839 0.03581734 0.00921807 0.01511669 0.00116860 0.00783393 0.07885834 0.01928400 0.01747094 
0.01174946 0.03989480 0.00658668 0.00197363 0.01549182 0.00145856 0.01187685 0.00641644 0.03657517 0.00912939 0.01579002 0.00118385 0.00769094 0.07774214 0.01889536 0.01763616 
0.01199428 0.04019706 0.00660441 0.00198557 0.01563514 0.00148407 0.01190213 0.00632568 0.03732797 0.00903226 0.01648074 0.00119916 0.00756705 0.07678503 0.01853340 0.01782116 
0.01223994 0.04047730 0.00661909 0.00199943 0.01576410 0.00150979 0.01191585 0.00623675 0.03807242 0.00892705 0.01718560 0.00121446 0.00746171 0.07599414 0.01820028 0.01802546 
0.01248595 0.04073413 0.00663074 0.00201520 0.01587844 0.00153564 0.01191783 0.00615023 0.03880520 0.00881417 0.01790129 0.00122967 0.00737437 0.07537553 0.01789794 0.01824843 
0.01273186 0.04096626 0.00663936 0.00203289 0.01597798 0.00156152 0.01190795 0.00606668 0.03952300 0.00869404 0.01862438 0.00124472 0.00730448 0.07493407 0.01762811 0.01848931 
0.01297730 0.04117240 0.00664499 0.00205249 0.01606255 0.00158732 0.01188613 0.00598667 0.04022255 0.00856716 0.01935141 0.00125953 0.00725148 0.07467343 0.01739225 0.01874716 
0.01322194 0.04135139 0.00664767 0.00207397 0.01613206 0.00161295 0.01185233 0.00591070 0.04090062 0.00843401 0.02007886 0.00127404 0.00721485 0.07459606 0.01719160 0.01902094 
0.01346553 0.04150210 0.00664744 0.00209731 0.01618644 0.00163830 0.01180659 0.00583924 0.04155406 0.00829514 0.02080317 0.00128818 0.00719405 0.07470313 0.01702712 0.01930943 
0.01370785 0.04162353 0.00664436 0.00212247 0.01622567 0.00166327 0.01174897 0.00577275 0.04217979 0.00815111 0.02152080 0.00130191 0.00718860 0.07499454 0.01689952 0.01961131 
0.01394873 0.04171473 0.00663849 0.00214938 0.01624975 0.00168776 0.01167961 0.00571163 0.04277485 0.00800249 0.02222817 0.00131516 0.00719803 0.07546890 0.01680924 0.01992509 
0.01418808 0.04177490 0.00662990 0.00217798 0.01625876 0.00171167 0.01159866 0.00565625 0.04333639 0.00784990 0.02292178 0.00132789 0.00722190 0.07612354 0.01675645 0.02024919 
0.01442581 0.04180331 0.00661867 0.00220820 0.01625278 0.00173489 0.01150634 0.00560691 0.04386170 0.00769394 0.02359811 0.00134005 0.00725983 0.07695451 0.01674102 0.02058189 
0.01466191 0.04179939 0.00660489 0.00223996 0.01623195 0.00175732 0.01140291 0.00556389 0.04434822 0.00753526 0.02425377 0.00135160 0.00731145 0.07795662 0.01676259 0.02092135 
0.01489636 0.04176265 0.00658865 0.00227315 0.01619642 0.00177887 0.01128868 0.00552741 0.04479356 0.00737449 0.02488538 0.00136251 0.00737645 0.07912344 0.01682050 0.02126566 
0.01512921 0.04169277 0.00657005 0.00230769 0.01614642 0.00179944 0.01116399 0.00549764 0.04519551 0.00721229 0.02548971 0.00137275 0.00745456 0.08044736 0.01691383 0.02161278 
0.01536052 0.04158954 0.00654921 0.00234345 0.01608215 0.00181894 0.01102921 0.00547471 0.04555206 0.00704930 0.02606362 0.00138228 0.00754556 0.08191964 0.01704142 0.02196061 
0.01559036 0.04145290 0.00652622 0.00238033 0.01600390 0.00183728 0.01088476 0.00545868 0.04586138 0.00688620 0.02660410 0.00139108 0.00764928 0.08353043 0.01720184 0.02230697 
0.01581882 0.04128294 0.00650122 0.00241818 0.01591195 0.00185437 0.01073109 0.00544958 0.04612190 0.00672361 0.02710830 0.00139914 0.00776557 0.08526889 0.01739344 0.02264963 
0.01604601 0.04107990 0.00647434 0.00245689 0.01580662 0.00187013 0.01056868 0.00544736 0.04633226 0.00656220 0.02757353 0.00140643 0.00789436 0.08712321 0.01761432 0.02298629 
0.01627202 0.04084415 0.00644569 0.00249631 0.01568827 0.00188449 0.01039803 0.00545195 0.04649132 0.00640260 0.02799727 0.00141295 0.00803558 0.08908072 0.01786240 0.02331466 
0.01649695 0.04057625 0.00641541 0.00253631 0.01555727 0.00189737 0.01021968 0.00546320 0.04659822 0.00624543 0.02837720 0.00141869 0.00818924 0.09112795 0.01813539 0.02363239 
0.01672090 0.04027687 0.00638366 0.00257673 0.01541402 0.00190872 0.01003417 0.00548093 0.04665233 0.00609131 0.02871122 0.00142364 0.00835536 0.09325075 0.01843082 0.02393714 
0.01694394 0.03994687 0.00635056 0.00261743 0.01525894 0.00191847 0.00984208 0.00550490 0.04665329 0.00594084 0.02899743 0.00142779 0.00853400 0.09543436 0.01874606 0.02422659 
0.01716612 0.03958726 0.00631627 0.00265825 0.01509249 0.00192657 0.00964400 0.00553484 0.04660099 0.00579458 0.02923418 0.00143115 0.00872523 0.09766353 0.01907834 0.02449843 
0.01738749 0.03919918 0.00628093 0.00269904 0.01491513 0.00193298 0.00944052 0.00557041 0.04649560 0.00565309 0.02942006 0.00143373 0.00892917 0.09992262 0.01942478 0.02475040 
0.01760805 0.03878393 0.00624470 0.00273966 0.01472735 0.00193765 0.00923226 0.00561125 0.04633755 0.00551690 0.02955391 0.00143552 0.00914594 0.10219571 0.01978240 0.02498030 
0.01782778 0.03834298 0.00620774 0.00277994 0.01452968 0.00194057 0.00901985 0.00565696 0.04612754 0.00538653 0.02963484 0.00143654 0.00937567 0.10446671 0.02014814 0.02518599 
0.01804662 0.03787790 0.00617019 0.00281974 0.01432264 0.00194171 0.00880390 0.00570708 0.04586653 0.00526244 0.02966220 0.00143679 0.00961850 0.10671948 0.02051890 0.02536542 
0.01826446 0.03739044 0.00613223 0.00285891 0.01410680 0.00194105 0.00858505 0.00576115 0.04555576 0.00514508 0.02963566 0.00143629 0.00987455 0.10893793 0.02089154 0.02551666 
0.01848118 0.03688245 0.00609400 0.00289729 0.01388273 0.00193860 0.00836394 0.00581865 0.04519670 0.00503488 0.02955513 0.00143504 0.01014395 0.11110617 0.02126292 0.02563786 
0.01869659 0.03635591 0.00605566 0.00293477 0.01365102 0.00193436 0.00814119 0.00587905 0.04479110 0.00493221 0.02942081 0.00143308 0.01042682 0.11320856 0.02162992 0.02572733 
0.01891047 0.03581294 0.00601739 0.00297119 0.01341230 0.00192834 0.00791744 0.00594181 0.04434094 0.00483744 0.02923321 0.00143040 0.01072322 0.11522990 0.02198946 0.02578353 
0.01912254 0.03525575 0.00597932 0.00300642 0.01316721 0.00192056 0.00769330 0.00600635 0.04384843 0.00475089 0.02899308 0.00142704 0.01103323 0.11715550 0.02233855 0.02580504 
0.01933248 0.03468666 0.00594162 0.00304036 0.01291640 0.00191105 0.00746940 0.00607207 0.04331604 0.00467284 0.02870149 0.00142301 0.01135685 0.11897127 0.02267425 0.02579064 
0.01953995 0.03410806 0.00590445 0.00307287 0.01266055 0.00189987 0.00724635 0.00613840 0.04274642 0.00460355 0.02835976 0.00141833 0.01169406 0.12066388 0.02299377 0.02573928 
0.01974451 0.03352246 0.00586796 0.00310386 0.01240038 0.00188705 0.00702475 0.00620472 0.04214244 0.00454323 0.02796950 0.00141303 0.01204478 0.12222078 0.02329443 0.02565010 
0.01994573 0.03293240 0.00583230 0.00313323 0.01213659 0.00187266 0.00680519 0.00627044 0.04150715 0.00449208 0.02753258 0.00140713 0.01240889 0.12363039 0.02357370 0.02552246 
0.02014311 0.03234050 0.00579761 0.00316090 0.01186995 0.00185676 0.00658826 0.00633496 0.04084380 0.00445023 0.02705113 0.00140066 0.01278619 0.12488209 0.02382925 0.02535590 
0.02033612 0.03174942 0.00576405 0.00318677 0.01160120 0.00183943 0.00637453 0.00639768 0.04015576 0.00441781 0.02652753 0.00139364 0.01317643 0.12596638 0.02405891 0.02515018 
0.02052419 0.03116187 0.00573175 0.00321079 0.01133114 0.00182075 0.00616455 0.00645804 0.03944657 0.00439490 0.02596441 0.00138610 0.01357928 0.12687489 0.02426074 0.02490531 
0.02070671 0.03058057 0.00570085 0.00323290 0.01106057 0.00180082 0.00595887 0.00651546 0.03871988 0.00438154 0.02536462 0.00137807 0.01399433 0.12760049 0.02443300 0.02462150 
0.02088307 0.03000823 0.00567149 0.00325306 0.01079034 0.00177974 0.00575803 0.00656941 0.03797945 0.00437775 0.02473123 0.00136958 0.01442110 0.12813733 0.02457420 0.02429919 
0.02105259 0.02944760 0.00564378 0.00327124 0.01052128 0.00175761 0.00556254 0.00661938 0.03722913 0.00438351 0.02406751 0.00136067 0.01485904 0.12848087 0.02468310 0.02393907 
0.02121462 0.02890138 0.00561785 0.00328740 0.01025426 0.00173454 0.00537291 0.00666486 0.03647282 0.00439877 0.02337691 0.00135137 0.01530749 0.12862796 0.02475870 0.02354206 
0.02136846 0.02837224 0.00559381 0.00330155 0.00999019 0.00171067 0.00518962 0.00670540 0.03571448 0.00442345 0.02266305 0.00134171 0.01576574 0.12857681 0.02480027 0.02310929 
0.02151342 0.02786283 0.00557178 0.00331369 0.00972996 0.00168611 0.00501317 0.00674059 0.03495809 0.00445744 0.02192972 0.00133173 0.01623296 0.12832707 0.02480735 0.02264214 
0.02164881 0.02737572 0.00555184 0.00332383 0.00947451 0.00166099 0.00484402 0.00677003 0.03420762 0.00450060 0.02118081 0.00132147 0.01670826 0.12787979 0.02477975 0.02214223 
0.02177394 0.02691342 0.00553410 0.00333200 0.00922479 0.00163546 0.00468261 0.00679338 0.03346703 0.00455276 0.02042035 0.00131097 0.01719066 0.12723744 0.02471755 0.02161136 
0.02188811 0.02647836 0.00551863 0.00333823 0.00898174 0.00160965 0.00452938 0.00681034 0.03274025 0.00461373 0.01965246 0.00130027 0.01767910 0.12640389 0.02462112 0.02105158 
0.02199069 0.02607286 0.00550552 0.00334258 0.00874635 0.00158371 0.00438477 0.00682065 0.03203111 0.00468330 0.01888132 0.00128942 0.01817244 0.12538439 0.02449107 0.02046514 
0.02208102 0.02569916 0.00549482 0.00334510 0.00851961 0.00155778 0.00424918 0.00682411 0.03134339 0.00476121 0.01811117 0.00127846 0.01866947 0.12418554 0.02432830 0.01985448 
0.02215850 0.02535935 0.00548661 0.00334586 0.00830251 0.00153201 0.00412301 0.00682056 0.03068077 0.00484720 0.01734628 0.00126745 0.01916890 0.12281525 0.02413395 0.01922223 
0.02222256 0.02505540 0.00548092 0.00334495 0.00809605 0.00150655 0.00400666 0.00680988 0.03004677 0.00494098 0.01659091 0.00125642 0.01966937 0.12128267 0.02390942 0.01857120 
0.02227269 0.02478916 0.00547779 0.00334244 0.00790125 0.00148155 0.00390048 0.00679202 0.02944478 0.00504224 0.01584932 0.00124543 0.02016949 0.11959814 0.02365636 0.01790436 
0.02230841 0.02456229 0.00547724 0.00333844 0.00771911 0.00145717 0.00380485 0.00676696 0.02887805 0.00515065 0.01512574 0.00123454 0.02066779 0.11777315 0.02337661 0.01722482 
0.02232930 0.02437633 0.00547931 0.00333306 0.00755065 0.00143354 0.00372012 0.00673476 0.02834961 0.00526586 0.01442433 0.00122379 0.02116275 0.11582019 0.02307225 0.01653584 
0.02233501 0.02423261 0.00548397 0.00332639 0.00739687 0.00141082 0.00364661 0.00669550 0.02786230 0.00538750 0.01374914 0.00121325 0.02165284 0.11375274 0.02274555 0.01584078 
0.02232527 0.02413233 0.00549124 0.00331857 0.00725876 0.00138916 0.00358464 0.00664934 0.02741876 0.00551519 0.01310417 0.00120296 0.02213647 0.11158514 0.02239896 0.01514311 
0.02229986 0.02407645 0.00550109 0.00330971 0.00713733 0.00136869 0.00353452 0.00659646 0.02702139 0.00564854 0.01249325 0.00119300 0.02261204 0.10933248 0.02203508 0.01444637 
0.02225866 0.02406580 0.00551348 0.00329995 0.00703352 0.00134956 0.00349655 0.00653711 0.02667232 0.00578712 0.01192007 0.00118342 0.02307794 0.10701053 0.02165666 0.01375418 
0.02220161 0.02410098 0.00552838 0.00328940 0.00694830 0.00133189 0.00347099 0.00647158 0.02637347 0.00593053 0.01138817 0.00117428 0.02353255 0.10463561 0.02126656 0.01307018 
0.02212877 0.02418239 0.00554571 0.00327822 0.00688258 0.00131582 0.00345811 0.00640020 0.02612645 0.00607832 0.01090088 0.00116564 0.02397427 0.10222446 0.02086774 0.01239804 
0.02204026 0.02431024 0.00556542 0.00326654 0.00683725 0.00130147 0.00345814 0.00632335 0.02593260 0.00623004 0.01046134 0.00115757 0.02440151 0.09979415 0.02046325 0.01174144 
0.02193630 0.02448455 0.00558742 0.00325448 0.00681319 0.00128895 0.00347130 0.00624145 0.02579300 0.00638524 0.01007245 0.00115012 0.02481269 0.09736197 0.02005617 0.01110404 
0.02181722 0.02470511 0.00561160 0.00324220 0.00681119 0.00127838 0.00349780 0.00615495 0.02570841 0.00654346 0.00973688 0.00114335 0.02520630 0.09494526 0.01964962 0.01048945 
0.02168343 0.02497151 0.00563787 0.00322982 0.00683205 0.00126985 0.00353781 0.00606434 0.02567931 0.00670423 0.00945705 0.00113734 0.02558084 0.09256134 0.01924672 0.00990122 
0.02153543 0.02528317 0.00566608 0.00321749 0.00687648 0.00126346 0.00359149 0.00597014 0.02570588 0.00686707 0.00923508 0.00113213 0.02593489 0.09022735 0.01885057 0.00934282 
0.02137384 0.02563927 0.00569611 0.00320533 0.00694515 0.00125930 0.00365896 0.00587290 0.02578799 0.00703150 0.00907284 0.00112779 0.02626708 0.08796015 0.01846423 0.00881763 
0.02119935 0.02603882 0.00572780 0.00319348 0.00703867 0.00125744 0.00374035 0.00577318 0.02592523 0.00719705 0.00897188 0.00112437 0.02657614 0.08577622 0.01809071 0.00832888 
0.02101276 0.02648063 0.00576098 0.00318205 0.00715759 0.00125794 0.00383570 0.00567158 0.02611689 0.00736322 0.00893344 0.00112194 0.02686085 0.08369150 0.01773291 0.00787967 
0.02081495 0.02696333 0.00579549 0.00317117 0.00730236 0.00126087 0.00394509 0.00556871 0.02636196 0.00752952 0.00895848 0.00112053 0.02712010 0.08172130 0.01739363 0.00747293 
0.02060689 0.02748537 0.00583112 0.00316096 0.00747341 0.00126628 0.00406851 0.00546517 0.02665917 0.00769548 0.00904759 0.00112020 0.02735289 0.07988019 0.01707555 0.00711142 
0.02038963 0.02804503 0.00586767 0.00315152 0.00767103 0.00127418 0.00420594 0.00536161 0.02700696 0.00786062 0.00920106 0.00112101 0.02755831 0.07818191 0.01678118 0.00679768 
0.02016430 0.02864043 0.00590494 0.00314295 0.00789546 0.00128463 0.00435734 0.00525864 0.02740351 0.00802444 0.00941886 0.00112298 0.02773557 0.07663926 0.01651287 0.00653404 
0.01993212 0.02926952 0.00594269 0.00313534 0.00814685 0.00129762 0.00452259 0.00515690 0.02784675 0.00818649 0.00970061 0.00112617 0.02788400 0.07526400 0.01627280 0.00632259 
0.01969434 0.02993015 0.00598069 0.00312878 0.00842524 0.00131316 0.00470158 0.00505701 0.02833437 0.00834628 0.01004558 0.00113059 0.02800306 0.07406678 0.01606292 0.00616517 
0.01945230 0.03062001 0.00601868 0.00312334 0.00873059 0.00133126 0.00489412 0.00495959 0.02886384 0.00850335 0.01045276 0.00113629 0.02809232 0.07305709 0.01588499 0.00606337 
0.01920739 0.03133666 0.00605642 0.00311909 0.00906274 0.00135188 0.00510000 0.00486525 0.02943242 0.00865727 0.01092076 0.00114329 0.02815151 0.07224313 0.01574052 0.00601847 
0.01896103 0.03207760 0.00609363 0.00311609 0.00942145 0.00137501 0.00531894 0.00477456 0.03003718 0.00880757 0.01144791 0.00115160 0.02818049 0.07163180 0.01563079 0.00603149 
0.01871468 0.03284020 0.00613004 0.00311438 0.00980634 0.00140060 0.00555065 0.00468809 0.03067502 0.00895383 0.01203220 0.00116124 0.02817923 0.07122865 0.01555682 0.00610313 
0.01846983 0.03362176 0.00616538 0.00311400 0.01021697 0.00142861 0.00579476 0.00460639 0.03134269 0.00909563 0.01267131 0.00117222 0.02814788 0.07103782 0.01551940 0.00623380 
0.01822801 0.03441952 0.00619935 0.00311497 0.01065273 0.00145898 0.00605088 0.00452997 0.03203681 0.00923257 0.01336266 0.00118453 0.02808671 0.07106202 0.01551902 0.00642358 
0.01799071 0.03523068 0.00623167 0.00311731 0.01111295 0.00149163 0.00631853 0.00445930 0.03275388 0.00936426 0.01410334 0.00119817 0.02799611 0.07130251 0.01555594 0.00667225 
0.01775947 0.03605239 0.00626204 0.00312103 0.01159681 0.00152650 0.00659723 0.00439484 0.03349034 0.00949033 0.01489022 0.00121312 0.02787664 0.07175909 0.01563011 0.00697925 
0.01753579 0.03688180 0.00629017 0.00312612 0.01210341 0.00156349 0.00688642 0.00433700 0.03424252 0.00961043 0.01571988 0.00122936 0.02772897 0.07243009 0.01574127 0.00734369 
0.01732115 0.03771602 0.00631576 0.00313256 0.01263170 0.00160251 0.00718549 0.00428615 0.03500676 0.00972423 0.01658868 0.00124687 0.02755391 0.07331242 0.01588883 0.00776439 
0.01711701 0.03855220 0.00633852 0.00314033 0.01318055 0.00164344 0.00749380 0.00424261 0.03577933 0.00983142 0.01749275 0.00126562 0.02735239 0.07440154 0.01607200 0.00823982 
0.01692478 0.03938751 0.00635815 0.00314938 0.01374870 0.00168618 0.00781063 0.00420667 0.03655654 0.00993171 0.01842804 0.00128555 0.02712546 0.07569150 0.01628969 0.00876814 
0.01674582 0.04021916 0.00637436 0.00315968 0.01433478 0.00173061 0.00813524 0.00417857 0.03733471 0.01002484 0.01939032 0.00130661 0.02687430 0.07717501 0.01654059 0.00934720 
0.01658145 0.04104440 0.00638686 0.00317117 0.01493734 0.00177658 0.00846682 0.00415850 0.03811020 0.01011057 0.02037518 0.00132877 0.02660019 0.07884348 0.01682314 0.00997457 
0.01643288 0.04186056 0.00639539 0.00318378 0.01555480 0.00182398 0.00880454 0.00414659 0.03887946 0.01018870 0.02137811 0.00135194 0.02630449 0.08068705 0.01713556 0.01064751 
0.01630127 0.04266503 0.00639967 0.00319744 0.01618550 0.00187265 0.00914751 0.00414294 0.03963900 0.01025903 0.02239448 0.00137607 0.02598868 0.08269469 0.01747587 0.01136298 
0.01618769 0.04345533 0.00639944 0.00321206 0.01682767 0.00192244 0.00949479 0.00414758 0.04038547 0.01032143 0.02341956 0.00140107 0.02565433 0.08485425 0.01784187 0.01211773 
0.01609310 0.04422904 0.00639446 0.00322756 0.01747947 0.00197321 0.00984542 0.00416052 0.04111563 0.01037576 0.02444858 0.00142687 0.02530305 0.08715256 0.01823120 0.01290820 
0.01601836 0.04498388 0.00638450 0.00324383 0.01813896 0.00202479 0.01019840 0.00418169 0.04182640 0.01042192 0.02547673 0.00145337 0.02493655 0.08957553 0.01864131 0.01373065 
0.01596424 0.04571769 0.00636933 0.00326078 0.01880413 0.00207702 0.01055268 0.00421098 0.04251485 0.01045986 0.02649919 0.00148050 0.02455659 0.09210822 0.01906955 0.01458109 
0.01593137 0.04642845 0.00634875 0.00327829 0.01947291 0.00212973 0.01090721 0.00424824 0.04317824 0.01048954 0.02751116 0.00150813 0.02416495 0.09473493 0.01951310 0.01545536 
0.01592026 0.04711427 0.00632259 0.00329624 0.02014317 0.00218276 0.01126088 0.00429325 0.04381402 0.01051097 0.02850789 0.00153619 0.02376350 0.09743937 0.01996906 0.01634913 
0.01593128 0.04777341 0.00629069 0.00331452 0.02081270 0.00223593 0.01161259 0.00434576 0.04441985 0.01052417 0.02948470 0.00156456 0.02335408 0.10020470 0.02043444 0.01725790 
0.01596471 0.04840430 0.00625289 0.00333300 0.02147927 0.00228907 0.01196121 0.00440549 0.04499360 0.01052921 0.03043698 0.00159314 0.02293859 0.10301369 0.02090618 0.01817707 
0.01602065 0.04900552 0.00620910 0.00335156 0.02214061 0.00234200 0.01230560 0.00447208 0.04553339 0.01052618 0.03136028 0.00162182 0.02251891 0.10584880 0.02138120 0.01910194 
0.01609908 0.04957581 0.00615921 0.00337005 0.02279443 0.00239456 0.01264460 0.00454516 0.04603754 0.01051521 0.03225026 0.00165048 0.02209692 0.10869235 0.02185637 0.02002775 
0.01619984 0.05011410 0.00610317 0.00338835 0.02343839 0.00244655 0.01297708 0.00462431 0.04650465 0.01049646 0.03310278 0.00167901 0.02167450 0.11152659 0.02232860 0.02094968 
0.01632263 0.05061945 0.00604093 0.00340633 0.02407018 0.00249782 0.01330188 0.00470908 0.04693354 0.01047012 0.03391387 0.00170730 0.02125348 0.11433385 0.02279480 0.02186289 
0.01646701 0.05109113 0.00597250 0.00342385 0.02468748 0.00254818 0.01361787 0.00479897 0.04732328 0.01043640 0.03467978 0.00173525 0.02083568 0.11709662 0.02325194 0.02276260 
0.01663240 0.05152856 0.00589788 0.00344078 0.02528797 0.00259746 0.01392392 0.00489349 0.04767320 0.01039556 0.03539700 0.00176273 0.02042288 0.11979774 0.02369707 0.02364401 
0.01681808 0.05193132 0.00581713 0.00345698 0.02586938 0.00264551 0.01421895 0.00499208 0.04798289 0.01034786 0.03606227 0.00178964 0.02001677 0.12242044 0.02412731 0.02450245 
0.01702321 0.05229917 0.00573034 0.00347232 0.02642945 0.00269214 0.01450186 0.00509419 0.04825216 0.01029361 0.03667259 0.00181588 0.01961903 0.12494850 0.02453991 0.02533333 
0.01724682 0.05263201 0.00563763 0.00348668 0.02696597 0.00273721 0.01477163 0.00519924 0.04848109 0.01023313 0.03722528 0.00184133 0.01923123 0.12736632 0.02493223 0.02613217 
0.01748779 0.05292993 0.00553914 0.00349993 0.02747680 0.00278055 0.01502724 0.00530662 0.04866998 0.01016678 0.03771793 0.00186592 0.01885490 0.12965908 0.02530181 0.02689468 
0.01774492 0.05319312 0.00543505 0.00351195 0.02795984 0.00282201 0.01526774 0.00541575 0.04881936 0.01009492 0.03814846 0.00188953 0.01849145 0.13181277 0.02564632 0.02761675 
0.01801687 0.05342196 0.00532559 0.00352262 0.02841309 0.00286144 0.01549221 0.00552599 0.04893001 0.01001794 0.03851514 0.00191209 0.01814224 0.13381434 0.02596363 0.02829446 
0.01830221 0.05361693 0.00521099 0.00353184 0.02883462 0.00289871 0.01569980 0.00563674 0.04900288 0.00993625 0.03881654 0.00193351 0.01780850 0.13565176 0.02625183 0.02892417 
0.01859941 0.05377866 0.00509155 0.00353950 0.02922261 0.00293369 0.01588971 0.00574738 0.04903917 0.00985028 0.03905160 0.00195372 0.01749139 0.13731408 0.02650918 0.02950246 
0.01890686 0.05390786 0.00496758 0.00354550 0.02957532 0.00296623 0.01606121 0.00585730 0.04904023 0.00976046 0.03921960 0.00197265 0.01719195 0.13879155 0.02673418 0.03002623 
0.01922286 0.05400540 0.00483942 0.00354975 0.02989114 0.00299624 0.01621363 0.00596589 0.04900761 0.00966723 0.03932019 0.00199025 0.01691112 0.14007565 0.02692557 0.03049268 
0.01954566 0.05407219 0.00470746 0.00355217 0.03016860 0.00302360 0.01634639 0.00607257 0.04894303 0.00957106 0.03935337 0.00200645 0.01664973 0.14115912 0.02708231 0.03089932 
0.01987345 0.05410927 0.00457211 0.00355269 0.03040631 0.00304821 0.01645898 0.00617676 0.04884833 0.00947240 0.03931949 0.00202124 0.01640848 0.14203607 0.02720363 0.03124404 
0.02020435 0.05411772 0.00443380 0.00355123 0.03060308 0.00306997 0.01655096 0.00627791 0.04872551 0.00937171 0.03921926 0.00203456 0.01618798 0.14270197 0.02728899 0.03152505 
0.02053648 0.05409869 0.00429300 0.00354775 0.03075781 0.00308881 0.01662199 0.00637547 0.04857669 0.00926948 0.03905374 0.00204639 0.01598872 0.14315367 0.02733812 0.03174098 
0.02086793 0.05405340 0.00415021 0.00354220 0.03086958 0.00310466 0.01667181 0.00646895 0.04840407 0.00916615 0.03882433 0.00205674 0.01581106 0.14338945 0.02735099 0.03189083 
0.02119677 0.05398308 0.00400594 0.00353454 0.03093762 0.00311745 0.01670026 0.00655786 0.04820996 0.00906219 0.03853277 0.00206558 0.01565527 0.14340901 0.02732784 0.03197397 
0.02152107 0.05388900 0.00386074 0.00352474 0.03096132 0.00312714 0.01670725 0.00664175 0.04799673 0.00895805 0.03818113 0.00207294 0.01552149 0.14321345 0.02726914 0.03199023 
0.02183892 0.05377244 0.00371518 0.00351279 0.03094023 0.00313369 0.01669281 0.00672021 0.04776681 0.00885418 0.03777177 0.00207882 0.01540975 0.14280530 0.02717564 0.03193979 
0.02214845 0.05363469 0.00356982 0.00349869 0.03087407 0.00313708 0.01665705 0.00679286 0.04752266 0.00875102 0.03730738 0.00208325 0.01531996 0.14218845 0.02704829 0.03182328 
0.02244780 0.05347701 0.00342528 0.00348245 0.03076275 0.00313728 0.01660016 0.00685935 0.04726676 0.00864898 0.03679091 0.00208627 0.01525195 0.14136815 0.02688831 0.03164173 
0.02273518 0.05330068 0.00328216 0.00346407 0.03060631 0.00313432 0.01652245 0.00691940 0.04700163 0.00854847 0.03622557 0.00208793 0.01520543 0.14035097 0.02669712 0.03139655 
0.02300884 0.05310690 0.00314110 0.00344359 0.03040501 0.00312818 0.01642431 0.00697272 0.04672973 0.00844988 0.03561486 0.00208828 0.01518001 0.13914472 0.02647635 0.03108959 
0.02326713 0.05289687 0.00300271 0.00342104 0.03015925 0.00311890 0.01630622 0.00701911 0.04645354 0.00835358 0.03496245 0.00208738 0.01517520 0.13775844 0.02622786 0.03072305 
0.02350845 0.05267172 0.00286764 0.00339649 0.02986961 0.00310653 0.01616875 0.00705840 0.04617549 0.00825992 0.03427225 0.00208531 0.01519043 0.13620230 0.02595365 0.03029952 
0.02373131 0.05243253 0.00273652 0.00336998 0.02953686 0.00309110 0.01601257 0.00709044 0.04589795 0.00816923 0.03354835 0.00208215 0.01522503 0.13448751 0.02565593 0.02982197 
0.02393432 0.05218032 0.00261001 0.00334159 0.02916190 0.00307268 0.01583841 0.00711516 0.04562326 0.00808180 0.03279499 0.00207798 0.01527827 0.13262630 0.02533705 0.02929369 
0.02411618 0.05191602 0.00248872 0.00331141 0.02874583 0.00305135 0.01564710 0.00713250 0.04535367 0.00799791 0.03201656 0.00207291 0.01534934 0.13063179 0.02499947 0.02871831 
0.02427574 0.05164051 0.00237329 0.00327952 0.02828989 0.00302719 0.01543953 0.00714247 0.04509134 0.00791783 0.03121754 0.00206702 0.01543733 0.12851788 0.02464582 0.02809975 
0.02441194 0.05135456 0.00226434 0.00324603 0.02779549 0.00300032 0.01521668 0.00714512 0.04483836 0.00784177 0.03040253 0.00206043 0.01554131 0.12629922 0.02427878 0.02744224 
0.02452386 0.05105887 0.00216247 0.00321105 0.02726418 0.00297085 0.01497959 0.00714052 0.04459670 0.00776993 0.02957616 0.00205325 0.01566027 0.12399103 0.02390113 0.02675023 
0.02461072 0.05075403 0.00206826 0.00317470 0.02669765 0.00293889 0.01472935 0.00712881 0.04436826 0.00770248 0.02874309 0.00204560 0.01579315 0.12160905 0.02351571 0.02602842 
0.02467187 0.05044056 0.00198228 0.00313710 0.02609774 0.00290460 0.01446711 0.00711016 0.04415478 0.00763957 0.02790802 0.00203758 0.01593886 0.11916941 0.02312540 0.02528170 
0.02470682 0.05011888 0.00190508 0.00309840 0.02546642 0.00286812 0.01419409 0.00708476 0.04395793 0.00758132 0.02707561 0.00202931 0.01609625 0.11668852 0.02273308 0.02451512 
0.02471520 0.04978931 0.00183716 0.00305874 0.02480577 0.00282960 0.01391153 0.00705286 0.04377923 0.00752781 0.02625047 0.00202093 0.01626416 0.11418296 0.02234165 0.02373387 
0.02469680 0.04945207 0.00177901 0.00301827 0.02411798 0.00278923 0.01362070 0.00701473 0.04362009 0.00747911 0.02543717 0.00201254 0.01644139 0.11166938 0.02195397 0.02294324 
0.02465155 0.04910730 0.00173108 0.00297714 0.02340537 0.00274719 0.01332292 0.00697069 0.04348178 0.00743525 0.02464016 0.00200428 0.01662675 0.10916437 0.02157285 0.02214859 
0.02457953 0.04875506 0.00169379 0.00293552 0.02267031 0.00270365 0.01301952 0.00692106 0.04336547 0.00739625 0.02386379 0.00199625 0.01681900 0.10668433 0.02120106 0.02135529 
0.02448097 0.04839531 0.00166750 0.00289357 0.02191530 0.00265883 0.01271185 0.00686623 0.04327219 0.00736209 0.02311227 0.00198857 0.01701692 0.10424543 0.02084126 0.02056873 
0.02435622 0.04802792 0.00165257 0.00285146 0.02114288 0.00261292 0.01240126 0.00680657 0.04320282 0.00733274 0.02238963 0.00198136 0.01721928 0.10186343 0.02049602 0.01979425 
0.02420579 0.04765270 0.00164926 0.00280936 0.02035568 0.00256613 0.01208911 0.00674250 0.04315817 0.00730815 0.02169974 0.00197472 0.01742487 0.09955360 0.02016779 0.01903711 
0.02403031 0.04726939 0.00165783 0.00276745 0.01955635 0.00251869 0.01177674 0.00667445 0.04313886 0.00728823 0.02104627 0.00196877 0.01763249 0.09733065 0.01985887 0.01830247 
0.02383055 0.04687767 0.00167847 0.00272589 0.01874760 0.00247082 0.01146549 0.00660287 0.04314545 0.00727290 0.02043265 0.00196359 0.01784095 0.09520858 0.01957143 0.01759532 
0.02360740 0.04647714 0.00171133 0.00268487 0.01793218 0.00242274 0.01115665 0.00652822 0.04317836 0.00726205 0.01986208 0.00195928 0.01804909 0.09320065 0.01930746 0.01692050 
0.02336186 0.04606739 0.00175649 0.00264455 0.01711284 0.00237467 0.01085151 0.00645096 0.04323787 0.00725554 0.01933752 0.00195593 0.01825577 0.09131924 0.01906876 0.01628263 
0.02309504 0.04564793 0.00181400 0.00260510 0.01629234 0.00232686 0.01055132 0.00637158 0.04332420 0.00725324 0.01886166 0.00195360 0.01845990 0.08957581 0.01885694 0.01568606 
0.02280815 0.04521828 0.00188383 0.00256671 0.01547343 0.00227952 0.01025726 0.00629055 0.04343742 0.00725501 0.01843690 0.00195239 0.01866041 0.08798081 0.01867343 0.01513490 
0.02250251 0.04477791 0.00196591 0.00252952 0.01465888 0.00223289 0.00997050 0.00620837 0.04357754 0.00726069 0.01806536 0.00195233 0.01885630 0.08654362 0.01851941 0.01463294 
0.02217950 0.04432629 0.00206012 0.00249370 0.01385138 0.00218719 0.00969212 0.00612550 0.04374444 0.00727011 0.01774886 0.00195349 0.01904659 0.08527251 0.01839588 0.01418366 
0.02184058 0.04386288 0.00216627 0.00245941 0.01305363 0.00214266 0.00942316 0.00604244 0.04393793 0.00728311 0.01748893 0.00195590 0.01923036 0.08417457 0.01830357 0.01379016 
0.02148728 0.04338717 0.00228412 0.00242678 0.01226825 0.00209949 0.00916459 0.00595965 0.04415771 0.00729951 0.01728677 0.00195961 0.01940674 0.08325565 0.01824303 0.01345518 
0.02112119 0.04289864 0.00241336 0.00239597 0.01149783 0.00205792 0.00891730 0.00587758 0.04440343 0.00731914 0.01714328 0.00196462 0.01957492 0.08252041 0.01821454 0.01318109 
0.02074392 0.04239683 0.00255365 0.00236711 0.01074486 0.00201815 0.00868212 0.00579670 0.04467464 0.00734184 0.01705905 0.00197096 0.01973416 0.08197220 0.01821816 0.01296980 
0.02035713 0.04188128 0.00270458 0.00234031 0.01001179 0.00198038 0.00845979 0.00571744 0.04497082 0.00736743 0.01703434 0.00197863 0.01988376 0.08161310 0.01825372 0.01282285 
0.01996250 0.04135161 0.00286569 0.00231570 0.00930096 0.00194480 0.00825097 0.00564021 0.04529138 0.00739574 0.01706911 0.00198762 0.02002308 0.08144391 0.01832082 0.01274130 
0.01956173 0.04080748 0.00303646 0.00229337 0.00861462 0.00191158 0.00805623 0.00556541 0.04563567 0.00742664 0.01716301 0.00199792 0.02015158 0.08146414 0.01841883 0.01272580 
0.01915651 0.04024864 0.00321633 0.00227343 0.00795492 0.00188091 0.00787607 0.00549343 0.04600298 0.00745995 0.01731539 0.00200949 0.02026875 0.08167203 0.01854691 0.01277654 
0.01874853 0.03967488 0.00340469 0.00225594 0.00732389 0.00185293 0.00771088 0.00542462 0.04639253 0.00749554 0.01752529 0.00202230 0.02037416 0.08206457 0.01870400 0.01289326 
0.01833946 0.03908609 0.00360088 0.00224098 0.00672347 0.00182779 0.00756097 0.00535931 0.04680349 0.00753329 0.01779149 0.00203630 0.02046744 0.08263752 0.01888884 0.01307525 
0.01793094 0.03848227 0.00380421 0.00222860 0.00615543 0.00180562 0.00742657 0.00529783 0.04723497 0.00757306 0.01811248 0.00205145 0.02054830 0.08338547 0.01909997 0.01332136 
0.01752457 0.03786349 0.00401393 0.00221886 0.00562146 0.00178654 0.00730779 0.00524045 0.04768605 0.00761476 0.01848646 0.00206767 0.02061650 0.08430185 0.01933576 0.01363000 
0.01712192 0.03722994 0.00422927 0.00221176 0.00512309 0.00177065 0.00720469 0.00518744 0.04815573 0.00765828 0.01891141 0.00208490 0.02067189 0.08537900 0.01959440 0.01399914 
0.01672448 0.03658192 0.00444943 0.00220734 0.00466171 0.00175803 0.00711721 0.00513902 0.04864298 0.00770353 0.01938506 0.00210305 0.02071436 0.08660825 0.01987394 0.01442638 
0.01633372 0.03591985 0.00467356 0.00220560 0.00423856 0.00174875 0.00704522 0.00509539 0.04914673 0.00775046 0.01990491 0.00212205 0.02074388 0.08797993 0.02017227 0.01490886 
0.01595100 0.03524425 0.00490080 0.00220651 0.00385475 0.00174286 0.00698849 0.00505674 0.04966583 0.00779900 0.02046825 0.00214180 0.02076047 0.08948350 0.02048717 0.01544339 
0.01557764 0.03455580 0.00513027 0.00221005 0.00351124 0.00174039 0.00694673 0.00502322 0.05019911 0.00784911 0.02107219 0.00216221 0.02076424 0.09110758 0.02081630 0.01602640 
0.01521484 0.03385527 0.00536107 0.00221619 0.00320882 0.00174135 0.00691956 0.00499494 0.05074535 0.00790075 0.02171365 0.00218317 0.02075531 0.09284007 0.02115724 0.01665399 
0.01486375 0.03314359 0.00559228 0.00222487 0.00294814 0.00174576 0.00690652 0.00497199 0.05130329 0.00795391 0.02238940 0.00220458 0.02073392 0.09466819 0.02150748 0.01732196 
0.01452542 0.03242181 0.00582299 0.00223602 0.00272970 0.00175357 0.00690708 0.00495444 0.05187160 0.00800858 0.02309607 0.00222633 0.02070031 0.09657862 0.02186448 0.01802582 
0.01420080 0.03169109 0.00605226 0.00224955 0.00255383 0.00176475 0.00692065 0.00494232 0.05244892 0.00806476 0.02383019 0.00224831 0.02065480 0.09855755 0.02222562 0.01876084 
0.01389075 0.03095277 0.00627917 0.00226537 0.00242071 0.00177925 0.00694659 0.00493566 0.05303385 0.00812247 0.02458815 0.00227041 0.02059775 0.10059079 0.02258831 0.01952206 
0.01359602 0.03020827 0.00650281 0.00228338 0.00233038 0.00179699 0.00698417 0.00493442 0.05362492 0.00818173 0.02536629 0.00229252 0.02052958 0.10266387 0.02294992 0.02030436 
0.01331728 0.02945917 0.00672226 0.00230345 0.00228272 0.00181787 0.00703263 0.00493857 0.05422064 0.00824257 0.02616088 0.00231452 0.02045075 0.10476212 0.02330786 0.02110244 
0.01305508 0.02870715 0.00693662 0.00232545 0.00227744 0.00184178 0.00709118 0.00494805 0.05481944 0.00830503 0.02696814 0.00233630 0.02036175 0.10687081 0.02365955 0.02191092 
0.01280987 0.02795404 0.00714504 0.00234924 0.00231415 0.00186860 0.00715896 0.00496277 0.05541972 0.00836916 0.02778429 0.00235776 0.02026311 0.10897517 0.02400248 0.02272433 
0.01258201 0.02720175 0.00734664 0.00237467 0.00239227 0.00189819 0.00723508 0.00498262 0.05601984 0.00843499 0.02860553 0.00237877 0.02015539 0.11106058 0.02433421 0.02353716 
0.01237175 0.02645234 0.00754062 0.00240156 0.00251111 0.00193037 0.00731865 0.00500747 0.05661810 0.00850258 0.02942807 0.00239923 0.02003921 0.11311257 0.02465238 0.02434389 
0.01217926 0.02570794 0.00772618 0.00242976 0.00266982 0.00196499 0.00740873 0.00503716 0.05721274 0.00857199 0.03024815 0.00241906 0.01991518 0.11511699 0.02495472 0.02513907 
0.01200459 0.02497080 0.00790257 0.00245909 0.00286744 0.00200185 0.00750437 0.00507154 0.05780199 0.00864326 0.03106208 0.00243813 0.01978394 0.11706005 0.02523908 0.02591729 
0.01184770 0.02424324 0.00806907 0.00248935 0.00310287 0.00204075 0.00760461 0.00511041 0.05838400 0.00871644 0.03186623 0.00245637 0.01964617 0.11892843 0.02550346 0.02667326 
0.01170849 0.02352768 0.00822502 0.00252036 0.00337491 0.00208149 0.00770850 0.00515358 0.05895691 0.00879157 0.03265703 0.00247368 0.01950255 0.12070937 0.02574597 0.02740185 
0.01158674 0.02282660 0.00836980 0.00255192 0.00368221 0.00212384 0.00781507 0.00520082 0.05951878 0.00886871 0.03343105 0.00248998 0.01935376 0.12239069 0.02596489 0.02809809 
0.01148217 0.02214254 0.00850284 0.00258383 0.00402335 0.00216756 0.00792337 0.00525191 0.06006768 0.00894787 0.03418492 0.00250520 0.01920051 0.12396096 0.02615866 0.02875726 
0.01139441 0.02147811 0.00862362 0.00261590 0.00439677 0.00221242 0.00803248 0.00530661 0.06060160 0.00902909 0.03491545 0.00251926 0.01904350 0.12540948 0.02632589 0.02937486 
0.01132303 0.02083593 0.00873169 0.00264792 0.00480085 0.00225818 0.00814145 0.00536467 0.06111855 0.00911239 0.03561955 0.00253211 0.01888345 0.12672638 0.02646538 0.02994667 
0.01126754 0.02021867 0.00882664 0.00267969 0.00523386 0.00230458 0.00824941 0.00542582 0.06161647 0.00919777 0.03629429 0.00254368 0.01872104 0.12790270 0.02657612 0.03046880 
0.01122737 0.01962901 0.00890814 0.00271102 0.00569400 0.00235136 0.00835549 0.00548980 0.06209331 0.00928522 0.03693692 0.00255394 0.01855697 0.12893039 0.02665726 0.03093767 
0.01120191 0.01906965 0.00897591 0.00274169 0.00617939 0.00239827 0.00845885 0.00555633 0.06254700 0.00937473 0.03754482 0.00256284 0.01839193 0.12980238 0.02670820 0.03135008 
0.01119050 0.01854325 0.00902973 0.00277152 0.00668808 0.00244505 0.00855869 0.00562512 0.06297545 0.00946627 0.03811559 0.00257035 0.01822659 0.13051265 0.02672851 0.03170321 
0.01119243 0.01805248 0.00906947 0.00280032 0.00721808 0.00249144 0.00865427 0.00569590 0.06337659 0.00955979 0.03864698 0.00257644 0.01806159 0.13105619 0.02671796 0.03199461 
0.01120697 0.01759995 0.00909504 0.00282791 0.00776732 0.00253718 0.00874487 0.00576837 0.06374834 0.00965523 0.03913697 0.00258110 0.01789758 0.13142910 0.02667653 0.03222230 
0.01123334 0.01718823 0.00910642 0.00285410 0.00833373 0.00258201 0.00882984 0.00584224 0.06408866 0.00975252 0.03958369 0.00258431 0.01773515 0.13162854 0.02660441 0.03238469 
0.01127076 0.01681985 0.00910366 0.00287874 0.00891516 0.00262569 0.00890856 0.00591721 0.06439551 0.00985156 0.03998553 0.00258608 0.01757488 0.13165280 0.02650197 0.03248066 
0.01131840 0.01649722 0.00908688 0.00290165 0.00950948 0.00266797 0.00898048 0.00599299 0.06466690 0.00995224 0.04034102 0.00258641 0.01741733 0.13150126 0.02636980 0.03250951 
0.01137545 0.01622270 0.00905626 0.00292269 0.01011450 0.00270862 0.00904510 0.00606928 0.06490087 0.01005444 0.04064895 0.00258532 0.01726302 0.13117444 0.02620866 0.03247103 
0.01144108 0.01599853 0.00901204 0.00294172 0.01072804 0.00274740 0.00910198 0.00614579 0.06509552 0.01015802 0.04090829 0.00258281 0.01711242 0.13067391 0.02601951 0.03236545 
0.01151445 0.01582683 0.00895451 0.00295862 0.01134792 0.00278409 0.00915073 0.00622222 0.06524901 0.01026282 0.04111822 0.00257893 0.01696599 0.13000236 0.02580347 0.03219345 
0.01159473 0.01570960 0.00888404 0.00297326 0.01197196 0.00281850 0.00919103 0.00629829 0.06535958 0.01036868 0.04127814 0.00257368 0.01682413 0.12916352 0.02556186 0.03195619 
0.01168111 0.01564868 0.00880106 0.00298555 0.01259800 0.00285041 0.00922261 0.00637369 0.06542556 0.01047539 0.04138765 0.00256713 0.01668720 0.12816217 0.02529615 0.03165524 
0.01177277 0.01564576 0.00870603 0.00299540 0.01322390 0.00287965 0.00924527 0.00644816 0.06544535 0.01058277 0.04144654 0.00255929 0.01655553 0.12700408 0.02500794 0.03129263 
0.01186895 0.01570237 0.00859947 0.00300273 0.01384753 0.00290605 0.00925887 0.00652140 0.06541748 0.01069060 0.04145483 0.00255023 0.01642940 0.12569599 0.02469900 0.03087081 
0.01196887 0.01581985 0.00848197 0.00300748 0.01446682 0.00292945 0.00926331 0.00659314 0.06534060 0.01079864 0.04141271 0.00253999 0.01630904 0.12424555 0.02437122 0.03039263 
0.01207178 0.01599934 0.00835413 0.00300962 0.01507973 0.00294972 0.00925857 0.00666312 0.06521347 0.01090666 0.04132058 0.00252862 0.01619464 0.12266129 0.02402661 0.02986132 
0.01217700 0.01624180 0.00821661 0.00300910 0.01568427 0.00296673 0.00924467 0.00673105 0.06503499 0.01101441 0.04117901 0.00251619 0.01608634 0.12095253 0.02366730 0.02928050 
0.01228384 0.01654795 0.00807012 0.00300592 0.01627850 0.00298037 0.00922171 0.00679670 0.06480422 0.01112162 0.04098879 0.00250274 0.01598422 0.11912937 0.02329548 0.02865411 
0.01239166 0.01691831 0.00791537 0.00300007 0.01686057 0.00299057 0.00918982 0.00685980 0.06452038 0.01122804 0.04075084 0.00248835 0.01588835 0.11720260 0.02291344 0.02798643 
0.01249986 0.01735314 0.00775313 0.00299157 0.01742866 0.00299725 0.00914918 0.00692011 0.06418286 0.01133337 0.04046629 0.00247306 0.01579871 0.11518365 0.02252356 0.02728201 
0.01260788 0.01785248 0.00758418 0.00298046 0.01798105 0.00300036 0.00910004 0.00697739 0.06379121 0.01143735 0.04013640 0.00245695 0.01571525 0.11308450 0.02212822 0.02654568 
0.01271521 0.01841612 0.00740931 0.00296677 0.01851608 0.00299986 0.00904267 0.00703141 0.06334520 0.01153968 0.03976263 0.00244008 0.01563789 0.11091762 0.02172988 0.02578248 
0.01282136 0.01904361 0.00722936 0.00295057 0.01903219 0.00299574 0.00897740 0.00708196 0.06284477 0.01164008 0.03934654 0.00242251 0.01556647 0.10869590 0.02133101 0.02499767 
0.01292591 0.01973422 0.00704513 0.00293194 0.01952790 0.00298801 0.00890460 0.00712883 0.06229007 0.01173826 0.03888988 0.00240431 0.01550083 0.10643258 0.02093408 0.02419664 
0.01302847 0.02048697 0.00685748 0.00291095 0.02000182 0.00297669 0.00882468 0.00717181 0.06168147 0.01183392 0.03839450 0.00238552 0.01544074 0.10414115 0.02054157 0.02338495 
0.01312870 0.02130063 0.00666724 0.00288771 0.02045265 0.00296182 0.00873806 0.00721072 0.06101954 0.01192678 0.03786239 0.00236623 0.01538592 0.10183531 0.02015594 0.02256822 
0.01322631 0.02217368 0.00647523 0.00286233 0.02087921 0.00294345 0.00864522 0.00724538 0.06030510 0.01201656 0.03729566 0.00234647 0.01533608 0.09952886 0.01977961 0.02175215 
0.01332104 0.02310436 0.00628229 0.00283495 0.02128041 0.00292167 0.00854666 0.00727562 0.05953917 0.01210296 0.03669653 0.00232630 0.01529089 0.09723561 0.01941494 0.02094245 
0.01341271 0.02409064 0.00608924 0.00280568 0.02165527 0.00289657 0.00844289 0.00730130 0.05872301 0.01218573 0.03606732 0.00230579 0.01524996 0.09496935 0.01906426 0.02014480 
0.01350114 0.02513023 0.00589687 0.00277468 0.02200289 0.00286825 0.00833445 0.00732228 0.05785812 0.01226458 0.03541045 0.00228497 0.01521290 0.09274374 0.01872980 0.01936486 
0.01358622 0.02622058 0.00570596 0.00274210 0.02232253 0.00283684 0.00822191 0.00733842 0.05694622 0.01233927 0.03472841 0.00226390 0.01517929 0.09057223 0.01841372 0.01860818 
0.01366789 0.02735891 0.00551727 0.00270810 0.02261351 0.00280249 0.00810582 0.00734963 0.05598929 0.01240953 0.03402378 0.00224261 0.01514867 0.08846798 0.01811808 0.01788020 
0.01374611 0.02854217 0.00533153 0.00267286 0.02287530 0.00276534 0.00798678 0.00735582 0.05498952 0.01247514 0.03329921 0.00222115 0.01512058 0.08644382 0.01784482 0.01718620 
0.01382088 0.02976711 0.00514943 0.00263654 0.02310745 0.00272556 0.00786537 0.00735690 0.05394934 0.01253586 0.03255741 0.00219955 0.01509453 0.08451215 0.01759577 0.01653126 
0.01389227 0.03103022 0.00497165 0.00259932 0.02330964 0.00268333 0.00774217 0.00735283 0.05287140 0.01259148 0.03180113 0.00217784 0.01507002 0.08268485 0.01737263 0.01592026 
0.01396034 0.03232780 0.00479880 0.00256139 0.02348166 0.00263884 0.00761779 0.00734355 0.05175861 0.01264180 0.03103317 0.00215605 0.01504655 0.08097328 0.01717695 0.01535782 
0.01402523 0.03365595 0.00463147 0.00252294 0.02362341 0.00259230 0.00749282 0.00732907 0.05061406 0.01268663 0.03025638 0.00213421 0.01502362 0.07938814 0.01701015 0.01484827 
0.01408708 0.03501056 0.00447022 0.00248414 0.02373489 0.00254390 0.00736782 0.00730938 0.04944107 0.01272581 0.02947359 0.00211234 0.01500070 0.07793948 0.01687347 0.01439565 
0.01414606 0.03638738 0.00431553 0.00244520 0.02381620 0.00249387 0.00724339 0.00728450 0.04824317 0.01275917 0.02868771 0.00209045 0.01497731 0.07663657 0.01676800 0.01400367 
0.01420240 0.03778199 0.00416787 0.00240629 0.02386758 0.00244242 0.00712008 0.00725448 0.04702408 0.01278659 0.02790161 0.00206856 0.01495295 0.07548792 0.01669466 0.01367567 
0.01425633 0.03918982 0.00402764 0.00236760 0.02388935 0.00238979 0.00699844 0.00721939 0.04578772 0.01280793 0.02711818 0.00204668 0.01492714 0.07450119 0.01665420 0.01341466 
0.01430810 0.04060620 0.00389520 0.00232931 0.02388191 0.00233621 0.00687902 0.00717933 0.04453818 0.01282310 0.02634030 0.00202483 0.01489940 0.07368315 0.01664716 0.01322320 
0.01435800 0.04202634 0.00377085 0.00229161 0.02384579 0.00228191 0.00676231 0.00713442 0.04327970 0.01283202 0.02557083 0.00200300 0.01486931 0.07303964 0.01667394 0.01310351 
0.01440632 0.04344540 0.00365485 0.00225466 0.02378161 0.00222713 0.00664882 0.00708480 0.04201669 0.01283461 0.02481260 0.00198121 0.01483644 0.07257557 0.01673473 0.01305735 
0.01445339 0.04485845 0.00354741 0.00221864 0.02369005 0.00217210 0.00653902 0.00703064 0.04075370 0.01283082 0.02406841 0.00195945 0.01480040 0.07229485 0.01682953 0.01308608 
0.01449953 0.04626054 0.00344868 0.00218370 0.02357190 0.00211705 0.00643335 0.00697213 0.03949538 0.01282063 0.02334103 0.00193774 0.01476084 0.07220037 0.01695817 0.01319060 
0.01454508 0.04764670 0.00335876 0.00215001 0.02342802 0.00206222 0.00633225 0.00690952 0.03824651 0.01280403 0.02263316 0.00191606 0.01471744 0.07229402 0.01712027 0.01337142 
0.01459039 0.04901197 0.00327771 0.00211771 0.02325936 0.00200784 0.00623610 0.00684303 0.03701195 0.01278101 0.02194744 0.00189443 0.01466992 0.07257664 0.01731529 0.01362857 
0.01463583 0.05035143 0.00320553 0.00208693 0.02306693 0.00195413 0.00614527 0.00677297 0.03579664 0.01275161 0.02128644 0.00187284 0.01461804 0.07304803 0.01754248 0.01396166 
0.01468176 0.05166021 0.00314218 0.00205780 0.02285179 0.00190131 0.00606009 0.00669962 0.03460556 0.01271586 0.02065268 0.00185129 0.01456160 0.07370695 0.01780093 0.01436988 
0.01472853 0.05293351 0.00308755 0.00203045 0.02261508 0.00184959 0.00598087 0.00662332 0.03344373 0.01267382 0.02004855 0.00182979 0.01450046 0.07455111 0.01808955 0.01485199 
0.01477652 0.05416665 0.00304153 0.00200498 0.02235798 0.00179917 0.00590788 0.00654444 0.03231619 0.01262558 0.01947638 0.00180834 0.01443451 0.07557721 0.01840707 0.01540633 
0.01482610 0.05535507 0.00300392 0.00198149 0.02208175 0.00175025 0.00584136 0.00646336 0.03122798 0.01257121 0.01893837 0.00178695 0.01436372 0.07678092 0.01875208 0.01603085 
0.01487761 0.05649437 0.00297451 0.00196006 0.02178764 0.00170301 0.00578152 0.00638050 0.03018411 0.01251084 0.01843664 0.00176563 0.01428807 0.07815694 0.01912298 0.01672311 
0.01493142 0.05758031 0.00295302 0.00194077 0.02147697 0.00165762 0.00572853 0.00629629 0.02918954 0.01244458 0.01797315 0.00174438 0.01420763 0.07969900 0.01951806 0.01748030 
0.01498787 0.05860886 0.00293918 0.00192367 0.02115109 0.00161426 0.00568253 0.00621119 0.02824916 0.01237258 0.01754978 0.00172322 0.01412251 0.08139991 0.01993544 0.01829926 
0.01504729 0.05957621 0.00293263 0.00190883 0.02081136 0.00157306 0.00564362 0.00612570 0.02736779 0.01229499 0.01716823 0.00170216 0.01403286 0.08325159 0.02037313 0.01917651 
0.01511000 0.06047877 0.00293303 0.00189627 0.02045917 0.00153417 0.00561187 0.00604031 0.02655013 0.01221198 0.01683008 0.00168123 0.01393889 0.08524511 0.02082901 0.02010824 
0.01517632 0.06131323 0.00293997 0.00188603 0.02009589 0.00149771 0.00558733 0.00595555 0.02580075 0.01212372 0.01653677 0.00166046 0.01384087 0.08737076 0.02130085 0.02109041 
0.01524654 0.06207656 0.00295304 0.00187811 0.01972295 0.00146378 0.00556998 0.00587198 0.02512406 0.01203043 0.01628955 0.00163986 0.01373911 0.08961806 0.02178635 0.02211869 
0.01532092 0.06276602 0.00297180 0.00187252 0.01934172 0.00143250 0.00555980 0.00579015 0.02452431 0.01193229 0.01608953 0.00161948 0.01363398 0.09197588 0.02228309 0.02318853 
0.01539973 0.06337917 0.00299579 0.00186926 0.01895361 0.00140394 0.00555673 0.00571064 0.02400555 0.01182953 0.01593766 0.00159935 0.01352588 0.09443245 0.02278862 0.02429520 
0.01548321 0.06391392 0.00302453 0.00186830 0.01855998 0.00137816 0.00556066 0.00563404 0.02357163 0.01172238 0.01583469 0.00157951 0.01341527 0.09697544 0.02330040 0.02543380 
0.01557155 0.06436852 0.00305754 0.00186961 0.01816219 0.00135523 0.00557146 0.00556095 0.02322614 0.01161106 0.01578120 0.00156001 0.01330263 0.09959206 0.02381586 0.02659931 
0.01566496 0.06474155 0.00309432 0.00187314 0.01776159 0.00133517 0.00558897 0.00549196 0.02297244 0.01149584 0.01577759 0.00154090 0.01318851 0.10226906 0.02433242 0.02778660 
0.01576359 0.06503197 0.00313436 0.00187886 0.01735945 0.00131802 0.00561300 0.00542770 0.02281360 0.01137695 0.01582407 0.00152224 0.01307347 0.10499290 0.02484746 0.02899048 
0.01586759 0.06523912 0.00317715 0.00188669 0.01695707 0.00130377 0.00564332 0.00536878 0.02275241 0.01125467 0.01592064 0.00150409 0.01295810 0.10774975 0.02535838 0.03020573 
0.01597706 0.06536270 0.00322218 0.00189657 0.01655566 0.00129243 0.00567969 0.00531579 0.02279136 0.01112926 0.01606714 0.00148651 0.01284303 0.11052559 0.02586259 0.03142711 
0.01609208 0.06540278 0.00326895 0.00190843 0.01615640 0.00128398 0.00572183 0.00526935 0.02293260 0.01100098 0.01626318 0.00146957 0.01272891 0.11330632 0.02635753 0.03264945 
0.01621272 0.06535985 0.00331695 0.00192216 0.01576044 0.00127838 0.00576943 0.00523005 0.02317794 0.01087013 0.01650818 0.00145335 0.01261641 0.11607781 0.02684069 0.03386763 
0.01633898 0.06523474 0.00336569 0.00193769 0.01536884 0.00127559 0.00582217 0.00519848 0.02352885 0.01073698 0.01680139 0.00143791 0.01250621 0.11882598 0.02730963 0.03507661 
0.01647087 0.06502869 0.00341469 0.00195490 0.01498265 0.00127554 0.00587968 0.00517519 0.02398643 0.01060181 0.01714182 0.00142334 0.01239900 0.12153691 0.02776196 0.03627151 
0.01660834 0.06474329 0.00346348 0.00197371 0.01460282 0.00127816 0.00594161 0.00516076 0.02455140 0.01046492 0.01752830 0.00140971 0.01229547 0.12419687 0.02819540 0.03744758 
0.01675133 0.06438053 0.00351160 0.00199398 0.01423026 0.00128337 0.00600755 0.00515569 0.02522407 0.01032659 0.01795948 0.00139711 0.01219632 0.12679247 0.02860777 0.03860029 
0.01689974 0.06394272 0.00355863 0.00201562 0.01386580 0.00129108 0.00607711 0.00516050 0.02600438 0.01018710 0.01843381 0.00138563 0.01210224 0.12931068 0.02899700 0.03972531 
0.01705342 0.06343256 0.00360415 0.00203851 0.01351023 0.00130118 0.00614984 0.00517565 0.02689185 0.01004676 0.01894953 0.00137534 0.01201390 0.13173893 0.02936115 0.04081854 
0.01721223 0.06285304 0.00364778 0.00206251 0.01316423 0.00131356 0.00622531 0.00520158 0.02788558 0.00990584 0.01950474 0.00136633 0.01193198 0.13406517 0.02969842 0.04187616 
0.01737597 0.06220752 0.00368913 0.00208751 0.01282844 0.00132808 0.00630308 0.00523870 0.02898427 0.00976464 0.02009732 0.00135868 0.01185711 0.13627796 0.03000715 0.04289465 
0.01754440 0.06149962 0.00372788 0.00211338 0.01250343 0.00134463 0.00638267 0.00528737 0.03018618 0.00962344 0.02072501 0.00135248 0.01178992 0.13836652 0.03028586 0.04387079 
0.01771728 0.06073327 0.00376371 0.00213999 0.01218968 0.00136306 0.00646362 0.00534791 0.03148915 0.00948253 0.02138538 0.00134780 0.01173100 0.14032080 0.03053322 0.04480167 
0.01789432 0.05991265 0.00379634 0.00216722 0.01188760 0.00138323 0.00654546 0.00542060 0.03289061 0.00934217 0.02207584 0.00134472 0.01168091 0.14213153 0.03074809 0.04568475 
0.01807521 0.05904219 0.00382551 0.00219495 0.01159755 0.00140499 0.00662771 0.00550566 0.03438756 0.00920264 0.02279365 0.00134332 0.01164018 0.14379030 0.03092951 0.04651783 
0.01825961 0.05812654 0.00385100 0.00222303 0.01131979 0.00142818 0.00670989 0.00560326 0.03597658 0.00906422 0.02353597 0.00134365 0.01160928 0.14528956 0.03107669 0.04729909 
0.01844716 0.05717054 0.00387262 0.00225136 0.01105452 0.00145266 0.00679153 0.00571352 0.03765384 0.00892716 0.02429979 0.00134580 0.01158865 0.14662270 0.03118906 0.04802709 
0.01863745 0.05617918 0.00389021 0.00227980 0.01080188 0.00147825 0.00687216 0.00583651 0.03941511 0.00879172 0.02508203 0.00134980 0.01157869 0.14778407 0.03126624 0.04870076 
0.01883008 0.05515763 0.00390364 0.00230824 0.01056193 0.00150481 0.00695131 0.00597222 0.04125577 0.00865815 0.02587948 0.00135572 0.01157974 0.14876902 0.03130804 0.04931943 
0.01902462 0.05411114 0.00391282 0.00233656 0.01033467 0.00153216 0.00702855 0.00612061 0.04317080 0.00852670 0.02668885 0.00136359 0.01159207 0.14957393 0.03131448 0.04988280 
0.01922061 0.05304503 0.00391768 0.00236464 0.01012003 0.00156015 0.00710341 0.00628156 0.04515482 0.00839759 0.02750681 0.00137345 0.01161593 0.15019620 0.03128577 0.05039098 
0.01941758 0.05196472 0.00391820 0.00239237 0.00991789 0.00158862 0.00717549 0.00645488 0.04720211 0.00827105 0.02832993 0.00138533 0.01165149 0.15063428 0.03122232 0.05084445 
0.01961504 0.05087561 0.00391437 0.00241965 0.00972806 0.00161742 0.00724437 0.00664034 0.04930658 0.00814730 0.02915475 0.00139924 0.01169887 0.15088767 0.03112474 0.05124407 
0.01981249 0.04978310 0.00390622 0.00244638 0.00955030 0.00164638 0.00730966 0.00683761 0.05146185 0.00802655 0.02997781 0.00141518 0.01175813 0.15095692 0.03099382 0.05159105 
0.02000942 0.04869258 0.00389382 0.00247245 0.00938431 0.00167537 0.00737099 0.00704633 0.05366122 0.00790898 0.03079560 0.00143316 0.01182926 0.15084362 0.03083055 0.05188696 
0.02020530 0.04760934 0.00387725 0.00249777 0.00922976 0.00170424 0.00742803 0.00726607 0.05589774 0.00779479 0.03160464 0.00145316 0.01191220 0.15055036 0.03063608 0.05213373 
0.02039962 0.04653859 0.00385664 0.00252225 0.00908625 0.00173284 0.00748046 0.00749632 0.05816419 0.00768415 0.03240146 0.00147515 0.01200684 0.15008076 0.03041173 0.05233358 
0.02059183 0.04548542 0.00383214 0.00254581 0.00895335 0.00176104 0.00752798 0.00773652 0.06045313 0.00757723 0.03318264 0.00149910 0.01211299 0.14943937 0.03015900 0.05248906 
0.02078142 0.04445476 0.00380390 0.00256837 0.00883061 0.00178873 0.00757033 0.00798605 0.06275691 0.00747417 0.03394479 0.00152495 0.01223040 0.14863170 0.02987953 0.05260297 
0.02096784 0.04345135 0.00377213 0.00258986 0.00871751 0.00181577 0.00760730 0.00824423 0.06506774 0.00737512 0.03468460 0.00155265 0.01235879 0.14766412 0.02957508 0.05267839 
0.02115057 0.04247975 0.00373704 0.00261021 0.00861353 0.00184206 0.00763869 0.00851031 0.06737766 0.00728021 0.03539887 0.00158212 0.01249779 0.14654387 0.02924757 0.05271863 
0.02132909 0.04154426 0.00369888 0.00262935 0.00851812 0.00186750 0.00766434 0.00878351 0.06967864 0.00718955 0.03608445 0.00161327 0.01264700 0.14527895 0.02889901 0.05272721 
0.02150288 0.04064894 0.00365789 0.00264723 0.00843069 0.00189200 0.00768413 0.00906298 0.07196254 0.00710325 0.03673835 0.00164602 0.01280597 0.14387809 0.02853152 0.05270781 
0.02167145 0.03979759 0.00361436 0.00266380 0.00835065 0.00191546 0.00769797 0.00934783 0.07422121 0.00702140 0.03735770 0.00168025 0.01297417 0.14235071 0.02814731 0.05266429 
0.02183430 0.03899368 0.00356857 0.00267901 0.00827741 0.00193782 0.00770581 0.00963712 0.07644648 0.00694408 0.03793976 0.00171585 0.01315105 0.14070679 0.02774864 0.05260060 
0.02199097 0.03824041 0.00352082 0.00269282 0.00821033 0.00195900 0.00770766 0.00992989 0.07863023 0.00687137 0.03848197 0.00175268 0.01333603 0.13895685 0.02733786 0.05252079 
0.02214100 0.03754061 0.00347143 0.00270519 0.00814881 0.00197896 0.00770352 0.01022511 0.08076439 0.00680332 0.03898192 0.00179060 0.01352845 0.13711187 0.02691734 0.05242897 
0.02228395 0.03689679 0.00342071 0.00271610 0.00809222 0.00199765 0.00769349 0.01052175 0.08284103 0.00673997 0.03943742 0.00182948 0.01372764 0.13518320 0.02648947 0.05232927 
0.02241941 0.03631110 0.00336900 0.00272550 0.00803995 0.00201503 0.00767765 0.01081875 0.08485232 0.00668136 0.03984643 0.00186915 0.01393290 0.13318248 0.02605667 0.05222582 
0.02254700 0.03578534 0.00331663 0.00273339 0.00799138 0.00203107 0.00765617 0.01111500 0.08679065 0.00662752 0.04020716 0.00190945 0.01414349 0.13112158 0.02562132 0.05212269 
0.02266635 0.03532090 0.00326394 0.00273975 0.00794592 0.00204576 0.00762923 0.01140941 0.08864861 0.00657845 0.04051800 0.00195020 0.01435865 0.12901248 0.02518582 0.05202390 
0.02277713 0.03491885 0.00321126 0.00274455 0.00790297 0.00205910 0.00759704 0.01170087 0.09041907 0.00653417 0.04077759 0.00199123 0.01457760 0.12686724 0.02475249 0.05193337 
