0.00953164 0.00268487 0.00113208 0.00544497 0.00144548 0.00561977 0.00162732 0.00553762 0.00655073 0.00671490 0.00097715 0.00143400 0.00191493 0.00277094 0.00196580 0.00118915 
0.00976638 0.00272885 0.00113699 0.00549570 0.00145158 0.00569725 0.00164799 0.00543154 0.00661967 0.00688227 0.00098182 0.00142894 0.00189583 0.00274758 0.00195259 0.00119356 
0.01003376 0.00277137 0.00114119 0.00554474 0.00145775 0.00577566 0.00166873 0.00534089 0.00668059 0.00705127 0.00098670 0.00142367 0.00187867 0.00272442 0.00194420 0.00119825 
0.01033122 0.00281212 0.00114461 0.00559187 0.00146397 0.00585448 0.00168948 0.00526632 0.00673301 0.00722103 0.00099178 0.00141820 0.00186352 0.00270154 0.00194076 0.00120321 
0.01065610 0.00285077 0.00114719 0.00563691 0.00147022 0.00593317 0.00171017 0.00520837 0.00677655 0.00739066 0.00099702 0.00141256 0.00185044 0.00267902 0.00194234 0.00120842 
0.01100559 0.00288702 0.00114889 0.00567966 0.00147649 0.00601118 0.00173074 0.00516747 0.00681094 0.00755929 0.00100240 0.00140678 0.00183951 0.00265693 0.00194899 0.00121385 
0.01137683 0.00292059 0.00114966 0.00571996 0.00148276 0.00608798 0.00175113 0.00514395 0.00683597 0.00772602 0.00100790 0.00140086 0.00183077 0.00263535 0.00196073 0.00121949 
0.01176686 0.00295119 0.00114947 0.00575764 0.00148901 0.00616305 0.00177128 0.00513804 0.00685156 0.00788999 0.00101348 0.00139482 0.00182425 0.00261436 0.00197756 0.00122531 
0.01217268 0.00297857 0.00114828 0.00579256 0.00149521 0.00623587 0.00179113 0.00514987 0.00685769 0.00805034 0.00101912 0.00138869 0.00181997 0.00259402 0.00199943 0.00123128 
0.01259125 0.00300249 0.00114608 0.00582458 0.00150136 0.00630593 0.00181065 0.00517943 0.00685445 0.00820625 0.00102479 0.00138247 0.00181794 0.00257438 0.00202627 0.00123739 
0.01301951 0.00302275 0.00114284 0.00585359 0.00150744 0.00637275 0.00182976 0.00522663 0.00684201 0.00835688 0.00103047 0.00137618 0.00181815 0.00255551 0.00205798 0.00124361 
0.01345438 0.00303914 0.00113856 0.00587949 0.00151344 0.00643585 0.00184844 0.00529125 0.00682062 0.00850147 0.00103613 0.00136982 0.00182060 0.00253745 0.00209441 0.00124992 
0.01389281 0.00305151 0.00113325 0.00590221 0.00151933 0.00649479 0.00186663 0.00537299 0.00679062 0.00863925 0.00104174 0.00136342 0.00182525 0.00252024 0.00213542 0.00125628 
0.01433179 0.00305973 0.00112691 0.00592168 0.00152510 0.00654914 0.00188430 0.00547143 0.00675241 0.00876952 0.00104728 0.00135698 0.00183206 0.00250392 0.00218080 0.00126268 
0.01476833 0.00306367 0.00111956 0.00593787 0.00153075 0.00659851 0.00190143 0.00558603 0.00670646 0.00889158 0.00105273 0.00135052 0.00184099 0.00248853 0.00223034 0.00126908 
0.01519953 0.00306327 0.00111122 0.00595078 0.00153626 0.00664252 0.00191796 0.00571620 0.00665332 0.00900481 0.00105806 0.00134403 0.00185196 0.00247409 0.00228380 0.00127547 
0.01562255 0.00305849 0.00110193 0.00596040 0.00154161 0.00668085 0.00193389 0.00586120 0.00659359 0.00910861 0.00106325 0.00133754 0.00186491 0.00246063 0.00234092 0.00128182 
0.01603466 0.00304931 0.00109174 0.00596678 0.00154679 0.00671318 0.00194918 0.00602024 0.00652793 0.00920245 0.00106829 0.00133105 0.00187975 0.00244814 0.00240139 0.00128810 
0.01643323 0.00303574 0.00108069 0.00596998 0.00155181 0.00673925 0.00196382 0.00619243 0.00645703 0.00928584 0.00107315 0.00132457 0.00189639 0.00243666 0.00246492 0.00129429 
0.01681575 0.00301785 0.00106884 0.00597008 0.00155664 0.00675882 0.00197779 0.00637680 0.00638166 0.00935833 0.00107782 0.00131812 0.00191471 0.00242618 0.00253117 0.00130037 
0.01717984 0.00299572 0.00105625 0.00596718 0.00156127 0.00677170 0.00199108 0.00657232 0.00630258 0.00941956 0.00108228 0.00131171 0.00193462 0.00241670 0.00259981 0.00130630 
0.01752329 0.00296946 0.00104300 0.00596142 0.00156571 0.00677772 0.00200368 0.00677787 0.00622060 0.00946919 0.00108653 0.00130534 0.00195599 0.00240822 0.00267047 0.00131207 
0.01784401 0.00293925 0.00102918 0.00595297 0.00156994 0.00677677 0.00201559 0.00699231 0.00613657 0.00950698 0.00109055 0.00129905 0.00197868 0.00240073 0.00274279 0.00131766 
0.01814010 0.00290525 0.00101486 0.00594201 0.00157395 0.00676876 0.00202680 0.00721440 0.00605132 0.00953270 0.00109433 0.00129283 0.00200257 0.00239421 0.00281639 0.00132304 
0.01840982 0.00286768 0.00100014 0.00592874 0.00157773 0.00675366 0.00203731 0.00744289 0.00596571 0.00954621 0.00109787 0.00128672 0.00202751 0.00238866 0.00289089 0.00132819 
0.01865164 0.00282681 0.00098511 0.00591339 0.00158129 0.00673146 0.00204713 0.00767650 0.00588062 0.00954744 0.00110116 0.00128074 0.00205336 0.00238405 0.00296590 0.00133310 
0.01886418 0.00278290 0.00096989 0.00589623 0.00158462 0.00670221 0.00205625 0.00791388 0.00579688 0.00953636 0.00110419 0.00127490 0.00207995 0.00238036 0.00304103 0.00133774 
0.01904628 0.00273627 0.00095457 0.00587752 0.00158770 0.00666597 0.00206469 0.00815371 0.00571536 0.00951300 0.00110698 0.00126925 0.00210713 0.00237758 0.00311590 0.00134209 
0.01919695 0.00268724 0.00093927 0.00585756 0.00159054 0.00662286 0.00207245 0.00839462 0.00563687 0.00947746 0.00110951 0.00126379 0.00213474 0.00237567 0.00319013 0.00134615 
0.01931544 0.00263619 0.00092411 0.00583667 0.00159313 0.00657304 0.00207954 0.00863527 0.00556224 0.00942988 0.00111179 0.00125858 0.00216262 0.00237462 0.00326334 0.00134988 
0.01940115 0.00258348 0.00090920 0.00581518 0.00159545 0.00651668 0.00208597 0.00887430 0.00549225 0.00937049 0.00111383 0.00125364 0.00219060 0.00237439 0.00333517 0.00135329 
0.01945373 0.00252954 0.00089466 0.00579343 0.00159752 0.00645403 0.00209175 0.00911038 0.00542765 0.00929954 0.00111563 0.00124901 0.00221851 0.00237497 0.00340527 0.00135635 
0.01947300 0.00247478 0.00088062 0.00577179 0.00159932 0.00638532 0.00209690 0.00934220 0.00536915 0.00921735 0.00111720 0.00124474 0.00224618 0.00237633 0.00347329 0.00135906 
0.01945898 0.00241963 0.00086719 0.00575062 0.00160085 0.00631085 0.00210142 0.00956846 0.00531742 0.00912429 0.00111855 0.00124086 0.00227344 0.00237845 0.00353891 0.00136141 
0.01941191 0.00236456 0.00085449 0.00573031 0.00160210 0.00623093 0.00210533 0.00978794 0.00527310 0.00902077 0.00111969 0.00123743 0.00230013 0.00238131 0.00360183 0.00136339 
0.01933220 0.00231003 0.00084264 0.00571124 0.00160306 0.00614591 0.00210864 0.00999942 0.00523676 0.00890725 0.00112063 0.00123450 0.00232608 0.00238489 0.00366177 0.00136498 
0.01922044 0.00225651 0.00083176 0.00569380 0.00160374 0.00605616 0.00211135 0.01020177 0.00520893 0.00878425 0.00112139 0.00123212 0.00235112 0.00238918 0.00371847 0.00136620 
0.01907744 0.00220448 0.00082197 0.00567838 0.00160411 0.00596207 0.00211349 0.01039389 0.00519007 0.00865229 0.00112198 0.00123035 0.00237510 0.00239417 0.00377169 0.00136703 
0.01890414 0.00215441 0.00081338 0.00566537 0.00160419 0.00586406 0.00211505 0.01057477 0.00518061 0.00851197 0.00112242 0.00122923 0.00239786 0.00239984 0.00382122 0.00136747 
0.01870167 0.00210679 0.00080608 0.00565516 0.00160395 0.00576255 0.00211606 0.01074346 0.00518089 0.00836390 0.00112273 0.00122884 0.00241924 0.00240620 0.00386689 0.00136752 
0.01847133 0.00206209 0.00080019 0.00564812 0.00160340 0.00565799 0.00211651 0.01089909 0.00519120 0.00820871 0.00112291 0.00122924 0.00243911 0.00241324 0.00390853 0.00136720 
0.01821454 0.00202077 0.00079579 0.00564461 0.00160253 0.00555085 0.00211641 0.01104087 0.00521178 0.00804708 0.00112300 0.00123047 0.00245732 0.00242096 0.00394602 0.00136648 
0.01793289 0.00198330 0.00079298 0.00564499 0.00160133 0.00544158 0.00211577 0.01116809 0.00524278 0.00787970 0.00112300 0.00123262 0.00247374 0.00242939 0.00397927 0.00136540 
0.01762809 0.00195012 0.00079184 0.00564959 0.00159979 0.00533068 0.00211459 0.01128014 0.00528433 0.00770728 0.00112294 0.00123573 0.00248824 0.00243853 0.00400821 0.00136395 
0.01730196 0.00192165 0.00079245 0.00565873 0.00159790 0.00521862 0.00211288 0.01137651 0.00533645 0.00753055 0.00112283 0.00123988 0.00250071 0.00244840 0.00403282 0.00136213 
0.01695643 0.00189830 0.00079485 0.00567270 0.00159567 0.00510589 0.00211063 0.01145677 0.00539912 0.00735024 0.00112269 0.00124511 0.00251104 0.00245902 0.00405308 0.00135997 
0.01659356 0.00188046 0.00079912 0.00569177 0.00159308 0.00499298 0.00210785 0.01152058 0.00547228 0.00716710 0.00112253 0.00125150 0.00251913 0.00247042 0.00406902 0.00135747 
0.01621544 0.00186850 0.00080529 0.00571618 0.00159012 0.00488036 0.00210454 0.01156772 0.00555578 0.00698189 0.00112239 0.00125911 0.00252489 0.00248263 0.00408071 0.00135465 
0.01582429 0.00186273 0.00081341 0.00574614 0.00158679 0.00476851 0.00210070 0.01159806 0.00564942 0.00679534 0.00112227 0.00126798 0.00252825 0.00249570 0.00408824 0.00135153 
0.01542235 0.00186348 0.00082349 0.00578183 0.00158309 0.00465790 0.00209631 0.01161157 0.00575297 0.00660822 0.00112218 0.00127816 0.00252914 0.00250965 0.00409171 0.00134811 
0.01501193 0.00187100 0.00083554 0.00582338 0.00157901 0.00454899 0.00209139 0.01160830 0.00586612 0.00642126 0.00112215 0.00128972 0.00252751 0.00252453 0.00409127 0.00134442 
0.01459538 0.00188554 0.00084958 0.00587091 0.00157454 0.00444222 0.00208592 0.01158842 0.00598852 0.00623519 0.00112218 0.00130268 0.00252331 0.00254040 0.00408709 0.00134048 
0.01417505 0.00190730 0.00086559 0.00592448 0.00156968 0.00433803 0.00207990 0.01155218 0.00611979 0.00605075 0.00112230 0.00131710 0.00251652 0.00255729 0.00407937 0.00133631 
0.01375334 0.00193643 0.00088355 0.00598411 0.00156443 0.00423683 0.00207333 0.01149992 0.00625950 0.00586864 0.00112250 0.00133300 0.00250713 0.00257526 0.00406832 0.00133193 
0.01333262 0.00197307 0.00090342 0.00604979 0.00155879 0.00413902 0.00206620 0.01143209 0.00640717 0.00568955 0.00112281 0.00135041 0.00249512 0.00259436 0.00405418 0.00132737 
0.01291527 0.00201729 0.00092517 0.00612145 0.00155276 0.00404497 0.00205851 0.01134919 0.00656232 0.00551415 0.00112323 0.00136936 0.00248052 0.00261465 0.00403722 0.00132264 
0.01250364 0.00206914 0.00094872 0.00619900 0.00154633 0.00395503 0.00205025 0.01125182 0.00672440 0.00534308 0.00112376 0.00138985 0.00246335 0.00263618 0.00401770 0.00131778 
0.01210005 0.00212861 0.00097402 0.00628228 0.00153952 0.00386954 0.00204141 0.01114065 0.00689287 0.00517696 0.00112442 0.00141190 0.00244365 0.00265900 0.00399592 0.00131281 
0.01170677 0.00219566 0.00100099 0.00637110 0.00153233 0.00378880 0.00203201 0.01101643 0.00706715 0.00501640 0.00112521 0.00143550 0.00242147 0.00268317 0.00397218 0.00130775 
0.01132604 0.00227020 0.00102953 0.00646523 0.00152475 0.00371310 0.00202203 0.01087996 0.00724665 0.00486195 0.00112613 0.00146064 0.00239690 0.00270872 0.00394679 0.00130264 
0.01096000 0.00235210 0.00105953 0.00656438 0.00151681 0.00364268 0.00201148 0.01073211 0.00743078 0.00471415 0.00112719 0.00148731 0.00237000 0.00273572 0.00392007 0.00129749 
0.01061076 0.00244119 0.00109090 0.00666823 0.00150851 0.00357777 0.00200036 0.01057379 0.00761893 0.00457351 0.00112837 0.00151547 0.00234089 0.00276421 0.00389235 0.00129234 
0.01028031 0.00253724 0.00112349 0.00677641 0.00149986 0.00351858 0.00198867 0.01040596 0.00781049 0.00444047 0.00112969 0.00154509 0.00230967 0.00279422 0.00386396 0.00128722 
0.00997059 0.00264000 0.00115719 0.00688852 0.00149088 0.00346526 0.00197641 0.01022962 0.00800486 0.00431549 0.00113114 0.00157613 0.00227647 0.00282578 0.00383523 0.00128215 
0.00968341 0.00274918 0.00119185 0.00700411 0.00148158 0.00341796 0.00196360 0.01004581 0.00820143 0.00419896 0.00113272 0.00160852 0.00224143 0.00285894 0.00380647 0.00127715 
0.00942050 0.00286442 0.00122733 0.00712270 0.00147198 0.00337678 0.00195025 0.00985559 0.00839960 0.00409123 0.00113441 0.00164221 0.00220471 0.00289370 0.00377802 0.00127226 
0.00918347 0.00298536 0.00126346 0.00724376 0.00146211 0.00334182 0.00193636 0.00966002 0.00859881 0.00399262 0.00113621 0.00167712 0.00216647 0.00293008 0.00375019 0.00126751 
0.00897381 0.00311159 0.00130009 0.00736676 0.00145198 0.00331313 0.00192196 0.00946021 0.00879848 0.00390342 0.00113812 0.00171316 0.00212690 0.00296809 0.00372327 0.00126291 
0.00879292 0.00324266 0.00133705 0.00749112 0.00144162 0.00329071 0.00190706 0.00925723 0.00899808 0.00382387 0.00114013 0.00175024 0.00208618 0.00300773 0.00369757 0.00125849 
0.00864203 0.00337809 0.00137417 0.00761623 0.00143106 0.00327458 0.00189168 0.00905218 0.00919708 0.00375418 0.00114221 0.00178827 0.00204452 0.00304898 0.00367335 0.00125428 
0.00852228 0.00351738 0.00141127 0.00774147 0.00142032 0.00326470 0.00187586 0.00884614 0.00939498 0.00369451 0.00114437 0.00182712 0.00200213 0.00309183 0.00365088 0.00125029 
0.00843465 0.00366000 0.00144818 0.00786619 0.00140945 0.00326101 0.00185961 0.00864016 0.00959131 0.00364499 0.00114660 0.00186669 0.00195923 0.00313624 0.00363041 0.00124655 
0.00838002 0.00380539 0.00148472 0.00798974 0.00139846 0.00326342 0.00184297 0.00843529 0.00978564 0.00360570 0.00114887 0.00190684 0.00191606 0.00318217 0.00361214 0.00124308 
0.00835910 0.00395298 0.00152070 0.00811146 0.00138740 0.00327182 0.00182598 0.00823254 0.00997753 0.00357670 0.00115118 0.00194745 0.00187286 0.00322958 0.00359629 0.00123990 
0.00837247 0.00410218 0.00155596 0.00823066 0.00137631 0.00328607 0.00180867 0.00803287 0.01016663 0.00355799 0.00115351 0.00198837 0.00182986 0.00327839 0.00358304 0.00123701 
0.00842059 0.00425238 0.00159030 0.00834667 0.00136522 0.00330602 0.00179108 0.00783723 0.01035256 0.00354956 0.00115585 0.00202945 0.00178732 0.00332853 0.00357252 0.00123444 
0.00850377 0.00440297 0.00162357 0.00845882 0.00135417 0.00333148 0.00177325 0.00764650 0.01053502 0.00355133 0.00115819 0.00207055 0.00174549 0.00337993 0.00356488 0.00123220 
0.00862218 0.00455332 0.00165559 0.00856644 0.00134320 0.00336225 0.00175524 0.00746151 0.01071371 0.00356321 0.00116051 0.00211152 0.00170463 0.00343248 0.00356021 0.00123030 
0.00877585 0.00470280 0.00168619 0.00866887 0.00133236 0.00339811 0.00173709 0.00728305 0.01088838 0.00358507 0.00116281 0.00215218 0.00166501 0.00348608 0.00355859 0.00122874 
0.00896468 0.00485079 0.00171522 0.00876549 0.00132169 0.00343881 0.00171886 0.00711184 0.01105881 0.00361674 0.00116506 0.00219239 0.00162687 0.00354061 0.00356007 0.00122753 
0.00918844 0.00499667 0.00174253 0.00885567 0.00131123 0.00348409 0.00170059 0.00694854 0.01122479 0.00365801 0.00116726 0.00223197 0.00159047 0.00359593 0.00356466 0.00122668 
0.00944676 0.00513981 0.00176796 0.00893881 0.00130102 0.00353369 0.00168235 0.00679373 0.01138616 0.00370866 0.00116940 0.00227076 0.00155608 0.00365193 0.00357236 0.00122618 
0.00973915 0.00527961 0.00179139 0.00901436 0.00129111 0.00358731 0.00166420 0.00664795 0.01154278 0.00376843 0.00117147 0.00230861 0.00152394 0.00370843 0.00358313 0.00122604 
0.01006499 0.00541548 0.00181269 0.00908178 0.00128155 0.00364466 0.00164620 0.00651163 0.01169454 0.00383702 0.00117346 0.00234533 0.00149429 0.00376530 0.00359691 0.00122624 
0.01042353 0.00554685 0.00183175 0.00914058 0.00127237 0.00370543 0.00162840 0.00638517 0.01184133 0.00391411 0.00117536 0.00238078 0.00146738 0.00382236 0.00361361 0.00122678 
0.01081391 0.00567315 0.00184846 0.00919031 0.00126362 0.00376928 0.00161088 0.00626886 0.01198309 0.00399936 0.00117717 0.00241479 0.00144343 0.00387945 0.00363311 0.00122766 
0.01123517 0.00579385 0.00186272 0.00923055 0.00125533 0.00383590 0.00159370 0.00616294 0.01211976 0.00409240 0.00117888 0.00244720 0.00142267 0.00393637 0.00365528 0.00122885 
0.01168623 0.00590845 0.00187447 0.00926095 0.00124756 0.00390496 0.00157692 0.00606756 0.01225131 0.00419284 0.00118048 0.00247787 0.00140530 0.00399296 0.00367995 0.00123035 
0.01216589 0.00601647 0.00188363 0.00928119 0.00124034 0.00397611 0.00156061 0.00598280 0.01237770 0.00430026 0.00118199 0.00250665 0.00139151 0.00404900 0.00370694 0.00123213 
0.01267289 0.00611747 0.00189015 0.00929102 0.00123370 0.00404901 0.00154483 0.00590867 0.01249892 0.00441422 0.00118339 0.00253341 0.00138149 0.00410432 0.00373604 0.00123418 
0.01320585 0.00621103 0.00189399 0.00929023 0.00122768 0.00412332 0.00152965 0.00584510 0.01261496 0.00453429 0.00118470 0.00255800 0.00137540 0.00415871 0.00376702 0.00123647 
0.01376331 0.00629678 0.00189514 0.00927868 0.00122231 0.00419869 0.00151514 0.00579196 0.01272581 0.00465999 0.00118591 0.00258031 0.00137339 0.00421197 0.00379964 0.00123898 
0.01434373 0.00637438 0.00189357 0.00925629 0.00121762 0.00427479 0.00150136 0.00574905 0.01283148 0.00479084 0.00118703 0.00260022 0.00137558 0.00426390 0.00383364 0.00124168 
0.01494550 0.00644353 0.00188929 0.00922302 0.00121365 0.00435127 0.00148836 0.00571609 0.01293195 0.00492634 0.00118806 0.00261763 0.00138210 0.00431429 0.00386875 0.00124454 
0.01556695 0.00650398 0.00188232 0.00917891 0.00121040 0.00442780 0.00147622 0.00569277 0.01302723 0.00506600 0.00118903 0.00263244 0.00139302 0.00436294 0.00390467 0.00124753 
0.01620634 0.00655550 0.00187270 0.00912406 0.00120791 0.00450406 0.00146498 0.00567868 0.01311728 0.00520930 0.00118992 0.00264457 0.00140842 0.00440966 0.00394113 0.00125062 
0.01686188 0.00659794 0.00186046 0.00905862 0.00120618 0.00457971 0.00145470 0.00567339 0.01320210 0.00535571 0.00119077 0.00265395 0.00142835 0.00445424 0.00397779 0.00125377 
0.01753174 0.00663116 0.00184569 0.00898282 0.00120524 0.00465444 0.00144544 0.00567640 0.01328164 0.00550472 0.00119159 0.00266051 0.00145281 0.00449650 0.00401437 0.00125693 
0.01821404 0.00665508 0.00182844 0.00889693 0.00120508 0.00472795 0.00143724 0.00568718 0.01335587 0.00565580 0.00119238 0.00266422 0.00148183 0.00453624 0.00405054 0.00126009 
0.01890688 0.00666967 0.00180880 0.00880128 0.00120573 0.00479995 0.00143015 0.00570514 0.01342471 0.00580842 0.00119316 0.00266503 0.00151537 0.00457329 0.00408600 0.00126319 
0.01960833 0.00667492 0.00178689 0.00869627 0.00120717 0.00487015 0.00142421 0.00572967 0.01348811 0.00596206 0.00119396 0.00266291 0.00155338 0.00460747 0.00412041 0.00126619 
0.02031646 0.00667090 0.00176281 0.00858234 0.00120940 0.00493827 0.00141946 0.00576012 0.01354596 0.00611619 0.00119479 0.00265787 0.00159579 0.00463861 0.00415348 0.00126906 
0.02102930 0.00665770 0.00173669 0.00846001 0.00121243 0.00500406 0.00141593 0.00579582 0.01359815 0.00627029 0.00119567 0.00264990 0.00164251 0.00466657 0.00418489 0.00127174 
0.02174491 0.00663545 0.00170866 0.00832981 0.00121622 0.00506728 0.00141364 0.00583608 0.01364457 0.00642385 0.00119662 0.00263903 0.00169340 0.00469119 0.00421434 0.00127421 
0.02246134 0.00660433 0.00167888 0.00819235 0.00122078 0.00512770 0.00141262 0.00588020 0.01368507 0.00657636 0.00119766 0.00262528 0.00174834 0.00471233 0.00424154 0.00127641 
0.02317666 0.00656457 0.00164749 0.00804826 0.00122607 0.00518510 0.00141290 0.00592745 0.01371948 0.00672734 0.00119881 0.00260868 0.00180713 0.00472988 0.00426620 0.00127830 
0.02388895 0.00651641 0.00161467 0.00789822 0.00123208 0.00523929 0.00141447 0.00597713 0.01374764 0.00687630 0.00120010 0.00258931 0.00186960 0.00474373 0.00428806 0.00127985 
0.02459634 0.00646017 0.00158057 0.00774295 0.00123877 0.00529008 0.00141735 0.00602851 0.01376935 0.00702278 0.00120154 0.00256723 0.00193553 0.00475377 0.00430686 0.00128101 
0.02529697 0.00639616 0.00154539 0.00758318 0.00124611 0.00533731 0.00142153 0.00608089 0.01378439 0.00716631 0.00120315 0.00254251 0.00200468 0.00475992 0.00432236 0.00128175 
0.02598905 0.00632474 0.00150930 0.00741970 0.00125406 0.00538083 0.00142702 0.00613359 0.01379256 0.00730647 0.00120495 0.00251525 0.00207679 0.00476212 0.00433433 0.00128202 
0.02667080 0.00624633 0.00147249 0.00725329 0.00126259 0.00542052 0.00143380 0.00618591 0.01379363 0.00744283 0.00120697 0.00248554 0.00215158 0.00476031 0.00434257 0.00128178 
0.02734055 0.00616132 0.00143516 0.00708476 0.00127163 0.00545625 0.00144185 0.00623722 0.01378734 0.00757500 0.00120921 0.00245351 0.00222876 0.00475445 0.00434688 0.00128101 
0.02799663 0.00607017 0.00139749 0.00691494 0.00128116 0.00548795 0.00145115 0.00628689 0.01377347 0.00770259 0.00121169 0.00241927 0.00230802 0.00474452 0.00434711 0.00127967 
0.02863750 0.00597335 0.00135968 0.00674464 0.00129111 0.00551553 0.00146167 0.00633433 0.01375175 0.00782526 0.00121443 0.00238296 0.00238904 0.00473051 0.00434311 0.00127773 
0.02926163 0.00587136 0.00132192 0.00657469 0.00130142 0.00553893 0.00147337 0.00637899 0.01372195 0.00794265 0.00121744 0.00234471 0.00247146 0.00471242 0.00433475 0.00127516 
0.02986763 0.00576468 0.00128441 0.00640593 0.00131205 0.00555811 0.00148622 0.00642035 0.01368381 0.00805447 0.00122073 0.00230467 0.00255494 0.00469029 0.00432194 0.00127195 
0.03045414 0.00565385 0.00124734 0.00623916 0.00132292 0.00557306 0.00150017 0.00645794 0.01363710 0.00816042 0.00122431 0.00226299 0.00263913 0.00466415 0.00430460 0.00126806 
0.03101994 0.00553940 0.00121089 0.00607519 0.00133399 0.00558375 0.00151515 0.00649135 0.01358158 0.00826025 0.00122818 0.00221984 0.00272364 0.00463406 0.00428267 0.00126348 
0.03156385 0.00542186 0.00117524 0.00591479 0.00134516 0.00559021 0.00153112 0.00652020 0.01351703 0.00835371 0.00123235 0.00217539 0.00280811 0.00460008 0.00425612 0.00125819 
0.03208483 0.00530178 0.00114058 0.00575873 0.00135640 0.00559246 0.00154800 0.00654418 0.01344326 0.00844060 0.00123681 0.00212979 0.00289216 0.00456231 0.00422496 0.00125220 
0.03258192 0.00517971 0.00110707 0.00560773 0.00136761 0.00559054 0.00156573 0.00656301 0.01336009 0.00852072 0.00124156 0.00208322 0.00297541 0.00452084 0.00418919 0.00124548 
0.03305426 0.00505620 0.00107488 0.00546250 0.00137875 0.00558451 0.00158423 0.00657648 0.01326735 0.00859392 0.00124661 0.00203585 0.00305748 0.00447579 0.00414886 0.00123804 
0.03350110 0.00493178 0.00104415 0.00532368 0.00138972 0.00557444 0.00160343 0.00658445 0.01316492 0.00866007 0.00125193 0.00198787 0.00313801 0.00442729 0.00410403 0.00122988 
0.03392181 0.00480700 0.00101505 0.00519190 0.00140048 0.00556042 0.00162323 0.00658680 0.01305271 0.00871906 0.00125752 0.00193944 0.00321662 0.00437547 0.00405480 0.00122101 
0.03431584 0.00468238 0.00098770 0.00506773 0.00141094 0.00554253 0.00164356 0.00658350 0.01293064 0.00877081 0.00126335 0.00189075 0.00329296 0.00432050 0.00400127 0.00121143 
0.03468277 0.00455843 0.00096223 0.00495169 0.00142104 0.00552089 0.00166431 0.00657456 0.01279869 0.00881526 0.00126943 0.00184197 0.00336668 0.00426253 0.00394357 0.00120117 
0.03502228 0.00443567 0.00093876 0.00484425 0.00143070 0.00549563 0.00168539 0.00656004 0.01265687 0.00885238 0.00127571 0.00179326 0.00343744 0.00420175 0.00388186 0.00119024 
0.03533416 0.00431457 0.00091738 0.00474584 0.00143987 0.00546686 0.00170670 0.00654006 0.01250526 0.00888217 0.00128218 0.00174480 0.00350492 0.00413833 0.00381630 0.00117867 
0.03561832 0.00419560 0.00089819 0.00465680 0.00144848 0.00543473 0.00172814 0.00651481 0.01234394 0.00890464 0.00128881 0.00169675 0.00356882 0.00407248 0.00374709 0.00116649 
0.03587475 0.00407922 0.00088127 0.00457744 0.00145647 0.00539938 0.00174961 0.00648448 0.01217308 0.00891984 0.00129556 0.00164928 0.00362885 0.00400439 0.00367444 0.00115373 
0.03610356 0.00396583 0.00086668 0.00450801 0.00146377 0.00536098 0.00177100 0.00644936 0.01199288 0.00892783 0.00130241 0.00160253 0.00368475 0.00393428 0.00359856 0.00114043 
0.03630497 0.00385584 0.00085447 0.00444868 0.00147034 0.00531967 0.00179220 0.00640975 0.01180360 0.00892869 0.00130932 0.00155665 0.00373627 0.00386235 0.00351971 0.00112663 
0.03647928 0.00374964 0.00084469 0.00439957 0.00147612 0.00527562 0.00181310 0.00636600 0.01160556 0.00892254 0.00131624 0.00151179 0.00378321 0.00378884 0.00343812 0.00111238 
0.03662689 0.00364755 0.00083736 0.00436072 0.00148105 0.00522901 0.00183360 0.00631850 0.01139910 0.00890949 0.00132314 0.00146808 0.00382537 0.00371395 0.00335408 0.00109773 
0.03674830 0.00354990 0.00083248 0.00433215 0.00148511 0.00518000 0.00185359 0.00626766 0.01118467 0.00888969 0.00132998 0.00142564 0.00386259 0.00363792 0.00326784 0.00108273 
0.03684407 0.00345698 0.00083007 0.00431376 0.00148823 0.00512876 0.00187296 0.00621393 0.01096273 0.00886330 0.00133670 0.00138459 0.00389473 0.00356097 0.00317970 0.00106744 
0.03691488 0.00336905 0.00083011 0.00430543 0.00149040 0.00507548 0.00189160 0.00615778 0.01073383 0.00883049 0.00134327 0.00134503 0.00392169 0.00348333 0.00308996 0.00105193 
0.03696144 0.00328633 0.00083257 0.00430698 0.00149158 0.00502032 0.00190941 0.00609970 0.01049854 0.00879146 0.00134962 0.00130707 0.00394338 0.00340522 0.00299890 0.00103626 
0.03698456 0.00320902 0.00083741 0.00431814 0.00149174 0.00496346 0.00192629 0.00604019 0.01025752 0.00874641 0.00135573 0.00127078 0.00395978 0.00332687 0.00290684 0.00102048 
0.03698510 0.00313729 0.00084459 0.00433861 0.00149087 0.00490508 0.00194213 0.00597976 0.01001145 0.00869556 0.00136152 0.00123625 0.00397086 0.00324849 0.00281408 0.00100468 
0.03696398 0.00307127 0.00085404 0.00436804 0.00148894 0.00484534 0.00195684 0.00591894 0.00976108 0.00863914 0.00136696 0.00120355 0.00397664 0.00317031 0.00272093 0.00098893 
0.03692216 0.00301106 0.00086568 0.00440601 0.00148596 0.00478441 0.00197032 0.00585824 0.00950721 0.00857738 0.00137199 0.00117272 0.00397717 0.00309253 0.00262769 0.00097329 
0.03686065 0.00295672 0.00087944 0.00445205 0.00148191 0.00472246 0.00198249 0.00579817 0.00925067 0.00851053 0.00137657 0.00114381 0.00397253 0.00301536 0.00253468 0.00095784 
0.03678049 0.00290831 0.00089523 0.00450568 0.00147681 0.00465964 0.00199326 0.00573923 0.00899235 0.00843884 0.00138064 0.00111686 0.00396284 0.00293899 0.00244220 0.00094265 
0.03668274 0.00286583 0.00091293 0.00456634 0.00147066 0.00459611 0.00200254 0.00568193 0.00873316 0.00836258 0.00138416 0.00109189 0.00394824 0.00286361 0.00235054 0.00092781 
0.03656851 0.00282925 0.00093245 0.00463346 0.00146347 0.00453203 0.00201027 0.00562672 0.00847407 0.00828200 0.00138707 0.00106890 0.00392890 0.00278940 0.00226000 0.00091337 
0.03643888 0.00279853 0.00095366 0.00470641 0.00145527 0.00446753 0.00201638 0.00557406 0.00821605 0.00819738 0.00138935 0.00104791 0.00390501 0.00271653 0.00217086 0.00089943 
0.03629496 0.00277360 0.00097644 0.00478456 0.00144609 0.00440276 0.00202080 0.00552436 0.00796012 0.00810899 0.00139093 0.00102890 0.00387681 0.00264517 0.00208340 0.00088605 
0.03613785 0.00275435 0.00100066 0.00486724 0.00143595 0.00433785 0.00202348 0.00547802 0.00770731 0.00801710 0.00139178 0.00101185 0.00384454 0.00257545 0.00199789 0.00087331 
0.03596865 0.00274064 0.00102620 0.00495377 0.00142489 0.00427292 0.00202437 0.00543540 0.00745867 0.00792198 0.00139187 0.00099673 0.00380848 0.00250752 0.00191457 0.00086127 
0.03578842 0.00273234 0.00105290 0.00504343 0.00141296 0.00420811 0.00202343 0.00539681 0.00721527 0.00782392 0.00139116 0.00098350 0.00376893 0.00244150 0.00183369 0.00085000 
0.03559823 0.00272925 0.00108063 0.00513553 0.00140021 0.00414353 0.00202062 0.00536253 0.00697817 0.00772317 0.00138961 0.00097212 0.00372621 0.00237750 0.00175549 0.00083957 
0.03539910 0.00273119 0.00110925 0.00522934 0.00138669 0.00407929 0.00201591 0.00533280 0.00674843 0.00762001 0.00138721 0.00096253 0.00368065 0.00231564 0.00168017 0.00083004 
0.03519200 0.00273794 0.00113861 0.00532415 0.00137245 0.00401549 0.00200930 0.00530780 0.00652712 0.00751472 0.00138392 0.00095466 0.00363260 0.00225598 0.00160793 0.00082147 
0.03497790 0.00274927 0.00116858 0.00541923 0.00135756 0.00395225 0.00200076 0.00528769 0.00631529 0.00740754 0.00137974 0.00094844 0.00358243 0.00219861 0.00153896 0.00081391 
0.03475769 0.00276492 0.00119899 0.00551389 0.00134209 0.00388964 0.00199029 0.00527255 0.00611396 0.00729876 0.00137464 0.00094380 0.00353051 0.00214359 0.00147342 0.00080742 
0.03453223 0.00278463 0.00122972 0.00560743 0.00132610 0.00382777 0.00197790 0.00526243 0.00592415 0.00718861 0.00136862 0.00094064 0.00347722 0.00209097 0.00141146 0.00080203 
0.03430231 0.00280811 0.00126063 0.00569917 0.00130966 0.00376673 0.00196361 0.00525733 0.00574683 0.00707735 0.00136166 0.00093887 0.00342296 0.00204079 0.00135321 0.00079780 
0.03406867 0.00283509 0.00129157 0.00578846 0.00129286 0.00370660 0.00194743 0.00525719 0.00558293 0.00696524 0.00135378 0.00093841 0.00336811 0.00199306 0.00129879 0.00079475 
0.03383200 0.00286525 0.00132241 0.00587465 0.00127576 0.00364745 0.00192941 0.00526191 0.00543338 0.00685249 0.00134497 0.00093914 0.00331306 0.00194781 0.00124828 0.00079292 
0.03359291 0.00289829 0.00135303 0.00595716 0.00125845 0.00358938 0.00190956 0.00527133 0.00529900 0.00673935 0.00133525 0.00094097 0.00325821 0.00190503 0.00120178 0.00079233 
0.03335196 0.00293390 0.00138331 0.00603539 0.00124101 0.00353245 0.00188795 0.00528526 0.00518061 0.00662605 0.00132462 0.00094378 0.00320393 0.00186471 0.00115932 0.00079300 
0.03310964 0.00297176 0.00141312 0.00610882 0.00122351 0.00347674 0.00186463 0.00530344 0.00507895 0.00651279 0.00131312 0.00094747 0.00315061 0.00182683 0.00112096 0.00079494 
0.03286637 0.00301153 0.00144235 0.00617695 0.00120605 0.00342233 0.00183965 0.00532558 0.00499469 0.00639980 0.00130077 0.00095193 0.00309861 0.00179136 0.00108671 0.00079816 
0.03262252 0.00305291 0.00147091 0.00623931 0.00118869 0.00336929 0.00181310 0.00535136 0.00492845 0.00628726 0.00128759 0.00095704 0.00304829 0.00175826 0.00105658 0.00080265 
0.03237837 0.00309556 0.00149869 0.00629548 0.00117152 0.00331770 0.00178504 0.00538039 0.00488077 0.00617539 0.00127363 0.00096270 0.00299997 0.00172747 0.00103055 0.00080841 
0.03213418 0.00313916 0.00152560 0.00634508 0.00115462 0.00326763 0.00175557 0.00541225 0.00485212 0.00606435 0.00125892 0.00096879 0.00295399 0.00169894 0.00100860 0.00081543 
0.03189010 0.00318339 0.00155157 0.00638780 0.00113807 0.00321916 0.00172477 0.00544652 0.00484287 0.00595434 0.00124350 0.00097520 0.00291064 0.00167260 0.00099066 0.00082369 
0.03164626 0.00322793 0.00157652 0.00642334 0.00112193 0.00317236 0.00169273 0.00548270 0.00485333 0.00584551 0.00122744 0.00098184 0.00287020 0.00164839 0.00097669 0.00083316 
0.03140273 0.00327247 0.00160039 0.00645147 0.00110629 0.00312732 0.00165957 0.00552031 0.00488372 0.00573804 0.00121077 0.00098858 0.00283293 0.00162622 0.00096659 0.00084381 
0.03115951 0.00331670 0.00162312 0.00647199 0.00109121 0.00308412 0.00162539 0.00555880 0.00493417 0.00563207 0.00119356 0.00099534 0.00279906 0.00160601 0.00096029 0.00085560 
0.03091658 0.00336034 0.00164466 0.00648478 0.00107676 0.00304284 0.00159031 0.00559764 0.00500471 0.00552774 0.00117588 0.00100202 0.00276880 0.00158767 0.00095766 0.00086848 
0.03067386 0.00340308 0.00166497 0.00648973 0.00106299 0.00300356 0.00155443 0.00563628 0.00509529 0.00542519 0.00115777 0.00100853 0.00274232 0.00157112 0.00095860 0.00088242 
0.03043126 0.00344465 0.00168403 0.00648681 0.00104997 0.00296638 0.00151789 0.00567413 0.00520577 0.00532454 0.00113932 0.00101477 0.00271977 0.00155626 0.00096297 0.00089735 
0.03018861 0.00348478 0.00170181 0.00647601 0.00103775 0.00293139 0.00148080 0.00571064 0.00533592 0.00522591 0.00112058 0.00102068 0.00270126 0.00154300 0.00097063 0.00091321 
0.02994578 0.00352321 0.00171829 0.00645739 0.00102637 0.00289869 0.00144330 0.00574522 0.00548540 0.00512941 0.00110164 0.00102616 0.00268690 0.00153125 0.00098143 0.00092995 
0.02970257 0.00355970 0.00173348 0.00643102 0.00101588 0.00286836 0.00140552 0.00577731 0.00565380 0.00503514 0.00108256 0.00103117 0.00267673 0.00152091 0.00099522 0.00094748 
0.02945878 0.00359402 0.00174737 0.00639706 0.00100632 0.00284052 0.00136758 0.00580634 0.00584061 0.00494319 0.00106343 0.00103562 0.00267078 0.00151189 0.00101182 0.00096574 
0.02921422 0.00362594 0.00175997 0.00635568 0.00099771 0.00281526 0.00132961 0.00583177 0.00604524 0.00485364 0.00104431 0.00103948 0.00266905 0.00150410 0.00103107 0.00098466 
0.02896869 0.00365525 0.00177130 0.00630708 0.00099009 0.00279269 0.00129177 0.00585306 0.00626700 0.00476655 0.00102529 0.00104269 0.00267151 0.00149746 0.00105279 0.00100414 
0.02872199 0.00368178 0.00178137 0.00625153 0.00098346 0.00277291 0.00125416 0.00586970 0.00650513 0.00468201 0.00100644 0.00104522 0.00267808 0.00149187 0.00107681 0.00102412 
0.02847393 0.00370534 0.00179022 0.00618930 0.00097785 0.00275602 0.00121694 0.00588122 0.00675879 0.00460006 0.00098783 0.00104703 0.00268869 0.00148727 0.00110294 0.00104450 
0.02822435 0.00372578 0.00179787 0.00612071 0.00097327 0.00274215 0.00118023 0.00588714 0.00702705 0.00452074 0.00096955 0.00104810 0.00270320 0.00148356 0.00113101 0.00106521 
0.02797311 0.00374295 0.00180437 0.00604612 0.00096970 0.00273138 0.00114415 0.00588707 0.00730893 0.00444411 0.00095166 0.00104842 0.00272148 0.00148068 0.00116082 0.00108615 
0.02772009 0.00375672 0.00180976 0.00596588 0.00096715 0.00272382 0.00110885 0.00588060 0.00760337 0.00437019 0.00093424 0.00104798 0.00274334 0.00147857 0.00119220 0.00110723 
0.02746520 0.00376699 0.00181407 0.00588040 0.00096561 0.00271959 0.00107444 0.00586741 0.00790925 0.00429901 0.00091736 0.00104677 0.00276859 0.00147716 0.00122498 0.00112837 
0.02720842 0.00377365 0.00181737 0.00579010 0.00096505 0.00271877 0.00104104 0.00584718 0.00822540 0.00423057 0.00090108 0.00104481 0.00279701 0.00147640 0.00125897 0.00114949 
0.02694975 0.00377663 0.00181970 0.00569539 0.00096546 0.00272147 0.00100878 0.00581966 0.00855058 0.00416489 0.00088548 0.00104212 0.00282835 0.00147624 0.00129401 0.00117049 
0.02668922 0.00377587 0.00182111 0.00559674 0.00096681 0.00272777 0.00097777 0.00578466 0.00888354 0.00410197 0.00087061 0.00103871 0.00286237 0.00147664 0.00132993 0.00119129 
0.02642695 0.00377133 0.00182166 0.00549460 0.00096906 0.00273777 0.00094812 0.00574202 0.00922297 0.00404180 0.00085652 0.00103462 0.00289878 0.00147756 0.00136658 0.00121180 
0.02616309 0.00376297 0.00182141 0.00538943 0.00097218 0.00275154 0.00091992 0.00569163 0.00956752 0.00398437 0.00084328 0.00102989 0.00293729 0.00147899 0.00140379 0.00123195 
0.02589784 0.00375080 0.00182040 0.00528171 0.00097611 0.00276915 0.00089329 0.00563346 0.00991583 0.00392965 0.00083093 0.00102455 0.00297761 0.00148088 0.00144144 0.00125165 
0.02563148 0.00373481 0.00181869 0.00517193 0.00098082 0.00279068 0.00086831 0.00556751 0.01026652 0.00387762 0.00081952 0.00101866 0.00301942 0.00148323 0.00147937 0.00127084 
0.02536433 0.00371504 0.00181635 0.00506054 0.00098625 0.00281617 0.00084507 0.00549384 0.01061820 0.00382823 0.00080908 0.00101227 0.00306241 0.00148603 0.00151746 0.00128943 
0.02509678 0.00369153 0.00181341 0.00494804 0.00099234 0.00284566 0.00082365 0.00541259 0.01096947 0.00378146 0.00079964 0.00100545 0.00310624 0.00148926 0.00155560 0.00130737 
0.02482928 0.00366432 0.00180993 0.00483489 0.00099904 0.00287919 0.00080412 0.00532391 0.01131894 0.00373724 0.00079125 0.00099825 0.00315060 0.00149295 0.00159368 0.00132458 
0.02456233 0.00363351 0.00180597 0.00472155 0.00100629 0.00291678 0.00078656 0.00522806 0.01166522 0.00369552 0.00078391 0.00099076 0.00319517 0.00149708 0.00163159 0.00134101 
0.02429649 0.00359918 0.00180156 0.00460848 0.00101401 0.00295843 0.00077101 0.00512532 0.01200695 0.00365626 0.00077764 0.00098303 0.00323961 0.00150167 0.00166925 0.00135660 
0.02403238 0.00356144 0.00179675 0.00449613 0.00102214 0.00300413 0.00075754 0.00501604 0.01234278 0.00361937 0.00077246 0.00097514 0.00328362 0.00150674 0.00170657 0.00137131 
0.02377068 0.00352041 0.00179158 0.00438494 0.00103062 0.00305385 0.00074618 0.00490061 0.01267141 0.00358478 0.00076837 0.00096717 0.00332688 0.00151230 0.00174349 0.00138509 
0.02351210 0.00347624 0.00178609 0.00427531 0.00103937 0.00310756 0.00073697 0.00477947 0.01299156 0.00355242 0.00076537 0.00095920 0.00336910 0.00151838 0.00177994 0.00139791 
0.02325740 0.00342908 0.00178030 0.00416766 0.00104832 0.00316518 0.00072995 0.00465313 0.01330200 0.00352222 0.00076345 0.00095131 0.00340997 0.00152499 0.00181589 0.00140972 
0.02300741 0.00337910 0.00177426 0.00406238 0.00105741 0.00322665 0.00072513 0.00452213 0.01360154 0.00349407 0.00076260 0.00094358 0.00344924 0.00153216 0.00185128 0.00142051 
0.02276297 0.00332649 0.00176798 0.00395984 0.00106656 0.00329186 0.00072252 0.00438706 0.01388906 0.00346788 0.00076280 0.00093609 0.00348664 0.00153993 0.00188608 0.00143025 
0.02252495 0.00327144 0.00176149 0.00386041 0.00107571 0.00336071 0.00072213 0.00424853 0.01416350 0.00344358 0.00076403 0.00092891 0.00352193 0.00154830 0.00192028 0.00143892 
0.02229427 0.00321417 0.00175480 0.00376440 0.00108479 0.00343304 0.00072397 0.00410723 0.01442384 0.00342104 0.00076624 0.00092211 0.00355488 0.00155732 0.00195385 0.00144653 
0.02207184 0.00315490 0.00174793 0.00367216 0.00109373 0.00350872 0.00072801 0.00396384 0.01466915 0.00340017 0.00076942 0.00091579 0.00358529 0.00156699 0.00198680 0.00145306 
0.02185862 0.00309388 0.00174088 0.00358399 0.00110247 0.00358756 0.00073424 0.00381909 0.01489859 0.00338087 0.00077350 0.00091000 0.00361297 0.00157735 0.00201911 0.00145852 
0.02165555 0.00303134 0.00173368 0.00350015 0.00111095 0.00366936 0.00074264 0.00367374 0.01511136 0.00336302 0.00077846 0.00090481 0.00363777 0.00158841 0.00205079 0.00146291 
0.02146358 0.00296756 0.00172631 0.00342094 0.00111911 0.00375391 0.00075318 0.00352856 0.01530677 0.00334651 0.00078424 0.00090028 0.00365955 0.00160020 0.00208186 0.00146625 
0.02128366 0.00290279 0.00171878 0.00334659 0.00112689 0.00384097 0.00076581 0.00338435 0.01548420 0.00333122 0.00079078 0.00089648 0.00367820 0.00161271 0.00211234 0.00146856 
0.02111673 0.00283733 0.00171108 0.00327734 0.00113425 0.00393029 0.00078049 0.00324192 0.01564312 0.00331704 0.00079802 0.00089346 0.00369361 0.00162596 0.00214223 0.00146986 
0.02096370 0.00277145 0.00170322 0.00321340 0.00114113 0.00402158 0.00079717 0.00310206 0.01578309 0.00330385 0.00080591 0.00089125 0.00370573 0.00163994 0.00217158 0.00147018 
0.02082545 0.00270544 0.00169517 0.00315499 0.00114749 0.00411457 0.00081579 0.00296561 0.01590375 0.00329153 0.00081436 0.00088992 0.00371452 0.00165466 0.00220039 0.00146955 
0.02070286 0.00263962 0.00168695 0.00310228 0.00115330 0.00420893 0.00083628 0.00283338 0.01600485 0.00327995 0.00082332 0.00088948 0.00371994 0.00167011 0.00222870 0.00146801 
0.02059674 0.00257428 0.00167853 0.00305545 0.00115851 0.00430433 0.00085857 0.00270618 0.01608621 0.00326899 0.00083271 0.00088996 0.00372201 0.00168626 0.00225654 0.00146561 
0.02050786 0.00250973 0.00166990 0.00301466 0.00116311 0.00440044 0.00088258 0.00258480 0.01614774 0.00325853 0.00084245 0.00089140 0.00372076 0.00170310 0.00228393 0.00146238 
0.02043695 0.00244628 0.00166106 0.00298007 0.00116706 0.00449689 0.00090824 0.00247003 0.01618945 0.00324844 0.00085248 0.00089379 0.00371622 0.00172058 0.00231091 0.00145839 
0.02038466 0.00238424 0.00165198 0.00295182 0.00117034 0.00459332 0.00093546 0.00236263 0.01621144 0.00323861 0.00086271 0.00089715 0.00370848 0.00173868 0.00233750 0.00145367 
0.02035161 0.00232393 0.00164267 0.00293003 0.00117295 0.00468932 0.00096414 0.00226334 0.01621389 0.00322891 0.00087306 0.00090147 0.00369762 0.00175734 0.00236372 0.00144828 
0.02033832 0.00226565 0.00163311 0.00291483 0.00117487 0.00478452 0.00099419 0.00217286 0.01619706 0.00321922 0.00088346 0.00090675 0.00368374 0.00177650 0.00238960 0.00144229 
0.02034525 0.00220971 0.00162330 0.00290634 0.00117610 0.00487851 0.00102551 0.00209186 0.01616131 0.00320941 0.00089382 0.00091296 0.00366697 0.00179612 0.00241515 0.00143574 
0.02037280 0.00215642 0.00161323 0.00290468 0.00117664 0.00497088 0.00105800 0.00202099 0.01610705 0.00319938 0.00090408 0.00092009 0.00364745 0.00181610 0.00244038 0.00142871 
0.02042125 0.00210606 0.00160289 0.00290995 0.00117650 0.00506122 0.00109155 0.00196081 0.01603479 0.00318900 0.00091415 0.00092809 0.00362534 0.00183639 0.00246532 0.00142124 
0.02049084 0.00205894 0.00159229 0.00292225 0.00117569 0.00514910 0.00112605 0.00191189 0.01594510 0.00317817 0.00092396 0.00093693 0.00360079 0.00185688 0.00248995 0.00141341 
0.02058169 0.00201532 0.00158144 0.00294170 0.00117422 0.00523411 0.00116139 0.00187471 0.01583862 0.00316678 0.00093343 0.00094657 0.00357399 0.00187749 0.00251428 0.00140527 
0.02069384 0.00197548 0.00157033 0.00296839 0.00117212 0.00531583 0.00119746 0.00184970 0.01571605 0.00315472 0.00094250 0.00095694 0.00354512 0.00189811 0.00253831 0.00139689 
0.02082724 0.00193968 0.00155899 0.00300242 0.00116941 0.00539386 0.00123414 0.00183725 0.01557816 0.00314189 0.00095110 0.00096798 0.00351437 0.00191864 0.00256203 0.00138833 
0.02098176 0.00190817 0.00154743 0.00304389 0.00116612 0.00546777 0.00127131 0.00183767 0.01542575 0.00312819 0.00095916 0.00097963 0.00348194 0.00193898 0.00258540 0.00137964 
0.02115716 0.00188117 0.00153567 0.00309292 0.00116228 0.00553718 0.00130886 0.00185122 0.01525969 0.00311354 0.00096662 0.00099182 0.00344802 0.00195899 0.00260843 0.00137090 
0.02135312 0.00185890 0.00152375 0.00314960 0.00115794 0.00560170 0.00134667 0.00187808 0.01508088 0.00309784 0.00097343 0.00100447 0.00341281 0.00197855 0.00263106 0.00136216 
0.02156922 0.00184156 0.00151169 0.00321404 0.00115313 0.00566094 0.00138462 0.00191839 0.01489025 0.00308103 0.00097953 0.00101748 0.00337652 0.00199755 0.00265328 0.00135348 
0.02180495 0.00182932 0.00149953 0.00328635 0.00114789 0.00571456 0.00142260 0.00197218 0.01468877 0.00306302 0.00098487 0.00103079 0.00333933 0.00201586 0.00267503 0.00134490 
0.02205972 0.00182235 0.00148733 0.00336663 0.00114228 0.00576220 0.00146048 0.00203944 0.01447743 0.00304376 0.00098942 0.00104429 0.00330145 0.00203333 0.00269628 0.00133649 
0.02233284 0.00182080 0.00147513 0.00345501 0.00113634 0.00580355 0.00149814 0.00212009 0.01425724 0.00302318 0.00099313 0.00105789 0.00326304 0.00204985 0.00271698 0.00132829 
0.02262354 0.00182476 0.00146299 0.00355159 0.00113013 0.00583829 0.00153548 0.00221395 0.01402921 0.00300124 0.00099596 0.00107150 0.00322431 0.00206527 0.00273706 0.00132035 
0.02293099 0.00183435 0.00145098 0.00365649 0.00112369 0.00586616 0.00157237 0.00232079 0.01379437 0.00297788 0.00099790 0.00108502 0.00318540 0.00207947 0.00275648 0.00131272 
0.02325425 0.00184964 0.00143916 0.00376982 0.00111708 0.00588691 0.00160871 0.00244031 0.01355375 0.00295309 0.00099892 0.00109834 0.00314648 0.00209232 0.00277517 0.00130543 
0.02359231 0.00187067 0.00142762 0.00389171 0.00111036 0.00590029 0.00164438 0.00257212 0.01330834 0.00292682 0.00099900 0.00111137 0.00310771 0.00210368 0.00279307 0.00129852 
0.02394412 0.00189747 0.00141642 0.00402226 0.00110358 0.00590613 0.00167928 0.00271578 0.01305916 0.00289907 0.00099814 0.00112400 0.00306920 0.00211343 0.00281010 0.00129203 
0.02430854 0.00193005 0.00140567 0.00416160 0.00109679 0.00590426 0.00171330 0.00287077 0.01280718 0.00286983 0.00099632 0.00113615 0.00303108 0.00212145 0.00282621 0.00128598 
0.02468436 0.00196837 0.00139544 0.00430982 0.00109006 0.00589454 0.00174634 0.00303651 0.01255335 0.00283911 0.00099355 0.00114770 0.00299347 0.00212763 0.00284133 0.00128041 
0.02507035 0.00201238 0.00138584 0.00446705 0.00108344 0.00587689 0.00177830 0.00321234 0.01229860 0.00280690 0.00098984 0.00115858 0.00295645 0.00213187 0.00285538 0.00127534 
0.02546519 0.00206202 0.00137696 0.00463337 0.00107697 0.00585122 0.00180909 0.00339756 0.01204382 0.00277324 0.00098520 0.00116868 0.00292009 0.00213405 0.00286830 0.00127077 
0.02586754 0.00211719 0.00136891 0.00480889 0.00107072 0.00581753 0.00183861 0.00359140 0.01178984 0.00273815 0.00097964 0.00117792 0.00288447 0.00213409 0.00288003 0.00126674 
0.02627602 0.00217776 0.00136180 0.00499369 0.00106473 0.00577581 0.00186678 0.00379304 0.01153746 0.00270168 0.00097319 0.00118622 0.00284963 0.00213190 0.00289049 0.00126324 
0.02668920 0.00224359 0.00135572 0.00518784 0.00105905 0.00572611 0.00189351 0.00400160 0.01128744 0.00266388 0.00096588 0.00119350 0.00281560 0.00212742 0.00289963 0.00126029 
0.02710565 0.00231451 0.00135079 0.00539141 0.00105373 0.00566852 0.00191874 0.00421616 0.01104046 0.00262480 0.00095774 0.00119967 0.00278240 0.00212058 0.00290740 0.00125789 
0.02752387 0.00239033 0.00134713 0.00560444 0.00104881 0.00560316 0.00194238 0.00443575 0.01079716 0.00258452 0.00094882 0.00120469 0.00275002 0.00211133 0.00291374 0.00125604 
0.02794240 0.00247084 0.00134483 0.00582696 0.00104434 0.00553019 0.00196437 0.00465938 0.01055811 0.00254312 0.00093914 0.00120849 0.00271847 0.00209964 0.00291861 0.00125473 
0.02835972 0.00255581 0.00134401 0.00605900 0.00104034 0.00544981 0.00198465 0.00488601 0.01032382 0.00250068 0.00092877 0.00121101 0.00268772 0.00208548 0.00292196 0.00125396 
0.02877433 0.00264500 0.00134478 0.00630054 0.00103686 0.00536224 0.00200316 0.00511458 0.01009473 0.00245731 0.00091775 0.00121221 0.00265773 0.00206885 0.00292376 0.00125371 
0.02918473 0.00273813 0.00134723 0.00655155 0.00103393 0.00526776 0.00201984 0.00534401 0.00987122 0.00241310 0.00090614 0.00121205 0.00262845 0.00204974 0.00292399 0.00125398 
0.02958941 0.00283493 0.00135148 0.00681198 0.00103156 0.00516666 0.00203467 0.00557320 0.00965358 0.00236816 0.00089399 0.00121050 0.00259983 0.00202818 0.00292263 0.00125473 
0.02998689 0.00293512 0.00135762 0.00708175 0.00102979 0.00505930 0.00204759 0.00580104 0.00944206 0.00232263 0.00088138 0.00120755 0.00257181 0.00200421 0.00291967 0.00125596 
0.03037567 0.00303838 0.00136573 0.00736075 0.00102863 0.00494604 0.00205857 0.00602641 0.00923682 0.00227663 0.00086836 0.00120317 0.00254431 0.00197787 0.00291511 0.00125765 
0.03075431 0.00314440 0.00137591 0.00764884 0.00102811 0.00482728 0.00206759 0.00624821 0.00903795 0.00223028 0.00085499 0.00119737 0.00251725 0.00194923 0.00290895 0.00125975 
0.03112137 0.00325287 0.00138823 0.00794585 0.00102822 0.00470345 0.00207462 0.00646534 0.00884548 0.00218373 0.00084135 0.00119015 0.00249056 0.00191837 0.00290123 0.00126225 
0.03147545 0.00336347 0.00140276 0.00825157 0.00102897 0.00457501 0.00207966 0.00667671 0.00865938 0.00213713 0.00082752 0.00118153 0.00246416 0.00188539 0.00289196 0.00126512 
0.03181516 0.00347588 0.00141957 0.00856576 0.00103037 0.00444244 0.00208269 0.00688126 0.00847953 0.00209061 0.00081354 0.00117153 0.00243796 0.00185040 0.00288118 0.00126832 
0.03213919 0.00358976 0.00143871 0.00888814 0.00103242 0.00430625 0.00208372 0.00707793 0.00830578 0.00204434 0.00079951 0.00116018 0.00241187 0.00181353 0.00286895 0.00127183 
0.03244623 0.00370480 0.00146022 0.00921838 0.00103511 0.00416697 0.00208275 0.00726574 0.00813789 0.00199846 0.00078549 0.00114753 0.00238581 0.00177491 0.00285531 0.00127560 
0.03273504 0.00382068 0.00148413 0.00955614 0.00103842 0.00402515 0.00207979 0.00744370 0.00797559 0.00195314 0.00077155 0.00113362 0.00235972 0.00173472 0.00284034 0.00127961 
0.03300441 0.00393710 0.00151046 0.00990100 0.00104235 0.00388133 0.00207486 0.00761091 0.00781855 0.00190853 0.00075777 0.00111851 0.00233352 0.00169311 0.00282412 0.00128381 
0.03325320 0.00405376 0.00153923 0.01025252 0.00104687 0.00373610 0.00206799 0.00776648 0.00766639 0.00186479 0.00074420 0.00110228 0.00230715 0.00165027 0.00280673 0.00128817 
0.03348031 0.00417038 0.00157042 0.01061022 0.00105197 0.00359004 0.00205921 0.00790960 0.00751869 0.00182207 0.00073093 0.00108498 0.00228056 0.00160640 0.00278828 0.00129265 
0.03368471 0.00428669 0.00160402 0.01097356 0.00105761 0.00344374 0.00204855 0.00803951 0.00737500 0.00178054 0.00071802 0.00106672 0.00225369 0.00156171 0.00276885 0.00129722 
0.03386542 0.00440244 0.00164001 0.01134196 0.00106378 0.00329778 0.00203606 0.00815552 0.00723484 0.00174033 0.00070553 0.00104757 0.00222654 0.00151641 0.00274858 0.00130184 
0.03402153 0.00451741 0.00167833 0.01171482 0.00107043 0.00315277 0.00202179 0.00825701 0.00709771 0.00170161 0.00069352 0.00102764 0.00219906 0.00147074 0.00272757 0.00130647 
0.03415220 0.00463137 0.00171893 0.01209146 0.00107754 0.00300930 0.00200580 0.00834343 0.00696307 0.00166451 0.00068206 0.00100701 0.00217128 0.00142493 0.00270596 0.00131108 
0.03425665 0.00474416 0.00176174 0.01247117 0.00108506 0.00286795 0.00198815 0.00841430 0.00683040 0.00162918 0.00067120 0.00098582 0.00214319 0.00137923 0.00268389 0.00131563 
0.03433418 0.00485561 0.00180668 0.01285322 0.00109295 0.00272931 0.00196891 0.00846923 0.00669917 0.00159575 0.00066099 0.00096415 0.00211483 0.00133389 0.00266148 0.00132009 
0.03438415 0.00496560 0.00185365 0.01323681 0.00110118 0.00259393 0.00194815 0.00850791 0.00656884 0.00156435 0.00065149 0.00094214 0.00208624 0.00128916 0.00263890 0.00132443 
0.03440600 0.00507402 0.00190253 0.01362111 0.00110970 0.00246237 0.00192595 0.00853012 0.00643890 0.00153509 0.00064274 0.00091990 0.00205749 0.00124531 0.00261628 0.00132861 
0.03439926 0.00518082 0.00195320 0.01400525 0.00111846 0.00233517 0.00190240 0.00853572 0.00630884 0.00150809 0.00063478 0.00089756 0.00202867 0.00120260 0.00259378 0.00133261 
0.03436351 0.00528596 0.00200553 0.01438833 0.00112741 0.00221285 0.00187759 0.00852465 0.00617820 0.00148345 0.00062764 0.00087523 0.00199986 0.00116130 0.00257155 0.00133641 
0.03429844 0.00538944 0.00205936 0.01476942 0.00113652 0.00209589 0.00185160 0.00849696 0.00604652 0.00146126 0.00062137 0.00085306 0.00197121 0.00112166 0.00254976 0.00133997 
0.03420379 0.00549129 0.00211453 0.01514754 0.00114573 0.00198476 0.00182455 0.00845276 0.00591341 0.00144159 0.00061599 0.00083117 0.00194283 0.00108395 0.00252854 0.00134327 
0.03407942 0.00559159 0.00217088 0.01552170 0.00115498 0.00187991 0.00179653 0.00839226 0.00577852 0.00142453 0.00061152 0.00080969 0.00191490 0.00104843 0.00250807 0.00134630 
0.03392524 0.00569043 0.00222821 0.01589088 0.00116424 0.00178174 0.00176766 0.00831577 0.00564155 0.00141012 0.00060799 0.00078875 0.00188759 0.00101534 0.00248850 0.00134903 
0.03374125 0.00578797 0.00228634 0.01625404 0.00117346 0.00169064 0.00173804 0.00822367 0.00550224 0.00139842 0.00060540 0.00076848 0.00186109 0.00098494 0.00246997 0.00135145 
0.03352755 0.00588438 0.00234507 0.01661012 0.00118258 0.00160695 0.00170779 0.00811643 0.00536044 0.00138945 0.00060378 0.00074899 0.00183560 0.00095746 0.00245263 0.00135354 
0.03328431 0.00597987 0.00240420 0.01695805 0.00119156 0.00153097 0.00167703 0.00799460 0.00521603 0.00138325 0.00060312 0.00073042 0.00181136 0.00093313 0.00243663 0.00135530 
0.03301180 0.00607469 0.00246350 0.01729675 0.00120034 0.00146298 0.00164588 0.00785879 0.00506898 0.00137981 0.00060342 0.00071289 0.00178861 0.00091217 0.00242210 0.00135672 
0.03271035 0.00616912 0.00252276 0.01762512 0.00120890 0.00140322 0.00161447 0.00770972 0.00491934 0.00137914 0.00060468 0.00069651 0.00176759 0.00089478 0.00240917 0.00135779 
0.03238041 0.00626348 0.00258175 0.01794209 0.00121718 0.00135186 0.00158291 0.00754814 0.00476725 0.00138120 0.00060689 0.00068140 0.00174857 0.00088114 0.00239797 0.00135851 
0.03202248 0.00635810 0.00264027 0.01824658 0.00122514 0.00130908 0.00155136 0.00737491 0.00461293 0.00138598 0.00061005 0.00066765 0.00173182 0.00087144 0.00238861 0.00135887 
0.03163718 0.00645337 0.00269807 0.01853752 0.00123274 0.00127497 0.00151992 0.00719091 0.00445670 0.00139343 0.00061412 0.00065538 0.00171763 0.00086584 0.00238120 0.00135889 
0.03122518 0.00654969 0.00275493 0.01881385 0.00123994 0.00124960 0.00148874 0.00699709 0.00429894 0.00140348 0.00061909 0.00064468 0.00170629 0.00086446 0.00237583 0.00135856 
0.03078727 0.00664747 0.00281063 0.01907454 0.00124672 0.00123301 0.00145794 0.00679447 0.00414015 0.00141608 0.00062494 0.00063563 0.00169808 0.00086744 0.00237258 0.00135789 
0.03032428 0.00674718 0.00286494 0.01931859 0.00125303 0.00122517 0.00142767 0.00658409 0.00398092 0.00143113 0.00063164 0.00062832 0.00169331 0.00087487 0.00237154 0.00135689 
0.02983716 0.00684928 0.00291766 0.01954501 0.00125884 0.00122604 0.00139805 0.00636704 0.00382193 0.00144854 0.00063914 0.00062281 0.00169226 0.00088684 0.00237276 0.00135558 
0.02932692 0.00695426 0.00296857 0.01975288 0.00126414 0.00123550 0.00136922 0.00614443 0.00366395 0.00146821 0.00064742 0.00061917 0.00169524 0.00090340 0.00237629 0.00135396 
0.02879466 0.00706261 0.00301747 0.01994128 0.00126889 0.00125342 0.00134132 0.00591741 0.00350782 0.00149002 0.00065644 0.00061746 0.00170253 0.00092458 0.00238217 0.00135205 
0.02824153 0.00717486 0.00306415 0.02010938 0.00127308 0.00127961 0.00131447 0.00568714 0.00335449 0.00151383 0.00066615 0.00061772 0.00171440 0.00095041 0.00239042 0.00134987 
0.02766878 0.00729150 0.00310845 0.02025637 0.00127668 0.00131387 0.00128880 0.00545480 0.00320497 0.00153952 0.00067651 0.00062000 0.00173114 0.00098086 0.00240104 0.00134744 
0.02707771 0.00741308 0.00315018 0.02038152 0.00127969 0.00135593 0.00126444 0.00522157 0.00306038 0.00156694 0.00068747 0.00062430 0.00175300 0.00101590 0.00241405 0.00134478 
0.02646972 0.00754011 0.00318918 0.02048415 0.00128209 0.00140550 0.00124153 0.00498863 0.00292187 0.00159593 0.00069898 0.00063067 0.00178022 0.00105548 0.00242940 0.00134191 
0.02584623 0.00767310 0.00322532 0.02056365 0.00128387 0.00146225 0.00122019 0.00475715 0.00279069 0.00162634 0.00071099 0.00063909 0.00181305 0.00109950 0.00244708 0.00133885 
0.02520875 0.00781257 0.00325844 0.02061948 0.00128503 0.00152583 0.00120052 0.00452829 0.00266811 0.00165800 0.00072345 0.00064957 0.00185168 0.00114787 0.00246704 0.00133563 
0.02455884 0.00795901 0.00328845 0.02065117 0.00128557 0.00159585 0.00118267 0.00430318 0.00255549 0.00169073 0.00073630 0.00066210 0.00189631 0.00120045 0.00248921 0.00133228 
0.02389812 0.00811291 0.00331523 0.02065834 0.00128550 0.00167189 0.00116673 0.00408293 0.00245421 0.00172436 0.00074950 0.00067665 0.00194711 0.00125708 0.00251352 0.00132881 
0.02322824 0.00827472 0.00333872 0.02064068 0.00128480 0.00175350 0.00115281 0.00386860 0.00236568 0.00175872 0.00076297 0.00069319 0.00200422 0.00131758 0.00253989 0.00132526 
0.02255091 0.00844489 0.00335884 0.02059798 0.00128350 0.00184023 0.00114103 0.00366123 0.00229134 0.00179362 0.00077667 0.00071167 0.00206775 0.00138176 0.00256820 0.00132166 
0.02186788 0.00862381 0.00337556 0.02053010 0.00128161 0.00193160 0.00113147 0.00346181 0.00223266 0.00182888 0.00079054 0.00073205 0.00213780 0.00144939 0.00259835 0.00131802 
0.02118092 0.00881187 0.00338884 0.02043700 0.00127913 0.00202709 0.00112424 0.00327125 0.00219108 0.00186433 0.00080453 0.00075426 0.00221440 0.00152024 0.00263021 0.00131438 
0.02049184 0.00900942 0.00339870 0.02031873 0.00127609 0.00212620 0.00111942 0.00309045 0.00216805 0.00189978 0.00081857 0.00077823 0.00229760 0.00159402 0.00266364 0.00131076 
0.01980248 0.00921675 0.00340514 0.02017543 0.00127250 0.00222839 0.00111709 0.00292021 0.00216501 0.00193507 0.00083262 0.00080388 0.00238738 0.00167048 0.00269850 0.00130719 
0.01911467 0.00943412 0.00340820 0.02000733 0.00126839 0.00233314 0.00111732 0.00276127 0.00218336 0.00197002 0.00084662 0.00083111 0.00248371 0.00174930 0.00273461 0.00130370 
0.01843028 0.00966174 0.00340794 0.01981476 0.00126379 0.00243991 0.00112019 0.00261432 0.00222445 0.00200447 0.00086051 0.00085984 0.00258649 0.00183018 0.00277182 0.00130031 
0.01775117 0.00989979 0.00340445 0.01959814 0.00125871 0.00254815 0.00112574 0.00247995 0.00228959 0.00203825 0.00087426 0.00088995 0.00269563 0.00191279 0.00280995 0.00129705 
0.01707921 0.01014838 0.00339782 0.01935796 0.00125318 0.00265732 0.00113404 0.00235868 0.00238002 0.00207122 0.00088780 0.00092134 0.00281096 0.00199678 0.00284881 0.00129393 
0.01641626 0.01040756 0.00338816 0.01909485 0.00124725 0.00276689 0.00114512 0.00225097 0.00249690 0.00210324 0.00090109 0.00095388 0.00293232 0.00208181 0.00288821 0.00129099 
0.01576415 0.01067733 0.00337563 0.01880947 0.00124094 0.00287633 0.00115902 0.00215718 0.00264132 0.00213417 0.00091410 0.00098745 0.00305947 0.00216752 0.00292796 0.00128824 
0.01512471 0.01095765 0.00336038 0.01850261 0.00123427 0.00298512 0.00117576 0.00207758 0.00281425 0.00216389 0.00092676 0.00102192 0.00319216 0.00225354 0.00296784 0.00128569 
0.01449973 0.01124839 0.00334258 0.01817511 0.00122730 0.00309275 0.00119535 0.00201237 0.00301656 0.00219230 0.00093905 0.00105715 0.00333010 0.00233950 0.00300766 0.00128338 
0.01389098 0.01154938 0.00332242 0.01782791 0.00122005 0.00319873 0.00121781 0.00196165 0.00324901 0.00221928 0.00095093 0.00109300 0.00347297 0.00242503 0.00304722 0.00128132 
0.01330019 0.01186037 0.00330012 0.01746203 0.00121257 0.00330261 0.00124313 0.00192547 0.00351222 0.00224477 0.00096237 0.00112932 0.00362040 0.00250975 0.00308629 0.00127951 
0.01272902 0.01218107 0.00327590 0.01707852 0.00120488 0.00340391 0.00127130 0.00190374 0.00380668 0.00226868 0.00097333 0.00116598 0.00377200 0.00259328 0.00312468 0.00127799 
0.01217911 0.01251111 0.00324999 0.01667855 0.00119704 0.00350223 0.00130229 0.00189634 0.00413274 0.00229096 0.00098378 0.00120281 0.00392735 0.00267527 0.00316217 0.00127674 
0.01165202 0.01285006 0.00322264 0.01626331 0.00118907 0.00359715 0.00133607 0.00190304 0.00449057 0.00231156 0.00099371 0.00123968 0.00408601 0.00275533 0.00319856 0.00127580 
0.01114925 0.01319743 0.00319411 0.01583407 0.00118101 0.00368831 0.00137260 0.00192353 0.00488022 0.00233047 0.00100310 0.00127643 0.00424749 0.00283312 0.00323365 0.00127515 
0.01067223 0.01355267 0.00316468 0.01539212 0.00117292 0.00377537 0.00141182 0.00195743 0.00530156 0.00234767 0.00101192 0.00131291 0.00441129 0.00290829 0.00326725 0.00127482 
0.01022232 0.01391517 0.00313460 0.01493883 0.00116481 0.00385801 0.00145368 0.00200428 0.00575428 0.00236317 0.00102016 0.00134896 0.00457689 0.00298049 0.00329916 0.00127480 
0.00980079 0.01428426 0.00310417 0.01447557 0.00115674 0.00393595 0.00149809 0.00206356 0.00623792 0.00237697 0.00102783 0.00138445 0.00474374 0.00304940 0.00332920 0.00127509 
0.00940882 0.01465921 0.00307367 0.01400377 0.00114875 0.00400896 0.00154498 0.00213467 0.00675183 0.00238913 0.00103490 0.00141922 0.00491128 0.00311472 0.00335719 0.00127570 
0.00904751 0.01503926 0.00304338 0.01352486 0.00114086 0.00407682 0.00159424 0.00221696 0.00729520 0.00239968 0.00104137 0.00145313 0.00507894 0.00317614 0.00338297 0.00127663 
0.00871786 0.01542356 0.00301359 0.01304029 0.00113312 0.00413936 0.00164580 0.00230971 0.00786702 0.00240871 0.00104726 0.00148604 0.00524612 0.00323340 0.00340638 0.00127786 
0.00842077 0.01581126 0.00298459 0.01255154 0.00112556 0.00419645 0.00169952 0.00241214 0.00846614 0.00241628 0.00105257 0.00151782 0.00541223 0.00328623 0.00342728 0.00127940 
0.00815702 0.01620143 0.00295664 0.01206006 0.00111822 0.00424798 0.00175529 0.00252346 0.00909122 0.00242249 0.00105731 0.00154834 0.00557666 0.00333441 0.00344553 0.00128124 
0.00792731 0.01659311 0.00293004 0.01156732 0.00111113 0.00429390 0.00181299 0.00264278 0.00974075 0.00242746 0.00106148 0.00157747 0.00573881 0.00337772 0.00346101 0.00128337 
0.00773222 0.01698532 0.00290503 0.01107476 0.00110432 0.00433419 0.00187247 0.00276923 0.01041308 0.00243130 0.00106511 0.00160510 0.00589809 0.00341597 0.00347362 0.00128578 
0.00757220 0.01737703 0.00288188 0.01058381 0.00109783 0.00436884 0.00193361 0.00290187 0.01110637 0.00243414 0.00106823 0.00163111 0.00605388 0.00344900 0.00348326 0.00128846 
0.00744761 0.01776720 0.00286083 0.01009587 0.00109169 0.00439791 0.00199624 0.00303974 0.01181866 0.00243614 0.00107084 0.00165541 0.00620560 0.00347667 0.00348985 0.00129140 
0.00735868 0.01815477 0.00284212 0.00961232 0.00108592 0.00442149 0.00206022 0.00318189 0.01254785 0.00243745 0.00107298 0.00167789 0.00635267 0.00349887 0.00349334 0.00129457 
0.00730554 0.01853864 0.00282595 0.00913449 0.00108055 0.00443968 0.00212538 0.00332733 0.01329170 0.00243822 0.00107469 0.00169848 0.00649452 0.00351550 0.00349366 0.00129797 
0.00728818 0.01891772 0.00281254 0.00866366 0.00107561 0.00445264 0.00219157 0.00347506 0.01404786 0.00243864 0.00107599 0.00171709 0.00663060 0.00352652 0.00349080 0.00130159 
0.00730648 0.01929092 0.00280205 0.00820107 0.00107111 0.00446054 0.00225860 0.00362411 0.01481386 0.00243888 0.00107692 0.00173365 0.00676038 0.00353188 0.00348473 0.00130539 
0.00736023 0.01965714 0.00279465 0.00774790 0.00106709 0.00446359 0.00232631 0.00377348 0.01558716 0.00243913 0.00107752 0.00174811 0.00688337 0.00353158 0.00347545 0.00130937 
0.00744906 0.02001528 0.00279048 0.00730528 0.00106356 0.00446203 0.00239453 0.00392223 0.01636513 0.00243956 0.00107783 0.00176042 0.00699907 0.00352564 0.00346298 0.00131351 
0.00757252 0.02036428 0.00278966 0.00687426 0.00106054 0.00445612 0.00246308 0.00406938 0.01714506 0.00244038 0.00107790 0.00177054 0.00710704 0.00351411 0.00344735 0.00131778 
0.00773004 0.02070306 0.00279228 0.00645582 0.00105804 0.00444614 0.00253178 0.00421403 0.01792422 0.00244176 0.00107776 0.00177843 0.00720687 0.00349707 0.00342860 0.00132217 
0.00792093 0.02103058 0.00279841 0.00605088 0.00105608 0.00443238 0.00260046 0.00435528 0.01869982 0.00244391 0.00107747 0.00178409 0.00729816 0.00347460 0.00340681 0.00132666 
0.00814442 0.02134583 0.00280810 0.00566027 0.00105467 0.00441519 0.00266895 0.00449228 0.01946908 0.00244700 0.00107707 0.00178750 0.00738058 0.00344684 0.00338205 0.00133123 
0.00839960 0.02164783 0.00282136 0.00528475 0.00105383 0.00439488 0.00273707 0.00462421 0.02022919 0.00245123 0.00107661 0.00178867 0.00745381 0.00341393 0.00335441 0.00133585 
0.00868551 0.02193565 0.00283819 0.00492499 0.00105355 0.00437180 0.00280466 0.00475031 0.02097738 0.00245675 0.00107614 0.00178761 0.00751758 0.00337605 0.00332400 0.00134051 
0.00900104 0.02220838 0.00285856 0.00458159 0.00105385 0.00434633 0.00287154 0.00486986 0.02171091 0.00246376 0.00107571 0.00178433 0.00757166 0.00333337 0.00329094 0.00134519 
0.00934504 0.02246516 0.00288240 0.00425505 0.00105472 0.00431881 0.00293756 0.00498220 0.02242709 0.00247241 0.00107537 0.00177888 0.00761588 0.00328612 0.00325537 0.00134986 
0.00971625 0.02270521 0.00290963 0.00394580 0.00105618 0.00428962 0.00300257 0.00508674 0.02312330 0.00248284 0.00107517 0.00177130 0.00765008 0.00323453 0.00321742 0.00135451 
0.01011333 0.02292777 0.00294013 0.00365416 0.00105822 0.00425913 0.00306641 0.00518294 0.02379700 0.00249521 0.00107516 0.00176163 0.00767418 0.00317883 0.00317727 0.00135912 
0.01053488 0.02313217 0.00297376 0.00338039 0.00106084 0.00422771 0.00312896 0.00527034 0.02444575 0.00250964 0.00107537 0.00174995 0.00768813 0.00311931 0.00313507 0.00136366 
0.01097943 0.02331779 0.00301036 0.00312465 0.00106403 0.00419571 0.00319007 0.00534853 0.02506726 0.00252624 0.00107587 0.00173631 0.00769191 0.00305623 0.00309100 0.00136813 
0.01144544 0.02348407 0.00304974 0.00288702 0.00106779 0.00416351 0.00324964 0.00541718 0.02565934 0.00254511 0.00107669 0.00172081 0.00768557 0.00298988 0.00304525 0.00137251 
0.01193131 0.02363052 0.00309168 0.00266750 0.00107211 0.00413144 0.00330754 0.00547605 0.02621996 0.00256633 0.00107788 0.00170352 0.00766920 0.00292056 0.00299802 0.00137677 
0.01243543 0.02375675 0.00313595 0.00246600 0.00107698 0.00409984 0.00336367 0.00552496 0.02674726 0.00258997 0.00107947 0.00168454 0.00764293 0.00284859 0.00294949 0.00138090 
0.01295609 0.02386240 0.00318229 0.00228237 0.00108239 0.00406902 0.00341795 0.00556379 0.02723956 0.00261608 0.00108150 0.00166397 0.00760693 0.00277428 0.00289988 0.00138489 
0.01349159 0.02394723 0.00323043 0.00211637 0.00108832 0.00403930 0.00347031 0.00559252 0.02769534 0.00264468 0.00108401 0.00164192 0.00756142 0.00269795 0.00284940 0.00138872 
0.01404019 0.02401104 0.00328006 0.00196769 0.00109476 0.00401095 0.00352067 0.00561120 0.02811332 0.00267578 0.00108702 0.00161850 0.00750667 0.00261992 0.00279825 0.00139238 
0.01460012 0.02405372 0.00333088 0.00183596 0.00110169 0.00398423 0.00356899 0.00561996 0.02849240 0.00270937 0.00109057 0.00159384 0.00744296 0.00254053 0.00274665 0.00139586 
0.01516961 0.02407527 0.00338256 0.00172073 0.00110909 0.00395940 0.00361523 0.00561898 0.02883171 0.00274542 0.00109467 0.00156805 0.00737064 0.00246010 0.00269481 0.00139914 
0.01574685 0.02407572 0.00343476 0.00162151 0.00111694 0.00393665 0.00365938 0.00560853 0.02913061 0.00278387 0.00109934 0.00154126 0.00729009 0.00237895 0.00264295 0.00140221 
0.01633008 0.02405520 0.00348713 0.00153775 0.00112522 0.00391617 0.00370141 0.00558895 0.02938867 0.00282464 0.00110460 0.00151360 0.00720171 0.00229740 0.00259127 0.00140507 
0.01691749 0.02401394 0.00353932 0.00146883 0.00113390 0.00389814 0.00374134 0.00556064 0.02960572 0.00286765 0.00111046 0.00148521 0.00710595 0.00221577 0.00254000 0.00140771 
0.01750731 0.02395221 0.00359096 0.00141410 0.00114295 0.00388268 0.00377919 0.00552407 0.02978179 0.00291278 0.00111692 0.00145623 0.00700327 0.00213437 0.00248932 0.00141011 
0.01809779 0.02387037 0.00364169 0.00137288 0.00115235 0.00386990 0.00381500 0.00547977 0.02991719 0.00295990 0.00112399 0.00142678 0.00689418 0.00205348 0.00243945 0.00141227 
0.01868719 0.02376888 0.00369114 0.00134443 0.00116207 0.00385986 0.00384881 0.00542832 0.03001244 0.00300885 0.00113165 0.00139700 0.00677920 0.00197341 0.00239057 0.00141419 
0.01927380 0.02364824 0.00373895 0.00132799 0.00117207 0.00385262 0.00388068 0.00537035 0.03006829 0.00305945 0.00113990 0.00136704 0.00665886 0.00189443 0.00234287 0.00141585 
0.01985596 0.02350902 0.00378474 0.00132277 0.00118233 0.00384819 0.00391071 0.00530656 0.03008574 0.00311152 0.00114872 0.00133702 0.00653373 0.00181681 0.00229653 0.00141726 
0.02043201 0.02335189 0.00382819 0.00132798 0.00119280 0.00384656 0.00393898 0.00523766 0.03006599 0.00316485 0.00115810 0.00130708 0.00640438 0.00174079 0.00225172 0.00141840 
0.02100036 0.02317755 0.00386893 0.00134278 0.00120346 0.00384768 0.00396559 0.00516442 0.03001047 0.00321922 0.00116800 0.00127735 0.00627140 0.00166662 0.00220860 0.00141928 
0.02155948 0.02298678 0.00390664 0.00136636 0.00121426 0.00385148 0.00399066 0.00508764 0.02992081 0.00327439 0.00117840 0.00124796 0.00613539 0.00159451 0.00216731 0.00141988 
0.02210786 0.02278041 0.00394100 0.00139786 0.00122518 0.00385787 0.00401433 0.00500813 0.02979886 0.00333012 0.00118926 0.00121903 0.00599694 0.00152466 0.00212800 0.00142022 
0.02264405 0.02255934 0.00397171 0.00143646 0.00123617 0.00386671 0.00403672 0.00492674 0.02964662 0.00338613 0.00120055 0.00119069 0.00585666 0.00145727 0.00209079 0.00142027 
0.02316669 0.02232450 0.00399850 0.00148133 0.00124718 0.00387785 0.00405801 0.00484433 0.02946628 0.00344215 0.00121221 0.00116305 0.00571515 0.00139251 0.00205580 0.00142005 
0.02367443 0.02207688 0.00402111 0.00153163 0.00125819 0.00389112 0.00407833 0.00476175 0.02926020 0.00349792 0.00122420 0.00113622 0.00557300 0.00133051 0.00202311 0.00141955 
0.02416601 0.02181750 0.00403931 0.00158658 0.00126915 0.00390632 0.00409787 0.00467989 0.02903087 0.00355314 0.00123646 0.00111030 0.00543080 0.00127143 0.00199283 0.00141877 
0.02464025 0.02154744 0.00405289 0.00164536 0.00128001 0.00392323 0.00411680 0.00459959 0.02878090 0.00360753 0.00124894 0.00108539 0.00528914 0.00121536 0.00196502 0.00141770 
0.02509601 0.02126778 0.00406168 0.00170722 0.00129074 0.00394161 0.00413529 0.00452171 0.02851302 0.00366078 0.00126159 0.00106159 0.00514858 0.00116241 0.00193974 0.00141634 
0.02553223 0.02097966 0.00406553 0.00177141 0.00130130 0.00396122 0.00415355 0.00444710 0.02823005 0.00371262 0.00127432 0.00103898 0.00500965 0.00111264 0.00191704 0.00141470 
0.02594791 0.02068422 0.00406433 0.00183721 0.00131163 0.00398177 0.00417175 0.00437655 0.02793487 0.00376274 0.00128709 0.00101763 0.00487290 0.00106612 0.00189695 0.00141277 
0.02634214 0.02038263 0.00405800 0.00190395 0.00132170 0.00400300 0.00419009 0.00431087 0.02763043 0.00381086 0.00129981 0.00099761 0.00473883 0.00102289 0.00187948 0.00141055 
0.02671406 0.02007606 0.00404650 0.00197098 0.00133147 0.00402461 0.00420876 0.00425079 0.02731970 0.00385670 0.00131243 0.00097898 0.00460793 0.00098296 0.00186464 0.00140804 
0.02706290 0.01976571 0.00402983 0.00203768 0.00134088 0.00404630 0.00422796 0.00419705 0.02700568 0.00389998 0.00132486 0.00096179 0.00448064 0.00094633 0.00185241 0.00140524 
0.02738794 0.01945276 0.00400801 0.00210348 0.00134991 0.00406777 0.00424788 0.00415029 0.02669132 0.00394044 0.00133704 0.00094609 0.00435740 0.00091300 0.00184277 0.00140214 
0.02768854 0.01913840 0.00398111 0.00216786 0.00135850 0.00408870 0.00426870 0.00411116 0.02637960 0.00397781 0.00134889 0.00093191 0.00423861 0.00088292 0.00183568 0.00139875 
0.02796413 0.01882379 0.00394925 0.00223032 0.00136662 0.00410881 0.00429060 0.00408021 0.02607340 0.00401187 0.00136034 0.00091927 0.00412463 0.00085606 0.00183109 0.00139506 
0.02821422 0.01851011 0.00391256 0.00229043 0.00137423 0.00412777 0.00431377 0.00405795 0.02577557 0.00404238 0.00137132 0.00090820 0.00401580 0.00083234 0.00182894 0.00139107 
0.02843838 0.01819848 0.00387125 0.00234777 0.00138129 0.00414530 0.00433837 0.00404484 0.02548885 0.00406913 0.00138176 0.00089868 0.00391241 0.00081169 0.00182914 0.00138678 
0.02863623 0.01789004 0.00382552 0.00240200 0.00138775 0.00416108 0.00436455 0.00404126 0.02521588 0.00409192 0.00139158 0.00089074 0.00381472 0.00079402 0.00183160 0.00138219 
0.02880748 0.01758586 0.00377566 0.00245281 0.00139359 0.00417485 0.00439247 0.00404752 0.02495917 0.00411059 0.00140073 0.00088434 0.00372298 0.00077923 0.00183624 0.00137729 
0.02895190 0.01728700 0.00372196 0.00249992 0.00139877 0.00418632 0.00442226 0.00406387 0.02472110 0.00412498 0.00140914 0.00087949 0.00363735 0.00076720 0.00184295 0.00137210 
0.02906932 0.01699447 0.00366476 0.00254313 0.00140325 0.00419523 0.00445405 0.00409049 0.02450390 0.00413496 0.00141676 0.00087614 0.00355800 0.00075781 0.00185160 0.00136659 
0.02915963 0.01670923 0.00360443 0.00258225 0.00140701 0.00420133 0.00448794 0.00412748 0.02430959 0.00414042 0.00142351 0.00087426 0.00348504 0.00075092 0.00186207 0.00136078 
0.02922279 0.01643221 0.00354139 0.00261715 0.00141001 0.00420440 0.00452402 0.00417487 0.02414003 0.00414127 0.00142937 0.00087381 0.00341855 0.00074639 0.00187422 0.00135466 
0.02925881 0.01616426 0.00347608 0.00264774 0.00141224 0.00420422 0.00456238 0.00423261 0.02399689 0.00413745 0.00143428 0.00087473 0.00335857 0.00074406 0.00188792 0.00134824 
0.02926777 0.01590618 0.00340896 0.00267397 0.00141365 0.00420060 0.00460307 0.00430058 0.02388160 0.00412893 0.00143820 0.00087697 0.00330511 0.00074379 0.00190303 0.00134151 
0.02924979 0.01565873 0.00334055 0.00269582 0.00141425 0.00419336 0.00464613 0.00437859 0.02379538 0.00411569 0.00144111 0.00088047 0.00325813 0.00074541 0.00191939 0.00133448 
0.02920506 0.01542257 0.00327136 0.00271332 0.00141399 0.00418235 0.00469158 0.00446636 0.02373924 0.00409775 0.00144297 0.00088514 0.00321756 0.00074876 0.00193684 0.00132714 
0.02913383 0.01519831 0.00320194 0.00272653 0.00141288 0.00416745 0.00473942 0.00456357 0.02371391 0.00407515 0.00144378 0.00089092 0.00318332 0.00075366 0.00195525 0.00131950 
0.02903640 0.01498649 0.00313288 0.00273553 0.00141089 0.00414855 0.00478963 0.00466979 0.02371992 0.00404794 0.00144351 0.00089772 0.00315527 0.00075995 0.00197444 0.00131156 
0.02891310 0.01478755 0.00306475 0.00274046 0.00140802 0.00412558 0.00484217 0.00478455 0.02375752 0.00401623 0.00144218 0.00090544 0.00313325 0.00076747 0.00199426 0.00130333 
0.02876435 0.01460189 0.00299815 0.00274146 0.00140426 0.00409848 0.00489699 0.00490733 0.02382674 0.00398011 0.00143978 0.00091401 0.00311706 0.00077602 0.00201456 0.00129482 
0.02859061 0.01442979 0.00293371 0.00273870 0.00139961 0.00406722 0.00495400 0.00503750 0.02392735 0.00393974 0.00143633 0.00092331 0.00310650 0.00078546 0.00203517 0.00128602 
0.02839239 0.01427147 0.00287205 0.00273239 0.00139407 0.00403179 0.00501310 0.00517443 0.02405886 0.00389527 0.00143186 0.00093326 0.00310130 0.00079561 0.00205595 0.00127695 
0.02817024 0.01412708 0.00281378 0.00272274 0.00138764 0.00399222 0.00507417 0.00531741 0.02422055 0.00384688 0.00142641 0.00094375 0.00310122 0.00080631 0.00207676 0.00126761 
0.02792479 0.01399664 0.00275955 0.00270998 0.00138034 0.00394856 0.00513707 0.00546567 0.02441146 0.00379478 0.00142001 0.00095467 0.00310595 0.00081740 0.00209743 0.00125802 
0.02765671 0.01388014 0.00270996 0.00269438 0.00137217 0.00390086 0.00520163 0.00561842 0.02463040 0.00373919 0.00141272 0.00096592 0.00311520 0.00082872 0.00211784 0.00124819 
0.02736671 0.01377744 0.00266564 0.00267619 0.00136316 0.00384924 0.00526768 0.00577482 0.02487595 0.00368035 0.00140461 0.00097739 0.00312863 0.00084014 0.00213786 0.00123812 
0.02705558 0.01368835 0.00262720 0.00265568 0.00135332 0.00379380 0.00533503 0.00593401 0.02514646 0.00361852 0.00139575 0.00098898 0.00314592 0.00085149 0.00215735 0.00122785 
0.02672414 0.01361256 0.00259522 0.00263314 0.00134268 0.00373468 0.00540346 0.00609508 0.02544011 0.00355397 0.00138621 0.00100058 0.00316669 0.00086266 0.00217621 0.00121737 
0.02637329 0.01354971 0.00257029 0.00260885 0.00133127 0.00367205 0.00547275 0.00625714 0.02575484 0.00348700 0.00137610 0.00101208 0.00319060 0.00087351 0.00219431 0.00120672 
0.02600397 0.01349935 0.00255296 0.00258310 0.00131911 0.00360609 0.00554265 0.00641923 0.02608847 0.00341791 0.00136551 0.00102338 0.00321728 0.00088391 0.00221157 0.00119590 
0.02561718 0.01346093 0.00254375 0.00255617 0.00130625 0.00353699 0.00561292 0.00658043 0.02643860 0.00334700 0.00135455 0.00103438 0.00324634 0.00089377 0.00222789 0.00118495 
0.02521399 0.01343386 0.00254316 0.00252836 0.00129272 0.00346498 0.00568330 0.00673980 0.02680272 0.00327459 0.00134334 0.00104498 0.00327742 0.00090297 0.00224320 0.00117388 
0.02479551 0.01341746 0.00255167 0.00249994 0.00127857 0.00339028 0.00575352 0.00689638 0.02717818 0.00320102 0.00133201 0.00105508 0.00331013 0.00091143 0.00225741 0.00116272 
0.02436292 0.01341097 0.00256970 0.00247118 0.00126384 0.00331314 0.00582330 0.00704927 0.02756220 0.00312662 0.00132069 0.00106459 0.00334410 0.00091905 0.00227048 0.00115150 
0.02391748 0.01341357 0.00259765 0.00244236 0.00124859 0.00323383 0.00589237 0.00719753 0.02795193 0.00305172 0.00130953 0.00107343 0.00337895 0.00092577 0.00228236 0.00114024 
0.02346048 0.01342440 0.00263587 0.00241373 0.00123287 0.00315262 0.00596045 0.00734028 0.02834443 0.00297666 0.00129867 0.00108150 0.00341432 0.00093152 0.00229301 0.00112898 
0.02299329 0.01344253 0.00268468 0.00238554 0.00121674 0.00306979 0.00602726 0.00747665 0.02873672 0.00290178 0.00128826 0.00108874 0.00344984 0.00093624 0.00230241 0.00111774 
0.02251735 0.01346696 0.00274433 0.00235802 0.00120024 0.00298564 0.00609253 0.00760580 0.02912578 0.00282741 0.00127848 0.00109508 0.00348517 0.00093988 0.00231054 0.00110656 
0.02203414 0.01349668 0.00281504 0.00233139 0.00118346 0.00290044 0.00615598 0.00772695 0.02950857 0.00275388 0.00126947 0.00110043 0.00351998 0.00094242 0.00231740 0.00109546 
0.02154524 0.01353061 0.00289698 0.00230586 0.00116645 0.00281452 0.00621736 0.00783933 0.02988206 0.00268152 0.00126142 0.00110476 0.00355392 0.00094382 0.00232300 0.00108450 
0.02105225 0.01356767 0.00299026 0.00228161 0.00114928 0.00272817 0.00627642 0.00794224 0.03024327 0.00261065 0.00125448 0.00110800 0.00358671 0.00094408 0.00232737 0.00107369 
0.02055687 0.01360672 0.00309494 0.00225882 0.00113202 0.00264170 0.00633291 0.00803502 0.03058923 0.00254157 0.00124884 0.00111011 0.00361804 0.00094317 0.00233053 0.00106308 
0.02006084 0.01364663 0.00321102 0.00223765 0.00111473 0.00255541 0.00638662 0.00811708 0.03091708 0.00247458 0.00124467 0.00111105 0.00364764 0.00094110 0.00233252 0.00105270 
0.01956596 0.01368623 0.00333847 0.00221823 0.00109750 0.00246961 0.00643734 0.00818787 0.03122403 0.00240998 0.00124215 0.00111080 0.00367525 0.00093789 0.00233340 0.00104260 
0.01907409 0.01372437 0.00347717 0.00220070 0.00108038 0.00238460 0.00648489 0.00824691 0.03150740 0.00234802 0.00124145 0.00110932 0.00370063 0.00093355 0.00233322 0.00103280 
0.01858715 0.01375988 0.00362696 0.00218514 0.00106347 0.00230067 0.00652910 0.00829379 0.03176466 0.00228897 0.00124274 0.00110660 0.00372358 0.00092810 0.00233205 0.00102335 
0.01810711 0.01379162 0.00378763 0.00217166 0.00104682 0.00221810 0.00656983 0.00832816 0.03199339 0.00223308 0.00124620 0.00110264 0.00374391 0.00092158 0.00232996 0.00101428 
0.01763597 0.01381846 0.00395891 0.00216032 0.00103051 0.00213718 0.00660697 0.00834975 0.03219139 0.00218056 0.00125199 0.00109743 0.00376142 0.00091402 0.00232705 0.00100564 
0.01717580 0.01383928 0.00414048 0.00215118 0.00101461 0.00205818 0.00664044 0.00835835 0.03235658 0.00213163 0.00126028 0.00109098 0.00377600 0.00090549 0.00232339 0.00099745 
0.01672868 0.01385302 0.00433197 0.00214426 0.00099920 0.00198136 0.00667018 0.00835383 0.03248713 0.00208647 0.00127122 0.00108331 0.00378750 0.00089602 0.00231909 0.00098976 
0.01629675 0.01385863 0.00453294 0.00213960 0.00098435 0.00190697 0.00669616 0.00833613 0.03258140 0.00204525 0.00128497 0.00107445 0.00379582 0.00088567 0.00231423 0.00098259 
0.01588214 0.01385513 0.00474293 0.00213721 0.00097011 0.00183523 0.00671839 0.00830525 0.03263797 0.00200812 0.00130166 0.00106441 0.00380090 0.00087451 0.00230892 0.00097599 
0.01548703 0.01384159 0.00496141 0.00213706 0.00095657 0.00176638 0.00673692 0.00826129 0.03265566 0.00197522 0.00132143 0.00105324 0.00380268 0.00086261 0.00230327 0.00096998 
0.01511360 0.01381712 0.00518782 0.00213915 0.00094378 0.00170062 0.00675180 0.00820439 0.03263356 0.00194663 0.00134441 0.00104099 0.00380112 0.00085003 0.00229737 0.00096459 
0.01476402 0.01378094 0.00542154 0.00214343 0.00093180 0.00163813 0.00676315 0.00813478 0.03257098 0.00192247 0.00137070 0.00102770 0.00379622 0.00083685 0.00229134 0.00095985 
0.01444045 0.01373229 0.00566194 0.00214986 0.00092069 0.00157911 0.00677111 0.00805275 0.03246752 0.00190278 0.00140042 0.00101343 0.00378800 0.00082314 0.00228528 0.00095579 
0.01414507 0.01367055 0.00590833 0.00215839 0.00091051 0.00152370 0.00677585 0.00795867 0.03232304 0.00188761 0.00143366 0.00099824 0.00377649 0.00080898 0.00227929 0.00095244 
0.01387997 0.01359513 0.00615999 0.00216894 0.00090130 0.00147204 0.00677759 0.00785296 0.03213766 0.00187699 0.00147048 0.00098221 0.00376176 0.00079445 0.00227347 0.00094980 
0.01364726 0.01350556 0.00641619 0.00218144 0.00089311 0.00142427 0.00677656 0.00773610 0.03191179 0.00187092 0.00151096 0.00096540 0.00374388 0.00077963 0.00226792 0.00094790 
0.01344896 0.01340147 0.00667615 0.00219582 0.00088598 0.00138049 0.00677304 0.00760864 0.03164612 0.00186937 0.00155514 0.00094790 0.00372294 0.00076459 0.00226273 0.00094676 
0.01328704 0.01328259 0.00693909 0.00221197 0.00087994 0.00134078 0.00676733 0.00747117 0.03134160 0.00187231 0.00160305 0.00092978 0.00369908 0.00074943 0.00225799 0.00094638 
0.01316340 0.01314873 0.00720419 0.00222980 0.00087504 0.00130522 0.00675978 0.00732435 0.03099944 0.00187967 0.00165472 0.00091113 0.00367242 0.00073420 0.00225378 0.00094678 
0.01307983 0.01299983 0.00747065 0.00224921 0.00087128 0.00127387 0.00675074 0.00716887 0.03062116 0.00189138 0.00171014 0.00089205 0.00364312 0.00071900 0.00225017 0.00094795 
0.01303804 0.01283595 0.00773762 0.00227011 0.00086870 0.00124675 0.00674060 0.00700546 0.03020848 0.00190734 0.00176929 0.00087262 0.00361135 0.00070389 0.00224723 0.00094991 
0.01303961 0.01265723 0.00800427 0.00229237 0.00086731 0.00122389 0.00672978 0.00683490 0.02976342 0.00192744 0.00183215 0.00085294 0.00357728 0.00068895 0.00224502 0.00095265 
0.01308601 0.01246395 0.00826978 0.00231590 0.00086712 0.00120528 0.00671871 0.00665801 0.02928822 0.00195154 0.00189866 0.00083310 0.00354112 0.00067424 0.00224359 0.00095616 
0.01317854 0.01225649 0.00853330 0.00234058 0.00086812 0.00119091 0.00670785 0.00647561 0.02878535 0.00197948 0.00196876 0.00081319 0.00350306 0.00065984 0.00224297 0.00096044 
0.01331837 0.01203537 0.00879400 0.00236631 0.00087032 0.00118076 0.00669768 0.00628858 0.02825750 0.00201112 0.00204235 0.00079332 0.00346333 0.00064580 0.00224319 0.00096547 
0.01350648 0.01180118 0.00905108 0.00239298 0.00087370 0.00117476 0.00668867 0.00609780 0.02770756 0.00204626 0.00211934 0.00077358 0.00342215 0.00063217 0.00224427 0.00097123 
0.01374368 0.01155467 0.00930374 0.00242048 0.00087825 0.00117286 0.00668132 0.00590415 0.02713860 0.00208472 0.00219959 0.00075407 0.00337976 0.00061902 0.00224622 0.00097771 
0.01403058 0.01129667 0.00955119 0.00244870 0.00088395 0.00117498 0.00667613 0.00570854 0.02655389 0.00212629 0.00228297 0.00073487 0.00333639 0.00060639 0.00224904 0.00098488 
0.01436759 0.01102812 0.00979266 0.00247754 0.00089076 0.00118102 0.00667361 0.00551188 0.02595682 0.00217075 0.00236933 0.00071608 0.00329229 0.00059433 0.00225271 0.00099272 
0.01475489 0.01075010 0.01002744 0.00250691 0.00089867 0.00119089 0.00667427 0.00531508 0.02535091 0.00221789 0.00245848 0.00069778 0.00324770 0.00058287 0.00225720 0.00100118 
0.01519243 0.01046374 0.01025480 0.00253671 0.00090761 0.00120446 0.00667859 0.00511903 0.02473981 0.00226746 0.00255025 0.00068007 0.00320289 0.00057204 0.00226249 0.00101025 
0.01567995 0.01017030 0.01047408 0.00256684 0.00091756 0.00122161 0.00668709 0.00492463 0.02412726 0.00231923 0.00264441 0.00066302 0.00315809 0.00056188 0.00226852 0.00101988 
0.01621689 0.00987112 0.01068463 0.00259722 0.00092846 0.00124218 0.00670023 0.00473275 0.02351705 0.00237295 0.00274075 0.00064672 0.00311357 0.00055241 0.00227524 0.00103003 
0.01680248 0.00956764 0.01088585 0.00262776 0.00094025 0.00126604 0.00671849 0.00454425 0.02291303 0.00242835 0.00283904 0.00063122 0.00306956 0.00054364 0.00228259 0.00104067 
0.01743567 0.00926136 0.01107718 0.00265839 0.00095288 0.00129303 0.00674232 0.00435995 0.02231907 0.00248520 0.00293902 0.00061661 0.00302631 0.00053559 0.00229048 0.00105174 
0.01811513 0.00895386 0.01125807 0.00268903 0.00096628 0.00132297 0.00677214 0.00418065 0.02173903 0.00254322 0.00304043 0.00060294 0.00298406 0.00052826 0.00229883 0.00106319 
0.01883929 0.00864677 0.01142807 0.00271962 0.00098038 0.00135569 0.00680836 0.00400713 0.02117677 0.00260215 0.00314300 0.00059027 0.00294306 0.00052165 0.00230755 0.00107499 
0.01960628 0.00834181 0.01158671 0.00275008 0.00099511 0.00139101 0.00685134 0.00384011 0.02063606 0.00266174 0.00324644 0.00057865 0.00290352 0.00051576 0.00231654 0.00108708 
0.02041396 0.00804072 0.01173362 0.00278035 0.00101039 0.00142874 0.00690144 0.00368030 0.02012064 0.00272171 0.00335047 0.00056812 0.00286567 0.00051058 0.00232569 0.00109940 
0.02125993 0.00774528 0.01186843 0.00281038 0.00102614 0.00146868 0.00695895 0.00352834 0.01963413 0.00278182 0.00345478 0.00055872 0.00282973 0.00050609 0.00233489 0.00111191 
0.02214151 0.00745731 0.01199085 0.00284012 0.00104229 0.00151066 0.00702414 0.00338484 0.01918003 0.00284179 0.00355906 0.00055048 0.00279588 0.00050228 0.00234402 0.00112455 
0.02305575 0.00717863 0.01210062 0.00286951 0.00105875 0.00155445 0.00709723 0.00325036 0.01876171 0.00290138 0.00366300 0.00054342 0.00276433 0.00049913 0.00235295 0.00113726 
0.02399946 0.00691108 0.01219754 0.00289851 0.00107543 0.00159987 0.00717842 0.00312539 0.01838237 0.00296035 0.00376628 0.00053755 0.00273526 0.00049659 0.00236158 0.00115000 
0.02496918 0.00665652 0.01228143 0.00292708 0.00109225 0.00164672 0.00726783 0.00301041 0.01804502 0.00301844 0.00386858 0.00053288 0.00270883 0.00049465 0.00236975 0.00116270 
0.02596122 0.00641675 0.01235218 0.00295518 0.00110913 0.00169478 0.00736557 0.00290580 0.01775248 0.00307542 0.00396960 0.00052941 0.00268520 0.00049327 0.00237736 0.00117532 
0.02697167 0.00619359 0.01240973 0.00298277 0.00112597 0.00174385 0.00747166 0.00281191 0.01750733 0.00313106 0.00406899 0.00052713 0.00266451 0.00049241 0.00238427 0.00118780 
0.02799640 0.00598881 0.01245403 0.00300981 0.00114269 0.00179375 0.00758610 0.00272904 0.01731192 0.00318514 0.00416646 0.00052603 0.00264689 0.00049203 0.00239036 0.00120008 
0.02903109 0.00580412 0.01248511 0.00303627 0.00115921 0.00184425 0.00770883 0.00265740 0.01716832 0.00323745 0.00426169 0.00052607 0.00263245 0.00049209 0.00239550 0.00121213 
0.03007124 0.00564119 0.01250303 0.00306212 0.00117545 0.00189518 0.00783974 0.00259718 0.01707836 0.00328778 0.00435436 0.00052724 0.00262129 0.00049253 0.00239956 0.00122389 
0.03111222 0.00550164 0.01250788 0.00308733 0.00119131 0.00194632 0.00797866 0.00254849 0.01704354 0.00333595 0.00444418 0.00052949 0.00261348 0.00049333 0.00240244 0.00123531 
0.03214922 0.00538698 0.01249980 0.00311186 0.00120673 0.00199750 0.00812538 0.00251139 0.01706510 0.00338178 0.00453087 0.00053277 0.00260909 0.00049441 0.00240403 0.00124635 
0.03317736 0.00529866 0.01247897 0.00313569 0.00122163 0.00204853 0.00827961 0.00248587 0.01714394 0.00342508 0.00461412 0.00053703 0.00260818 0.00049575 0.00240421 0.00125697 
0.03419168 0.00523802 0.01244560 0.00315878 0.00123593 0.00209922 0.00844106 0.00247189 0.01728066 0.00346572 0.00469369 0.00054222 0.00261077 0.00049728 0.00240289 0.00126712 
0.03518714 0.00520629 0.01239992 0.00318110 0.00124957 0.00214940 0.00860933 0.00246933 0.01747551 0.00350354 0.00476930 0.00054827 0.00261688 0.00049896 0.00239998 0.00127679 
0.03615870 0.00520459 0.01234222 0.00320261 0.00126248 0.00219889 0.00878401 0.00247803 0.01772843 0.00353841 0.00484071 0.00055511 0.00262650 0.00050073 0.00239539 0.00128592 
0.03710130 0.00523393 0.01227280 0.00322329 0.00127461 0.00224753 0.00896463 0.00249777 0.01803901 0.00357020 0.00490770 0.00056266 0.00263963 0.00050256 0.00238906 0.00129450 
0.03800996 0.00529516 0.01219199 0.00324309 0.00128589 0.00229517 0.00915068 0.00252828 0.01840652 0.00359883 0.00497006 0.00057085 0.00265621 0.00050439 0.00238093 0.00130249 
0.03887972 0.00538900 0.01210016 0.00326199 0.00129627 0.00234165 0.00934160 0.00256924 0.01882988 0.00362418 0.00502758 0.00057958 0.00267621 0.00050617 0.00237094 0.00130987 
0.03970576 0.00551605 0.01199767 0.00327994 0.00130572 0.00238683 0.00953678 0.00262030 0.01930768 0.00364618 0.00508009 0.00058877 0.00269955 0.00050786 0.00235905 0.00131664 
0.04048338 0.00567671 0.01188494 0.00329689 0.00131420 0.00243057 0.00973560 0.00268104 0.01983820 0.00366477 0.00512745 0.00059832 0.00272616 0.00050942 0.00234524 0.00132276 
0.04120807 0.00587126 0.01176239 0.00331282 0.00132166 0.00247274 0.00993737 0.00275102 0.02041937 0.00367989 0.00516950 0.00060815 0.00275592 0.00051081 0.00232948 0.00132823 
0.04187550 0.00609980 0.01163046 0.00332768 0.00132809 0.00251323 0.01014139 0.00282975 0.02104885 0.00369150 0.00520614 0.00061815 0.00278872 0.00051198 0.00231178 0.00133305 
0.04248160 0.00636226 0.01148959 0.00334141 0.00133346 0.00255191 0.01034693 0.00291671 0.02172395 0.00369958 0.00523727 0.00062822 0.00282444 0.00051292 0.00229213 0.00133721 
0.04302258 0.00665841 0.01134027 0.00335397 0.00133777 0.00258868 0.01055322 0.00301135 0.02244172 0.00370412 0.00526281 0.00063827 0.00286293 0.00051357 0.00227057 0.00134072 
0.04349495 0.00698785 0.01118297 0.00336532 0.00134099 0.00262345 0.01075949 0.00311309 0.02319895 0.00370510 0.00528273 0.00064820 0.00290402 0.00051393 0.00224711 0.00134357 
0.04389555 0.00734999 0.01101818 0.00337541 0.00134313 0.00265613 0.01096494 0.00322131 0.02399215 0.00370256 0.00529699 0.00065790 0.00294755 0.00051395 0.00222181 0.00134578 
0.04422163 0.00774408 0.01084641 0.00338417 0.00134420 0.00268663 0.01116876 0.00333539 0.02481760 0.00369650 0.00530559 0.00066728 0.00299334 0.00051363 0.00219471 0.00134736 
0.04447081 0.00816919 0.01066816 0.00339157 0.00134421 0.00271490 0.01137013 0.00345468 0.02567135 0.00368697 0.00530855 0.00067625 0.00304117 0.00051294 0.00216589 0.00134832 
0.04464115 0.00862424 0.01048395 0.00339754 0.00134316 0.00274086 0.01156822 0.00357852 0.02654927 0.00367403 0.00530590 0.00068471 0.00309085 0.00051187 0.00213541 0.00134869 
0.04473119 0.00910796 0.01029430 0.00340204 0.00134110 0.00276446 0.01176221 0.00370623 0.02744703 0.00365772 0.00529771 0.00069257 0.00314216 0.00051041 0.00210338 0.00134848 
0.04473993 0.00961892 0.01009974 0.00340501 0.00133803 0.00278566 0.01195128 0.00383712 0.02836018 0.00363812 0.00528407 0.00069974 0.00319488 0.00050855 0.00206987 0.00134773 
0.04466689 0.01015554 0.00990079 0.00340640 0.00133401 0.00280441 0.01213461 0.00397051 0.02928412 0.00361532 0.00526507 0.00070615 0.00324875 0.00050630 0.00203500 0.00134646 
0.04451211 0.01071607 0.00969799 0.00340617 0.00132907 0.00282070 0.01231142 0.00410571 0.03021414 0.00358940 0.00524084 0.00071172 0.00330355 0.00050365 0.00199889 0.00134470 
0.04427620 0.01129864 0.00949187 0.00340426 0.00132325 0.00283450 0.01248090 0.00424203 0.03114547 0.00356047 0.00521154 0.00071637 0.00335902 0.00050062 0.00196164 0.00134249 
0.04396029 0.01190122 0.00928296 0.00340062 0.00131660 0.00284579 0.01264232 0.00437879 0.03207328 0.00352863 0.00517732 0.00072005 0.00341490 0.00049721 0.00192339 0.00133985 
0.04356611 0.01252165 0.00907180 0.00339522 0.00130918 0.00285458 0.01279492 0.00451532 0.03299272 0.00349402 0.00513836 0.00072270 0.00347095 0.00049343 0.00188428 0.00133684 
0.04309595 0.01315767 0.00885892 0.00338802 0.00130104 0.00286087 0.01293801 0.00465096 0.03389895 0.00345675 0.00509487 0.00072426 0.00352689 0.00048931 0.00184443 0.00133348 
0.04255270 0.01380690 0.00864487 0.00337898 0.00129225 0.00286467 0.01307090 0.00478506 0.03478716 0.00341697 0.00504706 0.00072470 0.00358246 0.00048486 0.00180400 0.00132982 
0.04193980 0.01446684 0.00843018 0.00336806 0.00128287 0.00286600 0.01319298 0.00491699 0.03565259 0.00337481 0.00499516 0.00072399 0.00363741 0.00048010 0.00176312 0.00132590 
0.04126132 0.01513494 0.00821539 0.00335525 0.00127296 0.00286488 0.01330364 0.00504615 0.03649059 0.00333042 0.00493942 0.00072210 0.00369146 0.00047507 0.00172195 0.00132177 
0.04052184 0.01580856 0.00800102 0.00334052 0.00126260 0.00286135 0.01340234 0.00517196 0.03729659 0.00328396 0.00488008 0.00071902 0.00374435 0.00046979 0.00168063 0.00131745 
0.03972656 0.01648500 0.00778763 0.00332387 0.00125186 0.00285545 0.01348856 0.00529386 0.03806620 0.00323560 0.00481743 0.00071474 0.00379584 0.00046429 0.00163930 0.00131300 
0.03888117 0.01716150 0.00757573 0.00330527 0.00124081 0.00284723 0.01356188 0.00541133 0.03879517 0.00318549 0.00475173 0.00070927 0.00384566 0.00045860 0.00159812 0.00130847 
0.03799193 0.01783529 0.00736588 0.00328474 0.00122952 0.00283674 0.01362187 0.00552386 0.03947945 0.00313382 0.00468327 0.00070262 0.00389356 0.00045277 0.00155723 0.00130388 
0.03706559 0.01850359 0.00715859 0.00326228 0.00121807 0.00282404 0.01366821 0.00563099 0.04011520 0.00308074 0.00461234 0.00069482 0.00393932 0.00044682 0.00151678 0.00129929 
0.03610937 0.01916358 0.00695439 0.00323791 0.00120652 0.00280919 0.01370061 0.00573229 0.04069882 0.00302644 0.00453924 0.00068591 0.00398268 0.00044080 0.00147689 0.00129473 
0.03513093 0.01981250 0.00675383 0.00321166 0.00119497 0.00279227 0.01371885 0.00582737 0.04122697 0.00297111 0.00446427 0.00067593 0.00402344 0.00043474 0.00143771 0.00129025 
0.03413835 0.02044758 0.00655742 0.00318356 0.00118346 0.00277336 0.01372276 0.00591587 0.04169659 0.00291492 0.00438773 0.00066494 0.00406138 0.00042869 0.00139936 0.00128588 
0.03314010 0.02106612 0.00636569 0.00315365 0.00117208 0.00275253 0.01371224 0.00599747 0.04210492 0.00285805 0.00430993 0.00065301 0.00409629 0.00042268 0.00136197 0.00128166 
0.03214495 0.02166547 0.00617916 0.00312199 0.00116090 0.00272988 0.01368727 0.00607189 0.04244949 0.00280070 0.00423117 0.00064020 0.00412800 0.00041675 0.00132566 0.00127762 
0.03116198 0.02224307 0.00599834 0.00308864 0.00114997 0.00270549 0.01364788 0.00613890 0.04272819 0.00274305 0.00415175 0.00062661 0.00415633 0.00041094 0.00129053 0.00127381 
0.03020049 0.02279644 0.00582377 0.00305369 0.00113937 0.00267946 0.01359415 0.00619830 0.04293922 0.00268529 0.00407197 0.00061234 0.00418112 0.00040529 0.00125669 0.00127024 
0.02927000 0.02332319 0.00565593 0.00301720 0.00112916 0.00265189 0.01352626 0.00624991 0.04308114 0.00262761 0.00399213 0.00059748 0.00420223 0.00039984 0.00122422 0.00126695 
0.02838012 0.02382109 0.00549534 0.00297928 0.00111938 0.00262289 0.01344443 0.00629364 0.04315288 0.00257018 0.00391252 0.00058214 0.00421953 0.00039462 0.00119322 0.00126396 
0.02754058 0.02428802 0.00534250 0.00294004 0.00111010 0.00259255 0.01334895 0.00632940 0.04315371 0.00251321 0.00383341 0.00056645 0.00423292 0.00038966 0.00116376 0.00126130 
0.02676112 0.02472200 0.00519788 0.00289958 0.00110136 0.00256099 0.01324018 0.00635716 0.04308331 0.00245686 0.00375509 0.00055053 0.00424231 0.00038501 0.00113591 0.00125898 
0.02605144 0.02512124 0.00506197 0.00285803 0.00109321 0.00252832 0.01311854 0.00637692 0.04294167 0.00240132 0.00367781 0.00053452 0.00424763 0.00038069 0.00110972 0.00125703 
0.02542114 0.02548410 0.00493523 0.00281552 0.00108568 0.00249466 0.01298451 0.00638871 0.04272922 0.00234677 0.00360184 0.00051855 0.00424883 0.00037672 0.00108524 0.00125546 
0.02487967 0.02580913 0.00481813 0.00277220 0.00107882 0.00246011 0.01283864 0.00639263 0.04244669 0.00229338 0.00352741 0.00050277 0.00424587 0.00037314 0.00106252 0.00125428 
0.02443627 0.02609508 0.00471111 0.00272822 0.00107264 0.00242480 0.01268152 0.00638879 0.04209524 0.00224133 0.00345475 0.00048732 0.00423877 0.00036996 0.00104159 0.00125350 
0.02409988 0.02634089 0.00461458 0.00268374 0.00106718 0.00238885 0.01251380 0.00637733 0.04167633 0.00219079 0.00338409 0.00047235 0.00422752 0.00036721 0.00102245 0.00125313 
0.02387911 0.02654572 0.00452896 0.00263893 0.00106245 0.00235237 0.01233619 0.00635845 0.04119180 0.00214190 0.00331563 0.00045802 0.00421215 0.00036490 0.00100513 0.00125317 
0.02378219 0.02670896 0.00445463 0.00259395 0.00105848 0.00231549 0.01214944 0.00633236 0.04064383 0.00209484 0.00324955 0.00044446 0.00419274 0.00036304 0.00098963 0.00125362 
0.02381684 0.02683018 0.00439197 0.00254899 0.00105525 0.00227833 0.01195437 0.00629932 0.04003490 0.00204976 0.00318603 0.00043185 0.00416934 0.00036164 0.00097595 0.00125448 
0.02399031 0.02690923 0.00434132 0.00250423 0.00105279 0.00224100 0.01175180 0.00625959 0.03936783 0.00200679 0.00312524 0.00042031 0.00414207 0.00036072 0.00096406 0.00125574 
0.02430925 0.02694616 0.00430300 0.00245987 0.00105108 0.00220363 0.01154262 0.00621349 0.03864572 0.00196608 0.00306731 0.00041001 0.00411103 0.00036027 0.00095395 0.00125740 
0.02477970 0.02694126 0.00427729 0.00241609 0.00105012 0.00216633 0.01132776 0.00616134 0.03787193 0.00192776 0.00301237 0.00040108 0.00407637 0.00036029 0.00094560 0.00125944 
0.02540699 0.02689503 0.00426445 0.00237308 0.00104989 0.00212923 0.01110814 0.00610349 0.03705011 0.00189196 0.00296052 0.00039366 0.00403824 0.00036077 0.00093896 0.00126184 
0.02619576 0.02680824 0.00426472 0.00233105 0.00105038 0.00209244 0.01088476 0.00604031 0.03618411 0.00185879 0.00291187 0.00038789 0.00399683 0.00036171 0.00093400 0.00126461 
0.02714987 0.02668184 0.00427828 0.00229019 0.00105156 0.00205608 0.01065859 0.00597220 0.03527803 0.00182836 0.00286648 0.00038388 0.00395233 0.00036310 0.00093067 0.00126771 
0.02827236 0.02651705 0.00430530 0.00225069 0.00105340 0.00202026 0.01043065 0.00589955 0.03433614 0.00180077 0.00282442 0.00038175 0.00390496 0.00036491 0.00092892 0.00127112 
0.02956544 0.02631526 0.00434588 0.00221274 0.00105588 0.00198508 0.01020196 0.00582278 0.03336286 0.00177610 0.00278572 0.00038161 0.00385494 0.00036714 0.00092870 0.00127483 
0.03103042 0.02607812 0.00440010 0.00217654 0.00105895 0.00195066 0.00997354 0.00574232 0.03236279 0.00175445 0.00275040 0.00038355 0.00380252 0.00036975 0.00092994 0.00127881 
0.03266774 0.02580743 0.00446799 0.00214226 0.00106258 0.00191710 0.00974643 0.00565861 0.03134061 0.00173586 0.00271848 0.00038765 0.00374796 0.00037273 0.00093260 0.00128303 
0.03447687 0.02550522 0.00454955 0.00211009 0.00106672 0.00188450 0.00952163 0.00557208 0.03030111 0.00172042 0.00268993 0.00039398 0.00369155 0.00037604 0.00093661 0.00128748 
0.03645639 0.02517368 0.00464471 0.00208019 0.00107132 0.00185296 0.00930018 0.00548317 0.02924913 0.00170816 0.00266474 0.00040260 0.00363356 0.00037966 0.00094191 0.00129211 
0.03860389 0.02481518 0.00475337 0.00205274 0.00107633 0.00182257 0.00908306 0.00539234 0.02818956 0.00169911 0.00264285 0.00041354 0.00357429 0.00038354 0.00094842 0.00129690 
0.04091600 0.02443223 0.00487536 0.00202787 0.00108170 0.00179342 0.00887125 0.00530002 0.02712727 0.00169332 0.00262421 0.00042683 0.00351404 0.00038766 0.00095610 0.00130183 
0.04338843 0.02402751 0.00501048 0.00200574 0.00108738 0.00176559 0.00866571 0.00520665 0.02606714 0.00169077 0.00260874 0.00044247 0.00345313 0.00039197 0.00096487 0.00130685 
0.04601589 0.02360380 0.00515847 0.00198648 0.00109330 0.00173917 0.00846736 0.00511267 0.02501400 0.00169149 0.00259634 0.00046046 0.00339187 0.00039644 0.00097467 0.00131195 
0.04879218 0.02316400 0.00531902 0.00197020 0.00109941 0.00171423 0.00827708 0.00501851 0.02397260 0.00169545 0.00258691 0.00048076 0.00333059 0.00040102 0.00098545 0.00131708 
0.05171018 0.02271109 0.00549176 0.00195702 0.00110566 0.00169083 0.00809572 0.00492457 0.02294761 0.00170263 0.00258033 0.00050334 0.00326961 0.00040567 0.00099714 0.00132222 
0.05476186 0.02224815 0.00567627 0.00194701 0.00111198 0.00166904 0.00792408 0.00483126 0.02194357 0.00171300 0.00257647 0.00052811 0.00320925 0.00041035 0.00100970 0.00132734 
0.05793831 0.02177829 0.00587208 0.00194027 0.00111831 0.00164891 0.00776291 0.00473897 0.02096487 0.00172650 0.00257519 0.00055501 0.00314983 0.00041501 0.00102307 0.00133240 
0.06122982 0.02130467 0.00607866 0.00193685 0.00112459 0.00163049 0.00761292 0.00464808 0.02001574 0.00174306 0.00257631 0.00058392 0.00309167 0.00041961 0.00103720 0.00133737 
0.06462585 0.02083048 0.00629544 0.00193679 0.00113077 0.00161384 0.00747474 0.00455894 0.01910024 0.00176263 0.00257969 0.00061473 0.00303507 0.00042411 0.00105205 0.00134223 
0.06811513 0.02035888 0.00652178 0.00194012 0.00113678 0.00159898 0.00734895 0.00447190 0.01822219 0.00178509 0.00258513 0.00064729 0.00298035 0.00042846 0.00106758 0.00134695 
0.07168571 0.01989305 0.00675702 0.00194686 0.00114258 0.00158594 0.00723607 0.00438726 0.01738521 0.00181036 0.00259245 0.00068144 0.00292780 0.00043262 0.00108376 0.00135149 
0.07532497 0.01943611 0.00700042 0.00195699 0.00114810 0.00157475 0.00713655 0.00430533 0.01659267 0.00183832 0.00260146 0.00071701 0.00287770 0.00043654 0.00110056 0.00135584 
0.07901971 0.01899111 0.00725120 0.00197049 0.00115331 0.00156542 0.00705075 0.00422639 0.01584768 0.00186884 0.00261195 0.00075380 0.00283032 0.00044018 0.00111796 0.00135996 
0.08275625 0.01856104 0.00750856 0.00198731 0.00115814 0.00155797 0.00697899 0.00415069 0.01515306 0.00190178 0.00262372 0.00079160 0.00278591 0.00044352 0.00113592 0.00136384 
0.08652042 0.01814880 0.00777163 0.00200740 0.00116256 0.00155238 0.00692149 0.00407847 0.01451137 0.00193699 0.00263655 0.00083019 0.00274472 0.00044650 0.00115445 0.00136745 
0.09029770 0.01775717 0.00803951 0.00203067 0.00116651 0.00154866 0.00687841 0.00400992 0.01392486 0.00197432 0.00265022 0.00086932 0.00270697 0.00044910 0.00117353 0.00137076 
0.09407326 0.01738880 0.00831128 0.00205704 0.00116997 0.00154678 0.00684982 0.00394523 0.01339548 0.00201358 0.00266453 0.00090874 0.00267286 0.00045128 0.00119315 0.00137377 
0.09783205 0.01704618 0.00858596 0.00208638 0.00117290 0.00154674 0.00683571 0.00388456 0.01292487 0.00205461 0.00267923 0.00094819 0.00264256 0.00045303 0.00121331 0.00137645 
0.10155887 0.01673167 0.00886257 0.00211857 0.00117527 0.00154848 0.00683601 0.00382804 0.01251433 0.00209719 0.00269411 0.00098739 0.00261624 0.00045430 0.00123403 0.00137879 
0.10523846 0.01644742 0.00914008 0.00215346 0.00117704 0.00155199 0.00685055 0.00377578 0.01216487 0.00214114 0.00270896 0.00102606 0.00259404 0.00045508 0.00125530 0.00138078 
0.10885559 0.01619541 0.00941747 0.00219089 0.00117820 0.00155721 0.00687910 0.00372786 0.01187715 0.00218624 0.00272354 0.00106390 0.00257606 0.00045536 0.00127714 0.00138240 
0.11239512 0.01597741 0.00969368 0.00223069 0.00117873 0.00156408 0.00692133 0.00368433 0.01165154 0.00223228 0.00273764 0.00110063 0.00256240 0.00045511 0.00129957 0.00138365 
0.11584209 0.01579499 0.00996764 0.00227268 0.00117861 0.00157256 0.00697687 0.00364524 0.01148805 0.00227903 0.00275105 0.00113594 0.00255310 0.00045433 0.00132260 0.00138452 
0.11918182 0.01564946 0.01023830 0.00231664 0.00117785 0.00158256 0.00704525 0.00361060 0.01138640 0.00232626 0.00276356 0.00116954 0.00254822 0.00045302 0.00134626 0.00138500 
0.12239999 0.01554194 0.01050459 0.00236237 0.00117642 0.00159402 0.00712592 0.00358037 0.01134599 0.00237375 0.00277496 0.00120113 0.00254774 0.00045117 0.00137057 0.00138510 
0.12548268 0.01547329 0.01076544 0.00240966 0.00117434 0.00160684 0.00721830 0.00355454 0.01136592 0.00242124 0.00278506 0.00123042 0.00255166 0.00044879 0.00139555 0.00138480 
0.12841649 0.01544412 0.01101980 0.00245826 0.00117161 0.00162095 0.00732171 0.00353304 0.01144499 0.00246851 0.00279367 0.00125713 0.00255993 0.00044589 0.00142124 0.00138412 
0.13118863 0.01545480 0.01126665 0.00250795 0.00116823 0.00163625 0.00743541 0.00351579 0.01158172 0.00251531 0.00280061 0.00128097 0.00257247 0.00044248 0.00144766 0.00138306 
0.13378693 0.01550544 0.01150496 0.00255848 0.00116422 0.00165263 0.00755863 0.00350268 0.01177435 0.00256139 0.00280571 0.00130168 0.00258918 0.00043859 0.00147485 0.00138162 
0.13619996 0.01559592 0.01173375 0.00260960 0.00115961 0.00166999 0.00769053 0.00349360 0.01202087 0.00260652 0.00280882 0.00131902 0.00260993 0.00043422 0.00150282 0.00137981 
0.13841708 0.01572585 0.01195207 0.00266107 0.00115440 0.00168821 0.00783021 0.00348841 0.01231900 0.00265045 0.00280978 0.00133275 0.00263457 0.00042942 0.00153160 0.00137765 
0.14042852 0.01589458 0.01215900 0.00271264 0.00114864 0.00170718 0.00797673 0.00348694 0.01266626 0.00269295 0.00280846 0.00134265 0.00266293 0.00042422 0.00156123 0.00137514 
0.14222538 0.01610123 0.01235366 0.00276405 0.00114234 0.00172678 0.00812914 0.00348903 0.01305995 0.00273377 0.00280475 0.00134853 0.00269479 0.00041865 0.00159172 0.00137229 
0.14379977 0.01634469 0.01253524 0.00281505 0.00113554 0.00174687 0.00828642 0.00349449 0.01349715 0.00277271 0.00279852 0.00135021 0.00272994 0.00041275 0.00162311 0.00136913 
0.14514476 0.01662360 0.01270296 0.00286540 0.00112827 0.00176734 0.00844754 0.00350311 0.01397479 0.00280952 0.00278969 0.00134756 0.00276812 0.00040658 0.00165539 0.00136566 
0.14625448 0.01693639 0.01285610 0.00291485 0.00112059 0.00178805 0.00861145 0.00351467 0.01448963 0.00284400 0.00277819 0.00134046 0.00280907 0.00040019 0.00168861 0.00136192 
0.14712417 0.01728125 0.01299402 0.00296318 0.00111252 0.00180885 0.00877707 0.00352896 0.01503828 0.00287593 0.00276394 0.00132882 0.00285251 0.00039363 0.00172276 0.00135791 
0.14775012 0.01765621 0.01311612 0.00301014 0.00110411 0.00182963 0.00894333 0.00354572 0.01561726 0.00290514 0.00274690 0.00131259 0.00289812 0.00038695 0.00175785 0.00135367 
0.14812980 0.01805907 0.01322189 0.00305551 0.00109541 0.00185024 0.00910914 0.00356472 0.01622296 0.00293141 0.00272705 0.00129174 0.00294559 0.00038023 0.00179389 0.00134921 
0.14826180 0.01848747 0.01331089 0.00309910 0.00108647 0.00187055 0.00927342 0.00358570 0.01685172 0.00295460 0.00270436 0.00126631 0.00299458 0.00037353 0.00183087 0.00134455 
0.14814585 0.01893890 0.01338276 0.00314069 0.00107733 0.00189041 0.00943510 0.00360839 0.01749980 0.00297453 0.00267883 0.00123634 0.00304475 0.00036691 0.00186880 0.00133973 
0.14778286 0.01941069 0.01343720 0.00318009 0.00106804 0.00190969 0.00959312 0.00363254 0.01816344 0.00299105 0.00265050 0.00120192 0.00309576 0.00036046 0.00190765 0.00133477 
0.14717486 0.01990005 0.01347401 0.00321714 0.00105866 0.00192827 0.00974644 0.00365786 0.01883886 0.00300404 0.00261938 0.00116319 0.00314723 0.00035423 0.00194742 0.00132969 
0.14632503 0.02040410 0.01349308 0.00325166 0.00104924 0.00194600 0.00989407 0.00368410 0.01952228 0.00301339 0.00258554 0.00112032 0.00319880 0.00034832 0.00198807 0.00132453 
0.14523766 0.02091983 0.01349436 0.00328352 0.00103983 0.00196276 0.01003501 0.00371097 0.02020996 0.00301898 0.00254904 0.00107353 0.00325010 0.00034278 0.00202959 0.00131931 
0.14391812 0.02144420 0.01347791 0.00331258 0.00103047 0.00197842 0.01016834 0.00373819 0.02089820 0.00302074 0.00250996 0.00102307 0.00330078 0.00033771 0.00207192 0.00131406 
0.14237285 0.02197409 0.01344387 0.00333871 0.00102122 0.00199287 0.01029315 0.00376551 0.02158336 0.00301860 0.00246840 0.00096924 0.00335045 0.00033319 0.00211504 0.00130881 
0.14060930 0.02250637 0.01339246 0.00336184 0.00101212 0.00200599 0.01040862 0.00379263 0.02226188 0.00301252 0.00242448 0.00091239 0.00339877 0.00032928 0.00215890 0.00130359 
0.13863591 0.02303790 0.01332398 0.00338186 0.00100323 0.00201768 0.01051393 0.00381931 0.02293031 0.00300247 0.00237833 0.00085288 0.00344537 0.00032607 0.00220344 0.00129842 
0.13646202 0.02356555 0.01323884 0.00339871 0.00099458 0.00202782 0.01060837 0.00384527 0.02358532 0.00298844 0.00233008 0.00079115 0.00348991 0.00032363 0.00224860 0.00129335 
0.13409786 0.02408622 0.01313751 0.00341235 0.00098623 0.00203633 0.01069127 0.00387027 0.02422372 0.00297045 0.00227990 0.00072765 0.00353206 0.00032205 0.00229432 0.00128839 
0.13155447 0.02459685 0.01302055 0.00342274 0.00097820 0.00204312 0.01076203 0.00389404 0.02484244 0.00294852 0.00222794 0.00066288 0.00357150 0.00032139 0.00234053 0.00128357 
0.12884361 0.02509449 0.01288861 0.00342987 0.00097055 0.00204811 0.01082011 0.00391635 0.02543862 0.00292271 0.00217440 0.00059737 0.00360793 0.00032173 0.00238715 0.00127892 
0.12597776 0.02557625 0.01274238 0.00343374 0.00096330 0.00205123 0.01086506 0.00393696 0.02600953 0.00289308 0.00211946 0.00053169 0.00364106 0.00032314 0.00243411 0.00127448 
0.12296998 0.02603936 0.01258267 0.00343436 0.00095649 0.00205243 0.01089649 0.00395567 0.02655265 0.00285973 0.00206332 0.00046645 0.00367063 0.00032569 0.00248131 0.00127027 
0.11983385 0.02648120 0.01241032 0.00343178 0.00095015 0.00205165 0.01091412 0.00397224 0.02706567 0.00282277 0.00200619 0.00040226 0.00369639 0.00032944 0.00252867 0.00126630 
0.11658344 0.02689929 0.01222626 0.00342604 0.00094430 0.00204885 0.01091771 0.00398649 0.02754646 0.00278232 0.00194828 0.00033978 0.00371813 0.00033444 0.00257609 0.00126262 
0.11323315 0.02729129 0.01203146 0.00341720 0.00093897 0.00204401 0.01090713 0.00399822 0.02799312 0.00273853 0.00188982 0.00027970 0.00373564 0.00034076 0.00262347 0.00125924 
0.10979771 0.02765508 0.01182696 0.00340536 0.00093418 0.00203710 0.01088232 0.00400727 0.02840399 0.00269157 0.00183103 0.00022270 0.00374878 0.00034844 0.00267073 0.00125618 
0.10629203 0.02798872 0.01161384 0.00339059 0.00092994 0.00202812 0.01084330 0.00401348 0.02877760 0.00264161 0.00177215 0.00016950 0.00375738 0.00035753 0.00271774 0.00125348 
0.10273115 0.02829047 0.01139322 0.00337300 0.00092627 0.00201709 0.01079020 0.00401670 0.02911274 0.00258886 0.00171342 0.00012083 0.00376136 0.00036807 0.00276441 0.00125114 
0.09913018 0.02855881 0.01116627 0.00335272 0.00092317 0.00200400 0.01072319 0.00401681 0.02940842 0.00253352 0.00165505 0.00007742 0.00376062 0.00038010 0.00281062 0.00124919 
0.09550416 0.02879248 0.01093418 0.00332987 0.00092064 0.00198890 0.01064256 0.00401369 0.02966388 0.00247583 0.00159730 0.00004000 0.00375511 0.00039364 0.00285628 0.00124764 
0.09186801 0.02899043 0.01069816 0.00330459 0.00091870 0.00197182 0.01054865 0.00400726 0.02987862 0.00241604 0.00154040 0.00000931 0.00374482 0.00040871 0.00290126 0.00124652 
0.08823648 0.02915186 0.01045946 0.00327703 0.00091732 0.00195281 0.01044190 0.00399744 0.03005235 0.00235438 0.00148457 0.00001391 0.00372977 0.00042533 0.00294547 0.00124583 
0.08462399 0.02927622 0.01021933 0.00324735 0.00091652 0.00193194 0.01032281 0.00398417 0.03018502 0.00229113 0.00143005 0.00002895 0.00370999 0.00044350 0.00298879 0.00124560 
0.08104466 0.02936324 0.00997901 0.00321570 0.00091628 0.00190928 0.01019196 0.00396741 0.03027679 0.00222656 0.00137707 0.00003509 0.00368556 0.00046324 0.00303112 0.00124582 
0.07751215 0.02941288 0.00973976 0.00318226 0.00091658 0.00188491 0.01005000 0.00394715 0.03032807 0.00216096 0.00132583 0.00003167 0.00365660 0.00048453 0.00307234 0.00124651 
0.07403964 0.02942537 0.00950281 0.00314719 0.00091742 0.00185894 0.00989764 0.00392339 0.03033947 0.00209461 0.00127654 0.00001800 0.00362323 0.00050736 0.00311236 0.00124768 
0.07063973 0.02940119 0.00926940 0.00311068 0.00091876 0.00183147 0.00973564 0.00389614 0.03031181 0.00202781 0.00122942 0.00000653 0.00358564 0.00053171 0.00315108 0.00124933 
0.06732443 0.02934107 0.00904072 0.00307291 0.00092058 0.00180261 0.00956485 0.00386544 0.03024610 0.00196086 0.00118465 0.00004253 0.00354401 0.00055756 0.00318839 0.00125147 
0.06410505 0.02924600 0.00881796 0.00303406 0.00092287 0.00177249 0.00938614 0.00383136 0.03014356 0.00189407 0.00114240 0.00009055 0.00349857 0.00058487 0.00322420 0.00125409 
0.06099219 0.02911719 0.00860226 0.00299430 0.00092559 0.00174124 0.00920043 0.00379398 0.03000557 0.00182772 0.00110286 0.00015111 0.00344958 0.00061360 0.00325843 0.00125721 
0.05799567 0.02895610 0.00839470 0.00295382 0.00092870 0.00170900 0.00900870 0.00375339 0.02983369 0.00176214 0.00106617 0.00022468 0.00339731 0.00064370 0.00329098 0.00126080 
0.05512448 0.02876440 0.00819635 0.00291280 0.00093219 0.00167592 0.00881195 0.00370971 0.02962965 0.00169761 0.00103247 0.00031166 0.00334206 0.00067511 0.00332178 0.00126488 
0.05238680 0.02854398 0.00800821 0.00287141 0.00093601 0.00164216 0.00861120 0.00366309 0.02939530 0.00163443 0.00100190 0.00041242 0.00328415 0.00070778 0.00335076 0.00126944 
0.04978990 0.02829692 0.00783122 0.00282984 0.00094012 0.00160788 0.00840752 0.00361367 0.02913263 0.00157290 0.00097455 0.00052725 0.00322393 0.00074164 0.00337784 0.00127445 
0.04734016 0.02802546 0.00766625 0.00278824 0.00094449 0.00157324 0.00820198 0.00356165 0.02884376 0.00151328 0.00095054 0.00065638 0.00316176 0.00077660 0.00340297 0.00127993 
0.04504306 0.02773205 0.00751412 0.00274679 0.00094907 0.00153841 0.00799566 0.00350721 0.02853090 0.00145587 0.00092994 0.00079998 0.00309801 0.00081260 0.00342609 0.00128585 
0.04290313 0.02741925 0.00737558 0.00270564 0.00095384 0.00150355 0.00778965 0.00345056 0.02819636 0.00140091 0.00091280 0.00095813 0.00303306 0.00084953 0.00344715 0.00129220 
0.04092398 0.02708976 0.00725128 0.00266494 0.00095874 0.00146885 0.00758503 0.00339194 0.02784251 0.00134867 0.00089918 0.00113087 0.00296732 0.00088732 0.00346611 0.00129896 
0.03910827 0.02674641 0.00714182 0.00262484 0.00096374 0.00143448 0.00738288 0.00333160 0.02747179 0.00129938 0.00088909 0.00131812 0.00290119 0.00092586 0.00348295 0.00130613 
0.03745776 0.02639209 0.00704770 0.00258549 0.00096879 0.00140061 0.00718426 0.00326979 0.02708669 0.00125326 0.00088255 0.00151976 0.00283509 0.00096506 0.00349764 0.00131366 
0.03597329 0.02602978 0.00696934 0.00254700 0.00097385 0.00136742 0.00699022 0.00320680 0.02668971 0.00121053 0.00087954 0.00173558 0.00276942 0.00100480 0.00351015 0.00132156 
0.03465478 0.02566251 0.00690710 0.00250949 0.00097888 0.00133506 0.00680176 0.00314291 0.02628338 0.00117137 0.00088004 0.00196528 0.00270460 0.00104498 0.00352049 0.00132979 
0.03350131 0.02529333 0.00686120 0.00247309 0.00098384 0.00130373 0.00661987 0.00307843 0.02587022 0.00113597 0.00088399 0.00220850 0.00264103 0.00108548 0.00352865 0.00133833 
0.03251110 0.02492530 0.00683183 0.00243790 0.00098869 0.00127356 0.00644550 0.00301367 0.02545275 0.00110446 0.00089134 0.00246477 0.00257913 0.00112620 0.00353465 0.00134715 
0.03168155 0.02456145 0.00681906 0.00240400 0.00099340 0.00124473 0.00627952 0.00294896 0.02503343 0.00107700 0.00090200 0.00273358 0.00251930 0.00116701 0.00353849 0.00135623 
0.03100929 0.02420480 0.00682287 0.00237148 0.00099792 0.00121739 0.00612281 0.00288463 0.02461471 0.00105369 0.00091586 0.00301431 0.00246190 0.00120779 0.00354020 0.00136553 
0.03049024 0.02385829 0.00684317 0.00234042 0.00100222 0.00119167 0.00597614 0.00282102 0.02419894 0.00103463 0.00093282 0.00330628 0.00240733 0.00124842 0.00353982 0.00137504 
0.03011959 0.02352479 0.00687977 0.00231088 0.00100627 0.00116773 0.00584026 0.00275848 0.02378843 0.00101988 0.00095275 0.00360872 0.00235593 0.00128878 0.00353738 0.00138472 
0.02989193 0.02320706 0.00693240 0.00228291 0.00101003 0.00114567 0.00571583 0.00269736 0.02338539 0.00100951 0.00097548 0.00392081 0.00230804 0.00132876 0.00353293 0.00139453 
0.02980122 0.02290775 0.00700072 0.00225657 0.00101348 0.00112564 0.00560346 0.00263801 0.02299194 0.00100353 0.00100087 0.00424166 0.00226399 0.00136822 0.00352653 0.00140445 
0.02984091 0.02262937 0.00708429 0.00223188 0.00101658 0.00110772 0.00550368 0.00258078 0.02261008 0.00100195 0.00102873 0.00457028 0.00222406 0.00140706 0.00351824 0.00141444 
0.03000397 0.02237425 0.00718259 0.00220886 0.00101932 0.00109203 0.00541694 0.00252603 0.02224170 0.00100475 0.00105887 0.00490567 0.00218853 0.00144515 0.00350812 0.00142447 
0.03028294 0.02214459 0.00729506 0.00218755 0.00102167 0.00107864 0.00534364 0.00247411 0.02188854 0.00101190 0.00109110 0.00524674 0.00215764 0.00148237 0.00349626 0.00143451 
0.03066999 0.02194235 0.00742103 0.00216793 0.00102360 0.00106763 0.00528408 0.00242536 0.02155223 0.00102333 0.00112520 0.00559237 0.00213160 0.00151863 0.00348272 0.00144451 
0.03115701 0.02176933 0.00755979 0.00215002 0.00102511 0.00105906 0.00523847 0.00238012 0.02123423 0.00103895 0.00116095 0.00594138 0.00211062 0.00155379 0.00346761 0.00145446 
0.03173561 0.02162709 0.00771055 0.00213380 0.00102619 0.00105298 0.00520696 0.00233872 0.02093584 0.00105866 0.00119813 0.00629255 0.00209483 0.00158777 0.00345100 0.00146430 
0.03239724 0.02151696 0.00787248 0.00211924 0.00102680 0.00104943 0.00518962 0.00230149 0.02065821 0.00108234 0.00123650 0.00664466 0.00208437 0.00162045 0.00343300 0.00147402 
0.03313323 0.02144004 0.00804468 0.00210633 0.00102696 0.00104842 0.00518642 0.00226872 0.02040232 0.00110983 0.00127581 0.00699643 0.00207932 0.00165175 0.00341369 0.00148357 
0.03393482 0.02139717 0.00822621 0.00209504 0.00102665 0.00104996 0.00519725 0.00224072 0.02016898 0.00114098 0.00131582 0.00734657 0.00207976 0.00168157 0.00339319 0.00149292 
0.03479325 0.02138896 0.00841610 0.00208531 0.00102588 0.00105405 0.00522194 0.00221776 0.01995882 0.00117560 0.00135628 0.00769379 0.00208569 0.00170982 0.00337160 0.00150204 
0.03569981 0.02141573 0.00861331 0.00207710 0.00102463 0.00106067 0.00526021 0.00220010 0.01977229 0.00121348 0.00139695 0.00803679 0.00209712 0.00173642 0.00334902 0.00151090 
0.03664588 0.02147758 0.00881681 0.00207037 0.00102292 0.00106978 0.00531174 0.00218799 0.01960966 0.00125443 0.00143757 0.00837428 0.00211399 0.00176131 0.00332557 0.00151946 
0.03762300 0.02157432 0.00902551 0.00206504 0.00102075 0.00108133 0.00537609 0.00218165 0.01947104 0.00129819 0.00147789 0.00870499 0.00213624 0.00178441 0.00330134 0.00152770 
0.03862290 0.02170550 0.00923831 0.00206106 0.00101812 0.00109528 0.00545278 0.00218128 0.01935633 0.00134454 0.00151768 0.00902765 0.00216376 0.00180567 0.00327646 0.00153558 
0.03963755 0.02187042 0.00945411 0.00205836 0.00101506 0.00111153 0.00554126 0.00218705 0.01926529 0.00139321 0.00155668 0.00934103 0.00219641 0.00182504 0.00325102 0.00154308 
0.04065922 0.02206812 0.00967179 0.00205686 0.00101157 0.00113001 0.00564089 0.00219911 0.01919747 0.00144394 0.00159466 0.00964396 0.00223401 0.00184247 0.00322514 0.00155017 
0.04168048 0.02229741 0.00989022 0.00205649 0.00100767 0.00115063 0.00575098 0.00221759 0.01915229 0.00149646 0.00163139 0.00993528 0.00227636 0.00185793 0.00319893 0.00155683 
0.04269429 0.02255683 0.01010828 0.00205718 0.00100337 0.00117327 0.00587079 0.00224259 0.01912899 0.00155048 0.00166666 0.01021392 0.00232324 0.00187138 0.00317248 0.00156303 
0.04369398 0.02284473 0.01032486 0.00205884 0.00099870 0.00119781 0.00599953 0.00227417 0.01912665 0.00160571 0.00170025 0.01047884 0.00237439 0.00188282 0.00314591 0.00156875 
0.04467329 0.02315919 0.01053885 0.00206138 0.00099368 0.00122413 0.00613634 0.00231238 0.01914420 0.00166188 0.00173196 0.01072908 0.00242953 0.00189224 0.00311931 0.00157397 
0.04562644 0.02349814 0.01074919 0.00206473 0.00098833 0.00125209 0.00628034 0.00235722 0.01918045 0.00171867 0.00176160 0.01096378 0.00248836 0.00189962 0.00309277 0.00157868 
0.04654806 0.02385928 0.01095480 0.00206880 0.00098267 0.00128154 0.00643060 0.00240866 0.01923407 0.00177581 0.00178900 0.01118213 0.00255054 0.00190499 0.00306640 0.00158286 
0.04743331 0.02424014 0.01115467 0.00207351 0.00097674 0.00131234 0.00658616 0.00246667 0.01930360 0.00183299 0.00181400 0.01138343 0.00261574 0.00190835 0.00304028 0.00158649 
0.04827781 0.02463811 0.01134779 0.00207877 0.00097056 0.00134432 0.00674604 0.00253115 0.01938749 0.00188993 0.00183645 0.01156708 0.00268361 0.00190973 0.00301449 0.00158956 
0.04907766 0.02505042 0.01153321 0.00208449 0.00096416 0.00137732 0.00690924 0.00260199 0.01948409 0.00194635 0.00185622 0.01173257 0.00275376 0.00190918 0.00298911 0.00159207 
0.04982951 0.02547418 0.01171002 0.00209060 0.00095757 0.00141117 0.00707475 0.00267903 0.01959164 0.00200196 0.00187320 0.01187949 0.00282581 0.00190672 0.00296423 0.00159401 
0.05053046 0.02590641 0.01187734 0.00209702 0.00095082 0.00144571 0.00724153 0.00276211 0.01970834 0.00205649 0.00188729 0.01200758 0.00289938 0.00190241 0.00293991 0.00159537 
0.05117815 0.02634402 0.01203436 0.00210366 0.00094394 0.00148076 0.00740858 0.00285102 0.01983233 0.00210968 0.00189841 0.01211665 0.00297407 0.00189632 0.00291621 0.00159615 
0.05177067 0.02678388 0.01218030 0.00211044 0.00093695 0.00151615 0.00757486 0.00294550 0.01996169 0.00216129 0.00190650 0.01220665 0.00304947 0.00188852 0.00289320 0.00159635 
0.05230661 0.02722283 0.01231446 0.00211730 0.00092990 0.00155171 0.00773939 0.00304530 0.02009448 0.00221106 0.00191153 0.01227766 0.00312519 0.00187907 0.00287093 0.00159597 
0.05278504 0.02765766 0.01243618 0.00212417 0.00092280 0.00158726 0.00790116 0.00315012 0.02022875 0.00225878 0.00191346 0.01232987 0.00320084 0.00186806 0.00284946 0.00159503 
0.05320544 0.02808519 0.01254487 0.00213097 0.00091570 0.00162264 0.00805923 0.00325963 0.02036254 0.00230423 0.00191230 0.01236359 0.00327601 0.00185559 0.00282883 0.00159352 
0.05356776 0.02850225 0.01264000 0.00213764 0.00090862 0.00165769 0.00821265 0.00337349 0.02049391 0.00234721 0.00190806 0.01237927 0.00335034 0.00184175 0.00280908 0.00159145 
0.05387234 0.02890572 0.01272111 0.00214412 0.00090158 0.00169223 0.00836053 0.00349131 0.02062094 0.00238755 0.00190078 0.01237747 0.00342345 0.00182666 0.00279025 0.00158885 
0.05411989 0.02929255 0.01278780 0.00215036 0.00089462 0.00172613 0.00850201 0.00361269 0.02074177 0.00242508 0.00189051 0.01235888 0.00349498 0.00181042 0.00277238 0.00158571 
0.05431152 0.02965976 0.01283975 0.00215630 0.00088777 0.00175922 0.00863628 0.00373723 0.02085458 0.00245966 0.00187733 0.01232430 0.00356459 0.00179314 0.00275549 0.00158207 
0.05444863 0.03000451 0.01287668 0.00216190 0.00088104 0.00179138 0.00876259 0.00386447 0.02095763 0.00249116 0.00186132 0.01227466 0.00363197 0.00177496 0.00273962 0.00157793 
0.05453295 0.03032406 0.01289841 0.00216712 0.00087447 0.00182246 0.00888023 0.00399396 0.02104925 0.00251947 0.00184260 0.01221099 0.00369680 0.00175601 0.00272478 0.00157332 
0.05456648 0.03061582 0.01290482 0.00217191 0.00086807 0.00185235 0.00898856 0.00412523 0.02112789 0.00254451 0.00182130 0.01213443 0.00375882 0.00173641 0.00271100 0.00156825 
0.05455145 0.03087736 0.01289585 0.00217625 0.00086187 0.00188094 0.00908699 0.00425779 0.02119209 0.00256622 0.00179755 0.01204623 0.00381776 0.00171629 0.00269830 0.00156276 
0.05449033 0.03110644 0.01287152 0.00218011 0.00085589 0.00190812 0.00917501 0.00439114 0.02124050 0.00258453 0.00177151 0.01194773 0.00387340 0.00169581 0.00268670 0.00155687 
0.05438575 0.03130101 0.01283191 0.00218346 0.00085015 0.00193380 0.00925217 0.00452478 0.02127193 0.00259944 0.00174337 0.01184035 0.00392554 0.00167511 0.00267621 0.00155060 
