0.01327296 0.01279087 0.00440235 0.00170500 0.01106149 0.00139819 0.00858418 0.00217795 0.01755847 0.00145535 0.00830558 0.00095927 0.00234034 0.01410798 0.00478777 0.00034745 
0.01340872 0.01276363 0.00441260 0.00173240 0.01122162 0.00141496 0.00851839 0.00217837 0.01768612 0.00144477 0.00834394 0.00096307 0.00232962 0.01472751 0.00500024 0.00036238 
0.01353462 0.01275036 0.00442242 0.00176150 0.01138005 0.00143250 0.00845770 0.00218684 0.01785740 0.00143758 0.00839076 0.00096762 0.00232318 0.01533173 0.00521090 0.00037820 
0.01365054 0.01275132 0.00443166 0.00179225 0.01153597 0.00145079 0.00840267 0.00220352 0.01807255 0.00143373 0.00844632 0.00097290 0.00232110 0.01591830 0.00541906 0.00039483 
0.01375642 0.01276674 0.00444015 0.00182455 0.01168853 0.00146979 0.00835381 0.00222851 0.01833162 0.00143319 0.00851086 0.00097893 0.00232341 0.01648499 0.00562402 0.00041217 
0.01385229 0.01279672 0.00444773 0.00185830 0.01183692 0.00148945 0.00831156 0.00226190 0.01863444 0.00143587 0.00858457 0.00098568 0.00233014 0.01702962 0.00582510 0.00043012 
0.01393823 0.01284131 0.00445422 0.00189341 0.01198030 0.00150975 0.00827635 0.00230369 0.01898065 0.00144170 0.00866761 0.00099315 0.00234128 0.01755011 0.00602162 0.00044857 
0.01401440 0.01290046 0.00445946 0.00192976 0.01211788 0.00153063 0.00824852 0.00235387 0.01936966 0.00145057 0.00876006 0.00100132 0.00235682 0.01804451 0.00621296 0.00046742 
0.01408102 0.01297401 0.00446330 0.00196723 0.01224886 0.00155203 0.00822838 0.00241238 0.01980067 0.00146237 0.00886196 0.00101016 0.00237670 0.01851097 0.00639847 0.00048656 
0.01413837 0.01306176 0.00446557 0.00200569 0.01237247 0.00157390 0.00821615 0.00247911 0.02027265 0.00147697 0.00897328 0.00101964 0.00240086 0.01894779 0.00657758 0.00050588 
0.01418678 0.01316337 0.00446611 0.00204502 0.01248796 0.00159617 0.00821202 0.00255391 0.02078437 0.00149422 0.00909395 0.00102975 0.00242920 0.01935342 0.00674973 0.00052527 
0.01422666 0.01327845 0.00446479 0.00208507 0.01259462 0.00161878 0.00821610 0.00263658 0.02133436 0.00151397 0.00922383 0.00104044 0.00246162 0.01972645 0.00691437 0.00054460 
0.01425845 0.01340650 0.00446145 0.00212570 0.01269177 0.00164165 0.00822842 0.00272688 0.02192097 0.00153604 0.00936271 0.00105168 0.00249798 0.02006567 0.00707103 0.00056378 
0.01428263 0.01354694 0.00445596 0.00216676 0.01277876 0.00166470 0.00824897 0.00282452 0.02254230 0.00156027 0.00951035 0.00106342 0.00253813 0.02037002 0.00721926 0.00058269 
0.01429974 0.01369912 0.00444818 0.00220809 0.01285499 0.00168786 0.00827765 0.00292919 0.02319628 0.00158646 0.00966643 0.00107563 0.00258189 0.02063865 0.00735867 0.00060121 
0.01431035 0.01386230 0.00443799 0.00224954 0.01291989 0.00171104 0.00831431 0.00304051 0.02388063 0.00161441 0.00983058 0.00108825 0.00262907 0.02087091 0.00748888 0.00061924 
0.01431505 0.01403565 0.00442527 0.00229094 0.01297297 0.00173415 0.00835871 0.00315809 0.02459288 0.00164392 0.01000238 0.00110125 0.00267946 0.02106632 0.00760960 0.00063667 
0.01431447 0.01421829 0.00440992 0.00233213 0.01301376 0.00175710 0.00841056 0.00328147 0.02533038 0.00167477 0.01018135 0.00111455 0.00273283 0.02122465 0.00772057 0.00065340 
0.01430925 0.01440927 0.00439184 0.00237295 0.01304186 0.00177980 0.00846951 0.00341018 0.02609033 0.00170675 0.01036696 0.00112813 0.00278893 0.02134587 0.00782159 0.00066933 
0.01430004 0.01460757 0.00437094 0.00241323 0.01305692 0.00180216 0.00853512 0.00354372 0.02686977 0.00173964 0.01055864 0.00114190 0.00284750 0.02143014 0.00791252 0.00068436 
0.01428753 0.01481211 0.00434714 0.00245280 0.01305865 0.00182407 0.00860693 0.00368153 0.02766558 0.00177321 0.01075577 0.00115583 0.00290828 0.02147788 0.00799325 0.00069841 
0.01427236 0.01502178 0.00432038 0.00249151 0.01304682 0.00184544 0.00868438 0.00382305 0.02847454 0.00180724 0.01095769 0.00116985 0.00297097 0.02148969 0.00806374 0.00071140 
0.01425520 0.01523541 0.00429060 0.00252918 0.01302127 0.00186618 0.00876688 0.00396768 0.02929332 0.00184151 0.01116371 0.00118390 0.00303528 0.02146641 0.00812403 0.00072324 
0.01423672 0.01545179 0.00425777 0.00256566 0.01298188 0.00188619 0.00885378 0.00411480 0.03011849 0.00187579 0.01137309 0.00119793 0.00310091 0.02140908 0.00817418 0.00073387 
0.01421754 0.01566970 0.00422184 0.00260080 0.01292862 0.00190537 0.00894439 0.00426379 0.03094655 0.00190987 0.01158508 0.00121187 0.00316753 0.02131896 0.00821431 0.00074323 
0.01419829 0.01588789 0.00418281 0.00263443 0.01286151 0.00192361 0.00903797 0.00441397 0.03177396 0.00194354 0.01179891 0.00122565 0.00323484 0.02119752 0.00824462 0.00075126 
0.01417956 0.01610510 0.00414066 0.00266641 0.01278064 0.00194085 0.00913373 0.00456469 0.03259712 0.00197658 0.01201376 0.00123923 0.00330252 0.02104640 0.00826534 0.00075792 
0.01416192 0.01632005 0.00409542 0.00269661 0.01268616 0.00195696 0.00923088 0.00471527 0.03341245 0.00200879 0.01222884 0.00125255 0.00337023 0.02086747 0.00827675 0.00076316 
0.01414589 0.01653150 0.00404711 0.00272488 0.01257827 0.00197189 0.00932858 0.00486502 0.03421636 0.00203998 0.01244332 0.00126553 0.00343765 0.02066274 0.00827920 0.00076697 
0.01413196 0.01673819 0.00399575 0.00275110 0.01245725 0.00198552 0.00942596 0.00501326 0.03500528 0.00206998 0.01265637 0.00127813 0.00350447 0.02043444 0.00827308 0.00076932 
0.01412057 0.01693889 0.00394142 0.00277515 0.01232344 0.00199779 0.00952216 0.00515930 0.03577572 0.00209859 0.01286719 0.00129030 0.00357036 0.02018490 0.00825881 0.00077021 
0.01411212 0.01713241 0.00388417 0.00279692 0.01217721 0.00200862 0.00961630 0.00530247 0.03652423 0.00212567 0.01307494 0.00130197 0.00363502 0.01991664 0.00823687 0.00076963 
0.01410694 0.01731759 0.00382409 0.00281631 0.01201903 0.00201793 0.00970749 0.00544210 0.03724748 0.00215107 0.01327882 0.00131310 0.00369813 0.01963231 0.00820776 0.00076760 
0.01410534 0.01749330 0.00376128 0.00283322 0.01184939 0.00202566 0.00979484 0.00557751 0.03794223 0.00217465 0.01347806 0.00132363 0.00375940 0.01933465 0.00817206 0.00076414 
0.01410754 0.01765850 0.00369584 0.00284758 0.01166883 0.00203176 0.00987748 0.00570807 0.03860540 0.00219628 0.01367189 0.00133353 0.00381855 0.01902652 0.00813032 0.00075927 
0.01411371 0.01781218 0.00362791 0.00285932 0.01147796 0.00203615 0.00995456 0.00583316 0.03923405 0.00221588 0.01385957 0.00134274 0.00387531 0.01871088 0.00808318 0.00075304 
0.01412397 0.01795342 0.00355762 0.00286837 0.01127740 0.00203881 0.01002524 0.00595217 0.03982541 0.00223333 0.01404040 0.00135123 0.00392942 0.01839072 0.00803126 0.00074551 
0.01413836 0.01808135 0.00348512 0.00287469 0.01106786 0.00203968 0.01008871 0.00606452 0.04037690 0.00224858 0.01421370 0.00135896 0.00398065 0.01806912 0.00797522 0.00073671 
0.01415687 0.01819521 0.00341060 0.00287825 0.01085003 0.00203874 0.01014420 0.00616967 0.04088617 0.00226156 0.01437884 0.00136590 0.00402877 0.01774916 0.00791573 0.00072674 
0.01417943 0.01829431 0.00333422 0.00287902 0.01062467 0.00203596 0.01019098 0.00626710 0.04135108 0.00227223 0.01453525 0.00137202 0.00407359 0.01743397 0.00785349 0.00071566 
0.01420590 0.01837805 0.00325619 0.00287698 0.01039255 0.00203133 0.01022837 0.00635633 0.04176971 0.00228058 0.01468237 0.00137729 0.00411494 0.01712664 0.00778919 0.00070356 
0.01423607 0.01844594 0.00317670 0.00287215 0.01015448 0.00202483 0.01025572 0.00643691 0.04214043 0.00228658 0.01481971 0.00138169 0.00415265 0.01683024 0.00772354 0.00069054 
0.01426969 0.01849758 0.00309599 0.00286453 0.00991127 0.00201646 0.01027246 0.00650845 0.04246185 0.00229026 0.01494685 0.00138521 0.00418661 0.01654783 0.00765722 0.00067669 
0.01430643 0.01853268 0.00301427 0.00285414 0.00966377 0.00200623 0.01027807 0.00657058 0.04273286 0.00229163 0.01506339 0.00138783 0.00421671 0.01628237 0.00759094 0.00066213 
0.01434592 0.01855106 0.00293178 0.00284103 0.00941281 0.00199417 0.01027211 0.00662299 0.04295263 0.00229074 0.01516901 0.00138956 0.00424288 0.01603676 0.00752538 0.00064696 
0.01438773 0.01855264 0.00284878 0.00282524 0.00915924 0.00198028 0.01025419 0.00666541 0.04312061 0.00228766 0.01526343 0.00139037 0.00426507 0.01581379 0.00746122 0.00063132 
0.01443137 0.01853744 0.00276552 0.00280683 0.00890392 0.00196462 0.01022400 0.00669761 0.04323655 0.00228244 0.01534646 0.00139028 0.00428327 0.01561613 0.00739911 0.00061532 
0.01447632 0.01850563 0.00268226 0.00278588 0.00864770 0.00194721 0.01018132 0.00671944 0.04330051 0.00227520 0.01541793 0.00138929 0.00429749 0.01544634 0.00733970 0.00059909 
0.01452200 0.01845745 0.00259928 0.00276247 0.00839141 0.00192810 0.01012599 0.00673076 0.04331281 0.00226601 0.01547777 0.00138741 0.00430779 0.01530680 0.00728358 0.00058278 
0.01456781 0.01839325 0.00251685 0.00273668 0.00813590 0.00190736 0.01005793 0.00673152 0.04327410 0.00225501 0.01552593 0.00138466 0.00431423 0.01519975 0.00723135 0.00056650 
0.01461310 0.01831352 0.00243524 0.00270862 0.00788196 0.00188504 0.00997717 0.00672168 0.04318529 0.00224232 0.01556244 0.00138106 0.00431692 0.01512722 0.00718355 0.00055041 
0.01465720 0.01821882 0.00235475 0.00267840 0.00763040 0.00186122 0.00988379 0.00670130 0.04304760 0.00222808 0.01558740 0.00137663 0.00431602 0.01509106 0.00714071 0.00053465 
0.01469941 0.01810983 0.00227565 0.00264613 0.00738198 0.00183598 0.00977798 0.00667045 0.04286250 0.00221245 0.01560094 0.00137140 0.00431168 0.01509291 0.00710330 0.00051934 
0.01473901 0.01798732 0.00219822 0.00261196 0.00713744 0.00180940 0.00965999 0.00662927 0.04263175 0.00219557 0.01560326 0.00136540 0.00430411 0.01513419 0.00707176 0.00050463 
0.01477529 0.01785214 0.00212276 0.00257600 0.00689750 0.00178157 0.00953018 0.00657796 0.04235736 0.00217762 0.01559460 0.00135868 0.00429354 0.01521609 0.00704649 0.00049065 
0.01480750 0.01770526 0.00204953 0.00253840 0.00666282 0.00175259 0.00938896 0.00651675 0.04204157 0.00215877 0.01557526 0.00135127 0.00428025 0.01533956 0.00702784 0.00047754 
0.01483492 0.01754769 0.00197882 0.00249931 0.00643405 0.00172256 0.00923686 0.00644594 0.04168687 0.00213921 0.01554559 0.00134321 0.00426452 0.01550530 0.00701612 0.00046543 
0.01485681 0.01738055 0.00191088 0.00245887 0.00621178 0.00169159 0.00907445 0.00636586 0.04129594 0.00211911 0.01550597 0.00133456 0.00424668 0.01571375 0.00701158 0.00045444 
0.01487247 0.01720501 0.00184600 0.00241725 0.00599657 0.00165978 0.00890239 0.00627689 0.04087168 0.00209867 0.01545682 0.00132537 0.00422708 0.01596510 0.00701444 0.00044470 
0.01488120 0.01702229 0.00178441 0.00237458 0.00578892 0.00162724 0.00872142 0.00617946 0.04041713 0.00207806 0.01539861 0.00131568 0.00420608 0.01625927 0.00702485 0.00043632 
0.01488233 0.01683369 0.00172636 0.00233105 0.00558930 0.00159411 0.00853234 0.00607404 0.03993551 0.00205748 0.01533182 0.00130557 0.00418410 0.01659594 0.00704292 0.00042941 
0.01487523 0.01664054 0.00167210 0.00228680 0.00539813 0.00156048 0.00833600 0.00596113 0.03943016 0.00203712 0.01525697 0.00129508 0.00416156 0.01697448 0.00706872 0.00042407 
0.01485929 0.01644419 0.00162183 0.00224201 0.00521577 0.00152649 0.00813333 0.00584127 0.03890455 0.00201716 0.01517460 0.00128429 0.00413889 0.01739404 0.00710225 0.00042038 
0.01483395 0.01624605 0.00157576 0.00219682 0.00504252 0.00149224 0.00792530 0.00571504 0.03836221 0.00199777 0.01508527 0.00127324 0.00411657 0.01785349 0.00714346 0.00041844 
0.01479871 0.01604752 0.00153409 0.00215140 0.00487867 0.00145787 0.00771293 0.00558305 0.03780674 0.00197914 0.01498955 0.00126201 0.00409507 0.01835145 0.00719228 0.00041832 
0.01475312 0.01585003 0.00149700 0.00210591 0.00472441 0.00142348 0.00749728 0.00544591 0.03724179 0.00196143 0.01488802 0.00125067 0.00407488 0.01888628 0.00724855 0.00042008 
0.01469677 0.01565500 0.00146463 0.00206050 0.00457991 0.00138921 0.00727945 0.00530429 0.03667102 0.00194480 0.01478127 0.00123927 0.00405652 0.01945611 0.00731210 0.00042377 
0.01462935 0.01546385 0.00143714 0.00201532 0.00444527 0.00135516 0.00706056 0.00515887 0.03609807 0.00192941 0.01466989 0.00122790 0.00404049 0.02005883 0.00738269 0.00042944 
0.01455058 0.01527796 0.00141463 0.00197053 0.00432057 0.00132146 0.00684176 0.00501032 0.03552655 0.00191540 0.01455445 0.00121660 0.00402732 0.02069212 0.00746004 0.00043712 
0.01446028 0.01509872 0.00139721 0.00192625 0.00420581 0.00128821 0.00662420 0.00485935 0.03496001 0.00190289 0.01443552 0.00120546 0.00401754 0.02135344 0.00754385 0.00044681 
0.01435833 0.01492745 0.00138496 0.00188263 0.00410094 0.00125551 0.00640906 0.00470667 0.03440193 0.00189202 0.01431368 0.00119453 0.00401167 0.02204004 0.00763375 0.00045854 
0.01424470 0.01476546 0.00137793 0.00183980 0.00400590 0.00122349 0.00619750 0.00455299 0.03385566 0.00188287 0.01418945 0.00118389 0.00401023 0.02274902 0.00772935 0.00047228 
0.01411943 0.01461400 0.00137615 0.00179788 0.00392054 0.00119223 0.00599069 0.00439902 0.03332445 0.00187556 0.01406338 0.00117358 0.00401375 0.02347728 0.00783023 0.00048804 
0.01398265 0.01447424 0.00137964 0.00175699 0.00384471 0.00116184 0.00578976 0.00424549 0.03281139 0.00187016 0.01393596 0.00116368 0.00402273 0.02422160 0.00793592 0.00050576 
0.01383458 0.01434731 0.00138839 0.00171723 0.00377818 0.00113240 0.00559585 0.00409308 0.03231938 0.00186673 0.01380766 0.00115425 0.00403769 0.02497860 0.00804594 0.00052541 
0.01367550 0.01423426 0.00140234 0.00167869 0.00372071 0.00110399 0.00541005 0.00394249 0.03185116 0.00186532 0.01367893 0.00114534 0.00405910 0.02574481 0.00815977 0.00054693 
0.01350580 0.01413606 0.00142145 0.00164148 0.00367202 0.00107671 0.00523343 0.00379440 0.03140925 0.00186598 0.01355020 0.00113700 0.00408744 0.02651666 0.00827689 0.00057026 
0.01332595 0.01405360 0.00144563 0.00160567 0.00363179 0.00105061 0.00506699 0.00364946 0.03099596 0.00186871 0.01342184 0.00112929 0.00412317 0.02729050 0.00839673 0.00059531 
0.01313647 0.01398767 0.00147478 0.00157133 0.00359967 0.00102576 0.00491172 0.00350832 0.03061336 0.00187354 0.01329420 0.00112226 0.00416670 0.02806263 0.00851873 0.00062200 
0.01293802 0.01393899 0.00150874 0.00153853 0.00357531 0.00100223 0.00476853 0.00337158 0.03026327 0.00188044 0.01316760 0.00111593 0.00421844 0.02882934 0.00864232 0.00065021 
0.01273128 0.01390816 0.00154739 0.00150731 0.00355829 0.00098007 0.00463827 0.00323983 0.02994725 0.00188939 0.01304231 0.00111037 0.00427876 0.02958688 0.00876690 0.00067985 
0.01251704 0.01389568 0.00159053 0.00147771 0.00354822 0.00095932 0.00452175 0.00311362 0.02966660 0.00190036 0.01291859 0.00110560 0.00434801 0.03033153 0.00889187 0.00071078 
0.01229615 0.01390195 0.00163796 0.00144978 0.00354466 0.00094002 0.00441968 0.00299346 0.02942235 0.00191329 0.01279662 0.00110165 0.00442649 0.03105962 0.00901666 0.00074288 
0.01206953 0.01392728 0.00168947 0.00142353 0.00354717 0.00092221 0.00433270 0.00287985 0.02921523 0.00192811 0.01267659 0.00109855 0.00451448 0.03176750 0.00914065 0.00077600 
0.01183815 0.01397185 0.00174482 0.00139897 0.00355531 0.00090590 0.00426139 0.00277322 0.02904572 0.00194474 0.01255862 0.00109633 0.00461222 0.03245163 0.00926329 0.00081001 
0.01160306 0.01403573 0.00180375 0.00137611 0.00356862 0.00089112 0.00420623 0.00267398 0.02891400 0.00196308 0.01244281 0.00109499 0.00471989 0.03310857 0.00938397 0.00084474 
0.01136533 0.01411891 0.00186599 0.00135494 0.00358664 0.00087787 0.00416762 0.00258248 0.02881997 0.00198304 0.01232925 0.00109456 0.00483765 0.03373500 0.00950215 0.00088003 
0.01112609 0.01422123 0.00193123 0.00133544 0.00360893 0.00086617 0.00414587 0.00249904 0.02876326 0.00200450 0.01221795 0.00109503 0.00496559 0.03432772 0.00961729 0.00091572 
0.01088652 0.01434246 0.00199917 0.00131759 0.00363503 0.00085600 0.00414121 0.00242393 0.02874322 0.00202733 0.01210894 0.00109642 0.00510380 0.03488372 0.00972884 0.00095164 
0.01064780 0.01448225 0.00206950 0.00130136 0.00366451 0.00084737 0.00415377 0.00235738 0.02875894 0.00205139 0.01200219 0.00109872 0.00525227 0.03540018 0.00983632 0.00098762 
0.01041116 0.01464014 0.00214188 0.00128670 0.00369693 0.00084025 0.00418359 0.00229956 0.02880927 0.00207656 0.01189767 0.00110193 0.00541097 0.03587444 0.00993924 0.00102349 
0.01017784 0.01481558 0.00221596 0.00127357 0.00373188 0.00083462 0.00423061 0.00225060 0.02889278 0.00210266 0.01179532 0.00110602 0.00557981 0.03630410 0.01003716 0.00105906 
0.00994906 0.01500793 0.00229141 0.00126192 0.00376897 0.00083047 0.00429471 0.00221059 0.02900783 0.00212957 0.01169507 0.00111099 0.00575867 0.03668697 0.01012966 0.00109417 
0.00972607 0.01521643 0.00236785 0.00125167 0.00380781 0.00082776 0.00437564 0.00217955 0.02915257 0.00215711 0.01159684 0.00111682 0.00594735 0.03702111 0.01021636 0.00112864 
0.00951009 0.01544025 0.00244494 0.00124276 0.00384806 0.00082645 0.00447309 0.00215748 0.02932493 0.00218512 0.01150052 0.00112347 0.00614563 0.03730485 0.01029691 0.00116230 
0.00930234 0.01567849 0.00252230 0.00123513 0.00388938 0.00082651 0.00458665 0.00214431 0.02952266 0.00221345 0.01140603 0.00113092 0.00635321 0.03753678 0.01037101 0.00119498 
0.00910399 0.01593014 0.00259958 0.00122868 0.00393148 0.00082789 0.00471583 0.00213995 0.02974334 0.00224193 0.01131324 0.00113914 0.00656976 0.03771580 0.01043838 0.00122652 
0.00891620 0.01619415 0.00267641 0.00122334 0.00397409 0.00083055 0.00486006 0.00214424 0.02998438 0.00227039 0.01122208 0.00114808 0.00679490 0.03784107 0.01049881 0.00125676 
0.00874005 0.01646938 0.00275244 0.00121903 0.00401695 0.00083444 0.00501871 0.00215700 0.03024311 0.00229869 0.01113244 0.00115771 0.00702819 0.03791207 0.01055210 0.00128554 
0.00857661 0.01675462 0.00282730 0.00121565 0.00405986 0.00083951 0.00519105 0.00217800 0.03051669 0.00232667 0.01104424 0.00116798 0.00726916 0.03792858 0.01059814 0.00131273 
0.00842685 0.01704865 0.00290066 0.00121313 0.00410265 0.00084569 0.00537629 0.00220695 0.03080223 0.00235417 0.01095741 0.00117884 0.00751727 0.03789069 0.01063682 0.00133818 
0.00829171 0.01735015 0.00297218 0.00121135 0.00414517 0.00085295 0.00557360 0.00224357 0.03109676 0.00238105 0.01087190 0.00119024 0.00777196 0.03779879 0.01066810 0.00136177 
0.00817203 0.01765779 0.00304154 0.00121025 0.00418731 0.00086121 0.00578207 0.00228750 0.03139726 0.00240717 0.01078767 0.00120214 0.00803262 0.03765359 0.01069199 0.00138338 
0.00806857 0.01797021 0.00310841 0.00120972 0.00422901 0.00087043 0.00600074 0.00233837 0.03170068 0.00243240 0.01070472 0.00121446 0.00829859 0.03745610 0.01070854 0.00140290 
0.00798202 0.01828600 0.00317251 0.00120968 0.00427022 0.00088054 0.00622863 0.00239578 0.03200398 0.00245662 0.01062306 0.00122717 0.00856920 0.03720764 0.01071785 0.00142024 
0.00791297 0.01860374 0.00323355 0.00121003 0.00431093 0.00089149 0.00646469 0.00245929 0.03230412 0.00247973 0.01054273 0.00124020 0.00884372 0.03690984 0.01072007 0.00143531 
0.00786189 0.01892200 0.00329128 0.00121070 0.00435119 0.00090322 0.00670785 0.00252847 0.03259811 0.00250161 0.01046381 0.00125349 0.00912139 0.03656459 0.01071539 0.00144804 
0.00782917 0.01923935 0.00334545 0.00121159 0.00439104 0.00091566 0.00695703 0.00260282 0.03288301 0.00252217 0.01038642 0.00126698 0.00940144 0.03617410 0.01070405 0.00145838 
0.00781509 0.01955435 0.00339583 0.00121264 0.00443060 0.00092878 0.00721111 0.00268186 0.03315596 0.00254135 0.01031068 0.00128062 0.00968307 0.03574081 0.01068634 0.00146626 
0.00781981 0.01986556 0.00344222 0.00121376 0.00446999 0.00094250 0.00746896 0.00276508 0.03341420 0.00255907 0.01023678 0.00129434 0.00996544 0.03526744 0.01066259 0.00147168 
0.00784339 0.02017157 0.00348446 0.00121489 0.00450935 0.00095678 0.00772946 0.00285196 0.03365507 0.00257529 0.01016494 0.00130808 0.01024771 0.03475697 0.01063317 0.00147459 
0.00788576 0.02047098 0.00352238 0.00121596 0.00454889 0.00097156 0.00799148 0.00294197 0.03387605 0.00258995 0.01009540 0.00132179 0.01052902 0.03421256 0.01059849 0.00147500 
0.00794675 0.02076242 0.00355585 0.00121692 0.00458879 0.00098680 0.00825391 0.00303458 0.03407476 0.00260303 0.01002846 0.00133540 0.01080851 0.03363764 0.01055901 0.00147293 
0.00802606 0.02104454 0.00358478 0.00121770 0.00462931 0.00100245 0.00851563 0.00312924 0.03424898 0.00261453 0.00996443 0.00134887 0.01108531 0.03303578 0.01051521 0.00146838 
0.00812329 0.02131605 0.00360908 0.00121827 0.00467070 0.00101847 0.00877557 0.00322543 0.03439667 0.00262443 0.00990368 0.00136213 0.01135853 0.03241075 0.01046762 0.00146140 
0.00823790 0.02157568 0.00362871 0.00121858 0.00471321 0.00103480 0.00903267 0.00332261 0.03451594 0.00263275 0.00984660 0.00137514 0.01162732 0.03176647 0.01041678 0.00145204 
0.00836927 0.02182222 0.00364362 0.00121860 0.00475716 0.00105142 0.00928592 0.00342025 0.03460514 0.00263951 0.00979362 0.00138785 0.01189079 0.03110697 0.01036329 0.00144035 
0.00851665 0.02205451 0.00365384 0.00121831 0.00480282 0.00106828 0.00953432 0.00351784 0.03466278 0.00264475 0.00974519 0.00140020 0.01214810 0.03043641 0.01030774 0.00142642 
0.00867919 0.02227142 0.00365937 0.00121769 0.00485052 0.00108536 0.00977694 0.00361485 0.03468760 0.00264851 0.00970179 0.00141216 0.01239841 0.02975902 0.01025076 0.00141033 
0.00885594 0.02247193 0.00366028 0.00121673 0.00490057 0.00110261 0.01001289 0.00371081 0.03467854 0.00265085 0.00966394 0.00142367 0.01264089 0.02907907 0.01019301 0.00139219 
0.00904585 0.02265504 0.00365664 0.00121542 0.00495330 0.00112001 0.01024133 0.00380523 0.03463476 0.00265184 0.00963216 0.00143471 0.01287476 0.02840091 0.01013513 0.00137209 
0.00924779 0.02281983 0.00364854 0.00121378 0.00500901 0.00113754 0.01046148 0.00389765 0.03455564 0.00265156 0.00960700 0.00144524 0.01309923 0.02772885 0.01007781 0.00135017 
0.00946053 0.02296545 0.00363612 0.00121181 0.00506803 0.00115517 0.01067262 0.00398763 0.03444077 0.00265009 0.00958903 0.00145522 0.01331358 0.02706720 0.01002171 0.00132655 
0.00968278 0.02309111 0.00361951 0.00120954 0.00513068 0.00117287 0.01087408 0.00407476 0.03428996 0.00264753 0.00957881 0.00146463 0.01351709 0.02642024 0.00996753 0.00130137 
0.00991318 0.02319611 0.00359889 0.00120698 0.00519724 0.00119064 0.01106529 0.00415864 0.03410323 0.00264397 0.00957693 0.00147344 0.01370911 0.02579217 0.00991593 0.00127478 
0.01015029 0.02327982 0.00357443 0.00120419 0.00526802 0.00120844 0.01124571 0.00423890 0.03388082 0.00263952 0.00958395 0.00148163 0.01388900 0.02518709 0.00986760 0.00124693 
0.01039265 0.02334166 0.00354635 0.00120119 0.00534328 0.00122628 0.01141490 0.00431520 0.03362316 0.00263429 0.00960046 0.00148919 0.01405618 0.02460899 0.00982318 0.00121798 
0.01063874 0.02338117 0.00351487 0.00119803 0.00542327 0.00124412 0.01157246 0.00438722 0.03333089 0.00262839 0.00962701 0.00149610 0.01421014 0.02406173 0.00978334 0.00118810 
0.01088700 0.02339792 0.00348021 0.00119477 0.00550823 0.00126197 0.01171809 0.00445469 0.03300482 0.00262194 0.00966416 0.00150235 0.01435038 0.02354898 0.00974870 0.00115744 
0.01113587 0.02339160 0.00344263 0.00119146 0.00559837 0.00127980 0.01185155 0.00451734 0.03264598 0.00261505 0.00971244 0.00150793 0.01447648 0.02307425 0.00971987 0.00112620 
0.01138375 0.02336194 0.00340240 0.00118816 0.00569387 0.00129761 0.01197265 0.00457495 0.03225552 0.00260784 0.00977234 0.00151285 0.01458807 0.02264083 0.00969742 0.00109453 
0.01162907 0.02330877 0.00335977 0.00118495 0.00579486 0.00131540 0.01208131 0.00462732 0.03183478 0.00260043 0.00984436 0.00151710 0.01468484 0.02225178 0.00968190 0.00106261 
0.01187025 0.02323198 0.00331504 0.00118188 0.00590148 0.00133314 0.01217748 0.00467429 0.03138525 0.00259292 0.00992892 0.00152069 0.01476653 0.02190990 0.00967383 0.00103061 
0.01210572 0.02313154 0.00326849 0.00117905 0.00601381 0.00135084 0.01226120 0.00471572 0.03090854 0.00258542 0.01002644 0.00152362 0.01483294 0.02161776 0.00967368 0.00099872 
0.01233395 0.02300751 0.00322040 0.00117651 0.00613189 0.00136847 0.01233257 0.00475150 0.03040639 0.00257804 0.01013726 0.00152591 0.01488395 0.02137763 0.00968188 0.00096709 
0.01255346 0.02285999 0.00317106 0.00117435 0.00625573 0.00138604 0.01239173 0.00478157 0.02988065 0.00257088 0.01026169 0.00152756 0.01491948 0.02119147 0.00969881 0.00093589 
0.01276281 0.02268919 0.00312077 0.00117265 0.00638530 0.00140354 0.01243892 0.00480587 0.02933326 0.00256403 0.01039999 0.00152861 0.01493953 0.02106096 0.00972480 0.00090530 
0.01296062 0.02249534 0.00306982 0.00117148 0.00652054 0.00142094 0.01247439 0.00482440 0.02876624 0.00255757 0.01055236 0.00152905 0.01494416 0.02098745 0.00976013 0.00087546 
0.01314557 0.02227879 0.00301848 0.00117092 0.00666133 0.00143825 0.01249848 0.00483716 0.02818171 0.00255158 0.01071892 0.00152893 0.01493348 0.02097196 0.00980503 0.00084652 
0.01331644 0.02203992 0.00296704 0.00117105 0.00680751 0.00145544 0.01251154 0.00484419 0.02758179 0.00254613 0.01089975 0.00152825 0.01490768 0.02101518 0.00985966 0.00081863 
0.01347208 0.02177918 0.00291577 0.00117195 0.00695891 0.00147250 0.01251400 0.00484557 0.02696868 0.00254128 0.01109485 0.00152704 0.01486700 0.02111746 0.00992413 0.00079193 
0.01361145 0.02149709 0.00286492 0.00117368 0.00711527 0.00148942 0.01250630 0.00484138 0.02634458 0.00253707 0.01130414 0.00152533 0.01481175 0.02127882 0.00999847 0.00076654 
0.01373359 0.02119422 0.00281476 0.00117632 0.00727632 0.00150618 0.01248893 0.00483174 0.02571174 0.00253355 0.01152750 0.00152315 0.01474229 0.02149891 0.01008266 0.00074258 
0.01383768 0.02087121 0.00276552 0.00117993 0.00744175 0.00152276 0.01246240 0.00481680 0.02507237 0.00253074 0.01176469 0.00152052 0.01465904 0.02177707 0.01017661 0.00072017 
0.01392300 0.02052875 0.00271742 0.00118457 0.00761119 0.00153913 0.01242727 0.00479670 0.02442869 0.00252865 0.01201543 0.00151748 0.01456248 0.02211228 0.01028018 0.00069939 
0.01398894 0.02016757 0.00267067 0.00119030 0.00778424 0.00155528 0.01238408 0.00477164 0.02378288 0.00252731 0.01227934 0.00151406 0.01445313 0.02250320 0.01039313 0.00068034 
0.01403505 0.01978846 0.00262546 0.00119716 0.00796048 0.00157117 0.01233342 0.00474181 0.02313712 0.00252669 0.01255599 0.00151028 0.01433158 0.02294816 0.01051518 0.00066309 
0.01406099 0.01939227 0.00258197 0.00120521 0.00813943 0.00158678 0.01227587 0.00470744 0.02249349 0.00252679 0.01284484 0.00150618 0.01419846 0.02344518 0.01064598 0.00064771 
0.01406655 0.01897987 0.00254035 0.00121448 0.00832058 0.00160208 0.01221204 0.00466875 0.02185407 0.00252757 0.01314530 0.00150179 0.01405443 0.02399196 0.01078510 0.00063424 
0.01405167 0.01855221 0.00250074 0.00122500 0.00850340 0.00161702 0.01214252 0.00462600 0.02122084 0.00252901 0.01345669 0.00149714 0.01390020 0.02458593 0.01093207 0.00062274 
0.01401642 0.01811025 0.00246325 0.00123679 0.00868734 0.00163159 0.01206790 0.00457946 0.02059571 0.00253105 0.01377827 0.00149225 0.01373654 0.02522424 0.01108634 0.00061323 
0.01396102 0.01765499 0.00242799 0.00124987 0.00887178 0.00164574 0.01198879 0.00452938 0.01998054 0.00253364 0.01410922 0.00148717 0.01356421 0.02590376 0.01124732 0.00060572 
0.01388581 0.01718750 0.00239502 0.00126424 0.00905613 0.00165944 0.01190575 0.00447607 0.01937706 0.00253672 0.01444865 0.00148191 0.01338403 0.02662115 0.01141433 0.00060022 
0.01379127 0.01670886 0.00236439 0.00127990 0.00923975 0.00167264 0.01181935 0.00441980 0.01878695 0.00254021 0.01479561 0.00147650 0.01319685 0.02737283 0.01158667 0.00059673 
0.01367803 0.01622018 0.00233615 0.00129684 0.00942199 0.00168530 0.01173016 0.00436088 0.01821178 0.00254404 0.01514910 0.00147098 0.01300352 0.02815503 0.01176358 0.00059522 
0.01354684 0.01572262 0.00231031 0.00131505 0.00960217 0.00169738 0.01163868 0.00429962 0.01765300 0.00254812 0.01550805 0.00146535 0.01280491 0.02896380 0.01194425 0.00059567 
0.01339858 0.01521735 0.00228685 0.00133449 0.00977964 0.00170883 0.01154544 0.00423631 0.01711200 0.00255236 0.01587134 0.00145966 0.01260192 0.02979505 0.01212783 0.00059802 
0.01323425 0.01470559 0.00226574 0.00135512 0.00995370 0.00171962 0.01145091 0.00417128 0.01659004 0.00255666 0.01623781 0.00145392 0.01239544 0.03064455 0.01231344 0.00060224 
0.01305497 0.01418856 0.00224695 0.00137691 0.01012368 0.00172969 0.01135554 0.00410483 0.01608827 0.00256093 0.01660625 0.00144814 0.01218638 0.03150797 0.01250016 0.00060826 
0.01286196 0.01366753 0.00223039 0.00139980 0.01028889 0.00173901 0.01125977 0.00403727 0.01560776 0.00256506 0.01697543 0.00144236 0.01197564 0.03238091 0.01268704 0.00061601 
0.01265656 0.01314376 0.00221600 0.00142372 0.01044866 0.00174751 0.01116397 0.00396892 0.01514945 0.00256896 0.01734408 0.00143658 0.01176410 0.03325891 0.01287314 0.00062541 
0.01244019 0.01261857 0.00220366 0.00144861 0.01060232 0.00175517 0.01106851 0.00390008 0.01471421 0.00257252 0.01771092 0.00143081 0.01155266 0.03413752 0.01305746 0.00063637 
0.01221435 0.01209326 0.00219327 0.00147439 0.01074921 0.00176194 0.01097372 0.00383105 0.01430277 0.00257564 0.01807462 0.00142508 0.01134220 0.03501227 0.01323904 0.00064880 
0.01198065 0.01156916 0.00218469 0.00150098 0.01088870 0.00176777 0.01087988 0.00376214 0.01391581 0.00257823 0.01843389 0.00141939 0.01113355 0.03587873 0.01341687 0.00066259 
0.01174071 0.01104761 0.00217777 0.00152827 0.01102017 0.00177262 0.01078724 0.00369362 0.01355386 0.00258018 0.01878741 0.00141376 0.01092756 0.03673253 0.01358999 0.00067764 
0.01149627 0.01052997 0.00217237 0.00155619 0.01114304 0.00177646 0.01069604 0.00362579 0.01321741 0.00258142 0.01913387 0.00140818 0.01072503 0.03756939 0.01375742 0.00069383 
0.01124905 0.01001759 0.00216831 0.00158461 0.01125672 0.00177925 0.01060646 0.00355892 0.01290683 0.00258185 0.01947197 0.00140266 0.01052674 0.03838516 0.01391820 0.00071104 
0.01100087 0.00951185 0.00216543 0.00161344 0.01136071 0.00178094 0.01051865 0.00349327 0.01262243 0.00258140 0.01980043 0.00139722 0.01033343 0.03917580 0.01407142 0.00072917 
0.01075351 0.00901409 0.00216355 0.00164255 0.01145449 0.00178152 0.01043272 0.00342910 0.01236443 0.00258001 0.02011801 0.00139184 0.01014581 0.03993746 0.01421617 0.00074807 
0.01050880 0.00852571 0.00216247 0.00167184 0.01153760 0.00178095 0.01034878 0.00336665 0.01213297 0.00257760 0.02042348 0.00138653 0.00996454 0.04066647 0.01435159 0.00076763 
0.01026855 0.00804804 0.00216202 0.00170118 0.01160964 0.00177922 0.01026687 0.00330615 0.01192813 0.00257412 0.02071568 0.00138130 0.00979025 0.04135937 0.01447686 0.00078773 
0.01003458 0.00758246 0.00216200 0.00173044 0.01167022 0.00177628 0.01018702 0.00324782 0.01174995 0.00256955 0.02099346 0.00137612 0.00962352 0.04201292 0.01459122 0.00080823 
0.00980865 0.00713030 0.00216223 0.00175951 0.01171902 0.00177214 0.01010923 0.00319187 0.01159837 0.00256384 0.02125577 0.00137102 0.00946488 0.04262416 0.01469396 0.00082901 
0.00959250 0.00669289 0.00216251 0.00178826 0.01175575 0.00176678 0.01003348 0.00313848 0.01147330 0.00255698 0.02150157 0.00136597 0.00931481 0.04319038 0.01478440 0.00084994 
0.00938783 0.00627156 0.00216267 0.00181655 0.01178020 0.00176019 0.00995972 0.00308784 0.01137460 0.00254896 0.02172992 0.00136097 0.00917376 0.04370915 0.01486198 0.00087091 
0.00919627 0.00586759 0.00216252 0.00184428 0.01179219 0.00175237 0.00988788 0.00304010 0.01130209 0.00253979 0.02193994 0.00135601 0.00904209 0.04417836 0.01492616 0.00089181 
0.00901938 0.00548225 0.00216190 0.00187130 0.01179160 0.00174332 0.00981788 0.00299541 0.01125555 0.00252950 0.02213082 0.00135109 0.00892014 0.04459619 0.01497651 0.00091250 
0.00885864 0.00511679 0.00216063 0.00189751 0.01177837 0.00173304 0.00974960 0.00295391 0.01123471 0.00251811 0.02230185 0.00134620 0.00880818 0.04496117 0.01501264 0.00093289 
0.00871543 0.00477239 0.00215857 0.00192278 0.01175248 0.00172156 0.00968294 0.00291570 0.01123930 0.00250567 0.02245237 0.00134132 0.00870644 0.04527213 0.01503428 0.00095287 
0.00859104 0.00445024 0.00215557 0.00194700 0.01171400 0.00170889 0.00961775 0.00288088 0.01126898 0.00249224 0.02258185 0.00133646 0.00861508 0.04552826 0.01504122 0.00097234 
0.00848665 0.00415146 0.00215151 0.00197005 0.01166302 0.00169506 0.00955391 0.00284954 0.01132343 0.00247790 0.02268983 0.00133159 0.00853421 0.04572908 0.01503334 0.00099120 
0.00840331 0.00387712 0.00214626 0.00199183 0.01159972 0.00168008 0.00949127 0.00282174 0.01140228 0.00246273 0.02277593 0.00132671 0.00846391 0.04587446 0.01501062 0.00100938 
0.00834196 0.00362825 0.00213972 0.00201224 0.01152433 0.00166400 0.00942968 0.00279752 0.01150516 0.00244684 0.02283989 0.00132181 0.00840417 0.04596461 0.01497310 0.00102680 
0.00830340 0.00340582 0.00213181 0.00203120 0.01143712 0.00164686 0.00936898 0.00277694 0.01163165 0.00243034 0.02288154 0.00131688 0.00835497 0.04600008 0.01492094 0.00104337 
0.00828828 0.00321074 0.00212245 0.00204861 0.01133844 0.00162871 0.00930904 0.00275999 0.01178134 0.00241334 0.02290081 0.00131190 0.00831621 0.04598177 0.01485437 0.00105905 
0.00829713 0.00304386 0.00211159 0.00206439 0.01122868 0.00160958 0.00924969 0.00274668 0.01195382 0.00239600 0.02289772 0.00130688 0.00828776 0.04591088 0.01477372 0.00107377 
0.00833031 0.00290593 0.00209919 0.00207848 0.01110828 0.00158954 0.00919081 0.00273700 0.01214862 0.00237845 0.02287240 0.00130179 0.00826944 0.04578895 0.01467939 0.00108748 
0.00838806 0.00279766 0.00208524 0.00209081 0.01097776 0.00156865 0.00913226 0.00273092 0.01236530 0.00236086 0.02282507 0.00129663 0.00826103 0.04561782 0.01457189 0.00110014 
0.00847043 0.00271967 0.00206973 0.00210133 0.01083765 0.00154697 0.00907390 0.00272838 0.01260337 0.00234338 0.02275606 0.00129140 0.00826227 0.04539965 0.01445179 0.00111174 
0.00857735 0.00267249 0.00205267 0.00211001 0.01068856 0.00152458 0.00901564 0.00272934 0.01286235 0.00232620 0.02266577 0.00128608 0.00827287 0.04513685 0.01431975 0.00112223 
0.00870857 0.00265654 0.00203411 0.00211681 0.01053114 0.00150153 0.00895736 0.00273371 0.01314174 0.00230950 0.02255472 0.00128067 0.00829250 0.04483211 0.01417651 0.00113161 
0.00886371 0.00267219 0.00201409 0.00212170 0.01036605 0.00147792 0.00889899 0.00274141 0.01344101 0.00229345 0.02242350 0.00127516 0.00832079 0.04448837 0.01402286 0.00113987 
0.00904222 0.00271969 0.00199267 0.00212467 0.01019404 0.00145381 0.00884044 0.00275235 0.01375962 0.00227826 0.02227280 0.00126955 0.00835737 0.04410879 0.01385969 0.00114701 
0.00924342 0.00279917 0.00196995 0.00212574 0.01001585 0.00142930 0.00878167 0.00276639 0.01409699 0.00226412 0.02210338 0.00126383 0.00840183 0.04369675 0.01368793 0.00115304 
0.00946647 0.00291069 0.00194603 0.00212489 0.00983227 0.00140446 0.00872263 0.00278344 0.01445256 0.00225122 0.02191607 0.00125801 0.00845374 0.04325580 0.01350857 0.00115797 
0.00971039 0.00305417 0.00192101 0.00212215 0.00964413 0.00137938 0.00866331 0.00280334 0.01482569 0.00223976 0.02171181 0.00125207 0.00851265 0.04278967 0.01332265 0.00116183 
0.00997409 0.00322945 0.00189504 0.00211756 0.00945227 0.00135416 0.00860372 0.00282596 0.01521576 0.00222995 0.02149156 0.00124602 0.00857811 0.04230220 0.01313125 0.00116465 
0.01025632 0.00343622 0.00186825 0.00211115 0.00925754 0.00132887 0.00854386 0.00285114 0.01562210 0.00222198 0.02125637 0.00123986 0.00864965 0.04179738 0.01293550 0.00116645 
0.01055573 0.00367409 0.00184079 0.00210296 0.00906083 0.00130362 0.00848378 0.00287873 0.01604400 0.00221604 0.02100733 0.00123359 0.00872681 0.04127925 0.01273655 0.00116729 
0.01087085 0.00394252 0.00181284 0.00209308 0.00886302 0.00127849 0.00842353 0.00290855 0.01648072 0.00221232 0.02074561 0.00122722 0.00880911 0.04075193 0.01253557 0.00116720 
0.01120012 0.00424088 0.00178457 0.00208155 0.00866500 0.00125357 0.00836320 0.00294043 0.01693149 0.00221100 0.02047237 0.00122075 0.00889608 0.04021959 0.01233375 0.00116624 
0.01154186 0.00456841 0.00175616 0.00206846 0.00846766 0.00122895 0.00830289 0.00297419 0.01739551 0.00221227 0.02018887 0.00121418 0.00898726 0.03968639 0.01213230 0.00116446 
0.01189432 0.00492422 0.00172780 0.00205389 0.00827191 0.00120472 0.00824271 0.00300965 0.01787193 0.00221628 0.01989633 0.00120752 0.00908219 0.03915646 0.01193241 0.00116192 
0.01225569 0.00530732 0.00169969 0.00203795 0.00807862 0.00118097 0.00818281 0.00304662 0.01835985 0.00222319 0.01959606 0.00120077 0.00918043 0.03863393 0.01173527 0.00115867 
0.01262407 0.00571659 0.00167203 0.00202072 0.00788866 0.00115778 0.00812332 0.00308492 0.01885834 0.00223316 0.01928933 0.00119396 0.00928153 0.03812282 0.01154206 0.00115479 
0.01299753 0.00615079 0.00164501 0.00200233 0.00770290 0.00113524 0.00806444 0.00312436 0.01936643 0.00224632 0.01897745 0.00118708 0.00938510 0.03762708 0.01135393 0.00115033 
0.01337410 0.00660860 0.00161884 0.00198289 0.00752215 0.00111342 0.00800633 0.00316474 0.01988310 0.00226279 0.01866171 0.00118015 0.00949073 0.03715054 0.01117201 0.00114537 
0.01375177 0.00708854 0.00159372 0.00196251 0.00734723 0.00109239 0.00794922 0.00320588 0.02040729 0.00228268 0.01834342 0.00117317 0.00959804 0.03669688 0.01099738 0.00113996 
0.01412853 0.00758907 0.00156985 0.00194132 0.00717891 0.00107224 0.00789331 0.00324760 0.02093790 0.00230608 0.01802384 0.00116617 0.00970669 0.03626961 0.01083109 0.00113417 
0.01450235 0.00810853 0.00154741 0.00191945 0.00701794 0.00105303 0.00783883 0.00328972 0.02147380 0.00233308 0.01770425 0.00115916 0.00981635 0.03587209 0.01067412 0.00112807 
0.01487121 0.00864514 0.00152660 0.00189703 0.00686502 0.00103482 0.00778603 0.00333205 0.02201379 0.00236373 0.01738586 0.00115215 0.00992672 0.03550743 0.01052742 0.00112172 
0.01523314 0.00919708 0.00150760 0.00187421 0.00672080 0.00101768 0.00773515 0.00337443 0.02255667 0.00239808 0.01706989 0.00114516 0.01003752 0.03517855 0.01039185 0.00111519 
0.01558617 0.00976241 0.00149057 0.00185110 0.00658591 0.00100165 0.00768645 0.00341669 0.02310119 0.00243615 0.01675748 0.00113820 0.01014851 0.03488811 0.01026820 0.00110854 
0.01592840 0.01033912 0.00147569 0.00182786 0.00646090 0.00098679 0.00764021 0.00345867 0.02364606 0.00247796 0.01644975 0.00113130 0.01025947 0.03463852 0.01015722 0.00110182 
0.01625796 0.01092512 0.00146310 0.00180461 0.00634629 0.00097313 0.00759668 0.00350022 0.02418999 0.00252349 0.01614775 0.00112446 0.01037021 0.03443191 0.01005955 0.00109509 
0.01657307 0.01151830 0.00145293 0.00178149 0.00624253 0.00096073 0.00755615 0.00354119 0.02473164 0.00257272 0.01585250 0.00111771 0.01048057 0.03427015 0.00997574 0.00108840 
0.01687203 0.01211644 0.00144532 0.00175864 0.00615002 0.00094960 0.00751888 0.00358146 0.02526967 0.00262559 0.01556492 0.00111107 0.01059041 0.03415479 0.00990628 0.00108180 
0.01715322 0.01271733 0.00144037 0.00173619 0.00606910 0.00093978 0.00748515 0.00362090 0.02580273 0.00268204 0.01528589 0.00110456 0.01069964 0.03408710 0.00985156 0.00107535 
0.01741512 0.01331869 0.00143818 0.00171426 0.00600004 0.00093129 0.00745523 0.00365939 0.02632946 0.00274198 0.01501622 0.00109819 0.01080816 0.03406801 0.00981187 0.00106907 
0.01765631 0.01391823 0.00143882 0.00169298 0.00594305 0.00092413 0.00742940 0.00369684 0.02684850 0.00280530 0.01475662 0.00109199 0.01091593 0.03409816 0.00978741 0.00106300 
0.01787550 0.01451365 0.00144236 0.00167247 0.00589827 0.00091833 0.00740790 0.00373314 0.02735849 0.00287189 0.01450775 0.00108598 0.01102292 0.03417787 0.00977827 0.00105718 
0.01807152 0.01510264 0.00144884 0.00165284 0.00586580 0.00091387 0.00739101 0.00376823 0.02785809 0.00294158 0.01427018 0.00108018 0.01112911 0.03430714 0.00978448 0.00105163 
0.01824332 0.01568290 0.00145829 0.00163419 0.00584563 0.00091075 0.00737896 0.00380204 0.02834600 0.00301423 0.01404440 0.00107460 0.01123451 0.03448565 0.00980594 0.00104638 
0.01838999 0.01625217 0.00147071 0.00161663 0.00583771 0.00090898 0.00737198 0.00383450 0.02882093 0.00308966 0.01383080 0.00106928 0.01133916 0.03471276 0.00984246 0.00104145 
0.01851078 0.01680819 0.00148610 0.00160025 0.00584192 0.00090852 0.00737031 0.00386558 0.02928161 0.00316765 0.01362969 0.00106423 0.01144309 0.03498754 0.00989377 0.00103684 
0.01860506 0.01734876 0.00150443 0.00158512 0.00585808 0.00090936 0.00737414 0.00389524 0.02972685 0.00324801 0.01344133 0.00105946 0.01154636 0.03530874 0.00995949 0.00103258 
0.01867236 0.01787174 0.00152564 0.00157134 0.00588593 0.00091148 0.00738368 0.00392346 0.03015550 0.00333050 0.01326583 0.00105501 0.01164903 0.03567482 0.01003916 0.00102866 
0.01871236 0.01837504 0.00154969 0.00155895 0.00592516 0.00091484 0.00739908 0.00395023 0.03056644 0.00341488 0.01310327 0.00105089 0.01175119 0.03608397 0.01013223 0.00102508 
0.01872490 0.01885665 0.00157647 0.00154803 0.00597539 0.00091940 0.00742051 0.00397556 0.03095866 0.00350088 0.01295362 0.00104712 0.01185290 0.03653410 0.01023807 0.00102184 
0.01870994 0.01931466 0.00160590 0.00153861 0.00603618 0.00092513 0.00744811 0.00399946 0.03133120 0.00358824 0.01281677 0.00104372 0.01195426 0.03702287 0.01035597 0.00101893 
0.01866764 0.01974725 0.00163786 0.00153074 0.00610703 0.00093197 0.00748198 0.00402195 0.03168318 0.00367667 0.01269253 0.00104070 0.01205533 0.03754768 0.01048514 0.00101634 
0.01859827 0.02015269 0.00167222 0.00152445 0.00618741 0.00093988 0.00752221 0.00404306 0.03201382 0.00376588 0.01258064 0.00103809 0.01215621 0.03810575 0.01062473 0.00101405 
0.01850229 0.02052939 0.00170884 0.00151974 0.00627670 0.00094881 0.00756888 0.00406285 0.03232241 0.00385556 0.01248074 0.00103590 0.01225694 0.03869405 0.01077382 0.00101206 
0.01838025 0.02087588 0.00174754 0.00151663 0.00637426 0.00095870 0.00762202 0.00408136 0.03260837 0.00394540 0.01239243 0.00103415 0.01235761 0.03930940 0.01093145 0.00101032 
0.01823290 0.02119082 0.00178817 0.00151512 0.00647939 0.00096948 0.00768165 0.00409865 0.03287119 0.00403509 0.01231523 0.00103285 0.01245827 0.03994845 0.01109659 0.00100883 
0.01806108 0.02147302 0.00183053 0.00151519 0.00659137 0.00098110 0.00774776 0.00411479 0.03311050 0.00412429 0.01224858 0.00103202 0.01255894 0.04060770 0.01126818 0.00100755 
0.01786579 0.02172143 0.00187443 0.00151682 0.00670943 0.00099350 0.00782031 0.00412985 0.03332601 0.00421267 0.01219190 0.00103166 0.01265965 0.04128353 0.01144513 0.00100646 
0.01764814 0.02193515 0.00191966 0.00151997 0.00683276 0.00100660 0.00789923 0.00414391 0.03351758 0.00429991 0.01214451 0.00103180 0.01276041 0.04197227 0.01162631 0.00100553 
0.01740935 0.02211346 0.00196602 0.00152462 0.00696053 0.00102034 0.00798443 0.00415706 0.03368516 0.00438568 0.01210573 0.00103244 0.01286120 0.04267012 0.01181058 0.00100472 
0.01715078 0.02225579 0.00201327 0.00153069 0.00709190 0.00103465 0.00807579 0.00416938 0.03382882 0.00446963 0.01207480 0.00103359 0.01296198 0.04337329 0.01199680 0.00100401 
0.01687384 0.02236175 0.00206119 0.00153815 0.00722600 0.00104947 0.00817315 0.00418096 0.03394875 0.00455143 0.01205094 0.00103526 0.01306269 0.04407796 0.01218379 0.00100337 
0.01658009 0.02243110 0.00210955 0.00154692 0.00736196 0.00106471 0.00827634 0.00419191 0.03404528 0.00463077 0.01203335 0.00103746 0.01316326 0.04478029 0.01237043 0.00100275 
0.01627112 0.02246380 0.00215812 0.00155692 0.00749888 0.00108032 0.00838515 0.00420229 0.03411884 0.00470732 0.01202119 0.00104019 0.01326356 0.04547652 0.01255557 0.00100214 
0.01594862 0.02245996 0.00220666 0.00156807 0.00763588 0.00109622 0.00849935 0.00421222 0.03416995 0.00478075 0.01201362 0.00104345 0.01336348 0.04616293 0.01273811 0.00100150 
0.01561433 0.02241986 0.00225493 0.00158028 0.00777207 0.00111234 0.00861866 0.00422179 0.03419929 0.00485077 0.01200976 0.00104725 0.01346285 0.04683588 0.01291696 0.00100080 
0.01527006 0.02234399 0.00230270 0.00159347 0.00790659 0.00112863 0.00874280 0.00423107 0.03420761 0.00491708 0.01200877 0.00105159 0.01356148 0.04749185 0.01309109 0.00100001 
0.01491764 0.02223295 0.00234974 0.00160753 0.00803857 0.00114500 0.00887145 0.00424017 0.03419577 0.00497938 0.01200979 0.00105646 0.01365916 0.04812746 0.01325950 0.00099911 
0.01455893 0.02208756 0.00239581 0.00162235 0.00816717 0.00116141 0.00900427 0.00424916 0.03416474 0.00503741 0.01201197 0.00106187 0.01375566 0.04873948 0.01342126 0.00099808 
0.01419582 0.02190876 0.00244070 0.00163783 0.00829157 0.00117778 0.00914090 0.00425812 0.03411558 0.00509092 0.01201447 0.00106781 0.01385072 0.04932487 0.01357549 0.00099688 
0.01383020 0.02169766 0.00248418 0.00165385 0.00841099 0.00119407 0.00928093 0.00426713 0.03404941 0.00513965 0.01201649 0.00107428 0.01394406 0.04988077 0.01372137 0.00099551 
0.01346395 0.02145552 0.00252606 0.00167031 0.00852467 0.00121021 0.00942397 0.00427624 0.03396744 0.00518338 0.01201726 0.00108126 0.01403536 0.05040458 0.01385818 0.00099395 
0.01309896 0.02118374 0.00256611 0.00168709 0.00863189 0.00122615 0.00956958 0.00428553 0.03387095 0.00522192 0.01201602 0.00108875 0.01412432 0.05089390 0.01398526 0.00099217 
0.01273706 0.02088385 0.00260416 0.00170406 0.00873199 0.00124184 0.00971730 0.00429504 0.03376127 0.00525507 0.01201209 0.00109674 0.01421057 0.05134660 0.01410204 0.00099018 
0.01238007 0.02055749 0.00264002 0.00172112 0.00882433 0.00125723 0.00986668 0.00430482 0.03363977 0.00528268 0.01200481 0.00110521 0.01429377 0.05176084 0.01420803 0.00098796 
0.01202975 0.02020645 0.00267353 0.00173815 0.00890834 0.00127229 0.01001722 0.00431491 0.03350788 0.00530461 0.01199357 0.00111415 0.01437354 0.05213504 0.01430285 0.00098551 
0.01168782 0.01983257 0.00270452 0.00175504 0.00898350 0.00128697 0.01016844 0.00432532 0.03336702 0.00532075 0.01197783 0.00112354 0.01444950 0.05246792 0.01438622 0.00098283 
0.01135592 0.01943783 0.00273285 0.00177166 0.00904935 0.00130123 0.01031983 0.00433609 0.03321867 0.00533102 0.01195710 0.00113337 0.01452125 0.05275851 0.01445792 0.00097992 
0.01103563 0.01902426 0.00275839 0.00178792 0.00910548 0.00131505 0.01047086 0.00434721 0.03306426 0.00533535 0.01193097 0.00114362 0.01458839 0.05300614 0.01451788 0.00097679 
0.01072843 0.01859397 0.00278103 0.00180370 0.00915154 0.00132840 0.01062102 0.00435869 0.03290526 0.00533371 0.01189908 0.00115426 0.01465053 0.05321046 0.01456610 0.00097345 
0.01043574 0.01814912 0.00280067 0.00181890 0.00918727 0.00134124 0.01076978 0.00437051 0.03274310 0.00532611 0.01186114 0.00116527 0.01470725 0.05337144 0.01460269 0.00096991 
0.01015885 0.01769190 0.00281721 0.00183343 0.00921245 0.00135357 0.01091661 0.00438266 0.03257918 0.00531258 0.01181695 0.00117664 0.01475817 0.05348935 0.01462787 0.00096618 
0.00989898 0.01722456 0.00283059 0.00184718 0.00922693 0.00136537 0.01106098 0.00439510 0.03241487 0.00529317 0.01176638 0.00118832 0.01480288 0.05356479 0.01464193 0.00096228 
0.00965722 0.01674934 0.00284075 0.00186009 0.00923065 0.00137662 0.01120236 0.00440780 0.03225148 0.00526798 0.01170936 0.00120031 0.01484100 0.05359865 0.01464529 0.00095824 
0.00943455 0.01626849 0.00284766 0.00187206 0.00922359 0.00138732 0.01134024 0.00442070 0.03209026 0.00523713 0.01164592 0.00121256 0.01487217 0.05359213 0.01463845 0.00095408 
0.00923185 0.01578424 0.00285129 0.00188301 0.00920583 0.00139746 0.01147410 0.00443374 0.03193241 0.00520078 0.01157614 0.00122506 0.01489602 0.05354672 0.01462198 0.00094983 
0.00904986 0.01529880 0.00285164 0.00189290 0.00917748 0.00140703 0.01160344 0.00444687 0.03177901 0.00515912 0.01150019 0.00123776 0.01491222 0.05346417 0.01459658 0.00094551 
0.00888920 0.01481436 0.00284871 0.00190164 0.00913875 0.00141605 0.01172776 0.00446000 0.03163109 0.00511236 0.01141833 0.00125064 0.01492045 0.05334650 0.01456297 0.00094115 
0.00875037 0.01433304 0.00284254 0.00190921 0.00908990 0.00142452 0.01184659 0.00447306 0.03148959 0.00506076 0.01133086 0.00126367 0.01492042 0.05319600 0.01452200 0.00093678 
0.00863375 0.01385691 0.00283315 0.00191554 0.00903127 0.00143244 0.01195948 0.00448595 0.03135531 0.00500461 0.01123819 0.00127681 0.01491186 0.05301514 0.01447455 0.00093245 
0.00853959 0.01338795 0.00282060 0.00192061 0.00896325 0.00143983 0.01206597 0.00449858 0.03122899 0.00494422 0.01114076 0.00129003 0.01489454 0.05280663 0.01442156 0.00092818 
0.00846800 0.01292809 0.00280497 0.00192439 0.00888628 0.00144671 0.01216567 0.00451085 0.03111123 0.00487992 0.01103910 0.00130330 0.01486825 0.05257334 0.01436403 0.00092401 
0.00841899 0.01247912 0.00278634 0.00192686 0.00880088 0.00145308 0.01225817 0.00452267 0.03100252 0.00481211 0.01093379 0.00131657 0.01483282 0.05231832 0.01430302 0.00091996 
0.00839243 0.01204277 0.00276480 0.00192802 0.00870762 0.00145898 0.01234310 0.00453391 0.03090325 0.00474118 0.01082548 0.00132982 0.01478812 0.05204473 0.01423958 0.00091609 
0.00838806 0.01162064 0.00274047 0.00192787 0.00860710 0.00146441 0.01242012 0.00454447 0.03081366 0.00466755 0.01071486 0.00134301 0.01473403 0.05175585 0.01417481 0.00091241 
0.00840554 0.01121419 0.00271346 0.00192641 0.00849998 0.00146941 0.01248893 0.00455424 0.03073392 0.00459169 0.01060266 0.00135611 0.01467051 0.05145503 0.01410983 0.00090897 
0.00844439 0.01082479 0.00268391 0.00192367 0.00838698 0.00147400 0.01254924 0.00456310 0.03066403 0.00451407 0.01048968 0.00136907 0.01459753 0.05114568 0.01404574 0.00090580 
0.00850401 0.01045365 0.00265197 0.00191967 0.00826883 0.00147820 0.01260080 0.00457095 0.03060391 0.00443519 0.01037672 0.00138186 0.01451510 0.05083122 0.01398366 0.00090293 
0.00858372 0.01010186 0.00261779 0.00191444 0.00814631 0.00148204 0.01264340 0.00457766 0.03055335 0.00435557 0.01026465 0.00139446 0.01442329 0.05051506 0.01392469 0.00090038 
0.00868274 0.00977035 0.00258153 0.00190803 0.00802022 0.00148556 0.01267685 0.00458314 0.03051204 0.00427574 0.01015433 0.00140682 0.01432218 0.05020058 0.01386987 0.00089818 
0.00880019 0.00945992 0.00254337 0.00190050 0.00789138 0.00148877 0.01270101 0.00458727 0.03047955 0.00419626 0.01004665 0.00141891 0.01421193 0.04989108 0.01382026 0.00089637 
0.00893510 0.00917121 0.00250349 0.00189190 0.00776065 0.00149171 0.01271576 0.00458996 0.03045539 0.00411769 0.00994251 0.00143070 0.01409270 0.04958978 0.01377682 0.00089495 
0.00908644 0.00890473 0.00246207 0.00188230 0.00762888 0.00149441 0.01272104 0.00459111 0.03043893 0.00404060 0.00984282 0.00144215 0.01396471 0.04929976 0.01374050 0.00089396 
0.00925309 0.00866082 0.00241931 0.00187177 0.00749693 0.00149689 0.01271679 0.00459062 0.03042948 0.00396557 0.00974847 0.00145324 0.01382822 0.04902394 0.01371216 0.00089340 
0.00943388 0.00843969 0.00237541 0.00186039 0.00736568 0.00149918 0.01270302 0.00458842 0.03042629 0.00389318 0.00966036 0.00146393 0.01368352 0.04876509 0.01369260 0.00089328 
0.00962757 0.00824141 0.00233057 0.00184826 0.00723598 0.00150132 0.01267976 0.00458443 0.03042852 0.00382401 0.00957936 0.00147420 0.01353093 0.04852574 0.01368252 0.00089363 
0.00983289 0.00806590 0.00228500 0.00183546 0.00710869 0.00150332 0.01264706 0.00457858 0.03043528 0.00375865 0.00950632 0.00148402 0.01337082 0.04830822 0.01368257 0.00089443 
0.01004851 0.00791295 0.00223891 0.00182209 0.00698466 0.00150521 0.01260504 0.00457082 0.03044565 0.00369766 0.00944206 0.00149337 0.01320358 0.04811459 0.01369328 0.00089569 
0.01027309 0.00778222 0.00219251 0.00180826 0.00686471 0.00150702 0.01255383 0.00456111 0.03045867 0.00364162 0.00938736 0.00150222 0.01302963 0.04794667 0.01371507 0.00089742 
0.01050524 0.00767323 0.00214601 0.00179407 0.00674963 0.00150877 0.01249359 0.00454940 0.03047334 0.00359106 0.00934296 0.00151054 0.01284941 0.04780597 0.01374829 0.00089959 
0.01074359 0.00758540 0.00209962 0.00177963 0.00664020 0.00151047 0.01242452 0.00453568 0.03048866 0.00354653 0.00930956 0.00151833 0.01266339 0.04769370 0.01379314 0.00090221 
0.01098674 0.00751805 0.00205356 0.00176505 0.00653715 0.00151216 0.01234684 0.00451993 0.03050365 0.00350854 0.00928779 0.00152557 0.01247208 0.04761079 0.01384975 0.00090525 
0.01123329 0.00747038 0.00200804 0.00175046 0.00644118 0.00151383 0.01226083 0.00450216 0.03051732 0.00347759 0.00927823 0.00153223 0.01227597 0.04755781 0.01391811 0.00090870 
0.01148186 0.00744150 0.00196326 0.00173596 0.00635294 0.00151552 0.01216675 0.00448238 0.03052871 0.00345413 0.00928140 0.00153830 0.01207560 0.04753503 0.01399809 0.00091254 
0.01173107 0.00743045 0.00191944 0.00172168 0.00627304 0.00151722 0.01206492 0.00446063 0.03053689 0.00343860 0.00929773 0.00154379 0.01187150 0.04754237 0.01408947 0.00091673 
0.01197959 0.00743620 0.00187677 0.00170773 0.00620203 0.00151896 0.01195567 0.00443694 0.03054099 0.00343140 0.00932760 0.00154867 0.01166421 0.04757944 0.01419188 0.00092125 
0.01222610 0.00745764 0.00183544 0.00169424 0.00614043 0.00152073 0.01183935 0.00441138 0.03054018 0.00343291 0.00937132 0.00155295 0.01145429 0.04764549 0.01430487 0.00092606 
0.01246933 0.00749363 0.00179567 0.00168131 0.00608869 0.00152255 0.01171633 0.00438401 0.03053373 0.00344344 0.00942909 0.00155661 0.01124230 0.04773949 0.01442785 0.00093112 
0.01270805 0.00754299 0.00175762 0.00166907 0.00604718 0.00152441 0.01158700 0.00435492 0.03052095 0.00346328 0.00950105 0.00155967 0.01102877 0.04786005 0.01456014 0.00093641 
0.01294108 0.00760450 0.00172148 0.00165763 0.00601624 0.00152632 0.01145177 0.00432422 0.03050126 0.00349268 0.00958726 0.00156212 0.01081427 0.04800549 0.01470097 0.00094186 
0.01316730 0.00767694 0.00168743 0.00164710 0.00599614 0.00152826 0.01131105 0.00429202 0.03047417 0.00353183 0.00968769 0.00156398 0.01059932 0.04817386 0.01484944 0.00094745 
0.01338566 0.00775909 0.00165564 0.00163759 0.00598707 0.00153025 0.01116526 0.00425844 0.03043928 0.00358087 0.00980222 0.00156524 0.01038446 0.04836292 0.01500458 0.00095312 
0.01359516 0.00784971 0.00162625 0.00162919 0.00598917 0.00153227 0.01101484 0.00422362 0.03039631 0.00363990 0.00993066 0.00156593 0.01017021 0.04857017 0.01516535 0.00095882 
0.01379489 0.00794760 0.00159943 0.00162202 0.00600251 0.00153431 0.01086024 0.00418773 0.03034511 0.00370896 0.01007271 0.00156605 0.00995706 0.04879289 0.01533060 0.00096450 
0.01398401 0.00805160 0.00157531 0.00161616 0.00602711 0.00153635 0.01070188 0.00415092 0.03028561 0.00378804 0.01022803 0.00156563 0.00974549 0.04902814 0.01549915 0.00097012 
0.01416175 0.00816056 0.00155402 0.00161169 0.00606288 0.00153839 0.01054023 0.00411337 0.03021789 0.00387708 0.01039615 0.00156468 0.00953598 0.04927281 0.01566975 0.00097562 
0.01432744 0.00827341 0.00153569 0.00160871 0.00610972 0.00154041 0.01037572 0.00407528 0.03014213 0.00397596 0.01057655 0.00156323 0.00932894 0.04952364 0.01584110 0.00098095 
0.01448047 0.00838911 0.00152043 0.00160728 0.00616742 0.00154239 0.01020881 0.00403685 0.03005867 0.00408449 0.01076864 0.00156129 0.00912479 0.04977723 0.01601187 0.00098605 
0.01462035 0.00850672 0.00150834 0.00160747 0.00623575 0.00154431 0.01003991 0.00399827 0.02996793 0.00420246 0.01097172 0.00155891 0.00892392 0.05003011 0.01618072 0.00099089 
0.01474665 0.00862535 0.00149951 0.00160934 0.00631437 0.00154614 0.00986948 0.00395978 0.02987047 0.00432957 0.01118507 0.00155610 0.00872669 0.05027872 0.01634627 0.00099541 
0.01485905 0.00874420 0.00149402 0.00161294 0.00640293 0.00154788 0.00969793 0.00392159 0.02976698 0.00446548 0.01140787 0.00155291 0.00853342 0.05051952 0.01650716 0.00099957 
0.01495731 0.00886258 0.00149192 0.00161832 0.00650100 0.00154948 0.00952568 0.00388395 0.02965824 0.00460979 0.01163925 0.00154936 0.00834440 0.05074893 0.01666204 0.00100331 
0.01504128 0.00897986 0.00149329 0.00162550 0.00660809 0.00155093 0.00935314 0.00384708 0.02954516 0.00476207 0.01187829 0.00154550 0.00815990 0.05096344 0.01680958 0.00100660 
0.01511090 0.00909554 0.00149816 0.00163452 0.00672368 0.00155221 0.00918070 0.00381123 0.02942874 0.00492180 0.01212400 0.00154135 0.00798017 0.05115960 0.01694848 0.00100940 
0.01516620 0.00920923 0.00150655 0.00164538 0.00684719 0.00155328 0.00900873 0.00377664 0.02931006 0.00508845 0.01237539 0.00153696 0.00780540 0.05133410 0.01707750 0.00101168 
0.01520731 0.00932061 0.00151849 0.00165810 0.00697801 0.00155412 0.00883761 0.00374357 0.02919033 0.00526143 0.01263138 0.00153238 0.00763576 0.05148372 0.01719545 0.00101339 
0.01523442 0.00942951 0.00153397 0.00167267 0.00711547 0.00155471 0.00866768 0.00371226 0.02907077 0.00544009 0.01289089 0.00152764 0.00747140 0.05160547 0.01730121 0.00101453 
0.01524782 0.00953585 0.00155300 0.00168907 0.00725889 0.00155501 0.00849928 0.00368295 0.02895273 0.00562377 0.01315282 0.00152278 0.00731244 0.05169652 0.01739372 0.00101505 
0.01524789 0.00963967 0.00157554 0.00170729 0.00740754 0.00155501 0.00833272 0.00365591 0.02883758 0.00581176 0.01341602 0.00151786 0.00715896 0.05175429 0.01747205 0.00101495 
0.01523506 0.00974112 0.00160155 0.00172729 0.00756068 0.00155467 0.00816832 0.00363136 0.02872673 0.00600330 0.01367936 0.00151291 0.00701103 0.05177647 0.01753533 0.00101421 
0.01520985 0.00984045 0.00163100 0.00174903 0.00771754 0.00155398 0.00800634 0.00360956 0.02862162 0.00619763 0.01394169 0.00150799 0.00686868 0.05176102 0.01758282 0.00101282 
0.01517285 0.00993803 0.00166380 0.00177246 0.00787734 0.00155290 0.00784706 0.00359072 0.02852373 0.00639395 0.01420186 0.00150313 0.00673192 0.05170621 0.01761387 0.00101079 
0.01512471 0.01003432 0.00169989 0.00179751 0.00803928 0.00155143 0.00769072 0.00357509 0.02843450 0.00659144 0.01445874 0.00149838 0.00660076 0.05161064 0.01762798 0.00100811 
0.01506616 0.01012988 0.00173918 0.00182412 0.00820255 0.00154954 0.00753755 0.00356288 0.02835540 0.00678928 0.01471121 0.00149378 0.00647516 0.05147325 0.01762474 0.00100479 
0.01499795 0.01022537 0.00178156 0.00185221 0.00836635 0.00154721 0.00738777 0.00355429 0.02828784 0.00698661 0.01495816 0.00148938 0.00635509 0.05129333 0.01760390 0.00100085 
0.01492091 0.01032154 0.00182690 0.00188168 0.00852988 0.00154443 0.00724157 0.00354954 0.02823321 0.00718259 0.01519852 0.00148523 0.00624050 0.05107056 0.01756532 0.00099630 
0.01483591 0.01041919 0.00187510 0.00191245 0.00869235 0.00154118 0.00709912 0.00354880 0.02819283 0.00737637 0.01543126 0.00148135 0.00613133 0.05080497 0.01750902 0.00099118 
0.01474386 0.01051923 0.00192599 0.00194441 0.00885295 0.00153746 0.00696059 0.00355225 0.02816798 0.00756710 0.01565538 0.00147780 0.00602751 0.05049697 0.01743512 0.00098552 
0.01464568 0.01062260 0.00197942 0.00197745 0.00901094 0.00153325 0.00682612 0.00356005 0.02815982 0.00775396 0.01586993 0.00147460 0.00592896 0.05014738 0.01734391 0.00097935 
0.01454236 0.01073032 0.00203523 0.00201144 0.00916556 0.00152855 0.00669583 0.00357235 0.02816945 0.00793612 0.01607400 0.00147180 0.00583562 0.04975735 0.01723580 0.00097272 
0.01443488 0.01084344 0.00209324 0.00204627 0.00931608 0.00152337 0.00656984 0.00358927 0.02819784 0.00811278 0.01626674 0.00146943 0.00574742 0.04932842 0.01711132 0.00096567 
0.01432424 0.01096304 0.00215326 0.00208180 0.00946180 0.00151769 0.00644824 0.00361094 0.02824585 0.00828317 0.01644738 0.00146752 0.00566429 0.04886251 0.01697116 0.00095825 
0.01421146 0.01109023 0.00221508 0.00211790 0.00960207 0.00151154 0.00633112 0.00363744 0.02831420 0.00844655 0.01661519 0.00146609 0.00558618 0.04836185 0.01681610 0.00095053 
0.01409755 0.01122614 0.00227851 0.00215442 0.00973625 0.00150490 0.00621855 0.00366885 0.02840348 0.00860220 0.01676952 0.00146517 0.00551304 0.04782901 0.01664706 0.00094256 
0.01398353 0.01137190 0.00234331 0.00219123 0.00986375 0.00149781 0.00611057 0.00370522 0.02851414 0.00874947 0.01690979 0.00146478 0.00544484 0.04726688 0.01646505 0.00093441 
0.01387040 0.01152862 0.00240926 0.00222817 0.00998402 0.00149026 0.00600725 0.00374660 0.02864645 0.00888772 0.01703548 0.00146495 0.00538157 0.04667861 0.01627120 0.00092614 
0.01375915 0.01169740 0.00247614 0.00226509 0.01009655 0.00148228 0.00590860 0.00379300 0.02880054 0.00901638 0.01714616 0.00146567 0.00532322 0.04606765 0.01606673 0.00091784 
0.01365074 0.01187932 0.00254369 0.00230184 0.01020089 0.00147390 0.00581465 0.00384441 0.02897634 0.00913493 0.01724148 0.00146698 0.00526983 0.04543764 0.01585293 0.00090956 
0.01354610 0.01207540 0.00261167 0.00233827 0.01029661 0.00146513 0.00572542 0.00390081 0.02917363 0.00924290 0.01732117 0.00146886 0.00522144 0.04479244 0.01563120 0.00090139 
0.01344614 0.01228661 0.00267983 0.00237422 0.01038336 0.00145601 0.00564091 0.00396215 0.02939201 0.00933989 0.01738503 0.00147132 0.00517813 0.04413607 0.01540295 0.00089340 
0.01335172 0.01251387 0.00274791 0.00240953 0.01046083 0.00144657 0.00556111 0.00402836 0.02963090 0.00942555 0.01743294 0.00147436 0.00513999 0.04347268 0.01516969 0.00088567 
0.01326364 0.01275803 0.00281566 0.00244405 0.01052875 0.00143684 0.00548602 0.00409935 0.02988954 0.00949959 0.01746487 0.00147798 0.00510715 0.04280654 0.01493294 0.00087828 
0.01318268 0.01301984 0.00288282 0.00247764 0.01058693 0.00142687 0.00541561 0.00417500 0.03016698 0.00956181 0.01748087 0.00148216 0.00507976 0.04214195 0.01469426 0.00087131 
0.01310954 0.01329997 0.00294913 0.00251014 0.01063521 0.00141670 0.00534987 0.00425517 0.03046213 0.00961207 0.01748105 0.00148689 0.00505800 0.04148325 0.01445520 0.00086482 
0.01304487 0.01359900 0.00301433 0.00254140 0.01067349 0.00140637 0.00528877 0.00433971 0.03077369 0.00965027 0.01746562 0.00149215 0.00504210 0.04083475 0.01421734 0.00085890 
0.01298924 0.01391739 0.00307817 0.00257129 0.01070172 0.00139593 0.00523226 0.00442844 0.03110022 0.00967643 0.01743486 0.00149791 0.00503227 0.04020071 0.01398224 0.00085361 
0.01294318 0.01425549 0.00314039 0.00259966 0.01071993 0.00138544 0.00518032 0.00452115 0.03144012 0.00969060 0.01738910 0.00150415 0.00502879 0.03958531 0.01375141 0.00084903 
0.01290713 0.01461354 0.00320075 0.00262638 0.01072815 0.00137494 0.00513290 0.00461762 0.03179164 0.00969292 0.01732878 0.00151084 0.00503196 0.03899256 0.01352637 0.00084523 
0.01288145 0.01499163 0.00325902 0.00265134 0.01072652 0.00136449 0.00508996 0.00471761 0.03215289 0.00968359 0.01725436 0.00151793 0.00504208 0.03842635 0.01330854 0.00084226 
0.01286642 0.01538974 0.00331494 0.00267440 0.01071519 0.00135414 0.00505146 0.00482086 0.03252184 0.00966289 0.01716641 0.00152539 0.00505950 0.03789033 0.01309930 0.00084019 
0.01286227 0.01580770 0.00336831 0.00269546 0.01069436 0.00134396 0.00501733 0.00492707 0.03289636 0.00963116 0.01706553 0.00153317 0.00508459 0.03738794 0.01289996 0.00083907 
0.01286912 0.01624523 0.00341892 0.00271442 0.01066430 0.00133401 0.00498754 0.00503596 0.03327422 0.00958880 0.01695238 0.00154123 0.00511772 0.03692231 0.01271175 0.00083894 
0.01288701 0.01670189 0.00346654 0.00273117 0.01062530 0.00132434 0.00496204 0.00514720 0.03365308 0.00953627 0.01682767 0.00154952 0.00515930 0.03649632 0.01253578 0.00083985 
0.01291591 0.01717709 0.00351101 0.00274563 0.01057771 0.00131502 0.00494076 0.00526047 0.03403055 0.00947411 0.01669217 0.00155797 0.00520972 0.03611249 0.01237308 0.00084185 
0.01295571 0.01767013 0.00355214 0.00275772 0.01052190 0.00130611 0.00492365 0.00537540 0.03440418 0.00940289 0.01654668 0.00156655 0.00526942 0.03577301 0.01222456 0.00084495 
0.01300619 0.01818013 0.00358977 0.00276738 0.01045829 0.00129767 0.00491067 0.00549165 0.03477146 0.00932324 0.01639204 0.00157518 0.00533881 0.03547969 0.01209101 0.00084918 
0.01306708 0.01870611 0.00362375 0.00277455 0.01038733 0.00128975 0.00490174 0.00560882 0.03512988 0.00923584 0.01622912 0.00158380 0.00541833 0.03523395 0.01197310 0.00085456 
0.01313803 0.01924693 0.00365397 0.00277918 0.01030949 0.00128243 0.00489682 0.00572654 0.03547690 0.00914142 0.01605882 0.00159236 0.00550840 0.03503681 0.01187135 0.00086110 
0.01321859 0.01980134 0.00368031 0.00278123 0.01022529 0.00127576 0.00489585 0.00584441 0.03581001 0.00904073 0.01588206 0.00160078 0.00560944 0.03488889 0.01178617 0.00086880 
0.01330826 0.02036794 0.00370268 0.00278068 0.01013524 0.00126979 0.00489877 0.00596202 0.03612673 0.00893456 0.01569978 0.00160901 0.00572186 0.03479037 0.01171781 0.00087766 
0.01340645 0.02094522 0.00372101 0.00277752 0.01003989 0.00126458 0.00490551 0.00607896 0.03642462 0.00882373 0.01551293 0.00161698 0.00584605 0.03474102 0.01166640 0.00088766 
0.01351252 0.02153156 0.00373524 0.00277174 0.00993981 0.00126019 0.00491602 0.00619482 0.03670130 0.00870909 0.01532246 0.00162462 0.00598237 0.03474020 0.01163191 0.00089879 
0.01362577 0.02212522 0.00374536 0.00276334 0.00983557 0.00125666 0.00493023 0.00630916 0.03695449 0.00859148 0.01512934 0.00163187 0.00613119 0.03478683 0.01161418 0.00091102 
0.01374544 0.02272437 0.00375134 0.00275236 0.00972776 0.00125404 0.00494808 0.00642157 0.03718200 0.00847177 0.01493452 0.00163866 0.00629281 0.03487943 0.01161292 0.00092431 
0.01387069 0.02332708 0.00375321 0.00273881 0.00961695 0.00125237 0.00496950 0.00653163 0.03738176 0.00835083 0.01473895 0.00164494 0.00646752 0.03501615 0.01162770 0.00093862 
0.01400068 0.02393135 0.00375099 0.00272275 0.00950374 0.00125170 0.00499443 0.00663891 0.03755183 0.00822954 0.01454355 0.00165063 0.00665555 0.03519475 0.01165795 0.00095391 
0.01413451 0.02453509 0.00374474 0.00270421 0.00938871 0.00125205 0.00502279 0.00674300 0.03769043 0.00810874 0.01434926 0.00165570 0.00685712 0.03541261 0.01170299 0.00097012 
0.01427123 0.02513618 0.00373455 0.00268327 0.00927245 0.00125347 0.00505450 0.00684349 0.03779593 0.00798928 0.01415696 0.00166006 0.00707236 0.03566681 0.01176201 0.00098719 
0.01440989 0.02573241 0.00372050 0.00266000 0.00915551 0.00125598 0.00508950 0.00693997 0.03786688 0.00787199 0.01396752 0.00166369 0.00730139 0.03595411 0.01183411 0.00100506 
0.01454952 0.02632156 0.00370273 0.00263448 0.00903845 0.00125960 0.00512770 0.00703204 0.03790203 0.00775766 0.01378178 0.00166652 0.00754424 0.03627102 0.01191826 0.00102365 
0.01468911 0.02690137 0.00368137 0.00260680 0.00892182 0.00126435 0.00516902 0.00711933 0.03790032 0.00764706 0.01360055 0.00166852 0.00780090 0.03661377 0.01201336 0.00104288 
0.01482767 0.02746957 0.00365659 0.00257707 0.00880613 0.00127025 0.00521336 0.00720147 0.03786090 0.00754093 0.01342460 0.00166964 0.00807130 0.03697843 0.01211824 0.00106268 
0.01496421 0.02802389 0.00362856 0.00254539 0.00869188 0.00127729 0.00526064 0.00727810 0.03778315 0.00743996 0.01325465 0.00166984 0.00835527 0.03736086 0.01223163 0.00108295 
0.01509775 0.02856205 0.00359749 0.00251188 0.00857953 0.00128549 0.00531075 0.00734889 0.03766666 0.00734477 0.01309141 0.00166911 0.00865263 0.03775684 0.01235222 0.00110362 
0.01522731 0.02908183 0.00356360 0.00247668 0.00846953 0.00129483 0.00536361 0.00741352 0.03751126 0.00725598 0.01293550 0.00166741 0.00896308 0.03816203 0.01247866 0.00112459 
0.01535195 0.02958101 0.00352712 0.00243990 0.00836227 0.00130532 0.00541909 0.00747170 0.03731703 0.00717411 0.01278752 0.00166473 0.00928627 0.03857208 0.01260956 0.00114576 
0.01547077 0.03005744 0.00348830 0.00240170 0.00825815 0.00131693 0.00547708 0.00752315 0.03708426 0.00709965 0.01264802 0.00166106 0.00962178 0.03898262 0.01274352 0.00116704 
0.01558289 0.03050902 0.00344741 0.00236222 0.00815750 0.00132966 0.00553747 0.00756762 0.03681350 0.00703301 0.01251749 0.00165639 0.00996911 0.03938936 0.01287913 0.00118834 
0.01568750 0.03093372 0.00340473 0.00232161 0.00806063 0.00134347 0.00560013 0.00760490 0.03650553 0.00697455 0.01239637 0.00165072 0.01032769 0.03978808 0.01301498 0.00120956 
0.01578381 0.03132961 0.00336054 0.00228002 0.00796779 0.00135833 0.00566493 0.00763479 0.03616136 0.00692454 0.01228505 0.00164406 0.01069686 0.04017471 0.01314971 0.00123059 
0.01587112 0.03169484 0.00331515 0.00223762 0.00787921 0.00137422 0.00573173 0.00765713 0.03578225 0.00688321 0.01218386 0.00163643 0.01107593 0.04054537 0.01328198 0.00125136 
0.01594878 0.03202767 0.00326887 0.00219456 0.00779508 0.00139110 0.00580040 0.00767179 0.03536968 0.00685071 0.01209308 0.00162784 0.01146409 0.04089639 0.01341050 0.00127176 
0.01601620 0.03232650 0.00322200 0.00215101 0.00771553 0.00140891 0.00587077 0.00767866 0.03492533 0.00682711 0.01201293 0.00161834 0.01186049 0.04122439 0.01353404 0.00129171 
0.01607289 0.03258983 0.00317488 0.00210714 0.00764067 0.00142762 0.00594270 0.00767768 0.03445111 0.00681242 0.01194358 0.00160795 0.01226422 0.04152629 0.01365146 0.00131112 
0.01611842 0.03281631 0.00312782 0.00206312 0.00757056 0.00144717 0.00601602 0.00766881 0.03394913 0.00680657 0.01188513 0.00159672 0.01267428 0.04179935 0.01376169 0.00132990 
0.01615245 0.03300475 0.00308116 0.00201911 0.00750520 0.00146752 0.00609057 0.00765207 0.03342169 0.00680942 0.01183766 0.00158469 0.01308964 0.04204123 0.01386378 0.00134798 
0.01617472 0.03315410 0.00303521 0.00197528 0.00744457 0.00148859 0.00616618 0.00762748 0.03287125 0.00682078 0.01180115 0.00157193 0.01350920 0.04224998 0.01395687 0.00136528 
0.01618507 0.03326348 0.00299031 0.00193179 0.00738860 0.00151034 0.00624267 0.00759512 0.03230045 0.00684037 0.01177557 0.00155849 0.01393180 0.04242411 0.01404024 0.00138174 
0.01618341 0.03333219 0.00294677 0.00188882 0.00733719 0.00153269 0.00631985 0.00755511 0.03171207 0.00686785 0.01176080 0.00154445 0.01435626 0.04256259 0.01411329 0.00139728 
0.01616978 0.03335969 0.00290491 0.00184652 0.00729018 0.00155559 0.00639754 0.00750759 0.03110902 0.00690282 0.01175670 0.00152987 0.01478135 0.04266487 0.01417554 0.00141186 
0.01614426 0.03334565 0.00286503 0.00180506 0.00724739 0.00157897 0.00647554 0.00745274 0.03049432 0.00694483 0.01176307 0.00151485 0.01520578 0.04273094 0.01422668 0.00142542 
0.01610707 0.03328990 0.00282744 0.00176458 0.00720860 0.00160276 0.00655367 0.00739080 0.02987110 0.00699337 0.01177966 0.00149945 0.01562827 0.04276126 0.01426653 0.00143793 
0.01605848 0.03319248 0.00279242 0.00172525 0.00717355 0.00162689 0.00663172 0.00732202 0.02924255 0.00704787 0.01180617 0.00148377 0.01604749 0.04275685 0.01429507 0.00144934 
0.01599889 0.03305361 0.00276026 0.00168720 0.00714195 0.00165129 0.00670949 0.00724670 0.02861192 0.00710772 0.01184229 0.00146791 0.01646212 0.04271925 0.01431242 0.00145963 
0.01592876 0.03287372 0.00273121 0.00165058 0.00711349 0.00167589 0.00678678 0.00716516 0.02798252 0.00717227 0.01188762 0.00145195 0.01687080 0.04265055 0.01431887 0.00146879 
0.01584864 0.03265343 0.00270552 0.00161553 0.00708782 0.00170064 0.00686338 0.00707777 0.02735765 0.00724082 0.01194176 0.00143599 0.01727220 0.04255333 0.01431487 0.00147679 
0.01575916 0.03239355 0.00268343 0.00158218 0.00706458 0.00172545 0.00693909 0.00698493 0.02674062 0.00731266 0.01200426 0.00142014 0.01766498 0.04243072 0.01430102 0.00148364 
0.01566102 0.03209510 0.00266515 0.00155064 0.00704337 0.00175027 0.00701371 0.00688707 0.02613473 0.00738705 0.01207463 0.00140450 0.01804781 0.04228632 0.01427806 0.00148935 
0.01555502 0.03175929 0.00265088 0.00152103 0.00702379 0.00177503 0.00708701 0.00678465 0.02554322 0.00746320 0.01215237 0.00138917 0.01841938 0.04212423 0.01424689 0.00149393 
0.01544199 0.03138750 0.00264079 0.00149347 0.00700541 0.00179967 0.00715880 0.00667816 0.02496927 0.00754035 0.01223693 0.00137424 0.01877842 0.04194901 0.01420856 0.00149740 
0.01532283 0.03098132 0.00263504 0.00146806 0.00698780 0.00182412 0.00722888 0.00656810 0.02441599 0.00761771 0.01232776 0.00135983 0.01912369 0.04176563 0.01416422 0.00149979 
0.01519852 0.03054252 0.00263376 0.00144487 0.00697052 0.00184835 0.00729703 0.00645503 0.02388639 0.00769448 0.01242426 0.00134604 0.01945399 0.04157947 0.01411520 0.00150115 
0.01507004 0.03007303 0.00263707 0.00142401 0.00695312 0.00187229 0.00736307 0.00633949 0.02338335 0.00776988 0.01252584 0.00133296 0.01976816 0.04139627 0.01406291 0.00150151 
0.01493845 0.02957496 0.00264506 0.00140555 0.00693514 0.00189588 0.00742680 0.00622208 0.02290963 0.00784314 0.01263186 0.00132068 0.02006510 0.04122206 0.01400887 0.00150094 
0.01480482 0.02905057 0.00265779 0.00138955 0.00691615 0.00191910 0.00748802 0.00610339 0.02246783 0.00791349 0.01274171 0.00130931 0.02034379 0.04106318 0.01395473 0.00149950 
0.01467025 0.02850229 0.00267530 0.00137608 0.00689569 0.00194189 0.00754655 0.00598403 0.02206039 0.00798021 0.01285474 0.00129892 0.02060325 0.04092617 0.01390217 0.00149725 
0.01453585 0.02793267 0.00269762 0.00136517 0.00687335 0.00196422 0.00760221 0.00586463 0.02168956 0.00804259 0.01297029 0.00128961 0.02084258 0.04081776 0.01385299 0.00149428 
0.01440275 0.02734441 0.00272474 0.00135689 0.00684868 0.00198605 0.00765481 0.00574582 0.02135740 0.00809995 0.01308773 0.00128146 0.02106098 0.04074478 0.01380902 0.00149066 
0.01427206 0.02674032 0.00275663 0.00135125 0.00682131 0.00200736 0.00770419 0.00562825 0.02106576 0.00815167 0.01320639 0.00127453 0.02125771 0.04071416 0.01377214 0.00148648 
0.01414490 0.02612332 0.00279324 0.00134828 0.00679082 0.00202811 0.00775019 0.00551255 0.02081629 0.00819717 0.01332563 0.00126890 0.02143212 0.04073281 0.01374425 0.00148183 
0.01402235 0.02549643 0.00283449 0.00134799 0.00675687 0.00204830 0.00779264 0.00539936 0.02061039 0.00823590 0.01344480 0.00126462 0.02158366 0.04080761 0.01372727 0.00147682 
0.01390549 0.02486276 0.00288030 0.00135039 0.00671912 0.00206789 0.00783140 0.00528933 0.02044925 0.00826739 0.01356328 0.00126175 0.02171188 0.04094532 0.01372311 0.00147153 
0.01379535 0.02422547 0.00293053 0.00135548 0.00667726 0.00208688 0.00786633 0.00518309 0.02033379 0.00829123 0.01368044 0.00126033 0.02181641 0.04115256 0.01373364 0.00146608 
0.01369290 0.02358780 0.00298506 0.00136324 0.00663101 0.00210527 0.00789729 0.00508125 0.02026472 0.00830704 0.01379567 0.00126041 0.02189700 0.04143570 0.01376072 0.00146057 
0.01359910 0.02295301 0.00304371 0.00137366 0.00658012 0.00212304 0.00792415 0.00498443 0.02024248 0.00831455 0.01390839 0.00126200 0.02195349 0.04180084 0.01380614 0.00145511 
0.01351483 0.02232441 0.00310631 0.00138670 0.00652439 0.00214020 0.00794681 0.00489322 0.02026728 0.00831353 0.01401802 0.00126513 0.02198584 0.04225373 0.01387160 0.00144981 
0.01344089 0.02170529 0.00317265 0.00140234 0.00646366 0.00215675 0.00796515 0.00480819 0.02033906 0.00830382 0.01412402 0.00126981 0.02199408 0.04279975 0.01395875 0.00144479 
0.01337804 0.02109896 0.00324252 0.00142051 0.00639778 0.00217269 0.00797908 0.00472989 0.02045753 0.00828537 0.01422588 0.00127604 0.02197838 0.04344380 0.01406910 0.00144014 
0.01332696 0.02050870 0.00331568 0.00144117 0.00632668 0.00218803 0.00798850 0.00465884 0.02062216 0.00825815 0.01432309 0.00128381 0.02193900 0.04419030 0.01420406 0.00143598 
0.01328822 0.01993776 0.00339188 0.00146427 0.00625031 0.00220280 0.00799334 0.00459555 0.02083217 0.00822225 0.01441520 0.00129312 0.02187631 0.04504312 0.01436491 0.00143242 
0.01326234 0.01938934 0.00347086 0.00148973 0.00616868 0.00221699 0.00799352 0.00454047 0.02108656 0.00817781 0.01450178 0.00130392 0.02179075 0.04600554 0.01455277 0.00142957 
0.01324972 0.01886655 0.00355234 0.00151747 0.00608183 0.00223062 0.00798899 0.00449403 0.02138410 0.00812507 0.01458243 0.00131619 0.02168290 0.04708020 0.01476860 0.00142752 
0.01325069 0.01837245 0.00363602 0.00154743 0.00598986 0.00224372 0.00797968 0.00445664 0.02172334 0.00806431 0.01465680 0.00132988 0.02155340 0.04826907 0.01501320 0.00142638 
0.01326547 0.01790999 0.00372162 0.00157951 0.00589290 0.00225631 0.00796556 0.00442863 0.02210266 0.00799591 0.01472456 0.00134494 0.02140302 0.04957343 0.01528719 0.00142625 
0.01329418 0.01748199 0.00380881 0.00161361 0.00579114 0.00226839 0.00794660 0.00441034 0.02252021 0.00792033 0.01478544 0.00136131 0.02123258 0.05099381 0.01559098 0.00142722 
0.01333686 0.01709117 0.00389729 0.00164964 0.00568483 0.00228000 0.00792278 0.00440202 0.02297397 0.00783806 0.01483920 0.00137891 0.02104300 0.05253001 0.01592481 0.00142937 
0.01339342 0.01674008 0.00398673 0.00168750 0.00557423 0.00229116 0.00789407 0.00440391 0.02346178 0.00774969 0.01488563 0.00139767 0.02083529 0.05418104 0.01628868 0.00143279 
0.01346370 0.01643114 0.00407681 0.00172707 0.00545968 0.00230187 0.00786048 0.00441619 0.02398131 0.00765586 0.01492459 0.00141751 0.02061051 0.05594515 0.01668242 0.00143754 
0.01354743 0.01616660 0.00416720 0.00176825 0.00534154 0.00231217 0.00782202 0.00443898 0.02453011 0.00755728 0.01495595 0.00143833 0.02036980 0.05781978 0.01710561 0.00144371 
0.01364423 0.01594850 0.00425756 0.00181090 0.00522023 0.00232208 0.00777870 0.00447238 0.02510559 0.00745469 0.01497966 0.00146004 0.02011437 0.05980159 0.01755764 0.00145135 
0.01375365 0.01577873 0.00434757 0.00185492 0.00509620 0.00233160 0.00773054 0.00451642 0.02570508 0.00734890 0.01499568 0.00148252 0.01984546 0.06188648 0.01803769 0.00146052 
0.01387514 0.01565895 0.00443689 0.00190016 0.00496995 0.00234075 0.00767760 0.00457108 0.02632583 0.00724076 0.01500403 0.00150568 0.01956439 0.06406955 0.01854469 0.00147126 
0.01400805 0.01559061 0.00452521 0.00194652 0.00484200 0.00234956 0.00761991 0.00463631 0.02696502 0.00713116 0.01500478 0.00152939 0.01927249 0.06634517 0.01907740 0.00148361 
0.01415166 0.01557495 0.00461220 0.00199384 0.00471291 0.00235802 0.00755754 0.00471198 0.02761978 0.00702101 0.01499802 0.00155353 0.01897114 0.06870696 0.01963435 0.00149761 
0.01430518 0.01561297 0.00469754 0.00204200 0.00458329 0.00236615 0.00749055 0.00479793 0.02828722 0.00691127 0.01498392 0.00157800 0.01866175 0.07114786 0.02021388 0.00151328 
0.01446774 0.01570545 0.00478092 0.00209085 0.00445375 0.00237396 0.00741904 0.00489395 0.02896444 0.00680290 0.01496264 0.00160266 0.01834574 0.07366014 0.02081414 0.00153063 
0.01463840 0.01585291 0.00486205 0.00214027 0.00432495 0.00238144 0.00734308 0.00499979 0.02964854 0.00669687 0.01493442 0.00162739 0.01802454 0.07623543 0.02143309 0.00154968 
0.01481617 0.01605565 0.00494062 0.00219010 0.00419756 0.00238859 0.00726278 0.00511512 0.03033665 0.00659419 0.01489951 0.00165206 0.01769959 0.07886481 0.02206852 0.00157041 
0.01500000 0.01631369 0.00501637 0.00224021 0.00407227 0.00239542 0.00717827 0.00523960 0.03102595 0.00649582 0.01485823 0.00167654 0.01737232 0.08153881 0.02271807 0.00159283 
0.01518882 0.01662683 0.00508902 0.00229046 0.00394978 0.00240191 0.00708967 0.00537283 0.03171366 0.00640277 0.01481089 0.00170073 0.01704416 0.08424748 0.02337923 0.00161691 
0.01538150 0.01699461 0.00515831 0.00234069 0.00383080 0.00240806 0.00699713 0.00551436 0.03239710 0.00631599 0.01475787 0.00172447 0.01671651 0.08698048 0.02404935 0.00164262 
0.01557688 0.01741632 0.00522401 0.00239077 0.00371607 0.00241385 0.00690079 0.00566372 0.03307366 0.00623642 0.01469955 0.00174767 0.01639074 0.08972709 0.02472568 0.00166994 
0.01577381 0.01789099 0.00528588 0.00244056 0.00360631 0.00241926 0.00680083 0.00582040 0.03374084 0.00616500 0.01463637 0.00177020 0.01606819 0.09247633 0.02540537 0.00169882 
0.01597111 0.01841744 0.00534370 0.00248990 0.00350223 0.00242427 0.00669743 0.00598383 0.03439627 0.00610259 0.01456875 0.00179194 0.01575017 0.09521698 0.02608548 0.00172921 
0.01616760 0.01899422 0.00539730 0.00253867 0.00340455 0.00242886 0.00659078 0.00615342 0.03503769 0.00605005 0.01449717 0.00181278 0.01543793 0.09793768 0.02676302 0.00176106 
0.01636210 0.01961966 0.00544647 0.00258672 0.00331399 0.00243299 0.00648110 0.00632857 0.03566301 0.00600818 0.01442211 0.00183263 0.01513266 0.10062701 0.02743496 0.00179430 
0.01655346 0.02029187 0.00549106 0.00263391 0.00323124 0.00243665 0.00636860 0.00650863 0.03627025 0.00597770 0.01434406 0.00185138 0.01483552 0.10327354 0.02809825 0.00182886 
0.01674056 0.02100873 0.00553092 0.00268011 0.00315696 0.00243980 0.00625354 0.00669294 0.03685762 0.00595932 0.01426354 0.00186893 0.01454756 0.10586593 0.02874982 0.00186467 
0.01692229 0.02176794 0.00556593 0.00272518 0.00309181 0.00244240 0.00613615 0.00688081 0.03742350 0.00595364 0.01418106 0.00188521 0.01426980 0.10839297 0.02938665 0.00190164 
0.01709760 0.02256699 0.00559598 0.00276900 0.00303641 0.00244442 0.00601672 0.00707153 0.03796643 0.00596121 0.01409714 0.00190014 0.01400317 0.11084370 0.03000574 0.00193969 
0.01726548 0.02340318 0.00562096 0.00281143 0.00299135 0.00244581 0.00589552 0.00726439 0.03848512 0.00598252 0.01401232 0.00191364 0.01374850 0.11320747 0.03060416 0.00197873 
0.01742498 0.02427365 0.00564083 0.00285235 0.00295720 0.00244654 0.00577285 0.00745868 0.03897850 0.00601795 0.01392710 0.00192567 0.01350656 0.11547398 0.03117906 0.00201865 
0.01757521 0.02517539 0.00565551 0.00289164 0.00293446 0.00244656 0.00564902 0.00765365 0.03944565 0.00606783 0.01384202 0.00193615 0.01327804 0.11763339 0.03172768 0.00205936 
0.01771535 0.02610525 0.00566498 0.00292918 0.00292360 0.00244584 0.00552435 0.00784858 0.03988584 0.00613237 0.01375758 0.00194506 0.01306351 0.11967640 0.03224740 0.00210075 
0.01784466 0.02705997 0.00566922 0.00296487 0.00292507 0.00244434 0.00539920 0.00804273 0.04029854 0.00621173 0.01367428 0.00195235 0.01286346 0.12159425 0.03273572 0.00214271 
0.01796247 0.02803616 0.00566823 0.00299859 0.00293923 0.00244200 0.00527391 0.00823539 0.04068339 0.00630594 0.01359262 0.00195801 0.01267831 0.12337886 0.03319032 0.00218514 
0.01806821 0.02903036 0.00566205 0.00303024 0.00296642 0.00243879 0.00514884 0.00842584 0.04104021 0.00641497 0.01351305 0.00196201 0.01250834 0.12502282 0.03360903 0.00222793 
0.01816139 0.03003904 0.00565069 0.00305973 0.00300690 0.00243468 0.00502438 0.00861337 0.04136902 0.00653868 0.01343604 0.00196436 0.01235378 0.12651949 0.03398988 0.00227095 
0.01824163 0.03105863 0.00563424 0.00308696 0.00306089 0.00242961 0.00490090 0.00879730 0.04166998 0.00667685 0.01336201 0.00196507 0.01221472 0.12786304 0.03433110 0.00231410 
0.01830862 0.03208551 0.00561275 0.00311185 0.00312854 0.00242357 0.00477883 0.00897696 0.04194342 0.00682915 0.01329137 0.00196414 0.01209120 0.12904846 0.03463114 0.00235725 
0.01836218 0.03311607 0.00558633 0.00313432 0.00320994 0.00241651 0.00465855 0.00915172 0.04218986 0.00699516 0.01322451 0.00196160 0.01198312 0.13007163 0.03488867 0.00240030 
0.01840220 0.03414671 0.00555507 0.00315429 0.00330513 0.00240840 0.00454048 0.00932094 0.04240992 0.00717438 0.01316177 0.00195749 0.01189033 0.13092935 0.03510261 0.00244313 
0.01842870 0.03517383 0.00551912 0.00317170 0.00341406 0.00239923 0.00442505 0.00948405 0.04260441 0.00736622 0.01310349 0.00195186 0.01181255 0.13161935 0.03527211 0.00248562 
0.01844178 0.03619392 0.00547861 0.00318650 0.00353665 0.00238896 0.00431269 0.00964049 0.04277423 0.00757000 0.01304995 0.00194474 0.01174946 0.13214030 0.03539658 0.00252767 
0.01844166 0.03720351 0.00543368 0.00319862 0.00367271 0.00237759 0.00420383 0.00978973 0.04292042 0.00778494 0.01300143 0.00193622 0.01170060 0.13249183 0.03547570 0.00256915 
0.01842863 0.03819923 0.00538452 0.00320802 0.00382203 0.00236509 0.00409889 0.00993129 0.04304412 0.00801022 0.01295815 0.00192635 0.01166547 0.13267456 0.03550937 0.00260997 
0.01840311 0.03917781 0.00533131 0.00321467 0.00398430 0.00235146 0.00399832 0.01006473 0.04314659 0.00824492 0.01292032 0.00191521 0.01164349 0.13269005 0.03549780 0.00265000 
0.01836559 0.04013612 0.00527424 0.00321854 0.00415918 0.00233669 0.00390254 0.01018963 0.04322914 0.00848803 0.01288810 0.00190290 0.01163399 0.13254081 0.03544141 0.00268916 
0.01831667 0.04107114 0.00521352 0.00321959 0.00434622 0.00232081 0.00381198 0.01030563 0.04329318 0.00873852 0.01286163 0.00188950 0.01163626 0.13223031 0.03534092 0.00272734 
0.01825703 0.04198003 0.00514936 0.00321782 0.00454495 0.00230380 0.00372705 0.01041242 0.04334017 0.00899527 0.01284101 0.00187510 0.01164950 0.13176289 0.03519728 0.00276444 
0.01818743 0.04286011 0.00508200 0.00321323 0.00475483 0.00228569 0.00364819 0.01050972 0.04337162 0.00925711 0.01282632 0.00185983 0.01167287 0.13114379 0.03501167 0.00280037 
0.01810870 0.04370891 0.00501168 0.00320581 0.00497524 0.00226650 0.00357577 0.01059729 0.04338907 0.00952284 0.01281759 0.00184378 0.01170549 0.13037910 0.03478555 0.00283504 
0.01802175 0.04452412 0.00493864 0.00319557 0.00520554 0.00224626 0.00351021 0.01067496 0.04339409 0.00979121 0.01281484 0.00182706 0.01174642 0.12947570 0.03452055 0.00286837 
0.01792756 0.04530367 0.00486313 0.00318253 0.00544501 0.00222501 0.00345186 0.01074260 0.04338827 0.01006093 0.01281804 0.00180980 0.01179470 0.12844121 0.03421857 0.00290026 
0.01782716 0.04604569 0.00478542 0.00316673 0.00569290 0.00220278 0.00340109 0.01080010 0.04337318 0.01033070 0.01282716 0.00179212 0.01184933 0.12728396 0.03388168 0.00293066 
0.01772163 0.04674856 0.00470578 0.00314818 0.00594839 0.00217964 0.00335823 0.01084743 0.04335038 0.01059920 0.01284212 0.00177413 0.01190929 0.12601289 0.03351214 0.00295949 
0.01761209 0.04741088 0.00462447 0.00312694 0.00621063 0.00215563 0.00332361 0.01088460 0.04332141 0.01086509 0.01286284 0.00175596 0.01197355 0.12463753 0.03311239 0.00298668 
0.01749971 0.04803148 0.00454178 0.00310307 0.00647875 0.00213081 0.00329750 0.01091165 0.04328777 0.01112705 0.01288919 0.00173774 0.01204106 0.12316790 0.03268501 0.00301217 
0.01738568 0.04860946 0.00445799 0.00307661 0.00675183 0.00210526 0.00328018 0.01092868 0.04325093 0.01138375 0.01292104 0.00171959 0.01211079 0.12161446 0.03223272 0.00303592 
0.01727121 0.04914416 0.00437337 0.00304764 0.00702891 0.00207905 0.00327189 0.01093581 0.04321229 0.01163388 0.01295825 0.00170163 0.01218169 0.11998801 0.03175838 0.00305786 
0.01715750 0.04963514 0.00428822 0.00301623 0.00730903 0.00205226 0.00327282 0.01093324 0.04317319 0.01187616 0.01300064 0.00168399 0.01225274 0.11829962 0.03126490 0.00307796 
0.01704579 0.05008224 0.00420281 0.00298246 0.00759119 0.00202498 0.00328315 0.01092118 0.04313489 0.01210934 0.01304804 0.00166679 0.01232293 0.11656057 0.03075530 0.00309618 
0.01693729 0.05048552 0.00411743 0.00294644 0.00787438 0.00199729 0.00330302 0.01089989 0.04309859 0.01233219 0.01310026 0.00165014 0.01239128 0.11478225 0.03023265 0.00311249 
0.01683319 0.05084528 0.00403236 0.00290826 0.00815759 0.00196930 0.00333252 0.01086966 0.04306537 0.01254356 0.01315710 0.00163416 0.01245683 0.11297606 0.02970003 0.00312686 
0.01673468 0.05116206 0.00394790 0.00286802 0.00843981 0.00194111 0.00337172 0.01083082 0.04303625 0.01274234 0.01321836 0.00161896 0.01251867 0.11115339 0.02916055 0.00313928 
0.01664291 0.05143660 0.00386430 0.00282584 0.00871999 0.00191281 0.00342064 0.01078372 0.04301214 0.01292746 0.01328384 0.00160465 0.01257594 0.10932547 0.02861731 0.00314972 
0.01655897 0.05166989 0.00378186 0.00278184 0.00899715 0.00188452 0.00347927 0.01072877 0.04299384 0.01309795 0.01335332 0.00159132 0.01262780 0.10750332 0.02807337 0.00315818 
0.01648394 0.05186308 0.00370084 0.00273615 0.00927027 0.00185634 0.00354753 0.01066636 0.04298205 0.01325291 0.01342661 0.00157907 0.01267349 0.10569768 0.02753172 0.00316466 
0.01641882 0.05201754 0.00362151 0.00268889 0.00953836 0.00182840 0.00362533 0.01059694 0.04297738 0.01339149 0.01350350 0.00156798 0.01271229 0.10391893 0.02699531 0.00316916 
0.01636455 0.05213479 0.00354412 0.00264021 0.00980046 0.00180079 0.00371252 0.01052098 0.04298030 0.01351297 0.01358380 0.00155815 0.01274354 0.10217700 0.02646697 0.00317169 
0.01632203 0.05221652 0.00346893 0.00259026 0.01005563 0.00177364 0.00380891 0.01043894 0.04299118 0.01361668 0.01366731 0.00154963 0.01276666 0.10048133 0.02594942 0.00317227 
0.01629206 0.05226458 0.00339618 0.00253917 0.01030296 0.00174706 0.00391425 0.01035132 0.04301030 0.01370207 0.01375385 0.00154251 0.01278113 0.09884076 0.02544525 0.00317091 
0.01627536 0.05228091 0.00332611 0.00248710 0.01054158 0.00172116 0.00402827 0.01025862 0.04303780 0.01376869 0.01384325 0.00153683 0.01278649 0.09726354 0.02495690 0.00316764 
0.01627259 0.05226760 0.00325894 0.00243422 0.01077066 0.00169606 0.00415064 0.01016136 0.04307373 0.01381617 0.01393536 0.00153265 0.01278236 0.09575721 0.02448664 0.00316249 
0.01628429 0.05222680 0.00319489 0.00238067 0.01098939 0.00167187 0.00428100 0.01006006 0.04311804 0.01384426 0.01403002 0.00153001 0.01276844 0.09432857 0.02403657 0.00315549 
0.01631095 0.05216074 0.00313417 0.00232662 0.01119705 0.00164869 0.00441891 0.00995523 0.04317056 0.01385281 0.01412709 0.00152894 0.01274449 0.09298366 0.02360858 0.00314670 
0.01635293 0.05207172 0.00307696 0.00227223 0.01139293 0.00162663 0.00456395 0.00984741 0.04323104 0.01384179 0.01422645 0.00152947 0.01271035 0.09172769 0.02320439 0.00313614 
0.01641049 0.05196205 0.00302346 0.00221768 0.01157640 0.00160580 0.00471559 0.00973712 0.04329912 0.01381126 0.01432800 0.00153161 0.01266594 0.09056502 0.02282545 0.00312389 
0.01648383 0.05183407 0.00297383 0.00216312 0.01174688 0.00158628 0.00487332 0.00962486 0.04337437 0.01376139 0.01443163 0.00153537 0.01261124 0.08949915 0.02247304 0.00310998 
0.01657300 0.05169011 0.00292821 0.00210872 0.01190384 0.00156816 0.00503656 0.00951115 0.04345626 0.01369247 0.01453726 0.00154075 0.01254633 0.08853269 0.02214818 0.00309448 
0.01667799 0.05153248 0.00288677 0.00205465 0.01204682 0.00155154 0.00520469 0.00939648 0.04354419 0.01360489 0.01464484 0.00154774 0.01247134 0.08766734 0.02185168 0.00307746 
0.01679866 0.05136344 0.00284961 0.00200108 0.01217542 0.00153650 0.00537709 0.00928133 0.04363751 0.01349911 0.01475429 0.00155631 0.01238646 0.08690391 0.02158408 0.00305897 
0.01693477 0.05118520 0.00281686 0.00194817 0.01228931 0.00152309 0.00555308 0.00916618 0.04373547 0.01337575 0.01486557 0.00156645 0.01229197 0.08624229 0.02134571 0.00303910 
0.01708601 0.05099991 0.00278860 0.00189607 0.01238822 0.00151140 0.00573195 0.00905148 0.04383731 0.01323547 0.01497866 0.00157812 0.01218821 0.08568152 0.02113665 0.00301792 
0.01725194 0.05080959 0.00276492 0.00184495 0.01247195 0.00150146 0.00591300 0.00893765 0.04394218 0.01307905 0.01509352 0.00159127 0.01207556 0.08521973 0.02095676 0.00299551 
0.01743203 0.05061620 0.00274587 0.00179495 0.01254035 0.00149334 0.00609546 0.00882512 0.04404922 0.01290735 0.01521015 0.00160585 0.01195448 0.08485423 0.02080566 0.00297195 
0.01762567 0.05042155 0.00273151 0.00174624 0.01259336 0.00148707 0.00627859 0.00871425 0.04415754 0.01272131 0.01532853 0.00162181 0.01182549 0.08458150 0.02068275 0.00294733 
0.01783216 0.05022733 0.00272186 0.00169894 0.01263097 0.00148267 0.00646160 0.00860543 0.04426622 0.01252196 0.01544866 0.00163908 0.01168912 0.08439726 0.02058720 0.00292173 
0.01805070 0.05003509 0.00271693 0.00165321 0.01265323 0.00148018 0.00664370 0.00849898 0.04437431 0.01231037 0.01557055 0.00165758 0.01154599 0.08429647 0.02051800 0.00289525 
0.01828043 0.04984624 0.00271671 0.00160917 0.01266027 0.00147960 0.00682410 0.00839522 0.04448090 0.01208771 0.01569419 0.00167725 0.01139672 0.08427343 0.02047393 0.00286797 
0.01852040 0.04966201 0.00272118 0.00156694 0.01265226 0.00148093 0.00700200 0.00829443 0.04458504 0.01185516 0.01581960 0.00169800 0.01124201 0.08432181 0.02045360 0.00284000 
0.01876959 0.04948350 0.00273029 0.00152665 0.01262945 0.00148417 0.00717660 0.00819686 0.04468582 0.01161398 0.01594677 0.00171974 0.01108254 0.08443469 0.02045544 0.00281143 
0.01902694 0.04931160 0.00274399 0.00148840 0.01259213 0.00148929 0.00734712 0.00810275 0.04478234 0.01136548 0.01607570 0.00174238 0.01091905 0.08460465 0.02047772 0.00278236 
0.01929130 0.04914707 0.00276220 0.00145229 0.01254065 0.00149627 0.00751276 0.00801229 0.04487373 0.01111096 0.01620639 0.00176582 0.01075230 0.08482385 0.02051860 0.00275288 
0.01956149 0.04899048 0.00278481 0.00141842 0.01247541 0.00150507 0.00767277 0.00792564 0.04495916 0.01085178 0.01633882 0.00178997 0.01058304 0.08508405 0.02057611 0.00272311 
0.01983629 0.04884224 0.00281172 0.00138686 0.01239685 0.00151564 0.00782638 0.00784295 0.04503784 0.01058929 0.01647297 0.00181473 0.01041205 0.08537673 0.02064816 0.00269313 
0.02011442 0.04870258 0.00284279 0.00135770 0.01230547 0.00152793 0.00797287 0.00776433 0.04510903 0.01032488 0.01660880 0.00183999 0.01024010 0.08569316 0.02073260 0.00266304 
0.02039459 0.04857157 0.00287789 0.00133098 0.01220180 0.00154187 0.00811154 0.00768985 0.04517205 0.01005991 0.01674627 0.00186564 0.01006797 0.08602445 0.02082720 0.00263296 
0.02067548 0.04844915 0.00291683 0.00130677 0.01208640 0.00155739 0.00824171 0.00761957 0.04522629 0.00979573 0.01688532 0.00189158 0.00989644 0.08636165 0.02092972 0.00260298 
0.02095576 0.04833507 0.00295945 0.00128510 0.01195988 0.00157440 0.00836274 0.00755351 0.04527121 0.00953368 0.01702587 0.00191771 0.00972627 0.08669583 0.02103784 0.00257320 
0.02123409 0.04822897 0.00300554 0.00126600 0.01182286 0.00159282 0.00847404 0.00749168 0.04530634 0.00927509 0.01716782 0.00194391 0.00955819 0.08701815 0.02114929 0.00254372 
0.02150913 0.04813035 0.00305491 0.00124950 0.01167600 0.00161255 0.00857503 0.00743405 0.04533129 0.00902123 0.01731108 0.00197009 0.00939293 0.08731992 0.02126178 0.00251463 
0.02177954 0.04803859 0.00310732 0.00123560 0.01151996 0.00163349 0.00866520 0.00738057 0.04534576 0.00877334 0.01745550 0.00199613 0.00923120 0.08759273 0.02137306 0.00248603 
0.02204400 0.04795295 0.00316254 0.00122429 0.01135545 0.00165553 0.00874409 0.00733115 0.04534954 0.00853260 0.01760095 0.00202194 0.00907367 0.08782846 0.02148096 0.00245801 
0.02230123 0.04787263 0.00322033 0.00121558 0.01118315 0.00167854 0.00881128 0.00728571 0.04534249 0.00830015 0.01774724 0.00204742 0.00892097 0.08801940 0.02158334 0.00243066 
0.02254993 0.04779671 0.00328042 0.00120942 0.01100379 0.00170243 0.00886640 0.00724413 0.04532461 0.00807707 0.01789420 0.00207246 0.00877372 0.08815826 0.02167819 0.00240408 
0.02278889 0.04772422 0.00334254 0.00120579 0.01081806 0.00172705 0.00890915 0.00720628 0.04529595 0.00786436 0.01804161 0.00209697 0.00863248 0.08823832 0.02176357 0.00237833 
0.02301691 0.04765416 0.00340643 0.00120464 0.01062668 0.00175228 0.00893928 0.00717199 0.04525668 0.00766294 0.01818925 0.00212087 0.00849778 0.08825340 0.02183769 0.00235352 
0.02323284 0.04758547 0.00347179 0.00120592 0.01043036 0.00177800 0.00895660 0.00714110 0.04520707 0.00747367 0.01833687 0.00214406 0.00837010 0.08819797 0.02189888 0.00232970 
0.02343559 0.04751706 0.00353834 0.00120956 0.01022980 0.00180408 0.00896100 0.00711344 0.04514748 0.00729732 0.01848421 0.00216647 0.00824988 0.08806717 0.02194562 0.00230696 
0.02362414 0.04744787 0.00360578 0.00121549 0.01002570 0.00183038 0.00895241 0.00708879 0.04507837 0.00713457 0.01863098 0.00218801 0.00813751 0.08785690 0.02197657 0.00228536 
0.02379751 0.04737683 0.00367380 0.00122362 0.00981872 0.00185678 0.00893083 0.00706697 0.04500030 0.00698602 0.01877689 0.00220862 0.00803333 0.08756378 0.02199054 0.00226497 
0.02395481 0.04730289 0.00374212 0.00123387 0.00960953 0.00188314 0.00889634 0.00704775 0.04491392 0.00685216 0.01892163 0.00222822 0.00793764 0.08718525 0.02198653 0.00224584 
0.02409521 0.04722505 0.00381042 0.00124614 0.00939876 0.00190933 0.00884907 0.00703091 0.04481996 0.00673340 0.01906487 0.00224675 0.00785066 0.08671956 0.02196374 0.00222803 
0.02421797 0.04714236 0.00387841 0.00126032 0.00918703 0.00193523 0.00878924 0.00701622 0.04471927 0.00663005 0.01920628 0.00226417 0.00777261 0.08616582 0.02192155 0.00221158 
0.02432243 0.04705394 0.00394578 0.00127629 0.00897495 0.00196071 0.00871710 0.00700346 0.04461277 0.00654234 0.01934552 0.00228040 0.00770360 0.08552395 0.02185954 0.00219654 
0.02440802 0.04695899 0.00401224 0.00129395 0.00876307 0.00198567 0.00863300 0.00699240 0.04450144 0.00647037 0.01948223 0.00229542 0.00764375 0.08479475 0.02177751 0.00218293 
0.02447424 0.04685678 0.00407750 0.00131317 0.00855194 0.00200997 0.00853734 0.00698280 0.04438637 0.00641419 0.01961607 0.00230918 0.00759307 0.08397987 0.02167545 0.00217080 
0.02452070 0.04674670 0.00414128 0.00133383 0.00834207 0.00203351 0.00843059 0.00697443 0.04426871 0.00637371 0.01974669 0.00232165 0.00755158 0.08308179 0.02155355 0.00216016 
0.02454709 0.04662824 0.00420330 0.00135579 0.00813395 0.00205620 0.00831326 0.00696706 0.04414966 0.00634880 0.01987373 0.00233279 0.00751920 0.08210381 0.02141219 0.00215103 
0.02455321 0.04650101 0.00426330 0.00137892 0.00792803 0.00207792 0.00818594 0.00696048 0.04403049 0.00633919 0.01999686 0.00234260 0.00749584 0.08105004 0.02125199 0.00214342 
0.02453895 0.04636473 0.00432101 0.00140309 0.00772474 0.00209860 0.00804928 0.00695446 0.04391254 0.00634456 0.02011573 0.00235104 0.00748135 0.07992534 0.02107370 0.00213733 
0.02450428 0.04621925 0.00437620 0.00142817 0.00752446 0.00211814 0.00790398 0.00694881 0.04379718 0.00636450 0.02023003 0.00235811 0.00747554 0.07873532 0.02087831 0.00213276 
0.02444928 0.04606456 0.00442865 0.00145401 0.00732757 0.00213648 0.00775078 0.00694331 0.04368580 0.00639852 0.02033944 0.00236381 0.00747819 0.07748627 0.02066694 0.00212970 
0.02437413 0.04590074 0.00447812 0.00148049 0.00713440 0.00215355 0.00759049 0.00693779 0.04357987 0.00644607 0.02044366 0.00236814 0.00748903 0.07618511 0.02044089 0.00212813 
0.02427910 0.04572805 0.00452444 0.00150747 0.00694527 0.00216929 0.00742395 0.00693206 0.04348084 0.00650650 0.02054244 0.00237109 0.00750775 0.07483937 0.02020164 0.00212803 
0.02416455 0.04554683 0.00456742 0.00153482 0.00676044 0.00218365 0.00725204 0.00692596 0.04339020 0.00657914 0.02063551 0.00237268 0.00753402 0.07345707 0.01995075 0.00212937 
0.02403094 0.04535758 0.00460690 0.00156241 0.00658018 0.00219660 0.00707569 0.00691935 0.04330944 0.00666323 0.02072265 0.00237293 0.00756748 0.07204673 0.01968997 0.00213212 
0.02387881 0.04516088 0.00464274 0.00159012 0.00640472 0.00220810 0.00689585 0.00691207 0.04324005 0.00675800 0.02080367 0.00237185 0.00760774 0.07061722 0.01942112 0.00213622 
0.02370881 0.04495746 0.00467481 0.00161784 0.00623427 0.00221814 0.00671350 0.00690402 0.04318350 0.00686259 0.02087840 0.00236947 0.00765438 0.06917777 0.01914612 0.00214164 
0.02352165 0.04474812 0.00470303 0.00164544 0.00606902 0.00222670 0.00652965 0.00689509 0.04314126 0.00697614 0.02094670 0.00236581 0.00770698 0.06773783 0.01886699 0.00214832 
0.02331813 0.04453378 0.00472732 0.00167282 0.00590915 0.00223378 0.00634534 0.00688518 0.04311478 0.00709776 0.02100848 0.00236090 0.00776507 0.06630705 0.01858580 0.00215621 
0.02309913 0.04431544 0.00474761 0.00169987 0.00575479 0.00223939 0.00616159 0.00687423 0.04310545 0.00722650 0.02106367 0.00235478 0.00782820 0.06489515 0.01830465 0.00216522 
0.02286561 0.04409415 0.00476389 0.00172651 0.00560610 0.00224354 0.00597946 0.00686219 0.04311464 0.00736144 0.02111225 0.00234748 0.00789588 0.06351185 0.01802569 0.00217530 
0.02261858 0.04387106 0.00477615 0.00175265 0.00546320 0.00224626 0.00580001 0.00684902 0.04314366 0.00750163 0.02115424 0.00233905 0.00796763 0.06216684 0.01775106 0.00218638 
0.02235915 0.04364733 0.00478440 0.00177820 0.00532621 0.00224759 0.00562429 0.00683470 0.04319376 0.00764611 0.02118967 0.00232952 0.00804296 0.06086964 0.01748290 0.00219837 
0.02208845 0.04342420 0.00478868 0.00180310 0.00519524 0.00224756 0.00545333 0.00681923 0.04326612 0.00779395 0.02121866 0.00231895 0.00812138 0.05962954 0.01722333 0.00221119 
0.02180769 0.04320289 0.00478907 0.00182728 0.00507039 0.00224623 0.00528818 0.00680264 0.04336187 0.00794421 0.02124132 0.00230737 0.00820239 0.05845554 0.01697439 0.00222475 
0.02151812 0.04298464 0.00478564 0.00185069 0.00495176 0.00224365 0.00512985 0.00678497 0.04348202 0.00809598 0.02125782 0.00229484 0.00828550 0.05735625 0.01673809 0.00223897 
0.02122103 0.04277070 0.00477852 0.00187329 0.00483946 0.00223989 0.00497933 0.00676626 0.04362752 0.00824836 0.02126839 0.00228140 0.00837024 0.05633984 0.01651634 0.00225375 
0.02091777 0.04256227 0.00476783 0.00189505 0.00473357 0.00223500 0.00483760 0.00674659 0.04379921 0.00840050 0.02127326 0.00226711 0.00845611 0.05541393 0.01631097 0.00226901 
0.02060968 0.04236053 0.00475374 0.00191593 0.00463420 0.00222908 0.00470559 0.00672607 0.04399785 0.00855156 0.02127272 0.00225202 0.00854267 0.05458559 0.01612368 0.00228464 
0.02029816 0.04216662 0.00473642 0.00193592 0.00454145 0.00222219 0.00458419 0.00670479 0.04422405 0.00870076 0.02126709 0.00223617 0.00862946 0.05386121 0.01595605 0.00230054 
0.01998462 0.04198158 0.00471608 0.00195502 0.00445541 0.00221443 0.00447425 0.00668289 0.04447834 0.00884737 0.02125672 0.00221963 0.00871603 0.05324651 0.01580952 0.00231662 
0.01967047 0.04180642 0.00469292 0.00197322 0.00437621 0.00220587 0.00437660 0.00666051 0.04476113 0.00899068 0.02124198 0.00220244 0.00880198 0.05274641 0.01568537 0.00233278 
0.01935713 0.04164202 0.00466719 0.00199054 0.00430395 0.00219660 0.00429198 0.00663781 0.04507269 0.00913005 0.02122330 0.00218466 0.00888690 0.05236507 0.01558472 0.00234892 
0.01904601 0.04148917 0.00463915 0.00200700 0.00423875 0.00218673 0.00422109 0.00661497 0.04541317 0.00926491 0.02120110 0.00216635 0.00897042 0.05210579 0.01550850 0.00236494 
0.01873854 0.04134856 0.00460906 0.00202263 0.00418073 0.00217633 0.00416458 0.00659217 0.04578260 0.00939473 0.02117583 0.00214755 0.00905217 0.05197101 0.01545749 0.00238074 
0.01843609 0.04122074 0.00457720 0.00203745 0.00413003 0.00216551 0.00412304 0.00656964 0.04618086 0.00951905 0.02114798 0.00212833 0.00913182 0.05196227 0.01543224 0.00239623 
0.01814004 0.04110615 0.00454387 0.00205152 0.00408678 0.00215436 0.00409696 0.00654757 0.04660770 0.00963746 0.02111802 0.00210872 0.00920907 0.05208019 0.01543312 0.00241131 
0.01785173 0.04100507 0.00450938 0.00206489 0.00405112 0.00214297 0.00408681 0.00652621 0.04706273 0.00974962 0.02108645 0.00208879 0.00928363 0.05232449 0.01546032 0.00242588 
0.01757246 0.04091766 0.00447405 0.00207761 0.00402318 0.00213142 0.00409295 0.00650580 0.04754544 0.00985528 0.02105379 0.00206859 0.00935524 0.05269394 0.01551378 0.00243987 
0.01730349 0.04084391 0.00443819 0.00208974 0.00400312 0.00211981 0.00411569 0.00648659 0.04805514 0.00995421 0.02102053 0.00204817 0.00942368 0.05318640 0.01559328 0.00245317 
0.01704602 0.04078369 0.00440213 0.00210135 0.00399107 0.00210822 0.00415524 0.00646885 0.04859105 0.01004627 0.02098718 0.00202758 0.00948875 0.05379882 0.01569838 0.00246572 
0.01680122 0.04073669 0.00436621 0.00211252 0.00398718 0.00209674 0.00421177 0.00645284 0.04915222 0.01013139 0.02095424 0.00200686 0.00955028 0.05452727 0.01582844 0.00247741 
0.01657017 0.04070247 0.00433075 0.00212332 0.00399158 0.00208543 0.00428532 0.00643884 0.04973758 0.01020956 0.02092219 0.00198608 0.00960811 0.05536695 0.01598262 0.00248819 
0.01635389 0.04068043 0.00429609 0.00213382 0.00400442 0.00207438 0.00437590 0.00642714 0.05034591 0.01028080 0.02089153 0.00196527 0.00966216 0.05631224 0.01615989 0.00249798 
0.01615334 0.04066982 0.00426255 0.00214412 0.00402580 0.00206364 0.00448340 0.00641804 0.05097587 0.01034524 0.02086269 0.00194448 0.00971232 0.05735672 0.01635906 0.00250672 
0.01596940 0.04066977 0.00423046 0.00215428 0.00405585 0.00205329 0.00460767 0.00641181 0.05162601 0.01040303 0.02083612 0.00192377 0.00975855 0.05849326 0.01657873 0.00251434 
0.01580284 0.04067927 0.00420013 0.00216441 0.00409467 0.00204337 0.00474843 0.00640877 0.05229474 0.01045437 0.02081224 0.00190317 0.00980082 0.05971402 0.01681737 0.00252078 
0.01565438 0.04069717 0.00417187 0.00217457 0.00414233 0.00203394 0.00490537 0.00640920 0.05298035 0.01049953 0.02079141 0.00188274 0.00983915 0.06101057 0.01707328 0.00252601 
0.01552463 0.04072221 0.00414597 0.00218486 0.00419891 0.00202504 0.00507808 0.00641341 0.05368103 0.01053882 0.02077399 0.00186251 0.00987357 0.06237390 0.01734462 0.00252997 
0.01541410 0.04075305 0.00412272 0.00219536 0.00426445 0.00201669 0.00526605 0.00642169 0.05439487 0.01057258 0.02076030 0.00184253 0.00990414 0.06379453 0.01762945 0.00253263 
0.01532322 0.04078822 0.00410239 0.00220614 0.00433896 0.00200894 0.00546874 0.00643433 0.05511985 0.01060121 0.02075062 0.00182284 0.00993096 0.06526257 0.01792568 0.00253396 
0.01525230 0.04082620 0.00408522 0.00221729 0.00442244 0.00200180 0.00568551 0.00645163 0.05585387 0.01062511 0.02074517 0.00180349 0.00995415 0.06676781 0.01823118 0.00253394 
0.01520158 0.04086537 0.00407146 0.00222887 0.00451485 0.00199528 0.00591565 0.00647385 0.05659475 0.01064474 0.02074415 0.00178450 0.00997386 0.06829978 0.01854369 0.00253255 
0.01517115 0.04090408 0.00406131 0.00224097 0.00461610 0.00198939 0.00615838 0.00650128 0.05734024 0.01066056 0.02074772 0.00176593 0.00999027 0.06984786 0.01886094 0.00252978 
0.01516105 0.04094065 0.00405498 0.00225363 0.00472609 0.00198414 0.00641288 0.00653418 0.05808803 0.01067306 0.02075598 0.00174781 0.01000358 0.07140136 0.01918060 0.00252564 
0.01517116 0.04097336 0.00405263 0.00226694 0.00484468 0.00197951 0.00667823 0.00657280 0.05883573 0.01068275 0.02076898 0.00173017 0.01001401 0.07294960 0.01950032 0.00252014 
0.01520130 0.04100049 0.00405441 0.00228093 0.00497167 0.00197549 0.00695349 0.00661739 0.05958095 0.01069013 0.02078675 0.00171306 0.01002183 0.07448201 0.01981775 0.00251328 
0.01525117 0.04102035 0.00406046 0.00229566 0.00510683 0.00197205 0.00723764 0.00666816 0.06032123 0.01069571 0.02080924 0.00169650 0.01002731 0.07598821 0.02013057 0.00250509 
0.01532036 0.04103124 0.00407087 0.00231117 0.00524989 0.00196918 0.00752964 0.00672534 0.06105412 0.01070000 0.02083638 0.00168053 0.01003074 0.07745809 0.02043648 0.00249560 
0.01540837 0.04103155 0.00408571 0.00232750 0.00540053 0.00196684 0.00782836 0.00678911 0.06177713 0.01070351 0.02086804 0.00166518 0.01003244 0.07888193 0.02073325 0.00248486 
0.01551460 0.04101970 0.00410505 0.00234467 0.00555837 0.00196499 0.00813269 0.00685964 0.06248779 0.01070672 0.02090405 0.00165049 0.01003275 0.08025045 0.02101873 0.00247291 
0.01563836 0.04099419 0.00412889 0.00236270 0.00572302 0.00196360 0.00844143 0.00693709 0.06318362 0.01071012 0.02094418 0.00163647 0.01003203 0.08155488 0.02129084 0.00245980 
0.01577887 0.04095364 0.00415725 0.00238162 0.00589399 0.00196260 0.00875339 0.00702158 0.06386219 0.01071416 0.02098819 0.00162316 0.01003065 0.08278709 0.02154765 0.00244560 
0.01593524 0.04089674 0.00419010 0.00240142 0.00607080 0.00196195 0.00906734 0.00711323 0.06452106 0.01071926 0.02103578 0.00161058 0.01002900 0.08393959 0.02178733 0.00243038 
0.01610652 0.04082233 0.00422738 0.00242210 0.00625287 0.00196160 0.00938203 0.00721211 0.06515788 0.01072583 0.02108661 0.00159876 0.01002749 0.08500567 0.02200819 0.00241422 
0.01629168 0.04072938 0.00426901 0.00244365 0.00643961 0.00196150 0.00969621 0.00731827 0.06577031 0.01073423 0.02114031 0.00158771 0.01002652 0.08597941 0.02220872 0.00239721 
0.01648962 0.04061699 0.00431490 0.00246607 0.00663038 0.00196157 0.01000860 0.00743174 0.06635610 0.01074480 0.02119649 0.00157745 0.01002651 0.08685573 0.02238758 0.00237944 
0.01669918 0.04048445 0.00436491 0.00248931 0.00682449 0.00196177 0.01031795 0.00755250 0.06691307 0.01075783 0.02125471 0.00156801 0.01002791 0.08763047 0.02254359 0.00236101 
0.01691911 0.04033120 0.00441891 0.00251335 0.00702121 0.00196203 0.01062299 0.00768052 0.06743911 0.01077358 0.02131452 0.00155939 0.01003115 0.08830044 0.02267580 0.00234203 
0.01714814 0.04015685 0.00447671 0.00253816 0.00721978 0.00196229 0.01092248 0.00781573 0.06793220 0.01079225 0.02137545 0.00155161 0.01003666 0.08886340 0.02278344 0.00232262 
0.01738494 0.03996122 0.00453813 0.00256367 0.00741940 0.00196250 0.01121518 0.00795801 0.06839045 0.01081401 0.02143700 0.00154467 0.01004489 0.08931812 0.02286597 0.00230288 
0.01762816 0.03974430 0.00460296 0.00258986 0.00761924 0.00196258 0.01149987 0.00810724 0.06881204 0.01083898 0.02149868 0.00153859 0.01005628 0.08966439 0.02292304 0.00228296 
0.01787639 0.03950628 0.00467097 0.00261664 0.00781844 0.00196250 0.01177537 0.00826322 0.06919528 0.01086722 0.02155995 0.00153336 0.01007127 0.08990304 0.02295457 0.00226298 
0.01812823 0.03924756 0.00474192 0.00264397 0.00801614 0.00196218 0.01204053 0.00842575 0.06953862 0.01089876 0.02162031 0.00152899 0.01009029 0.09003592 0.02296065 0.00224308 
0.01838223 0.03896872 0.00481555 0.00267177 0.00821143 0.00196158 0.01229424 0.00859458 0.06984062 0.01093356 0.02167923 0.00152547 0.01011376 0.09006591 0.02294165 0.00222340 
0.01863697 0.03867056 0.00489159 0.00269997 0.00840342 0.00196066 0.01253544 0.00876941 0.07009997 0.01097156 0.02173619 0.00152280 0.01014209 0.08999688 0.02289813 0.00220408 
0.01889101 0.03835406 0.00496975 0.00272850 0.00859118 0.00195936 0.01276309 0.00894993 0.07031553 0.01101263 0.02179068 0.00152097 0.01017568 0.08983368 0.02283087 0.00218527 
0.01914292 0.03802039 0.00504975 0.00275726 0.00877382 0.00195766 0.01297623 0.00913576 0.07048628 0.01105659 0.02184221 0.00151996 0.01021491 0.08958212 0.02274090 0.00216712 
0.01939131 0.03767093 0.00513128 0.00278619 0.00895041 0.00195551 0.01317397 0.00932650 0.07061136 0.01110323 0.02189027 0.00151977 0.01026014 0.08924890 0.02262943 0.00214979 
0.01963478 0.03730724 0.00521405 0.00281518 0.00912007 0.00195289 0.01335544 0.00952171 0.07069006 0.01115229 0.02193441 0.00152037 0.01031171 0.08884156 0.02249789 0.00213342 
0.01987199 0.03693102 0.00529775 0.00284416 0.00928191 0.00194977 0.01351988 0.00972093 0.07072182 0.01120347 0.02197418 0.00152174 0.01036994 0.08836845 0.02234789 0.00211818 
0.02010164 0.03654418 0.00538207 0.00287304 0.00943508 0.00194614 0.01366658 0.00992362 0.07070625 0.01125643 0.02200916 0.00152386 0.01043511 0.08783866 0.02218124 0.00210421 
0.02032247 0.03614876 0.00546670 0.00290173 0.00957876 0.00194200 0.01379491 0.01012926 0.07064312 0.01131079 0.02203896 0.00152669 0.01050748 0.08726193 0.02199991 0.00209168 
0.02053328 0.03574695 0.00555134 0.00293014 0.00971215 0.00193733 0.01390431 0.01033725 0.07053235 0.01136614 0.02206322 0.00153022 0.01058728 0.08664857 0.02180602 0.00208073 
0.02073294 0.03534107 0.00563569 0.00295818 0.00983451 0.00193214 0.01399431 0.01054699 0.07037403 0.01142203 0.02208162 0.00153439 0.01067469 0.08600941 0.02160183 0.00207152 
0.02092038 0.03493354 0.00571945 0.00298577 0.00994515 0.00192644 0.01406453 0.01075784 0.07016840 0.01147801 0.02209386 0.00153919 0.01076987 0.08535571 0.02138974 0.00206419 
0.02109461 0.03452691 0.00580234 0.00301283 0.01004342 0.00192025 0.01411465 0.01096912 0.06991586 0.01153358 0.02209971 0.00154456 0.01087292 0.08469902 0.02117223 0.00205889 
0.02125471 0.03412380 0.00588408 0.00303928 0.01012875 0.00191360 0.01414446 0.01118014 0.06961700 0.01158822 0.02209895 0.00155047 0.01098393 0.08405115 0.02095188 0.00205576 
0.02139986 0.03372690 0.00596440 0.00306504 0.01020061 0.00190651 0.01415383 0.01139020 0.06927251 0.01164142 0.02209143 0.00155686 0.01110292 0.08342404 0.02073133 0.00205493 
0.02152933 0.03333895 0.00604306 0.00309003 0.01025857 0.00189903 0.01414272 0.01159854 0.06888328 0.01169265 0.02207702 0.00156370 0.01122988 0.08282967 0.02051329 0.00205654 
0.02164248 0.03296272 0.00611980 0.00311420 0.01030226 0.00189119 0.01411119 0.01180442 0.06845034 0.01174136 0.02205565 0.00157094 0.01136473 0.08227994 0.02030046 0.00206071 
0.02173877 0.03260103 0.00619441 0.00313747 0.01033140 0.00188306 0.01405937 0.01200708 0.06797485 0.01178700 0.02202730 0.00157852 0.01150738 0.08178662 0.02009557 0.00206755 
0.02181775 0.03225666 0.00626667 0.00315980 0.01034578 0.00187468 0.01398750 0.01220573 0.06745812 0.01182905 0.02199198 0.00158640 0.01165766 0.08136120 0.01990132 0.00207718 
0.02187910 0.03193239 0.00633639 0.00318113 0.01034530 0.00186612 0.01389590 0.01239960 0.06690162 0.01186696 0.02194976 0.00159451 0.01181537 0.08101481 0.01972039 0.00208970 
0.02192257 0.03163097 0.00640340 0.00320141 0.01032994 0.00185744 0.01378498 0.01258792 0.06630694 0.01190022 0.02190076 0.00160282 0.01198026 0.08075815 0.01955538 0.00210519 
0.02194803 0.03135510 0.00646754 0.00322061 0.01029978 0.00184873 0.01365523 0.01276989 0.06567578 0.01192832 0.02184514 0.00161125 0.01215201 0.08060134 0.01940883 0.00212375 
0.02195548 0.03110739 0.00652866 0.00323870 0.01025498 0.00184005 0.01350724 0.01294475 0.06500999 0.01195078 0.02178310 0.00161977 0.01233027 0.08055389 0.01928318 0.00214544 
0.02194499 0.03089038 0.00658665 0.00325565 0.01019581 0.00183148 0.01334167 0.01311173 0.06431152 0.01196712 0.02171489 0.00162831 0.01251465 0.08062459 0.01918075 0.00217032 
0.02191675 0.03070650 0.00664140 0.00327145 0.01012264 0.00182312 0.01315927 0.01327010 0.06358245 0.01197693 0.02164080 0.00163683 0.01270469 0.08082142 0.01910372 0.00219846 
0.02187106 0.03055807 0.00669283 0.00328608 0.01003593 0.00181504 0.01296085 0.01341913 0.06282495 0.01197979 0.02156117 0.00164527 0.01289990 0.08115148 0.01905411 0.00222988 
0.02180830 0.03044728 0.00674088 0.00329956 0.00993625 0.00180734 0.01274732 0.01355812 0.06204128 0.01197533 0.02147637 0.00165357 0.01309975 0.08162096 0.01903379 0.00226462 
0.02172897 0.03037616 0.00678549 0.00331187 0.00982424 0.00180010 0.01251964 0.01368640 0.06123381 0.01196324 0.02138682 0.00166170 0.01330364 0.08223500 0.01904443 0.00230270 
0.02163365 0.03034659 0.00682664 0.00332304 0.00970066 0.00179341 0.01227883 0.01380335 0.06040497 0.01194321 0.02129295 0.00166960 0.01351097 0.08299772 0.01908750 0.00234411 
0.02152302 0.03036027 0.00686432 0.00333308 0.00956635 0.00178737 0.01202598 0.01390836 0.05955728 0.01191502 0.02119525 0.00167722 0.01372107 0.08391211 0.01916426 0.00238886 
0.02139785 0.03041873 0.00689852 0.00334203 0.00942223 0.00178206 0.01176225 0.01400089 0.05869332 0.01187845 0.02109422 0.00168452 0.01393325 0.08498004 0.01927576 0.00243692 
0.02125897 0.03052331 0.00692928 0.00334991 0.00926930 0.00177757 0.01148883 0.01408043 0.05781572 0.01183336 0.02099039 0.00169147 0.01414679 0.08620218 0.01942279 0.00248825 
0.02110730 0.03067514 0.00695663 0.00335678 0.00910865 0.00177399 0.01120696 0.01414654 0.05692717 0.01177967 0.02088433 0.00169802 0.01436094 0.08757803 0.01960591 0.00254282 
0.02094384 0.03087514 0.00698060 0.00336267 0.00894144 0.00177140 0.01091793 0.01419882 0.05603038 0.01171731 0.02077662 0.00170414 0.01457493 0.08910586 0.01982546 0.00260057 
0.02076963 0.03112403 0.00700127 0.00336765 0.00876889 0.00176987 0.01062305 0.01423694 0.05512811 0.01164631 0.02066784 0.00170979 0.01478796 0.09078275 0.02008148 0.00266142 
0.02058578 0.03142230 0.00701871 0.00337176 0.00859228 0.00176950 0.01032367 0.01426064 0.05422311 0.01156672 0.02055860 0.00171496 0.01499922 0.09260456 0.02037378 0.00272529 
0.02039345 0.03177022 0.00703300 0.00337509 0.00841295 0.00177033 0.01002115 0.01426970 0.05331817 0.01147867 0.02044953 0.00171962 0.01520790 0.09456596 0.02070193 0.00279209 
0.02019383 0.03216785 0.00704422 0.00337770 0.00823227 0.00177245 0.00971688 0.01426400 0.05241606 0.01138233 0.02034125 0.00172375 0.01541318 0.09666046 0.02106522 0.00286172 
0.01998815 0.03261500 0.00705249 0.00337965 0.00805165 0.00177591 0.00941224 0.01424349 0.05151953 0.01127793 0.02023437 0.00172733 0.01561422 0.09888042 0.02146269 0.00293405 
0.01977768 0.03311127 0.00705790 0.00338104 0.00787254 0.00178076 0.00910864 0.01420817 0.05063133 0.01116576 0.02012954 0.00173036 0.01581021 0.10121713 0.02189315 0.00300895 
0.01956368 0.03365605 0.00706056 0.00338195 0.00769639 0.00178705 0.00880746 0.01415815 0.04975415 0.01104616 0.02002737 0.00173282 0.01600032 0.10366081 0.02235516 0.00308630 
0.01934744 0.03424849 0.00706059 0.00338244 0.00752467 0.00179481 0.00851008 0.01409358 0.04889066 0.01091952 0.01992847 0.00173472 0.01618377 0.10620070 0.02284704 0.00316593 
0.01913025 0.03488752 0.00705810 0.00338263 0.00735886 0.00180408 0.00821786 0.01401474 0.04804346 0.01078630 0.01983345 0.00173606 0.01635976 0.10882512 0.02336689 0.00324768 
0.01891338 0.03557187 0.00705321 0.00338258 0.00720041 0.00181488 0.00793215 0.01392193 0.04721508 0.01064697 0.01974288 0.00173684 0.01652755 0.11152155 0.02391262 0.00333140 
0.01869809 0.03630006 0.00704603 0.00338240 0.00705077 0.00182722 0.00765425 0.01381558 0.04640798 0.01050210 0.01965734 0.00173708 0.01668639 0.11427668 0.02448190 0.00341690 
0.01848563 0.03707043 0.00703667 0.00338217 0.00691134 0.00184110 0.00738544 0.01369616 0.04562454 0.01035226 0.01957737 0.00173678 0.01683559 0.11707651 0.02507224 0.00350400 
0.01827720 0.03788108 0.00702525 0.00338197 0.00678351 0.00185653 0.00712696 0.01356425 0.04486702 0.01019809 0.01950350 0.00173597 0.01697450 0.11990647 0.02568098 0.00359252 
0.01807397 0.03872999 0.00701188 0.00338191 0.00666860 0.00187347 0.00687997 0.01342049 0.04413760 0.01004027 0.01943620 0.00173467 0.01710249 0.12275147 0.02630531 0.00368224 
0.01787707 0.03961491 0.00699665 0.00338205 0.00656788 0.00189192 0.00664562 0.01326559 0.04343831 0.00987950 0.01937595 0.00173290 0.01721899 0.12559603 0.02694228 0.00377298 
0.01768757 0.04053347 0.00697966 0.00338249 0.00648255 0.00191183 0.00642498 0.01310034 0.04277108 0.00971652 0.01932316 0.00173070 0.01732347 0.12842437 0.02758881 0.00386452 
0.01750646 0.04148312 0.00696101 0.00338332 0.00641376 0.00193317 0.00621905 0.01292558 0.04213769 0.00955212 0.01927823 0.00172809 0.01741548 0.13122053 0.02824174 0.00395665 
0.01733470 0.04246119 0.00694076 0.00338460 0.00636255 0.00195587 0.00602877 0.01274225 0.04153978 0.00938708 0.01924151 0.00172511 0.01749460 0.13396845 0.02889783 0.00404916 
0.01717316 0.04346485 0.00691900 0.00338640 0.00632988 0.00197987 0.00585502 0.01255132 0.04097882 0.00922223 0.01921330 0.00172179 0.01756046 0.13665213 0.02955379 0.00414184 
0.01702262 0.04449119 0.00689579 0.00338881 0.00631662 0.00200511 0.00569856 0.01235381 0.04045613 0.00905842 0.01919387 0.00171818 0.01761280 0.13925569 0.03020628 0.00423446 
0.01688379 0.04553717 0.00687119 0.00339189 0.00632351 0.00203150 0.00556011 0.01215082 0.03997287 0.00889649 0.01918345 0.00171431 0.01765137 0.14176351 0.03085197 0.00432681 
0.01675730 0.04659967 0.00684525 0.00339569 0.00635121 0.00205895 0.00544029 0.01194348 0.03953001 0.00873731 0.01918221 0.00171023 0.01767601 0.14416032 0.03148753 0.00441867 
0.01664367 0.04767547 0.00681799 0.00340026 0.00640025 0.00208736 0.00533962 0.01173294 0.03912835 0.00858174 0.01919027 0.00170597 0.01768664 0.14643135 0.03210964 0.00450982 
0.01654334 0.04876132 0.00678946 0.00340567 0.00647103 0.00211663 0.00525855 0.01152042 0.03876849 0.00843065 0.01920772 0.00170158 0.01768322 0.14856238 0.03271507 0.00460006 
0.01645665 0.04985389 0.00675966 0.00341193 0.00656385 0.00214664 0.00519742 0.01130713 0.03845086 0.00828491 0.01923459 0.00169711 0.01766580 0.15053988 0.03330064 0.00468917 
0.01638383 0.05094980 0.00672862 0.00341910 0.00667885 0.00217726 0.00515649 0.01109433 0.03817567 0.00814537 0.01927085 0.00169258 0.01763450 0.15235109 0.03386327 0.00477694 
0.01632503 0.05204567 0.00669633 0.00342719 0.00681607 0.00220838 0.00513591 0.01088327 0.03794297 0.00801287 0.01931643 0.00168806 0.01758947 0.15398413 0.03440001 0.00486316 
0.01628028 0.05313808 0.00666278 0.00343624 0.00697539 0.00223986 0.00513573 0.01067521 0.03775258 0.00788824 0.01937121 0.00168356 0.01753099 0.15542808 0.03490802 0.00494765 
0.01624953 0.05422362 0.00662796 0.00344624 0.00715657 0.00227155 0.00515592 0.01047141 0.03760416 0.00777226 0.01943503 0.00167915 0.01745934 0.15667306 0.03538464 0.00503020 
0.01623261 0.05529890 0.00659186 0.00345720 0.00735924 0.00230332 0.00519634 0.01027312 0.03749714 0.00766571 0.01950766 0.00167484 0.01737491 0.15771032 0.03582737 0.00511063 
0.01622928 0.05636051 0.00655443 0.00346913 0.00758288 0.00233502 0.00525675 0.01008157 0.03743077 0.00756934 0.01958884 0.00167069 0.01727812 0.15853227 0.03623390 0.00518877 
0.01623917 0.05740513 0.00651565 0.00348200 0.00782686 0.00236650 0.00533683 0.00989798 0.03740412 0.00748384 0.01967825 0.00166671 0.01716948 0.15913261 0.03660212 0.00526443 
0.01626184 0.05842942 0.00647548 0.00349581 0.00809040 0.00239761 0.00543614 0.00972350 0.03741605 0.00740988 0.01977552 0.00166294 0.01704952 0.15950632 0.03693015 0.00533746 
0.01629678 0.05943016 0.00643388 0.00351053 0.00837260 0.00242820 0.00555418 0.00955928 0.03746527 0.00734807 0.01988026 0.00165941 0.01691884 0.15964973 0.03721633 0.00540770 
0.01634335 0.06040413 0.00639081 0.00352612 0.00867245 0.00245811 0.00569033 0.00940640 0.03755028 0.00729899 0.01999202 0.00165615 0.01677808 0.15956056 0.03745926 0.00547500 
0.01640087 0.06134825 0.00634621 0.00354255 0.00898880 0.00248720 0.00584390 0.00926589 0.03766944 0.00726315 0.02011030 0.00165317 0.01662794 0.15923796 0.03765779 0.00553924 
0.01646857 0.06225947 0.00630003 0.00355977 0.00932041 0.00251530 0.00601412 0.00913873 0.03782092 0.00724102 0.02023458 0.00165049 0.01646914 0.15868248 0.03781101 0.00560027 
