0.01546135 0.01861073 0.00490584 0.00234919 0.01141700 0.00142472 0.00986585 0.00575934 0.01389083 0.00296161 0.01240592 0.00111974 0.01315752 0.05075677 0.01281282 0.00371456 
0.01588498 0.01845586 0.00494451 0.00231494 0.01128874 0.00140629 0.00979818 0.00576437 0.01393822 0.00299983 0.01238624 0.00112808 0.01319491 0.05160201 0.01303722 0.00370854 
0.01631063 0.01829107 0.00497910 0.00228000 0.01116181 0.00138771 0.00973101 0.00576494 0.01401532 0.00303924 0.01235691 0.00113708 0.01323082 0.05241938 0.01325944 0.00369676 
0.01673649 0.01811820 0.00500959 0.00224448 0.01103634 0.00136901 0.00966457 0.00576103 0.01412285 0.00307975 0.01231818 0.00114672 0.01326532 0.05320610 0.01347895 0.00367936 
0.01716073 0.01793910 0.00503598 0.00220853 0.01091244 0.00135020 0.00959903 0.00575261 0.01426144 0.00312123 0.01227038 0.00115695 0.01329848 0.05395945 0.01369521 0.00365649 
0.01758152 0.01775571 0.00505829 0.00217227 0.01079020 0.00133129 0.00953458 0.00573967 0.01443159 0.00316357 0.01221390 0.00116774 0.01333035 0.05467680 0.01390766 0.00362835 
0.01799699 0.01756994 0.00507657 0.00213585 0.01066966 0.00131230 0.00947138 0.00572223 0.01463372 0.00320665 0.01214920 0.00117904 0.01336097 0.05535562 0.01411575 0.00359520 
0.01840528 0.01738373 0.00509088 0.00209941 0.01055085 0.00129324 0.00940960 0.00570031 0.01486814 0.00325032 0.01207677 0.00119081 0.01339034 0.05599349 0.01431890 0.00355730 
0.01880454 0.01719902 0.00510128 0.00206310 0.01043377 0.00127415 0.00934936 0.00567397 0.01513503 0.00329445 0.01199719 0.00120298 0.01341847 0.05658810 0.01451655 0.00351496 
0.01919295 0.01701770 0.00510787 0.00202708 0.01031838 0.00125504 0.00929080 0.00564329 0.01543446 0.00333890 0.01191106 0.00121552 0.01344534 0.05713728 0.01470812 0.00346852 
0.01956871 0.01684167 0.00511074 0.00199149 0.01020463 0.00123593 0.00923401 0.00560835 0.01576638 0.00338350 0.01181903 0.00122835 0.01347094 0.05763900 0.01489303 0.00341836 
0.01993006 0.01667276 0.00511000 0.00195649 0.01009245 0.00121686 0.00917908 0.00556927 0.01613060 0.00342811 0.01172178 0.00124142 0.01349520 0.05809137 0.01507072 0.00336489 
0.02027528 0.01651276 0.00510579 0.00192224 0.00998173 0.00119785 0.00912606 0.00552617 0.01652682 0.00347257 0.01162003 0.00125466 0.01351809 0.05849268 0.01524060 0.00330853 
0.02060273 0.01636338 0.00509824 0.00188890 0.00987237 0.00117895 0.00907502 0.00547920 0.01695459 0.00351673 0.01151451 0.00126801 0.01353954 0.05884139 0.01540212 0.00324974 
0.02091084 0.01622628 0.00508749 0.00185663 0.00976422 0.00116017 0.00902595 0.00542853 0.01741335 0.00356041 0.01140597 0.00128139 0.01355946 0.05913612 0.01555470 0.00318902 
0.02119809 0.01610300 0.00507371 0.00182560 0.00965712 0.00114156 0.00897888 0.00537434 0.01790240 0.00360347 0.01129516 0.00129475 0.01357778 0.05937570 0.01569780 0.00312684 
0.02146307 0.01599500 0.00505705 0.00179596 0.00955092 0.00112316 0.00893376 0.00531683 0.01842089 0.00364573 0.01118286 0.00130800 0.01359440 0.05955913 0.01583087 0.00306375 
0.02170448 0.01590366 0.00503768 0.00176789 0.00944542 0.00110501 0.00889056 0.00525622 0.01896786 0.00368704 0.01106981 0.00132108 0.01360923 0.05968564 0.01595339 0.00300025 
0.02192108 0.01583020 0.00501578 0.00174153 0.00934045 0.00108716 0.00884921 0.00519274 0.01954220 0.00372725 0.01095678 0.00133392 0.01362218 0.05975462 0.01606484 0.00293691 
0.02211177 0.01577575 0.00499152 0.00171707 0.00923579 0.00106964 0.00880962 0.00512662 0.02014271 0.00376620 0.01084448 0.00134645 0.01363314 0.05976569 0.01616473 0.00287426 
0.02227557 0.01574131 0.00496509 0.00169465 0.00913125 0.00105252 0.00877168 0.00505813 0.02076801 0.00380374 0.01073365 0.00135859 0.01364201 0.05971868 0.01625259 0.00281285 
0.02241162 0.01572774 0.00493666 0.00167442 0.00902661 0.00103583 0.00873526 0.00498755 0.02141665 0.00383973 0.01062496 0.00137027 0.01364871 0.05961362 0.01632796 0.00275325 
0.02251916 0.01573578 0.00490642 0.00165656 0.00892167 0.00101963 0.00870021 0.00491514 0.02208702 0.00387402 0.01051907 0.00138144 0.01365314 0.05945074 0.01639042 0.00269598 
0.02259761 0.01576600 0.00487456 0.00164120 0.00881621 0.00100396 0.00866635 0.00484120 0.02277744 0.00390649 0.01041659 0.00139201 0.01365523 0.05923048 0.01643958 0.00264161 
0.02264648 0.01581884 0.00484124 0.00162848 0.00871004 0.00098890 0.00863350 0.00476603 0.02348609 0.00393702 0.01031810 0.00140193 0.01365490 0.05895351 0.01647507 0.00259064 
0.02266545 0.01589461 0.00480666 0.00161856 0.00860294 0.00097448 0.00860146 0.00468993 0.02421106 0.00396547 0.01022413 0.00141114 0.01365210 0.05862066 0.01649656 0.00254358 
0.02265433 0.01599346 0.00477097 0.00161157 0.00849474 0.00096075 0.00857001 0.00461322 0.02495035 0.00399176 0.01013517 0.00141958 0.01364679 0.05823300 0.01650374 0.00250094 
0.02261308 0.01611537 0.00473436 0.00160763 0.00838523 0.00094779 0.00853891 0.00453621 0.02570187 0.00401577 0.01005163 0.00142719 0.01363894 0.05779177 0.01649637 0.00246316 
0.02254179 0.01626022 0.00469698 0.00160686 0.00827426 0.00093563 0.00850793 0.00445922 0.02646347 0.00403743 0.00997388 0.00143392 0.01362854 0.05729839 0.01647423 0.00243069 
0.02244071 0.01642770 0.00465899 0.00160937 0.00816167 0.00092434 0.00847682 0.00438257 0.02723290 0.00405666 0.00990225 0.00143972 0.01361562 0.05675448 0.01643714 0.00240393 
0.02231022 0.01661740 0.00462054 0.00161528 0.00804732 0.00091396 0.00844532 0.00430657 0.02800788 0.00407338 0.00983698 0.00144455 0.01360020 0.05616182 0.01638497 0.00238326 
0.02215085 0.01682874 0.00458177 0.00162467 0.00793107 0.00090455 0.00841317 0.00423155 0.02878605 0.00408755 0.00977827 0.00144837 0.01358236 0.05552237 0.01631765 0.00236900 
0.02196325 0.01706103 0.00454281 0.00163762 0.00781284 0.00089615 0.00838010 0.00415783 0.02956504 0.00409912 0.00972623 0.00145115 0.01356219 0.05483822 0.01623513 0.00236144 
0.02174823 0.01731343 0.00450379 0.00165421 0.00769254 0.00088882 0.00834586 0.00408570 0.03034244 0.00410806 0.00968094 0.00145285 0.01353979 0.05411164 0.01613744 0.00236082 
0.02150672 0.01758500 0.00446481 0.00167450 0.00757009 0.00088259 0.00831019 0.00401549 0.03111580 0.00411436 0.00964239 0.00145345 0.01351532 0.05334501 0.01602465 0.00236735 
0.02123976 0.01787468 0.00442600 0.00169854 0.00744548 0.00087751 0.00827283 0.00394748 0.03188269 0.00411800 0.00961053 0.00145294 0.01348896 0.05254085 0.01589688 0.00238116 
0.02094855 0.01818128 0.00438744 0.00172637 0.00731869 0.00087362 0.00823354 0.00388196 0.03264065 0.00411900 0.00958524 0.00145129 0.01346091 0.05170179 0.01575432 0.00240235 
0.02063436 0.01850355 0.00434921 0.00175800 0.00718972 0.00087096 0.00819208 0.00381921 0.03338727 0.00411738 0.00956632 0.00144850 0.01343141 0.05083056 0.01559719 0.00243097 
0.02029861 0.01884012 0.00431139 0.00179346 0.00705862 0.00086955 0.00814824 0.00375950 0.03412013 0.00411315 0.00955355 0.00144457 0.01340074 0.04992999 0.01542580 0.00246699 
0.01994278 0.01918955 0.00427404 0.00183272 0.00692546 0.00086943 0.00810180 0.00370307 0.03483686 0.00410637 0.00954663 0.00143950 0.01336919 0.04900300 0.01524049 0.00251034 
0.01956848 0.01955034 0.00423722 0.00187578 0.00679032 0.00087061 0.00805259 0.00365018 0.03553514 0.00409709 0.00954521 0.00143330 0.01333711 0.04805255 0.01504168 0.00256090 
0.01917740 0.01992090 0.00420097 0.00192259 0.00665333 0.00087312 0.00800042 0.00360104 0.03621267 0.00408538 0.00954890 0.00142598 0.01330484 0.04708169 0.01482983 0.00261846 
0.01877127 0.02029961 0.00416532 0.00197312 0.00651462 0.00087697 0.00794515 0.00355586 0.03686727 0.00407131 0.00955727 0.00141757 0.01327279 0.04609350 0.01460546 0.00268280 
0.01835195 0.02068482 0.00413030 0.00202729 0.00637439 0.00088217 0.00788666 0.00351482 0.03749678 0.00405496 0.00956983 0.00140808 0.01324139 0.04509108 0.01436916 0.00275360 
0.01792131 0.02107482 0.00409593 0.00208502 0.00623282 0.00088873 0.00782486 0.00347811 0.03809917 0.00403644 0.00958607 0.00139755 0.01321107 0.04407758 0.01412157 0.00283050 
0.01748129 0.02146791 0.00406220 0.00214622 0.00609013 0.00089663 0.00775966 0.00344586 0.03867248 0.00401584 0.00960545 0.00138602 0.01318232 0.04305615 0.01386338 0.00291310 
0.01703387 0.02186235 0.00402913 0.00221079 0.00594659 0.00090588 0.00769104 0.00341822 0.03921484 0.00399327 0.00962739 0.00137353 0.01315562 0.04202994 0.01359535 0.00300092 
0.01658106 0.02225643 0.00399669 0.00227858 0.00580246 0.00091645 0.00761896 0.00339528 0.03972453 0.00396887 0.00965131 0.00136012 0.01313151 0.04100209 0.01331827 0.00309344 
0.01612489 0.02264843 0.00396488 0.00234946 0.00565803 0.00092833 0.00754347 0.00337715 0.04019991 0.00394275 0.00967659 0.00134584 0.01311052 0.03997573 0.01303301 0.00319010 
0.01566740 0.02303668 0.00393367 0.00242328 0.00551362 0.00094150 0.00746459 0.00336388 0.04063949 0.00391504 0.00970263 0.00133076 0.01309319 0.03895394 0.01274045 0.00329029 
0.01521064 0.02341951 0.00390303 0.00249986 0.00536957 0.00095592 0.00738242 0.00335552 0.04104190 0.00388588 0.00972880 0.00131494 0.01308009 0.03793978 0.01244157 0.00339336 
0.01475665 0.02379530 0.00387292 0.00257902 0.00522623 0.00097154 0.00729707 0.00335208 0.04140591 0.00385540 0.00975448 0.00129843 0.01307179 0.03693627 0.01213734 0.00349860 
0.01430743 0.02416249 0.00384332 0.00266056 0.00508396 0.00098834 0.00720867 0.00335357 0.04173045 0.00382376 0.00977906 0.00128131 0.01306887 0.03594636 0.01182881 0.00360531 
0.01386499 0.02451958 0.00381418 0.00274427 0.00494315 0.00100625 0.00711742 0.00335997 0.04201456 0.00379110 0.00980195 0.00126364 0.01307190 0.03497296 0.01151704 0.00371273 
0.01343127 0.02486511 0.00378545 0.00282992 0.00480420 0.00102523 0.00702350 0.00337121 0.04225748 0.00375755 0.00982256 0.00124552 0.01308145 0.03401889 0.01120316 0.00382008 
0.01300818 0.02519771 0.00375709 0.00291729 0.00466749 0.00104521 0.00692717 0.00338723 0.04245856 0.00372327 0.00984034 0.00122700 0.01309809 0.03308691 0.01088829 0.00392656 
0.01259757 0.02551610 0.00372905 0.00300611 0.00453345 0.00106612 0.00682868 0.00340794 0.04261733 0.00368839 0.00985477 0.00120817 0.01312238 0.03217970 0.01057361 0.00403138 
0.01220125 0.02581907 0.00370128 0.00309614 0.00440248 0.00108789 0.00672834 0.00343323 0.04273348 0.00365306 0.00986535 0.00118913 0.01315484 0.03129987 0.01026031 0.00413372 
0.01182091 0.02610549 0.00367374 0.00318711 0.00427499 0.00111044 0.00662646 0.00346295 0.04280686 0.00361742 0.00987163 0.00116994 0.01319600 0.03044993 0.00994960 0.00423276 
0.01145821 0.02637436 0.00364637 0.00327875 0.00415141 0.00113369 0.00652339 0.00349694 0.04283745 0.00358159 0.00987319 0.00115069 0.01324635 0.02963231 0.00964270 0.00432771 
0.01111469 0.02662474 0.00361914 0.00337077 0.00403213 0.00115756 0.00641950 0.00353504 0.04282543 0.00354572 0.00986969 0.00113148 0.01330635 0.02884934 0.00934086 0.00441775 
0.01079182 0.02685582 0.00359198 0.00346290 0.00391757 0.00118195 0.00631517 0.00357704 0.04277111 0.00350992 0.00986081 0.00111238 0.01337643 0.02810327 0.00904532 0.00450212 
0.01049096 0.02706688 0.00356488 0.00355483 0.00380812 0.00120677 0.00621082 0.00362272 0.04267495 0.00347431 0.00984629 0.00109349 0.01345697 0.02739625 0.00875731 0.00458006 
0.01021335 0.02725730 0.00353778 0.00364628 0.00370415 0.00123192 0.00610687 0.00367187 0.04253760 0.00343900 0.00982595 0.00107490 0.01354834 0.02673033 0.00847809 0.00465086 
0.00996015 0.02742659 0.00351066 0.00373694 0.00360604 0.00125730 0.00600376 0.00372423 0.04235980 0.00340409 0.00979963 0.00105667 0.01365083 0.02610747 0.00820889 0.00471382 
0.00973237 0.02757433 0.00348348 0.00382652 0.00351414 0.00128281 0.00590193 0.00377955 0.04214249 0.00336968 0.00976728 0.00103891 0.01376470 0.02552953 0.00795092 0.00476833 
0.00953094 0.02770024 0.00345622 0.00391472 0.00342878 0.00130834 0.00580183 0.00383754 0.04188670 0.00333586 0.00972889 0.00102170 0.01389015 0.02499828 0.00770539 0.00481378 
0.00935663 0.02780412 0.00342886 0.00400125 0.00335028 0.00133378 0.00570393 0.00389793 0.04159363 0.00330270 0.00968450 0.00100510 0.01402732 0.02451539 0.00747347 0.00484966 
0.00921010 0.02788590 0.00340138 0.00408580 0.00327891 0.00135904 0.00560870 0.00396043 0.04126458 0.00327026 0.00963426 0.00098921 0.01417630 0.02408244 0.00725631 0.00487550 
0.00909188 0.02794557 0.00337378 0.00416808 0.00321495 0.00138399 0.00551657 0.00402472 0.04090100 0.00323862 0.00957833 0.00097410 0.01433712 0.02370090 0.00705503 0.00489090 
0.00900237 0.02798325 0.00334606 0.00424782 0.00315862 0.00140854 0.00542802 0.00409051 0.04050442 0.00320780 0.00951700 0.00095983 0.01450975 0.02337217 0.00687071 0.00489554 
0.00894184 0.02799915 0.00331821 0.00432474 0.00311012 0.00143258 0.00534349 0.00415748 0.04007650 0.00317787 0.00945057 0.00094648 0.01469407 0.02309754 0.00670438 0.00488918 
0.00891042 0.02799354 0.00329024 0.00439855 0.00306963 0.00145599 0.00526342 0.00422533 0.03961899 0.00314883 0.00937943 0.00093410 0.01488994 0.02287822 0.00655702 0.00487167 
0.00890810 0.02796680 0.00326217 0.00446900 0.00303729 0.00147869 0.00518822 0.00429372 0.03913372 0.00312071 0.00930403 0.00092277 0.01509710 0.02271530 0.00642956 0.00484292 
0.00893478 0.02791938 0.00323403 0.00453584 0.00301319 0.00150057 0.00511830 0.00436236 0.03862263 0.00309353 0.00922489 0.00091253 0.01531526 0.02260982 0.00632289 0.00480297 
0.00899017 0.02785182 0.00320583 0.00459883 0.00299740 0.00152153 0.00505404 0.00443093 0.03808771 0.00306728 0.00914256 0.00090343 0.01554407 0.02256269 0.00623781 0.00475193 
0.00907390 0.02776469 0.00317761 0.00465774 0.00298996 0.00154148 0.00499581 0.00449912 0.03753101 0.00304195 0.00905767 0.00089552 0.01578307 0.02257474 0.00617506 0.00469001 
0.00918544 0.02765866 0.00314940 0.00471235 0.00299085 0.00156032 0.00494395 0.00456664 0.03695466 0.00301753 0.00897089 0.00088884 0.01603179 0.02264670 0.00613533 0.00461752 
0.00932416 0.02753443 0.00312125 0.00476246 0.00300004 0.00157799 0.00489875 0.00463320 0.03636082 0.00299399 0.00888293 0.00088342 0.01628966 0.02277923 0.00611920 0.00453489 
0.00948931 0.02739276 0.00309321 0.00480789 0.00301742 0.00159438 0.00486050 0.00469851 0.03575168 0.00297130 0.00879455 0.00087928 0.01655607 0.02297286 0.00612721 0.00444261 
0.00968001 0.02723446 0.00306533 0.00484847 0.00304290 0.00160944 0.00482945 0.00476231 0.03512947 0.00294942 0.00870655 0.00087645 0.01683033 0.02322803 0.00615979 0.00434131 
0.00989527 0.02706036 0.00303766 0.00488405 0.00307629 0.00162310 0.00480580 0.00482434 0.03449645 0.00292831 0.00861974 0.00087494 0.01711172 0.02354509 0.00621728 0.00423170 
0.01013400 0.02687132 0.00301026 0.00491449 0.00311741 0.00163529 0.00478972 0.00488437 0.03385487 0.00290792 0.00853499 0.00087476 0.01739946 0.02392426 0.00629996 0.00411459 
0.01039502 0.02666823 0.00298320 0.00493969 0.00316602 0.00164596 0.00478136 0.00494216 0.03320700 0.00288819 0.00845316 0.00087591 0.01769273 0.02436568 0.00640800 0.00399090 
0.01067703 0.02645201 0.00295654 0.00495953 0.00322184 0.00165506 0.00478081 0.00499752 0.03255509 0.00286907 0.00837514 0.00087839 0.01799065 0.02486934 0.00654147 0.00386163 
0.01097867 0.02622356 0.00293035 0.00497396 0.00328458 0.00166256 0.00478812 0.00505025 0.03190138 0.00285051 0.00830183 0.00088219 0.01829231 0.02543513 0.00670036 0.00372786 
0.01129847 0.02598381 0.00290469 0.00498290 0.00335390 0.00166843 0.00480330 0.00510019 0.03124810 0.00283243 0.00823411 0.00088729 0.01859679 0.02606282 0.00688454 0.00359079 
0.01163492 0.02573369 0.00287964 0.00498633 0.00342942 0.00167265 0.00482634 0.00514720 0.03059743 0.00281477 0.00817288 0.00089367 0.01890311 0.02675204 0.00709381 0.00345166 
0.01198641 0.02547410 0.00285526 0.00498422 0.00351074 0.00167520 0.00485716 0.00519116 0.02995154 0.00279748 0.00811903 0.00090129 0.01921030 0.02750228 0.00732785 0.00331182 
0.01235128 0.02520595 0.00283164 0.00497660 0.00359745 0.00167608 0.00489565 0.00523195 0.02931252 0.00278050 0.00807342 0.00091013 0.01951736 0.02831289 0.00758624 0.00317267 
0.01272783 0.02493013 0.00280883 0.00496347 0.00368908 0.00167529 0.00494165 0.00526951 0.02868245 0.00276377 0.00803688 0.00092014 0.01982328 0.02918308 0.00786846 0.00303568 
0.01311430 0.02464751 0.00278690 0.00494489 0.00378516 0.00167286 0.00499498 0.00530378 0.02806333 0.00274723 0.00801024 0.00093127 0.02012705 0.03011189 0.00817390 0.00290236 
0.01350891 0.02435893 0.00276593 0.00492092 0.00388520 0.00166879 0.00505539 0.00533473 0.02745710 0.00273083 0.00799426 0.00094348 0.02042767 0.03109820 0.00850184 0.00277428 
0.01390984 0.02406521 0.00274597 0.00489165 0.00398870 0.00166313 0.00512262 0.00536236 0.02686564 0.00271454 0.00798967 0.00095670 0.02072414 0.03214072 0.00885145 0.00265304 
0.01431525 0.02376713 0.00272710 0.00485719 0.00409512 0.00165591 0.00519635 0.00538668 0.02629076 0.00269830 0.00799717 0.00097088 0.02101550 0.03323798 0.00922182 0.00254028 
0.01472330 0.02346546 0.00270936 0.00481767 0.00420393 0.00164718 0.00527624 0.00540773 0.02573417 0.00268210 0.00801740 0.00098595 0.02130078 0.03438834 0.00961194 0.00243764 
0.01513214 0.02316090 0.00269282 0.00477323 0.00431459 0.00163701 0.00536189 0.00542558 0.02519754 0.00266590 0.00805091 0.00100184 0.02157907 0.03558995 0.01002069 0.00234678 
0.01553993 0.02285415 0.00267753 0.00472403 0.00442656 0.00162545 0.00545291 0.00544033 0.02468243 0.00264970 0.00809824 0.00101848 0.02184948 0.03684079 0.01044689 0.00226937 
0.01594484 0.02254584 0.00266354 0.00467027 0.00453929 0.00161259 0.00554884 0.00545207 0.02419031 0.00263348 0.00815982 0.00103579 0.02211115 0.03813863 0.01088925 0.00220704 
0.01634505 0.02223658 0.00265088 0.00461212 0.00465224 0.00159850 0.00564922 0.00546094 0.02372258 0.00261725 0.00823603 0.00105368 0.02236330 0.03948102 0.01134640 0.00216141 
0.01673880 0.02192694 0.00263961 0.00454983 0.00476488 0.00158329 0.00575355 0.00546709 0.02328054 0.00260103 0.00832717 0.00107210 0.02260516 0.04086534 0.01181689 0.00213409 
0.01712434 0.02161744 0.00262975 0.00448360 0.00487668 0.00156703 0.00586132 0.00547068 0.02286538 0.00258484 0.00843347 0.00109094 0.02283605 0.04228873 0.01229920 0.00212660 
0.01749998 0.02130859 0.00262134 0.00441370 0.00498713 0.00154984 0.00597199 0.00547192 0.02247823 0.00256872 0.00855506 0.00111012 0.02305532 0.04374813 0.01279174 0.00214045 
0.01786408 0.02100082 0.00261440 0.00434037 0.00509574 0.00153183 0.00608501 0.00547100 0.02212009 0.00255272 0.00869202 0.00112956 0.02326240 0.04524029 0.01329286 0.00217705 
0.01821505 0.02069457 0.00260896 0.00426389 0.00520204 0.00151311 0.00619982 0.00546814 0.02179189 0.00253690 0.00884431 0.00114918 0.02345679 0.04676172 0.01380084 0.00223775 
0.01855138 0.02039021 0.00260502 0.00418453 0.00530557 0.00149380 0.00631586 0.00546357 0.02149444 0.00252134 0.00901183 0.00116890 0.02363805 0.04830875 0.01431392 0.00232381 
0.01887162 0.02008811 0.00260259 0.00410261 0.00540593 0.00147403 0.00643255 0.00545753 0.02122846 0.00250613 0.00919438 0.00118861 0.02380580 0.04987749 0.01483029 0.00243639 
0.01917441 0.01978859 0.00260169 0.00401840 0.00550270 0.00145393 0.00654932 0.00545028 0.02099459 0.00249136 0.00939169 0.00120826 0.02395976 0.05146388 0.01534810 0.00257656 
0.01945846 0.01949195 0.00260232 0.00393222 0.00559555 0.00143362 0.00666560 0.00544208 0.02079336 0.00247714 0.00960339 0.00122775 0.02409969 0.05306365 0.01586549 0.00274525 
0.01972259 0.01919847 0.00260447 0.00384440 0.00568414 0.00141325 0.00678083 0.00543319 0.02062518 0.00246361 0.00982903 0.00124700 0.02422545 0.05467236 0.01638055 0.00294328 
0.01996569 0.01890840 0.00260813 0.00375523 0.00576818 0.00139294 0.00689444 0.00542388 0.02049041 0.00245089 0.01006809 0.00126595 0.02433696 0.05628540 0.01689137 0.00317133 
0.02018676 0.01862200 0.00261328 0.00366506 0.00584744 0.00137284 0.00700591 0.00541442 0.02038928 0.00243913 0.01031995 0.00128451 0.02443420 0.05789801 0.01739605 0.00342995 
0.02038490 0.01833950 0.00261993 0.00357420 0.00592171 0.00135308 0.00711470 0.00540508 0.02032193 0.00242849 0.01058393 0.00130262 0.02451723 0.05950528 0.01789266 0.00371953 
0.02055933 0.01806111 0.00262804 0.00348298 0.00599081 0.00133380 0.00722031 0.00539613 0.02028842 0.00241915 0.01085926 0.00132022 0.02458619 0.06110217 0.01837931 0.00404032 
0.02070934 0.01778706 0.00263759 0.00339172 0.00605465 0.00131514 0.00732227 0.00538782 0.02028871 0.00241127 0.01114513 0.00133724 0.02464127 0.06268355 0.01885411 0.00439241 
0.02083438 0.01751756 0.00264856 0.00330076 0.00611313 0.00129723 0.00742012 0.00538041 0.02032266 0.00240505 0.01144062 0.00135362 0.02468272 0.06424419 0.01931523 0.00477573 
0.02093397 0.01725284 0.00266092 0.00321041 0.00616625 0.00128021 0.00751344 0.00537414 0.02039006 0.00240067 0.01174479 0.00136932 0.02471085 0.06577877 0.01976084 0.00519003 
0.02100776 0.01699312 0.00267464 0.00312099 0.00621401 0.00126420 0.00760183 0.00536926 0.02049059 0.00239835 0.01205663 0.00138429 0.02472604 0.06728195 0.02018919 0.00563490 
0.02105553 0.01673864 0.00268969 0.00303281 0.00625647 0.00124933 0.00768495 0.00536597 0.02062386 0.00239829 0.01237505 0.00139849 0.02472868 0.06874836 0.02059858 0.00610977 
0.02107714 0.01648965 0.00270603 0.00294618 0.00629376 0.00123572 0.00776247 0.00536449 0.02078938 0.00240069 0.01269897 0.00141188 0.02471924 0.07017261 0.02098735 0.00661390 
0.02107261 0.01624641 0.00272362 0.00286139 0.00632603 0.00122350 0.00783411 0.00536500 0.02098657 0.00240578 0.01302722 0.00142443 0.02469822 0.07154936 0.02135394 0.00714636 
0.02104203 0.01600921 0.00274244 0.00277872 0.00635347 0.00121276 0.00789964 0.00536767 0.02121479 0.00241376 0.01335863 0.00143612 0.02466614 0.07287329 0.02169687 0.00770607 
0.02098563 0.01577836 0.00276244 0.00269847 0.00637633 0.00120362 0.00795886 0.00537265 0.02147329 0.00242486 0.01369199 0.00144693 0.02462357 0.07413920 0.02201475 0.00829180 
0.02090374 0.01555418 0.00278359 0.00262089 0.00639488 0.00119617 0.00801162 0.00538008 0.02176126 0.00243929 0.01402607 0.00145684 0.02457107 0.07534195 0.02230627 0.00890212 
0.02079682 0.01533703 0.00280585 0.00254623 0.00640945 0.00119051 0.00805781 0.00539005 0.02207778 0.00245726 0.01435964 0.00146586 0.02450925 0.07647656 0.02257025 0.00953547 
0.02066540 0.01512730 0.00282919 0.00247474 0.00642040 0.00118672 0.00809738 0.00540265 0.02242189 0.00247898 0.01469144 0.00147397 0.02443871 0.07753821 0.02280560 0.01019014 
0.02051015 0.01492540 0.00285356 0.00240663 0.00642812 0.00118487 0.00813031 0.00541793 0.02279252 0.00250464 0.01502023 0.00148119 0.02436004 0.07852227 0.02301138 0.01086427 
0.02033183 0.01473176 0.00287893 0.00234212 0.00643302 0.00118504 0.00815663 0.00543594 0.02318854 0.00253445 0.01534477 0.00148752 0.02427386 0.07942432 0.02318673 0.01155586 
0.02013129 0.01454686 0.00290526 0.00228141 0.00643555 0.00118728 0.00817642 0.00545666 0.02360874 0.00256859 0.01566384 0.00149298 0.02418076 0.08024019 0.02333096 0.01226279 
0.01990948 0.01437119 0.00293253 0.00222467 0.00643619 0.00119164 0.00818981 0.00548009 0.02405182 0.00260722 0.01597623 0.00149758 0.02408132 0.08096600 0.02344349 0.01298281 
0.01966743 0.01420527 0.00296069 0.00217205 0.00643543 0.00119817 0.00819696 0.00550617 0.02451643 0.00265051 0.01628078 0.00150136 0.02397609 0.08159814 0.02352389 0.01371358 
0.01940626 0.01404966 0.00298972 0.00212370 0.00643378 0.00120689 0.00819809 0.00553483 0.02500115 0.00269861 0.01657633 0.00150433 0.02386561 0.08213336 0.02357187 0.01445264 
0.01912719 0.01390492 0.00301957 0.00207974 0.00643176 0.00121783 0.00819346 0.00556596 0.02550447 0.00275163 0.01686180 0.00150654 0.02375039 0.08256874 0.02358728 0.01519746 
0.01883147 0.01377166 0.00305022 0.00204027 0.00642991 0.00123100 0.00818335 0.00559945 0.02602483 0.00280970 0.01713613 0.00150801 0.02363090 0.08290174 0.02357013 0.01594545 
0.01852045 0.01365049 0.00308163 0.00200539 0.00642875 0.00124639 0.00816811 0.00563513 0.02656060 0.00287289 0.01739832 0.00150880 0.02350757 0.08313022 0.02352056 0.01669392 
0.01819554 0.01354204 0.00311377 0.00197514 0.00642883 0.00126401 0.00814811 0.00567283 0.02711009 0.00294128 0.01764742 0.00150894 0.02338078 0.08325245 0.02343887 0.01744016 
0.01785818 0.01344695 0.00314662 0.00194958 0.00643068 0.00128383 0.00812375 0.00571234 0.02767155 0.00301492 0.01788255 0.00150847 0.02325088 0.08326714 0.02332550 0.01818144 
0.01750989 0.01336586 0.00318013 0.00192873 0.00643481 0.00130583 0.00809547 0.00575344 0.02824317 0.00309382 0.01810291 0.00150744 0.02311817 0.08317344 0.02318104 0.01891498 
0.01715221 0.01329944 0.00321428 0.00191260 0.00644175 0.00132997 0.00806375 0.00579589 0.02882309 0.00317799 0.01830774 0.00150591 0.02298290 0.08297097 0.02300624 0.01963801 
0.01678673 0.01324831 0.00324903 0.00190117 0.00645199 0.00135621 0.00802907 0.00583941 0.02940941 0.00326739 0.01849638 0.00150392 0.02284525 0.08265983 0.02280196 0.02034778 
0.01641506 0.01321314 0.00328434 0.00189440 0.00646600 0.00138448 0.00799196 0.00588372 0.03000018 0.00336197 0.01866824 0.00150152 0.02270536 0.08224060 0.02256922 0.02104154 
0.01603883 0.01319453 0.00332019 0.00189225 0.00648423 0.00141472 0.00795295 0.00592852 0.03059339 0.00346164 0.01882281 0.00149876 0.02256333 0.08171433 0.02230917 0.02171661 
0.01565969 0.01319309 0.00335654 0.00189463 0.00650710 0.00144687 0.00791261 0.00597350 0.03118703 0.00356628 0.01895967 0.00149569 0.02241920 0.08108258 0.02202309 0.02237035 
0.01527930 0.01320941 0.00339333 0.00190145 0.00653501 0.00148083 0.00787149 0.00601832 0.03177905 0.00367575 0.01907848 0.00149237 0.02227294 0.08034742 0.02171238 0.02300017 
0.01489930 0.01324402 0.00343055 0.00191261 0.00656830 0.00151651 0.00783018 0.00606265 0.03236735 0.00378987 0.01917899 0.00148884 0.02212449 0.07951137 0.02137856 0.02360358 
0.01452134 0.01329743 0.00346812 0.00192798 0.00660730 0.00155383 0.00778927 0.00610614 0.03294984 0.00390843 0.01926103 0.00148514 0.02197373 0.07857746 0.02102325 0.02417820 
0.01414706 0.01337010 0.00350602 0.00194740 0.00665227 0.00159267 0.00774934 0.00614844 0.03352441 0.00403121 0.01932452 0.00148133 0.02182051 0.07754920 0.02064818 0.02472174 
0.01377806 0.01346244 0.00354418 0.00197072 0.00670345 0.00163292 0.00771099 0.00618920 0.03408895 0.00415793 0.01936948 0.00147744 0.02166463 0.07643056 0.02025518 0.02523202 
0.01341593 0.01357478 0.00358256 0.00199776 0.00676102 0.00167446 0.00767480 0.00622807 0.03464134 0.00428828 0.01939600 0.00147352 0.02150583 0.07522596 0.01984614 0.02570702 
0.01306220 0.01370740 0.00362108 0.00202832 0.00682512 0.00171716 0.00764134 0.00626468 0.03517948 0.00442196 0.01940427 0.00146960 0.02134385 0.07394026 0.01942304 0.02614486 
0.01271839 0.01386052 0.00365969 0.00206220 0.00689583 0.00176091 0.00761120 0.00629871 0.03570130 0.00455859 0.01939455 0.00146572 0.02117837 0.07257874 0.01898794 0.02654381 
0.01238594 0.01403425 0.00369832 0.00209918 0.00697319 0.00180555 0.00758491 0.00632979 0.03620473 0.00469780 0.01936720 0.00146192 0.02100907 0.07114707 0.01854293 0.02690230 
0.01206626 0.01422864 0.00373689 0.00213903 0.00705717 0.00185095 0.00756302 0.00635762 0.03668775 0.00483917 0.01932265 0.00145821 0.02083560 0.06965130 0.01809015 0.02721895 
0.01176069 0.01444363 0.00377533 0.00218150 0.00714772 0.00189697 0.00754604 0.00638187 0.03714838 0.00498227 0.01926140 0.00145462 0.02065758 0.06809781 0.01763178 0.02749255 
0.01147049 0.01467909 0.00381354 0.00222634 0.00724471 0.00194346 0.00753447 0.00640225 0.03758469 0.00512664 0.01918404 0.00145117 0.02047466 0.06649332 0.01717002 0.02772209 
0.01119687 0.01493478 0.00385144 0.00227328 0.00734795 0.00199027 0.00752877 0.00641846 0.03799481 0.00527179 0.01909121 0.00144789 0.02028645 0.06484481 0.01670708 0.02790675 
0.01094094 0.01521034 0.00388894 0.00232206 0.00745723 0.00203724 0.00752939 0.00643026 0.03837695 0.00541722 0.01898363 0.00144477 0.02009258 0.06315953 0.01624518 0.02804592 
0.01070376 0.01550531 0.00392593 0.00237241 0.00757227 0.00208423 0.00753673 0.00643740 0.03872938 0.00556241 0.01886207 0.00144184 0.01989270 0.06144493 0.01578650 0.02813919 
0.01048627 0.01581915 0.00396232 0.00242403 0.00769273 0.00213108 0.00755116 0.00643966 0.03905047 0.00570682 0.01872738 0.00143908 0.01968646 0.05970868 0.01533324 0.02818635 
0.01028935 0.01615117 0.00399799 0.00247665 0.00781825 0.00217764 0.00757303 0.00643686 0.03933868 0.00584991 0.01858043 0.00143652 0.01947356 0.05795855 0.01488752 0.02818742 
0.01011376 0.01650058 0.00403283 0.00252997 0.00794839 0.00222375 0.00760264 0.00642883 0.03959257 0.00599112 0.01842216 0.00143413 0.01925371 0.05620246 0.01445147 0.02814263 
0.00996018 0.01686649 0.00406672 0.00258370 0.00808270 0.00226925 0.00764025 0.00641546 0.03981082 0.00612989 0.01825354 0.00143192 0.01902667 0.05444835 0.01402712 0.02805239 
0.00982919 0.01724789 0.00409955 0.00263756 0.00822067 0.00231400 0.00768607 0.00639663 0.03999222 0.00626563 0.01807557 0.00142987 0.01879222 0.05270423 0.01361647 0.02791736 
0.00972127 0.01764365 0.00413118 0.00269125 0.00836175 0.00235784 0.00774029 0.00637229 0.04013568 0.00639779 0.01788929 0.00142797 0.01855024 0.05097809 0.01322141 0.02773840 
0.00963680 0.01805253 0.00416151 0.00274449 0.00850537 0.00240063 0.00780305 0.00634239 0.04024026 0.00652579 0.01769575 0.00142620 0.01830061 0.04927785 0.01284379 0.02751654 
0.00957605 0.01847321 0.00419040 0.00279699 0.00865090 0.00244222 0.00787444 0.00630695 0.04030516 0.00664907 0.01749605 0.00142455 0.01804330 0.04761135 0.01248533 0.02725306 
0.00953918 0.01890423 0.00421772 0.00284848 0.00879772 0.00248247 0.00795449 0.00626600 0.04032970 0.00676707 0.01729125 0.00142299 0.01777835 0.04598631 0.01214768 0.02694939 
0.00952627 0.01934407 0.00424335 0.00289868 0.00894515 0.00252124 0.00804321 0.00621961 0.04031337 0.00687926 0.01708246 0.00142150 0.01750586 0.04441027 0.01183235 0.02660717 
0.00953728 0.01979110 0.00426716 0.00294732 0.00909252 0.00255841 0.00814057 0.00616789 0.04025582 0.00698510 0.01687078 0.00142005 0.01722601 0.04289055 0.01154078 0.02622822 
0.00957208 0.02024360 0.00428904 0.00299415 0.00923912 0.00259384 0.00824645 0.00611098 0.04015683 0.00708410 0.01665728 0.00141861 0.01693906 0.04143424 0.01127424 0.02581452 
0.00963042 0.02069978 0.00430885 0.00303893 0.00938425 0.00262741 0.00836073 0.00604907 0.04001637 0.00717576 0.01644305 0.00141715 0.01664533 0.04004814 0.01103392 0.02536822 
0.00971197 0.02115779 0.00432649 0.00308140 0.00952717 0.00265902 0.00848321 0.00598235 0.03983456 0.00725962 0.01622914 0.00141564 0.01634526 0.03873874 0.01082083 0.02489161 
0.00981630 0.02161569 0.00434184 0.00312135 0.00966718 0.00268854 0.00861368 0.00591108 0.03961167 0.00733527 0.01601659 0.00141406 0.01603934 0.03751218 0.01063589 0.02438713 
0.00994288 0.02207152 0.00435480 0.00315857 0.00980355 0.00271588 0.00875185 0.00583553 0.03934817 0.00740230 0.01580641 0.00141236 0.01572817 0.03637421 0.01047985 0.02385736 
0.01009111 0.02252328 0.00436527 0.00319285 0.00993555 0.00274094 0.00889741 0.00575601 0.03904466 0.00746034 0.01559957 0.00141052 0.01541242 0.03533018 0.01035333 0.02330496 
0.01026029 0.02296891 0.00437316 0.00322400 0.01006249 0.00276364 0.00904998 0.00567286 0.03870192 0.00750909 0.01539701 0.00140850 0.01509285 0.03438500 0.01025680 0.02273273 
0.01044963 0.02340636 0.00437840 0.00325187 0.01018368 0.00278389 0.00920918 0.00558644 0.03832087 0.00754825 0.01519962 0.00140628 0.01477030 0.03354312 0.01019059 0.02214354 
0.01065829 0.02383356 0.00438091 0.00327629 0.01029842 0.00280164 0.00937454 0.00549714 0.03790261 0.00757759 0.01500825 0.00140383 0.01444570 0.03280850 0.01015489 0.02154033 
0.01088533 0.02424846 0.00438063 0.00329714 0.01040607 0.00281681 0.00954559 0.00540536 0.03744838 0.00759692 0.01482371 0.00140111 0.01412006 0.03218462 0.01014973 0.02092613 
0.01112977 0.02464902 0.00437752 0.00331428 0.01050601 0.00282935 0.00972180 0.00531155 0.03695957 0.00760610 0.01464673 0.00139810 0.01379444 0.03167440 0.01017500 0.02030397 
0.01139055 0.02503322 0.00437155 0.00332761 0.01059762 0.00283921 0.00990261 0.00521616 0.03643771 0.00760503 0.01447801 0.00139477 0.01347001 0.03128027 0.01023045 0.01967697 
0.01166657 0.02539911 0.00436270 0.00333706 0.01068034 0.00284637 0.01008742 0.00511964 0.03588447 0.00759367 0.01431817 0.00139110 0.01314796 0.03100410 0.01031570 0.01904820 
0.01195666 0.02574479 0.00435096 0.00334256 0.01075364 0.00285080 0.01027562 0.00502247 0.03530163 0.00757203 0.01416778 0.00138707 0.01282959 0.03084718 0.01043022 0.01842079 
0.01225963 0.02606841 0.00433636 0.00334405 0.01081703 0.00285247 0.01046653 0.00492515 0.03469111 0.00754017 0.01402735 0.00138266 0.01251621 0.03081029 0.01057335 0.01779782 
0.01257425 0.02636824 0.00431891 0.00334152 0.01087004 0.00285139 0.01065948 0.00482816 0.03405493 0.00749823 0.01389732 0.00137785 0.01220920 0.03089360 0.01074430 0.01718235 
0.01289925 0.02664261 0.00429867 0.00333496 0.01091228 0.00284755 0.01085376 0.00473201 0.03339520 0.00744637 0.01377805 0.00137264 0.01190996 0.03109677 0.01094216 0.01657739 
0.01323334 0.02688999 0.00427569 0.00332437 0.01094336 0.00284096 0.01104863 0.00463719 0.03271414 0.00738482 0.01366985 0.00136700 0.01161996 0.03141886 0.01116591 0.01598590 
0.01357522 0.02710896 0.00425006 0.00330979 0.01096299 0.00283165 0.01124333 0.00454419 0.03201404 0.00731387 0.01357297 0.00136094 0.01134064 0.03185839 0.01141440 0.01541077 
0.01392356 0.02729822 0.00422187 0.00329126 0.01097088 0.00281965 0.01143710 0.00445351 0.03129724 0.00723385 0.01348757 0.00135444 0.01107350 0.03241336 0.01168641 0.01485477 
0.01427705 0.02745662 0.00419124 0.00326885 0.01096683 0.00280499 0.01162915 0.00436562 0.03056617 0.00714516 0.01341376 0.00134751 0.01082001 0.03308122 0.01198058 0.01432060 
0.01463437 0.02758319 0.00415831 0.00324265 0.01095066 0.00278772 0.01181868 0.00428099 0.02982327 0.00704824 0.01335158 0.00134015 0.01058166 0.03385891 0.01229550 0.01381083 
0.01499420 0.02767708 0.00412322 0.00321277 0.01092225 0.00276791 0.01200489 0.00420008 0.02907104 0.00694358 0.01330099 0.00133237 0.01035991 0.03474286 0.01262965 0.01332790 
0.01535523 0.02773763 0.00408614 0.00317931 0.01088156 0.00274560 0.01218696 0.00412331 0.02831198 0.00683172 0.01326192 0.00132416 0.01015620 0.03572905 0.01298145 0.01287411 
0.01571620 0.02776438 0.00404726 0.00314242 0.01082857 0.00272089 0.01236408 0.00405110 0.02754860 0.00671324 0.01323421 0.00131555 0.00997194 0.03681298 0.01334926 0.01245160 
0.01607584 0.02775701 0.00400677 0.00310225 0.01076331 0.00269384 0.01253543 0.00398384 0.02678341 0.00658878 0.01321766 0.00130654 0.00980850 0.03798973 0.01373139 0.01206235 
0.01643292 0.02771544 0.00396489 0.00305897 0.01068589 0.00266455 0.01270022 0.00392189 0.02601890 0.00645900 0.01321200 0.00129716 0.00966717 0.03925396 0.01412607 0.01170817 
0.01678625 0.02763974 0.00392185 0.00301276 0.01059646 0.00263311 0.01285764 0.00386559 0.02525753 0.00632459 0.01321691 0.00128741 0.00954920 0.04059998 0.01453153 0.01139067 
0.01713466 0.02753021 0.00387789 0.00296383 0.01049521 0.00259962 0.01300690 0.00381523 0.02450171 0.00618630 0.01323202 0.00127734 0.00945578 0.04202172 0.01494597 0.01111127 
0.01747704 0.02738734 0.00383326 0.00291236 0.01038238 0.00256420 0.01314724 0.00377110 0.02375380 0.00604490 0.01325693 0.00126696 0.00938798 0.04351282 0.01536754 0.01087120 
0.01781232 0.02721181 0.00378823 0.00285860 0.01025827 0.00252696 0.01327790 0.00373342 0.02301610 0.00590116 0.01329117 0.00125629 0.00934680 0.04506663 0.01579441 0.01067148 
0.01813948 0.02700451 0.00374307 0.00280276 0.01012323 0.00248802 0.01339815 0.00370240 0.02229081 0.00575590 0.01333426 0.00124537 0.00933314 0.04667625 0.01622474 0.01051289 
0.01845753 0.02676654 0.00369807 0.00274508 0.00997764 0.00244750 0.01350730 0.00367819 0.02158008 0.00560993 0.01338565 0.00123423 0.00934780 0.04833458 0.01665669 0.01039603 
0.01876557 0.02649916 0.00365350 0.00268582 0.00982193 0.00240554 0.01360466 0.00366093 0.02088593 0.00546411 0.01344479 0.00122290 0.00939144 0.05003432 0.01708846 0.01032124 
0.01906272 0.02620386 0.00360967 0.00262523 0.00965656 0.00236226 0.01368961 0.00365069 0.02021028 0.00531925 0.01351109 0.00121141 0.00946463 0.05176805 0.01751824 0.01028867 
0.01934819 0.02588229 0.00356686 0.00256357 0.00948205 0.00231781 0.01376155 0.00364752 0.01955494 0.00517622 0.01358395 0.00119981 0.00956780 0.05352825 0.01794429 0.01029821 
0.01962122 0.02553627 0.00352538 0.00250109 0.00929894 0.00227232 0.01381991 0.00365141 0.01892160 0.00503584 0.01366272 0.00118812 0.00970123 0.05530732 0.01836489 0.01034955 
0.01988112 0.02516782 0.00348551 0.00243809 0.00910780 0.00222593 0.01386419 0.00366234 0.01831181 0.00489895 0.01374678 0.00117639 0.00986509 0.05709765 0.01877838 0.01044213 
0.02012727 0.02477910 0.00344756 0.00237481 0.00890925 0.00217879 0.01389392 0.00368023 0.01772699 0.00476637 0.01383547 0.00116466 0.01005938 0.05889163 0.01918314 0.01057518 
0.02035910 0.02437241 0.00341181 0.00231153 0.00870391 0.00213105 0.01390868 0.00370495 0.01716842 0.00463888 0.01392814 0.00115295 0.01028399 0.06068171 0.01957764 0.01074772 
0.02057608 0.02395019 0.00337854 0.00224852 0.00849246 0.00208284 0.01390813 0.00373635 0.01663722 0.00451727 0.01402414 0.00114132 0.01053862 0.06246040 0.01996039 0.01095852 
0.02077778 0.02351503 0.00334803 0.00218606 0.00827557 0.00203432 0.01389196 0.00377423 0.01613437 0.00440229 0.01412280 0.00112980 0.01082287 0.06422035 0.02033000 0.01120616 
0.02096379 0.02306961 0.00332054 0.00212440 0.00805395 0.00198563 0.01385993 0.00381836 0.01566071 0.00429464 0.01422350 0.00111843 0.01113615 0.06595437 0.02068515 0.01148902 
0.02113379 0.02261669 0.00329633 0.00206381 0.00782831 0.00193690 0.01381186 0.00386847 0.01521690 0.00419499 0.01432560 0.00110725 0.01147775 0.06765544 0.02102460 0.01180526 
0.02128748 0.02215914 0.00327563 0.00200454 0.00759939 0.00188829 0.01374766 0.00392426 0.01480347 0.00410400 0.01442848 0.00109629 0.01184679 0.06931676 0.02134722 0.01215288 
0.02142464 0.02169988 0.00325867 0.00194684 0.00736793 0.00183993 0.01366726 0.00398539 0.01442077 0.00402223 0.01453156 0.00108559 0.01224226 0.07093180 0.02165196 0.01252968 
0.02154510 0.02124189 0.00324565 0.00189095 0.00713468 0.00179196 0.01357071 0.00405150 0.01406902 0.00395024 0.01463426 0.00107519 0.01266301 0.07249429 0.02193786 0.01293329 
0.02164872 0.02078816 0.00323677 0.00183712 0.00690040 0.00174451 0.01345810 0.00412219 0.01374828 0.00388850 0.01473604 0.00106512 0.01310773 0.07399828 0.02220408 0.01336120 
0.02173544 0.02034171 0.00323220 0.00178556 0.00666584 0.00169771 0.01332960 0.00419704 0.01345846 0.00383744 0.01483639 0.00105542 0.01357501 0.07543814 0.02244987 0.01381074 
0.02180523 0.01990556 0.00323209 0.00173648 0.00643177 0.00165170 0.01318545 0.00427561 0.01319933 0.00379744 0.01493481 0.00104612 0.01406328 0.07680861 0.02267459 0.01427911 
0.02185809 0.01948268 0.00323656 0.00169009 0.00619893 0.00160658 0.01302598 0.00435744 0.01297051 0.00376879 0.01503087 0.00103724 0.01457088 0.07810479 0.02287770 0.01476341 
0.02189408 0.01907604 0.00324573 0.00164657 0.00596807 0.00156248 0.01285158 0.00444204 0.01277152 0.00375175 0.01512415 0.00102882 0.01509600 0.07932221 0.02305877 0.01526061 
0.02191331 0.01868852 0.00325966 0.00160611 0.00573993 0.00151950 0.01266272 0.00452893 0.01260171 0.00374648 0.01521427 0.00102088 0.01563675 0.08045677 0.02321747 0.01576762 
0.02191590 0.01832295 0.00327843 0.00156887 0.00551522 0.00147776 0.01245993 0.00461759 0.01246033 0.00375309 0.01530092 0.00101345 0.01619113 0.08150482 0.02335358 0.01628127 
0.02190202 0.01798204 0.00330205 0.00153500 0.00529467 0.00143736 0.01224383 0.00470751 0.01234653 0.00377162 0.01538378 0.00100655 0.01675705 0.08246316 0.02346699 0.01679834 
0.02187189 0.01766842 0.00333054 0.00150462 0.00507897 0.00139838 0.01201511 0.00479817 0.01225933 0.00380205 0.01546262 0.00100021 0.01733235 0.08332901 0.02355768 0.01731556 
0.02182574 0.01738457 0.00336388 0.00147787 0.00486879 0.00136092 0.01177452 0.00488905 0.01219768 0.00384427 0.01553723 0.00099443 0.01791479 0.08410009 0.02362573 0.01782965 
0.02176383 0.01713284 0.00340202 0.00145484 0.00466479 0.00132506 0.01152287 0.00497961 0.01216044 0.00389810 0.01560744 0.00098925 0.01850208 0.08477453 0.02367133 0.01833733 
0.02168647 0.01691543 0.00344488 0.00143563 0.00446759 0.00129086 0.01126107 0.00506935 0.01214638 0.00396332 0.01567313 0.00098466 0.01909187 0.08535097 0.02369476 0.01883534 
0.02159399 0.01673436 0.00349238 0.00142029 0.00427781 0.00125841 0.01099006 0.00515775 0.01215422 0.00403962 0.01573423 0.00098069 0.01968178 0.08582849 0.02369638 0.01932044 
0.02148672 0.01659147 0.00354437 0.00140890 0.00409603 0.00122776 0.01071083 0.00524431 0.01218262 0.00412662 0.01579069 0.00097735 0.02026940 0.08620664 0.02367665 0.01978944 
0.02136505 0.01648841 0.00360073 0.00140148 0.00392279 0.00119896 0.01042447 0.00532853 0.01223020 0.00422389 0.01584252 0.00097464 0.02085232 0.08648542 0.02363610 0.02023924 
0.02122939 0.01642662 0.00366126 0.00139807 0.00375861 0.00117206 0.01013206 0.00540995 0.01229555 0.00433093 0.01588977 0.00097257 0.02142810 0.08666530 0.02357536 0.02066681 
0.02108016 0.01640732 0.00372578 0.00139865 0.00360399 0.00114710 0.00983479 0.00548809 0.01237722 0.00444717 0.01593251 0.00097115 0.02199434 0.08674717 0.02349511 0.02106921 
0.02091781 0.01643151 0.00379406 0.00140324 0.00345937 0.00112412 0.00953383 0.00556253 0.01247378 0.00457202 0.01597086 0.00097037 0.02254864 0.08673237 0.02339611 0.02144364 
0.02074282 0.01649996 0.00386585 0.00141179 0.00332519 0.00110314 0.00923043 0.00563285 0.01258378 0.00470480 0.01600497 0.00097024 0.02308864 0.08662265 0.02327918 0.02178741 
0.02055567 0.01661321 0.00394090 0.00142426 0.00320182 0.00108417 0.00892585 0.00569866 0.01270577 0.00484480 0.01603503 0.00097076 0.02361204 0.08642016 0.02314520 0.02209801 
0.02035690 0.01677154 0.00401891 0.00144061 0.00308962 0.00106724 0.00862138 0.00575959 0.01283836 0.00499126 0.01606124 0.00097192 0.02411657 0.08612744 0.02299511 0.02237306 
0.02014704 0.01697502 0.00409959 0.00146075 0.00298890 0.00105234 0.00831832 0.00581531 0.01298015 0.00514338 0.01608384 0.00097371 0.02460004 0.08574741 0.02282987 0.02261038 
0.01992666 0.01722342 0.00418262 0.00148459 0.00289993 0.00103947 0.00801799 0.00586551 0.01312981 0.00530033 0.01610309 0.00097613 0.02506035 0.08528333 0.02265051 0.02280796 
0.01969634 0.01751633 0.00426765 0.00151203 0.00282294 0.00102863 0.00772172 0.00590993 0.01328604 0.00546124 0.01611929 0.00097917 0.02549547 0.08473878 0.02245809 0.02296400 
0.01945671 0.01785304 0.00435433 0.00154296 0.00275815 0.00101980 0.00743082 0.00594831 0.01344762 0.00562524 0.01613272 0.00098282 0.02590349 0.08411768 0.02225367 0.02307691 
0.01920839 0.01823263 0.00444231 0.00157725 0.00270569 0.00101296 0.00714661 0.00598045 0.01361338 0.00579141 0.01614369 0.00098706 0.02628258 0.08342419 0.02203838 0.02314533 
0.01895205 0.01865394 0.00453121 0.00161475 0.00266570 0.00100809 0.00687038 0.00600617 0.01378223 0.00595882 0.01615254 0.00099189 0.02663105 0.08266276 0.02181332 0.02316810 
0.01868837 0.01911558 0.00462065 0.00165531 0.00263824 0.00100515 0.00660342 0.00602534 0.01395317 0.00612657 0.01615960 0.00099729 0.02694734 0.08183808 0.02157963 0.02314431 
0.01841805 0.01961592 0.00471024 0.00169876 0.00262336 0.00100411 0.00634697 0.00603785 0.01412529 0.00629370 0.01616521 0.00100323 0.02723001 0.08095501 0.02133845 0.02307330 
0.01814184 0.02015314 0.00479957 0.00174493 0.00262106 0.00100491 0.00610224 0.00604364 0.01429775 0.00645929 0.01616971 0.00100970 0.02747778 0.08001863 0.02109092 0.02295465 
0.01786048 0.02072519 0.00488826 0.00179363 0.00263129 0.00100752 0.00587039 0.00604266 0.01446984 0.00662244 0.01617343 0.00101669 0.02768949 0.07903417 0.02083818 0.02278817 
0.01757477 0.02132985 0.00497590 0.00184467 0.00265399 0.00101188 0.00565256 0.00603493 0.01464094 0.00678223 0.01617671 0.00102417 0.02786417 0.07800698 0.02058134 0.02257395 
0.01728550 0.02196471 0.00506209 0.00189784 0.00268902 0.00101792 0.00544980 0.00602047 0.01481052 0.00693778 0.01617988 0.00103212 0.02800098 0.07694251 0.02032152 0.02231230 
0.01699350 0.02262718 0.00514644 0.00195294 0.00273625 0.00102560 0.00526312 0.00599937 0.01497819 0.00708824 0.01618326 0.00104051 0.02809927 0.07584631 0.02005981 0.02200380 
0.01669962 0.02331453 0.00522854 0.00200974 0.00279547 0.00103483 0.00509345 0.00597172 0.01514365 0.00723278 0.01618715 0.00104933 0.02815853 0.07472394 0.01979727 0.02164926 
0.01640473 0.02402388 0.00530800 0.00206803 0.00286646 0.00104556 0.00494165 0.00593765 0.01530670 0.00737063 0.01619185 0.00105854 0.02817844 0.07358103 0.01953494 0.02124976 
0.01610973 0.02475223 0.00538445 0.00212759 0.00294896 0.00105770 0.00480851 0.00589733 0.01546727 0.00750103 0.01619763 0.00106813 0.02815885 0.07242317 0.01927383 0.02080659 
0.01581552 0.02549649 0.00545751 0.00218817 0.00304268 0.00107117 0.00469474 0.00585096 0.01562538 0.00762330 0.01620476 0.00107806 0.02809978 0.07125594 0.01901492 0.02032129 
0.01552303 0.02625344 0.00552682 0.00224954 0.00314728 0.00108589 0.00460093 0.00579877 0.01578118 0.00773679 0.01621345 0.00108832 0.02800142 0.07008485 0.01875912 0.01979562 
0.01523318 0.02701983 0.00559202 0.00231149 0.00326241 0.00110178 0.00452763 0.00574099 0.01593490 0.00784091 0.01622394 0.00109886 0.02786414 0.06891535 0.01850734 0.01923155 
0.01494695 0.02779233 0.00565279 0.00237376 0.00338769 0.00111875 0.00447524 0.00567792 0.01608687 0.00793515 0.01623641 0.00110967 0.02768849 0.06775277 0.01826041 0.01863127 
0.01466527 0.02856758 0.00570879 0.00243612 0.00352268 0.00113671 0.00444410 0.00560984 0.01623753 0.00801903 0.01625104 0.00112071 0.02747517 0.06660235 0.01801915 0.01799715 
0.01438911 0.02934219 0.00575973 0.00249834 0.00366697 0.00115556 0.00443445 0.00553708 0.01638740 0.00809217 0.01626796 0.00113196 0.02722505 0.06546913 0.01778429 0.01733177 
0.01411944 0.03011279 0.00580532 0.00256018 0.00382007 0.00117521 0.00444640 0.00545997 0.01653708 0.00815424 0.01628730 0.00114339 0.02693918 0.06435804 0.01755653 0.01663785 
0.01385722 0.03087601 0.00584529 0.00262142 0.00398150 0.00119556 0.00447997 0.00537888 0.01668724 0.00820499 0.01630915 0.00115497 0.02661875 0.06327378 0.01733654 0.01591831 
0.01360340 0.03162852 0.00587939 0.00268184 0.00415074 0.00121651 0.00453509 0.00529418 0.01683865 0.00824424 0.01633359 0.00116666 0.02626511 0.06222086 0.01712489 0.01517617 
0.01335893 0.03236704 0.00590741 0.00274120 0.00432727 0.00123795 0.00461157 0.00520627 0.01699209 0.00827189 0.01636066 0.00117844 0.02587975 0.06120358 0.01692212 0.01441460 
0.01312473 0.03308837 0.00592914 0.00279929 0.00451055 0.00125980 0.00470911 0.00511553 0.01714844 0.00828792 0.01639040 0.00119028 0.02546431 0.06022599 0.01672873 0.01363690 
0.01290171 0.03378936 0.00594440 0.00285591 0.00470000 0.00128194 0.00482733 0.00502238 0.01730861 0.00829239 0.01642279 0.00120215 0.02502054 0.05929187 0.01654513 0.01284644 
0.01269075 0.03446701 0.00595305 0.00291084 0.00489507 0.00130427 0.00496572 0.00492725 0.01747352 0.00828542 0.01645783 0.00121403 0.02455034 0.05840477 0.01637170 0.01204669 
0.01249271 0.03511839 0.00595495 0.00296390 0.00509516 0.00132668 0.00512370 0.00483055 0.01764415 0.00826723 0.01649547 0.00122587 0.02405571 0.05756791 0.01620876 0.01124118 
0.01230840 0.03574074 0.00595000 0.00301490 0.00529969 0.00134908 0.00530057 0.00473272 0.01782147 0.00823810 0.01653566 0.00123766 0.02353874 0.05678427 0.01605656 0.01043349 
0.01213860 0.03633140 0.00593813 0.00306366 0.00550805 0.00137135 0.00549554 0.00463420 0.01800647 0.00819839 0.01657834 0.00124937 0.02300164 0.05605650 0.01591532 0.00962721 
0.01198404 0.03688790 0.00591930 0.00311001 0.00571965 0.00139340 0.00570776 0.00453541 0.01820013 0.00814854 0.01662340 0.00126097 0.02244668 0.05538694 0.01578517 0.00882598 
0.01184539 0.03740792 0.00589347 0.00315379 0.00593389 0.00141513 0.00593626 0.00443679 0.01840342 0.00808905 0.01667076 0.00127243 0.02187622 0.05477762 0.01566623 0.00803340 
0.01172327 0.03788931 0.00586067 0.00319487 0.00615016 0.00143642 0.00618000 0.00433877 0.01861727 0.00802049 0.01672031 0.00128373 0.02129266 0.05423026 0.01555853 0.00725308 
0.01161826 0.03833013 0.00582093 0.00323309 0.00636787 0.00145719 0.00643787 0.00424179 0.01884259 0.00794350 0.01677193 0.00129485 0.02069848 0.05374624 0.01546206 0.00648855 
0.01153082 0.03872860 0.00577430 0.00326835 0.00658642 0.00147733 0.00670870 0.00414626 0.01908025 0.00785878 0.01682550 0.00130576 0.02009616 0.05332661 0.01537677 0.00574333 
0.01146140 0.03908316 0.00572090 0.00330053 0.00680524 0.00149676 0.00699125 0.00405260 0.01933105 0.00776708 0.01688088 0.00131643 0.01948823 0.05297209 0.01530257 0.00502083 
0.01141034 0.03939246 0.00566083 0.00332954 0.00702375 0.00151537 0.00728422 0.00396122 0.01959573 0.00766921 0.01693797 0.00132686 0.01887722 0.05268309 0.01523928 0.00432440 
0.01137790 0.03965535 0.00559424 0.00335528 0.00724139 0.00153308 0.00758628 0.00387251 0.01987498 0.00756603 0.01699662 0.00133701 0.01826566 0.05245968 0.01518673 0.00365726 
0.01136427 0.03987089 0.00552132 0.00337770 0.00745761 0.00154981 0.00789603 0.00378687 0.02016939 0.00745841 0.01705672 0.00134687 0.01765608 0.05230159 0.01514466 0.00302252 
0.01136954 0.04003835 0.00544226 0.00339673 0.00767188 0.00156548 0.00821206 0.00370467 0.02047946 0.00734731 0.01711816 0.00135642 0.01705095 0.05220825 0.01511280 0.00242316 
0.01139372 0.04015724 0.00535730 0.00341233 0.00788369 0.00157999 0.00853293 0.00362626 0.02080560 0.00723368 0.01718081 0.00136566 0.01645274 0.05217877 0.01509084 0.00186201 
0.01143672 0.04022726 0.00526668 0.00342447 0.00809254 0.00159330 0.00885718 0.00355201 0.02114813 0.00711850 0.01724458 0.00137455 0.01586385 0.05221196 0.01507841 0.00134174 
0.01149838 0.04024834 0.00517070 0.00343314 0.00829795 0.00160532 0.00918335 0.00348223 0.02150724 0.00700278 0.01730937 0.00138309 0.01528662 0.05230632 0.01507512 0.00086484 
0.01157841 0.04022061 0.00506965 0.00343835 0.00849948 0.00161601 0.00950995 0.00341725 0.02188303 0.00688755 0.01737511 0.00139128 0.01472332 0.05246007 0.01508057 0.00043361 
0.01167645 0.04014441 0.00496386 0.00344010 0.00869671 0.00162529 0.00983553 0.00335737 0.02227548 0.00677381 0.01744174 0.00139909 0.01417613 0.05267115 0.01509429 0.00005017 
0.01179204 0.04002029 0.00485368 0.00343842 0.00888921 0.00163313 0.01015863 0.00330286 0.02268442 0.00666258 0.01750919 0.00140653 0.01364713 0.05293725 0.01511581 0.00028359 
0.01192461 0.03984899 0.00473949 0.00343336 0.00907663 0.00163948 0.01047782 0.00325399 0.02310959 0.00655489 0.01757744 0.00141358 0.01313832 0.05325578 0.01514463 0.00056596 
0.01207351 0.03963144 0.00462167 0.00342497 0.00925861 0.00164432 0.01079170 0.00321100 0.02355059 0.00645173 0.01764646 0.00142024 0.01265154 0.05362394 0.01518023 0.00079549 
0.01223800 0.03936877 0.00450064 0.00341333 0.00943482 0.00164760 0.01109891 0.00317411 0.02400689 0.00635406 0.01771625 0.00142652 0.01218854 0.05403870 0.01522207 0.00097093 
0.01241725 0.03906227 0.00437682 0.00339853 0.00960497 0.00164932 0.01139813 0.00314353 0.02447784 0.00626285 0.01778683 0.00143241 0.01175093 0.05449685 0.01526959 0.00109128 
0.01261032 0.03871339 0.00425066 0.00338064 0.00976879 0.00164946 0.01168809 0.00311943 0.02496264 0.00617899 0.01785821 0.00143790 0.01134018 0.05499497 0.01532223 0.00115578 
0.01281622 0.03832377 0.00412261 0.00335980 0.00992604 0.00164802 0.01196757 0.00310198 0.02546039 0.00610337 0.01793046 0.00144301 0.01095760 0.05552949 0.01537942 0.00116391 
0.01303387 0.03789515 0.00399315 0.00333612 0.01007652 0.00164501 0.01223542 0.00309130 0.02597004 0.00603680 0.01800362 0.00144774 0.01060437 0.05609670 0.01544056 0.00111539 
0.01326211 0.03742946 0.00386275 0.00330972 0.01022002 0.00164044 0.01249056 0.00308752 0.02649045 0.00598006 0.01807777 0.00145209 0.01028148 0.05669276 0.01550507 0.00101020 
0.01349971 0.03692873 0.00373190 0.00328077 0.01035640 0.00163433 0.01273198 0.00309071 0.02702032 0.00593387 0.01815302 0.00145607 0.00998980 0.05731374 0.01557236 0.00084854 
0.01374540 0.03639510 0.00360111 0.00324941 0.01048553 0.00162673 0.01295874 0.00310095 0.02755826 0.00589886 0.01822945 0.00145969 0.00972999 0.05795561 0.01564186 0.00063090 
0.01399782 0.03583083 0.00347087 0.00321582 0.01060729 0.00161766 0.01317001 0.00311827 0.02810277 0.00587564 0.01830718 0.00146296 0.00950258 0.05861432 0.01571296 0.00035797 
0.01425559 0.03523826 0.00334169 0.00318015 0.01072162 0.00160719 0.01336501 0.00314269 0.02865224 0.00586470 0.01838634 0.00146588 0.00930791 0.05928576 0.01578512 0.00003070 
0.01451728 0.03461983 0.00321409 0.00314260 0.01082844 0.00159538 0.01354308 0.00317420 0.02920496 0.00586648 0.01846706 0.00146848 0.00914616 0.05996583 0.01585776 0.00034971 
0.01478143 0.03397804 0.00308856 0.00310336 0.01092773 0.00158229 0.01370362 0.00321276 0.02975914 0.00588134 0.01854948 0.00147077 0.00901734 0.06065042 0.01593035 0.00078184 
0.01504654 0.03331545 0.00296561 0.00306263 0.01101948 0.00156800 0.01384615 0.00325832 0.03031290 0.00590954 0.01863375 0.00147275 0.00892128 0.06133548 0.01600234 0.00126406 
0.01531113 0.03263467 0.00284575 0.00302061 0.01110369 0.00155260 0.01397027 0.00331080 0.03086429 0.00595128 0.01872000 0.00147445 0.00885767 0.06201702 0.01607325 0.00179449 
0.01557367 0.03193832 0.00272946 0.00297750 0.01118039 0.00153619 0.01407569 0.00337007 0.03141130 0.00600665 0.01880839 0.00147588 0.00882603 0.06269113 0.01614257 0.00237107 
0.01583266 0.03122910 0.00261724 0.00293353 0.01124962 0.00151886 0.01416220 0.00343601 0.03195187 0.00607566 0.01889906 0.00147706 0.00882571 0.06335399 0.01620986 0.00299151 
0.01608660 0.03050966 0.00250955 0.00288890 0.01131143 0.00150074 0.01422968 0.00350845 0.03248387 0.00615824 0.01899214 0.00147800 0.00885593 0.06400195 0.01627468 0.00365336 
0.01633402 0.02978270 0.00240686 0.00284384 0.01136591 0.00148194 0.01427813 0.00358721 0.03300517 0.00625421 0.01908777 0.00147873 0.00891575 0.06463147 0.01633662 0.00435396 
0.01657346 0.02905090 0.00230962 0.00279857 0.01141313 0.00146259 0.01430762 0.00367208 0.03351361 0.00636333 0.01918608 0.00147925 0.00900412 0.06523919 0.01639533 0.00509049 
0.01680352 0.02831691 0.00221826 0.00275331 0.01145319 0.00144281 0.01431831 0.00376282 0.03400701 0.00648524 0.01928716 0.00147959 0.00911982 0.06582195 0.01645046 0.00585998 
0.01702284 0.02758336 0.00213318 0.00270828 0.01148619 0.00142275 0.01431046 0.00385917 0.03448320 0.00661951 0.01939113 0.00147976 0.00926156 0.06637679 0.01650172 0.00665932 
0.01723010 0.02685285 0.00205478 0.00266370 0.01151223 0.00140255 0.01428440 0.00396086 0.03494002 0.00676563 0.01949805 0.00147979 0.00942789 0.06690096 0.01654885 0.00748525 
0.01742406 0.02612792 0.00198343 0.00261978 0.01153145 0.00138235 0.01424056 0.00406757 0.03537534 0.00692300 0.01960800 0.00147968 0.00961729 0.06739198 0.01659163 0.00833441 
0.01760356 0.02541108 0.00191946 0.00257674 0.01154394 0.00136231 0.01417943 0.00417898 0.03578708 0.00709095 0.01972100 0.00147946 0.00982814 0.06784760 0.01662988 0.00920333 
0.01776750 0.02470476 0.00186319 0.00253480 0.01154984 0.00134258 0.01410158 0.00429475 0.03617319 0.00726872 0.01983709 0.00147915 0.01005875 0.06826583 0.01666346 0.01008847 
0.01791487 0.02401132 0.00181492 0.00249415 0.01154927 0.00132331 0.01400764 0.00441450 0.03653171 0.00745549 0.01995626 0.00147875 0.01030736 0.06864497 0.01669227 0.01098619 
0.01804477 0.02333306 0.00177490 0.00245499 0.01154234 0.00130466 0.01389831 0.00453784 0.03686073 0.00765038 0.02007848 0.00147829 0.01057215 0.06898359 0.01671626 0.01189283 
0.01815637 0.02267219 0.00174336 0.00241751 0.01152919 0.00128678 0.01377435 0.00466439 0.03715844 0.00785244 0.02020369 0.00147778 0.01085125 0.06928055 0.01673541 0.01280466 
0.01824898 0.02203084 0.00172049 0.00238190 0.01150993 0.00126984 0.01363656 0.00479370 0.03742315 0.00806066 0.02033180 0.00147724 0.01114278 0.06953503 0.01674977 0.01371796 
0.01832198 0.02141103 0.00170646 0.00234833 0.01148466 0.00125398 0.01348579 0.00492536 0.03765326 0.00827401 0.02046271 0.00147667 0.01144484 0.06974647 0.01675939 0.01462897 
0.01837491 0.02081470 0.00170139 0.00231697 0.01145352 0.00123936 0.01332294 0.00505892 0.03784730 0.00849138 0.02059627 0.00147609 0.01175549 0.06991463 0.01676439 0.01553396 
0.01840738 0.02024369 0.00170538 0.00228798 0.01141659 0.00122611 0.01314893 0.00519390 0.03800394 0.00871165 0.02073231 0.00147551 0.01207285 0.07003957 0.01676492 0.01642924 
0.01841915 0.01969972 0.00171848 0.00226148 0.01137399 0.00121440 0.01296472 0.00532986 0.03812199 0.00893366 0.02087062 0.00147494 0.01239502 0.07012161 0.01676116 0.01731114 
0.01841009 0.01918443 0.00174070 0.00223763 0.01132580 0.00120434 0.01277128 0.00546631 0.03820043 0.00915623 0.02101098 0.00147439 0.01272014 0.07016140 0.01675336 0.01817606 
0.01838020 0.01869932 0.00177204 0.00221653 0.01127213 0.00119607 0.01256959 0.00560277 0.03823840 0.00937819 0.02115312 0.00147388 0.01304641 0.07015984 0.01674175 0.01902048 
0.01832958 0.01824580 0.00181242 0.00219830 0.01121305 0.00118973 0.01236067 0.00573876 0.03823521 0.00959832 0.02129676 0.00147340 0.01337207 0.07011812 0.01672664 0.01984097 
0.01825849 0.01782515 0.00186176 0.00218303 0.01114865 0.00118541 0.01214551 0.00587380 0.03819036 0.00981544 0.02144157 0.00147297 0.01369542 0.07003769 0.01670834 0.02063420 
0.01816727 0.01743855 0.00191992 0.00217079 0.01107901 0.00118322 0.01192510 0.00600740 0.03810353 0.01002835 0.02158722 0.00147258 0.01401485 0.06992022 0.01668720 0.02139699 
0.01805640 0.01708706 0.00198672 0.00216167 0.01100419 0.00118327 0.01170046 0.00613909 0.03797461 0.01023590 0.02173333 0.00147224 0.01432883 0.06976764 0.01666359 0.02212626 
0.01792647 0.01677161 0.00206196 0.00215569 0.01092426 0.00118563 0.01147254 0.00626838 0.03780368 0.01043692 0.02187952 0.00147197 0.01463592 0.06958209 0.01663790 0.02281910 
0.01777819 0.01649303 0.00214539 0.00215291 0.01083929 0.00119038 0.01124231 0.00639483 0.03759105 0.01063032 0.02202537 0.00147175 0.01493480 0.06936591 0.01661053 0.02347277 
0.01761236 0.01625204 0.00223673 0.00215335 0.01074935 0.00119759 0.01101071 0.00651797 0.03733720 0.01081502 0.02217046 0.00147159 0.01522422 0.06912163 0.01658191 0.02408470 
0.01742990 0.01604921 0.00233566 0.00215700 0.01065450 0.00120729 0.01077864 0.00663737 0.03704287 0.01098998 0.02231435 0.00147149 0.01550310 0.06885193 0.01655246 0.02465250 
0.01723179 0.01588504 0.00244182 0.00216387 0.01055479 0.00121953 0.01054698 0.00675260 0.03670898 0.01115423 0.02245656 0.00147145 0.01577045 0.06855963 0.01652262 0.02517399 
0.01701915 0.01575988 0.00255482 0.00217393 0.01045031 0.00123433 0.01031656 0.00686326 0.03633667 0.01130686 0.02259664 0.00147146 0.01602540 0.06824769 0.01649282 0.02564720 
0.01679313 0.01567398 0.00267425 0.00218713 0.01034110 0.00125169 0.01008818 0.00696896 0.03592730 0.01144701 0.02273412 0.00147153 0.01626724 0.06791916 0.01646351 0.02607038 
0.01655500 0.01562749 0.00279966 0.00220343 0.01022726 0.00127161 0.00986260 0.00706934 0.03548245 0.01157391 0.02286850 0.00147166 0.01649537 0.06757717 0.01643511 0.02644199 
0.01630606 0.01562042 0.00293058 0.00222276 0.01010885 0.00129407 0.00964053 0.00716408 0.03500389 0.01168684 0.02299933 0.00147183 0.01670933 0.06722490 0.01640806 0.02676074 
0.01604768 0.01565272 0.00306649 0.00224503 0.00998597 0.00131904 0.00942262 0.00725285 0.03449360 0.01178518 0.02312611 0.00147204 0.01690879 0.06686558 0.01638275 0.02702558 
0.01578128 0.01572418 0.00320688 0.00227016 0.00985869 0.00134646 0.00920947 0.00733539 0.03395376 0.01186839 0.02324838 0.00147230 0.01709357 0.06650245 0.01635959 0.02723569 
0.01550832 0.01583453 0.00335118 0.00229802 0.00972714 0.00137626 0.00900165 0.00741144 0.03338675 0.01193603 0.02336568 0.00147258 0.01726360 0.06613873 0.01633896 0.02739052 
0.01523028 0.01598338 0.00349884 0.00232850 0.00959141 0.00140838 0.00879966 0.00748079 0.03279510 0.01198772 0.02347757 0.00147290 0.01741897 0.06577763 0.01632120 0.02748975 
0.01494868 0.01617024 0.00364926 0.00236147 0.00945165 0.00144272 0.00860393 0.00754327 0.03218154 0.01202321 0.02358362 0.00147323 0.01755987 0.06542231 0.01630667 0.02753333 
0.01466502 0.01639453 0.00380184 0.00239677 0.00930798 0.00147917 0.00841487 0.00759871 0.03154896 0.01204233 0.02368342 0.00147358 0.01768662 0.06507586 0.01629567 0.02752145 
0.01438083 0.01665557 0.00395597 0.00243425 0.00916057 0.00151761 0.00823280 0.00764703 0.03090039 0.01204500 0.02377659 0.00147393 0.01779965 0.06474129 0.01628847 0.02745457 
0.01409761 0.01695261 0.00411103 0.00247374 0.00900958 0.00155791 0.00805801 0.00768814 0.03023900 0.01203125 0.02386277 0.00147429 0.01789951 0.06442151 0.01628533 0.02733337 
0.01381687 0.01728478 0.00426639 0.00251507 0.00885521 0.00159992 0.00789073 0.00772203 0.02956809 0.01200121 0.02394163 0.00147464 0.01798686 0.06411932 0.01628646 0.02715881 
0.01354006 0.01765115 0.00442141 0.00255805 0.00869765 0.00164350 0.00773111 0.00774869 0.02889106 0.01195509 0.02401288 0.00147497 0.01806242 0.06383738 0.01629206 0.02693208 
0.01326861 0.01805071 0.00457546 0.00260249 0.00853714 0.00168847 0.00757930 0.00776817 0.02821140 0.01189322 0.02407626 0.00147528 0.01812702 0.06357824 0.01630229 0.02665459 
0.01300390 0.01848236 0.00472792 0.00264819 0.00837392 0.00173466 0.00743534 0.00778056 0.02753269 0.01181600 0.02413154 0.00147556 0.01818156 0.06334426 0.01631725 0.02632802 
0.01274728 0.01894492 0.00487815 0.00269495 0.00820826 0.00178188 0.00729927 0.00778599 0.02685856 0.01172395 0.02417853 0.00147581 0.01822701 0.06313767 0.01633704 0.02595424 
0.01250001 0.01943717 0.00502554 0.00274255 0.00804042 0.00182994 0.00717106 0.00778461 0.02619266 0.01161765 0.02421711 0.00147602 0.01826439 0.06296052 0.01636172 0.02553535 
0.01226330 0.01995779 0.00516949 0.00279078 0.00787073 0.00187864 0.00705064 0.00777663 0.02553870 0.01149780 0.02424715 0.00147617 0.01829474 0.06281469 0.01639131 0.02507366 
0.01203828 0.02050542 0.00530941 0.00283944 0.00769951 0.00192779 0.00693789 0.00776230 0.02490035 0.01136514 0.02426861 0.00147627 0.01831918 0.06270189 0.01642579 0.02457165 
0.01182602 0.02107863 0.00544473 0.00288829 0.00752709 0.00197715 0.00683267 0.00774187 0.02428130 0.01122053 0.02428147 0.00147631 0.01833880 0.06262365 0.01646515 0.02403202 
0.01162747 0.02167593 0.00557488 0.00293713 0.00735384 0.00202654 0.00673479 0.00771565 0.02368516 0.01106488 0.02428575 0.00147628 0.01835474 0.06258130 0.01650931 0.02345760 
0.01144353 0.02229578 0.00569935 0.00298573 0.00718015 0.00207573 0.00664404 0.00768400 0.02311551 0.01089916 0.02428154 0.00147618 0.01836810 0.06257601 0.01655817 0.02285142 
0.01127498 0.02293662 0.00581763 0.00303389 0.00700642 0.00212450 0.00656017 0.00764726 0.02257585 0.01072443 0.02426894 0.00147600 0.01838001 0.06260878 0.01661164 0.02221661 
0.01112253 0.02359681 0.00592925 0.00308139 0.00683306 0.00217264 0.00648289 0.00760584 0.02206955 0.01054176 0.02424811 0.00147573 0.01839153 0.06268041 0.01666956 0.02155647 
0.01098676 0.02427469 0.00603375 0.00312803 0.00666051 0.00221995 0.00641193 0.00756017 0.02159991 0.01035232 0.02421927 0.00147538 0.01840371 0.06279155 0.01673180 0.02087439 
0.01086820 0.02496857 0.00613073 0.00317359 0.00648922 0.00226620 0.00634696 0.00751068 0.02117003 0.01015728 0.02418264 0.00147494 0.01841754 0.06294267 0.01679818 0.02017386 
0.01076723 0.02567673 0.00621981 0.00321788 0.00631965 0.00231120 0.00628766 0.00745783 0.02078289 0.00995788 0.02413851 0.00147440 0.01843397 0.06313409 0.01686851 0.01945845 
0.01068416 0.02639741 0.00630065 0.00326071 0.00615229 0.00235474 0.00623368 0.00740212 0.02044128 0.00975535 0.02408720 0.00147376 0.01845387 0.06336597 0.01694261 0.01873180 
0.01061920 0.02712887 0.00637294 0.00330190 0.00598762 0.00239663 0.00618467 0.00734403 0.02014779 0.00955097 0.02402905 0.00147302 0.01847804 0.06363833 0.01702027 0.01799759 
0.01057246 0.02786931 0.00643643 0.00334127 0.00582613 0.00243670 0.00614029 0.00728407 0.01990478 0.00934602 0.02396446 0.00147218 0.01850719 0.06395105 0.01710130 0.01725954 
0.01054396 0.02861697 0.00649089 0.00337866 0.00566832 0.00247475 0.00610016 0.00722276 0.01971441 0.00914179 0.02389382 0.00147122 0.01854196 0.06430388 0.01718549 0.01652138 
0.01053363 0.02937004 0.00653614 0.00341391 0.00551471 0.00251062 0.00606394 0.00716060 0.01957855 0.00893956 0.02381759 0.00147016 0.01858288 0.06469645 0.01727264 0.01578682 
0.01054130 0.03012675 0.00657206 0.00344687 0.00536580 0.00254416 0.00603128 0.00709813 0.01949883 0.00874061 0.02373623 0.00146898 0.01863037 0.06512826 0.01736254 0.01505957 
0.01056675 0.03088533 0.00659853 0.00347741 0.00522211 0.00257523 0.00600182 0.00703585 0.01947661 0.00854620 0.02365020 0.00146769 0.01868477 0.06559874 0.01745502 0.01434328 
0.01060965 0.03164400 0.00661552 0.00350540 0.00508414 0.00260370 0.00597524 0.00697428 0.01951293 0.00835755 0.02356002 0.00146629 0.01874629 0.06610719 0.01754988 0.01364154 
0.01066960 0.03240105 0.00662303 0.00353074 0.00495239 0.00262944 0.00595121 0.00691392 0.01960855 0.00817588 0.02346620 0.00146476 0.01881504 0.06665282 0.01764696 0.01295790 
0.01074617 0.03315474 0.00662109 0.00355333 0.00482735 0.00265237 0.00592943 0.00685526 0.01976392 0.00800234 0.02336924 0.00146311 0.01889101 0.06723477 0.01774610 0.01229577 
0.01083883 0.03390340 0.00660979 0.00357308 0.00470953 0.00267238 0.00590960 0.00679877 0.01997916 0.00783805 0.02326969 0.00146135 0.01897410 0.06785210 0.01784715 0.01165848 
0.01094702 0.03464538 0.00658926 0.00358992 0.00459938 0.00268941 0.00589145 0.00674490 0.02025406 0.00768408 0.02316807 0.00145945 0.01906407 0.06850378 0.01794998 0.01104922 
0.01107013 0.03537908 0.00655966 0.00360380 0.00449736 0.00270341 0.00587473 0.00669410 0.02058812 0.00754143 0.02306490 0.00145743 0.01916060 0.06918873 0.01805449 0.01047105 
0.01120750 0.03610294 0.00652121 0.00361466 0.00440393 0.00271433 0.00585921 0.00664677 0.02098045 0.00741106 0.02296072 0.00145529 0.01926324 0.06990578 0.01816057 0.00992686 
0.01135845 0.03681546 0.00647417 0.00362248 0.00431949 0.00272215 0.00584468 0.00660330 0.02142987 0.00729382 0.02285602 0.00145301 0.01937146 0.07065371 0.01826814 0.00941940 
0.01152228 0.03751519 0.00641882 0.00362723 0.00424445 0.00272686 0.00583096 0.00656403 0.02193486 0.00719053 0.02275134 0.00145060 0.01948462 0.07143123 0.01837714 0.00895119 
0.01169827 0.03820075 0.00635549 0.00362892 0.00417919 0.00272849 0.00581790 0.00652929 0.02249356 0.00710191 0.02264714 0.00144805 0.01960201 0.07223700 0.01848751 0.00852460 
0.01188568 0.03887084 0.00628455 0.00362755 0.00412404 0.00272705 0.00580535 0.00649938 0.02310379 0.00702860 0.02254391 0.00144537 0.01972283 0.07306960 0.01859923 0.00814174 
0.01208378 0.03952420 0.00620640 0.00362315 0.00407932 0.00272258 0.00579322 0.00647453 0.02376307 0.00697116 0.02244211 0.00144254 0.01984618 0.07392755 0.01871226 0.00780455 
0.01229183 0.04015967 0.00612147 0.00361574 0.00404532 0.00271516 0.00578142 0.00645498 0.02446858 0.00693004 0.02234218 0.00143957 0.01997115 0.07480929 0.01882659 0.00751470 
0.01250914 0.04077618 0.00603021 0.00360538 0.00402229 0.00270485 0.00576989 0.00644089 0.02521724 0.00690563 0.02224452 0.00143645 0.02009671 0.07571322 0.01894220 0.00727364 
0.01273498 0.04137272 0.00593312 0.00359211 0.00401044 0.00269174 0.00575861 0.00643242 0.02600566 0.00689821 0.02214954 0.00143318 0.02022184 0.07663763 0.01905911 0.00708257 
0.01296869 0.04194838 0.00583070 0.00357603 0.00400996 0.00267595 0.00574756 0.00642965 0.02683019 0.00690795 0.02205758 0.00142975 0.02034545 0.07758074 0.01917731 0.00694243 
0.01320961 0.04250234 0.00572349 0.00355719 0.00402097 0.00265759 0.00573676 0.00643265 0.02768693 0.00693497 0.02196899 0.00142616 0.02046644 0.07854070 0.01929679 0.00685389 
0.01345714 0.04303387 0.00561203 0.00353570 0.00404357 0.00263680 0.00572626 0.00644143 0.02857174 0.00697923 0.02188409 0.00142241 0.02058368 0.07951555 0.01941755 0.00681736 
0.01371070 0.04354236 0.00549689 0.00351166 0.00407783 0.00261372 0.00571610 0.00645598 0.02948028 0.00704066 0.02180314 0.00141848 0.02069605 0.08050325 0.01953959 0.00683300 
0.01396975 0.04402725 0.00537865 0.00348517 0.00412374 0.00258852 0.00570638 0.00647623 0.03040799 0.00711904 0.02172641 0.00141438 0.02080243 0.08150164 0.01966287 0.00690066 
0.01423381 0.04448813 0.00525791 0.00345636 0.00418128 0.00256136 0.00569718 0.00650209 0.03135016 0.00721409 0.02165411 0.00141009 0.02090173 0.08250848 0.01978735 0.00701995 
0.01450244 0.04492466 0.00513525 0.00342535 0.00425037 0.00253243 0.00568862 0.00653340 0.03230194 0.00732543 0.02158645 0.00140562 0.02099288 0.08352140 0.01991299 0.00719018 
0.01477524 0.04533661 0.00501127 0.00339227 0.00433088 0.00250192 0.00568083 0.00657001 0.03325834 0.00745259 0.02152359 0.00140095 0.02107483 0.08453792 0.02003970 0.00741041 
0.01505189 0.04572385 0.00488659 0.00335727 0.00442265 0.00247001 0.00567395 0.00661169 0.03421430 0.00759500 0.02146567 0.00139609 0.02114662 0.08555544 0.02016738 0.00767941 
0.01533208 0.04608635 0.00476180 0.00332049 0.00452547 0.00243692 0.00566814 0.00665820 0.03516468 0.00775202 0.02141281 0.00139103 0.02120731 0.08657125 0.02029590 0.00799570 
0.01561560 0.04642418 0.00463750 0.00328208 0.00463906 0.00240285 0.00566354 0.00670925 0.03610430 0.00792293 0.02136510 0.00138576 0.02125606 0.08758252 0.02042510 0.00835753 
0.01590226 0.04673753 0.00451427 0.00324220 0.00476313 0.00236803 0.00566034 0.00676455 0.03702799 0.00810694 0.02132260 0.00138028 0.02129208 0.08858629 0.02055478 0.00876290 
0.01619192 0.04702665 0.00439269 0.00320100 0.00489733 0.00233266 0.00565869 0.00682374 0.03793060 0.00830317 0.02128536 0.00137458 0.02131468 0.08957949 0.02068471 0.00920958 
0.01648449 0.04729191 0.00427333 0.00315865 0.00504126 0.00229697 0.00565878 0.00688647 0.03880702 0.00851068 0.02125340 0.00136867 0.02132326 0.09055892 0.02081461 0.00969507 
0.01677995 0.04753378 0.00415675 0.00311531 0.00519449 0.00226118 0.00566077 0.00695235 0.03965224 0.00872849 0.02122673 0.00136253 0.02131731 0.09152129 0.02094417 0.01021667 
0.01707829 0.04775280 0.00404346 0.00307114 0.00535654 0.00222551 0.00566484 0.00702097 0.04046135 0.00895555 0.02120532 0.00135618 0.02129642 0.09246320 0.02107305 0.01077146 
0.01737955 0.04794961 0.00393400 0.00302632 0.00552690 0.00219018 0.00567115 0.00709190 0.04122960 0.00919075 0.02118916 0.00134960 0.02126030 0.09338116 0.02120084 0.01135632 
0.01768380 0.04812493 0.00382885 0.00298101 0.00570501 0.00215540 0.00567987 0.00716472 0.04195242 0.00943295 0.02117820 0.00134280 0.02120876 0.09427159 0.02132712 0.01196794 
0.01799116 0.04827956 0.00372848 0.00293538 0.00589029 0.00212139 0.00569113 0.00723896 0.04262541 0.00968097 0.02117238 0.00133578 0.02114171 0.09513084 0.02145140 0.01260285 
0.01830174 0.04841439 0.00363332 0.00288959 0.00608211 0.00208835 0.00570509 0.00731416 0.04324445 0.00993362 0.02117164 0.00132855 0.02105919 0.09595521 0.02157316 0.01325740 
0.01861570 0.04853036 0.00354381 0.00284380 0.00627981 0.00205650 0.00572187 0.00738986 0.04380565 0.01018965 0.02117591 0.00132111 0.02096134 0.09674099 0.02169184 0.01392782 
0.01893319 0.04862850 0.00346033 0.00279819 0.00648272 0.00202602 0.00574159 0.00746559 0.04430542 0.01044783 0.02118509 0.00131346 0.02084843 0.09748441 0.02180685 0.01461024 
0.01925439 0.04870986 0.00338322 0.00275291 0.00669013 0.00199709 0.00576434 0.00754088 0.04474048 0.01070689 0.02119911 0.00130563 0.02072081 0.09818173 0.02191757 0.01530064 
0.01957946 0.04877560 0.00331283 0.00270812 0.00690131 0.00196991 0.00579019 0.00761527 0.04510789 0.01096559 0.02121788 0.00129761 0.02057896 0.09882924 0.02202332 0.01599497 
0.01990857 0.04882689 0.00324944 0.00266397 0.00711550 0.00194464 0.00581922 0.00768829 0.04540507 0.01122268 0.02124129 0.00128942 0.02042346 0.09942329 0.02212342 0.01668909 
0.02024186 0.04886496 0.00319331 0.00262062 0.00733195 0.00192143 0.00585146 0.00775950 0.04562980 0.01147691 0.02126925 0.00128108 0.02025496 0.09996029 0.02221716 0.01737884 
0.02057948 0.04889107 0.00314468 0.00257822 0.00754986 0.00190044 0.00588694 0.00782846 0.04578031 0.01172707 0.02130166 0.00127261 0.02007424 0.10043677 0.02230382 0.01806004 
0.02092154 0.04890654 0.00310375 0.00253690 0.00776846 0.00188180 0.00592564 0.00789474 0.04585518 0.01197196 0.02133842 0.00126403 0.01988213 0.10084942 0.02238265 0.01872851 
0.02126811 0.04891267 0.00307066 0.00249682 0.00798693 0.00186562 0.00596755 0.00795794 0.04585348 0.01221043 0.02137943 0.00125536 0.01967956 0.10119507 0.02245290 0.01938012 
0.02161926 0.04891081 0.00304556 0.00245810 0.00820448 0.00185203 0.00601261 0.00801767 0.04577467 0.01244135 0.02142460 0.00124663 0.01946752 0.10147077 0.02251384 0.02001078 
0.02197498 0.04890233 0.00302853 0.00242088 0.00842032 0.00184112 0.00606075 0.00807358 0.04561871 0.01266365 0.02147381 0.00123787 0.01924706 0.10167380 0.02256473 0.02061648 
0.02233525 0.04888857 0.00301964 0.00238528 0.00863364 0.00183296 0.00611188 0.00812531 0.04538597 0.01287630 0.02152698 0.00122912 0.01901928 0.10180171 0.02260483 0.02119331 
0.02269997 0.04887090 0.00301891 0.00235143 0.00884366 0.00182763 0.00616588 0.00817255 0.04507731 0.01307833 0.02158400 0.00122041 0.01878533 0.10185234 0.02263346 0.02173748 
0.02306901 0.04885066 0.00302635 0.00231943 0.00904959 0.00182518 0.00622259 0.00821502 0.04469407 0.01326884 0.02164476 0.00121177 0.01854637 0.10182388 0.02264992 0.02224537 
0.02344217 0.04882921 0.00304191 0.00228942 0.00925067 0.00182565 0.00628186 0.00825245 0.04423800 0.01344697 0.02170918 0.00120326 0.01830361 0.10171485 0.02265360 0.02271352 
0.02381919 0.04880784 0.00306553 0.00226147 0.00944616 0.00182906 0.00634348 0.00828463 0.04371137 0.01361195 0.02177715 0.00119492 0.01805825 0.10152419 0.02264389 0.02313865 
0.02419977 0.04878785 0.00309712 0.00223571 0.00963533 0.00183543 0.00640725 0.00831134 0.04311685 0.01376310 0.02184856 0.00118680 0.01781150 0.10125124 0.02262026 0.02351771 
0.02458351 0.04877048 0.00313655 0.00221222 0.00981748 0.00184475 0.00647293 0.00833243 0.04245758 0.01389978 0.02192330 0.00117894 0.01756455 0.10089579 0.02258223 0.02384788 
0.02496997 0.04875695 0.00318367 0.00219109 0.00999193 0.00185700 0.00654027 0.00834777 0.04173714 0.01402146 0.02200126 0.00117141 0.01731859 0.10045810 0.02252937 0.02412661 
0.02535864 0.04874841 0.00323830 0.00217240 0.01015804 0.00187214 0.00660899 0.00835725 0.04095950 0.01412768 0.02208233 0.00116426 0.01707477 0.09993893 0.02246135 0.02435161 
0.02574894 0.04874597 0.00330023 0.00215624 0.01031520 0.00189014 0.00667880 0.00836082 0.04012904 0.01421806 0.02216637 0.00115755 0.01683419 0.09933953 0.02237790 0.02452090 
0.02614023 0.04875067 0.00336926 0.00214267 0.01046283 0.00191093 0.00674939 0.00835843 0.03925052 0.01429232 0.02225326 0.00115134 0.01659792 0.09866168 0.02227886 0.02463280 
0.02653181 0.04876348 0.00344511 0.00213175 0.01060039 0.00193444 0.00682044 0.00835009 0.03832904 0.01435027 0.02234286 0.00114569 0.01636696 0.09790770 0.02216413 0.02468597 
0.02692292 0.04878531 0.00352754 0.00212355 0.01072739 0.00196059 0.00689161 0.00833583 0.03737005 0.01439178 0.02243501 0.00114068 0.01614227 0.09708047 0.02203373 0.02467939 
0.02731273 0.04881698 0.00361623 0.00211811 0.01084336 0.00198927 0.00696257 0.00831572 0.03637929 0.01441684 0.02252957 0.00113636 0.01592471 0.09618338 0.02188778 0.02461241 
0.02770037 0.04885923 0.00371091 0.00211548 0.01094791 0.00202038 0.00703294 0.00828985 0.03536277 0.01442550 0.02262635 0.00113281 0.01571507 0.09522040 0.02172649 0.02448475 
0.02808491 0.04891271 0.00381123 0.00211571 0.01104066 0.00205381 0.00710239 0.00825835 0.03432675 0.01441793 0.02272519 0.00113010 0.01551408 0.09419604 0.02155019 0.02429648 
0.02846540 0.04897798 0.00391686 0.00211881 0.01112129 0.00208942 0.00717053 0.00822138 0.03327768 0.01439434 0.02282588 0.00112829 0.01532234 0.09311533 0.02135933 0.02404808 
0.02884081 0.04905548 0.00402745 0.00212482 0.01118953 0.00212708 0.00723701 0.00817911 0.03222219 0.01435505 0.02292824 0.00112745 0.01514039 0.09198384 0.02115444 0.02374038 
0.02921013 0.04914558 0.00414265 0.00213376 0.01124517 0.00216664 0.00730146 0.00813176 0.03116706 0.01430045 0.02303203 0.00112765 0.01496867 0.09080764 0.02093619 0.02337463 
0.02957226 0.04924852 0.00426207 0.00214562 0.01128802 0.00220795 0.00736352 0.00807956 0.03011915 0.01423102 0.02313703 0.00112897 0.01480752 0.08959326 0.02070536 0.02295244 
0.02992614 0.04936445 0.00438534 0.00216042 0.01131798 0.00225085 0.00742282 0.00802276 0.02908536 0.01414730 0.02324301 0.00113145 0.01465716 0.08834771 0.02046282 0.02247583 
0.03027066 0.04949341 0.00451207 0.00217814 0.01133497 0.00229517 0.00747901 0.00796164 0.02807265 0.01404988 0.02334973 0.00113518 0.01451775 0.08707841 0.02020955 0.02194718 
0.03060472 0.04963529 0.00464187 0.00219878 0.01133897 0.00234075 0.00753177 0.00789649 0.02708791 0.01393945 0.02345692 0.00114021 0.01438931 0.08579316 0.01994667 0.02136925 
0.03092720 0.04978992 0.00477432 0.00222230 0.01133001 0.00238741 0.00758075 0.00782762 0.02613800 0.01381674 0.02356432 0.00114660 0.01427178 0.08450013 0.01967535 0.02074518 
0.03123703 0.04995698 0.00490904 0.00224869 0.01130817 0.00243497 0.00762565 0.00775536 0.02522967 0.01368253 0.02367166 0.00115441 0.01416502 0.08320775 0.01939689 0.02007844 
0.03153310 0.05013604 0.00504561 0.00227789 0.01127358 0.00248325 0.00766618 0.00768004 0.02436949 0.01353766 0.02377868 0.00116368 0.01406877 0.08192474 0.01911265 0.01937287 
0.03181439 0.05032657 0.00518362 0.00230986 0.01122641 0.00253207 0.00770204 0.00760201 0.02356389 0.01338300 0.02388509 0.00117447 0.01398270 0.08066000 0.01882410 0.01863260 
0.03207985 0.05052791 0.00532268 0.00234454 0.01116689 0.00258124 0.00773299 0.00752161 0.02281903 0.01321946 0.02399063 0.00118681 0.01390638 0.07942257 0.01853277 0.01786211 
0.03232852 0.05073931 0.00546236 0.00238187 0.01109529 0.00263059 0.00775880 0.00743922 0.02214084 0.01304800 0.02409501 0.00120074 0.01383932 0.07822160 0.01824024 0.01706612 
0.03255945 0.05095988 0.00560227 0.00242176 0.01101192 0.00267993 0.00777925 0.00735518 0.02153491 0.01286958 0.02419799 0.00121630 0.01378093 0.07706625 0.01794818 0.01624964 
0.03277177 0.05118867 0.00574200 0.00246413 0.01091713 0.00272909 0.00779417 0.00726987 0.02100652 0.01268519 0.02429931 0.00123350 0.01373057 0.07596565 0.01765826 0.01541792 
0.03296464 0.05142458 0.00588114 0.00250888 0.01081131 0.00277787 0.00780341 0.00718364 0.02056055 0.01249583 0.02439872 0.00125236 0.01368755 0.07492884 0.01737224 0.01457640 
0.03313733 0.05166646 0.00601932 0.00255591 0.01069490 0.00282611 0.00780684 0.00709684 0.02020147 0.01230251 0.02449601 0.00127289 0.01365110 0.07396469 0.01709185 0.01373073 
0.03328913 0.05191303 0.00615612 0.00260510 0.01056835 0.00287364 0.00780437 0.00700984 0.01993332 0.01210624 0.02459097 0.00129509 0.01362043 0.07308185 0.01681887 0.01288670 
0.03341945 0.05216297 0.00629117 0.00265632 0.01043218 0.00292028 0.00779595 0.00692297 0.01975966 0.01190802 0.02468342 0.00131895 0.01359471 0.07228869 0.01655507 0.01205022 
0.03352776 0.05241483 0.00642409 0.00270945 0.01028689 0.00296588 0.00778154 0.00683656 0.01968355 0.01170883 0.02477322 0.00134446 0.01357305 0.07159323 0.01630220 0.01122729 
0.03361361 0.05266715 0.00655450 0.00276432 0.01013306 0.00301027 0.00776116 0.00675094 0.01970754 0.01150966 0.02486024 0.00137159 0.01355459 0.07100305 0.01606201 0.01042395 
0.03367667 0.05291837 0.00668204 0.00282080 0.00997126 0.00305331 0.00773485 0.00666642 0.01983361 0.01131143 0.02494440 0.00140031 0.01353842 0.07052529 0.01583619 0.00964629 
0.03371668 0.05316689 0.00680636 0.00287871 0.00980209 0.00309484 0.00770268 0.00658328 0.02006321 0.01111508 0.02502565 0.00143057 0.01352364 0.07016656 0.01562640 0.00890034 
0.03373346 0.05341107 0.00692710 0.00293788 0.00962618 0.00313474 0.00766477 0.00650181 0.02039718 0.01092149 0.02510400 0.00146233 0.01350936 0.06993285 0.01543423 0.00819211 
0.03372694 0.05364925 0.00704393 0.00299814 0.00944415 0.00317286 0.00762126 0.00642228 0.02083580 0.01073150 0.02517949 0.00149551 0.01349469 0.06982956 0.01526123 0.00752749 
0.03369716 0.05387974 0.00715652 0.00305928 0.00925666 0.00320908 0.00757233 0.00634491 0.02137874 0.01054591 0.02525221 0.00153005 0.01347877 0.06986138 0.01510882 0.00691225 
0.03364423 0.05410084 0.00726455 0.00312112 0.00906437 0.00324329 0.00751820 0.00626994 0.02202505 0.01036548 0.02532232 0.00156586 0.01346077 0.07003229 0.01497838 0.00635200 
0.03356837 0.05431086 0.00736771 0.00318345 0.00886794 0.00327537 0.00745911 0.00619756 0.02277320 0.01019090 0.02539000 0.00160285 0.01343989 0.07034550 0.01487116 0.00585214 
0.03346989 0.05450814 0.00746571 0.00324605 0.00866805 0.00330523 0.00739534 0.00612796 0.02362105 0.01002283 0.02545552 0.00164093 0.01341537 0.07080344 0.01478831 0.00541781 
0.03334918 0.05469102 0.00755827 0.00330871 0.00846536 0.00333277 0.00732720 0.00606129 0.02456586 0.00986186 0.02551920 0.00167998 0.01338652 0.07140771 0.01473087 0.00505389 
0.03320674 0.05485791 0.00764512 0.00337121 0.00826055 0.00335790 0.00725501 0.00599770 0.02560430 0.00970851 0.02558140 0.00171988 0.01335269 0.07215908 0.01469973 0.00476494 
0.03304312 0.05500725 0.00772600 0.00343332 0.00805428 0.00338055 0.00717916 0.00593731 0.02673246 0.00956326 0.02564257 0.00176050 0.01331328 0.07305744 0.01469567 0.00455519 
0.03285899 0.05513757 0.00780067 0.00349481 0.00784721 0.00340066 0.00710002 0.00588020 0.02794589 0.00942650 0.02570319 0.00180172 0.01326777 0.07410186 0.01471933 0.00442845 
0.03265507 0.05524747 0.00786891 0.00355544 0.00763998 0.00341816 0.00701801 0.00582645 0.02923958 0.00929858 0.02576383 0.00184339 0.01321571 0.07529051 0.01477121 0.00438816 
0.03243215 0.05533564 0.00793050 0.00361499 0.00743325 0.00343300 0.00693356 0.00577610 0.03060802 0.00917978 0.02582510 0.00188535 0.01315673 0.07662073 0.01485165 0.00443731 
0.03219110 0.05540088 0.00798525 0.00367320 0.00722762 0.00344514 0.00684713 0.00572920 0.03204521 0.00907030 0.02588768 0.00192746 0.01309051 0.07808899 0.01496086 0.00457841 
0.03193283 0.05544211 0.00803298 0.00372986 0.00702370 0.00345455 0.00675917 0.00568575 0.03354469 0.00897030 0.02595229 0.00196955 0.01301683 0.07969096 0.01509889 0.00481351 
0.03165832 0.05545837 0.00807354 0.00378472 0.00682208 0.00346120 0.00667017 0.00564574 0.03509956 0.00887984 0.02601971 0.00201146 0.01293555 0.08142148 0.01526565 0.00514413 
0.03136859 0.05544886 0.00810678 0.00383756 0.00662332 0.00346508 0.00658062 0.00560914 0.03670255 0.00879896 0.02609077 0.00205301 0.01284661 0.08327465 0.01546089 0.00557126 
0.03106468 0.05541289 0.00813258 0.00388814 0.00642798 0.00346618 0.00649103 0.00557591 0.03834603 0.00872761 0.02616635 0.00209404 0.01275002 0.08524382 0.01568422 0.00609537 
0.03074770 0.05534997 0.00815083 0.00393625 0.00623656 0.00346449 0.00640189 0.00554597 0.04002208 0.00866570 0.02624737 0.00213436 0.01264588 0.08732166 0.01593511 0.00671634 
0.03041876 0.05525976 0.00816146 0.00398167 0.00604955 0.00346003 0.00631370 0.00551926 0.04172248 0.00861306 0.02633477 0.00217380 0.01253437 0.08950020 0.01621290 0.00743351 
0.03007899 0.05514209 0.00816441 0.00402418 0.00586744 0.00345282 0.00622698 0.00549568 0.04343883 0.00856949 0.02642954 0.00221218 0.01241575 0.09177090 0.01651677 0.00824565 
0.02972954 0.05499698 0.00815963 0.00406360 0.00569065 0.00344287 0.00614222 0.00547513 0.04516252 0.00853473 0.02653268 0.00224932 0.01229035 0.09412468 0.01684579 0.00915093 
0.02937156 0.05482465 0.00814711 0.00409973 0.00551960 0.00343022 0.00605992 0.00545748 0.04688484 0.00850848 0.02664521 0.00228505 0.01215859 0.09655202 0.01719892 0.01014699 
0.02900620 0.05462547 0.00812686 0.00413240 0.00535467 0.00341491 0.00598054 0.00544262 0.04859701 0.00849038 0.02676815 0.00231920 0.01202094 0.09904300 0.01757500 0.01123087 
0.02863461 0.05440006 0.00809890 0.00416143 0.00519619 0.00339699 0.00590457 0.00543041 0.05029023 0.00848005 0.02690253 0.00235159 0.01187795 0.10158738 0.01797277 0.01239907 
0.02825791 0.05414918 0.00806328 0.00418668 0.00504451 0.00337651 0.00583245 0.00542070 0.05195570 0.00847707 0.02704938 0.00238207 0.01173022 0.10417469 0.01839087 0.01364752 
0.02787722 0.05387383 0.00802010 0.00420801 0.00489990 0.00335353 0.00576461 0.00541335 0.05358476 0.00848099 0.02720970 0.00241048 0.01157843 0.10679428 0.01882786 0.01497164 
0.02749363 0.05357519 0.00796944 0.00422530 0.00476262 0.00332813 0.00570146 0.00540821 0.05516883 0.00849133 0.02738446 0.00243665 0.01142330 0.10943540 0.01928223 0.01636634 
0.02710819 0.05325461 0.00791144 0.00423844 0.00463290 0.00330037 0.00564339 0.00540514 0.05669955 0.00850758 0.02757461 0.00246046 0.01126561 0.11208732 0.01975243 0.01782604 
0.02672194 0.05291366 0.00784625 0.00424735 0.00451093 0.00327034 0.00559073 0.00540397 0.05816881 0.00852923 0.02778105 0.00248176 0.01110616 0.11473934 0.02023682 0.01934468 
0.02633586 0.05255408 0.00777405 0.00425197 0.00439688 0.00323813 0.00554383 0.00540457 0.05956876 0.00855576 0.02800463 0.00250044 0.01094582 0.11738093 0.02073377 0.02091579 
0.02595091 0.05217778 0.00769503 0.00425224 0.00429088 0.00320384 0.00550298 0.00540678 0.06089192 0.00858661 0.02824614 0.00251638 0.01078546 0.12000176 0.02124160 0.02253249 
0.02556799 0.05178685 0.00760944 0.00424813 0.00419304 0.00316757 0.00546842 0.00541047 0.06213118 0.00862125 0.02850629 0.00252947 0.01062602 0.12259182 0.02175860 0.02418754 
0.02518797 0.05138351 0.00751752 0.00423964 0.00410345 0.00312942 0.00544038 0.00541550 0.06327988 0.00865913 0.02878573 0.00253964 0.01046842 0.12514142 0.02228310 0.02587337 
0.02481166 0.05097016 0.00741955 0.00422678 0.00402214 0.00308951 0.00541905 0.00542174 0.06433182 0.00869973 0.02908499 0.00254680 0.01031361 0.12764136 0.02281342 0.02758213 
0.02443985 0.05054932 0.00731584 0.00420959 0.00394914 0.00304796 0.00540457 0.00542907 0.06528136 0.00874249 0.02940454 0.00255090 0.01016257 0.13008290 0.02334789 0.02930574 
0.02407324 0.05012361 0.00720670 0.00418813 0.00388445 0.00300490 0.00539704 0.00543739 0.06612338 0.00878692 0.02974472 0.00255189 0.01001625 0.13245786 0.02388489 0.03103591 
0.02371252 0.04969580 0.00709250 0.00416248 0.00382804 0.00296045 0.00539652 0.00544659 0.06685337 0.00883250 0.03010578 0.00254974 0.00987562 0.13475870 0.02442284 0.03276422 
0.02335832 0.04926870 0.00697360 0.00413273 0.00377987 0.00291476 0.00540304 0.00545660 0.06746746 0.00887875 0.03048782 0.00254444 0.00974166 0.13697850 0.02496020 0.03448214 
0.02301121 0.04884523 0.00685040 0.00409901 0.00373984 0.00286797 0.00541657 0.00546733 0.06796244 0.00892521 0.03089085 0.00253598 0.00961529 0.13911108 0.02549551 0.03618110 
0.02267173 0.04842834 0.00672331 0.00406147 0.00370789 0.00282021 0.00543704 0.00547873 0.06833577 0.00897144 0.03131475 0.00252440 0.00949746 0.14115099 0.02602736 0.03785255 
0.02234037 0.04802104 0.00659277 0.00402027 0.00368387 0.00277165 0.00546434 0.00549075 0.06858562 0.00901703 0.03175923 0.00250972 0.00938908 0.14309354 0.02655444 0.03948796 
0.02201759 0.04762633 0.00645924 0.00397560 0.00366768 0.00272244 0.00549834 0.00550337 0.06871089 0.00906159 0.03222390 0.00249200 0.00929103 0.14493487 0.02707550 0.04107897 
0.02170379 0.04724724 0.00632317 0.00392767 0.00365915 0.00267274 0.00553882 0.00551656 0.06871122 0.00910476 0.03270821 0.00247131 0.00920417 0.14667189 0.02758939 0.04261733 
0.02139934 0.04688675 0.00618506 0.00387670 0.00365811 0.00262271 0.00558558 0.00553033 0.06858700 0.00914623 0.03321149 0.00244773 0.00912932 0.14830235 0.02809505 0.04409505 
0.02110458 0.04654782 0.00604540 0.00382294 0.00366440 0.00257252 0.00563832 0.00554469 0.06833936 0.00918571 0.03373291 0.00242138 0.00906726 0.14982482 0.02859151 0.04550437 
0.02081982 0.04623334 0.00590471 0.00376664 0.00367780 0.00252234 0.00569675 0.00555967 0.06797020 0.00922294 0.03427150 0.00239238 0.00901874 0.15123870 0.02907791 0.04683789 
0.02054534 0.04594612 0.00576352 0.00370810 0.00369813 0.00247233 0.00576051 0.00557530 0.06748215 0.00925769 0.03482615 0.00236085 0.00898445 0.15254416 0.02955349 0.04808854 
0.02028138 0.04568888 0.00562235 0.00364759 0.00372515 0.00242269 0.00582924 0.00559166 0.06687859 0.00928978 0.03539562 0.00232696 0.00896505 0.15374218 0.03001757 0.04924970 
0.02002818 0.04546421 0.00548174 0.00358543 0.00375864 0.00237358 0.00590251 0.00560880 0.06616364 0.00931905 0.03597854 0.00229086 0.00896115 0.15483449 0.03046959 0.05031518 
0.01978594 0.04527457 0.00534223 0.00352193 0.00379836 0.00232518 0.00597990 0.00562682 0.06534210 0.00934537 0.03657338 0.00225275 0.00897329 0.15582352 0.03090908 0.05127934 
0.01955485 0.04512225 0.00520438 0.00345743 0.00384408 0.00227767 0.00606093 0.00564581 0.06441950 0.00936865 0.03717852 0.00221282 0.00900197 0.15671242 0.03133567 0.05213704 
0.01933509 0.04500939 0.00506873 0.00339225 0.00389553 0.00223124 0.00614512 0.00566588 0.06340198 0.00938884 0.03779220 0.00217127 0.00904764 0.15750495 0.03174906 0.05288375 
0.01912681 0.04493794 0.00493582 0.00332674 0.00395247 0.00218605 0.00623195 0.00568713 0.06229637 0.00940589 0.03841257 0.00212832 0.00911069 0.15820545 0.03214907 0.05351554 
0.01893017 0.04490962 0.00480621 0.00326125 0.00401462 0.00214230 0.00632090 0.00570971 0.06111004 0.00941981 0.03903767 0.00208421 0.00919145 0.15881879 0.03253557 0.05402915 
0.01874532 0.04492598 0.00468042 0.00319613 0.00408173 0.00210015 0.00641141 0.00573375 0.05985096 0.00943060 0.03966543 0.00203917 0.00929021 0.15935034 0.03290852 0.05442198 
0.01857237 0.04498829 0.00455898 0.00313173 0.00415353 0.00205979 0.00650295 0.00575937 0.05852758 0.00943833 0.04029374 0.00199345 0.00940717 0.15980583 0.03326795 0.05469213 
0.01841148 0.04509761 0.00444242 0.00306840 0.00422974 0.00202139 0.00659495 0.00578674 0.05714886 0.00944305 0.04092038 0.00194730 0.00954250 0.16019134 0.03361395 0.05483841 
0.01826274 0.04525475 0.00433124 0.00300650 0.00431008 0.00198511 0.00668684 0.00581599 0.05572415 0.00944485 0.04154309 0.00190098 0.00969632 0.16051324 0.03394665 0.05486037 
0.01812629 0.04546026 0.00422592 0.00294636 0.00439430 0.00195113 0.00677805 0.00584728 0.05426319 0.00944383 0.04215957 0.00185475 0.00986865 0.16077807 0.03426624 0.05475829 
0.01800224 0.04571442 0.00412695 0.00288832 0.00448209 0.00191960 0.00686803 0.00588075 0.05277600 0.00944012 0.04276748 0.00180887 0.01005951 0.16099250 0.03457295 0.05453321 
0.01789069 0.04601723 0.00403478 0.00283271 0.00457320 0.00189068 0.00695621 0.00591656 0.05127290 0.00943383 0.04336445 0.00176362 0.01026882 0.16116325 0.03486703 0.05418689 
0.01779174 0.04636846 0.00394984 0.00277984 0.00466734 0.00186453 0.00704205 0.00595485 0.04976439 0.00942511 0.04394813 0.00171925 0.01049646 0.16129704 0.03514876 0.05372184 
0.01770549 0.04676755 0.00387254 0.00273003 0.00476424 0.00184127 0.00712502 0.00599577 0.04826109 0.00941410 0.04451615 0.00167602 0.01074226 0.16140046 0.03541841 0.05314132 
0.01763203 0.04721371 0.00380327 0.00268355 0.00486361 0.00182106 0.00720459 0.00603944 0.04677373 0.00940097 0.04506620 0.00163420 0.01100601 0.16147997 0.03567629 0.05244929 
0.01757142 0.04770585 0.00374238 0.00264068 0.00496519 0.00180401 0.00728028 0.00608599 0.04531301 0.00938585 0.04559598 0.00159403 0.01128741 0.16154179 0.03592267 0.05165039 
0.01752373 0.04824264 0.00369019 0.00260169 0.00506869 0.00179024 0.00735161 0.00613555 0.04388962 0.00936892 0.04610324 0.00155577 0.01158614 0.16159186 0.03615783 0.05074996 
0.01748900 0.04882246 0.00364701 0.00256679 0.00517385 0.00177986 0.00741814 0.00618821 0.04251409 0.00935031 0.04658582 0.00151964 0.01190182 0.16163575 0.03638204 0.04975399 
0.01746728 0.04944345 0.00361310 0.00253621 0.00528038 0.00177296 0.00747944 0.00624407 0.04119680 0.00933019 0.04704162 0.00148589 0.01223403 0.16167864 0.03659551 0.04866905 
0.01745855 0.05010350 0.00358869 0.00251013 0.00538802 0.00176963 0.00753514 0.00630322 0.03994787 0.00930869 0.04746863 0.00145471 0.01258230 0.16172525 0.03679844 0.04750234 
0.01746282 0.05080025 0.00357396 0.00248873 0.00549650 0.00176995 0.00758487 0.00636570 0.03877712 0.00928596 0.04786496 0.00142632 0.01294609 0.16177980 0.03699101 0.04626155 
0.01748003 0.05153114 0.00356908 0.00247214 0.00560555 0.00177396 0.00762834 0.00643158 0.03769399 0.00926211 0.04822883 0.00140091 0.01332486 0.16184595 0.03717333 0.04495488 
0.01751012 0.05229337 0.00357416 0.00246048 0.00571489 0.00178172 0.00766525 0.00650089 0.03670748 0.00923728 0.04855859 0.00137864 0.01371799 0.16192681 0.03734547 0.04359099 
0.01755298 0.05308396 0.00358928 0.00245385 0.00582427 0.00179326 0.00769538 0.00657362 0.03582611 0.00921156 0.04885273 0.00135968 0.01412483 0.16202486 0.03750746 0.04217892 
0.01760847 0.05389973 0.00361448 0.00245229 0.00593343 0.00180860 0.00771854 0.00664978 0.03505787 0.00918506 0.04910989 0.00134416 0.01454470 0.16214199 0.03765927 0.04072805 
0.01767640 0.05473734 0.00364976 0.00245585 0.00604210 0.00182772 0.00773457 0.00672934 0.03441013 0.00915785 0.04932887 0.00133221 0.01497687 0.16227942 0.03780082 0.03924805 
0.01775655 0.05559329 0.00369507 0.00246453 0.00615002 0.00185063 0.00774337 0.00681224 0.03388960 0.00913001 0.04950863 0.00132393 0.01542057 0.16243773 0.03793200 0.03774883 
0.01784864 0.05646396 0.00375033 0.00247831 0.00625695 0.00187729 0.00774487 0.00689842 0.03350232 0.00910159 0.04964831 0.00131941 0.01587500 0.16261688 0.03805259 0.03624046 
0.01795236 0.05734560 0.00381542 0.00249712 0.00636262 0.00190765 0.00773907 0.00698778 0.03325358 0.00907263 0.04974721 0.00131869 0.01633931 0.16281616 0.03816239 0.03473310 
0.01806733 0.05823439 0.00389016 0.00252090 0.00646680 0.00194165 0.00772600 0.00708021 0.03314787 0.00904317 0.04980484 0.00132182 0.01681264 0.16303425 0.03826109 0.03323698 
0.01819312 0.05912640 0.00397434 0.00254953 0.00656924 0.00197920 0.00770572 0.00717556 0.03318889 0.00901323 0.04982087 0.00132883 0.01729407 0.16326921 0.03834836 0.03176229 
0.01832925 0.06001766 0.00406773 0.00258287 0.00666970 0.00202022 0.00767835 0.00727369 0.03337949 0.00898280 0.04979516 0.00133970 0.01778267 0.16351855 0.03842384 0.03031916 
0.01847517 0.06090416 0.00417001 0.00262076 0.00676794 0.00206458 0.00764408 0.00737440 0.03372163 0.00895189 0.04972777 0.00135440 0.01827747 0.16377921 0.03848710 0.02891756 
0.01863029 0.06178188 0.00428088 0.00266300 0.00686374 0.00211216 0.00760309 0.00747750 0.03421639 0.00892046 0.04961893 0.00137290 0.01877746 0.16404761 0.03853771 0.02756726 
0.01879394 0.06264679 0.00439995 0.00270938 0.00695687 0.00216281 0.00755564 0.00758275 0.03486394 0.00888851 0.04946907 0.00139511 0.01928163 0.16431974 0.03857518 0.02627776 
0.01896542 0.06349490 0.00452683 0.00275967 0.00704712 0.00221635 0.00750202 0.00768993 0.03566354 0.00885599 0.04927878 0.00142095 0.01978891 0.16459114 0.03859902 0.02505823 
0.01914393 0.06432226 0.00466106 0.00281358 0.00713429 0.00227262 0.00744257 0.00779876 0.03661349 0.00882286 0.04904884 0.00145030 0.02029822 0.16485700 0.03860873 0.02391745 
0.01932865 0.06512495 0.00480219 0.00287085 0.00721817 0.00233141 0.00737763 0.00790896 0.03771121 0.00878908 0.04878019 0.00148303 0.02080846 0.16511220 0.03860379 0.02286377 
0.01951868 0.06589918 0.00494969 0.00293116 0.00729857 0.00239252 0.00730763 0.00802023 0.03895317 0.00875460 0.04847394 0.00151897 0.02131850 0.16535138 0.03858369 0.02190504 
0.01971307 0.06664122 0.00510303 0.00299419 0.00737531 0.00245571 0.00723298 0.00813227 0.04033493 0.00871935 0.04813136 0.00155795 0.02182720 0.16556897 0.03854792 0.02104857 
0.01991084 0.06734748 0.00526165 0.00305959 0.00744823 0.00252076 0.00715415 0.00824474 0.04185119 0.00868330 0.04775384 0.00159979 0.02233338 0.16575930 0.03849600 0.02030107 
0.02011093 0.06801447 0.00542495 0.00312703 0.00751716 0.00258740 0.00707163 0.00835729 0.04349575 0.00864638 0.04734295 0.00164426 0.02283587 0.16591665 0.03842747 0.01966862 
0.02031225 0.06863888 0.00559230 0.00319611 0.00758196 0.00265537 0.00698593 0.00846959 0.04526157 0.00860856 0.04690033 0.00169114 0.02333346 0.16603530 0.03834190 0.01915662 
0.02051367 0.06921755 0.00576308 0.00326648 0.00764250 0.00272440 0.00689758 0.00858127 0.04714083 0.00856978 0.04642779 0.00174018 0.02382495 0.16610961 0.03823892 0.01876978 
0.02071404 0.06974749 0.00593662 0.00333773 0.00769867 0.00279421 0.00680715 0.00869195 0.04912492 0.00853002 0.04592721 0.00179113 0.02430912 0.16613409 0.03811819 0.01851204 
0.02091214 0.07022590 0.00611225 0.00340949 0.00775036 0.00286450 0.00671518 0.00880127 0.05120450 0.00848924 0.04540056 0.00184371 0.02478473 0.16610345 0.03797943 0.01838659 
0.02110678 0.07065018 0.00628928 0.00348134 0.00779748 0.00293496 0.00662227 0.00890884 0.05336957 0.00844743 0.04484989 0.00189765 0.02525055 0.16601270 0.03782245 0.01839584 
0.02129670 0.07101795 0.00646701 0.00355290 0.00783997 0.00300530 0.00652900 0.00901429 0.05560949 0.00840458 0.04427734 0.00195265 0.02570536 0.16585716 0.03764711 0.01854137 
0.02148067 0.07132703 0.00664473 0.00362375 0.00787779 0.00307520 0.00643596 0.00911724 0.05791307 0.00836070 0.04368505 0.00200841 0.02614792 0.16563257 0.03745335 0.01882397 
0.02165744 0.07157547 0.00682174 0.00369352 0.00791090 0.00314435 0.00634374 0.00921731 0.06026862 0.00831581 0.04307525 0.00206463 0.02657699 0.16533511 0.03724121 0.01924359 
0.02182578 0.07176158 0.00699732 0.00376179 0.00793928 0.00321242 0.00625294 0.00931414 0.06266399 0.00826995 0.04245016 0.00212101 0.02699138 0.16496144 0.03701081 0.01979935 
0.02198444 0.07188387 0.00717075 0.00382820 0.00796297 0.00327911 0.00616414 0.00940735 0.06508667 0.00822317 0.04181201 0.00217722 0.02738986 0.16450880 0.03676236 0.02048956 
0.02213222 0.07194111 0.00734134 0.00389236 0.00798197 0.00334409 0.00607792 0.00949659 0.06752387 0.00817555 0.04116305 0.00223296 0.02777126 0.16397499 0.03649619 0.02131173 
0.02226796 0.07193233 0.00750839 0.00395392 0.00799636 0.00340706 0.00599484 0.00958153 0.06996256 0.00812717 0.04050550 0.00228793 0.02813440 0.16335847 0.03621270 0.02226254 
0.02239049 0.07185680 0.00767121 0.00401251 0.00800621 0.00346770 0.00591546 0.00966182 0.07238958 0.00807815 0.03984156 0.00234180 0.02847814 0.16265833 0.03591243 0.02333792 
0.02249875 0.07171403 0.00782913 0.00406780 0.00801162 0.00352572 0.00584033 0.00973716 0.07479168 0.00802862 0.03917337 0.00239429 0.02880136 0.16187433 0.03559600 0.02453303 
0.02259168 0.07150380 0.00798148 0.00411948 0.00801271 0.00358081 0.00576994 0.00980724 0.07715564 0.00797871 0.03850304 0.00244509 0.02910300 0.16100694 0.03526414 0.02584231 
0.02266831 0.07122612 0.00812765 0.00416724 0.00800964 0.00363268 0.00570480 0.00987180 0.07946835 0.00792861 0.03783262 0.00249393 0.02938201 0.16005736 0.03491768 0.02725950 
0.02272775 0.07088126 0.00826701 0.00421080 0.00800257 0.00368107 0.00564538 0.00993056 0.08171686 0.00787850 0.03716407 0.00254052 0.02963740 0.15902746 0.03455758 0.02877769 
0.02276917 0.07046973 0.00839899 0.00424992 0.00799171 0.00372571 0.00559211 0.00998331 0.08388847 0.00782857 0.03649929 0.00258461 0.02986821 0.15791986 0.03418485 0.03038935 
0.02279183 0.06999229 0.00852302 0.00428434 0.00797728 0.00376635 0.00554542 0.01002982 0.08597084 0.00777907 0.03584008 0.00262595 0.03007356 0.15673787 0.03380064 0.03208640 
0.02279511 0.06944992 0.00863859 0.00431387 0.00795953 0.00380275 0.00550567 0.01006991 0.08795204 0.00773022 0.03518815 0.00266430 0.03025260 0.15548548 0.03340618 0.03386021 
0.02277845 0.06884386 0.00874520 0.00433831 0.00793872 0.00383469 0.00547323 0.01010342 0.08982064 0.00768229 0.03454510 0.00269945 0.03040458 0.15416736 0.03300278 0.03570171 
0.02274145 0.06817554 0.00884240 0.00435751 0.00791516 0.00386198 0.00544840 0.01013023 0.09156579 0.00763554 0.03391243 0.00273121 0.03052878 0.15278881 0.03259183 0.03760140 
0.02268377 0.06744663 0.00892978 0.00437134 0.00788915 0.00388442 0.00543147 0.01015023 0.09317727 0.00759026 0.03329153 0.00275940 0.03062457 0.15135577 0.03217480 0.03954944 
0.02260522 0.06665902 0.00900696 0.00437969 0.00786105 0.00390187 0.00542267 0.01016335 0.09464559 0.00754675 0.03268366 0.00278386 0.03069141 0.14987470 0.03175322 0.04153569 
0.02250575 0.06581479 0.00907361 0.00438250 0.00783121 0.00391417 0.00542220 0.01016955 0.09596204 0.00750530 0.03208999 0.00280446 0.03072881 0.14835261 0.03132868 0.04354977 
0.02238540 0.06491623 0.00912946 0.00437971 0.00780002 0.00392120 0.00543024 0.01016882 0.09711877 0.00746624 0.03151154 0.00282109 0.03073640 0.14679699 0.03090281 0.04558114 
0.02224437 0.06396579 0.00917425 0.00437132 0.00776788 0.00392288 0.00544690 0.01016118 0.09810881 0.00742987 0.03094923 0.00283367 0.03071388 0.14521573 0.03047729 0.04761915 
0.02208297 0.06296614 0.00920779 0.00435732 0.00773521 0.00391913 0.00547227 0.01014668 0.09892616 0.00739652 0.03040385 0.00284214 0.03066105 0.14361710 0.03005382 0.04965311 
0.02190167 0.06192010 0.00922994 0.00433777 0.00770246 0.00390990 0.00550640 0.01012541 0.09956584 0.00736651 0.02987609 0.00284645 0.03057780 0.14200965 0.02963412 0.05167234 
0.02170106 0.06083063 0.00924061 0.00431274 0.00767008 0.00389517 0.00554928 0.01009748 0.10002390 0.00734015 0.02936651 0.00284660 0.03046413 0.14040218 0.02921991 0.05366628 
0.02148187 0.05970090 0.00923976 0.00428231 0.00763854 0.00387494 0.00560090 0.01006303 0.10029747 0.00731776 0.02887556 0.00284260 0.03032014 0.13880364 0.02881292 0.05562449 
0.02124495 0.05853415 0.00922738 0.00424663 0.00760832 0.00384924 0.00566117 0.01002223 0.10038480 0.00729965 0.02840358 0.00283450 0.03014602 0.13722309 0.02841484 0.05753675 
0.02099131 0.05733382 0.00920353 0.00420583 0.00757992 0.00381812 0.00572998 0.00997530 0.10028528 0.00728610 0.02795082 0.00282235 0.02994210 0.13566959 0.02802735 0.05939312 
0.02072206 0.05610342 0.00916832 0.00416010 0.00755383 0.00378167 0.00580719 0.00992247 0.09999945 0.00727739 0.02751741 0.00280625 0.02970879 0.13415218 0.02765208 0.06118401 
0.02043844 0.05484660 0.00912190 0.00410965 0.00753057 0.00373999 0.00589260 0.00986398 0.09952899 0.00727380 0.02710341 0.00278632 0.02944661 0.13267976 0.02729063 0.06290019 
0.02014183 0.05356710 0.00906449 0.00405469 0.00751065 0.00369322 0.00598599 0.00980013 0.09887676 0.00727557 0.02670878 0.00276269 0.02915620 0.13126103 0.02694450 0.06453289 
0.01983370 0.05226877 0.00899633 0.00399548 0.00749458 0.00364150 0.00608711 0.00973123 0.09804679 0.00728292 0.02633340 0.00273553 0.02883830 0.12990445 0.02661516 0.06607383 
0.01951563 0.05095552 0.00891774 0.00393229 0.00748287 0.00358503 0.00619566 0.00965760 0.09704420 0.00729606 0.02597709 0.00270501 0.02849376 0.12861811 0.02630396 0.06751528 
0.01918930 0.04963134 0.00882905 0.00386541 0.00747604 0.00352401 0.00631132 0.00957961 0.09587529 0.00731514 0.02563959 0.00267135 0.02812354 0.12740972 0.02601219 0.06885011 
0.01885649 0.04830029 0.00873067 0.00379515 0.00747458 0.00345866 0.00643373 0.00949761 0.09454742 0.00734033 0.02532060 0.00263478 0.02772871 0.12628651 0.02574100 0.07007178 
0.01851904 0.04696646 0.00862303 0.00372182 0.00747900 0.00338925 0.00656252 0.00941200 0.09306900 0.00737173 0.02501976 0.00259553 0.02731041 0.12525518 0.02549145 0.07117445 
0.01817887 0.04563401 0.00850661 0.00364578 0.00748977 0.00331604 0.00669727 0.00932319 0.09144947 0.00740942 0.02473667 0.00255386 0.02686993 0.12432186 0.02526449 0.07215296 
0.01783797 0.04430709 0.00838193 0.00356737 0.00750736 0.00323933 0.00683755 0.00923159 0.08969924 0.00745345 0.02447090 0.00251006 0.02640860 0.12349200 0.02506091 0.07300288 
0.01749836 0.04298991 0.00824955 0.00348695 0.00753222 0.00315944 0.00698289 0.00913762 0.08782960 0.00750381 0.02422198 0.00246441 0.02592788 0.12277040 0.02488141 0.07372051 
0.01716211 0.04168666 0.00811006 0.00340490 0.00756479 0.00307669 0.00713282 0.00904174 0.08585271 0.00756049 0.02398945 0.00241721 0.02542930 0.12216109 0.02472650 0.07430293 
0.01683131 0.04040155 0.00796408 0.00332160 0.00760547 0.00299144 0.00728684 0.00894436 0.08378148 0.00762340 0.02377281 0.00236878 0.02491446 0.12166734 0.02459659 0.07474798 
0.01650806 0.03913875 0.00781227 0.00323743 0.00765464 0.00290404 0.00744443 0.00884596 0.08162956 0.00769243 0.02357156 0.00231944 0.02438506 0.12129162 0.02449191 0.07505429 
0.01619446 0.03790242 0.00765531 0.00315279 0.00771265 0.00281488 0.00760506 0.00874697 0.07941117 0.00776742 0.02338522 0.00226951 0.02384286 0.12103553 0.02441256 0.07522128 
0.01589260 0.03669671 0.00749389 0.00306806 0.00777982 0.00272434 0.00776817 0.00864783 0.07714111 0.00784819 0.02321331 0.00221932 0.02328965 0.12089987 0.02435846 0.07524912 
0.01560452 0.03552567 0.00732876 0.00298363 0.00785643 0.00263282 0.00793322 0.00854901 0.07483459 0.00793449 0.02305534 0.00216921 0.02272732 0.12088452 0.02432940 0.07513880 
0.01533226 0.03439334 0.00716063 0.00289989 0.00794273 0.00254072 0.00809963 0.00845093 0.07250719 0.00802603 0.02291087 0.00211951 0.02215777 0.12098852 0.02432501 0.07489204 
0.01507776 0.03330367 0.00699028 0.00281723 0.00803893 0.00244847 0.00826684 0.00835402 0.07017475 0.00812251 0.02277948 0.00207055 0.02158297 0.12121000 0.02434476 0.07451131 
0.01484293 0.03226053 0.00681846 0.00273602 0.00814519 0.00235647 0.00843426 0.00825871 0.06785325 0.00822355 0.02266075 0.00202266 0.02100489 0.12154624 0.02438798 0.07399980 
0.01462959 0.03126770 0.00664595 0.00265663 0.00826162 0.00226514 0.00860132 0.00816542 0.06555874 0.00832875 0.02255431 0.00197615 0.02042554 0.12199367 0.02445384 0.07336139 
0.01443945 0.03032886 0.00647351 0.00257943 0.00838830 0.00217490 0.00876744 0.00807452 0.06330722 0.00843767 0.02245982 0.00193134 0.01984695 0.12254784 0.02454137 0.07260064 
0.01427413 0.02944755 0.00630192 0.00250476 0.00852525 0.00208617 0.00893204 0.00798641 0.06111454 0.00854985 0.02237698 0.00188853 0.01927112 0.12320353 0.02464948 0.07172272 
0.01413514 0.02862721 0.00613196 0.00243297 0.00867244 0.00199937 0.00909455 0.00790145 0.05899629 0.00866475 0.02230552 0.00184801 0.01870010 0.12395471 0.02477691 0.07073339 
0.01402387 0.02787113 0.00596438 0.00236437 0.00882979 0.00191489 0.00925440 0.00781997 0.05696772 0.00878186 0.02224521 0.00181006 0.01813587 0.12479461 0.02492233 0.06963898 
0.01394154 0.02718244 0.00579993 0.00229927 0.00899715 0.00183314 0.00941104 0.00774230 0.05504360 0.00890058 0.02219583 0.00177494 0.01758043 0.12571577 0.02508425 0.06844629 
0.01388926 0.02656410 0.00563935 0.00223797 0.00917433 0.00175451 0.00956391 0.00766874 0.05323818 0.00902034 0.02215725 0.00174288 0.01703573 0.12671006 0.02526109 0.06716260 
0.01386798 0.02601890 0.00548335 0.00218073 0.00936109 0.00167938 0.00971249 0.00759955 0.05156504 0.00914051 0.02212932 0.00171413 0.01650368 0.12776876 0.02545118 0.06579558 
0.01387847 0.02554943 0.00533263 0.00212781 0.00955712 0.00160810 0.00985626 0.00753500 0.05003702 0.00926046 0.02211196 0.00168888 0.01598615 0.12888262 0.02565275 0.06435324 
0.01392136 0.02515809 0.00518786 0.00207944 0.00976204 0.00154103 0.00999470 0.00747528 0.04866611 0.00937952 0.02210511 0.00166731 0.01548496 0.13004190 0.02586396 0.06284392 
0.01399708 0.02484704 0.00504967 0.00203583 0.00997546 0.00147850 0.01012735 0.00742061 0.04746342 0.00949705 0.02210872 0.00164959 0.01500184 0.13123644 0.02608291 0.06127616 
0.01410592 0.02461823 0.00491869 0.00199717 0.01019687 0.00142082 0.01025374 0.00737115 0.04643905 0.00961236 0.02212280 0.00163587 0.01453847 0.13245575 0.02630765 0.05965870 
0.01424794 0.02447337 0.00479547 0.00196363 0.01042576 0.00136828 0.01037342 0.00732703 0.04560202 0.00972478 0.02214736 0.00162624 0.01409646 0.13368908 0.02653618 0.05800043 
0.01442308 0.02441390 0.00468057 0.00193536 0.01066152 0.00132115 0.01048599 0.00728836 0.04496024 0.00983365 0.02218243 0.00162082 0.01367730 0.13492547 0.02676649 0.05631027 
0.01463104 0.02444101 0.00457448 0.00191246 0.01090351 0.00127967 0.01059104 0.00725521 0.04452042 0.00993829 0.02222805 0.00161965 0.01328241 0.13615384 0.02699654 0.05459718 
0.01487138 0.02455561 0.00447765 0.00189504 0.01115104 0.00124408 0.01068821 0.00722764 0.04428802 0.01003805 0.02228427 0.00162278 0.01291312 0.13736308 0.02722430 0.05287006 
0.01514345 0.02475832 0.00439050 0.00188316 0.01140336 0.00121455 0.01077718 0.00720565 0.04426722 0.01013228 0.02235117 0.00163023 0.01257064 0.13854210 0.02744775 0.05113773 
0.01544646 0.02504949 0.00431338 0.00187688 0.01165967 0.00119127 0.01085762 0.00718924 0.04446087 0.01022037 0.02242879 0.00164198 0.01225607 0.13967992 0.02766490 0.04940885 
0.01577941 0.02542914 0.00424663 0.00187621 0.01191912 0.00117436 0.01092927 0.00717837 0.04487048 0.01030172 0.02251719 0.00165800 0.01197040 0.14076577 0.02787380 0.04769186 
0.01614115 0.02589698 0.00419049 0.00188115 0.01218084 0.00116394 0.01099189 0.00717296 0.04549618 0.01037576 0.02261641 0.00167822 0.01171451 0.14178912 0.02807253 0.04599498 
0.01653038 0.02645242 0.00414520 0.00189167 0.01244390 0.00116009 0.01104526 0.00717292 0.04633672 0.01044195 0.02272649 0.00170257 0.01148915 0.14273978 0.02825927 0.04432610 
0.01694563 0.02709453 0.00411090 0.00190772 0.01270734 0.00116287 0.01108920 0.00717812 0.04738947 0.01049980 0.02284743 0.00173094 0.01129496 0.14360797 0.02843225 0.04269279 
0.01738530 0.02782205 0.00408772 0.00192923 0.01297016 0.00117229 0.01112357 0.00718840 0.04865042 0.01054885 0.02297923 0.00176318 0.01113244 0.14438439 0.02858979 0.04110222 
0.01784765 0.02863340 0.00407570 0.00195609 0.01323134 0.00118835 0.01114827 0.00720359 0.05011421 0.01058868 0.02312184 0.00179915 0.01100197 0.14506025 0.02873031 0.03956114 
0.01833081 0.02952664 0.00407485 0.00198819 0.01348984 0.00121100 0.01116322 0.00722350 0.05177416 0.01061893 0.02327518 0.00183867 0.01090380 0.14562738 0.02885234 0.03807585 
0.01883281 0.03049951 0.00408512 0.00202539 0.01374461 0.00124018 0.01116838 0.00724788 0.05362228 0.01063929 0.02343917 0.00188154 0.01083807 0.14607827 0.02895453 0.03665216 
0.01935157 0.03154941 0.00410639 0.00206752 0.01399455 0.00127578 0.01116375 0.00727651 0.05564932 0.01064950 0.02361364 0.00192756 0.01080477 0.14640610 0.02903565 0.03529536 
0.01988495 0.03267340 0.00413852 0.00211440 0.01423859 0.00131768 0.01114938 0.00730911 0.05784484 0.01064936 0.02379841 0.00197649 0.01080377 0.14660481 0.02909460 0.03401022 
0.02043069 0.03386820 0.00418128 0.00216583 0.01447563 0.00136572 0.01112531 0.00734540 0.06019727 0.01063873 0.02399325 0.00202808 0.01083484 0.14666911 0.02913043 0.03280092 
0.02098653 0.03513022 0.00423442 0.00222160 0.01470460 0.00141971 0.01109167 0.00738508 0.06269396 0.01061754 0.02419788 0.00208207 0.01089761 0.14659458 0.02914232 0.03167112 
0.02155011 0.03645554 0.00429762 0.00228145 0.01492440 0.00147944 0.01104859 0.00742784 0.06532124 0.01058576 0.02441198 0.00213820 0.01099158 0.14637762 0.02912963 0.03062387 
0.02211908 0.03783990 0.00437052 0.00234515 0.01513398 0.00154466 0.01099624 0.00747336 0.06806457 0.01054346 0.02463516 0.00219618 0.01111617 0.14601552 0.02909184 0.02966164 
0.02269106 0.03927878 0.00445271 0.00241243 0.01533228 0.00161511 0.01093484 0.00752129 0.07090855 0.01049075 0.02486702 0.00225572 0.01127066 0.14550649 0.02902862 0.02878631 
0.02326367 0.04076733 0.00454373 0.00248301 0.01551829 0.00169051 0.01086461 0.00757129 0.07383706 0.01042781 0.02510707 0.00231651 0.01145424 0.14484960 0.02893977 0.02799918 
0.02383457 0.04230043 0.00464310 0.00255660 0.01569100 0.00177054 0.01078583 0.00762302 0.07683336 0.01035489 0.02535479 0.00237827 0.01166601 0.14404489 0.02882526 0.02730097 
0.02440141 0.04387272 0.00475026 0.00263289 0.01584947 0.00185486 0.01069880 0.00767612 0.07988016 0.01027231 0.02560962 0.00244068 0.01190495 0.14309328 0.02868524 0.02669184 
0.02496193 0.04547855 0.00486465 0.00271159 0.01599278 0.00194312 0.01060384 0.00773024 0.08295977 0.01018045 0.02587094 0.00250344 0.01216998 0.14199660 0.02852000 0.02617139 
0.02551389 0.04711207 0.00498566 0.00279237 0.01612005 0.00203496 0.01050132 0.00778501 0.08605419 0.01007975 0.02613810 0.00256623 0.01245991 0.14075758 0.02832998 0.02573867 
0.02605516 0.04876722 0.00511265 0.00287491 0.01623048 0.00212999 0.01039161 0.00784008 0.08914522 0.00997071 0.02641038 0.00262877 0.01277350 0.13937981 0.02811579 0.02539225 
0.02658366 0.05043773 0.00524495 0.00295889 0.01632329 0.00222781 0.01027512 0.00789511 0.09221460 0.00985391 0.02668707 0.00269076 0.01310944 0.13786773 0.02787818 0.02513016 
0.02709746 0.05211719 0.00538187 0.00304397 0.01639780 0.00232801 0.01015227 0.00794974 0.09524409 0.00972996 0.02696738 0.00275189 0.01346633 0.13622660 0.02761806 0.02495001 
0.02759469 0.05379903 0.00552269 0.00312981 0.01645338 0.00243016 0.01002352 0.00800366 0.09821562 0.00959954 0.02725051 0.00281189 0.01384276 0.13446248 0.02733644 0.02484894 
0.02807363 0.05547660 0.00566668 0.00321610 0.01648945 0.00253384 0.00988932 0.00805653 0.10111139 0.00946337 0.02753564 0.00287049 0.01423724 0.13258212 0.02703451 0.02482371 
0.02853269 0.05714313 0.00581309 0.00330249 0.01650554 0.00263862 0.00975016 0.00810804 0.10391398 0.00932224 0.02782193 0.00292743 0.01464826 0.13059302 0.02671354 0.02487069 
0.02897043 0.05879182 0.00596116 0.00338866 0.01650125 0.00274405 0.00960653 0.00815790 0.10660648 0.00917695 0.02810850 0.00298246 0.01507426 0.12850329 0.02637495 0.02498594 
0.02938553 0.06041582 0.00611014 0.00347427 0.01647624 0.00284970 0.00945895 0.00820583 0.10917259 0.00902836 0.02839448 0.00303534 0.01551368 0.12632164 0.02602024 0.02516520 
0.02977686 0.06200831 0.00625924 0.00355901 0.01643027 0.00295513 0.00930791 0.00825156 0.11159671 0.00887736 0.02867899 0.00308586 0.01596494 0.12405733 0.02565101 0.02540395 
0.03014344 0.06356249 0.00640772 0.00364257 0.01636320 0.00305991 0.00915396 0.00829485 0.11386407 0.00872486 0.02896117 0.00313383 0.01642644 0.12172006 0.02526897 0.02569748 
0.03048445 0.06507163 0.00655480 0.00372463 0.01627496 0.00316360 0.00899760 0.00833548 0.11596082 0.00857181 0.02924012 0.00317905 0.01689658 0.11931998 0.02487588 0.02604086 
0.03079925 0.06652912 0.00669974 0.00380490 0.01616558 0.00326579 0.00883939 0.00837326 0.11787409 0.00841915 0.02951501 0.00322137 0.01737377 0.11686756 0.02447358 0.02642904 
0.03108736 0.06792846 0.00684178 0.00388309 0.01603518 0.00336605 0.00867984 0.00840800 0.11959211 0.00826787 0.02978498 0.00326064 0.01785645 0.11437358 0.02406394 0.02685687 
0.03134848 0.06926335 0.00698021 0.00395891 0.01588397 0.00346400 0.00851949 0.00843956 0.12110428 0.00811893 0.03004922 0.00329675 0.01834306 0.11184901 0.02364889 0.02731913 
0.03158249 0.07052765 0.00711432 0.00403210 0.01571225 0.00355923 0.00835886 0.00846780 0.12240122 0.00797332 0.03030694 0.00332958 0.01883206 0.10930498 0.02323040 0.02781059 
0.03178942 0.07171550 0.00724342 0.00410241 0.01552043 0.00365138 0.00819847 0.00849265 0.12347485 0.00783200 0.03055740 0.00335907 0.01932197 0.10675269 0.02281043 0.02832602 
0.03196948 0.07282128 0.00736686 0.00416959 0.01530899 0.00374009 0.00803883 0.00851401 0.12431843 0.00769594 0.03079987 0.00338516 0.01981133 0.10420335 0.02239097 0.02886025 
0.03212305 0.07383968 0.00748402 0.00423342 0.01507851 0.00382501 0.00788045 0.00853185 0.12492663 0.00756608 0.03103371 0.00340780 0.02029872 0.10166812 0.02197398 0.02940818 
0.03225065 0.07476571 0.00759428 0.00429368 0.01482965 0.00390584 0.00772381 0.00854616 0.12529551 0.00744333 0.03125828 0.00342699 0.02078278 0.09915804 0.02156144 0.02996486 
0.03235296 0.07559476 0.00769709 0.00435018 0.01456318 0.00398227 0.00756940 0.00855694 0.12542263 0.00732859 0.03147304 0.00344274 0.02126221 0.09668395 0.02115525 0.03052548 
0.03243080 0.07632257 0.00779193 0.00440273 0.01427992 0.00405403 0.00741766 0.00856424 0.12530697 0.00722272 0.03167748 0.00345506 0.02173575 0.09425644 0.02075732 0.03108539 
0.03248513 0.07694535 0.00787830 0.00445117 0.01398078 0.00412086 0.00726906 0.00856812 0.12494901 0.00712654 0.03187115 0.00346402 0.02220221 0.09188579 0.02036946 0.03164019 
0.03251704 0.07745971 0.00795577 0.00449536 0.01366677 0.00418254 0.00712401 0.00856869 0.12435069 0.00704080 0.03205368 0.00346968 0.02266047 0.08958191 0.01999347 0.03218567 
0.03252773 0.07786274 0.00802394 0.00453515 0.01333893 0.00423887 0.00698293 0.00856606 0.12351542 0.00696625 0.03222476 0.00347213 0.02310947 0.08735429 0.01963103 0.03271792 
0.03251849 0.07815201 0.00808245 0.00457044 0.01299839 0.00428967 0.00684620 0.00856039 0.12244802 0.00690353 0.03238414 0.00347147 0.02354822 0.08521192 0.01928376 0.03323328 
0.03249073 0.07832560 0.00813099 0.00460114 0.01264635 0.00433480 0.00671419 0.00855185 0.12115474 0.00685325 0.03253166 0.00346784 0.02397582 0.08316328 0.01895320 0.03372838 
0.03244594 0.07838211 0.00816931 0.00462716 0.01228405 0.00437413 0.00658724 0.00854063 0.11964317 0.00681596 0.03266721 0.00346136 0.02439141 0.08121629 0.01864077 0.03420019 
0.03238565 0.07832069 0.00819719 0.00464844 0.01191278 0.00440756 0.00646568 0.00852696 0.11792223 0.00679213 0.03279075 0.00345221 0.02479424 0.07937823 0.01834780 0.03464598 
0.03231147 0.07814101 0.00821447 0.00466495 0.01153388 0.00443505 0.00634981 0.00851109 0.11600209 0.00678216 0.03290232 0.00344054 0.02518361 0.07765574 0.01807548 0.03506335 
0.03222506 0.07784331 0.00822104 0.00467665 0.01114873 0.00445653 0.00623991 0.00849328 0.11389410 0.00678638 0.03300203 0.00342653 0.02555891 0.07605481 0.01782492 0.03545024 
0.03212809 0.07742842 0.00821684 0.00468355 0.01075873 0.00447201 0.00613623 0.00847380 0.11161073 0.00680503 0.03309005 0.00341039 0.02591960 0.07458067 0.01759707 0.03580494 
0.03202226 0.07689769 0.00820186 0.00468564 0.01036531 0.00448151 0.00603899 0.00845296 0.10916549 0.00683828 0.03316660 0.00339230 0.02626522 0.07323787 0.01739277 0.03612608 
0.03190928 0.07625306 0.00817613 0.00468297 0.00996993 0.00448505 0.00594842 0.00843107 0.10657284 0.00688622 0.03323199 0.00337249 0.02659538 0.07203016 0.01721271 0.03641261 
0.03179083 0.07549705 0.00813976 0.00467557 0.00957404 0.00448272 0.00586469 0.00840847 0.10384807 0.00694887 0.03328657 0.00335116 0.02690975 0.07096058 0.01705744 0.03666385 
0.03166860 0.07463270 0.00809286 0.00466351 0.00917910 0.00447460 0.00578796 0.00838548 0.10100725 0.00702612 0.03333074 0.00332854 0.02720810 0.07003135 0.01692740 0.03687943 
0.03154423 0.07366363 0.00803563 0.00464686 0.00878657 0.00446082 0.00571838 0.00836245 0.09806710 0.00711784 0.03336497 0.00330484 0.02749025 0.06924396 0.01682285 0.03705930 
0.03141932 0.07259397 0.00796829 0.00462572 0.00839789 0.00444152 0.00565605 0.00833974 0.09504488 0.00722376 0.03338976 0.00328029 0.02775608 0.06859908 0.01674394 0.03720373 
0.03129540 0.07142840 0.00789112 0.00460019 0.00801450 0.00441686 0.00560109 0.00831770 0.09195830 0.00734355 0.03340564 0.00325512 0.02800555 0.06809665 0.01669065 0.03731327 
0.03117396 0.07017207 0.00780444 0.00457039 0.00763779 0.00438702 0.00555356 0.00829670 0.08882537 0.00747682 0.03341320 0.00322955 0.02823867 0.06773583 0.01666284 0.03738878 
0.03105641 0.06883064 0.00770860 0.00453645 0.00726914 0.00435222 0.00551352 0.00827710 0.08566435 0.00762306 0.03341305 0.00320378 0.02845553 0.06751504 0.01666022 0.03743135 
0.03094406 0.06741019 0.00760400 0.00449854 0.00690987 0.00431268 0.00548101 0.00825925 0.08249356 0.00778170 0.03340581 0.00317804 0.02865624 0.06743197 0.01668238 0.03744235 
0.03083815 0.06591727 0.00749107 0.00445680 0.00656126 0.00426863 0.00545605 0.00824350 0.07933134 0.00795210 0.03339213 0.00315254 0.02884099 0.06748363 0.01672875 0.03742335 
0.03073981 0.06435880 0.00737028 0.00441141 0.00622456 0.00422034 0.00543865 0.00823021 0.07619587 0.00813355 0.03337267 0.00312746 0.02901002 0.06766632 0.01679865 0.03737614 
0.03065007 0.06274208 0.00724213 0.00436254 0.00590094 0.00416807 0.00542878 0.00821971 0.07310511 0.00832524 0.03334811 0.00310300 0.02916360 0.06797573 0.01689129 0.03730269 
