0.01281691 0.01879699 0.00280134 0.00141712 0.00826236 0.00130088 0.00549581 0.00225478 0.01502385 0.00313662 0.01156619 0.00151046 0.00907065 0.05030592 0.01599842 0.00099106 
0.01285404 0.01866712 0.00281936 0.00142634 0.00819124 0.00130686 0.00554173 0.00224193 0.01518976 0.00318175 0.01175940 0.00151072 0.00933245 0.05066662 0.01607809 0.00101444 
0.01288721 0.01851384 0.00283633 0.00143454 0.00811364 0.00131260 0.00559339 0.00223071 0.01534440 0.00322356 0.01194833 0.00151065 0.00959025 0.05098086 0.01614689 0.00103568 
0.01291605 0.01833692 0.00285218 0.00144165 0.00802986 0.00131807 0.00565044 0.00222121 0.01548636 0.00326188 0.01213134 0.00151024 0.00984278 0.05124706 0.01620444 0.00105459 
0.01294022 0.01813628 0.00286685 0.00144760 0.00794022 0.00132326 0.00571249 0.00221348 0.01561423 0.00329655 0.01230683 0.00150950 0.01008880 0.05146385 0.01625035 0.00107097 
0.01295937 0.01791197 0.00288031 0.00145235 0.00784509 0.00132814 0.00577913 0.00220759 0.01572666 0.00332743 0.01247325 0.00150843 0.01032710 0.05163000 0.01628426 0.00108465 
0.01297321 0.01766419 0.00289253 0.00145586 0.00774486 0.00133270 0.00584992 0.00220358 0.01582237 0.00335441 0.01262908 0.00150704 0.01055649 0.05174449 0.01630587 0.00109545 
0.01298145 0.01739327 0.00290351 0.00145813 0.00763999 0.00133692 0.00592442 0.00220151 0.01590009 0.00337738 0.01277290 0.00150532 0.01077584 0.05180649 0.01631486 0.00110321 
0.01298385 0.01709967 0.00291326 0.00145913 0.00753094 0.00134082 0.00600215 0.00220140 0.01595866 0.00339626 0.01290335 0.00150328 0.01098406 0.05181539 0.01631099 0.00110781 
0.01298019 0.01678402 0.00292181 0.00145890 0.00741823 0.00134437 0.00608264 0.00220330 0.01599698 0.00341100 0.01301915 0.00150092 0.01118013 0.05177080 0.01629404 0.00110911 
0.01297028 0.01644705 0.00292919 0.00145744 0.00730238 0.00134757 0.00616540 0.00220723 0.01601405 0.00342155 0.01311912 0.00149822 0.01136308 0.05167256 0.01626382 0.00110701 
0.01295398 0.01608966 0.00293547 0.00145478 0.00718398 0.00135044 0.00624994 0.00221321 0.01600896 0.00342790 0.01320218 0.00149519 0.01153202 0.05152072 0.01622021 0.00110142 
0.01293116 0.01571286 0.00294072 0.00145098 0.00706360 0.00135297 0.00633577 0.00222125 0.01598092 0.00343006 0.01326736 0.00149183 0.01168617 0.05131561 0.01616311 0.00109228 
0.01290175 0.01531778 0.00294501 0.00144609 0.00694187 0.00135518 0.00642240 0.00223136 0.01592925 0.00342804 0.01331381 0.00148812 0.01182479 0.05105777 0.01609248 0.00107954 
0.01286572 0.01490572 0.00294846 0.00144017 0.00681941 0.00135707 0.00650935 0.00224355 0.01585340 0.00342190 0.01334078 0.00148407 0.01194726 0.05074799 0.01600833 0.00106318 
0.01282306 0.01447804 0.00295115 0.00143330 0.00669688 0.00135865 0.00659615 0.00225781 0.01575295 0.00341170 0.01334767 0.00147966 0.01205307 0.05038733 0.01591070 0.00104320 
0.01277382 0.01403626 0.00295321 0.00142557 0.00657494 0.00135995 0.00668235 0.00227412 0.01562762 0.00339753 0.01333401 0.00147489 0.01214178 0.04997705 0.01579972 0.00101964 
0.01271808 0.01358197 0.00295477 0.00141706 0.00645425 0.00136097 0.00676751 0.00229249 0.01547728 0.00337951 0.01329944 0.00146976 0.01221310 0.04951870 0.01567554 0.00099254 
0.01265598 0.01311689 0.00295594 0.00140787 0.00633549 0.00136174 0.00685122 0.00231288 0.01530197 0.00335775 0.01324376 0.00146426 0.01226682 0.04901403 0.01553837 0.00096199 
0.01258766 0.01264281 0.00295688 0.00139811 0.00621934 0.00136228 0.00693308 0.00233527 0.01510186 0.00333242 0.01316691 0.00145837 0.01230285 0.04846502 0.01538848 0.00092809 
0.01251335 0.01216160 0.00295771 0.00138790 0.00610648 0.00136260 0.00701273 0.00235963 0.01487731 0.00330367 0.01306896 0.00145211 0.01232121 0.04787390 0.01522620 0.00089098 
0.01243328 0.01167520 0.00295859 0.00137733 0.00599758 0.00136274 0.00708984 0.00238594 0.01462883 0.00327170 0.01295014 0.00144545 0.01232207 0.04724309 0.01505188 0.00085081 
0.01234776 0.01118563 0.00295966 0.00136652 0.00589330 0.00136272 0.00716410 0.00241414 0.01435711 0.00323670 0.01281080 0.00143841 0.01230566 0.04657520 0.01486595 0.00080777 
0.01225711 0.01069495 0.00296106 0.00135561 0.00579429 0.00136256 0.00723524 0.00244421 0.01406302 0.00319889 0.01265144 0.00143098 0.01227239 0.04587307 0.01466888 0.00076209 
0.01216168 0.01020526 0.00296293 0.00134470 0.00570118 0.00136230 0.00730303 0.00247609 0.01374758 0.00315852 0.01247272 0.00142316 0.01222273 0.04513968 0.01446119 0.00071399 
0.01206190 0.00971868 0.00296542 0.00133391 0.00561459 0.00136194 0.00736727 0.00250974 0.01341200 0.00311581 0.01227540 0.00141495 0.01215729 0.04437817 0.01424345 0.00066374 
0.01195819 0.00923738 0.00296865 0.00132336 0.00553510 0.00136154 0.00742781 0.00254510 0.01305766 0.00307104 0.01206041 0.00140636 0.01207680 0.04359183 0.01401626 0.00061164 
0.01185103 0.00876349 0.00297276 0.00131318 0.00546327 0.00136110 0.00748451 0.00258213 0.01268610 0.00302448 0.01182878 0.00139739 0.01198206 0.04278410 0.01378028 0.00055799 
0.01174091 0.00829917 0.00297787 0.00130346 0.00539964 0.00136066 0.00753731 0.00262077 0.01229903 0.00297640 0.01158169 0.00138805 0.01187400 0.04195847 0.01353618 0.00050314 
0.01162838 0.00784656 0.00298410 0.00129433 0.00534470 0.00136024 0.00758617 0.00266096 0.01189831 0.00292709 0.01132042 0.00137835 0.01175364 0.04111858 0.01328469 0.00044743 
0.01151398 0.00740775 0.00299154 0.00128590 0.00529893 0.00135987 0.00763108 0.00270265 0.01148599 0.00287685 0.01104637 0.00136831 0.01162208 0.04026808 0.01302656 0.00039124 
0.01139830 0.00698482 0.00300029 0.00127825 0.00526273 0.00135958 0.00767208 0.00274576 0.01106421 0.00282599 0.01076105 0.00135795 0.01148051 0.03941070 0.01276257 0.00033496 
0.01128194 0.00657978 0.00301043 0.00127148 0.00523651 0.00135939 0.00770926 0.00279025 0.01063530 0.00277481 0.01046607 0.00134728 0.01133021 0.03855017 0.01249352 0.00027901 
0.01116551 0.00619457 0.00302203 0.00126570 0.00522059 0.00135933 0.00774273 0.00283605 0.01020169 0.00272361 0.01016312 0.00133634 0.01117249 0.03769026 0.01222024 0.00022380 
0.01104966 0.00583107 0.00303515 0.00126097 0.00521528 0.00135941 0.00777265 0.00288310 0.00976595 0.00267271 0.00985398 0.00132514 0.01100875 0.03683467 0.01194355 0.00016976 
0.01093503 0.00549106 0.00304983 0.00125737 0.00522082 0.00135966 0.00779921 0.00293133 0.00933074 0.00262242 0.00954051 0.00131372 0.01084043 0.03598710 0.01166432 0.00011732 
0.01082226 0.00517625 0.00306609 0.00125496 0.00523740 0.00136010 0.00782264 0.00298068 0.00889883 0.00257304 0.00922462 0.00130211 0.01066902 0.03515115 0.01138339 0.00006694 
0.01071202 0.00488822 0.00308394 0.00125382 0.00526520 0.00136075 0.00784318 0.00303109 0.00847306 0.00252488 0.00890827 0.00129035 0.01049601 0.03433037 0.01110163 0.00001906 
0.01060495 0.00462844 0.00310339 0.00125398 0.00530429 0.00136162 0.00786114 0.00308250 0.00805636 0.00247824 0.00859349 0.00127849 0.01032294 0.03352816 0.01081988 0.00002588 
0.01050171 0.00439825 0.00312441 0.00125548 0.00535475 0.00136274 0.00787683 0.00313484 0.00765170 0.00243342 0.00828230 0.00126656 0.01015136 0.03274785 0.01053899 0.00006744 
0.01040295 0.00419887 0.00314696 0.00125837 0.00541655 0.00136411 0.00789059 0.00318805 0.00726210 0.00239068 0.00797678 0.00125462 0.00998279 0.03199257 0.01025981 0.00010518 
0.01030928 0.00403136 0.00317100 0.00126265 0.00548966 0.00136575 0.00790279 0.00324208 0.00689059 0.00235032 0.00767900 0.00124271 0.00981877 0.03126532 0.00998316 0.00013867 
0.01022133 0.00389667 0.00319646 0.00126834 0.00557397 0.00136766 0.00791382 0.00329687 0.00654021 0.00231259 0.00739102 0.00123090 0.00966080 0.03056890 0.00970983 0.00016751 
0.01013970 0.00379554 0.00322325 0.00127545 0.00566933 0.00136986 0.00792407 0.00335234 0.00621400 0.00227775 0.00711492 0.00121923 0.00951036 0.02990592 0.00944062 0.00019130 
0.01006495 0.00372860 0.00325128 0.00128396 0.00577554 0.00137235 0.00793399 0.00340846 0.00591497 0.00224604 0.00685272 0.00120777 0.00936887 0.02927878 0.00917629 0.00020966 
0.00999764 0.00369628 0.00328044 0.00129387 0.00589234 0.00137513 0.00794398 0.00346516 0.00564608 0.00221769 0.00660642 0.00119657 0.00923772 0.02868966 0.00891755 0.00022223 
0.00993827 0.00369887 0.00331059 0.00130515 0.00601946 0.00137822 0.00795451 0.00352238 0.00541023 0.00219290 0.00637797 0.00118571 0.00911821 0.02814048 0.00866510 0.00022870 
0.00988732 0.00373647 0.00334160 0.00131776 0.00615654 0.00138160 0.00796602 0.00358007 0.00521023 0.00217186 0.00616926 0.00117524 0.00901158 0.02763294 0.00841960 0.00022875 
0.00984524 0.00380901 0.00337332 0.00133167 0.00630320 0.00138528 0.00797896 0.00363818 0.00504881 0.00215475 0.00598212 0.00116524 0.00891901 0.02716846 0.00818167 0.00022214 
0.00981242 0.00391624 0.00340559 0.00134682 0.00645903 0.00138925 0.00799379 0.00369666 0.00492857 0.00214174 0.00581829 0.00115577 0.00884155 0.02674822 0.00795190 0.00020861 
0.00978922 0.00405775 0.00343823 0.00136316 0.00662357 0.00139350 0.00801096 0.00375545 0.00485196 0.00213295 0.00567942 0.00114689 0.00878018 0.02637312 0.00773082 0.00018798 
0.00977594 0.00423295 0.00347106 0.00138063 0.00679631 0.00139804 0.00803093 0.00381451 0.00482132 0.00212850 0.00556705 0.00113869 0.00873576 0.02604381 0.00751892 0.00016009 
0.00977285 0.00444107 0.00350389 0.00139915 0.00697673 0.00140284 0.00805412 0.00387378 0.00483878 0.00212850 0.00548263 0.00113122 0.00870905 0.02576065 0.00731666 0.00012483 
0.00978014 0.00468118 0.00353652 0.00141864 0.00716427 0.00140791 0.00808099 0.00393321 0.00490631 0.00213302 0.00542748 0.00112455 0.00870069 0.02552374 0.00712443 0.00008213 
0.00979795 0.00495217 0.00356875 0.00143902 0.00735836 0.00141321 0.00811194 0.00399277 0.00502567 0.00214210 0.00540278 0.00111874 0.00871119 0.02533291 0.00694260 0.00003197 
0.00982639 0.00525278 0.00360037 0.00146021 0.00755837 0.00141875 0.00814739 0.00405240 0.00519841 0.00215579 0.00540960 0.00111387 0.00874094 0.02518774 0.00677147 0.00002562 
0.00986549 0.00558160 0.00363118 0.00148210 0.00776368 0.00142450 0.00818772 0.00411204 0.00542586 0.00217410 0.00544883 0.00110999 0.00879020 0.02508756 0.00661131 0.00009057 
0.00991520 0.00593705 0.00366095 0.00150461 0.00797365 0.00143044 0.00823331 0.00417167 0.00570909 0.00219701 0.00552125 0.00110716 0.00885909 0.02503144 0.00646232 0.00016274 
0.00997546 0.00631741 0.00368949 0.00152763 0.00818762 0.00143656 0.00828451 0.00423122 0.00604893 0.00222448 0.00562746 0.00110543 0.00894759 0.02501823 0.00632468 0.00024197 
0.01004609 0.00672085 0.00371659 0.00155105 0.00840492 0.00144284 0.00834166 0.00429066 0.00644594 0.00225648 0.00576789 0.00110486 0.00905557 0.02504655 0.00619850 0.00032802 
0.01012690 0.00714539 0.00374203 0.00157478 0.00862486 0.00144924 0.00840505 0.00434994 0.00690043 0.00229290 0.00594283 0.00110549 0.00918275 0.02511480 0.00608388 0.00042061 
0.01021761 0.00758894 0.00376562 0.00159869 0.00884678 0.00145576 0.00847499 0.00440900 0.00741241 0.00233366 0.00615239 0.00110737 0.00932870 0.02522121 0.00598084 0.00051939 
0.01031787 0.00804929 0.00378717 0.00162270 0.00906998 0.00146236 0.00855171 0.00446780 0.00798161 0.00237863 0.00639649 0.00111053 0.00949289 0.02536381 0.00588938 0.00062400 
0.01042730 0.00852417 0.00380649 0.00164667 0.00929379 0.00146902 0.00863547 0.00452630 0.00860748 0.00242767 0.00667489 0.00111500 0.00967464 0.02554048 0.00580946 0.00073398 
0.01054544 0.00901118 0.00382340 0.00167051 0.00951754 0.00147572 0.00872646 0.00458444 0.00928917 0.00248063 0.00698720 0.00112080 0.00987315 0.02574895 0.00574099 0.00084886 
0.01067177 0.00950789 0.00383773 0.00169411 0.00974056 0.00148243 0.00882487 0.00464218 0.01002553 0.00253730 0.00733281 0.00112796 0.01008750 0.02598682 0.00568386 0.00096810 
0.01080573 0.01001179 0.00384933 0.00171735 0.00996220 0.00148912 0.00893084 0.00469946 0.01081514 0.00259751 0.00771096 0.00113648 0.01031667 0.02625159 0.00563793 0.00109112 
0.01094670 0.01052031 0.00385807 0.00174014 0.01018182 0.00149576 0.00904449 0.00475623 0.01165627 0.00266102 0.00812073 0.00114638 0.01055950 0.02654068 0.00560300 0.00121730 
0.01109400 0.01103088 0.00386380 0.00176236 0.01039879 0.00150234 0.00916592 0.00481245 0.01254690 0.00272760 0.00856101 0.00115764 0.01081477 0.02685144 0.00557889 0.00134598 
0.01124691 0.01154088 0.00386643 0.00178392 0.01061251 0.00150882 0.00929520 0.00486806 0.01348474 0.00279700 0.00903053 0.00117025 0.01108113 0.02718115 0.00556535 0.00147646 
0.01140467 0.01204771 0.00386584 0.00180472 0.01082239 0.00151517 0.00943235 0.00492300 0.01446724 0.00286895 0.00952786 0.00118421 0.01135718 0.02752711 0.00556214 0.00160802 
0.01156648 0.01254876 0.00386198 0.00182467 0.01102789 0.00152138 0.00957739 0.00497722 0.01549156 0.00294318 0.01005144 0.00119947 0.01164143 0.02788657 0.00556899 0.00173989 
0.01173149 0.01304144 0.00385476 0.00184367 0.01122845 0.00152740 0.00973030 0.00503067 0.01655461 0.00301939 0.01059951 0.00121601 0.01193231 0.02825683 0.00558561 0.00187129 
0.01189884 0.01352321 0.00384415 0.00186164 0.01142358 0.00153323 0.00989102 0.00508328 0.01765308 0.00309728 0.01117022 0.00123378 0.01222822 0.02863520 0.00561169 0.00200142 
0.01206763 0.01399158 0.00383013 0.00187849 0.01161278 0.00153884 0.01005948 0.00513501 0.01878340 0.00317653 0.01176156 0.00125273 0.01252751 0.02901906 0.00564694 0.00212945 
0.01223693 0.01444411 0.00381269 0.00189415 0.01179560 0.00154419 0.01023559 0.00518580 0.01994182 0.00325683 0.01237141 0.00127281 0.01282849 0.02940586 0.00569101 0.00225455 
0.01240582 0.01487846 0.00379185 0.00190856 0.01197163 0.00154928 0.01041920 0.00523558 0.02112438 0.00333784 0.01299753 0.00129394 0.01312945 0.02979312 0.00574359 0.00237590 
0.01257333 0.01529235 0.00376764 0.00192163 0.01214045 0.00155408 0.01061017 0.00528430 0.02232693 0.00341924 0.01363757 0.00131606 0.01342867 0.03017848 0.00580434 0.00249267 
0.01273852 0.01568362 0.00374011 0.00193331 0.01230172 0.00155856 0.01080832 0.00533190 0.02354520 0.00350069 0.01428911 0.00133908 0.01372444 0.03055971 0.00587293 0.00260402 
0.01290043 0.01605024 0.00370935 0.00194355 0.01245510 0.00156271 0.01101344 0.00537833 0.02477475 0.00358185 0.01494963 0.00136291 0.01401505 0.03093471 0.00594902 0.00270915 
0.01305809 0.01639030 0.00367544 0.00195230 0.01260029 0.00156652 0.01122530 0.00542352 0.02601104 0.00366237 0.01561654 0.00138746 0.01429882 0.03130150 0.00603227 0.00280726 
0.01321058 0.01670200 0.00363849 0.00195950 0.01273702 0.00156997 0.01144366 0.00546742 0.02724943 0.00374193 0.01628721 0.00141263 0.01457411 0.03165829 0.00612235 0.00289760 
0.01335696 0.01698373 0.00359865 0.00196514 0.01286504 0.00157304 0.01166825 0.00550997 0.02848523 0.00382019 0.01695897 0.00143831 0.01483931 0.03200345 0.00621893 0.00297942 
0.01349633 0.01723403 0.00355606 0.00196917 0.01298415 0.00157573 0.01189876 0.00555111 0.02971369 0.00389681 0.01762910 0.00146439 0.01509289 0.03233551 0.00632169 0.00305204 
0.01362781 0.01745159 0.00351089 0.00197157 0.01309417 0.00157802 0.01213489 0.00559079 0.03093004 0.00397148 0.01829489 0.00149075 0.01533336 0.03265321 0.00643031 0.00311481 
0.01375054 0.01763529 0.00346332 0.00197233 0.01319496 0.00157991 0.01237630 0.00562896 0.03212954 0.00404387 0.01895360 0.00151728 0.01555932 0.03295545 0.00654447 0.00316713 
0.01386373 0.01778420 0.00341354 0.00197142 0.01328638 0.00158138 0.01262263 0.00566557 0.03330745 0.00411367 0.01960254 0.00154384 0.01576948 0.03324134 0.00666387 0.00320847 
0.01396661 0.01789756 0.00336179 0.00196885 0.01336835 0.00158245 0.01287352 0.00570056 0.03445912 0.00418059 0.02023901 0.00157032 0.01596259 0.03351016 0.00678820 0.00323834 
0.01405845 0.01797484 0.00330827 0.00196461 0.01344079 0.00158309 0.01312858 0.00573390 0.03557994 0.00424434 0.02086038 0.00159658 0.01613756 0.03376141 0.00691717 0.00325634 
0.01413860 0.01801568 0.00325324 0.00195870 0.01350367 0.00158333 0.01338738 0.00576552 0.03666545 0.00430464 0.02146405 0.00162250 0.01629338 0.03399477 0.00705049 0.00326216 
0.01420644 0.01801993 0.00319694 0.00195115 0.01355697 0.00158315 0.01364952 0.00579540 0.03771130 0.00436124 0.02204752 0.00164794 0.01642916 0.03421009 0.00718789 0.00325553 
0.01426144 0.01798765 0.00313963 0.00194196 0.01360070 0.00158256 0.01391455 0.00582348 0.03871330 0.00441389 0.02260833 0.00167278 0.01654413 0.03440741 0.00732908 0.00323630 
0.01430311 0.01791911 0.00308157 0.00193116 0.01363487 0.00158157 0.01418202 0.00584974 0.03966744 0.00446237 0.02314415 0.00169689 0.01663766 0.03458697 0.00747380 0.00320439 
0.01433104 0.01781478 0.00302305 0.00191877 0.01365954 0.00158019 0.01445145 0.00587415 0.04056992 0.00450647 0.02365274 0.00172013 0.01670925 0.03474914 0.00762177 0.00315983 
0.01434489 0.01767533 0.00296434 0.00190483 0.01367478 0.00157844 0.01472236 0.00589666 0.04141714 0.00454599 0.02413198 0.00174239 0.01675853 0.03489448 0.00777274 0.00310274 
0.01434441 0.01750165 0.00290572 0.00188938 0.01368067 0.00157631 0.01499426 0.00591725 0.04220576 0.00458077 0.02457989 0.00176355 0.01678527 0.03502369 0.00792644 0.00303335 
0.01432940 0.01729481 0.00284747 0.00187247 0.01367731 0.00157384 0.01526664 0.00593590 0.04293272 0.00461066 0.02499460 0.00178348 0.01678938 0.03513759 0.00808260 0.00295199 
0.01429977 0.01705608 0.00278988 0.00185412 0.01366482 0.00157103 0.01553897 0.00595260 0.04359519 0.00463553 0.02537443 0.00180208 0.01677090 0.03523715 0.00824098 0.00285908 
0.01425550 0.01678693 0.00273323 0.00183442 0.01364333 0.00156791 0.01581072 0.00596731 0.04419069 0.00465527 0.02571784 0.00181924 0.01673003 0.03532344 0.00840129 0.00275519 
0.01419664 0.01648899 0.00267780 0.00181339 0.01361298 0.00156449 0.01608136 0.00598004 0.04471702 0.00466980 0.02602344 0.00183485 0.01666710 0.03539763 0.00856329 0.00264095 
0.01412334 0.01616409 0.00262385 0.00179112 0.01357393 0.00156081 0.01635033 0.00599077 0.04517229 0.00467906 0.02629005 0.00184884 0.01658256 0.03546097 0.00872669 0.00251713 
0.01403583 0.01581420 0.00257166 0.00176767 0.01352634 0.00155689 0.01661706 0.00599949 0.04555497 0.00468300 0.02651664 0.00186110 0.01647702 0.03551478 0.00889123 0.00238462 
0.01393442 0.01544147 0.00252148 0.00174310 0.01347039 0.00155275 0.01688101 0.00600621 0.04586385 0.00468162 0.02670239 0.00187156 0.01635119 0.03556045 0.00905663 0.00224438 
0.01381951 0.01504816 0.00247356 0.00171749 0.01340627 0.00154842 0.01714158 0.00601093 0.04609808 0.00467492 0.02684664 0.00188016 0.01620594 0.03559938 0.00922260 0.00209750 
0.01369158 0.01463670 0.00242813 0.00169092 0.01333416 0.00154394 0.01739821 0.00601365 0.04625717 0.00466293 0.02694895 0.00188684 0.01604222 0.03563301 0.00938884 0.00194518 
0.01355119 0.01420960 0.00238543 0.00166346 0.01325427 0.00153933 0.01765031 0.00601439 0.04634095 0.00464571 0.02700906 0.00189153 0.01586111 0.03566278 0.00955506 0.00178871 
0.01339896 0.01376951 0.00234567 0.00163521 0.01316679 0.00153463 0.01789730 0.00601315 0.04634964 0.00462332 0.02702692 0.00189421 0.01566381 0.03569011 0.00972094 0.00162946 
0.01323562 0.01331915 0.00230903 0.00160624 0.01307195 0.00152988 0.01813859 0.00600996 0.04628379 0.00459588 0.02700265 0.00189484 0.01545159 0.03571641 0.00988617 0.00146894 
0.01306195 0.01286133 0.00227569 0.00157665 0.01296995 0.00152510 0.01837360 0.00600482 0.04614432 0.00456350 0.02693660 0.00189340 0.01522581 0.03574306 0.01005040 0.00130868 
0.01287879 0.01239891 0.00224583 0.00154653 0.01286102 0.00152033 0.01860174 0.00599778 0.04593247 0.00452632 0.02682928 0.00188988 0.01498794 0.03577135 0.01021332 0.00115035 
0.01268707 0.01193480 0.00221958 0.00151598 0.01274537 0.00151562 0.01882243 0.00598884 0.04564984 0.00448449 0.02668141 0.00188429 0.01473948 0.03580253 0.01037455 0.00099565 
0.01248777 0.01147194 0.00219707 0.00148509 0.01262324 0.00151100 0.01903510 0.00597803 0.04529833 0.00443821 0.02649388 0.00187662 0.01448203 0.03583776 0.01053375 0.00084637 
0.01228191 0.01101328 0.00217840 0.00145396 0.01249486 0.00150650 0.01923917 0.00596540 0.04488018 0.00438767 0.02626776 0.00186691 0.01421720 0.03587812 0.01069056 0.00070435 
0.01207059 0.01056178 0.00216366 0.00142270 0.01236045 0.00150217 0.01943408 0.00595097 0.04439791 0.00433308 0.02600431 0.00185519 0.01394667 0.03592457 0.01084458 0.00057146 
0.01185493 0.01012036 0.00215292 0.00139141 0.01222027 0.00149805 0.01961929 0.00593477 0.04385435 0.00427468 0.02570494 0.00184150 0.01367214 0.03597796 0.01099545 0.00044963 
0.01163610 0.00969191 0.00214621 0.00136019 0.01207453 0.00149417 0.01979424 0.00591684 0.04325256 0.00421272 0.02537121 0.00182590 0.01339532 0.03603902 0.01114277 0.00034080 
0.01141530 0.00927927 0.00214356 0.00132915 0.01192350 0.00149057 0.01995842 0.00589723 0.04259590 0.00414745 0.02500485 0.00180843 0.01311795 0.03610836 0.01128615 0.00024695 
0.01119376 0.00888520 0.00214496 0.00129839 0.01176741 0.00148729 0.02011131 0.00587597 0.04188792 0.00407914 0.02460771 0.00178919 0.01284173 0.03618643 0.01142519 0.00017005 
0.01097274 0.00851240 0.00215041 0.00126803 0.01160651 0.00148437 0.02025241 0.00585310 0.04113241 0.00400809 0.02418177 0.00176825 0.01256838 0.03627355 0.01155949 0.00011205 
0.01075349 0.00816342 0.00215985 0.00123817 0.01144106 0.00148185 0.02038127 0.00582867 0.04033333 0.00393458 0.02372913 0.00174569 0.01229957 0.03636990 0.01168866 0.00007490 
0.01053729 0.00784074 0.00217323 0.00120893 0.01127131 0.00147976 0.02049742 0.00580273 0.03949482 0.00385892 0.02325200 0.00172162 0.01203697 0.03647551 0.01181230 0.00006053 
0.01032542 0.00754669 0.00219045 0.00118040 0.01109752 0.00147814 0.02060043 0.00577531 0.03862115 0.00378142 0.02275268 0.00169615 0.01178215 0.03659025 0.01193001 0.00007080 
0.01011913 0.00728343 0.00221143 0.00115270 0.01091995 0.00147702 0.02068992 0.00574647 0.03771673 0.00370239 0.02223353 0.00166938 0.01153668 0.03671385 0.01204140 0.00010753 
0.00991969 0.00705300 0.00223603 0.00112595 0.01073888 0.00147644 0.02076549 0.00571626 0.03678603 0.00362215 0.02169700 0.00164143 0.01130203 0.03684588 0.01214610 0.00017247 
0.00972832 0.00685723 0.00226412 0.00110023 0.01055458 0.00147643 0.02082682 0.00568472 0.03583362 0.00354102 0.02114559 0.00161244 0.01107962 0.03698579 0.01224374 0.00026728 
0.00954623 0.00669780 0.00229555 0.00107567 0.01036731 0.00147702 0.02087360 0.00565190 0.03486411 0.00345932 0.02058183 0.00158252 0.01087077 0.03713286 0.01233395 0.00039355 
0.00937459 0.00657618 0.00233012 0.00105236 0.01017738 0.00147823 0.02090553 0.00561786 0.03388211 0.00337737 0.02000830 0.00155181 0.01067673 0.03728625 0.01241641 0.00055275 
0.00921455 0.00649362 0.00236767 0.00103041 0.00998507 0.00148009 0.02092240 0.00558264 0.03289224 0.00329549 0.01942756 0.00152045 0.01049863 0.03744498 0.01249077 0.00074622 
0.00906717 0.00645118 0.00240798 0.00100992 0.00979067 0.00148263 0.02092399 0.00554631 0.03189909 0.00321399 0.01884219 0.00148859 0.01033753 0.03760796 0.01255675 0.00097519 
0.00893350 0.00644970 0.00245085 0.00099099 0.00959449 0.00148587 0.02091015 0.00550890 0.03090718 0.00313319 0.01825476 0.00145635 0.01019436 0.03777397 0.01261406 0.00124073 
0.00881452 0.00648977 0.00249603 0.00097370 0.00939684 0.00148983 0.02088075 0.00547048 0.02992099 0.00305338 0.01766781 0.00142388 0.01006994 0.03794172 0.01266244 0.00154379 
0.00871112 0.00657178 0.00254331 0.00095815 0.00919804 0.00149452 0.02083572 0.00543111 0.02894485 0.00297487 0.01708384 0.00139134 0.00996499 0.03810978 0.01270166 0.00188512 
0.00862415 0.00669586 0.00259242 0.00094444 0.00899840 0.00149996 0.02077502 0.00539083 0.02798300 0.00289793 0.01650530 0.00135885 0.00988009 0.03827669 0.01273152 0.00226532 
0.00855439 0.00686192 0.00264312 0.00093263 0.00879827 0.00150617 0.02069867 0.00534970 0.02703953 0.00282285 0.01593458 0.00132656 0.00981572 0.03844087 0.01275186 0.00268480 
0.00850250 0.00706963 0.00269515 0.00092281 0.00859798 0.00151314 0.02060673 0.00530778 0.02611836 0.00274989 0.01537399 0.00129462 0.00977222 0.03860072 0.01276253 0.00314380 
0.00846910 0.00731843 0.00274825 0.00091506 0.00839788 0.00152089 0.02049931 0.00526513 0.02522325 0.00267931 0.01482576 0.00126316 0.00974981 0.03875460 0.01276343 0.00364233 
0.00845470 0.00760751 0.00280216 0.00090943 0.00819832 0.00152943 0.02037655 0.00522180 0.02435772 0.00261133 0.01429203 0.00123230 0.00974861 0.03890082 0.01275450 0.00418022 
0.00845972 0.00793584 0.00285661 0.00090600 0.00799968 0.00153874 0.02023868 0.00517787 0.02352513 0.00254620 0.01377483 0.00120220 0.00976858 0.03903768 0.01273570 0.00475710 
0.00848450 0.00830217 0.00291133 0.00090481 0.00780231 0.00154882 0.02008593 0.00513338 0.02272856 0.00248411 0.01327609 0.00117295 0.00980958 0.03916351 0.01270705 0.00537237 
0.00852925 0.00870502 0.00296607 0.00090592 0.00760661 0.00155968 0.01991861 0.00508840 0.02197089 0.00242527 0.01279761 0.00114470 0.00987136 0.03927663 0.01266861 0.00602522 
0.00859413 0.00914271 0.00302056 0.00090937 0.00741295 0.00157130 0.01973708 0.00504300 0.02125473 0.00236985 0.01234105 0.00111755 0.00995356 0.03937539 0.01262045 0.00671462 
0.00867916 0.00961334 0.00307457 0.00091519 0.00722172 0.00158366 0.01954173 0.00499723 0.02058243 0.00231802 0.01190797 0.00109160 0.01005567 0.03945821 0.01256271 0.00743934 
0.00878428 0.01011485 0.00312783 0.00092340 0.00703333 0.00159676 0.01933302 0.00495117 0.01995608 0.00226992 0.01149977 0.00106696 0.01017712 0.03952357 0.01249557 0.00819791 
0.00890932 0.01064496 0.00318013 0.00093403 0.00684818 0.00161057 0.01911143 0.00490487 0.01937747 0.00222568 0.01111772 0.00104373 0.01031722 0.03957000 0.01241925 0.00898866 
0.00905401 0.01120125 0.00323122 0.00094709 0.00666667 0.00162507 0.01887751 0.00485841 0.01884815 0.00218541 0.01076291 0.00102198 0.01047519 0.03959616 0.01233399 0.00980971 
0.00921797 0.01178113 0.00328090 0.00096258 0.00648922 0.00164023 0.01863184 0.00481186 0.01836935 0.00214919 0.01043634 0.00100179 0.01065016 0.03960079 0.01224011 0.01065895 
0.00940074 0.01238189 0.00332896 0.00098048 0.00631624 0.00165603 0.01837505 0.00476529 0.01794205 0.00211711 0.01013880 0.00098323 0.01084119 0.03958276 0.01213793 0.01153410 
0.00960176 0.01300068 0.00337521 0.00100078 0.00614815 0.00167243 0.01810782 0.00471876 0.01756693 0.00208923 0.00987097 0.00096636 0.01104724 0.03954107 0.01202785 0.01243265 
0.00982034 0.01363453 0.00341949 0.00102346 0.00598536 0.00168940 0.01783084 0.00467235 0.01724440 0.00206557 0.00963336 0.00095122 0.01126724 0.03947488 0.01191028 0.01335195 
0.01005575 0.01428040 0.00346162 0.00104848 0.00582829 0.00170690 0.01754486 0.00462613 0.01697458 0.00204617 0.00942634 0.00093787 0.01150005 0.03938349 0.01178567 0.01428912 
0.01030712 0.01493517 0.00350148 0.00107579 0.00567735 0.00172489 0.01725066 0.00458017 0.01675734 0.00203102 0.00925011 0.00092632 0.01174446 0.03926636 0.01165453 0.01524115 
0.01057352 0.01559567 0.00353892 0.00110534 0.00553296 0.00174333 0.01694905 0.00453455 0.01659227 0.00202011 0.00910474 0.00091661 0.01199925 0.03912317 0.01151738 0.01620487 
0.01085394 0.01625867 0.00357385 0.00113707 0.00539551 0.00176217 0.01664086 0.00448934 0.01647872 0.00201342 0.00899016 0.00090874 0.01226317 0.03895373 0.01137478 0.01717697 
0.01114727 0.01692096 0.00360617 0.00117090 0.00526540 0.00178137 0.01632696 0.00444462 0.01641577 0.00201091 0.00890615 0.00090272 0.01253491 0.03875808 0.01122733 0.01815399 
0.01145236 0.01757929 0.00363581 0.00120674 0.00514302 0.00180087 0.01600821 0.00440045 0.01640230 0.00201250 0.00885236 0.00089854 0.01281320 0.03853644 0.01107565 0.01913240 
0.01176795 0.01823046 0.00366272 0.00124451 0.00502874 0.00182062 0.01568554 0.00435692 0.01643694 0.00201813 0.00882830 0.00089618 0.01309671 0.03828925 0.01092038 0.02010853 
0.01209275 0.01887130 0.00368686 0.00128410 0.00492293 0.00184057 0.01535983 0.00431410 0.01651812 0.00202771 0.00883336 0.00089562 0.01338416 0.03801715 0.01076220 0.02107867 
0.01242541 0.01949868 0.00370822 0.00132540 0.00482594 0.00186066 0.01503203 0.00427205 0.01664407 0.00204114 0.00886683 0.00089683 0.01367426 0.03772098 0.01060180 0.02203903 
0.01276450 0.02010958 0.00372680 0.00136830 0.00473809 0.00188084 0.01470305 0.00423086 0.01681284 0.00205830 0.00892786 0.00089976 0.01396574 0.03740180 0.01043990 0.02298577 
0.01310859 0.02070106 0.00374262 0.00141266 0.00465970 0.00190105 0.01437382 0.00419059 0.01702231 0.00207908 0.00901552 0.00090437 0.01425737 0.03706087 0.01027721 0.02391506 
0.01345619 0.02127027 0.00375571 0.00145836 0.00459106 0.00192123 0.01404528 0.00415131 0.01727021 0.00210333 0.00912875 0.00091059 0.01454793 0.03669967 0.01011448 0.02482302 
0.01380577 0.02181452 0.00376614 0.00150525 0.00453243 0.00194132 0.01371833 0.00411309 0.01755415 0.00213092 0.00926644 0.00091836 0.01483628 0.03631987 0.00995246 0.02570583 
0.01415581 0.02233124 0.00377398 0.00155319 0.00448405 0.00196125 0.01339390 0.00407600 0.01787158 0.00216169 0.00942738 0.00092762 0.01512129 0.03592335 0.00979191 0.02655968 
0.01450473 0.02281805 0.00377931 0.00160201 0.00444613 0.00198097 0.01307287 0.00404010 0.01821989 0.00219547 0.00961028 0.00093827 0.01540191 0.03551216 0.00963357 0.02738082 
0.01485098 0.02327271 0.00378223 0.00165157 0.00441886 0.00200042 0.01275612 0.00400546 0.01859637 0.00223211 0.00981381 0.00095025 0.01567714 0.03508855 0.00947821 0.02816559 
0.01519299 0.02369320 0.00378287 0.00170170 0.00440238 0.00201954 0.01244451 0.00397212 0.01899823 0.00227142 0.01003656 0.00096344 0.01594605 0.03465494 0.00932659 0.02891040 
0.01552922 0.02407768 0.00378136 0.00175224 0.00439680 0.00203826 0.01213885 0.00394015 0.01942264 0.00231324 0.01027708 0.00097777 0.01620779 0.03421388 0.00917944 0.02961180 
0.01585811 0.02442452 0.00377784 0.00180301 0.00440221 0.00205653 0.01183995 0.00390960 0.01986674 0.00235737 0.01053389 0.00099314 0.01646155 0.03376812 0.00903750 0.03026647 
0.01617816 0.02473233 0.00377247 0.00185384 0.00441865 0.00207429 0.01154855 0.00388052 0.02032763 0.00240362 0.01080549 0.00100943 0.01670663 0.03332049 0.00890149 0.03087125 
0.01648788 0.02499992 0.00376540 0.00190456 0.00444611 0.00209148 0.01126539 0.00385295 0.02080242 0.00245182 0.01109033 0.00102654 0.01694239 0.03287398 0.00877212 0.03142312 
0.01678581 0.02522638 0.00375681 0.00195500 0.00448454 0.00210804 0.01099115 0.00382694 0.02128825 0.00250177 0.01138687 0.00104437 0.01716828 0.03243165 0.00865007 0.03191930 
0.01707055 0.02541099 0.00374688 0.00200498 0.00453388 0.00212393 0.01072646 0.00380252 0.02178226 0.00255328 0.01169355 0.00106281 0.01738382 0.03199665 0.00853599 0.03235718 
0.01734076 0.02555331 0.00373579 0.00205434 0.00459397 0.00213908 0.01047190 0.00377972 0.02228163 0.00260615 0.01200885 0.00108173 0.01758862 0.03157221 0.00843051 0.03273439 
0.01759514 0.02565315 0.00372374 0.00210291 0.00466466 0.00215346 0.01022803 0.00375858 0.02278362 0.00266020 0.01233121 0.00110103 0.01778237 0.03116158 0.00833424 0.03304878 
0.01783247 0.02571055 0.00371092 0.00215051 0.00474572 0.00216701 0.00999532 0.00373911 0.02328555 0.00271525 0.01265913 0.00112060 0.01796484 0.03076805 0.00824773 0.03329847 
0.01805159 0.02572582 0.00369752 0.00219699 0.00483688 0.00217969 0.00977421 0.00372133 0.02378481 0.00277109 0.01299112 0.00114032 0.01813586 0.03039490 0.00817151 0.03348184 
0.01825143 0.02569949 0.00368374 0.00224219 0.00493782 0.00219145 0.00956508 0.00370526 0.02427888 0.00282754 0.01332572 0.00116008 0.01829537 0.03004538 0.00810608 0.03359753 
0.01843099 0.02563236 0.00366978 0.00228597 0.00504819 0.00220226 0.00936824 0.00369090 0.02476536 0.00288444 0.01366151 0.00117977 0.01844336 0.02972272 0.00805186 0.03364448 
0.01858938 0.02552546 0.00365582 0.00232818 0.00516757 0.00221209 0.00918397 0.00367826 0.02524195 0.00294159 0.01399713 0.00119929 0.01857989 0.02943007 0.00800927 0.03362191 
0.01872580 0.02538006 0.00364205 0.00236868 0.00529550 0.00222089 0.00901245 0.00366733 0.02570648 0.00299882 0.01433125 0.00121852 0.01870510 0.02917048 0.00797864 0.03352934 
0.01883953 0.02519763 0.00362866 0.00240735 0.00543149 0.00222865 0.00885384 0.00365811 0.02615690 0.00305597 0.01466261 0.00123736 0.01881917 0.02894689 0.00796028 0.03336661 
0.01892997 0.02497989 0.00361583 0.00244407 0.00557499 0.00223534 0.00870823 0.00365058 0.02659129 0.00311286 0.01498999 0.00125572 0.01892234 0.02876213 0.00795443 0.03313383 
0.01899662 0.02472874 0.00360372 0.00247873 0.00572540 0.00224094 0.00857562 0.00364473 0.02700790 0.00316935 0.01531227 0.00127350 0.01901493 0.02861883 0.00796127 0.03283146 
0.01903909 0.02444629 0.00359249 0.00251123 0.00588210 0.00224544 0.00845601 0.00364052 0.02740508 0.00322527 0.01562836 0.00129060 0.01909728 0.02851946 0.00798095 0.03246025 
0.01905711 0.02413481 0.00358231 0.00254150 0.00604440 0.00224882 0.00834929 0.00363794 0.02778138 0.00328048 0.01593726 0.00130695 0.01916977 0.02846630 0.00801353 0.03202125 
0.01905051 0.02379675 0.00357331 0.00256945 0.00621160 0.00225107 0.00825531 0.00363696 0.02813547 0.00333483 0.01623804 0.00132246 0.01923281 0.02846136 0.00805903 0.03151583 
0.01901925 0.02343472 0.00356563 0.00259502 0.00638296 0.00225221 0.00817389 0.00363752 0.02846618 0.00338820 0.01652984 0.00133706 0.01928687 0.02850647 0.00811741 0.03094564 
0.01896340 0.02305146 0.00355938 0.00261816 0.00655768 0.00225221 0.00810476 0.00363959 0.02877253 0.00344044 0.01681188 0.00135068 0.01933240 0.02860314 0.00818855 0.03031266 
0.01888313 0.02264981 0.00355467 0.00263884 0.00673498 0.00225111 0.00804762 0.00364313 0.02905364 0.00349144 0.01708346 0.00136326 0.01936989 0.02875263 0.00827228 0.02961912 
0.01877876 0.02223274 0.00355159 0.00265703 0.00691400 0.00224889 0.00800213 0.00364808 0.02930885 0.00354107 0.01734395 0.00137473 0.01939984 0.02895591 0.00836838 0.02886755 
0.01865069 0.02180330 0.00355024 0.00267272 0.00709390 0.00224559 0.00796788 0.00365439 0.02953761 0.00358923 0.01759282 0.00138505 0.01942274 0.02921362 0.00847654 0.02806072 
0.01849945 0.02136458 0.00355066 0.00268590 0.00727380 0.00224123 0.00794444 0.00366200 0.02973954 0.00363580 0.01782959 0.00139418 0.01943910 0.02952611 0.00859641 0.02720170 
0.01832568 0.02091975 0.00355292 0.00269661 0.00745281 0.00223582 0.00793133 0.00367085 0.02991442 0.00368069 0.01805388 0.00140208 0.01944938 0.02989336 0.00872758 0.02629376 
0.01813013 0.02047200 0.00355706 0.00270486 0.00763004 0.00222939 0.00792805 0.00368088 0.03006218 0.00372381 0.01826538 0.00140872 0.01945408 0.03031505 0.00886956 0.02534042 
0.01791364 0.02002452 0.00356309 0.00271069 0.00780457 0.00222199 0.00793403 0.00369202 0.03018289 0.00376507 0.01846386 0.00141407 0.01945363 0.03079048 0.00902183 0.02434541 
0.01767718 0.01958049 0.00357102 0.00271415 0.00797551 0.00221365 0.00794872 0.00370420 0.03027676 0.00380438 0.01864915 0.00141813 0.01944847 0.03131863 0.00918378 0.02331263 
0.01742177 0.01914307 0.00358086 0.00271532 0.00814196 0.00220441 0.00797151 0.00371736 0.03034413 0.00384168 0.01882117 0.00142087 0.01943900 0.03189812 0.00935479 0.02224619 
0.01714858 0.01871538 0.00359257 0.00271426 0.00830302 0.00219432 0.00800179 0.00373143 0.03038550 0.00387688 0.01897991 0.00142231 0.01942557 0.03252722 0.00953414 0.02115036 
0.01685881 0.01830045 0.00360614 0.00271107 0.00845783 0.00218343 0.00803892 0.00374632 0.03040147 0.00390993 0.01912542 0.00142245 0.01940853 0.03320386 0.00972110 0.02002951 
0.01655377 0.01790126 0.00362150 0.00270583 0.00860552 0.00217179 0.00808225 0.00376198 0.03039278 0.00394077 0.01925781 0.00142129 0.01938815 0.03392563 0.00991488 0.01888818 
0.01623484 0.01752065 0.00363860 0.00269866 0.00874527 0.00215946 0.00813113 0.00377833 0.03036025 0.00396934 0.01937728 0.00141886 0.01936469 0.03468979 0.01011464 0.01773098 
0.01590346 0.01716139 0.00365736 0.00268966 0.00887627 0.00214650 0.00818488 0.00379529 0.03030486 0.00399560 0.01948406 0.00141518 0.01933833 0.03549328 0.01031951 0.01656260 
0.01556114 0.01682609 0.00367771 0.00267897 0.00899776 0.00213296 0.00824285 0.00381281 0.03022765 0.00401949 0.01957845 0.00141028 0.01930924 0.03633276 0.01052860 0.01538779 
0.01520943 0.01651720 0.00369954 0.00266670 0.00910902 0.00211892 0.00830437 0.00383080 0.03012977 0.00404100 0.01966082 0.00140419 0.01927752 0.03720457 0.01074096 0.01421136 
0.01484992 0.01623704 0.00372275 0.00265300 0.00920936 0.00210444 0.00836878 0.00384921 0.03001246 0.00406007 0.01973155 0.00139697 0.01924322 0.03810479 0.01095566 0.01303809 
0.01448425 0.01598773 0.00374722 0.00263801 0.00929816 0.00208959 0.00843544 0.00386796 0.02987704 0.00407670 0.01979111 0.00138866 0.01920636 0.03902929 0.01117171 0.01187279 
0.01411408 0.01577122 0.00377282 0.00262187 0.00937484 0.00207444 0.00850371 0.00388700 0.02972488 0.00409084 0.01983998 0.00137931 0.01916688 0.03997366 0.01138812 0.01072023 
0.01374110 0.01558926 0.00379942 0.00260472 0.00943888 0.00205905 0.00857296 0.00390627 0.02955746 0.00410248 0.01987871 0.00136898 0.01912471 0.04093334 0.01160391 0.00958513 
0.01336699 0.01544339 0.00382688 0.00258672 0.00948983 0.00204351 0.00864261 0.00392570 0.02937627 0.00411162 0.01990786 0.00135773 0.01907971 0.04190358 0.01181808 0.00847213 
0.01299345 0.01533493 0.00385504 0.00256802 0.00952731 0.00202788 0.00871205 0.00394524 0.02918288 0.00411823 0.01992804 0.00134563 0.01903170 0.04287949 0.01202962 0.00738579 
0.01262216 0.01526499 0.00388377 0.00254876 0.00955100 0.00201223 0.00878074 0.00396485 0.02897890 0.00412232 0.01993989 0.00133275 0.01898047 0.04385608 0.01223757 0.00633057 
0.01225481 0.01523446 0.00391288 0.00252910 0.00956065 0.00199664 0.00884814 0.00398448 0.02876597 0.00412389 0.01994405 0.00131916 0.01892577 0.04482828 0.01244096 0.00531077 
0.01189303 0.01524396 0.00394224 0.00250918 0.00955611 0.00198118 0.00891375 0.00400409 0.02854575 0.00412295 0.01994120 0.00130493 0.01886731 0.04579098 0.01263883 0.00433056 
0.01153845 0.01529393 0.00397166 0.00248914 0.00953727 0.00196590 0.00897710 0.00402363 0.02831992 0.00411949 0.01993206 0.00129014 0.01880477 0.04673905 0.01283028 0.00339394 
0.01119264 0.01538454 0.00400099 0.00246912 0.00950415 0.00195089 0.00903774 0.00404308 0.02809020 0.00411354 0.01991732 0.00127488 0.01873782 0.04766741 0.01301442 0.00250472 
0.01085714 0.01551572 0.00403005 0.00244926 0.00945680 0.00193621 0.00909526 0.00406240 0.02785828 0.00410512 0.01989770 0.00125923 0.01866609 0.04857102 0.01319041 0.00166652 
0.01053341 0.01568719 0.00405869 0.00242968 0.00939540 0.00192192 0.00914927 0.00408158 0.02762586 0.00409425 0.01987395 0.00124326 0.01858922 0.04944495 0.01335746 0.00088272 
0.01022289 0.01589843 0.00408673 0.00241051 0.00932018 0.00190808 0.00919945 0.00410058 0.02739464 0.00408096 0.01984678 0.00122707 0.01850681 0.05028442 0.01351481 0.00015649 
0.00992690 0.01614868 0.00411402 0.00239185 0.00923147 0.00189475 0.00924547 0.00411940 0.02716629 0.00406528 0.01981693 0.00121073 0.01841847 0.05108480 0.01366179 0.00050925 
0.00964672 0.01643698 0.00414038 0.00237381 0.00912967 0.00188198 0.00928707 0.00413803 0.02694245 0.00404725 0.01978512 0.00119433 0.01832383 0.05184168 0.01379776 0.00111185 
0.00938354 0.01676213 0.00416568 0.00235650 0.00901529 0.00186983 0.00932400 0.00415645 0.02672475 0.00402691 0.01975208 0.00117796 0.01822249 0.05255088 0.01392218 0.00164891 
0.00913845 0.01712274 0.00418975 0.00233998 0.00888890 0.00185834 0.00935605 0.00417467 0.02651477 0.00400431 0.01971851 0.00116169 0.01811409 0.05320850 0.01403454 0.00211833 
0.00891245 0.01751722 0.00421245 0.00232435 0.00875113 0.00184756 0.00938307 0.00419269 0.02631403 0.00397949 0.01968512 0.00114560 0.01799828 0.05381095 0.01413445 0.00251827 
0.00870646 0.01794378 0.00423364 0.00230966 0.00860273 0.00183753 0.00940491 0.00421050 0.02612402 0.00395252 0.01965256 0.00112978 0.01787473 0.05435497 0.01422156 0.00284721 
0.00852129 0.01840046 0.00425318 0.00229598 0.00844449 0.00182827 0.00942147 0.00422813 0.02594615 0.00392346 0.01962151 0.00111430 0.01774314 0.05483765 0.01429563 0.00310391 
0.00835763 0.01888514 0.00427096 0.00228334 0.00827729 0.00181983 0.00943267 0.00424558 0.02578179 0.00389236 0.01959258 0.00109924 0.01760325 0.05525651 0.01435649 0.00328746 
0.00821608 0.01939553 0.00428686 0.00227179 0.00810205 0.00181222 0.00943848 0.00426286 0.02563221 0.00385930 0.01956640 0.00108466 0.01745484 0.05560943 0.01440406 0.00339724 
0.00809713 0.01992921 0.00430076 0.00226135 0.00791979 0.00180547 0.00943888 0.00428000 0.02549861 0.00382436 0.01954352 0.00107064 0.01729773 0.05589475 0.01443834 0.00343294 
0.00800113 0.02048365 0.00431257 0.00225202 0.00773154 0.00179960 0.00943389 0.00429701 0.02538212 0.00378759 0.01952450 0.00105723 0.01713178 0.05611128 0.01445945 0.00339459 
0.00792836 0.02105619 0.00432219 0.00224381 0.00753841 0.00179460 0.00942357 0.00431392 0.02528377 0.00374910 0.01950983 0.00104451 0.01695691 0.05625825 0.01446755 0.00328249 
0.00787894 0.02164406 0.00432956 0.00223672 0.00734156 0.00179050 0.00940797 0.00433075 0.02520447 0.00370896 0.01949998 0.00103253 0.01677311 0.05633540 0.01446294 0.00309728 
0.00785292 0.02224446 0.00433459 0.00223072 0.00714217 0.00178729 0.00938719 0.00434752 0.02514508 0.00366726 0.01949539 0.00102134 0.01658039 0.05634295 0.01444597 0.00283990 
0.00785021 0.02285448 0.00433723 0.00222579 0.00694145 0.00178496 0.00936135 0.00436426 0.02510630 0.00362410 0.01949642 0.00101099 0.01637887 0.05628160 0.01441709 0.00251159 
0.00787061 0.02347119 0.00433743 0.00222190 0.00674067 0.00178351 0.00933058 0.00438099 0.02508875 0.00357956 0.01950341 0.00100153 0.01616869 0.05615256 0.01437685 0.00211389 
0.00791381 0.02409161 0.00433516 0.00221899 0.00654107 0.00178292 0.00929505 0.00439775 0.02509293 0.00353374 0.01951665 0.00099299 0.01595008 0.05595751 0.01432585 0.00164864 
0.00797939 0.02471277 0.00433037 0.00221701 0.00634394 0.00178318 0.00925493 0.00441455 0.02511921 0.00348675 0.01953638 0.00098541 0.01572333 0.05569863 0.01426480 0.00111794 
0.00806684 0.02533168 0.00432307 0.00221591 0.00615055 0.00178426 0.00921041 0.00443141 0.02516786 0.00343869 0.01956278 0.00097882 0.01548880 0.05537858 0.01419446 0.00052417 
0.00817553 0.02594540 0.00431324 0.00221561 0.00596219 0.00178612 0.00916170 0.00444837 0.02523899 0.00338967 0.01959598 0.00097324 0.01524691 0.05500045 0.01411568 0.00013001 
0.00830474 0.02655098 0.00430088 0.00221605 0.00578011 0.00178875 0.00910901 0.00446544 0.02533261 0.00333979 0.01963606 0.00096869 0.01499814 0.05456781 0.01402936 0.00084171 
0.00845365 0.02714558 0.00428602 0.00221715 0.00560556 0.00179210 0.00905257 0.00448263 0.02544859 0.00328915 0.01968303 0.00096520 0.01474304 0.05408464 0.01393646 0.00160779 
0.00862136 0.02772637 0.00426866 0.00221883 0.00543977 0.00179613 0.00899264 0.00449998 0.02558665 0.00323788 0.01973686 0.00096276 0.01448224 0.05355534 0.01383801 0.00242489 
0.00880688 0.02829063 0.00424886 0.00222101 0.00528393 0.00180080 0.00892944 0.00451748 0.02574642 0.00318608 0.01979745 0.00096139 0.01421638 0.05298466 0.01373505 0.00328944 
0.00900915 0.02883576 0.00422664 0.00222359 0.00513916 0.00180607 0.00886325 0.00453515 0.02592735 0.00313387 0.01986466 0.00096107 0.01394622 0.05237772 0.01362871 0.00419767 
0.00922702 0.02935922 0.00420207 0.00222649 0.00500659 0.00181187 0.00879433 0.00455299 0.02612879 0.00308135 0.01993826 0.00096182 0.01367252 0.05173994 0.01352010 0.00514564 
0.00945929 0.02985862 0.00417521 0.00222963 0.00488723 0.00181816 0.00872294 0.00457101 0.02634994 0.00302864 0.02001800 0.00096362 0.01339612 0.05107705 0.01341040 0.00612924 
0.00970470 0.03033173 0.00414611 0.00223292 0.00478209 0.00182488 0.00864936 0.00458921 0.02658987 0.00297586 0.02010354 0.00096645 0.01311790 0.05039499 0.01330077 0.00714421 
0.00996193 0.03077642 0.00411486 0.00223626 0.00469206 0.00183198 0.00857386 0.00460757 0.02684754 0.00292311 0.02019451 0.00097031 0.01283876 0.04969993 0.01319241 0.00818619 
0.01022961 0.03119075 0.00408154 0.00223959 0.00461798 0.00183939 0.00849673 0.00462609 0.02712176 0.00287051 0.02029047 0.00097515 0.01255965 0.04899818 0.01308649 0.00925068 
0.01050634 0.03157294 0.00404623 0.00224281 0.00456062 0.00184705 0.00841824 0.00464475 0.02741125 0.00281817 0.02039093 0.00098097 0.01228155 0.04829620 0.01298419 0.01033313 
0.01079069 0.03192139 0.00400903 0.00224585 0.00452064 0.00185489 0.00833867 0.00466353 0.02771458 0.00276620 0.02049536 0.00098772 0.01200546 0.04760050 0.01288667 0.01142887 
0.01108121 0.03223468 0.00397004 0.00224864 0.00449861 0.00186287 0.00825831 0.00468241 0.02803024 0.00271471 0.02060316 0.00099539 0.01173239 0.04691763 0.01279507 0.01253324 
0.01137641 0.03251159 0.00392936 0.00225111 0.00449504 0.00187091 0.00817743 0.00470135 0.02835660 0.00266379 0.02071371 0.00100392 0.01146338 0.04625415 0.01271049 0.01364152 
0.01167481 0.03275107 0.00388710 0.00225320 0.00451031 0.00187894 0.00809631 0.00472032 0.02869195 0.00261356 0.02082632 0.00101328 0.01119944 0.04561651 0.01263399 0.01474898 
0.01197493 0.03295231 0.00384336 0.00225485 0.00454469 0.00188691 0.00801522 0.00473928 0.02903446 0.00256412 0.02094029 0.00102343 0.01094160 0.04501111 0.01256658 0.01585092 
0.01227529 0.03311468 0.00379826 0.00225602 0.00459838 0.00189475 0.00793445 0.00475819 0.02938226 0.00251556 0.02105486 0.00103433 0.01069088 0.04444417 0.01250921 0.01694267 
0.01257441 0.03323777 0.00375190 0.00225666 0.00467145 0.00190239 0.00785425 0.00477699 0.02973337 0.00246799 0.02116925 0.00104592 0.01044827 0.04392169 0.01246279 0.01801959 
0.01287084 0.03332135 0.00370440 0.00225675 0.00476387 0.00190978 0.00777490 0.00479562 0.03008577 0.00242149 0.02128265 0.00105816 0.01021476 0.04344948 0.01242812 0.01907715 
0.01316316 0.03336545 0.00365587 0.00225625 0.00487551 0.00191685 0.00769665 0.00481403 0.03043741 0.00237617 0.02139423 0.00107101 0.00999128 0.04303302 0.01240595 0.02011090 
0.01344997 0.03337025 0.00360643 0.00225516 0.00500610 0.00192355 0.00761976 0.00483216 0.03078615 0.00233209 0.02150315 0.00108441 0.00977874 0.04267749 0.01239694 0.02111650 
0.01372992 0.03333618 0.00355618 0.00225345 0.00515531 0.00192982 0.00754449 0.00484993 0.03112986 0.00228935 0.02160854 0.00109830 0.00957802 0.04238769 0.01240166 0.02208973 
0.01400171 0.03326384 0.00350524 0.00225114 0.00532267 0.00193560 0.00747107 0.00486728 0.03146638 0.00224803 0.02170954 0.00111264 0.00938993 0.04216803 0.01242059 0.02302655 
0.01426406 0.03315404 0.00345371 0.00224822 0.00550761 0.00194084 0.00739974 0.00488412 0.03179357 0.00220821 0.02180528 0.00112738 0.00921523 0.04202247 0.01245410 0.02392308 
0.01451577 0.03300779 0.00340169 0.00224473 0.00570948 0.00194550 0.00733074 0.00490039 0.03210926 0.00216996 0.02189490 0.00114247 0.00905464 0.04195452 0.01250247 0.02477560 
0.01475571 0.03282627 0.00334929 0.00224067 0.00592750 0.00194952 0.00726428 0.00491598 0.03241133 0.00213334 0.02197755 0.00115784 0.00890880 0.04196715 0.01256588 0.02558063 
0.01498278 0.03261084 0.00329660 0.00223608 0.00616082 0.00195287 0.00720058 0.00493083 0.03269769 0.00209843 0.02205240 0.00117346 0.00877828 0.04206285 0.01264439 0.02633489 
0.01519598 0.03236305 0.00324371 0.00223101 0.00640849 0.00195550 0.00713985 0.00494485 0.03296629 0.00206528 0.02211864 0.00118928 0.00866359 0.04224355 0.01273795 0.02703532 
0.01539438 0.03208458 0.00319072 0.00222550 0.00666948 0.00195738 0.00708227 0.00495794 0.03321517 0.00203395 0.02217549 0.00120523 0.00856516 0.04251059 0.01284642 0.02767914 
0.01557710 0.03177728 0.00313771 0.00221960 0.00694268 0.00195848 0.00702803 0.00497001 0.03344241 0.00200451 0.02222220 0.00122129 0.00848335 0.04286475 0.01296952 0.02826379 
0.01574339 0.03144313 0.00308476 0.00221338 0.00722690 0.00195876 0.00697730 0.00498098 0.03364620 0.00197699 0.02225808 0.00123740 0.00841844 0.04330623 0.01310690 0.02878702 
0.01589252 0.03108425 0.00303194 0.00220690 0.00752088 0.00195820 0.00693025 0.00499076 0.03382483 0.00195144 0.02228246 0.00125352 0.00837062 0.04383459 0.01325807 0.02924683 
0.01602390 0.03070288 0.00297932 0.00220023 0.00782332 0.00195678 0.00688702 0.00499925 0.03397669 0.00192791 0.02229475 0.00126960 0.00834001 0.04444883 0.01342244 0.02964152 
0.01613699 0.03030133 0.00292698 0.00219345 0.00813286 0.00195449 0.00684774 0.00500637 0.03410033 0.00190644 0.02229440 0.00128562 0.00832664 0.04514733 0.01359934 0.02996968 
0.01623136 0.02988205 0.00287496 0.00218664 0.00844807 0.00195130 0.00681254 0.00501202 0.03419441 0.00188705 0.02228093 0.00130152 0.00833047 0.04592786 0.01378798 0.03023023 
0.01630665 0.02944754 0.00282333 0.00217988 0.00876752 0.00194722 0.00678152 0.00501613 0.03425773 0.00186979 0.02225394 0.00131729 0.00835138 0.04678762 0.01398748 0.03042238 
0.01636261 0.02900036 0.00277213 0.00217325 0.00908973 0.00194223 0.00675477 0.00501860 0.03428928 0.00185466 0.02221310 0.00133288 0.00838915 0.04772323 0.01419688 0.03054564 
0.01639906 0.02854314 0.00272142 0.00216686 0.00941320 0.00193634 0.00673236 0.00501936 0.03428820 0.00184171 0.02215814 0.00134826 0.00844351 0.04873075 0.01441512 0.03059987 
0.01641593 0.02807854 0.00267124 0.00216078 0.00973643 0.00192955 0.00671434 0.00501833 0.03425381 0.00183094 0.02208890 0.00136342 0.00851412 0.04980571 0.01464108 0.03058522 
0.01641321 0.02760923 0.00262162 0.00215510 0.01005790 0.00192187 0.00670077 0.00501543 0.03418561 0.00182237 0.02200528 0.00137832 0.00860054 0.05094312 0.01487355 0.03050216 
0.01639100 0.02713791 0.00257260 0.00214991 0.01037610 0.00191331 0.00669165 0.00501061 0.03408331 0.00181602 0.02190728 0.00139295 0.00870230 0.05213753 0.01511129 0.03035150 
0.01634948 0.02666726 0.00252422 0.00214530 0.01068954 0.00190388 0.00668699 0.00500379 0.03394679 0.00181188 0.02179501 0.00140728 0.00881885 0.05338300 0.01535297 0.03013432 
0.01628891 0.02619994 0.00247651 0.00214134 0.01099675 0.00189361 0.00668677 0.00499493 0.03377617 0.00180996 0.02166864 0.00142130 0.00894957 0.05467322 0.01559722 0.02985206 
0.01620964 0.02573860 0.00242950 0.00213814 0.01129628 0.00188252 0.00669096 0.00498397 0.03357173 0.00181027 0.02152846 0.00143500 0.00909382 0.05600148 0.01584267 0.02950640 
0.01611210 0.02528581 0.00238322 0.00213575 0.01158673 0.00187063 0.00669951 0.00497088 0.03333399 0.00181278 0.02137483 0.00144837 0.00925090 0.05736073 0.01608786 0.02909938 
0.01599680 0.02484410 0.00233769 0.00213426 0.01186675 0.00185798 0.00671232 0.00495561 0.03306368 0.00181750 0.02120824 0.00146139 0.00942006 0.05874365 0.01633136 0.02863327 
0.01586430 0.02441594 0.00229295 0.00213374 0.01213502 0.00184460 0.00672932 0.00493814 0.03276171 0.00182441 0.02102923 0.00147407 0.00960053 0.06014265 0.01657170 0.02811065 
0.01571527 0.02400369 0.00224902 0.00213424 0.01239030 0.00183054 0.00675039 0.00491847 0.03242922 0.00183350 0.02083848 0.00148639 0.00979151 0.06154997 0.01680743 0.02753435 
0.01555041 0.02360965 0.00220593 0.00213583 0.01263142 0.00181582 0.00677539 0.00489656 0.03206755 0.00184473 0.02063673 0.00149835 0.00999217 0.06295768 0.01703710 0.02690746 
0.01537052 0.02323598 0.00216372 0.00213855 0.01285726 0.00180049 0.00680416 0.00487245 0.03167824 0.00185809 0.02042483 0.00150996 0.01020167 0.06435776 0.01725927 0.02623332 
0.01517644 0.02288475 0.00212241 0.00214245 0.01306681 0.00178460 0.00683655 0.00484612 0.03126301 0.00187355 0.02020368 0.00152121 0.01041916 0.06574217 0.01747255 0.02551546 
0.01496907 0.02255791 0.00208205 0.00214757 0.01325912 0.00176820 0.00687236 0.00481761 0.03082379 0.00189107 0.01997431 0.00153211 0.01064381 0.06710284 0.01767558 0.02475765 
0.01474938 0.02225725 0.00204267 0.00215392 0.01343334 0.00175134 0.00691138 0.00478696 0.03036267 0.00191061 0.01973778 0.00154266 0.01087475 0.06843179 0.01786702 0.02396384 
0.01451835 0.02198444 0.00200432 0.00216154 0.01358872 0.00173407 0.00695338 0.00475421 0.02988191 0.00193213 0.01949527 0.00155287 0.01111116 0.06972113 0.01804563 0.02313816 
0.01427706 0.02174102 0.00196705 0.00217043 0.01372460 0.00171645 0.00699814 0.00471941 0.02938395 0.00195559 0.01924799 0.00156273 0.01135222 0.07096316 0.01821022 0.02228489 
0.01402658 0.02152836 0.00193090 0.00218060 0.01384041 0.00169854 0.00704538 0.00468263 0.02887135 0.00198092 0.01899723 0.00157226 0.01159712 0.07215039 0.01835965 0.02140844 
0.01376805 0.02134767 0.00189594 0.00219203 0.01393569 0.00168039 0.00709485 0.00464397 0.02834681 0.00200809 0.01874432 0.00158147 0.01184511 0.07327560 0.01849290 0.02051336 
0.01350263 0.02120002 0.00186223 0.00220472 0.01401011 0.00166205 0.00714627 0.00460351 0.02781317 0.00203702 0.01849065 0.00159035 0.01209544 0.07433187 0.01860901 0.01960426 
0.01323151 0.02108629 0.00182984 0.00221863 0.01406341 0.00164361 0.00719933 0.00456135 0.02727336 0.00206766 0.01823763 0.00159892 0.01234741 0.07531266 0.01870713 0.01868586 
0.01295589 0.02100724 0.00179884 0.00223373 0.01409545 0.00162511 0.00725375 0.00451762 0.02673039 0.00209993 0.01798674 0.00160719 0.01260037 0.07621184 0.01878652 0.01776290 
0.01267702 0.02096344 0.00176930 0.00224999 0.01410619 0.00160661 0.00730920 0.00447244 0.02618737 0.00213377 0.01773943 0.00161515 0.01285369 0.07702372 0.01884652 0.01684018 
0.01239614 0.02095529 0.00174132 0.00226735 0.01409572 0.00158818 0.00736538 0.00442596 0.02564744 0.00216910 0.01749721 0.00162283 0.01310682 0.07774311 0.01888661 0.01592248 
0.01211450 0.02098305 0.00171498 0.00228576 0.01406421 0.00156989 0.00742197 0.00437834 0.02511379 0.00220584 0.01726157 0.00163021 0.01335922 0.07836535 0.01890638 0.01501458 
0.01183337 0.02104681 0.00169039 0.00230515 0.01401193 0.00155179 0.00747864 0.00432973 0.02458964 0.00224391 0.01703399 0.00163731 0.01361045 0.07888634 0.01890555 0.01412121 
0.01155400 0.02114652 0.00166763 0.00232544 0.01393926 0.00153395 0.00753506 0.00428031 0.02407818 0.00228323 0.01681597 0.00164413 0.01386007 0.07930254 0.01888395 0.01324707 
0.01127766 0.02128195 0.00164683 0.00234656 0.01384668 0.00151642 0.00759092 0.00423028 0.02358261 0.00232370 0.01660896 0.00165068 0.01410773 0.07961108 0.01884153 0.01239672 
0.01100559 0.02145275 0.00162808 0.00236842 0.01373476 0.00149927 0.00764590 0.00417983 0.02310609 0.00236523 0.01641437 0.00165695 0.01435313 0.07980968 0.01877840 0.01157468 
0.01073904 0.02165843 0.00161151 0.00239093 0.01360415 0.00148256 0.00769967 0.00412916 0.02265170 0.00240774 0.01623360 0.00166295 0.01459602 0.07989674 0.01869477 0.01078528 
0.01047921 0.02189836 0.00159724 0.00241400 0.01345560 0.00146635 0.00775193 0.00407849 0.02222248 0.00245112 0.01606798 0.00166868 0.01483619 0.07987134 0.01859098 0.01003275 
0.01022733 0.02217179 0.00158537 0.00243752 0.01328992 0.00145069 0.00780239 0.00402805 0.02182134 0.00249528 0.01591877 0.00167413 0.01507350 0.07973321 0.01846750 0.00932111 
0.00998454 0.02247785 0.00157605 0.00246139 0.01310801 0.00143563 0.00785074 0.00397808 0.02145109 0.00254012 0.01578719 0.00167932 0.01530784 0.07948278 0.01832494 0.00865421 
0.00975201 0.02281557 0.00156939 0.00248551 0.01291082 0.00142124 0.00789672 0.00392880 0.02111442 0.00258554 0.01567437 0.00168423 0.01553917 0.07912118 0.01816401 0.00803569 
0.00953084 0.02318388 0.00156553 0.00250976 0.01269939 0.00140755 0.00794006 0.00388046 0.02081384 0.00263143 0.01558134 0.00168885 0.01576746 0.07865019 0.01798554 0.00746894 
0.00932209 0.02358161 0.00156458 0.00253404 0.01247479 0.00139463 0.00798051 0.00383332 0.02055172 0.00267770 0.01550907 0.00169320 0.01599275 0.07807229 0.01779049 0.00695712 
0.00912681 0.02400753 0.00156669 0.00255824 0.01223814 0.00138251 0.00801785 0.00378763 0.02033023 0.00272424 0.01545841 0.00169726 0.01621510 0.07739062 0.01757992 0.00650311 
0.00894596 0.02446033 0.00157196 0.00258225 0.01199062 0.00137124 0.00805186 0.00374364 0.02015133 0.00277096 0.01543009 0.00170102 0.01643459 0.07660893 0.01735497 0.00610952 
0.00878049 0.02493865 0.00158052 0.00260596 0.01173342 0.00136086 0.00808235 0.00370161 0.02001680 0.00281775 0.01542477 0.00170449 0.01665135 0.07573164 0.01711691 0.00577864 
0.00863127 0.02544108 0.00159250 0.00262926 0.01146779 0.00135141 0.00810915 0.00366180 0.01992814 0.00286452 0.01544295 0.00170765 0.01686551 0.07476373 0.01686708 0.00551248 
0.00849911 0.02596617 0.00160799 0.00265206 0.01119496 0.00134292 0.00813213 0.00362447 0.01988665 0.00291117 0.01548503 0.00171049 0.01707722 0.07371076 0.01660690 0.00531270 
0.00838477 0.02651246 0.00162713 0.00267426 0.01091620 0.00133542 0.00815115 0.00358988 0.01989337 0.00295762 0.01555128 0.00171302 0.01728666 0.07257883 0.01633787 0.00518064 
0.00828896 0.02707845 0.00164999 0.00269575 0.01063278 0.00132894 0.00816612 0.00355827 0.01994905 0.00300376 0.01564184 0.00171522 0.01749397 0.07137454 0.01606154 0.00511729 
0.00821227 0.02766265 0.00167669 0.00271646 0.01034597 0.00132352 0.00817696 0.00352989 0.02005421 0.00304953 0.01575672 0.00171709 0.01769934 0.07010492 0.01577953 0.00512331 
0.00815528 0.02826357 0.00170730 0.00273630 0.01005703 0.00131916 0.00818364 0.00350499 0.02020906 0.00309483 0.01589580 0.00171863 0.01790291 0.06877745 0.01549349 0.00519897 
0.00811844 0.02887975 0.00174190 0.00275520 0.00976719 0.00131588 0.00818612 0.00348380 0.02041354 0.00313959 0.01605880 0.00171982 0.01810482 0.06739996 0.01520511 0.00534421 
0.00810217 0.02950972 0.00178056 0.00277308 0.00947769 0.00131371 0.00818441 0.00346655 0.02066730 0.00318374 0.01624533 0.00172066 0.01830522 0.06598060 0.01491611 0.00555858 
0.00810677 0.03015206 0.00182332 0.00278988 0.00918970 0.00131265 0.00817854 0.00345345 0.02096970 0.00322722 0.01645486 0.00172115 0.01850420 0.06452780 0.01462822 0.00584130 
0.00813247 0.03080540 0.00187024 0.00280556 0.00890440 0.00131271 0.00816857 0.00344470 0.02131982 0.00326996 0.01668673 0.00172129 0.01870184 0.06305020 0.01434315 0.00619118 
0.00817942 0.03146838 0.00192134 0.00282006 0.00862290 0.00131389 0.00815458 0.00344051 0.02171644 0.00331193 0.01694013 0.00172108 0.01889819 0.06155661 0.01406263 0.00660673 
0.00824769 0.03213973 0.00197663 0.00283335 0.00834626 0.00131619 0.00813667 0.00344104 0.02215807 0.00335306 0.01721416 0.00172051 0.01909326 0.06005594 0.01378836 0.00708606 
0.00833723 0.03281820 0.00203612 0.00284541 0.00807551 0.00131961 0.00811497 0.00344647 0.02264292 0.00339334 0.01750775 0.00171959 0.01928701 0.05855715 0.01352202 0.00762694 
0.00844793 0.03350263 0.00209980 0.00285623 0.00781161 0.00132415 0.00808963 0.00345694 0.02316896 0.00343272 0.01781975 0.00171832 0.01947937 0.05706923 0.01326524 0.00822683 
0.00857957 0.03419191 0.00216762 0.00286578 0.00755545 0.00132978 0.00806083 0.00347257 0.02373387 0.00347118 0.01814888 0.00171671 0.01967024 0.05560106 0.01301959 0.00888284 
0.00873185 0.03488499 0.00223955 0.00287408 0.00730789 0.00133650 0.00802874 0.00349349 0.02433508 0.00350873 0.01849374 0.00171476 0.01985944 0.05416144 0.01278661 0.00959176 
0.00890436 0.03558089 0.00231553 0.00288114 0.00706968 0.00134430 0.00799359 0.00351978 0.02496980 0.00354534 0.01885287 0.00171248 0.02004677 0.05275899 0.01256774 0.01035009 
0.00909662 0.03627872 0.00239548 0.00288698 0.00684153 0.00135314 0.00795559 0.00355153 0.02563499 0.00358103 0.01922466 0.00170988 0.02023195 0.05140211 0.01236437 0.01115405 
0.00930803 0.03697762 0.00247929 0.00289163 0.00662404 0.00136300 0.00791499 0.00358877 0.02632742 0.00361581 0.01960748 0.00170698 0.02041469 0.05009891 0.01217779 0.01199959 
0.00953791 0.03767684 0.00256687 0.00289514 0.00641778 0.00137387 0.00787204 0.00363155 0.02704365 0.00364971 0.01999957 0.00170378 0.02059462 0.04885719 0.01200918 0.01288241 
0.00978550 0.03837567 0.00265808 0.00289755 0.00622321 0.00138571 0.00782700 0.00367986 0.02778008 0.00368274 0.02039914 0.00170031 0.02077133 0.04768435 0.01185964 0.01379800 
0.01004993 0.03907346 0.00275277 0.00289892 0.00604071 0.00139848 0.00778015 0.00373370 0.02853294 0.00371497 0.02080432 0.00169657 0.02094437 0.04658738 0.01173016 0.01474162 
0.01033027 0.03976963 0.00285079 0.00289931 0.00587060 0.00141216 0.00773175 0.00379303 0.02929835 0.00374642 0.02121321 0.00169260 0.02111324 0.04557280 0.01162161 0.01570838 
0.01062547 0.04046366 0.00295195 0.00289880 0.00571310 0.00142669 0.00768210 0.00385779 0.03007229 0.00377717 0.02162387 0.00168840 0.02127741 0.04464662 0.01153473 0.01669321 
0.01093443 0.04115506 0.00305608 0.00289748 0.00556836 0.00144206 0.00763147 0.00392790 0.03085069 0.00380726 0.02203435 0.00168401 0.02143630 0.04381432 0.01147016 0.01769095 
0.01125595 0.04184340 0.00316295 0.00289542 0.00543646 0.00145821 0.00758015 0.00400323 0.03162937 0.00383678 0.02244265 0.00167944 0.02158931 0.04308076 0.01142839 0.01869631 
0.01158878 0.04252828 0.00327234 0.00289271 0.00531737 0.00147509 0.00752842 0.00408368 0.03240417 0.00386581 0.02284680 0.00167472 0.02173578 0.04245023 0.01140979 0.01970393 
0.01193157 0.04320934 0.00338403 0.00288947 0.00521102 0.00149267 0.00747656 0.00416907 0.03317087 0.00389442 0.02324484 0.00166987 0.02187507 0.04192637 0.01141459 0.02070844 
0.01228292 0.04388622 0.00349776 0.00288577 0.00511725 0.00151089 0.00742482 0.00425924 0.03392529 0.00392271 0.02363480 0.00166492 0.02200649 0.04151214 0.01144289 0.02170442 
0.01264138 0.04455861 0.00361328 0.00288174 0.00503582 0.00152970 0.00737348 0.00435398 0.03466330 0.00395079 0.02401479 0.00165990 0.02212936 0.04120986 0.01149466 0.02268650 
0.01300544 0.04522617 0.00373032 0.00287747 0.00496643 0.00154906 0.00732278 0.00445308 0.03538083 0.00397874 0.02438291 0.00165484 0.02224298 0.04102114 0.01156973 0.02364934 
0.01337353 0.04588859 0.00384859 0.00287307 0.00490872 0.00156892 0.00727294 0.00455628 0.03607390 0.00400667 0.02473736 0.00164975 0.02234666 0.04094688 0.01166780 0.02458768 
0.01374406 0.04654554 0.00396781 0.00286865 0.00486226 0.00158921 0.00722421 0.00466334 0.03673867 0.00403470 0.02507638 0.00164467 0.02243969 0.04098729 0.01178844 0.02549639 
0.01411539 0.04719666 0.00408769 0.00286433 0.00482656 0.00160989 0.00717676 0.00477395 0.03737144 0.00406294 0.02539829 0.00163963 0.02252142 0.04114189 0.01193108 0.02637046 
0.01448587 0.04784158 0.00420792 0.00286020 0.00480107 0.00163090 0.00713080 0.00488783 0.03796870 0.00409150 0.02570150 0.00163464 0.02259119 0.04140946 0.01209506 0.02720506 
0.01485381 0.04847990 0.00432820 0.00285637 0.00478522 0.00165219 0.00708649 0.00500466 0.03852713 0.00412050 0.02598450 0.00162974 0.02264837 0.04178813 0.01227956 0.02799556 
0.01521753 0.04911117 0.00444822 0.00285294 0.00477835 0.00167370 0.00704396 0.00512410 0.03904365 0.00415005 0.02624591 0.00162495 0.02269237 0.04227532 0.01248368 0.02873756 
0.01557534 0.04973488 0.00456768 0.00285002 0.00477980 0.00169538 0.00700334 0.00524581 0.03951543 0.00418027 0.02648443 0.00162029 0.02272265 0.04286783 0.01270640 0.02942689 
0.01592556 0.05035049 0.00468626 0.00284769 0.00478885 0.00171716 0.00696473 0.00536942 0.03993991 0.00421127 0.02669890 0.00161578 0.02273870 0.04356178 0.01294659 0.03005970 
0.01626651 0.05095739 0.00480365 0.00284606 0.00480475 0.00173901 0.00692821 0.00549457 0.04031483 0.00424316 0.02688830 0.00161145 0.02274008 0.04435271 0.01320305 0.03063243 
0.01659657 0.05155490 0.00491955 0.00284519 0.00482675 0.00176085 0.00689383 0.00562086 0.04063825 0.00427607 0.02705170 0.00160730 0.02272640 0.04523557 0.01347447 0.03114183 
0.01691411 0.05214227 0.00503366 0.00284516 0.00485405 0.00178265 0.00686161 0.00574792 0.04090856 0.00431008 0.02718836 0.00160336 0.02269734 0.04620475 0.01375949 0.03158504 
0.01721757 0.05271866 0.00514567 0.00284606 0.00488585 0.00180433 0.00683157 0.00587535 0.04112450 0.00434530 0.02729764 0.00159964 0.02265266 0.04725416 0.01405665 0.03195953 
0.01750543 0.05328319 0.00525529 0.00284793 0.00492134 0.00182586 0.00680367 0.00600273 0.04128518 0.00438183 0.02737907 0.00159615 0.02259219 0.04837722 0.01436448 0.03226319 
0.01777623 0.05383487 0.00536225 0.00285084 0.00495971 0.00184717 0.00677787 0.00612968 0.04139009 0.00441977 0.02743234 0.00159290 0.02251582 0.04956692 0.01468141 0.03249430 
0.01802858 0.05437262 0.00546627 0.00285482 0.00500015 0.00186822 0.00675410 0.00625579 0.04143910 0.00445918 0.02745728 0.00158989 0.02242356 0.05081590 0.01500587 0.03265155 
0.01826117 0.05489532 0.00556709 0.00285991 0.00504184 0.00188895 0.00673228 0.00638066 0.04143248 0.00450016 0.02745386 0.00158713 0.02231548 0.05211644 0.01533624 0.03273407 
0.01847277 0.05540173 0.00566445 0.00286614 0.00508400 0.00190932 0.00671228 0.00650388 0.04137091 0.00454276 0.02742225 0.00158463 0.02219174 0.05346056 0.01567090 0.03274143 
0.01866224 0.05589054 0.00575811 0.00287353 0.00512584 0.00192928 0.00669397 0.00662506 0.04125547 0.00458706 0.02736272 0.00158237 0.02205261 0.05484005 0.01600821 0.03267363 
0.01882854 0.05636039 0.00584786 0.00288209 0.00516661 0.00194878 0.00667720 0.00674381 0.04108763 0.00463310 0.02727574 0.00158036 0.02189843 0.05624652 0.01634653 0.03253114 
0.01897075 0.05680982 0.00593349 0.00289180 0.00520559 0.00196777 0.00666179 0.00685976 0.04086929 0.00468092 0.02716191 0.00157859 0.02172965 0.05767149 0.01668426 0.03231485 
0.01908804 0.05723732 0.00601479 0.00290266 0.00524206 0.00198622 0.00664755 0.00697253 0.04060272 0.00473057 0.02702199 0.00157705 0.02154680 0.05910638 0.01701979 0.03202611 
0.01917973 0.05764132 0.00609159 0.00291465 0.00527538 0.00200408 0.00663428 0.00708177 0.04029062 0.00478206 0.02685687 0.00157572 0.02135050 0.06054265 0.01735157 0.03166672 
0.01924522 0.05802020 0.00616374 0.00292773 0.00530490 0.00202131 0.00662174 0.00718714 0.03993603 0.00483541 0.02666761 0.00157460 0.02114147 0.06197178 0.01767808 0.03123890 
0.01928409 0.05837229 0.00623109 0.00294186 0.00533005 0.00203787 0.00660972 0.00728831 0.03954239 0.00489063 0.02645537 0.00157366 0.02092049 0.06338538 0.01799786 0.03074530 
0.01929601 0.05869590 0.00629352 0.00295699 0.00535028 0.00205372 0.00659797 0.00738496 0.03911347 0.00494771 0.02622148 0.00157289 0.02068846 0.06477521 0.01830951 0.03018898 
0.01928082 0.05898932 0.00635092 0.00297306 0.00536511 0.00206883 0.00658623 0.00747680 0.03865340 0.00500664 0.02596735 0.00157227 0.02044633 0.06613326 0.01861169 0.02957341 
0.01923848 0.05925081 0.00640321 0.00299001 0.00537409 0.00208317 0.00657425 0.00756357 0.03816659 0.00506738 0.02569455 0.00157177 0.02019513 0.06745179 0.01890317 0.02890242 
0.01916909 0.05947866 0.00645033 0.00300776 0.00537683 0.00209671 0.00656177 0.00764501 0.03765778 0.00512991 0.02540472 0.00157137 0.01993597 0.06872337 0.01918277 0.02818022 
0.01907290 0.05967116 0.00649223 0.00302623 0.00537301 0.00210941 0.00654852 0.00772090 0.03713195 0.00519419 0.02509964 0.00157105 0.01967000 0.06994097 0.01944944 0.02741134 
0.01895030 0.05982662 0.00652889 0.00304532 0.00536235 0.00212125 0.00653425 0.00779102 0.03659434 0.00526015 0.02478114 0.00157078 0.01939846 0.07109796 0.01970219 0.02660063 
0.01880183 0.05994341 0.00656031 0.00306495 0.00534463 0.00213221 0.00651868 0.00785519 0.03605037 0.00532775 0.02445116 0.00157053 0.01912261 0.07218819 0.01994017 0.02575324 
0.01862814 0.06001996 0.00658649 0.00308501 0.00531969 0.00214227 0.00650158 0.00791326 0.03550567 0.00539690 0.02411170 0.00157028 0.01884378 0.07320599 0.02016263 0.02487454 
0.01843006 0.06005475 0.00660748 0.00310540 0.00528744 0.00215140 0.00648268 0.00796509 0.03496599 0.00546753 0.02376482 0.00156999 0.01856330 0.07414626 0.02036893 0.02397017 
0.01820852 0.06004636 0.00662333 0.00312600 0.00524783 0.00215959 0.00646176 0.00801058 0.03443720 0.00553956 0.02341263 0.00156964 0.01828256 0.07500446 0.02055854 0.02304594 
0.01796460 0.05999348 0.00663412 0.00314672 0.00520090 0.00216682 0.00643857 0.00804964 0.03392526 0.00561289 0.02305728 0.00156920 0.01800297 0.07577668 0.02073108 0.02210783 
0.01769949 0.05989491 0.00663993 0.00316743 0.00514672 0.00217309 0.00641292 0.00808223 0.03343612 0.00568742 0.02270095 0.00156864 0.01772591 0.07645963 0.02088628 0.02116193 
0.01741452 0.05974957 0.00664088 0.00318802 0.00508544 0.00217838 0.00638461 0.00810832 0.03297577 0.00576305 0.02234583 0.00156794 0.01745282 0.07705069 0.02102397 0.02021446 
0.01711111 0.05955655 0.00663709 0.00320838 0.00501726 0.00218268 0.00635344 0.00812790 0.03255015 0.00583968 0.02199412 0.00156706 0.01718510 0.07754791 0.02114414 0.01927165 
0.01679081 0.05931509 0.00662872 0.00322839 0.00494244 0.00218600 0.00631927 0.00814100 0.03216509 0.00591718 0.02164802 0.00156599 0.01692414 0.07795004 0.02124689 0.01833977 
0.01645524 0.05902459 0.00661592 0.00324795 0.00486130 0.00218834 0.00628195 0.00814768 0.03182634 0.00599544 0.02130969 0.00156470 0.01667130 0.07825655 0.02133243 0.01742506 
0.01610614 0.05868466 0.00659887 0.00326693 0.00477420 0.00218968 0.00624137 0.00814800 0.03153945 0.00607434 0.02098127 0.00156316 0.01642794 0.07846759 0.02140113 0.01653372 
0.01574531 0.05829508 0.00657775 0.00328525 0.00468156 0.00219006 0.00619744 0.00814207 0.03130979 0.00615375 0.02066487 0.00156137 0.01619535 0.07858405 0.02145343 0.01567183 
0.01537464 0.05785588 0.00655278 0.00330279 0.00458387 0.00218946 0.00615010 0.00813002 0.03114248 0.00623356 0.02036253 0.00155929 0.01597478 0.07860752 0.02148991 0.01484535 
0.01499605 0.05736727 0.00652417 0.00331946 0.00448163 0.00218790 0.00609930 0.00811199 0.03104236 0.00631363 0.02007625 0.00155693 0.01576744 0.07854028 0.02151127 0.01406006 
0.01461154 0.05682971 0.00649214 0.00333516 0.00437542 0.00218540 0.00604504 0.00808816 0.03101396 0.00639384 0.01980792 0.00155425 0.01557447 0.07838531 0.02151829 0.01332153 
0.01422313 0.05624389 0.00645694 0.00334981 0.00426583 0.00218198 0.00598733 0.00805872 0.03106145 0.00647406 0.01955939 0.00155126 0.01539694 0.07814626 0.02151188 0.01263511 
0.01383290 0.05561075 0.00641881 0.00336334 0.00415352 0.00217766 0.00592625 0.00802388 0.03118863 0.00655417 0.01933237 0.00154794 0.01523584 0.07782745 0.02149302 0.01200585 
0.01344290 0.05493148 0.00637801 0.00337567 0.00403918 0.00217246 0.00586186 0.00798387 0.03139884 0.00663403 0.01912850 0.00154430 0.01509209 0.07743381 0.02146278 0.01143850 
0.01305522 0.05420750 0.00633479 0.00338675 0.00392351 0.00216641 0.00579428 0.00793895 0.03169502 0.00671353 0.01894930 0.00154032 0.01496653 0.07697085 0.02142233 0.01093747 
0.01267193 0.05344051 0.00628944 0.00339651 0.00380725 0.00215954 0.00572367 0.00788938 0.03207959 0.00679255 0.01879617 0.00153602 0.01485990 0.07644469 0.02137288 0.01050678 
0.01229509 0.05263246 0.00624221 0.00340491 0.00369119 0.00215190 0.00565020 0.00783543 0.03255450 0.00687096 0.01867038 0.00153139 0.01477285 0.07586194 0.02131574 0.01015009 
0.01192673 0.05178555 0.00619338 0.00341193 0.00357610 0.00214351 0.00557410 0.00777742 0.03312116 0.00694866 0.01857306 0.00152645 0.01470593 0.07522972 0.02125224 0.00987062 
0.01156883 0.05090223 0.00614323 0.00341753 0.00346281 0.00213442 0.00549561 0.00771563 0.03378042 0.00702552 0.01850522 0.00152120 0.01465960 0.07455559 0.02118380 0.00967112 
0.01122332 0.04998519 0.00609205 0.00342170 0.00335214 0.00212467 0.00541501 0.00765040 0.03453259 0.00710143 0.01846770 0.00151567 0.01463421 0.07384751 0.02111183 0.00955392 
0.01089207 0.04903739 0.00604011 0.00342443 0.00324491 0.00211432 0.00533261 0.00758204 0.03537741 0.00717629 0.01846120 0.00150988 0.01463002 0.07311377 0.02103780 0.00952084 
0.01057689 0.04806200 0.00598768 0.00342574 0.00314198 0.00210342 0.00524876 0.00751089 0.03631401 0.00725000 0.01848627 0.00150383 0.01464716 0.07236299 0.02096318 0.00957320 
0.01027948 0.04706242 0.00593504 0.00342564 0.00304420 0.00209201 0.00516384 0.00743729 0.03734095 0.00732246 0.01854330 0.00149756 0.01468570 0.07160401 0.02088948 0.00971182 
0.01000146 0.04604226 0.00588247 0.00342415 0.00295239 0.00208017 0.00507824 0.00736158 0.03845620 0.00739356 0.01863251 0.00149110 0.01474557 0.07084587 0.02081818 0.00993700 
0.00974436 0.04500535 0.00583022 0.00342131 0.00286741 0.00206794 0.00499241 0.00728411 0.03965712 0.00746322 0.01875399 0.00148447 0.01482662 0.07009774 0.02075075 0.01024852 
0.00950958 0.04395569 0.00577856 0.00341716 0.00279009 0.00205539 0.00490680 0.00720523 0.04094052 0.00753134 0.01890762 0.00147772 0.01492861 0.06936885 0.02068866 0.01064563 
0.00929840 0.04289747 0.00572774 0.00341177 0.00272125 0.00204259 0.00482189 0.00712528 0.04230260 0.00759785 0.01909317 0.00147087 0.01505119 0.06866846 0.02063334 0.01112705 
0.00911200 0.04183501 0.00567801 0.00340519 0.00266168 0.00202961 0.00473820 0.00704461 0.04373901 0.00766266 0.01931022 0.00146397 0.01519393 0.06800579 0.02058617 0.01169097 
0.00895139 0.04077280 0.00562960 0.00339749 0.00261218 0.00201651 0.00465624 0.00696356 0.04524487 0.00772569 0.01955819 0.00145706 0.01535631 0.06738992 0.02054851 0.01233509 
0.00881748 0.03971543 0.00558274 0.00338877 0.00257350 0.00200337 0.00457658 0.00688248 0.04681476 0.00778686 0.01983637 0.00145018 0.01553773 0.06682980 0.02052165 0.01305658 
0.00871102 0.03866759 0.00553765 0.00337910 0.00254638 0.00199026 0.00449977 0.00680168 0.04844275 0.00784610 0.02014388 0.00144339 0.01573751 0.06633413 0.02050680 0.01385212 
0.00863261 0.03763404 0.00549452 0.00336859 0.00253152 0.00197725 0.00442640 0.00672150 0.05012247 0.00790334 0.02047970 0.00143671 0.01595493 0.06591136 0.02050512 0.01471794 
0.00858271 0.03661961 0.00545355 0.00335733 0.00252960 0.00196443 0.00435704 0.00664224 0.05184708 0.00795851 0.02084267 0.00143022 0.01618916 0.06556957 0.02051768 0.01564977 
0.00856161 0.03562914 0.00541492 0.00334543 0.00254124 0.00195186 0.00429231 0.00656423 0.05360936 0.00801154 0.02123149 0.00142395 0.01643936 0.06531645 0.02054547 0.01664294 
0.00856948 0.03466750 0.00537879 0.00333300 0.00256705 0.00193964 0.00423280 0.00648774 0.05540168 0.00806237 0.02164475 0.00141797 0.01670460 0.06515927 0.02058938 0.01769237 
0.00860631 0.03373952 0.00534530 0.00332016 0.00260757 0.00192782 0.00417912 0.00641308 0.05721613 0.00811093 0.02208091 0.00141231 0.01698394 0.06510476 0.02065019 0.01879256 
0.00867195 0.03284999 0.00531460 0.00330703 0.00266332 0.00191650 0.00413187 0.00634050 0.05904449 0.00815716 0.02253831 0.00140705 0.01727639 0.06515915 0.02072859 0.01993771 
0.00876609 0.03200364 0.00528680 0.00329372 0.00273476 0.00190575 0.00409165 0.00627027 0.06087829 0.00820099 0.02301521 0.00140222 0.01758095 0.06532805 0.02082515 0.02112167 
0.00888828 0.03120509 0.00526201 0.00328037 0.00282230 0.00189564 0.00405907 0.00620262 0.06270888 0.00824236 0.02350977 0.00139789 0.01789657 0.06561645 0.02094033 0.02233801 
0.00903793 0.03045884 0.00524031 0.00326709 0.00292630 0.00188625 0.00403469 0.00613781 0.06452747 0.00828121 0.02402005 0.00139411 0.01822222 0.06602865 0.02107447 0.02358007 
0.00921429 0.02976926 0.00522176 0.00325400 0.00304707 0.00187766 0.00401909 0.00607602 0.06632517 0.00831747 0.02454408 0.00139093 0.01855685 0.06656828 0.02122778 0.02484095 
0.00941649 0.02914052 0.00520643 0.00324124 0.00318485 0.00186993 0.00401281 0.00601747 0.06809304 0.00835109 0.02507979 0.00138841 0.01889943 0.06723820 0.02140037 0.02611363 
0.00964351 0.02857661 0.00519434 0.00322892 0.00333985 0.00186314 0.00401638 0.00596234 0.06982215 0.00838199 0.02562508 0.00138659 0.01924891 0.06804052 0.02159219 0.02739091 
0.00989423 0.02808129 0.00518551 0.00321715 0.00351220 0.00185735 0.00403031 0.00591080 0.07150364 0.00841011 0.02617782 0.00138553 0.01960430 0.06897659 0.02180308 0.02866555 
0.01016740 0.02765807 0.00517995 0.00320605 0.00370198 0.00185262 0.00405507 0.00586299 0.07312875 0.00843540 0.02673585 0.00138528 0.01996460 0.07004691 0.02203276 0.02993026 
0.01046165 0.02731020 0.00517764 0.00319573 0.00390920 0.00184902 0.00409109 0.00581905 0.07468890 0.00845777 0.02729700 0.00138588 0.02032886 0.07125121 0.02228082 0.03117774 
0.01077552 0.02704063 0.00517854 0.00318629 0.00413381 0.00184661 0.00413879 0.00577910 0.07617573 0.00847716 0.02785910 0.00138738 0.02069616 0.07258837 0.02254670 0.03240075 
0.01110746 0.02685200 0.00518260 0.00317783 0.00437572 0.00184543 0.00419852 0.00574323 0.07758112 0.00849351 0.02841998 0.00138982 0.02106562 0.07405647 0.02282976 0.03359216 
0.01145582 0.02674661 0.00518976 0.00317044 0.00463476 0.00184554 0.00427062 0.00571153 0.07889729 0.00850675 0.02897752 0.00139324 0.02143642 0.07565273 0.02312920 0.03474496 
0.01181890 0.02672643 0.00519994 0.00316421 0.00491068 0.00184697 0.00435536 0.00568406 0.08011683 0.00851680 0.02952961 0.00139768 0.02180777 0.07737359 0.02344413 0.03585233 
0.01219489 0.02679304 0.00521303 0.00315921 0.00520321 0.00184978 0.00445298 0.00566087 0.08123271 0.00852360 0.03007421 0.00140317 0.02217897 0.07921466 0.02377353 0.03690767 
0.01258198 0.02694766 0.00522892 0.00315551 0.00551198 0.00185399 0.00456366 0.00564201 0.08223838 0.00852708 0.03060934 0.00140974 0.02254933 0.08117078 0.02411628 0.03790466 
0.01297828 0.02719111 0.00524749 0.00315316 0.00583659 0.00185962 0.00468752 0.00562747 0.08312777 0.00852717 0.03113306 0.00141742 0.02291827 0.08323600 0.02447114 0.03883729 
0.01338188 0.02752379 0.00526859 0.00315223 0.00617656 0.00186672 0.00482465 0.00561727 0.08389535 0.00852380 0.03164356 0.00142623 0.02328522 0.08540366 0.02483681 0.03969990 
0.01379084 0.02794571 0.00529207 0.00315274 0.00653135 0.00187528 0.00497505 0.00561139 0.08453616 0.00851691 0.03213909 0.00143618 0.02364973 0.08766637 0.02521185 0.04048719 
0.01420320 0.02845644 0.00531776 0.00315472 0.00690038 0.00188532 0.00513868 0.00560980 0.08504581 0.00850642 0.03261801 0.00144730 0.02401137 0.09001606 0.02559479 0.04119433 
0.01461702 0.02905514 0.00534549 0.00315820 0.00728300 0.00189685 0.00531546 0.00561245 0.08542058 0.00849229 0.03307879 0.00145959 0.02436978 0.09244404 0.02598403 0.04181690 
0.01503035 0.02974053 0.00537507 0.00316319 0.00767850 0.00190987 0.00550520 0.00561928 0.08565737 0.00847444 0.03352001 0.00147305 0.02472467 0.09494103 0.02637794 0.04235100 
0.01544126 0.03051091 0.00540630 0.00316967 0.00808614 0.00192436 0.00570770 0.00563022 0.08575375 0.00845282 0.03394040 0.00148769 0.02507582 0.09749719 0.02677483 0.04279321 
0.01584787 0.03136416 0.00543897 0.00317765 0.00850512 0.00194031 0.00592265 0.00564518 0.08570799 0.00842738 0.03433881 0.00150350 0.02542303 0.10010222 0.02717294 0.04314069 
0.01624830 0.03229771 0.00547288 0.00318709 0.00893457 0.00195770 0.00614972 0.00566407 0.08551907 0.00839807 0.03471422 0.00152047 0.02576619 0.10274535 0.02757048 0.04339111 
0.01664075 0.03330862 0.00550781 0.00319796 0.00937361 0.00197651 0.00638850 0.00568676 0.08518665 0.00836485 0.03506578 0.00153859 0.02610522 0.10541545 0.02796564 0.04354275 
0.01702347 0.03439350 0.00554354 0.00321022 0.00982130 0.00199669 0.00663851 0.00571313 0.08471113 0.00832769 0.03539275 0.00155782 0.02644009 0.10810108 0.02835657 0.04359448 
0.01739476 0.03554861 0.00557983 0.00322381 0.01027666 0.00201821 0.00689923 0.00574304 0.08409361 0.00828655 0.03569457 0.00157816 0.02677081 0.11079052 0.02874143 0.04354577 
0.01775302 0.03676979 0.00561647 0.00323867 0.01073868 0.00204102 0.00717005 0.00577634 0.08333590 0.00824142 0.03597083 0.00159956 0.02709743 0.11347188 0.02911836 0.04339669 
0.01809671 0.03805255 0.00565323 0.00325472 0.01120630 0.00206507 0.00745035 0.00581287 0.08244052 0.00819229 0.03622127 0.00162199 0.02742001 0.11613315 0.02948552 0.04314793 
0.01842440 0.03939204 0.00568988 0.00327189 0.01167846 0.00209030 0.00773940 0.00585246 0.08141067 0.00813914 0.03644579 0.00164540 0.02773866 0.11876225 0.02984110 0.04280081 
0.01873472 0.04078307 0.00572619 0.00329008 0.01215404 0.00211664 0.00803647 0.00589493 0.08025023 0.00808200 0.03664443 0.00166975 0.02805349 0.12134711 0.03018332 0.04235723 
0.01902645 0.04222017 0.00576195 0.00330919 0.01263192 0.00214402 0.00834074 0.00594009 0.07896373 0.00802087 0.03681741 0.00169499 0.02836462 0.12387577 0.03051042 0.04181970 
0.01929843 0.04369759 0.00579693 0.00332911 0.01311095 0.00217237 0.00865136 0.00598774 0.07755632 0.00795580 0.03696507 0.00172106 0.02867217 0.12633639 0.03082072 0.04119134 
0.01954964 0.04520932 0.00583093 0.00334974 0.01358998 0.00220161 0.00896744 0.00603767 0.07603378 0.00788681 0.03708791 0.00174789 0.02897627 0.12871737 0.03111259 0.04047583 
0.01977917 0.04674912 0.00586375 0.00337094 0.01406783 0.00223165 0.00928804 0.00608967 0.07440244 0.00781398 0.03718657 0.00177541 0.02927702 0.13100740 0.03138447 0.03967739 
0.01998622 0.04831058 0.00589519 0.00339261 0.01454332 0.00226239 0.00961219 0.00614352 0.07266918 0.00773736 0.03726182 0.00180356 0.02957452 0.13319550 0.03163488 0.03880079 
0.02017012 0.04988711 0.00592507 0.00341460 0.01501527 0.00229376 0.00993889 0.00619898 0.07084137 0.00765705 0.03731458 0.00183225 0.02986883 0.13527113 0.03186246 0.03785131 
0.02033033 0.05147198 0.00595321 0.00343678 0.01548250 0.00232564 0.01026712 0.00625582 0.06892686 0.00757313 0.03734587 0.00186141 0.03016001 0.13722424 0.03206590 0.03683468 
0.02046641 0.05305837 0.00597946 0.00345902 0.01594382 0.00235795 0.01059581 0.00631381 0.06693390 0.00748573 0.03735684 0.00189094 0.03044803 0.13904528 0.03224403 0.03575708 
0.02057807 0.05463941 0.00600366 0.00348118 0.01639807 0.00239057 0.01092390 0.00637271 0.06487115 0.00739496 0.03734873 0.00192076 0.03073288 0.14072534 0.03239579 0.03462513 
0.02066514 0.05620819 0.00602569 0.00350312 0.01684408 0.00242341 0.01125031 0.00643226 0.06274758 0.00730098 0.03732289 0.00195078 0.03101446 0.14225613 0.03252023 0.03344576 
0.02072757 0.05775779 0.00604543 0.00352471 0.01728072 0.00245635 0.01157394 0.00649221 0.06057244 0.00720393 0.03728075 0.00198090 0.03129262 0.14363009 0.03261655 0.03222627 
0.02076542 0.05928136 0.00606278 0.00354579 0.01770686 0.00248930 0.01189372 0.00655233 0.05835525 0.00710401 0.03722383 0.00201101 0.03156719 0.14484038 0.03268407 0.03097422 
0.02077891 0.06077212 0.00607766 0.00356624 0.01812140 0.00252213 0.01220854 0.00661235 0.05610570 0.00700138 0.03715370 0.00204103 0.03183790 0.14588095 0.03272223 0.02969742 
0.02076834 0.06222338 0.00609000 0.00358592 0.01852328 0.00255475 0.01251733 0.00667202 0.05383360 0.00689627 0.03707200 0.00207084 0.03210443 0.14674658 0.03273064 0.02840387 
0.02073414 0.06362864 0.00609975 0.00360470 0.01891145 0.00258705 0.01281903 0.00673110 0.05154888 0.00678889 0.03698041 0.00210035 0.03236641 0.14743291 0.03270904 0.02710169 
0.02067686 0.06498156 0.00610689 0.00362246 0.01928490 0.00261891 0.01311258 0.00678933 0.04926150 0.00667948 0.03688063 0.00212944 0.03262340 0.14793644 0.03265732 0.02579912 
0.02059715 0.06627602 0.00611140 0.00363906 0.01964267 0.00265025 0.01339697 0.00684648 0.04698139 0.00656828 0.03677440 0.00215802 0.03287487 0.14825460 0.03257552 0.02450442 
0.02049578 0.06750616 0.00611329 0.00365440 0.01998383 0.00268094 0.01367119 0.00690230 0.04471845 0.00645557 0.03666346 0.00218598 0.03312026 0.14838570 0.03246382 0.02322585 
0.02037358 0.06866639 0.00611259 0.00366837 0.02030749 0.00271090 0.01393430 0.00695655 0.04248244 0.00634162 0.03654955 0.00221320 0.03335892 0.14832902 0.03232256 0.02197160 
0.02023153 0.06975147 0.00610936 0.00368085 0.02061282 0.00274003 0.01418537 0.00700902 0.04028299 0.00622671 0.03643441 0.00223960 0.03359015 0.14808474 0.03215220 0.02074977 
0.02007064 0.07075647 0.00610365 0.00369177 0.02089902 0.00276822 0.01442352 0.00705948 0.03812950 0.00611116 0.03631973 0.00226507 0.03381318 0.14765396 0.03195339 0.01956828 
0.01989205 0.07167686 0.00609554 0.00370103 0.02116535 0.00279541 0.01464793 0.00710771 0.03603113 0.00599528 0.03620720 0.00228950 0.03402720 0.14703874 0.03172687 0.01843483 
0.01969695 0.07250849 0.00608515 0.00370856 0.02141114 0.00282149 0.01485782 0.00715353 0.03399676 0.00587938 0.03609842 0.00231281 0.03423133 0.14624203 0.03147355 0.01735688 
0.01948660 0.07324765 0.00607258 0.00371430 0.02163576 0.00284638 0.01505247 0.00719674 0.03203491 0.00576381 0.03599499 0.00233489 0.03442465 0.14526764 0.03119446 0.01634157 
0.01926234 0.07389108 0.00605798 0.00371818 0.02183863 0.00287003 0.01523123 0.00723717 0.03015374 0.00564890 0.03589839 0.00235566 0.03460620 0.14412030 0.03089075 0.01539571 
0.01902555 0.07443598 0.00604149 0.00372016 0.02201923 0.00289234 0.01539349 0.00727465 0.02836102 0.00553500 0.03581006 0.00237503 0.03477498 0.14280553 0.03056370 0.01452569 
0.01877766 0.07488004 0.00602328 0.00372021 0.02217713 0.00291327 0.01553873 0.00730906 0.02666404 0.00542245 0.03573135 0.00239293 0.03492997 0.14132967 0.03021470 0.01373748 
0.01852015 0.07522144 0.00600353 0.00371830 0.02231193 0.00293275 0.01566648 0.00734025 0.02506963 0.00531163 0.03566353 0.00240928 0.03507013 0.13969984 0.02984522 0.01303658 
0.01825454 0.07545888 0.00598241 0.00371443 0.02242329 0.00295073 0.01577635 0.00736812 0.02358412 0.00520287 0.03560774 0.00242401 0.03519438 0.13792386 0.02945687 0.01242797 
0.01798235 0.07559158 0.00596014 0.00370858 0.02251096 0.00296717 0.01586803 0.00739259 0.02221331 0.00509655 0.03556505 0.00243706 0.03530168 0.13601021 0.02905130 0.01191612 
0.01770514 0.07561930 0.00593692 0.00370078 0.02257474 0.00298203 0.01594127 0.00741359 0.02096243 0.00499302 0.03553641 0.00244837 0.03539096 0.13396801 0.02863026 0.01150489 
0.01742450 0.07554232 0.00591296 0.00369105 0.02261448 0.00299529 0.01599590 0.00743107 0.01983616 0.00489262 0.03552264 0.00245790 0.03546118 0.13180694 0.02819556 0.01119759 
0.01714198 0.07536145 0.00588847 0.00367941 0.02263012 0.00300691 0.01603182 0.00744501 0.01883858 0.00479573 0.03552447 0.00246561 0.03551131 0.12953718 0.02774907 0.01099691 
0.01685917 0.07507805 0.00586369 0.00366592 0.02262163 0.00301688 0.01604903 0.00745543 0.01797315 0.00470267 0.03554248 0.00247147 0.03554035 0.12716937 0.02729269 0.01090489 
0.01657764 0.07469399 0.00583884 0.00365062 0.02258908 0.00302520 0.01604757 0.00746234 0.01724275 0.00461378 0.03557713 0.00247546 0.03554736 0.12471450 0.02682836 0.01092294 
0.01629894 0.07421168 0.00581414 0.00363359 0.02253259 0.00303186 0.01602758 0.00746581 0.01664962 0.00452940 0.03562877 0.00247756 0.03553143 0.12218391 0.02635806 0.01105183 
0.01602458 0.07363401 0.00578981 0.00361490 0.02245231 0.00303686 0.01598927 0.00746591 0.01619536 0.00444984 0.03569761 0.00247777 0.03549171 0.11958919 0.02588374 0.01129166 
0.01575609 0.07296440 0.00576606 0.00359463 0.02234850 0.00304022 0.01593292 0.00746275 0.01588098 0.00437540 0.03578373 0.00247610 0.03542744 0.11694208 0.02540739 0.01164187 
0.01549492 0.07220673 0.00574311 0.00357287 0.02222145 0.00304195 0.01585888 0.00745648 0.01570684 0.00430637 0.03588709 0.00247256 0.03533789 0.11425447 0.02493096 0.01210125 
0.01524250 0.07136534 0.00572117 0.00354973 0.02207151 0.00304208 0.01576757 0.00744725 0.01567269 0.00424303 0.03600752 0.00246717 0.03522246 0.11153830 0.02445639 0.01266796 
0.01500021 0.07044504 0.00570041 0.00352531 0.02189909 0.00304065 0.01565948 0.00743526 0.01577767 0.00418563 0.03614471 0.00245998 0.03508061 0.10880547 0.02398558 0.01333949 
0.01476937 0.06945101 0.00568103 0.00349973 0.02170465 0.00303769 0.01553516 0.00742074 0.01602032 0.00413441 0.03629827 0.00245103 0.03491190 0.10606782 0.02352038 0.01411273 
0.01455126 0.06838886 0.00566320 0.00347311 0.02148872 0.00303323 0.01539523 0.00740392 0.01639859 0.00408958 0.03646766 0.00244038 0.03471602 0.10333702 0.02306260 0.01498397 
0.01434708 0.06726456 0.00564705 0.00344557 0.02125185 0.00302734 0.01524035 0.00738508 0.01690988 0.00405134 0.03665224 0.00242808 0.03449273 0.10062456 0.02261397 0.01594891 
0.01415798 0.06608438 0.00563274 0.00341724 0.02099467 0.00302007 0.01507125 0.00736452 0.01755100 0.00401985 0.03685124 0.00241421 0.03424193 0.09794164 0.02217616 0.01700272 
0.01398501 0.06485494 0.00562038 0.00338826 0.02071783 0.00301147 0.01488870 0.00734257 0.01831828 0.00399527 0.03706382 0.00239887 0.03396363 0.09529915 0.02175075 0.01814001 
0.01382917 0.06358309 0.00561007 0.00335877 0.02042204 0.00300160 0.01469353 0.00731958 0.01920751 0.00397770 0.03728903 0.00238214 0.03365796 0.09270758 0.02133924 0.01935494 
0.01369137 0.06227593 0.00560188 0.00332889 0.02010803 0.00299055 0.01448659 0.00729591 0.02021400 0.00396726 0.03752583 0.00236411 0.03332518 0.09017702 0.02094301 0.02064119 
0.01357244 0.06094074 0.00559589 0.00329876 0.01977661 0.00297836 0.01426880 0.00727196 0.02133262 0.00396400 0.03777309 0.00234492 0.03296566 0.08771706 0.02056337 0.02199203 
0.01347313 0.05958498 0.00559211 0.00326852 0.01942857 0.00296513 0.01404108 0.00724814 0.02255781 0.00396795 0.03802961 0.00232467 0.03257991 0.08533678 0.02020148 0.02340038 
0.01339408 0.05821623 0.00559058 0.00323831 0.01906479 0.00295093 0.01380439 0.00722487 0.02388361 0.00397914 0.03829413 0.00230348 0.03216856 0.08304469 0.01985844 0.02485879 
0.01333586 0.05684212 0.00559127 0.00320825 0.01868612 0.00293583 0.01355973 0.00720259 0.02530371 0.00399753 0.03856532 0.00228150 0.03173236 0.08084872 0.01953517 0.02635956 
0.01329895 0.05547035 0.00559416 0.00317849 0.01829349 0.00291993 0.01330809 0.00718176 0.02681144 0.00402309 0.03884180 0.00225885 0.03127220 0.07875616 0.01923253 0.02789473 
0.01328370 0.05410862 0.00559920 0.00314914 0.01788783 0.00290329 0.01305051 0.00716284 0.02839988 0.00405572 0.03912216 0.00223569 0.03078907 0.07677367 0.01895121 0.02945618 
0.01329042 0.05276457 0.00560630 0.00312032 0.01747008 0.00288602 0.01278800 0.00714628 0.03006181 0.00409533 0.03940493 0.00221217 0.03028407 0.07490723 0.01869180 0.03103560 
0.01331927 0.05144580 0.00561537 0.00309216 0.01704124 0.00286818 0.01252160 0.00713258 0.03178980 0.00414177 0.03968863 0.00218843 0.02975843 0.07316213 0.01845476 0.03262465 
0.01337034 0.05015974 0.00562629 0.00306476 0.01660227 0.00284988 0.01225235 0.00712218 0.03357624 0.00419488 0.03997177 0.00216463 0.02921349 0.07154296 0.01824042 0.03421490 
0.01344363 0.04891372 0.00563891 0.00303823 0.01615419 0.00283120 0.01198128 0.00711556 0.03541334 0.00425446 0.04025284 0.00214094 0.02865066 0.07005361 0.01804899 0.03579795 
0.01353903 0.04771483 0.00565307 0.00301266 0.01569801 0.00281222 0.01170940 0.00711319 0.03729322 0.00432029 0.04053035 0.00211751 0.02807148 0.06869726 0.01788056 0.03736548 
0.01365633 0.04656996 0.00566860 0.00298815 0.01523474 0.00279303 0.01143772 0.00711550 0.03920792 0.00439213 0.04080278 0.00209450 0.02747754 0.06747637 0.01773510 0.03890924 
0.01379524 0.04548571 0.00568529 0.00296477 0.01476542 0.00277372 0.01116723 0.00712293 0.04114943 0.00446970 0.04106866 0.00207207 0.02687053 0.06639273 0.01761245 0.04042117 
0.01395538 0.04446840 0.00570293 0.00294259 0.01429107 0.00275436 0.01089890 0.00713591 0.04310973 0.00455269 0.04132654 0.00205039 0.02625221 0.06544741 0.01751237 0.04189340 
0.01413626 0.04352400 0.00572129 0.00292169 0.01381272 0.00273505 0.01063367 0.00715482 0.04508084 0.00464080 0.04157500 0.00202961 0.02562438 0.06464082 0.01743447 0.04331831 
0.01433732 0.04265812 0.00574014 0.00290212 0.01333140 0.00271587 0.01037244 0.00718004 0.04705484 0.00473367 0.04181266 0.00200987 0.02498893 0.06397270 0.01737828 0.04468859 
0.01455791 0.04187599 0.00575922 0.00288392 0.01284811 0.00269689 0.01011610 0.00721193 0.04902392 0.00483095 0.04203820 0.00199134 0.02434774 0.06344217 0.01734325 0.04599725 
0.01479730 0.04118241 0.00577828 0.00286713 0.01236388 0.00267820 0.00986548 0.00725078 0.05098040 0.00493225 0.04225033 0.00197416 0.02370276 0.06304773 0.01732871 0.04723767 
0.01505467 0.04058172 0.00579706 0.00285179 0.01187972 0.00265986 0.00962139 0.00729688 0.05291677 0.00503718 0.04244785 0.00195846 0.02305595 0.06278730 0.01733392 0.04840366 
0.01532916 0.04007781 0.00581528 0.00283790 0.01139660 0.00264197 0.00938457 0.00735048 0.05482572 0.00514533 0.04262961 0.00194438 0.02240927 0.06265824 0.01735805 0.04948945 
0.01561979 0.03967408 0.00583268 0.00282547 0.01091552 0.00262457 0.00915575 0.00741177 0.05670017 0.00525628 0.04279455 0.00193203 0.02176469 0.06265739 0.01740024 0.05048978 
0.01592556 0.03937343 0.00584899 0.00281452 0.01043744 0.00260775 0.00893558 0.00748092 0.05853330 0.00536960 0.04294167 0.00192154 0.02112418 0.06278114 0.01745951 0.05139986 
0.01624539 0.03917822 0.00586395 0.00280504 0.00996330 0.00259157 0.00872469 0.00755803 0.06031860 0.00548485 0.04307008 0.00191301 0.02048968 0.06302537 0.01753488 0.05221544 
0.01657815 0.03909031 0.00587730 0.00279700 0.00949403 0.00257610 0.00852362 0.00764318 0.06204985 0.00560158 0.04317894 0.00190653 0.01986308 0.06338561 0.01762529 0.05293283 
0.01692265 0.03911098 0.00588880 0.00279039 0.00903054 0.00256140 0.00833290 0.00773638 0.06372118 0.00571936 0.04326754 0.00190219 0.01924627 0.06385699 0.01772965 0.05354888 
0.01727767 0.03924100 0.00589819 0.00278517 0.00857371 0.00254752 0.00815298 0.00783760 0.06532709 0.00583775 0.04333525 0.00190006 0.01864107 0.06443432 0.01784685 0.05406104 
0.01764196 0.03948055 0.00590527 0.00278132 0.00812443 0.00253452 0.00798426 0.00794675 0.06686247 0.00595629 0.04338153 0.00190020 0.01804923 0.06511212 0.01797575 0.05446733 
0.01801421 0.03982930 0.00590980 0.00277878 0.00768351 0.00252245 0.00782708 0.00806369 0.06832261 0.00607457 0.04340596 0.00190265 0.01747245 0.06588466 0.01811519 0.05476639 
0.01839310 0.04028632 0.00591161 0.00277751 0.00725178 0.00251137 0.00768173 0.00818822 0.06970323 0.00619214 0.04340820 0.00190746 0.01691235 0.06674603 0.01826403 0.05495743 
0.01877731 0.04085018 0.00591051 0.00277746 0.00683003 0.00250131 0.00754845 0.00832010 0.07100047 0.00630859 0.04338802 0.00191464 0.01637047 0.06769012 0.01842110 0.05504026 
0.01916548 0.04151888 0.00590635 0.00277856 0.00641902 0.00249234 0.00742741 0.00845903 0.07221096 0.00642352 0.04334529 0.00192420 0.01584825 0.06871073 0.01858526 0.05501530 
0.01955625 0.04228989 0.00589900 0.00278076 0.00601949 0.00248447 0.00731873 0.00860464 0.07333177 0.00653655 0.04328001 0.00193612 0.01534705 0.06980157 0.01875538 0.05488354 
0.01994827 0.04316019 0.00588834 0.00278398 0.00563213 0.00247776 0.00722248 0.00875653 0.07436045 0.00664729 0.04319224 0.00195040 0.01486811 0.07095629 0.01893035 0.05464653 
0.02034019 0.04412623 0.00587429 0.00278816 0.00525764 0.00247224 0.00713868 0.00891424 0.07529503 0.00675540 0.04308217 0.00196699 0.01441257 0.07216855 0.01910909 0.05430639 
0.02073067 0.04518398 0.00585678 0.00279323 0.00489665 0.00246795 0.00706728 0.00907726 0.07613404 0.00686056 0.04295007 0.00198584 0.01398147 0.07343205 0.01929057 0.05386577 
0.02111839 0.04632896 0.00583580 0.00279911 0.00454978 0.00246490 0.00700819 0.00924502 0.07687648 0.00696244 0.04279633 0.00200690 0.01357572 0.07474054 0.01947380 0.05332784 
0.02150208 0.04755624 0.00581132 0.00280573 0.00421763 0.00246313 0.00696129 0.00941693 0.07752186 0.00706079 0.04262141 0.00203007 0.01319612 0.07608787 0.01965781 0.05269626 
0.02188046 0.04886047 0.00578336 0.00281302 0.00390073 0.00246265 0.00692637 0.00959235 0.07807016 0.00715534 0.04242588 0.00205528 0.01284334 0.07746804 0.01984171 0.05197516 
0.02225232 0.05023592 0.00575198 0.00282090 0.00359962 0.00246350 0.00690322 0.00977057 0.07852185 0.00724587 0.04221039 0.00208240 0.01251793 0.07887520 0.02002466 0.05116909 
0.02261648 0.05167648 0.00571725 0.00282930 0.00331478 0.00246568 0.00689156 0.00995089 0.07887787 0.00733219 0.04197568 0.00211134 0.01222034 0.08030367 0.02020588 0.05028302 
0.02297180 0.05317572 0.00567926 0.00283814 0.00304667 0.00246921 0.00689108 0.01013255 0.07913964 0.00741414 0.04172256 0.00214195 0.01195087 0.08174802 0.02038465 0.04932229 
0.02331722 0.05472690 0.00563814 0.00284735 0.00279572 0.00247410 0.00690142 0.01031477 0.07930902 0.00749159 0.04145192 0.00217411 0.01170971 0.08320301 0.02056033 0.04829257 
0.02365171 0.05632304 0.00559404 0.00285687 0.00256232 0.00248035 0.00692222 0.01049673 0.07938832 0.00756445 0.04116473 0.00220764 0.01149694 0.08466370 0.02073233 0.04719985 
0.02397431 0.05795690 0.00554714 0.00286662 0.00234683 0.00248798 0.00695304 0.01067761 0.07938028 0.00763265 0.04086201 0.00224240 0.01131252 0.08612539 0.02090016 0.04605036 
0.02428413 0.05962105 0.00549763 0.00287654 0.00214957 0.00249697 0.00699346 0.01085658 0.07928803 0.00769616 0.04054485 0.00227821 0.01115628 0.08758370 0.02106337 0.04485057 
0.02458036 0.06130791 0.00544572 0.00288657 0.00197082 0.00250732 0.00704299 0.01103277 0.07911510 0.00775500 0.04021438 0.00231489 0.01102798 0.08903451 0.02122160 0.04360713 
0.02486224 0.06300977 0.00539166 0.00289665 0.00181085 0.00251903 0.00710116 0.01120534 0.07886538 0.00780921 0.03987179 0.00235226 0.01092723 0.09047406 0.02137459 0.04232683 
0.02512910 0.06471883 0.00533569 0.00290671 0.00166986 0.00253208 0.00716745 0.01137342 0.07854310 0.00785886 0.03951832 0.00239013 0.01085357 0.09189888 0.02152210 0.04101660 
0.02538034 0.06642725 0.00527808 0.00291671 0.00154805 0.00254646 0.00724133 0.01153616 0.07815280 0.00790405 0.03915522 0.00242829 0.01080645 0.09330585 0.02166402 0.03968339 
0.02561545 0.06812719 0.00521910 0.00292661 0.00144557 0.00256215 0.00732228 0.01169272 0.07769932 0.00794493 0.03878379 0.00246654 0.01078521 0.09469215 0.02180028 0.03833421 
0.02583400 0.06981084 0.00515906 0.00293634 0.00136252 0.00257913 0.00740975 0.01184227 0.07718774 0.00798168 0.03840535 0.00250469 0.01078914 0.09605533 0.02193089 0.03697607 
0.02603562 0.07147044 0.00509825 0.00294586 0.00129897 0.00259736 0.00750318 0.01198400 0.07662337 0.00801448 0.03802122 0.00254252 0.01081743 0.09739325 0.02205593 0.03561590 
0.02622004 0.07309835 0.00503696 0.00295515 0.00125497 0.00261682 0.00760203 0.01211713 0.07601173 0.00804359 0.03763275 0.00257983 0.01086922 0.09870410 0.02217556 0.03426057 
0.02638708 0.07468709 0.00497551 0.00296415 0.00123052 0.00263747 0.00770574 0.01224091 0.07535849 0.00806924 0.03724129 0.00261641 0.01094361 0.09998640 0.02228998 0.03291682 
0.02653663 0.07622934 0.00491420 0.00297284 0.00122556 0.00265927 0.00781377 0.01235462 0.07466944 0.00809174 0.03684816 0.00265206 0.01103960 0.10123898 0.02239949 0.03159125 
0.02666865 0.07771800 0.00485333 0.00298119 0.00124003 0.00268218 0.00792558 0.01245758 0.07395048 0.00811137 0.03645470 0.00268657 0.01115621 0.10246099 0.02250441 0.03029026 
0.02678320 0.07914624 0.00479320 0.00298916 0.00127381 0.00270614 0.00804064 0.01254916 0.07320755 0.00812848 0.03606223 0.00271976 0.01129239 0.10365187 0.02260514 0.02902003 
0.02688040 0.08050748 0.00473410 0.00299674 0.00132673 0.00273111 0.00815842 0.01262877 0.07244664 0.00814341 0.03567203 0.00275143 0.01144708 0.10481133 0.02270212 0.02778652 
0.02696046 0.08179548 0.00467631 0.00300389 0.00139861 0.00275702 0.00827843 0.01269587 0.07167371 0.00815652 0.03528538 0.00278140 0.01161921 0.10593938 0.02279584 0.02659537 
0.02702365 0.08300436 0.00462010 0.00301060 0.00148920 0.00278382 0.00840019 0.01274998 0.07089466 0.00816819 0.03490349 0.00280949 0.01180768 0.10703627 0.02288683 0.02545198 
0.02707032 0.08412858 0.00456572 0.00301686 0.00159822 0.00281145 0.00852322 0.01279068 0.07011535 0.00817881 0.03452756 0.00283554 0.01201142 0.10810248 0.02297567 0.02436137 
0.02710088 0.08516302 0.00451340 0.00302263 0.00172536 0.00283983 0.00864709 0.01281761 0.06934149 0.00818877 0.03415874 0.00285938 0.01222935 0.10913873 0.02306295 0.02332827 
0.02711580 0.08610300 0.00446336 0.00302792 0.00187025 0.00286889 0.00877138 0.01283047 0.06857864 0.00819848 0.03379811 0.00288088 0.01246043 0.11014594 0.02314931 0.02235701 
0.02711562 0.08694425 0.00441579 0.00303270 0.00203248 0.00289856 0.00889569 0.01282903 0.06783219 0.00820834 0.03344673 0.00289990 0.01270363 0.11112520 0.02323538 0.02145157 
0.02710092 0.08768300 0.00437088 0.00303696 0.00221161 0.00292876 0.00901967 0.01281311 0.06710733 0.00821874 0.03310557 0.00291631 0.01295795 0.11207777 0.02332184 0.02061552 
0.02707235 0.08831594 0.00432876 0.00304070 0.00240715 0.00295941 0.00914297 0.01278264 0.06640898 0.00823010 0.03277556 0.00293002 0.01322244 0.11300504 0.02340934 0.01985205 
0.02703059 0.08884029 0.00428956 0.00304390 0.00261857 0.00299042 0.00926529 0.01273758 0.06574181 0.00824281 0.03245755 0.00294092 0.01349618 0.11390854 0.02349858 0.01916392 
0.02697637 0.08925374 0.00425338 0.00304655 0.00284531 0.00302170 0.00938635 0.01267797 0.06511017 0.00825724 0.03215233 0.00294894 0.01377833 0.11478989 0.02359022 0.01855348 
0.02691045 0.08955453 0.00422028 0.00304864 0.00308673 0.00305317 0.00950590 0.01260393 0.06451811 0.00827378 0.03186061 0.00295402 0.01406807 0.11565078 0.02368492 0.01802267 
0.02683364 0.08974142 0.00419032 0.00305017 0.00334220 0.00308473 0.00962372 0.01251564 0.06396934 0.00829276 0.03158303 0.00295611 0.01436467 0.11649295 0.02378334 0.01757299 
0.02674676 0.08981369 0.00416350 0.00305113 0.00361102 0.00311629 0.00973964 0.01241336 0.06346717 0.00831454 0.03132017 0.00295518 0.01466745 0.11731818 0.02388610 0.01720552 
0.02665066 0.08977116 0.00413981 0.00305150 0.00389245 0.00314776 0.00985350 0.01229742 0.06301457 0.00833943 0.03107251 0.00295121 0.01497580 0.11812825 0.02399380 0.01692093 
0.02654621 0.08961418 0.00411922 0.00305129 0.00418573 0.00317904 0.00996516 0.01216819 0.06261408 0.00836773 0.03084047 0.00294421 0.01528919 0.11892496 0.02410701 0.01671947 
0.02643430 0.08934361 0.00410165 0.00305048 0.00449004 0.00321004 0.01007454 0.01202615 0.06226786 0.00839969 0.03062437 0.00293421 0.01560714 0.11971003 0.02422626 0.01660097 
0.02631581 0.08896086 0.00408702 0.00304907 0.00480455 0.00324065 0.01018157 0.01187179 0.06197761 0.00843557 0.03042448 0.00292122 0.01592926 0.12048516 0.02435205 0.01656487 
0.02619165 0.08846781 0.00407520 0.00304705 0.00512837 0.00327079 0.01028621 0.01170571 0.06174465 0.00847557 0.03024098 0.00290532 0.01625524 0.12125199 0.02448480 0.01661021 
0.02606271 0.08786685 0.00406605 0.00304443 0.00546059 0.00330036 0.01038845 0.01152855 0.06156984 0.00851987 0.03007395 0.00288657 0.01658481 0.12201204 0.02462493 0.01673566 
0.02592988 0.08716086 0.00405941 0.00304118 0.00580028 0.00332925 0.01048828 0.01134098 0.06145361 0.00856861 0.02992345 0.00286505 0.01691782 0.12276674 0.02477274 0.01693953 
0.02579405 0.08635315 0.00405510 0.00303732 0.00614646 0.00335739 0.01058575 0.01114376 0.06139596 0.00862191 0.02978940 0.00284086 0.01725413 0.12351742 0.02492853 0.01721976 
0.02565610 0.08544750 0.00405290 0.00303283 0.00649814 0.00338467 0.01068091 0.01093767 0.06139648 0.00867984 0.02967171 0.00281413 0.01759372 0.12426525 0.02509249 0.01757397 
0.02551688 0.08444810 0.00405260 0.00302772 0.00685431 0.00341102 0.01077382 0.01072355 0.06145431 0.00874244 0.02957017 0.00278499 0.01793661 0.12501127 0.02526476 0.01799946 
0.02537724 0.08335952 0.00405396 0.00302199 0.00721393 0.00343633 0.01086457 0.01050227 0.06156820 0.00880970 0.02948454 0.00275358 0.01828286 0.12575636 0.02544543 0.01849323 
0.02523798 0.08218671 0.00405674 0.00301563 0.00757593 0.00346054 0.01095327 0.01027474 0.06173649 0.00888160 0.02941449 0.00272006 0.01863262 0.12650123 0.02563448 0.01905201 
0.02509991 0.08093494 0.00406066 0.00300866 0.00793927 0.00348355 0.01104001 0.01004190 0.06195716 0.00895804 0.02935965 0.00268460 0.01898607 0.12724644 0.02583185 0.01967227 
0.02496378 0.07960981 0.00406548 0.00300108 0.00830285 0.00350529 0.01112492 0.00980471 0.06222780 0.00903892 0.02931959 0.00264739 0.01934343 0.12799235 0.02603739 0.02035023 
0.02483033 0.07821717 0.00407091 0.00299289 0.00866560 0.00352569 0.01120812 0.00956416 0.06254566 0.00912408 0.02929382 0.00260862 0.01970495 0.12873916 0.02625087 0.02108192 
0.02470026 0.07676313 0.00407669 0.00298411 0.00902642 0.00354467 0.01128974 0.00932125 0.06290766 0.00921334 0.02928181 0.00256850 0.02007093 0.12948686 0.02647201 0.02186317 
0.02457424 0.07525400 0.00408255 0.00297476 0.00938422 0.00356217 0.01136990 0.00907699 0.06331045 0.00930646 0.02928297 0.00252723 0.02044167 0.13023530 0.02670044 0.02268963 
0.02445288 0.07369626 0.00408820 0.00296484 0.00973793 0.00357813 0.01144873 0.00883241 0.06375036 0.00940320 0.02929670 0.00248503 0.02081751 0.13098412 0.02693571 0.02355683 
0.02433680 0.07209653 0.00409340 0.00295439 0.01008647 0.00359250 0.01152634 0.00858854 0.06422350 0.00950324 0.02932234 0.00244213 0.02119876 0.13173281 0.02717732 0.02446015 
0.02422652 0.07046153 0.00409789 0.00294342 0.01042878 0.00360522 0.01160284 0.00834638 0.06472576 0.00960627 0.02935921 0.00239876 0.02158577 0.13248068 0.02742470 0.02539491 
0.02412256 0.06879804 0.00410142 0.00293197 0.01076382 0.00361625 0.01167834 0.00810696 0.06525283 0.00971193 0.02940661 0.00235515 0.02197884 0.13322689 0.02767720 0.02635633 
0.02402540 0.06711288 0.00410376 0.00292006 0.01109055 0.00362554 0.01175292 0.00787127 0.06580025 0.00981984 0.02946380 0.00231153 0.02237829 0.13397044 0.02793412 0.02733958 
0.02393544 0.06541284 0.00410471 0.00290773 0.01140799 0.00363306 0.01182664 0.00764031 0.06636343 0.00992958 0.02953005 0.00226815 0.02278438 0.13471021 0.02819472 0.02833982 
0.02385309 0.06370470 0.00410406 0.00289502 0.01171517 0.00363878 0.01189958 0.00741504 0.06693769 0.01004073 0.02960460 0.00222523 0.02319736 0.13544495 0.02845819 0.02935220 
0.02377866 0.06199511 0.00410164 0.00288198 0.01201115 0.00364267 0.01197175 0.00719639 0.06751827 0.01015283 0.02968669 0.00218301 0.02361742 0.13617329 0.02872368 0.03037188 
0.02371247 0.06029066 0.00409729 0.00286865 0.01229504 0.00364472 0.01204317 0.00698528 0.06810042 0.01026542 0.02977556 0.00214172 0.02404471 0.13689379 0.02899031 0.03139407 
0.02365475 0.05859777 0.00409089 0.00285509 0.01256599 0.00364490 0.01211384 0.00678259 0.06867936 0.01037800 0.02987046 0.00210158 0.02447932 0.13760492 0.02925715 0.03241405 
0.02360573 0.05692267 0.00408234 0.00284135 0.01282318 0.00364322 0.01218372 0.00658915 0.06925035 0.01049009 0.02997062 0.00206282 0.02492128 0.13830509 0.02952325 0.03342717 
0.02356556 0.05527141 0.00407155 0.00282749 0.01306587 0.00363966 0.01225275 0.00640576 0.06980874 0.01060119 0.03007532 0.00202565 0.02537054 0.13899268 0.02978767 0.03442889 
0.02353437 0.05364977 0.00405847 0.00281358 0.01329333 0.00363423 0.01232084 0.00623319 0.07034996 0.01071078 0.03018382 0.00199027 0.02582699 0.13966605 0.03004941 0.03541480 
0.02351224 0.05206331 0.00404309 0.00279968 0.01350494 0.00362693 0.01238790 0.00607213 0.07086957 0.01081837 0.03029542 0.00195687 0.02629042 0.14032355 0.03030750 0.03638064 
0.02349921 0.05051726 0.00402541 0.00278587 0.01370010 0.00361778 0.01245377 0.00592326 0.07136331 0.01092344 0.03040943 0.00192563 0.02676054 0.14096354 0.03056095 0.03732228 
0.02349529 0.04901656 0.00400545 0.00277222 0.01387828 0.00360679 0.01251830 0.00578719 0.07182710 0.01102552 0.03052520 0.00189674 0.02723697 0.14158446 0.03080881 0.03823580 
0.02350044 0.04756581 0.00398330 0.00275880 0.01403902 0.00359397 0.01258129 0.00566446 0.07225704 0.01112409 0.03064209 0.00187035 0.02771923 0.14218476 0.03105012 0.03911746 
0.02351458 0.04616928 0.00395904 0.00274570 0.01418193 0.00357937 0.01264253 0.00555558 0.07264952 0.01121870 0.03075952 0.00184659 0.02820676 0.14276299 0.03128396 0.03996372 
0.02353760 0.04483085 0.00393279 0.00273298 0.01430669 0.00356299 0.01270177 0.00546099 0.07300116 0.01130889 0.03087690 0.00182561 0.02869887 0.14331779 0.03150944 0.04077129 
0.02356935 0.04355403 0.00390470 0.00272074 0.01441304 0.00354489 0.01275875 0.00538107 0.07330886 0.01139421 0.03099373 0.00180752 0.02919481 0.14384792 0.03172571 0.04153709 
0.02360965 0.04234195 0.00387495 0.00270906 0.01450080 0.00352509 0.01281317 0.00531615 0.07356983 0.01147426 0.03110950 0.00179241 0.02969369 0.14435226 0.03193196 0.04225829 
0.02365828 0.04119732 0.00384373 0.00269801 0.01456987 0.00350363 0.01286474 0.00526649 0.07378161 0.01154864 0.03122377 0.00178036 0.03019456 0.14482982 0.03212744 0.04293233 
0.02371500 0.04012247 0.00381127 0.00268769 0.01462020 0.00348057 0.01291311 0.00523229 0.07394203 0.01161700 0.03133613 0.00177145 0.03069635 0.14527979 0.03231146 0.04355691 
0.02377953 0.03911931 0.00377782 0.00267816 0.01465185 0.00345594 0.01295795 0.00521369 0.07404931 0.01167901 0.03144620 0.00176571 0.03119788 0.14570151 0.03248339 0.04413001 
0.02385156 0.03818933 0.00374364 0.00266952 0.01466491 0.00342981 0.01299889 0.00521076 0.07410199 0.01173437 0.03155368 0.00176317 0.03169792 0.14609450 0.03264268 0.04464989 
0.02393075 0.03733364 0.00370902 0.00266183 0.01465959 0.00340221 0.01303556 0.00522352 0.07409897 0.01178282 0.03165828 0.00176385 0.03219513 0.14645847 0.03278884 0.04511509 
0.02401675 0.03655293 0.00367424 0.00265517 0.01463612 0.00337322 0.01306758 0.00525194 0.07403953 0.01182416 0.03175976 0.00176772 0.03268807 0.14679330 0.03292148 0.04552446 
0.02410916 0.03584751 0.00363963 0.00264961 0.01459486 0.00334290 0.01309457 0.00529589 0.07392330 0.01185818 0.03185792 0.00177477 0.03317526 0.14709910 0.03304025 0.04587715 
0.02420758 0.03521727 0.00360551 0.00264522 0.01453618 0.00331129 0.01311613 0.00535521 0.07375027 0.01188477 0.03195263 0.00178495 0.03365513 0.14737614 0.03314493 0.04617259 
0.02431157 0.03466177 0.00357220 0.00264206 0.01446056 0.00327848 0.01313188 0.00542968 0.07352080 0.01190381 0.03204377 0.00179820 0.03412605 0.14762489 0.03323536 0.04641052 
0.02442069 0.03418017 0.00354005 0.00264018 0.01436852 0.00324453 0.01314143 0.00551902 0.07323559 0.01191526 0.03213127 0.00181442 0.03458634 0.14784603 0.03331146 0.04659099 
0.02453446 0.03377131 0.00350938 0.00263964 0.01426064 0.00320951 0.01314440 0.00562289 0.07289570 0.01191910 0.03221511 0.00183353 0.03503427 0.14804041 0.03337326 0.04671433 
0.02465240 0.03343367 0.00348053 0.00264048 0.01413759 0.00317349 0.01314043 0.00574090 0.07250251 0.01191537 0.03229530 0.00185541 0.03546808 0.14820906 0.03342086 0.04678118 
0.02477399 0.03316545 0.00345384 0.00264274 0.01400004 0.00313655 0.01312917 0.00587261 0.07205773 0.01190415 0.03237190 0.00187991 0.03588597 0.14835318 0.03345445 0.04679249 
0.02489873 0.03296455 0.00342963 0.00264644 0.01384876 0.00309876 0.01311027 0.00601752 0.07156337 0.01188555 0.03244498 0.00190690 0.03628614 0.14847412 0.03347429 0.04674945 
0.02502609 0.03282858 0.00340822 0.00265161 0.01368454 0.00306020 0.01308343 0.00617509 0.07102173 0.01185974 0.03251467 0.00193621 0.03666678 0.14857338 0.03348073 0.04665358 
0.02515553 0.03275493 0.00338991 0.00265827 0.01350822 0.00302096 0.01304836 0.00634475 0.07043538 0.01182692 0.03258112 0.00196767 0.03702608 0.14865258 0.03347420 0.04650665 
0.02528651 0.03274075 0.00337498 0.00266641 0.01332068 0.00298111 0.01300480 0.00652585 0.06980714 0.01178734 0.03264449 0.00200108 0.03736225 0.14871347 0.03345520 0.04631069 
0.02541846 0.03278301 0.00336371 0.00267603 0.01312282 0.00294074 0.01295252 0.00671775 0.06914005 0.01174128 0.03270501 0.00203625 0.03767352 0.14875785 0.03342429 0.04606801 
0.02555084 0.03287848 0.00335635 0.00268712 0.01291557 0.00289993 0.01289133 0.00691972 0.06843736 0.01168905 0.03276289 0.00207296 0.03795817 0.14878763 0.03338209 0.04578114 
0.02568309 0.03302380 0.00335311 0.00269966 0.01269990 0.00285878 0.01282106 0.00713104 0.06770251 0.01163101 0.03281837 0.00211099 0.03821452 0.14880476 0.03332929 0.04545287 
0.02581465 0.03321550 0.00335421 0.00271361 0.01247677 0.00281737 0.01274160 0.00735092 0.06693906 0.01156754 0.03287174 0.00215012 0.03844095 0.14881120 0.03326662 0.04508618 
0.02594496 0.03344999 0.00335982 0.00272893 0.01224718 0.00277578 0.01265287 0.00757858 0.06615072 0.01149905 0.03292326 0.00219011 0.03863593 0.14880895 0.03319484 0.04468427 
0.02607347 0.03372363 0.00337007 0.00274557 0.01201212 0.00273412 0.01255485 0.00781319 0.06534129 0.01142600 0.03297322 0.00223072 0.03879798 0.14879995 0.03311476 0.04425054 
0.02619965 0.03403274 0.00338509 0.00276348 0.01177258 0.00269246 0.01244754 0.00805390 0.06451466 0.01134882 0.03302193 0.00227171 0.03892574 0.14878614 0.03302723 0.04378856 
0.02632294 0.03437360 0.00340495 0.00278257 0.01152955 0.00265091 0.01233101 0.00829985 0.06367473 0.01126801 0.03306969 0.00231283 0.03901794 0.14876937 0.03293309 0.04330205 
0.02644284 0.03474254 0.00342970 0.00280277 0.01128402 0.00260955 0.01220537 0.00855015 0.06282545 0.01118406 0.03311681 0.00235384 0.03907343 0.14875141 0.03283321 0.04279488 
0.02655883 0.03513587 0.00345935 0.00282399 0.01103694 0.00256848 0.01207078 0.00880391 0.06197074 0.01109748 0.03316360 0.00239449 0.03909116 0.14873394 0.03272846 0.04227103 
0.02667041 0.03555000 0.00349388 0.00284614 0.01078928 0.00252779 0.01192746 0.00906023 0.06111449 0.01100879 0.03321036 0.00243454 0.03907024 0.14871847 0.03261973 0.04173462 
0.02677711 0.03598139 0.00353324 0.00286912 0.01054194 0.00248758 0.01177565 0.00931820 0.06026053 0.01091850 0.03325739 0.00247374 0.03900989 0.14870641 0.03250785 0.04118981 
0.02687849 0.03642662 0.00357732 0.00289280 0.01029583 0.00244793 0.01161568 0.00957690 0.05941258 0.01082715 0.03330499 0.00251188 0.03890949 0.14869897 0.03239367 0.04064085 
0.02697409 0.03688239 0.00362600 0.00291708 0.01005181 0.00240895 0.01144791 0.00983542 0.05857429 0.01073525 0.03335344 0.00254871 0.03876857 0.14869718 0.03227801 0.04009202 
0.02706353 0.03734550 0.00367911 0.00294183 0.00981070 0.00237071 0.01127276 0.01009285 0.05774913 0.01064330 0.03340300 0.00258402 0.03858680 0.14870187 0.03216164 0.03954765 
0.02714643 0.03781296 0.00373645 0.00296692 0.00957328 0.00233332 0.01109068 0.01034828 0.05694045 0.01055182 0.03345393 0.00261761 0.03836403 0.14871366 0.03204531 0.03901204 
0.02722243 0.03828190 0.00379780 0.00299221 0.00934031 0.00229686 0.01090219 0.01060081 0.05615140 0.01046130 0.03350648 0.00264927 0.03810027 0.14873295 0.03192971 0.03848950 
0.02729123 0.03874966 0.00386287 0.00301757 0.00911246 0.00226143 0.01070784 0.01084956 0.05538495 0.01037219 0.03356085 0.00267881 0.03779569 0.14875989 0.03181549 0.03798427 
0.02735254 0.03921377 0.00393138 0.00304286 0.00889038 0.00222710 0.01050823 0.01109366 0.05464386 0.01028495 0.03361727 0.00270608 0.03745063 0.14879439 0.03170324 0.03750055 
0.02740611 0.03967197 0.00400301 0.00306793 0.00867466 0.00219396 0.01030400 0.01133226 0.05393065 0.01020000 0.03367590 0.00273090 0.03706561 0.14883611 0.03159348 0.03704246 
0.02745175 0.04012220 0.00407739 0.00309264 0.00846583 0.00216210 0.01009582 0.01156452 0.05324762 0.01011773 0.03373691 0.00275314 0.03664131 0.14888446 0.03148667 0.03661400 
0.02748928 0.04056263 0.00415415 0.00311684 0.00826437 0.00213159 0.00988442 0.01178963 0.05259682 0.01003852 0.03380044 0.00277267 0.03617860 0.14893861 0.03138321 0.03621906 
0.02751858 0.04099163 0.00423289 0.00314039 0.00807070 0.00210251 0.00967054 0.01200682 0.05198005 0.00996268 0.03386661 0.00278938 0.03567850 0.14899748 0.03128342 0.03586139 
0.02753957 0.04140783 0.00431319 0.00316314 0.00788518 0.00207493 0.00945495 0.01221533 0.05139884 0.00989052 0.03393553 0.00280317 0.03514221 0.14905972 0.03118756 0.03554457 
0.02755219 0.04181007 0.00439461 0.00318496 0.00770810 0.00204892 0.00923846 0.01241444 0.05085446 0.00982229 0.03400726 0.00281399 0.03457107 0.14912378 0.03109579 0.03527199 
0.02755645 0.04219741 0.00447670 0.00320571 0.00753970 0.00202455 0.00902190 0.01260344 0.05034793 0.00975821 0.03408186 0.00282177 0.03396661 0.14918786 0.03100821 0.03504685 
0.02755241 0.04256913 0.00455899 0.00322525 0.00738017 0.00200188 0.00880609 0.01278170 0.04987998 0.00969845 0.03415937 0.00282649 0.03333050 0.14924995 0.03092486 0.03487214 
0.02754014 0.04292473 0.00464103 0.00324346 0.00722963 0.00198096 0.00859190 0.01294859 0.04945111 0.00964315 0.03423982 0.00282812 0.03266455 0.14930785 0.03084569 0.03475061 
0.02751978 0.04326394 0.00472232 0.00326022 0.00708813 0.00196185 0.00838019 0.01310353 0.04906155 0.00959239 0.03432319 0.00282668 0.03197074 0.14935916 0.03077057 0.03468475 
0.02749151 0.04358665 0.00480239 0.00327542 0.00695569 0.00194459 0.00817184 0.01324600 0.04871126 0.00954621 0.03440948 0.00282218 0.03125115 0.14940133 0.03069932 0.03467681 
0.02745555 0.04389299 0.00488078 0.00328894 0.00683225 0.00192922 0.00796771 0.01337551 0.04840001 0.00950463 0.03449864 0.00281468 0.03050801 0.14943166 0.03063168 0.03472874 
0.02741216 0.04418324 0.00495700 0.00330069 0.00671772 0.00191578 0.00776866 0.01349160 0.04812729 0.00946758 0.03459065 0.00280425 0.02974366 0.14944732 0.03056732 0.03484222 
0.02736164 0.04445786 0.00503060 0.00331059 0.00661194 0.00190429 0.00757556 0.01359389 0.04789243 0.00943500 0.03468544 0.00279095 0.02896055 0.14944539 0.03050588 0.03501864 
0.02730434 0.04471746 0.00510112 0.00331856 0.00651471 0.00189478 0.00738926 0.01368203 0.04769450 0.00940673 0.03478295 0.00277491 0.02816122 0.14942287 0.03044690 0.03525905 
0.02724064 0.04496281 0.00516814 0.00332454 0.00642579 0.00188727 0.00721057 0.01375572 0.04753244 0.00938262 0.03488310 0.00275624 0.02734832 0.14937672 0.03038991 0.03556421 
0.02717094 0.04519478 0.00523124 0.00332846 0.00634488 0.00188177 0.00704031 0.01381472 0.04740498 0.00936245 0.03498582 0.00273507 0.02652454 0.14930387 0.03033439 0.03593456 
0.02709571 0.04541438 0.00529001 0.00333030 0.00627167 0.00187828 0.00687926 0.01385885 0.04731072 0.00934597 0.03509102 0.00271157 0.02569267 0.14920124 0.03027975 0.03637020 
0.02701541 0.04562269 0.00534411 0.00333001 0.00620580 0.00187680 0.00672817 0.01388796 0.04724813 0.00933289 0.03519863 0.00268591 0.02485553 0.14906582 0.03022540 0.03687090 
0.02693056 0.04582089 0.00539317 0.00332759 0.00614687 0.00187732 0.00658775 0.01390198 0.04721556 0.00932290 0.03530855 0.00265827 0.02401600 0.14889463 0.03017071 0.03743612 
0.02684168 0.04601021 0.00543689 0.00332303 0.00609447 0.00187982 0.00645869 0.01390089 0.04721127 0.00931563 0.03542070 0.00262884 0.02317697 0.14868478 0.03011504 0.03806497 
0.02674933 0.04619191 0.00547499 0.00331635 0.00604817 0.00188428 0.00634162 0.01388472 0.04723344 0.00931072 0.03553501 0.00259784 0.02234135 0.14843351 0.03005773 0.03875623 
0.02665408 0.04636729 0.00550722 0.00330756 0.00600749 0.00189067 0.00623713 0.01385356 0.04728022 0.00930775 0.03565140 0.00256550 0.02151206 0.14813820 0.02999811 0.03950835 
0.02655650 0.04653767 0.00553337 0.00329671 0.00597197 0.00189895 0.00614577 0.01380756 0.04734970 0.00930630 0.03576980 0.00253204 0.02069200 0.14779640 0.02993554 0.04031947 
0.02645720 0.04670435 0.00555327 0.00328384 0.00594113 0.00190909 0.00606802 0.01374693 0.04743999 0.00930594 0.03589015 0.00249770 0.01988406 0.14740584 0.02986934 0.04118740 
0.02635677 0.04686859 0.00556679 0.00326903 0.00591447 0.00192102 0.00600432 0.01367193 0.04754919 0.00930620 0.03601240 0.00246272 0.01909108 0.14696449 0.02979890 0.04210964 
0.02625581 0.04703164 0.00557382 0.00325234 0.00589151 0.00193470 0.00595505 0.01358287 0.04767541 0.00930661 0.03613650 0.00242736 0.01831584 0.14647055 0.02972358 0.04308340 
0.02615494 0.04719467 0.00557434 0.00323388 0.00587176 0.00195006 0.00592053 0.01348014 0.04781685 0.00930670 0.03626243 0.00239187 0.01756110 0.14592247 0.02964281 0.04410558 
0.02605474 0.04735879 0.00556831 0.00321374 0.00585473 0.00196704 0.00590100 0.01336416 0.04797172 0.00930600 0.03639015 0.00235650 0.01682950 0.14531902 0.02955604 0.04517282 
0.02595580 0.04752504 0.00555579 0.00319204 0.00583996 0.00198555 0.00589667 0.01323542 0.04813835 0.00930404 0.03651964 0.00232151 0.01612361 0.14465923 0.02946275 0.04628147 
0.02585870 0.04769433 0.00553684 0.00316890 0.00582699 0.00200552 0.00590765 0.01309445 0.04831513 0.00930034 0.03665091 0.00228715 0.01544591 0.14394246 0.02936248 0.04742765 
0.02576399 0.04786750 0.00551159 0.00314446 0.00581537 0.00202686 0.00593402 0.01294184 0.04850058 0.00929446 0.03678394 0.00225367 0.01479875 0.14316841 0.02925482 0.04860723 
0.02567221 0.04804524 0.00548020 0.00311886 0.00580469 0.00204949 0.00597575 0.01277823 0.04869331 0.00928594 0.03691876 0.00222131 0.01418439 0.14233709 0.02913942 0.04981585 
0.02558388 0.04822814 0.00544287 0.00309227 0.00579454 0.00207330 0.00603277 0.01260429 0.04889208 0.00927436 0.03705537 0.00219032 0.01360491 0.14144888 0.02901596 0.05104898 
0.02549949 0.04841665 0.00539984 0.00306484 0.00578457 0.00209820 0.00610494 0.01242076 0.04909578 0.00925933 0.03719378 0.00216091 0.01306230 0.14050452 0.02888423 0.05230187 
0.02541948 0.04861106 0.00535139 0.00303675 0.00577442 0.00212409 0.00619203 0.01222839 0.04930341 0.00924045 0.03733403 0.00213332 0.01255837 0.13950507 0.02874406 0.05356963 
