0.04758576 0.02540273 0.00497646 0.00173560 0.00060645 0.00395554 0.02218218 0.01013476 0.02323297 0.00421054 0.00235335 0.01752112 0.01038445 0.00324531 0.00516803 0.00125267 
0.04473270 0.02577422 0.00466317 0.00171238 0.00060451 0.00396755 0.02232142 0.01064803 0.02301591 0.00423482 0.00230632 0.01743212 0.01040823 0.00331351 0.00525852 0.00126304 
0.04192311 0.02614187 0.00436978 0.00169013 0.00060293 0.00397573 0.02243163 0.01117529 0.02279741 0.00425429 0.00225924 0.01734756 0.01042851 0.00337842 0.00534507 0.00127351 
0.03916490 0.02650427 0.00409710 0.00166895 0.00060174 0.00398007 0.02251251 0.01171452 0.02257859 0.00426886 0.00221221 0.01726835 0.01044546 0.00343974 0.00542740 0.00128404 
0.03646557 0.02686012 0.00384588 0.00164892 0.00060097 0.00398059 0.02256388 0.01226359 0.02236054 0.00427844 0.00216534 0.01719535 0.01045929 0.00349719 0.00550521 0.00129460 
0.03383215 0.02720826 0.00361680 0.00163013 0.00060064 0.00397732 0.02258573 0.01282023 0.02214432 0.00428298 0.00211874 0.01712938 0.01047017 0.00355052 0.00557823 0.00130514 
0.03127119 0.02754763 0.00341042 0.00161264 0.00060076 0.00397030 0.02257816 0.01338209 0.02193090 0.00428244 0.00207251 0.01707119 0.01047832 0.00359948 0.00564621 0.00131563 
0.02878874 0.02787731 0.00322723 0.00159652 0.00060135 0.00395959 0.02254143 0.01394674 0.02172123 0.00427681 0.00202676 0.01702152 0.01048395 0.00364383 0.00570893 0.00132602 
0.02639033 0.02819651 0.00306766 0.00158184 0.00060242 0.00394527 0.02247594 0.01451165 0.02151619 0.00426611 0.00198159 0.01698101 0.01048728 0.00368338 0.00576620 0.00133628 
0.02408097 0.02850457 0.00293202 0.00156863 0.00060399 0.00392744 0.02238223 0.01507425 0.02131657 0.00425037 0.00193712 0.01695026 0.01048853 0.00371793 0.00581784 0.00134635 
0.02186512 0.02880098 0.00282056 0.00155696 0.00060605 0.00390622 0.02226099 0.01563193 0.02112311 0.00422967 0.00189345 0.01692982 0.01048792 0.00374732 0.00586370 0.00135622 
0.01974672 0.02908534 0.00273343 0.00154684 0.00060862 0.00388173 0.02211304 0.01618202 0.02093646 0.00420409 0.00185069 0.01692015 0.01048567 0.00377141 0.00590366 0.00136583 
0.01772914 0.02935741 0.00267071 0.00153832 0.00061169 0.00385411 0.02193933 0.01672188 0.02075717 0.00417373 0.00180895 0.01692167 0.01048202 0.00379008 0.00593762 0.00137516 
0.01581522 0.02961705 0.00263239 0.00153140 0.00061526 0.00382354 0.02174095 0.01724883 0.02058573 0.00413874 0.00176832 0.01693471 0.01047717 0.00380324 0.00596553 0.00138417 
0.01400725 0.02986429 0.00261839 0.00152610 0.00061932 0.00379017 0.02151911 0.01776023 0.02042252 0.00409927 0.00172892 0.01695956 0.01047133 0.00381084 0.00598734 0.00139282 
0.01230699 0.03009923 0.00262855 0.00152242 0.00062386 0.00375421 0.02127514 0.01825348 0.02026785 0.00405550 0.00169085 0.01699642 0.01046473 0.00381282 0.00600305 0.00140109 
0.01071569 0.03032215 0.00266264 0.00152035 0.00062887 0.00371585 0.02101049 0.01872601 0.02012191 0.00400763 0.00165421 0.01704543 0.01045757 0.00380919 0.00601268 0.00140894 
0.00923408 0.03053339 0.00272034 0.00151987 0.00063432 0.00367530 0.02072672 0.01917534 0.01998482 0.00395587 0.00161911 0.01710667 0.01045003 0.00379995 0.00601627 0.00141635 
0.00786238 0.03073343 0.00280129 0.00152097 0.00064021 0.00363280 0.02042547 0.01959905 0.01985658 0.00390047 0.00158564 0.01718015 0.01044230 0.00378517 0.00601389 0.00142330 
0.00660036 0.03092283 0.00290504 0.00152361 0.00064650 0.00358856 0.02010849 0.01999484 0.01973714 0.00384167 0.00155389 0.01726582 0.01043456 0.00376490 0.00600566 0.00142976 
0.00544731 0.03110225 0.00303109 0.00152775 0.00065316 0.00354284 0.01977761 0.02036052 0.01962631 0.00377974 0.00152397 0.01736357 0.01042698 0.00373925 0.00599169 0.00143570 
0.00440209 0.03127244 0.00317887 0.00153335 0.00066017 0.00349588 0.01943472 0.02069401 0.01952384 0.00371498 0.00149597 0.01747320 0.01041972 0.00370835 0.00597215 0.00144113 
0.00346315 0.03143422 0.00334776 0.00154035 0.00066750 0.00344793 0.01908178 0.02099339 0.01942939 0.00364767 0.00146997 0.01759450 0.01041291 0.00367236 0.00594720 0.00144601 
0.00262855 0.03158847 0.00353709 0.00154868 0.00067509 0.00339925 0.01872081 0.02125688 0.01934253 0.00357813 0.00144606 0.01772717 0.01040669 0.00363145 0.00591705 0.00145034 
0.00189599 0.03173613 0.00374612 0.00155830 0.00068292 0.00335011 0.01835388 0.02148289 0.01926277 0.00350668 0.00142432 0.01787086 0.01040119 0.00358583 0.00588193 0.00145411 
0.00126283 0.03187818 0.00397409 0.00156911 0.00069095 0.00330077 0.01798305 0.02166999 0.01918953 0.00343363 0.00140482 0.01802518 0.01039651 0.00353573 0.00584207 0.00145730 
0.00072613 0.03201565 0.00422019 0.00158105 0.00069913 0.00325148 0.01761045 0.02181694 0.01912217 0.00335932 0.00138765 0.01818968 0.01039277 0.00348141 0.00579774 0.00145993 
0.00028268 0.03214958 0.00448356 0.00159403 0.00070741 0.00320252 0.01723818 0.02192269 0.01905998 0.00328409 0.00137286 0.01836389 0.01039004 0.00342314 0.00574921 0.00146198 
0.00007098 0.03228104 0.00476331 0.00160797 0.00071575 0.00315414 0.01686837 0.02198641 0.01900222 0.00320828 0.00136052 0.01854726 0.01038841 0.00336121 0.00569679 0.00146345 
0.00033853 0.03241111 0.00505851 0.00162277 0.00072410 0.00310659 0.01650311 0.02200748 0.01894806 0.00313222 0.00135068 0.01873923 0.01038796 0.00329595 0.00564077 0.00146436 
0.00052384 0.03254085 0.00536822 0.00163834 0.00073241 0.00306013 0.01614448 0.02198548 0.01889668 0.00305625 0.00134339 0.01893920 0.01038875 0.00322768 0.00558148 0.00146470 
0.00063092 0.03267132 0.00569147 0.00165459 0.00074063 0.00301499 0.01579450 0.02192022 0.01884719 0.00298070 0.00133868 0.01914653 0.01039083 0.00315675 0.00551924 0.00146449 
0.00066391 0.03280356 0.00602724 0.00167142 0.00074871 0.00297140 0.01545517 0.02181173 0.01879870 0.00290592 0.00133661 0.01936057 0.01039425 0.00308352 0.00545440 0.00146373 
0.00062707 0.03293857 0.00637453 0.00168873 0.00075660 0.00292960 0.01512843 0.02166026 0.01875028 0.00283221 0.00133718 0.01958061 0.01039906 0.00300836 0.00538729 0.00146244 
0.00052469 0.03307732 0.00673229 0.00170643 0.00076425 0.00288979 0.01481612 0.02146629 0.01870102 0.00275990 0.00134041 0.01980597 0.01040530 0.00293166 0.00531827 0.00146064 
0.00036113 0.03322074 0.00709949 0.00172441 0.00077162 0.00285217 0.01452003 0.02123052 0.01865000 0.00268929 0.00134633 0.02003590 0.01041300 0.00285379 0.00524767 0.00145835 
0.00014074 0.03336970 0.00747506 0.00174258 0.00077865 0.00281694 0.01424186 0.02095386 0.01859630 0.00262067 0.00135492 0.02026968 0.01042220 0.00277517 0.00517584 0.00145557 
0.00013211 0.03352502 0.00785795 0.00176085 0.00078529 0.00278425 0.01398318 0.02063742 0.01853904 0.00255433 0.00136618 0.02050655 0.01043293 0.00269617 0.00510313 0.00145234 
0.00045312 0.03368743 0.00824708 0.00177911 0.00079151 0.00275428 0.01374549 0.02028254 0.01847735 0.00249052 0.00138009 0.02074575 0.01044523 0.00261720 0.00502988 0.00144868 
0.00081804 0.03385763 0.00864139 0.00179728 0.00079727 0.00272715 0.01353015 0.01989075 0.01841042 0.00242951 0.00139662 0.02098651 0.01045912 0.00253866 0.00495641 0.00144461 
0.00122269 0.03403621 0.00903980 0.00181527 0.00080251 0.00270300 0.01333842 0.01946376 0.01833744 0.00237153 0.00141574 0.02122809 0.01047464 0.00246093 0.00488306 0.00144016 
0.00166299 0.03422370 0.00944125 0.00183300 0.00080720 0.00268194 0.01317141 0.01900347 0.01825772 0.00231678 0.00143740 0.02146972 0.01049183 0.00238440 0.00481013 0.00143536 
0.00213500 0.03442056 0.00984468 0.00185039 0.00081131 0.00266404 0.01303010 0.01851195 0.01817057 0.00226548 0.00146155 0.02171064 0.01051072 0.00230944 0.00473794 0.00143023 
0.00263490 0.03462714 0.01024904 0.00186736 0.00081480 0.00264939 0.01291533 0.01799142 0.01807540 0.00221778 0.00148810 0.02195010 0.01053136 0.00223643 0.00466676 0.00142480 
0.00315901 0.03484372 0.01065328 0.00188383 0.00081766 0.00263803 0.01282780 0.01744425 0.01797169 0.00217386 0.00151700 0.02218738 0.01055380 0.00216572 0.00459688 0.00141910 
0.00370383 0.03507050 0.01105637 0.00189976 0.00081984 0.00263001 0.01276806 0.01687293 0.01785901 0.00213385 0.00154816 0.02242176 0.01057809 0.00209764 0.00452854 0.00141316 
0.00426602 0.03530758 0.01145729 0.00191507 0.00082134 0.00262533 0.01273650 0.01628007 0.01773701 0.00209785 0.00158148 0.02265252 0.01060428 0.00203252 0.00446200 0.00140702 
0.00484245 0.03555499 0.01185503 0.00192972 0.00082214 0.00262399 0.01273338 0.01566838 0.01760544 0.00206597 0.00161685 0.02287900 0.01063245 0.00197067 0.00439746 0.00140070 
0.00543015 0.03581267 0.01224861 0.00194366 0.00082221 0.00262597 0.01275879 0.01504066 0.01746413 0.00203826 0.00165416 0.02310053 0.01066264 0.00191236 0.00433514 0.00139423 
0.00602635 0.03608048 0.01263706 0.00195684 0.00082157 0.00263124 0.01281266 0.01439978 0.01731304 0.00201478 0.00169330 0.02331648 0.01069495 0.00185787 0.00427521 0.00138765 
0.00662850 0.03635820 0.01301943 0.00196924 0.00082019 0.00263973 0.01289478 0.01374864 0.01715224 0.00199555 0.00173413 0.02352624 0.01072944 0.00180742 0.00421783 0.00138098 
0.00723423 0.03664552 0.01339478 0.00198082 0.00081809 0.00265138 0.01300479 0.01309020 0.01698188 0.00198058 0.00177652 0.02372925 0.01076619 0.00176124 0.00416314 0.00137425 
0.00784138 0.03694209 0.01376221 0.00199157 0.00081526 0.00266609 0.01314217 0.01242742 0.01680224 0.00196984 0.00182032 0.02392497 0.01080529 0.00171952 0.00411126 0.00136749 
0.00844801 0.03724746 0.01412083 0.00200147 0.00081172 0.00268376 0.01330628 0.01176327 0.01661373 0.00196329 0.00186537 0.02411288 0.01084682 0.00168241 0.00406229 0.00136073 
0.00905234 0.03756114 0.01446978 0.00201051 0.00080749 0.00270428 0.01349632 0.01110069 0.01641684 0.00196088 0.00191154 0.02429253 0.01089088 0.00165007 0.00401628 0.00135400 
0.00965282 0.03788256 0.01480822 0.00201870 0.00080257 0.00272749 0.01371135 0.01044261 0.01621221 0.00196252 0.00195864 0.02446349 0.01093754 0.00162258 0.00397330 0.00134732 
0.01024807 0.03821111 0.01513535 0.00202603 0.00079700 0.00275328 0.01395032 0.00979188 0.01600057 0.00196811 0.00200652 0.02462536 0.01098690 0.00160004 0.00393337 0.00134072 
0.01083691 0.03854614 0.01545038 0.00203252 0.00079080 0.00278146 0.01421204 0.00915132 0.01578277 0.00197753 0.00205500 0.02477782 0.01103904 0.00158250 0.00389650 0.00133422 
0.01141832 0.03888694 0.01575257 0.00203819 0.00078401 0.00281189 0.01449522 0.00852364 0.01555976 0.00199065 0.00210391 0.02492056 0.01109404 0.00156997 0.00386266 0.00132785 
0.01199146 0.03923278 0.01604119 0.00204305 0.00077665 0.00284437 0.01479845 0.00791148 0.01533260 0.00200731 0.00215308 0.02505332 0.01115198 0.00156245 0.00383182 0.00132162 
0.01255563 0.03958289 0.01631555 0.00204714 0.00076877 0.00287874 0.01512023 0.00731735 0.01510247 0.00202734 0.00220233 0.02517592 0.01121293 0.00155991 0.00380394 0.00131556 
0.01311030 0.03993648 0.01657499 0.00205048 0.00076041 0.00291479 0.01545895 0.00674364 0.01487063 0.00205057 0.00225148 0.02528818 0.01127695 0.00156228 0.00377892 0.00130968 
0.01365507 0.04029275 0.01681889 0.00205312 0.00075161 0.00295234 0.01581293 0.00619263 0.01463842 0.00207680 0.00230036 0.02539001 0.01134410 0.00156946 0.00375669 0.00130400 
0.01418965 0.04065088 0.01704666 0.00205509 0.00074244 0.00299118 0.01618044 0.00566642 0.01440729 0.00210583 0.00234878 0.02548135 0.01141441 0.00158135 0.00373712 0.00129854 
0.01471389 0.04101006 0.01725774 0.00205644 0.00073293 0.00303111 0.01655965 0.00516698 0.01417874 0.00213743 0.00239658 0.02556219 0.01148791 0.00159779 0.00372010 0.00129331 
0.01522773 0.04136946 0.01745162 0.00205721 0.00072314 0.00307193 0.01694870 0.00469611 0.01395437 0.00217139 0.00244359 0.02563258 0.01156461 0.00161861 0.00370549 0.00128831 
0.01573120 0.04172828 0.01762781 0.00205746 0.00071313 0.00311343 0.01734567 0.00425544 0.01373582 0.00220748 0.00248964 0.02569261 0.01164452 0.00164363 0.00369313 0.00128357 
0.01622441 0.04208572 0.01778587 0.00205724 0.00070295 0.00315541 0.01774864 0.00384641 0.01352479 0.00224546 0.00253456 0.02574242 0.01172760 0.00167263 0.00368285 0.00127909 
0.01670754 0.04244102 0.01792541 0.00205660 0.00069268 0.00319767 0.01815564 0.00347028 0.01332303 0.00228509 0.00257820 0.02578222 0.01181382 0.00170536 0.00367449 0.00127488 
0.01718082 0.04279341 0.01804606 0.00205560 0.00068235 0.00324002 0.01856471 0.00312813 0.01313231 0.00232612 0.00262042 0.02581223 0.01190312 0.00174158 0.00366787 0.00127094 
0.01764454 0.04314218 0.01814750 0.00205429 0.00067205 0.00328226 0.01897386 0.00282084 0.01295445 0.00236832 0.00266106 0.02583276 0.01199541 0.00178101 0.00366278 0.00126727 
0.01809901 0.04348664 0.01822946 0.00205274 0.00066183 0.00332420 0.01938115 0.00254910 0.01279125 0.00241145 0.00269999 0.02584413 0.01209058 0.00182335 0.00365905 0.00126389 
0.01854456 0.04382614 0.01829171 0.00205099 0.00065174 0.00336568 0.01978463 0.00231340 0.01264453 0.00245525 0.00273710 0.02584672 0.01218851 0.00186830 0.00365646 0.00126078 
0.01898155 0.04416007 0.01833406 0.00204910 0.00064186 0.00340651 0.02018239 0.00211404 0.01251612 0.00249949 0.00277225 0.02584096 0.01228904 0.00191556 0.00365482 0.00125795 
0.01941032 0.04448787 0.01835638 0.00204713 0.00063223 0.00344653 0.02057258 0.00195113 0.01240780 0.00254395 0.00280535 0.02582729 0.01239199 0.00196478 0.00365393 0.00125540 
0.01983123 0.04480903 0.01835856 0.00204514 0.00062293 0.00348559 0.02095337 0.00182458 0.01232133 0.00258838 0.00283629 0.02580622 0.01249715 0.00201564 0.00365358 0.00125313 
0.02024462 0.04512306 0.01834056 0.00204317 0.00061400 0.00352355 0.02132300 0.00173412 0.01225845 0.00263257 0.00286499 0.02577828 0.01260429 0.00206779 0.00365357 0.00125112 
0.02065081 0.04542957 0.01830239 0.00204128 0.00060550 0.00356026 0.02167978 0.00167931 0.01222081 0.00267631 0.00289138 0.02574403 0.01271316 0.00212089 0.00365372 0.00124938 
0.02105008 0.04572818 0.01824409 0.00203951 0.00059749 0.00359562 0.02202210 0.00165953 0.01221002 0.00271939 0.00291539 0.02570406 0.01282346 0.00217459 0.00365383 0.00124789 
0.02144271 0.04601858 0.01816577 0.00203790 0.00059002 0.00362950 0.02234843 0.00167397 0.01222762 0.00276162 0.00293697 0.02565898 0.01293490 0.00222855 0.00365372 0.00124666 
0.02182892 0.04630050 0.01806756 0.00203651 0.00058312 0.00366180 0.02265732 0.00172170 0.01227505 0.00280281 0.00295608 0.02560943 0.01304714 0.00228242 0.00365321 0.00124566 
0.02220891 0.04657374 0.01794967 0.00203536 0.00057685 0.00369245 0.02294743 0.00180160 0.01235366 0.00284279 0.00297270 0.02555605 0.01315982 0.00233587 0.00365214 0.00124490 
0.02258282 0.04683813 0.01781235 0.00203450 0.00057124 0.00372135 0.02321753 0.00191245 0.01246471 0.00288140 0.00298681 0.02549952 0.01327258 0.00238856 0.00365036 0.00124435 
0.02295076 0.04709356 0.01765589 0.00203395 0.00056634 0.00374846 0.02346648 0.00205287 0.01260931 0.00291851 0.00299841 0.02544050 0.01338501 0.00244017 0.00364771 0.00124402 
0.02331280 0.04733997 0.01748064 0.00203375 0.00056217 0.00377371 0.02369325 0.00222137 0.01278847 0.00295396 0.00300750 0.02537966 0.01349670 0.00249039 0.00364407 0.00124388 
0.02366895 0.04757732 0.01728699 0.00203391 0.00055876 0.00379707 0.02389696 0.00241634 0.01300307 0.00298765 0.00301412 0.02531770 0.01360722 0.00253891 0.00363933 0.00124393 
0.02401920 0.04780564 0.01707537 0.00203446 0.00055613 0.00381850 0.02407681 0.00263611 0.01325384 0.00301947 0.00301829 0.02525527 0.01371613 0.00258544 0.00363337 0.00124415 
0.02436346 0.04802498 0.01684629 0.00203541 0.00055431 0.00383800 0.02423215 0.00287887 0.01354136 0.00304933 0.00302007 0.02519305 0.01382296 0.00262973 0.00362611 0.00124454 
0.02470165 0.04823541 0.01660027 0.00203677 0.00055331 0.00385555 0.02436245 0.00314280 0.01386607 0.00307715 0.00301950 0.02513168 0.01392726 0.00267151 0.00361748 0.00124507 
0.02503362 0.04843706 0.01633790 0.00203856 0.00055313 0.00387115 0.02446729 0.00342598 0.01422822 0.00310288 0.00301666 0.02507181 0.01402856 0.00271055 0.00360742 0.00124573 
0.02535918 0.04863006 0.01605979 0.00204077 0.00055379 0.00388483 0.02454640 0.00372645 0.01462793 0.00312645 0.00301162 0.02501404 0.01412638 0.00274664 0.00359588 0.00124652 
0.02567814 0.04881457 0.01576662 0.00204340 0.00055527 0.00389661 0.02459962 0.00404224 0.01506512 0.00314786 0.00300448 0.02495897 0.01422026 0.00277957 0.00358286 0.00124742 
0.02599025 0.04899075 0.01545908 0.00204645 0.00055758 0.00390652 0.02462693 0.00437134 0.01553955 0.00316706 0.00299532 0.02490716 0.01430972 0.00280919 0.00356833 0.00124841 
0.02629527 0.04915879 0.01513793 0.00204991 0.00056071 0.00391461 0.02462842 0.00471173 0.01605080 0.00318407 0.00298427 0.02485913 0.01439431 0.00283534 0.00355231 0.00124948 
0.02659292 0.04931887 0.01480394 0.00205376 0.00056463 0.00392091 0.02460431 0.00506143 0.01659827 0.00319888 0.00297142 0.02481538 0.01447358 0.00285789 0.00353483 0.00125063 
0.02688292 0.04947116 0.01445793 0.00205800 0.00056934 0.00392550 0.02455494 0.00541843 0.01718119 0.00321153 0.00295690 0.02477637 0.01454711 0.00287676 0.00351594 0.00125183 
0.02716497 0.04961584 0.01410075 0.00206260 0.00057480 0.00392843 0.02448075 0.00578079 0.01779861 0.00322204 0.00294084 0.02474251 0.01461447 0.00289185 0.00349569 0.00125307 
0.02743879 0.04975308 0.01373328 0.00206753 0.00058098 0.00392978 0.02438233 0.00614659 0.01844938 0.00323046 0.00292338 0.02471416 0.01467529 0.00290313 0.00347417 0.00125435 
0.02770410 0.04988302 0.01335643 0.00207278 0.00058785 0.00392961 0.02426032 0.00651397 0.01913220 0.00323685 0.00290464 0.02469167 0.01472921 0.00291057 0.00345146 0.00125565 
0.02796061 0.05000578 0.01297113 0.00207831 0.00059538 0.00392802 0.02411552 0.00688114 0.01984560 0.00324127 0.00288477 0.02467529 0.01477590 0.00291416 0.00342768 0.00125696 
0.02820806 0.05012148 0.01257833 0.00208409 0.00060352 0.00392507 0.02394880 0.00724637 0.02058791 0.00324381 0.00286392 0.02466527 0.01481506 0.00291394 0.00340295 0.00125827 
0.02844623 0.05023017 0.01217901 0.00209009 0.00061223 0.00392087 0.02376110 0.00760802 0.02135733 0.00324455 0.00284222 0.02466177 0.01484646 0.00290995 0.00337741 0.00125957 
0.02867488 0.05033189 0.01177417 0.00209626 0.00062145 0.00391549 0.02355347 0.00796453 0.02215188 0.00324359 0.00281984 0.02466494 0.01486989 0.00290226 0.00335122 0.00126086 
0.02889383 0.05042666 0.01136480 0.00210258 0.00063114 0.00390903 0.02332704 0.00831447 0.02296945 0.00324102 0.00279691 0.02467485 0.01488518 0.00289099 0.00332454 0.00126211 
0.02910295 0.05051442 0.01095192 0.00210900 0.00064124 0.00390159 0.02308299 0.00865647 0.02380777 0.00323696 0.00277358 0.02469153 0.01489224 0.00287623 0.00329754 0.00126333 
0.02930210 0.05059510 0.01053657 0.00211547 0.00065170 0.00389325 0.02282258 0.00898931 0.02466444 0.00323152 0.00275000 0.02471496 0.01489100 0.00285815 0.00327042 0.00126451 
0.02949123 0.05066858 0.01011977 0.00212197 0.00066245 0.00388411 0.02254709 0.00931185 0.02553693 0.00322482 0.00272631 0.02474507 0.01488148 0.00283689 0.00324338 0.00126564 
0.02967030 0.05073470 0.00970255 0.00212843 0.00067344 0.00387426 0.02225790 0.00962311 0.02642262 0.00321697 0.00270265 0.02478176 0.01486375 0.00281265 0.00321661 0.00126671 
0.02983933 0.05079324 0.00928596 0.00213481 0.00068460 0.00386380 0.02195637 0.00992220 0.02731874 0.00320812 0.00267916 0.02482487 0.01483794 0.00278562 0.00319033 0.00126772 
0.02999840 0.05084395 0.00887102 0.00214108 0.00069587 0.00385280 0.02164392 0.01020836 0.02822248 0.00319837 0.00265596 0.02487419 0.01480424 0.00275603 0.00316477 0.00126867 
0.03014762 0.05088653 0.00845875 0.00214718 0.00070718 0.00384137 0.02132199 0.01048099 0.02913091 0.00318787 0.00263318 0.02492950 0.01476293 0.00272410 0.00314015 0.00126954 
0.03028716 0.05092065 0.00805018 0.00215307 0.00071848 0.00382959 0.02099202 0.01073957 0.03004105 0.00317674 0.00261094 0.02499053 0.01471433 0.00269008 0.00311669 0.00127034 
0.03041725 0.05094592 0.00764631 0.00215870 0.00072969 0.00381754 0.02065546 0.01098375 0.03094987 0.00316510 0.00258935 0.02505696 0.01465886 0.00265423 0.00309463 0.00127107 
0.03053815 0.05096194 0.00724813 0.00216402 0.00074075 0.00380530 0.02031375 0.01121328 0.03185428 0.00315309 0.00256851 0.02512849 0.01459700 0.00261682 0.00307420 0.00127171 
0.03065019 0.05096825 0.00685662 0.00216899 0.00075160 0.00379296 0.01996832 0.01142803 0.03275120 0.00314083 0.00254851 0.02520474 0.01452930 0.00257813 0.00305563 0.00127227 
0.03075375 0.05096438 0.00647273 0.00217357 0.00076219 0.00378057 0.01962057 0.01162802 0.03363750 0.00312844 0.00252945 0.02528535 0.01445639 0.00253845 0.00303916 0.00127275 
0.03084923 0.05094982 0.00609740 0.00217771 0.00077244 0.00376822 0.01927189 0.01181337 0.03451007 0.00311603 0.00251140 0.02536993 0.01437895 0.00249806 0.00302501 0.00127315 
0.03093710 0.05092406 0.00573155 0.00218137 0.00078230 0.00375596 0.01892360 0.01198431 0.03536582 0.00310373 0.00249443 0.02545809 0.01429776 0.00245727 0.00301339 0.00127346 
0.03101787 0.05088656 0.00537605 0.00218451 0.00079172 0.00374386 0.01857701 0.01214118 0.03620169 0.00309163 0.00247859 0.02554942 0.01421365 0.00241636 0.00300454 0.00127369 
0.03109207 0.05083678 0.00503176 0.00218709 0.00080063 0.00373198 0.01823335 0.01228444 0.03701467 0.00307985 0.00246392 0.02564352 0.01412753 0.00237564 0.00299866 0.00127383 
0.03116027 0.05077417 0.00469953 0.00218907 0.00080900 0.00372037 0.01789381 0.01241462 0.03780181 0.00306847 0.00245048 0.02573999 0.01404035 0.00233539 0.00299594 0.00127389 
0.03122309 0.05069822 0.00438014 0.00219042 0.00081677 0.00370908 0.01755951 0.01253237 0.03856023 0.00305760 0.00243828 0.02583844 0.01395315 0.00229590 0.00299659 0.00127387 
0.03128115 0.05060838 0.00407436 0.00219111 0.00082390 0.00369814 0.01723150 0.01263838 0.03928715 0.00304731 0.00242734 0.02593849 0.01386701 0.00225746 0.00300077 0.00127377 
0.03133509 0.05050418 0.00378292 0.00219109 0.00083035 0.00368760 0.01691075 0.01273346 0.03997989 0.00303768 0.00241766 0.02603979 0.01378305 0.00222034 0.00300866 0.00127360 
0.03138558 0.05038513 0.00350652 0.00219035 0.00083608 0.00367750 0.01659816 0.01281846 0.04063589 0.00302877 0.00240924 0.02614199 0.01370248 0.00218481 0.00302041 0.00127334 
0.03143328 0.05025082 0.00324582 0.00218886 0.00084107 0.00366786 0.01629454 0.01289430 0.04125273 0.00302065 0.00240207 0.02624478 0.01362650 0.00215113 0.00303615 0.00127302 
0.03147888 0.05010085 0.00300143 0.00218660 0.00084527 0.00365870 0.01600062 0.01296193 0.04182811 0.00301338 0.00239612 0.02634788 0.01355638 0.00211953 0.00305601 0.00127262 
0.03152303 0.04993489 0.00277394 0.00218354 0.00084867 0.00365006 0.01571703 0.01302237 0.04235991 0.00300699 0.00239134 0.02645104 0.01349340 0.00209025 0.00308010 0.00127215 
0.03156639 0.04975267 0.00256388 0.00217967 0.00085125 0.00364194 0.01544431 0.01307665 0.04284616 0.00300152 0.00238771 0.02655404 0.01343889 0.00206350 0.00310849 0.00127162 
0.03160961 0.04955400 0.00237174 0.00217498 0.00085299 0.00363436 0.01518293 0.01312582 0.04328508 0.00299699 0.00238516 0.02665669 0.01339415 0.00203947 0.00314126 0.00127103 
0.03165332 0.04933875 0.00219800 0.00216945 0.00085389 0.00362732 0.01493323 0.01317096 0.04367505 0.00299344 0.00238364 0.02675887 0.01336053 0.00201835 0.00317844 0.00127037 
0.03169810 0.04910688 0.00204304 0.00216307 0.00085393 0.00362083 0.01469549 0.01321314 0.04401467 0.00299086 0.00238308 0.02686047 0.01333936 0.00200030 0.00322008 0.00126967 
0.03174451 0.04885844 0.00190725 0.00215586 0.00085312 0.00361488 0.01446986 0.01325344 0.04430274 0.00298926 0.00238339 0.02696142 0.01333195 0.00198546 0.00326616 0.00126891 
0.03179309 0.04859356 0.00179093 0.00214779 0.00085146 0.00360949 0.01425644 0.01329291 0.04453825 0.00298864 0.00238450 0.02706172 0.01333961 0.00197395 0.00331668 0.00126810 
0.03184430 0.04831251 0.00169437 0.00213889 0.00084896 0.00360463 0.01405521 0.01333258 0.04472041 0.00298897 0.00238632 0.02716137 0.01336362 0.00196586 0.00337159 0.00126724 
0.03189857 0.04801562 0.00161779 0.00212915 0.00084564 0.00360029 0.01386607 0.01337348 0.04484865 0.00299024 0.00238876 0.02726045 0.01340520 0.00196129 0.00343082 0.00126635 
0.03195628 0.04770335 0.00156138 0.00211859 0.00084150 0.00359647 0.01368884 0.01341656 0.04492263 0.00299242 0.00239171 0.02735906 0.01346555 0.00196027 0.00349430 0.00126541 
0.03201774 0.04737628 0.00152528 0.00210722 0.00083657 0.00359315 0.01352325 0.01346275 0.04494222 0.00299548 0.00239508 0.02745732 0.01354582 0.00196285 0.00356190 0.00126444 
0.03208320 0.04703509 0.00150956 0.00209506 0.00083088 0.00359030 0.01336897 0.01351292 0.04490751 0.00299936 0.00239875 0.02755542 0.01364705 0.00196904 0.00363350 0.00126344 
0.03215284 0.04668057 0.00151427 0.00208214 0.00082446 0.00358791 0.01322558 0.01356790 0.04481883 0.00300401 0.00240263 0.02765354 0.01377026 0.00197882 0.00370893 0.00126241 
0.03222677 0.04631365 0.00153940 0.00206848 0.00081733 0.00358595 0.01309261 0.01362844 0.04467671 0.00300939 0.00240661 0.02775193 0.01391635 0.00199217 0.00378802 0.00126135 
0.03230503 0.04593535 0.00158491 0.00205411 0.00080955 0.00358438 0.01296951 0.01369522 0.04448193 0.00301543 0.00241057 0.02785082 0.01408613 0.00200902 0.00387056 0.00126027 
0.03238759 0.04554681 0.00165067 0.00203907 0.00080115 0.00358320 0.01285570 0.01376886 0.04423545 0.00302205 0.00241442 0.02795049 0.01428033 0.00202930 0.00395633 0.00125918 
0.03247432 0.04514928 0.00173655 0.00202340 0.00079217 0.00358235 0.01275051 0.01384989 0.04393847 0.00302919 0.00241803 0.02805123 0.01449955 0.00205291 0.00404506 0.00125806 
0.03256503 0.04474412 0.00184234 0.00200714 0.00078266 0.00358182 0.01265329 0.01393876 0.04359239 0.00303678 0.00242132 0.02815331 0.01474428 0.00207972 0.00413650 0.00125694 
0.03265944 0.04433280 0.00196780 0.00199034 0.00077267 0.00358157 0.01256329 0.01403585 0.04319880 0.00304472 0.00242417 0.02825703 0.01501488 0.00210961 0.00423035 0.00125580 
0.03275720 0.04391685 0.00211263 0.00197304 0.00076226 0.00358155 0.01247978 0.01414143 0.04275948 0.00305293 0.00242649 0.02836269 0.01531159 0.00214241 0.00432630 0.00125466 
0.03285787 0.04349792 0.00227650 0.00195531 0.00075147 0.00358175 0.01240200 0.01425571 0.04227642 0.00306133 0.00242818 0.02847057 0.01563448 0.00217795 0.00442402 0.00125351 
0.03296094 0.04307773 0.00245901 0.00193719 0.00074037 0.00358212 0.01232915 0.01437880 0.04175175 0.00306982 0.00242916 0.02858093 0.01598351 0.00221603 0.00452316 0.00125237 
0.03306581 0.04265806 0.00265972 0.00191875 0.00072901 0.00358262 0.01226047 0.01451072 0.04118778 0.00307831 0.00242935 0.02869401 0.01635847 0.00225645 0.00462336 0.00125122 
0.03317181 0.04224078 0.00287817 0.00190006 0.00071745 0.00358321 0.01219516 0.01465139 0.04058696 0.00308671 0.00242866 0.02881005 0.01675900 0.00229898 0.00472425 0.00125008 
0.03327821 0.04182779 0.00311382 0.00188117 0.00070574 0.00358387 0.01213246 0.01480066 0.03995190 0.00309491 0.00242702 0.02892923 0.01718460 0.00234338 0.00482542 0.00124895 
0.03338420 0.04142101 0.00336610 0.00186217 0.00069396 0.00358455 0.01207160 0.01495830 0.03928533 0.00310284 0.00242438 0.02905169 0.01763458 0.00238942 0.00492649 0.00124783 
0.03348890 0.04102243 0.00363441 0.00184311 0.00068215 0.00358522 0.01201188 0.01512397 0.03859007 0.00311037 0.00242068 0.02917755 0.01810811 0.00243684 0.00502703 0.00124672 
0.03359138 0.04063403 0.00391809 0.00182409 0.00067039 0.00358584 0.01195257 0.01529727 0.03786908 0.00311743 0.00241586 0.02930687 0.01860419 0.00248536 0.00512663 0.00124563 
0.03369064 0.04025779 0.00421644 0.00180516 0.00065872 0.00358638 0.01189302 0.01547772 0.03712539 0.00312392 0.00240990 0.02943965 0.01912168 0.00253471 0.00522486 0.00124456 
0.03378566 0.03989569 0.00452872 0.00178642 0.00064721 0.00358680 0.01183262 0.01566475 0.03636209 0.00312973 0.00240277 0.02957585 0.01965924 0.00258463 0.00532128 0.00124351 
0.03387535 0.03954967 0.00485417 0.00176794 0.00063591 0.00358707 0.01177078 0.01585773 0.03558234 0.00313479 0.00239444 0.02971537 0.02021541 0.00263482 0.00541548 0.00124248 
0.03395859 0.03922165 0.00519198 0.00174980 0.00062488 0.00358716 0.01170701 0.01605597 0.03478934 0.00313899 0.00238490 0.02985802 0.02078857 0.00268501 0.00550702 0.00124148 
0.03403422 0.03891349 0.00554129 0.00173209 0.00061418 0.00358703 0.01164083 0.01625871 0.03398633 0.00314226 0.00237415 0.03000358 0.02137693 0.00273491 0.00559546 0.00124051 
0.03410108 0.03862697 0.00590124 0.00171488 0.00060385 0.00358667 0.01157187 0.01646513 0.03317655 0.00314451 0.00236220 0.03015175 0.02197859 0.00278424 0.00568039 0.00123957 
0.03415799 0.03836381 0.00627091 0.00169827 0.00059395 0.00358605 0.01149979 0.01667436 0.03236323 0.00314566 0.00234906 0.03030216 0.02259150 0.00283272 0.00576138 0.00123867 
0.03420375 0.03812563 0.00664936 0.00168233 0.00058453 0.00358513 0.01142433 0.01688549 0.03154961 0.00314563 0.00233477 0.03045438 0.02321347 0.00288008 0.00583803 0.00123781 
0.03423717 0.03791395 0.00703563 0.00166714 0.00057562 0.00358391 0.01134532 0.01709758 0.03073888 0.00314435 0.00231936 0.03060791 0.02384222 0.00292605 0.00590994 0.00123698 
0.03425707 0.03773016 0.00742873 0.00165280 0.00056727 0.00358235 0.01126265 0.01730962 0.02993419 0.00314176 0.00230288 0.03076218 0.02447535 0.00297036 0.00597673 0.00123621 
0.03426230 0.03757552 0.00782764 0.00163936 0.00055952 0.00358045 0.01117627 0.01752061 0.02913863 0.00313779 0.00228537 0.03091657 0.02511035 0.00301278 0.00603804 0.00123547 
0.03425174 0.03745117 0.00823134 0.00162693 0.00055240 0.00357819 0.01108624 0.01772950 0.02835521 0.00313239 0.00226690 0.03107039 0.02574464 0.00305306 0.00609350 0.00123479 
0.03422429 0.03735808 0.00863879 0.00161556 0.00054595 0.00357555 0.01099266 0.01793526 0.02758686 0.00312551 0.00224754 0.03122290 0.02637557 0.00309097 0.00614281 0.00123416 
0.03417891 0.03729708 0.00904891 0.00160533 0.00054019 0.00357253 0.01089573 0.01813681 0.02683643 0.00311710 0.00222737 0.03137332 0.02700043 0.00312630 0.00618565 0.00123359 
0.03411463 0.03726881 0.00946063 0.00159632 0.00053514 0.00356912 0.01079571 0.01833310 0.02610663 0.00310712 0.00220647 0.03152081 0.02761646 0.00315885 0.00622174 0.00123307 
0.03403055 0.03727376 0.00987289 0.00158859 0.00053082 0.00356532 0.01069294 0.01852306 0.02540006 0.00309555 0.00218494 0.03166449 0.02822088 0.00318844 0.00625083 0.00123261 
0.03392581 0.03731224 0.01028460 0.00158219 0.00052726 0.00356112 0.01058782 0.01870564 0.02471919 0.00308235 0.00216287 0.03180346 0.02881088 0.00321490 0.00627269 0.00123222 
0.03379969 0.03738435 0.01069467 0.00157720 0.00052445 0.00355652 0.01048082 0.01887982 0.02406636 0.00306752 0.00214037 0.03193679 0.02938367 0.00323808 0.00628714 0.00123189 
0.03365153 0.03749003 0.01110203 0.00157365 0.00052241 0.00355154 0.01037246 0.01904457 0.02344374 0.00305104 0.00211754 0.03206354 0.02993647 0.00325785 0.00629400 0.00123163 
0.03348079 0.03762904 0.01150560 0.00157161 0.00052114 0.00354618 0.01026332 0.01919892 0.02285334 0.00303290 0.00209449 0.03218275 0.03046653 0.00327410 0.00629315 0.00123144 
0.03328704 0.03780093 0.01190431 0.00157110 0.00052064 0.00354043 0.01015404 0.01934191 0.02229702 0.00301312 0.00207135 0.03229347 0.03097117 0.00328675 0.00628449 0.00123132 
0.03306998 0.03800507 0.01229713 0.00157217 0.00052090 0.00353433 0.01004530 0.01947264 0.02177645 0.00299171 0.00204823 0.03239478 0.03144774 0.00329571 0.00626798 0.00123128 
0.03282943 0.03824067 0.01268300 0.00157485 0.00052191 0.00352788 0.00993781 0.01959022 0.02129314 0.00296868 0.00202526 0.03248574 0.03189372 0.00330095 0.00624357 0.00123131 
0.03256537 0.03850673 0.01306093 0.00157916 0.00052365 0.00352109 0.00983232 0.01969385 0.02084839 0.00294406 0.00200255 0.03256547 0.03230665 0.00330242 0.00621130 0.00123142 
0.03227789 0.03880209 0.01342992 0.00158511 0.00052612 0.00351399 0.00972961 0.01978276 0.02044334 0.00291788 0.00198023 0.03263313 0.03268422 0.00330013 0.00617122 0.00123161 
0.03196726 0.03912543 0.01378900 0.00159272 0.00052928 0.00350659 0.00963047 0.01985623 0.02007893 0.00289019 0.00195841 0.03268792 0.03302422 0.00329408 0.00612342 0.00123187 
0.03163391 0.03947526 0.01413725 0.00160198 0.00053312 0.00349891 0.00953572 0.01991364 0.01975590 0.00286104 0.00193723 0.03272912 0.03332460 0.00328431 0.00606804 0.00123222 
0.03127841 0.03984995 0.01447376 0.00161288 0.00053760 0.00349098 0.00944615 0.01995438 0.01947479 0.00283048 0.00191681 0.03275605 0.03358348 0.00327087 0.00600525 0.00123265 
0.03090151 0.04024772 0.01479768 0.00162542 0.00054268 0.00348282 0.00936258 0.01997796 0.01923597 0.00279858 0.00189726 0.03276813 0.03379913 0.00325383 0.00593525 0.00123317 
0.03050413 0.04066667 0.01510819 0.00163957 0.00054835 0.00347446 0.00928581 0.01998393 0.01903961 0.00276541 0.00187869 0.03276488 0.03397002 0.00323329 0.00585830 0.00123376 
0.03008737 0.04110479 0.01540452 0.00165530 0.00055454 0.00346591 0.00921662 0.01997193 0.01888566 0.00273104 0.00186122 0.03274589 0.03409483 0.00320936 0.00577469 0.00123444 
0.02965249 0.04155996 0.01568592 0.00167257 0.00056123 0.00345721 0.00915576 0.01994167 0.01877391 0.00269555 0.00184496 0.03271088 0.03417242 0.00318217 0.00568473 0.00123520 
0.02920093 0.04202998 0.01595173 0.00169133 0.00056837 0.00344837 0.00910396 0.01989294 0.01870396 0.00265905 0.00183000 0.03265967 0.03420187 0.00315187 0.00558880 0.00123604 
0.02873432 0.04251257 0.01620131 0.00171152 0.00057592 0.00343944 0.00906189 0.01982562 0.01867523 0.00262161 0.00181645 0.03259220 0.03418252 0.00311861 0.00548729 0.00123696 
0.02825445 0.04300538 0.01643409 0.00173309 0.00058381 0.00343042 0.00903021 0.01973965 0.01868693 0.00258335 0.00180439 0.03250855 0.03411390 0.00308257 0.00538061 0.00123796 
0.02776327 0.04350606 0.01664955 0.00175595 0.00059202 0.00342134 0.00900948 0.01963507 0.01873814 0.00254436 0.00179391 0.03240891 0.03399579 0.00304396 0.00526924 0.00123904 
0.02726293 0.04401220 0.01684724 0.00178004 0.00060047 0.00341222 0.00900025 0.01951200 0.01882775 0.00250477 0.00178509 0.03229362 0.03382822 0.00300296 0.00515366 0.00124019 
0.02675571 0.04452138 0.01702674 0.00180526 0.00060913 0.00340310 0.00900296 0.01937063 0.01895449 0.00246467 0.00177798 0.03216315 0.03361146 0.00295981 0.00503438 0.00124142 
0.02624408 0.04503120 0.01718773 0.00183152 0.00061794 0.00339398 0.00901803 0.01921126 0.01911695 0.00242420 0.00177266 0.03201811 0.03334601 0.00291472 0.00491194 0.00124271 
0.02573065 0.04553927 0.01732993 0.00185871 0.00062684 0.00338488 0.00904575 0.01903423 0.01931355 0.00238347 0.00176916 0.03185923 0.03303262 0.00286794 0.00478692 0.00124408 
0.02521816 0.04604327 0.01745312 0.00188674 0.00063578 0.00337583 0.00908639 0.01883999 0.01954262 0.00234260 0.00176755 0.03168742 0.03267231 0.00281969 0.00465988 0.00124550 
0.02470950 0.04654089 0.01755715 0.00191548 0.00064471 0.00336682 0.00914008 0.01862906 0.01980230 0.00230173 0.00176784 0.03150369 0.03226629 0.00277024 0.00453143 0.00124699 
0.02420770 0.04702991 0.01764194 0.00194482 0.00065358 0.00335788 0.00920693 0.01840203 0.02009067 0.00226098 0.00177007 0.03130920 0.03181602 0.00271984 0.00440217 0.00124853 
0.02371588 0.04750820 0.01770746 0.00197463 0.00066232 0.00334901 0.00928690 0.01815957 0.02040567 0.00222047 0.00177424 0.03110522 0.03132322 0.00266873 0.00427274 0.00125013 
0.02323727 0.04797371 0.01775377 0.00200478 0.00067090 0.00334022 0.00937990 0.01790241 0.02074514 0.00218035 0.00178037 0.03089317 0.03078977 0.00261719 0.00414375 0.00125177 
0.02277521 0.04842452 0.01778095 0.00203514 0.00067925 0.00333151 0.00948575 0.01763136 0.02110685 0.00214074 0.00178845 0.03067457 0.03021780 0.00256546 0.00401585 0.00125346 
0.02233309 0.04885881 0.01778919 0.00206558 0.00068734 0.00332287 0.00960416 0.01734729 0.02148848 0.00210177 0.00179846 0.03045104 0.02960963 0.00251381 0.00388967 0.00125519 
0.02191438 0.04927490 0.01777872 0.00209595 0.00069511 0.00331431 0.00973476 0.01705111 0.02188764 0.00206357 0.00181038 0.03022431 0.02896775 0.00246248 0.00376584 0.00125695 
0.02152259 0.04967127 0.01774981 0.00212612 0.00070252 0.00330582 0.00987711 0.01674382 0.02230191 0.00202627 0.00182418 0.02999621 0.02829484 0.00241172 0.00364499 0.00125874 
0.02116127 0.05004651 0.01770281 0.00215594 0.00070953 0.00329738 0.01003066 0.01642643 0.02272878 0.00198999 0.00183982 0.02976862 0.02759372 0.00236178 0.00352772 0.00126056 
0.02083398 0.05039941 0.01763814 0.00218528 0.00071610 0.00328898 0.01019479 0.01610004 0.02316576 0.00195485 0.00185725 0.02954350 0.02686738 0.00231289 0.00341466 0.00126239 
0.02054426 0.05072891 0.01755623 0.00221400 0.00072219 0.00328060 0.01036878 0.01576575 0.02361030 0.00192097 0.00187640 0.02932286 0.02611890 0.00226527 0.00330637 0.00126424 
0.02029565 0.05103409 0.01745761 0.00224195 0.00072777 0.00327222 0.01055187 0.01542472 0.02405984 0.00188847 0.00189720 0.02910874 0.02535150 0.00221915 0.00320344 0.00126610 
0.02009164 0.05131425 0.01734282 0.00226900 0.00073281 0.00326383 0.01074319 0.01507814 0.02451185 0.00185746 0.00191959 0.02890322 0.02456847 0.00217473 0.00310639 0.00126796 
0.01993567 0.05156884 0.01721247 0.00229502 0.00073728 0.00325539 0.01094183 0.01472720 0.02496378 0.00182804 0.00194348 0.02870836 0.02377319 0.00213221 0.00301576 0.00126982 
0.01983108 0.05179748 0.01706720 0.00231987 0.00074115 0.00324687 0.01114680 0.01437314 0.02541312 0.00180032 0.00196877 0.02852624 0.02296907 0.00209175 0.00293202 0.00127168 
0.01978114 0.05199998 0.01690768 0.00234343 0.00074441 0.00323824 0.01135708 0.01401719 0.02585738 0.00177440 0.00199538 0.02835891 0.02215958 0.00205354 0.00285563 0.00127352 
0.01978898 0.05217630 0.01673464 0.00236559 0.00074704 0.00322947 0.01157156 0.01366060 0.02629412 0.00175036 0.00202319 0.02820835 0.02134819 0.00201772 0.00278702 0.00127535 
0.01985762 0.05232661 0.01654881 0.00238623 0.00074903 0.00322053 0.01178913 0.01330462 0.02672096 0.00172828 0.00205210 0.02807653 0.02053836 0.00198443 0.00272656 0.00127716 
0.01998988 0.05245121 0.01635099 0.00240524 0.00075036 0.00321138 0.01200863 0.01295049 0.02713557 0.00170824 0.00208200 0.02796531 0.01973354 0.00195379 0.00267461 0.00127895 
0.02018845 0.05255057 0.01614196 0.00242253 0.00075104 0.00320197 0.01222887 0.01259944 0.02753570 0.00169031 0.00211277 0.02787647 0.01893713 0.00192590 0.00263145 0.00128071 
0.02045580 0.05262534 0.01592254 0.00243801 0.00075105 0.00319228 0.01244865 0.01225268 0.02791917 0.00167456 0.00214429 0.02781171 0.01815245 0.00190086 0.00259735 0.00128244 
0.02079419 0.05267627 0.01569356 0.00245159 0.00075041 0.00318226 0.01266675 0.01191141 0.02828391 0.00166103 0.00217643 0.02777257 0.01738276 0.00187872 0.00257251 0.00128414 
0.02120567 0.05270429 0.01545589 0.00246321 0.00074913 0.00317188 0.01288195 0.01157678 0.02862792 0.00164977 0.00220908 0.02776049 0.01663121 0.00185955 0.00255710 0.00128580 
0.02169201 0.05271045 0.01521035 0.00247280 0.00074720 0.00316110 0.01309305 0.01124993 0.02894934 0.00164082 0.00224210 0.02777674 0.01590084 0.00184337 0.00255124 0.00128742 
0.02225475 0.05269592 0.01495783 0.00248032 0.00074464 0.00314988 0.01329886 0.01093195 0.02924640 0.00163421 0.00227537 0.02782245 0.01519454 0.00183020 0.00255498 0.00128900 
0.02289513 0.05266196 0.01469916 0.00248573 0.00074147 0.00313819 0.01349820 0.01062388 0.02951745 0.00162996 0.00230876 0.02789855 0.01451507 0.00182005 0.00256834 0.00129054 
0.02361411 0.05260995 0.01443521 0.00248899 0.00073771 0.00312599 0.01368994 0.01032673 0.02976098 0.00162808 0.00234215 0.02800582 0.01386501 0.00181290 0.00259129 0.00129203 
0.02441234 0.05254137 0.01416682 0.00249011 0.00073339 0.00311326 0.01387298 0.01004143 0.02997558 0.00162858 0.00237541 0.02814483 0.01324677 0.00180870 0.00262373 0.00129349 
0.02529014 0.05245773 0.01389482 0.00248906 0.00072853 0.00309998 0.01404629 0.00976887 0.03016002 0.00163145 0.00240843 0.02831593 0.01266255 0.00180741 0.00266553 0.00129490 
0.02624753 0.05236066 0.01362003 0.00248587 0.00072315 0.00308610 0.01420886 0.00950988 0.03031319 0.00163668 0.00244107 0.02851930 0.01211436 0.00180897 0.00271650 0.00129627 
0.02728417 0.05225179 0.01334325 0.00248055 0.00071729 0.00307163 0.01435978 0.00926521 0.03043410 0.00164424 0.00247323 0.02875488 0.01160402 0.00181328 0.00277641 0.00129759 
0.02839938 0.05213282 0.01306527 0.00247313 0.00071099 0.00305654 0.01449819 0.00903556 0.03052196 0.00165411 0.00250479 0.02902241 0.01113308 0.00182026 0.00284496 0.00129888 
0.02959215 0.05200547 0.01278682 0.00246366 0.00070428 0.00304083 0.01462332 0.00882154 0.03057608 0.00166625 0.00253565 0.02932139 0.01070289 0.00182980 0.00292182 0.00130012 
0.03086109 0.05187148 0.01250865 0.00245221 0.00069721 0.00302448 0.01473447 0.00862370 0.03059596 0.00168060 0.00256571 0.02965112 0.01031457 0.00184176 0.00300663 0.00130133 
0.03220446 0.05173257 0.01223145 0.00243883 0.00068980 0.00300751 0.01483105 0.00844250 0.03058124 0.00169712 0.00259487 0.03001067 0.00996899 0.00185602 0.00309894 0.00130250 
0.03362017 0.05159048 0.01195587 0.00242361 0.00068210 0.00298991 0.01491254 0.00827835 0.03053170 0.00171575 0.00262305 0.03039890 0.00966677 0.00187244 0.00319831 0.00130365 
0.03510577 0.05144691 0.01168256 0.00240664 0.00067416 0.00297170 0.01497854 0.00813155 0.03044730 0.00173640 0.00265016 0.03081447 0.00940830 0.00189084 0.00330423 0.00130476 
0.03665845 0.05130355 0.01141210 0.00238803 0.00066602 0.00295291 0.01502874 0.00800233 0.03032814 0.00175901 0.00267612 0.03125580 0.00919372 0.00191108 0.00341616 0.00130585 
0.03827506 0.05116203 0.01114506 0.00236789 0.00065772 0.00293354 0.01506295 0.00789086 0.03017448 0.00178349 0.00270087 0.03172115 0.00902293 0.00193297 0.00353354 0.00130692 
0.03995210 0.05102395 0.01088194 0.00234633 0.00064932 0.00291365 0.01508106 0.00779720 0.02998673 0.00180976 0.00272436 0.03220857 0.00889559 0.00195635 0.00365576 0.00130798 
0.04168574 0.05089084 0.01062322 0.00232349 0.00064084 0.00289326 0.01508311 0.00772134 0.02976545 0.00183770 0.00274652 0.03271593 0.00881112 0.00198103 0.00378220 0.00130902 
0.04347182 0.05076418 0.01036935 0.00229952 0.00063235 0.00287242 0.01506921 0.00766322 0.02951135 0.00186723 0.00276732 0.03324096 0.00876873 0.00200682 0.00391220 0.00131006 
0.04530587 0.05064536 0.01012071 0.00227455 0.00062388 0.00285118 0.01503961 0.00762266 0.02922528 0.00189824 0.00278671 0.03378120 0.00876738 0.00203353 0.00404510 0.00131109 
0.04718314 0.05053570 0.00987766 0.00224874 0.00061548 0.00282960 0.01499466 0.00759944 0.02890823 0.00193060 0.00280468 0.03433409 0.00880584 0.00206097 0.00418020 0.00131212 
0.04909856 0.05043645 0.00964050 0.00222225 0.00060719 0.00280774 0.01493480 0.00759324 0.02856133 0.00196422 0.00282120 0.03489691 0.00888268 0.00208896 0.00431682 0.00131317 
0.05104683 0.05034875 0.00940951 0.00219525 0.00059906 0.00278567 0.01486060 0.00760370 0.02818585 0.00199896 0.00283627 0.03546688 0.00899625 0.00211730 0.00445424 0.00131422 
0.05302238 0.05027368 0.00918491 0.00216790 0.00059112 0.00276346 0.01477272 0.00763037 0.02778316 0.00203470 0.00284987 0.03604110 0.00914476 0.00214580 0.00459176 0.00131529 
0.05501943 0.05021221 0.00896689 0.00214038 0.00058342 0.00274120 0.01467193 0.00767274 0.02735479 0.00207132 0.00286203 0.03661661 0.00932622 0.00217428 0.00472865 0.00131639 
0.05703199 0.05016521 0.00875560 0.00211286 0.00057599 0.00271897 0.01455908 0.00773025 0.02690234 0.00210869 0.00287275 0.03719040 0.00953851 0.00220257 0.00486422 0.00131750 
0.05905389 0.05013346 0.00855114 0.00208551 0.00056887 0.00269685 0.01443511 0.00780228 0.02642756 0.00214668 0.00288205 0.03775945 0.00977935 0.00223048 0.00499776 0.00131865 
0.06107880 0.05011767 0.00835358 0.00205851 0.00056210 0.00267494 0.01430105 0.00788816 0.02593227 0.00218515 0.00288996 0.03832070 0.01004635 0.00225785 0.00512858 0.00131984 
0.06310027 0.05011842 0.00816297 0.00203203 0.00055569 0.00265333 0.01415800 0.00798717 0.02541841 0.00222398 0.00289651 0.03887112 0.01033703 0.00228453 0.00525600 0.00132106 
0.06511173 0.05013622 0.00797930 0.00200625 0.00054969 0.00263212 0.01400713 0.00809855 0.02488799 0.00226303 0.00290176 0.03940771 0.01064879 0.00231035 0.00537938 0.00132233 
0.06710656 0.05017149 0.00780254 0.00198133 0.00054413 0.00261139 0.01384968 0.00822150 0.02434311 0.00230217 0.00290574 0.03992751 0.01097897 0.00233519 0.00549808 0.00132364 
0.06907806 0.05022456 0.00763263 0.00195745 0.00053901 0.00259126 0.01368694 0.00835520 0.02378593 0.00234126 0.00290852 0.04042765 0.01132487 0.00235890 0.00561149 0.00132500 
0.07101955 0.05029569 0.00746947 0.00193476 0.00053437 0.00257182 0.01352022 0.00849878 0.02321870 0.00238019 0.00291014 0.04090534 0.01168372 0.00238138 0.00571904 0.00132641 
0.07292433 0.05038503 0.00731294 0.00191342 0.00053022 0.00255316 0.01335091 0.00865138 0.02264369 0.00241882 0.00291067 0.04135789 0.01205275 0.00240250 0.00582017 0.00132787 
0.07478575 0.05049271 0.00716292 0.00189357 0.00052659 0.00253538 0.01318038 0.00881210 0.02206324 0.00245702 0.00291017 0.04178275 0.01242918 0.00242217 0.00591439 0.00132939 
0.07659725 0.05061874 0.00701922 0.00187537 0.00052347 0.00251857 0.01301006 0.00898004 0.02147973 0.00249468 0.00290873 0.04217751 0.01281025 0.00244032 0.00600122 0.00133096 
0.07835235 0.05076310 0.00688167 0.00185894 0.00052089 0.00250283 0.01284135 0.00915429 0.02089555 0.00253167 0.00290640 0.04253991 0.01319322 0.00245685 0.00608022 0.00133259 
0.08004470 0.05092571 0.00675007 0.00184441 0.00051884 0.00248823 0.01267568 0.00933396 0.02031315 0.00256788 0.00290326 0.04286789 0.01357540 0.00247172 0.00615102 0.00133428 
0.08166813 0.05110645 0.00662419 0.00183189 0.00051734 0.00247486 0.01251445 0.00951814 0.01973495 0.00260321 0.00289940 0.04315955 0.01395417 0.00248488 0.00621327 0.00133602 
0.08321665 0.05130513 0.00650382 0.00182149 0.00051638 0.00246280 0.01235903 0.00970595 0.01916340 0.00263753 0.00289487 0.04341320 0.01432696 0.00249629 0.00626667 0.00133781 
0.08468450 0.05152154 0.00638870 0.00181331 0.00051596 0.00245210 0.01221079 0.00989652 0.01860094 0.00267075 0.00288977 0.04362736 0.01469133 0.00250593 0.00631097 0.00133966 
0.08606614 0.05175546 0.00627861 0.00180742 0.00051607 0.00244284 0.01207103 0.01008902 0.01805000 0.00270279 0.00288417 0.04380079 0.01504492 0.00251380 0.00634598 0.00134155 
0.08735633 0.05200662 0.00617328 0.00180391 0.00051672 0.00243507 0.01194101 0.01028261 0.01751298 0.00273353 0.00287813 0.04393243 0.01538550 0.00251989 0.00637155 0.00134350 
0.08855012 0.05227474 0.00607246 0.00180283 0.00051789 0.00242882 0.01182194 0.01047653 0.01699225 0.00276291 0.00287174 0.04402151 0.01571097 0.00252422 0.00638758 0.00134549 
0.08964290 0.05255953 0.00597590 0.00180422 0.00051956 0.00242414 0.01171496 0.01067001 0.01649016 0.00279084 0.00286507 0.04406745 0.01601936 0.00252683 0.00639401 0.00134752 
0.09063037 0.05286070 0.00588334 0.00180813 0.00052173 0.00242105 0.01162112 0.01086236 0.01600899 0.00281726 0.00285817 0.04406995 0.01630886 0.00252774 0.00639086 0.00134958 
0.09150865 0.05317796 0.00579455 0.00181458 0.00052438 0.00241957 0.01154141 0.01105292 0.01555098 0.00284209 0.00285112 0.04402891 0.01657782 0.00252700 0.00637817 0.00135168 
0.09227420 0.05351103 0.00570927 0.00182357 0.00052748 0.00241971 0.01147672 0.01124107 0.01511831 0.00286528 0.00284398 0.04394451 0.01682478 0.00252468 0.00635604 0.00135380 
0.09292394 0.05385962 0.00562727 0.00183510 0.00053102 0.00242146 0.01142786 0.01142626 0.01471308 0.00288678 0.00283680 0.04381715 0.01704842 0.00252084 0.00632463 0.00135594 
0.09345516 0.05422347 0.00554833 0.00184916 0.00053497 0.00242480 0.01139551 0.01160798 0.01433732 0.00290654 0.00282963 0.04364745 0.01724761 0.00251556 0.00628414 0.00135810 
0.09386563 0.05460233 0.00547225 0.00186573 0.00053932 0.00242972 0.01138028 0.01178579 0.01399297 0.00292453 0.00282252 0.04343627 0.01742143 0.00250892 0.00623480 0.00136026 
0.09415357 0.05499599 0.00539882 0.00188475 0.00054403 0.00243616 0.01138264 0.01195930 0.01368188 0.00294072 0.00281551 0.04318471 0.01756913 0.00250101 0.00617690 0.00136243 
0.09431764 0.05540423 0.00532787 0.00190617 0.00054909 0.00244409 0.01140298 0.01212819 0.01340582 0.00295509 0.00280863 0.04289405 0.01769013 0.00249192 0.00611078 0.00136458 
0.09435699 0.05582688 0.00525923 0.00192994 0.00055445 0.00245344 0.01144154 0.01229221 0.01316644 0.00296762 0.00280192 0.04256577 0.01778409 0.00248176 0.00603680 0.00136673 
0.09427125 0.05626377 0.00519275 0.00195598 0.00056011 0.00246414 0.01149847 0.01245116 0.01296527 0.00297830 0.00279539 0.04220157 0.01785080 0.00247063 0.00595536 0.00136886 
0.09406052 0.05671477 0.00512832 0.00198420 0.00056602 0.00247612 0.01157379 0.01260491 0.01280376 0.00298713 0.00278907 0.04180330 0.01789030 0.00245864 0.00586691 0.00137095 
0.09372539 0.05717977 0.00506582 0.00201451 0.00057215 0.00248928 0.01166740 0.01275339 0.01268320 0.00299412 0.00278296 0.04137298 0.01790277 0.00244589 0.00577192 0.00137302 
0.09326695 0.05765867 0.00500518 0.00204679 0.00057849 0.00250352 0.01177911 0.01289660 0.01260478 0.00299928 0.00277707 0.04091277 0.01788859 0.00243250 0.00567088 0.00137504 
0.09268674 0.05815141 0.00494634 0.00208094 0.00058500 0.00251874 0.01190857 0.01303462 0.01256955 0.00300263 0.00277140 0.04042497 0.01784830 0.00241857 0.00556433 0.00137700 
0.09198680 0.05865792 0.00488925 0.00211683 0.00059164 0.00253480 0.01205535 0.01316756 0.01257843 0.00300420 0.00276594 0.03991201 0.01778265 0.00240422 0.00545280 0.00137892 
0.09116963 0.05917815 0.00483392 0.00215433 0.00059840 0.00255160 0.01221891 0.01329561 0.01263219 0.00300401 0.00276069 0.03937637 0.01769250 0.00238955 0.00533688 0.00138076 
0.09023820 0.05971207 0.00478034 0.00219330 0.00060525 0.00256900 0.01239858 0.01341902 0.01273149 0.00300211 0.00275561 0.03882067 0.01757890 0.00237467 0.00521713 0.00138254 
0.08919590 0.06025962 0.00472856 0.00223361 0.00061215 0.00258686 0.01259361 0.01353808 0.01287681 0.00299853 0.00275070 0.03824754 0.01744303 0.00235968 0.00509415 0.00138423 
0.08804660 0.06082077 0.00467864 0.00227509 0.00061908 0.00260503 0.01280315 0.01365316 0.01306850 0.00299333 0.00274591 0.03765968 0.01728622 0.00234468 0.00496855 0.00138584 
0.08679454 0.06139545 0.00463066 0.00231760 0.00062602 0.00262337 0.01302626 0.01376465 0.01330674 0.00298655 0.00274122 0.03705982 0.01710991 0.00232976 0.00484094 0.00138736 
0.08544439 0.06198358 0.00458473 0.00236097 0.00063294 0.00264174 0.01326192 0.01387300 0.01359159 0.00297827 0.00273660 0.03645068 0.01691566 0.00231500 0.00471192 0.00138877 
0.08400119 0.06258506 0.00454098 0.00240506 0.00063982 0.00265997 0.01350901 0.01397870 0.01392293 0.00296853 0.00273200 0.03583498 0.01670513 0.00230048 0.00458211 0.00139009 
0.08247034 0.06319975 0.00449957 0.00244970 0.00064664 0.00267791 0.01376637 0.01408227 0.01430050 0.00295741 0.00272738 0.03521541 0.01648007 0.00228629 0.00445210 0.00139130 
0.08085758 0.06382746 0.00446067 0.00249472 0.00065337 0.00269542 0.01403278 0.01418428 0.01472387 0.00294498 0.00272270 0.03459462 0.01624232 0.00227248 0.00432250 0.00139239 
0.07916895 0.06446797 0.00442448 0.00253996 0.00066000 0.00271234 0.01430693 0.01428529 0.01519245 0.00293131 0.00271790 0.03397519 0.01599377 0.00225912 0.00419388 0.00139337 
0.07741078 0.06512098 0.00439123 0.00258527 0.00066651 0.00272852 0.01458752 0.01438593 0.01570552 0.00291648 0.00271295 0.03335962 0.01573635 0.00224626 0.00406683 0.00139422 
0.07558965 0.06578614 0.00436114 0.00263048 0.00067289 0.00274382 0.01487316 0.01448680 0.01626218 0.00290056 0.00270778 0.03275033 0.01547207 0.00223394 0.00394189 0.00139495 
0.07371239 0.06646301 0.00433447 0.00267543 0.00067912 0.00275809 0.01516248 0.01458853 0.01686138 0.00288365 0.00270236 0.03214962 0.01520291 0.00222220 0.00381959 0.00139556 
0.07178600 0.06715107 0.00431150 0.00271997 0.00068519 0.00277122 0.01545406 0.01469175 0.01750192 0.00286583 0.00269664 0.03155969 0.01493091 0.00221106 0.00370045 0.00139603 
0.06981764 0.06784971 0.00429250 0.00276394 0.00069108 0.00278306 0.01574649 0.01479709 0.01818244 0.00284718 0.00269055 0.03098259 0.01465806 0.00220055 0.00358496 0.00139638 
0.06781465 0.06855822 0.00427778 0.00280721 0.00069680 0.00279350 0.01603836 0.01490518 0.01890144 0.00282778 0.00268407 0.03042024 0.01438639 0.00219067 0.00347357 0.00139659 
0.06578441 0.06927579 0.00426764 0.00284963 0.00070233 0.00280244 0.01632825 0.01501661 0.01965726 0.00280774 0.00267714 0.02987439 0.01411785 0.00218142 0.00336672 0.00139668 
0.06373442 0.07000150 0.00426241 0.00289107 0.00070766 0.00280977 0.01661478 0.01513197 0.02044811 0.00278714 0.00266973 0.02934666 0.01385438 0.00217281 0.00326480 0.00139663 
0.06167219 0.07073429 0.00426240 0.00293139 0.00071281 0.00281542 0.01689660 0.01525181 0.02127205 0.00276606 0.00266179 0.02883848 0.01359785 0.00216483 0.00316820 0.00139645 
0.05960524 0.07147302 0.00426795 0.00297048 0.00071775 0.00281929 0.01717237 0.01537665 0.02212702 0.00274461 0.00265330 0.02835111 0.01335009 0.00215744 0.00307723 0.00139614 
0.05754106 0.07221638 0.00427939 0.00300823 0.00072250 0.00282134 0.01744081 0.01550699 0.02301081 0.00272286 0.00264422 0.02788564 0.01311282 0.00215063 0.00299221 0.00139571 
0.05548707 0.07296297 0.00429705 0.00304452 0.00072705 0.00282151 0.01770070 0.01564325 0.02392110 0.00270092 0.00263453 0.02744299 0.01288769 0.00214436 0.00291340 0.00139514 
0.05345060 0.07371123 0.00432127 0.00307926 0.00073141 0.00281978 0.01795085 0.01578584 0.02485544 0.00267887 0.00262421 0.02702388 0.01267627 0.00213860 0.00284102 0.00139446 
0.05143886 0.07445949 0.00435238 0.00311236 0.00073558 0.00281611 0.01819016 0.01593507 0.02581127 0.00265680 0.00261325 0.02662886 0.01248000 0.00213330 0.00277528 0.00139365 
0.04945888 0.07520594 0.00439069 0.00314374 0.00073957 0.00281051 0.01841757 0.01609124 0.02678594 0.00263479 0.00260163 0.02625829 0.01230022 0.00212842 0.00271632 0.00139273 
0.04751751 0.07594865 0.00443652 0.00317333 0.00074338 0.00280298 0.01863213 0.01625454 0.02777669 0.00261294 0.00258936 0.02591237 0.01213815 0.00212391 0.00266427 0.00139170 
0.04562140 0.07668555 0.00449017 0.00320108 0.00074701 0.00279356 0.01883294 0.01642514 0.02878067 0.00259132 0.00257644 0.02559112 0.01199487 0.00211970 0.00261920 0.00139056 
0.04377692 0.07741448 0.00455194 0.00322692 0.00075049 0.00278228 0.01901920 0.01660308 0.02979496 0.00257002 0.00256288 0.02529439 0.01187134 0.00211575 0.00258117 0.00138931 
0.04199018 0.07813314 0.00462209 0.00325082 0.00075381 0.00276920 0.01919019 0.01678839 0.03081656 0.00254913 0.00254870 0.02502187 0.01176837 0.00211200 0.00255018 0.00138796 
0.04026700 0.07883913 0.00470089 0.00327275 0.00075700 0.00275439 0.01934528 0.01698098 0.03184243 0.00252871 0.00253392 0.02477309 0.01168665 0.00210838 0.00252620 0.00138652 
0.03861286 0.07952995 0.00478857 0.00329267 0.00076005 0.00273794 0.01948392 0.01718070 0.03286945 0.00250886 0.00251858 0.02454744 0.01162670 0.00210484 0.00250918 0.00138498 
0.03703290 0.08020303 0.00488535 0.00331058 0.00076298 0.00271995 0.01960568 0.01738731 0.03389450 0.00248963 0.00250271 0.02434419 0.01158890 0.00210132 0.00249903 0.00138336 
0.03553189 0.08085568 0.00499143 0.00332647 0.00076580 0.00270052 0.01971019 0.01760050 0.03491441 0.00247110 0.00248635 0.02416244 0.01157349 0.00209775 0.00249561 0.00138166 
0.03411421 0.08148519 0.00510697 0.00334034 0.00076853 0.00267980 0.01979721 0.01781988 0.03592600 0.00245333 0.00246956 0.02400123 0.01158055 0.00209408 0.00249877 0.00137988 
0.03278385 0.08208876 0.00523210 0.00335221 0.00077117 0.00265790 0.01986655 0.01804497 0.03692610 0.00243640 0.00245239 0.02385946 0.01161003 0.00209026 0.00250832 0.00137804 
0.03154437 0.08266359 0.00536695 0.00336210 0.00077375 0.00263500 0.01991815 0.01827524 0.03791153 0.00242036 0.00243489 0.02373596 0.01166171 0.00208623 0.00252406 0.00137612 
0.03039889 0.08320683 0.00551159 0.00337003 0.00077627 0.00261124 0.01995203 0.01851003 0.03887918 0.00240527 0.00241715 0.02362946 0.01173525 0.00208195 0.00254573 0.00137414 
0.02935012 0.08371562 0.00566608 0.00337604 0.00077874 0.00258679 0.01996827 0.01874867 0.03982593 0.00239119 0.00239922 0.02353864 0.01183015 0.00207736 0.00257308 0.00137211 
0.02840029 0.08418713 0.00583042 0.00338017 0.00078118 0.00256184 0.01996707 0.01899038 0.04074874 0.00237816 0.00238118 0.02346215 0.01194579 0.00207243 0.00260581 0.00137002 
0.02755117 0.08461854 0.00600459 0.00338247 0.00078360 0.00253656 0.01994869 0.01923431 0.04164465 0.00236622 0.00236311 0.02339856 0.01208140 0.00206713 0.00264362 0.00136789 
0.02680410 0.08500710 0.00618855 0.00338299 0.00078602 0.00251115 0.01991349 0.01947956 0.04251075 0.00235543 0.00234508 0.02334645 0.01223612 0.00206141 0.00268618 0.00136570 
0.02615993 0.08535009 0.00638220 0.00338179 0.00078844 0.00248579 0.01986187 0.01972519 0.04334425 0.00234581 0.00232719 0.02330439 0.01240894 0.00205527 0.00273314 0.00136348 
0.02561906 0.08564490 0.00658541 0.00337894 0.00079088 0.00246069 0.01979432 0.01997017 0.04414246 0.00233741 0.00230952 0.02327094 0.01259874 0.00204867 0.00278415 0.00136122 
0.02518142 0.08588901 0.00679803 0.00337450 0.00079334 0.00243604 0.01971140 0.02021344 0.04490283 0.00233024 0.00229215 0.02324468 0.01280433 0.00204161 0.00283882 0.00135893 
0.02484650 0.08608003 0.00701983 0.00336854 0.00079585 0.00241204 0.01961371 0.02045391 0.04562293 0.00232433 0.00227517 0.02322424 0.01302438 0.00203408 0.00289678 0.00135660 
0.02461333 0.08621570 0.00725059 0.00336115 0.00079840 0.00238888 0.01950192 0.02069043 0.04630049 0.00231971 0.00225866 0.02320827 0.01325752 0.00202607 0.00295763 0.00135424 
0.02448051 0.08629392 0.00749001 0.00335239 0.00080101 0.00236675 0.01937673 0.02092186 0.04693341 0.00231637 0.00224270 0.02319549 0.01350227 0.00201760 0.00302097 0.00135186 
0.02444621 0.08631277 0.00773780 0.00334234 0.00080369 0.00234584 0.01923891 0.02114699 0.04751977 0.00231434 0.00222738 0.02318470 0.01375711 0.00200868 0.00308639 0.00134945 
0.02450818 0.08627052 0.00799358 0.00333109 0.00080645 0.00232633 0.01908923 0.02136466 0.04805783 0.00231362 0.00221277 0.02317475 0.01402044 0.00199933 0.00315348 0.00134702 
0.02466379 0.08616564 0.00825696 0.00331871 0.00080930 0.00230840 0.01892852 0.02157364 0.04854605 0.00231420 0.00219895 0.02316461 0.01429063 0.00198956 0.00322183 0.00134457 
0.02491000 0.08599684 0.00852752 0.00330529 0.00081223 0.00229220 0.01875762 0.02177276 0.04898313 0.00231607 0.00218600 0.02315331 0.01456602 0.00197942 0.00329104 0.00134210 
0.02524343 0.08576306 0.00880480 0.00329090 0.00081527 0.00227788 0.01857740 0.02196083 0.04936795 0.00231924 0.00217396 0.02314004 0.01484492 0.00196894 0.00336068 0.00133961 
0.02566035 0.08546350 0.00908828 0.00327562 0.00081841 0.00226560 0.01838875 0.02213669 0.04969965 0.00232367 0.00216291 0.02312404 0.01512562 0.00195816 0.00343036 0.00133711 
0.02615671 0.08509759 0.00937744 0.00325954 0.00082167 0.00225548 0.01819254 0.02229921 0.04997761 0.00232935 0.00215289 0.02310472 0.01540642 0.00194713 0.00349967 0.00133458 
0.02672816 0.08466509 0.00967171 0.00324272 0.00082504 0.00224763 0.01798968 0.02244729 0.05020144 0.00233625 0.00214396 0.02308160 0.01568563 0.00193590 0.00356823 0.00133204 
0.02737007 0.08416600 0.00997049 0.00322523 0.00082854 0.00224216 0.01778105 0.02257989 0.05037100 0.00234433 0.00213615 0.02305432 0.01596156 0.00192453 0.00363565 0.00132949 
0.02807757 0.08360061 0.01027316 0.00320716 0.00083216 0.00223915 0.01756755 0.02269599 0.05048643 0.00235356 0.00212948 0.02302265 0.01623259 0.00191308 0.00370155 0.00132692 
0.02884558 0.08296953 0.01057907 0.00318856 0.00083591 0.00223866 0.01735006 0.02279467 0.05054810 0.00236391 0.00212399 0.02298651 0.01649709 0.00190162 0.00376557 0.00132434 
0.02966880 0.08227365 0.01088753 0.00316951 0.00083979 0.00224075 0.01712943 0.02287506 0.05055664 0.00237531 0.00211968 0.02294594 0.01675352 0.00189021 0.00382737 0.00132174 
0.03054179 0.08151416 0.01119785 0.00315005 0.00084380 0.00224546 0.01690652 0.02293636 0.05051296 0.00238772 0.00211656 0.02290112 0.01700038 0.00187893 0.00388661 0.00131914 
0.03145896 0.08069256 0.01150929 0.00313025 0.00084795 0.00225279 0.01668216 0.02297785 0.05041821 0.00240109 0.00211462 0.02285235 0.01723624 0.00186783 0.00394297 0.00131652 
0.03241460 0.07981064 0.01182111 0.00311017 0.00085223 0.00226275 0.01645714 0.02299890 0.05027379 0.00241536 0.00211385 0.02280008 0.01745975 0.00185701 0.00399616 0.00131390 
0.03340295 0.07887047 0.01213255 0.00308984 0.00085665 0.00227532 0.01623226 0.02299899 0.05008136 0.00243045 0.00211422 0.02274486 0.01766964 0.00184652 0.00404587 0.00131127 
0.03441818 0.07787445 0.01244284 0.00306933 0.00086121 0.00229045 0.01600826 0.02297767 0.04984282 0.00244631 0.00211569 0.02268738 0.01786473 0.00183644 0.00409186 0.00130863 
0.03545443 0.07682521 0.01275118 0.00304866 0.00086590 0.00230809 0.01578586 0.02293460 0.04956028 0.00246287 0.00211824 0.02262842 0.01804395 0.00182685 0.00413387 0.00130598 
0.03650587 0.07572568 0.01305678 0.00302787 0.00087073 0.00232817 0.01556577 0.02286956 0.04923611 0.00248005 0.00212179 0.02256888 0.01820631 0.00181782 0.00417168 0.00130334 
0.03756670 0.07457905 0.01335883 0.00300701 0.00087569 0.00235059 0.01534862 0.02278242 0.04887288 0.00249778 0.00212629 0.02250977 0.01835096 0.00180941 0.00420509 0.00130070 
0.03863116 0.07338874 0.01365651 0.00298609 0.00088077 0.00237526 0.01513506 0.02267317 0.04847334 0.00251598 0.00213167 0.02245216 0.01847714 0.00180169 0.00423392 0.00129805 
0.03969362 0.07215841 0.01394901 0.00296515 0.00088599 0.00240203 0.01492568 0.02254191 0.04804044 0.00253457 0.00213784 0.02239722 0.01858420 0.00179473 0.00425801 0.00129542 
0.04074854 0.07089194 0.01423551 0.00294422 0.00089132 0.00243078 0.01472103 0.02238886 0.04757730 0.00255348 0.00214473 0.02234619 0.01867164 0.00178858 0.00427723 0.00129280 
0.04179052 0.06959341 0.01451521 0.00292330 0.00089678 0.00246136 0.01452164 0.02221434 0.04708719 0.00257263 0.00215223 0.02230035 0.01873905 0.00178330 0.00429146 0.00129019 
0.04281435 0.06826706 0.01478730 0.00290243 0.00090234 0.00249360 0.01432802 0.02201879 0.04657352 0.00259193 0.00216025 0.02226105 0.01878616 0.00177894 0.00430064 0.00128760 
0.04381498 0.06691731 0.01505097 0.00288161 0.00090802 0.00252731 0.01414062 0.02180277 0.04603979 0.00261130 0.00216867 0.02222964 0.01881281 0.00177555 0.00430469 0.00128504 
0.04478760 0.06554870 0.01530545 0.00286086 0.00091379 0.00256233 0.01395987 0.02156693 0.04548963 0.00263068 0.00217739 0.02220754 0.01881898 0.00177316 0.00430358 0.00128250 
0.04572762 0.06416590 0.01554994 0.00284019 0.00091966 0.00259844 0.01378618 0.02131205 0.04492670 0.00264998 0.00218630 0.02219614 0.01880476 0.00177181 0.00429732 0.00128000 
0.04663068 0.06277366 0.01578370 0.00281962 0.00092562 0.00263545 0.01361993 0.02103899 0.04435473 0.00266913 0.00219526 0.02219683 0.01877035 0.00177153 0.00428591 0.00127755 
0.04749272 0.06137681 0.01600599 0.00279914 0.00093166 0.00267315 0.01346145 0.02074873 0.04377749 0.00268805 0.00220416 0.02221102 0.01871608 0.00177234 0.00426941 0.00127514 
0.04830994 0.05998021 0.01621607 0.00277878 0.00093777 0.00271132 0.01331108 0.02044233 0.04319872 0.00270668 0.00221288 0.02224005 0.01864240 0.00177424 0.00424790 0.00127278 
0.04907884 0.05858876 0.01641326 0.00275855 0.00094394 0.00274976 0.01316910 0.02012095 0.04262215 0.00272495 0.00222128 0.02228523 0.01854984 0.00177725 0.00422146 0.00127048 
0.04979623 0.05720735 0.01659687 0.00273844 0.00095017 0.00278824 0.01303581 0.01978582 0.04205149 0.00274281 0.00222925 0.02234784 0.01843907 0.00178136 0.00419024 0.00126826 
0.05045923 0.05584083 0.01676628 0.00271847 0.00095643 0.00282655 0.01291145 0.01943825 0.04149033 0.00276020 0.00223667 0.02242907 0.01831084 0.00178658 0.00415438 0.00126611 
0.05106530 0.05449402 0.01692084 0.00269866 0.00096273 0.00286447 0.01279626 0.01907962 0.04094221 0.00277706 0.00224342 0.02253003 0.01816598 0.00179287 0.00411406 0.00126404 
0.05161222 0.05317163 0.01706000 0.00267901 0.00096905 0.00290181 0.01269045 0.01871138 0.04041052 0.00279336 0.00224937 0.02265176 0.01800542 0.00180021 0.00406950 0.00126207 
0.05209810 0.05187832 0.01718318 0.00265953 0.00097538 0.00293834 0.01259424 0.01833502 0.03989853 0.00280905 0.00225442 0.02279520 0.01783019 0.00180858 0.00402093 0.00126019 
0.05252139 0.05061857 0.01728989 0.00264025 0.00098170 0.00297389 0.01250782 0.01795207 0.03940933 0.00282410 0.00225847 0.02296117 0.01764135 0.00181794 0.00396859 0.00125842 
0.05288090 0.04939677 0.01737963 0.00262118 0.00098801 0.00300825 0.01243135 0.01756411 0.03894584 0.00283849 0.00226142 0.02315039 0.01744006 0.00182825 0.00391279 0.00125677 
0.05317573 0.04821711 0.01745197 0.00260233 0.00099429 0.00304126 0.01236502 0.01717275 0.03851077 0.00285220 0.00226316 0.02336343 0.01722751 0.00183944 0.00385383 0.00125524 
0.05340537 0.04708362 0.01750652 0.00258373 0.00100052 0.00307276 0.01230896 0.01677960 0.03810659 0.00286522 0.00226364 0.02360075 0.01700495 0.00185147 0.00379204 0.00125383 
0.05356958 0.04600010 0.01754291 0.00256541 0.00100670 0.00310258 0.01226332 0.01638630 0.03773554 0.00287754 0.00226276 0.02386266 0.01677368 0.00186426 0.00372777 0.00125257 
0.05366848 0.04497015 0.01756083 0.00254738 0.00101281 0.00313060 0.01222825 0.01599447 0.03739961 0.00288918 0.00226048 0.02414933 0.01653501 0.00187776 0.00366140 0.00125145 
0.05370248 0.04399711 0.01756001 0.00252967 0.00101883 0.00315669 0.01220387 0.01560573 0.03710051 0.00290013 0.00225674 0.02446079 0.01629028 0.00189189 0.00359333 0.00125048 
0.05367231 0.04308411 0.01754024 0.00251232 0.00102475 0.00318075 0.01219029 0.01522168 0.03683964 0.00291044 0.00225150 0.02479691 0.01604084 0.00190657 0.00352398 0.00124967 
0.05357898 0.04223396 0.01750132 0.00249536 0.00103056 0.00320270 0.01218764 0.01484390 0.03661814 0.00292011 0.00224473 0.02515739 0.01578806 0.00192172 0.00345378 0.00124902 
0.05342377 0.04144923 0.01744315 0.00247882 0.00103624 0.00322245 0.01219600 0.01447393 0.03643683 0.00292919 0.00223643 0.02554180 0.01553329 0.00193725 0.00338318 0.00124854 
0.05320823 0.04073219 0.01736562 0.00246273 0.00104177 0.00323998 0.01221548 0.01411324 0.03629621 0.00293773 0.00222659 0.02594953 0.01527787 0.00195308 0.00331265 0.00124823 
0.05293416 0.04008481 0.01726872 0.00244714 0.00104715 0.00325524 0.01224616 0.01376329 0.03619647 0.00294576 0.00221523 0.02637985 0.01502312 0.00196912 0.00324267 0.00124809 
0.05260358 0.03950877 0.01715246 0.00243207 0.00105235 0.00326823 0.01228813 0.01342545 0.03613750 0.00295336 0.00220238 0.02683184 0.01477032 0.00198528 0.00317374 0.00124813 
0.05221874 0.03900541 0.01701690 0.00241758 0.00105737 0.00327895 0.01234143 0.01310104 0.03611886 0.00296059 0.00218808 0.02730445 0.01452075 0.00200148 0.00310636 0.00124836 
0.05178207 0.03857579 0.01686217 0.00240370 0.00106219 0.00328745 0.01240613 0.01279128 0.03613978 0.00296752 0.00217239 0.02779649 0.01427560 0.00201762 0.00304104 0.00124877 
0.05129617 0.03822064 0.01668843 0.00239047 0.00106679 0.00329376 0.01248228 0.01249733 0.03619922 0.00297422 0.00215538 0.02830660 0.01403604 0.00203362 0.00297830 0.00124936 
0.05076382 0.03794037 0.01649590 0.00237792 0.00107118 0.00329795 0.01256989 0.01222026 0.03629582 0.00298079 0.00213714 0.02883333 0.01380317 0.00204940 0.00291866 0.00125013 
0.05018792 0.03773510 0.01628485 0.00236610 0.00107532 0.00330013 0.01266898 0.01196104 0.03642792 0.00298730 0.00211778 0.02937506 0.01357804 0.00206487 0.00286264 0.00125108 
0.04957148 0.03760460 0.01605561 0.00235504 0.00107921 0.00330039 0.01277954 0.01172054 0.03659361 0.00299386 0.00209740 0.02993008 0.01336162 0.00207996 0.00281078 0.00125221 
0.04891763 0.03754837 0.01580853 0.00234477 0.00108285 0.00329886 0.01290155 0.01149955 0.03679071 0.00300056 0.00207614 0.03049656 0.01315480 0.00209460 0.00276358 0.00125352 
0.04822955 0.03756558 0.01554404 0.00233534 0.00108622 0.00329568 0.01303496 0.01129874 0.03701679 0.00300750 0.00205414 0.03107256 0.01295842 0.00210873 0.00272157 0.00125500 
0.04751049 0.03765513 0.01526261 0.00232676 0.00108932 0.00329102 0.01317970 0.01111867 0.03726921 0.00301478 0.00203154 0.03165607 0.01277321 0.00212227 0.00268525 0.00125665 
0.04676374 0.03781562 0.01496476 0.00231906 0.00109213 0.00328505 0.01333568 0.01095980 0.03754511 0.00302251 0.00200853 0.03224498 0.01259985 0.00213519 0.00265512 0.00125846 
0.04599259 0.03804537 0.01465105 0.00231226 0.00109466 0.00327795 0.01350278 0.01082247 0.03784147 0.00303079 0.00198526 0.03283712 0.01243889 0.00214744 0.00263166 0.00126042 
0.04520034 0.03834244 0.01432210 0.00230638 0.00109690 0.00326993 0.01368085 0.01070692 0.03815511 0.00303973 0.00196194 0.03343028 0.01229084 0.00215898 0.00261534 0.00126253 
0.04439029 0.03870465 0.01397857 0.00230144 0.00109884 0.00326121 0.01386970 0.01061328 0.03848272 0.00304943 0.00193875 0.03402217 0.01215610 0.00216979 0.00260662 0.00126477 
0.04356566 0.03912957 0.01362117 0.00229743 0.00110049 0.00325200 0.01406912 0.01054157 0.03882088 0.00306000 0.00191590 0.03461051 0.01203497 0.00217985 0.00260591 0.00126715 
0.04272965 0.03961453 0.01325064 0.00229436 0.00110184 0.00324253 0.01427887 0.01049168 0.03916611 0.00307154 0.00189360 0.03519298 0.01192769 0.00218914 0.00261362 0.00126964 
0.04188539 0.04015667 0.01286779 0.00229222 0.00110289 0.00323304 0.01449866 0.01046344 0.03951490 0.00308415 0.00187205 0.03576725 0.01183441 0.00219768 0.00263013 0.00127224 
0.04103591 0.04075294 0.01247346 0.00229100 0.00110366 0.00322378 0.01472815 0.01045653 0.03986370 0.00309792 0.00185149 0.03633102 0.01175516 0.00220548 0.00265579 0.00127493 
0.04018416 0.04140008 0.01206853 0.00229068 0.00110414 0.00321498 0.01496700 0.01047056 0.04020899 0.00311294 0.00183214 0.03688198 0.01168995 0.00221256 0.00269091 0.00127771 
0.03933298 0.04209470 0.01165392 0.00229123 0.00110434 0.00320689 0.01521479 0.01050504 0.04054731 0.00312931 0.00181421 0.03741790 0.01163865 0.00221895 0.00273578 0.00128056 
0.03848510 0.04283324 0.01123060 0.00229263 0.00110427 0.00319976 0.01547108 0.01055938 0.04087525 0.00314709 0.00179794 0.03793655 0.01160111 0.00222470 0.00279065 0.00128347 
0.03764310 0.04361203 0.01079956 0.00229482 0.00110394 0.00319383 0.01573538 0.01063291 0.04118953 0.00316635 0.00178354 0.03843579 0.01157706 0.00222987 0.00285572 0.00128642 
0.03680946 0.04442728 0.01036183 0.00229777 0.00110336 0.00318934 0.01600715 0.01072488 0.04148700 0.00318718 0.00177124 0.03891354 0.01156619 0.00223452 0.00293116 0.00128939 
0.03598650 0.04527512 0.00991850 0.00230142 0.00110254 0.00318652 0.01628582 0.01083447 0.04176466 0.00320961 0.00176125 0.03936782 0.01156815 0.00223872 0.00301709 0.00129239 
0.03517641 0.04615160 0.00947067 0.00230570 0.00110150 0.00318560 0.01657075 0.01096077 0.04201973 0.00323370 0.00175378 0.03979673 0.01158248 0.00224257 0.00311359 0.00129538 
0.03438121 0.04705271 0.00901946 0.00231056 0.00110026 0.00318679 0.01686130 0.01110285 0.04224961 0.00325949 0.00174905 0.04019848 0.01160873 0.00224617 0.00322070 0.00129836 
0.03360279 0.04797440 0.00856605 0.00231591 0.00109884 0.00319030 0.01715673 0.01125968 0.04245197 0.00328701 0.00174724 0.04057138 0.01164637 0.00224960 0.00333840 0.00130131 
0.03284291 0.04891261 0.00811162 0.00232168 0.00109724 0.00319633 0.01745632 0.01143020 0.04262472 0.00331627 0.00174854 0.04091390 0.01169483 0.00225300 0.00346662 0.00130422 
0.03210313 0.04986329 0.00765739 0.00232778 0.00109550 0.00320505 0.01775924 0.01161331 0.04276606 0.00334728 0.00175313 0.04122462 0.01175354 0.00225647 0.00360526 0.00130708 
0.03138493 0.05082237 0.00720459 0.00233412 0.00109364 0.00321662 0.01806469 0.01180787 0.04287448 0.00338005 0.00176117 0.04150226 0.01182188 0.00226014 0.00375413 0.00130986 
0.03068959 0.05178585 0.00675449 0.00234061 0.00109168 0.00323120 0.01837177 0.01201272 0.04294880 0.00341455 0.00177281 0.04174569 0.01189923 0.00226415 0.00391304 0.00131256 
0.03001830 0.05274975 0.00630835 0.00234715 0.00108964 0.00324892 0.01867959 0.01222666 0.04298814 0.00345076 0.00178819 0.04195394 0.01198496 0.00226864 0.00408170 0.00131516 
0.02937209 0.05371018 0.00586747 0.00235364 0.00108755 0.00326989 0.01898720 0.01244851 0.04299196 0.00348865 0.00180743 0.04212619 0.01207841 0.00227374 0.00425980 0.00131766 
0.02875190 0.05466331 0.00543314 0.00235998 0.00108544 0.00329420 0.01929363 0.01267704 0.04296008 0.00352816 0.00183062 0.04226178 0.01217896 0.00227960 0.00444695 0.00132003 
0.02815852 0.05560543 0.00500668 0.00236607 0.00108333 0.00332194 0.01959788 0.01291104 0.04289265 0.00356924 0.00185786 0.04236022 0.01228598 0.00228636 0.00464274 0.00132227 
0.02759266 0.05653292 0.00458940 0.00237180 0.00108125 0.00335315 0.01989894 0.01314933 0.04279015 0.00361182 0.00188921 0.04242118 0.01239886 0.00229418 0.00484669 0.00132437 
0.02705494 0.05744229 0.00418262 0.00237707 0.00107923 0.00338787 0.02019576 0.01339068 0.04265343 0.00365581 0.00192472 0.04244449 0.01251703 0.00230318 0.00505826 0.00132632 
0.02654587 0.05833020 0.00378765 0.00238178 0.00107730 0.00342610 0.02048728 0.01363395 0.04248366 0.00370113 0.00196442 0.04243017 0.01263991 0.00231353 0.00527689 0.00132811 
0.02606591 0.05919343 0.00340581 0.00238584 0.00107548 0.00346786 0.02077245 0.01387796 0.04228235 0.00374766 0.00200832 0.04237837 0.01276699 0.00232535 0.00550194 0.00132973 
0.02561545 0.06002896 0.00303839 0.00238915 0.00107380 0.00351309 0.02105019 0.01412159 0.04205132 0.00379529 0.00205639 0.04228943 0.01289778 0.00233878 0.00573276 0.00133118 
0.02519483 0.06083391 0.00268670 0.00239163 0.00107229 0.00356177 0.02131944 0.01436375 0.04179270 0.00384391 0.00210861 0.04216383 0.01303183 0.00235394 0.00596862 0.00133244 
0.02480436 0.06160560 0.00235200 0.00239320 0.00107098 0.00361381 0.02157912 0.01460338 0.04150890 0.00389337 0.00216491 0.04200220 0.01316876 0.00237097 0.00620879 0.00133352 
0.02444430 0.06234154 0.00203555 0.00239378 0.00106990 0.00366913 0.02182819 0.01483946 0.04120260 0.00394354 0.00222523 0.04180534 0.01330821 0.00238997 0.00645246 0.00133442 
0.02411492 0.06303944 0.00173859 0.00239331 0.00106906 0.00372762 0.02206561 0.01507102 0.04087674 0.00399427 0.00228945 0.04157416 0.01344989 0.00241104 0.00669881 0.00133512 
0.02381647 0.06369720 0.00146232 0.00239172 0.00106850 0.00378916 0.02229037 0.01529714 0.04053447 0.00404540 0.00235747 0.04130973 0.01359355 0.00243428 0.00694698 0.00133564 
0.02354920 0.06431296 0.00120791 0.00238899 0.00106823 0.00385360 0.02250148 0.01551693 0.04017913 0.00409676 0.00242913 0.04101323 0.01373902 0.00245977 0.00719610 0.00133596 
0.02331339 0.06488505 0.00097649 0.00238506 0.00106828 0.00392079 0.02269800 0.01572957 0.03981425 0.00414820 0.00250426 0.04068596 0.01388617 0.00248757 0.00744524 0.00133609 
0.02310933 0.06541205 0.00076917 0.00237992 0.00106867 0.00399054 0.02287901 0.01593428 0.03944349 0.00419954 0.00258270 0.04032935 0.01403492 0.00251773 0.00769349 0.00133604 
0.02293733 0.06589275 0.00058698 0.00237356 0.00106942 0.00406268 0.02304366 0.01613036 0.03907060 0.00425060 0.00266423 0.03994489 0.01418525 0.00255030 0.00793989 0.00133580 
0.02279778 0.06632618 0.00043094 0.00236598 0.00107055 0.00413700 0.02319112 0.01631713 0.03869944 0.00430121 0.00274863 0.03953419 0.01433721 0.00258529 0.00818349 0.00133538 
0.02269106 0.06671159 0.00030198 0.00235720 0.00107206 0.00421330 0.02332066 0.01649399 0.03833390 0.00435118 0.00283566 0.03909892 0.01449090 0.00262271 0.00842332 0.00133479 
0.02261764 0.06704846 0.00020099 0.00234724 0.00107398 0.00429135 0.02343159 0.01666039 0.03797788 0.00440033 0.00292505 0.03864082 0.01464644 0.00266254 0.00865841 0.00133403 
0.02257801 0.06733652 0.00012879 0.00233616 0.00107631 0.00437094 0.02352329 0.01681584 0.03763525 0.00444849 0.00301654 0.03816170 0.01480403 0.00270476 0.00888780 0.00133310 
0.02257274 0.06757572 0.00008614 0.00232401 0.00107905 0.00445181 0.02359520 0.01695989 0.03730985 0.00449546 0.00310984 0.03766338 0.01496390 0.00274932 0.00911053 0.00133203 
0.02260244 0.06776623 0.00007371 0.00231087 0.00108223 0.00453375 0.02364688 0.01709216 0.03700542 0.00454108 0.00320464 0.03714775 0.01512633 0.00279615 0.00932566 0.00133081 
0.02266777 0.06790845 0.00009213 0.00229682 0.00108583 0.00461651 0.02367794 0.01721231 0.03672556 0.00458517 0.00330062 0.03661670 0.01529161 0.00284516 0.00953225 0.00132945 
0.02276945 0.06800301 0.00014190 0.00228197 0.00108987 0.00469984 0.02368808 0.01732007 0.03647376 0.00462756 0.00339746 0.03607213 0.01546008 0.00289626 0.00972940 0.00132798 
0.02290824 0.06805074 0.00022348 0.00226645 0.00109433 0.00478352 0.02367711 0.01741521 0.03625329 0.00466810 0.00349483 0.03551595 0.01563210 0.00294932 0.00991623 0.00132638 
0.02308495 0.06805268 0.00033722 0.00225038 0.00109921 0.00486730 0.02364490 0.01749753 0.03606725 0.00470661 0.00359236 0.03495003 0.01580803 0.00300420 0.01009189 0.00132469 
0.02330041 0.06801009 0.00048336 0.00223391 0.00110451 0.00495094 0.02359146 0.01756692 0.03591847 0.00474296 0.00368973 0.03437625 0.01598826 0.00306075 0.01025557 0.00132291 
0.02355549 0.06792442 0.00066209 0.00221719 0.00111021 0.00503422 0.02351687 0.01762328 0.03580956 0.00477699 0.00378656 0.03379644 0.01617318 0.00311878 0.01040650 0.00132105 
0.02385108 0.06779728 0.00087346 0.00220040 0.00111630 0.00511692 0.02342131 0.01766655 0.03574280 0.00480859 0.00388249 0.03321237 0.01636316 0.00317811 0.01054396 0.00131912 
0.02418807 0.06763049 0.00111745 0.00218373 0.00112277 0.00519882 0.02330507 0.01769674 0.03572021 0.00483763 0.00397718 0.03262580 0.01655857 0.00323852 0.01066727 0.00131715 
0.02456736 0.06742602 0.00139390 0.00216735 0.00112959 0.00527971 0.02316854 0.01771388 0.03574347 0.00486399 0.00407025 0.03203838 0.01675975 0.00329981 0.01077584 0.00131513 
0.02498980 0.06718600 0.00170257 0.00215148 0.00113675 0.00535941 0.02301220 0.01771802 0.03581395 0.00488758 0.00416136 0.03145172 0.01696704 0.00336172 0.01086909 0.00131309 
0.02545624 0.06691270 0.00204311 0.00213632 0.00114421 0.00543773 0.02283665 0.01770929 0.03593264 0.00490832 0.00425014 0.03086734 0.01718071 0.00342402 0.01094654 0.00131103 
0.02596748 0.06660851 0.00241504 0.00212208 0.00115197 0.00551450 0.02264258 0.01768780 0.03610022 0.00492613 0.00433624 0.03028669 0.01740101 0.00348643 0.01100776 0.00130898 
0.02652426 0.06627597 0.00281779 0.00210899 0.00115997 0.00558957 0.02243076 0.01765373 0.03631698 0.00494094 0.00441934 0.02971110 0.01762815 0.00354870 0.01105240 0.00130693 
0.02712722 0.06591770 0.00325068 0.00209726 0.00116821 0.00566278 0.02220207 0.01760727 0.03658287 0.00495272 0.00449909 0.02914185 0.01786225 0.00361054 0.01108017 0.00130491 
0.02777694 0.06553642 0.00371289 0.00208713 0.00117663 0.00573402 0.02195748 0.01754864 0.03689747 0.00496143 0.00457518 0.02858008 0.01810340 0.00367167 0.01109088 0.00130293 
0.02847387 0.06513491 0.00420350 0.00207881 0.00118522 0.00580316 0.02169804 0.01747810 0.03726001 0.00496706 0.00464729 0.02802685 0.01835162 0.00373180 0.01108439 0.00130099 
0.02921834 0.06471604 0.00472149 0.00207252 0.00119392 0.00587012 0.02142488 0.01739592 0.03766938 0.00496961 0.00471514 0.02748311 0.01860683 0.00379063 0.01106065 0.00129911 
0.03001054 0.06428270 0.00526572 0.00206849 0.00120271 0.00593479 0.02113921 0.01730239 0.03812413 0.00496908 0.00477845 0.02694969 0.01886889 0.00384786 0.01101971 0.00129730 
0.03085050 0.06383782 0.00583494 0.00206692 0.00121154 0.00599712 0.02084231 0.01719784 0.03862248 0.00496550 0.00483696 0.02642734 0.01913759 0.00390321 0.01096167 0.00129556 
0.03173807 0.06338435 0.00642779 0.00206803 0.00122038 0.00605706 0.02053551 0.01708261 0.03916236 0.00495892 0.00489043 0.02591668 0.01941261 0.00395636 0.01088673 0.00129391 
0.03267292 0.06292525 0.00704281 0.00207201 0.00122917 0.00611455 0.02022023 0.01695707 0.03974139 0.00494940 0.00493863 0.02541822 0.01969354 0.00400704 0.01079518 0.00129236 
0.03365451 0.06246343 0.00767842 0.00207905 0.00123788 0.00616959 0.01989790 0.01682161 0.04035694 0.00493701 0.00498137 0.02493240 0.01997989 0.00405495 0.01068738 0.00129091 
0.03468209 0.06200180 0.00833298 0.00208933 0.00124647 0.00622215 0.01957002 0.01667664 0.04100614 0.00492183 0.00501848 0.02445952 0.02027106 0.00409982 0.01056377 0.00128957 
0.03575466 0.06154322 0.00900472 0.00210300 0.00125489 0.00627224 0.01923813 0.01652259 0.04168588 0.00490397 0.00504979 0.02399980 0.02056638 0.00414138 0.01042488 0.00128834 
0.03687101 0.06109047 0.00969179 0.00212021 0.00126309 0.00631987 0.01890377 0.01635991 0.04239290 0.00488354 0.00507519 0.02355336 0.02086506 0.00417936 0.01027131 0.00128724 
0.03802965 0.06064628 0.01039227 0.00214109 0.00127104 0.00636507 0.01856853 0.01618909 0.04312373 0.00486066 0.00509456 0.02312024 0.02116622 0.00421352 0.01010374 0.00128626 
0.03922886 0.06021326 0.01110415 0.00216575 0.00127869 0.00640787 0.01823399 0.01601062 0.04387483 0.00483547 0.00510783 0.02270038 0.02146890 0.00424363 0.00992292 0.00128540 
0.04046662 0.05979394 0.01182534 0.00219428 0.00128599 0.00644832 0.01790174 0.01582504 0.04464250 0.00480813 0.00511496 0.02229367 0.02177203 0.00426946 0.00972968 0.00128468 
0.04174069 0.05939071 0.01255370 0.00222676 0.00129291 0.00648647 0.01757336 0.01563289 0.04542302 0.00477879 0.00511591 0.02189989 0.02207449 0.00429083 0.00952489 0.00128409 
0.04304850 0.05900586 0.01328702 0.00226324 0.00129941 0.00652238 0.01725044 0.01543474 0.04621263 0.00474763 0.00511069 0.02151879 0.02237504 0.00430754 0.00930951 0.00128363 
0.04438726 0.05864150 0.01402306 0.00230373 0.00130543 0.00655613 0.01693451 0.01523121 0.04700755 0.00471481 0.00509933 0.02115005 0.02267239 0.00431943 0.00908455 0.00128330 
0.04575388 0.05829961 0.01475952 0.00234825 0.00131096 0.00658777 0.01662711 0.01502292 0.04780406 0.00468054 0.00508189 0.02079330 0.02296516 0.00432637 0.00885107 0.00128311 
0.04714500 0.05798199 0.01549406 0.00239676 0.00131594 0.00661739 0.01632970 0.01481052 0.04859848 0.00464501 0.00505846 0.02044814 0.02325193 0.00432824 0.00861016 0.00128305 
0.04855702 0.05769028 0.01622433 0.00244924 0.00132034 0.00664505 0.01604374 0.01459470 0.04938725 0.00460840 0.00502915 0.02011413 0.02353122 0.00432494 0.00836298 0.00128311 
0.04998607 0.05742593 0.01694796 0.00250561 0.00132413 0.00667085 0.01577059 0.01437619 0.05016694 0.00457094 0.00499410 0.01979081 0.02380150 0.00431641 0.00811072 0.00128330 
0.05142805 0.05719019 0.01766258 0.00256577 0.00132729 0.00669486 0.01551160 0.01415571 0.05093425 0.00453282 0.00495346 0.01947770 0.02406120 0.00430259 0.00785458 0.00128361 
0.05287860 0.05698413 0.01836580 0.00262961 0.00132977 0.00671716 0.01526800 0.01393406 0.05168609 0.00449425 0.00490744 0.01917433 0.02430875 0.00428347 0.00759580 0.00128405 
0.05433318 0.05680858 0.01905527 0.00269698 0.00133156 0.00673781 0.01504099 0.01371202 0.05241959 0.00445546 0.00485625 0.01888021 0.02454253 0.00425905 0.00733564 0.00128459 
0.05578702 0.05666420 0.01972865 0.00276772 0.00133263 0.00675690 0.01483168 0.01349045 0.05313210 0.00441664 0.00480012 0.01859488 0.02476095 0.00422937 0.00707535 0.00128524 
0.05723519 0.05655143 0.02038363 0.00284164 0.00133296 0.00677448 0.01464108 0.01327020 0.05382123 0.00437801 0.00473931 0.01831789 0.02496242 0.00419447 0.00681620 0.00128600 
0.05867258 0.05647047 0.02101795 0.00291852 0.00133253 0.00679062 0.01447012 0.01305217 0.05448488 0.00433978 0.00467410 0.01804883 0.02514535 0.00415445 0.00655947 0.00128685 
0.06009396 0.05642134 0.02162939 0.00299813 0.00133133 0.00680538 0.01431964 0.01283728 0.05512122 0.00430216 0.00460479 0.01778731 0.02530821 0.00410942 0.00630638 0.00128780 
0.06149395 0.05640381 0.02221582 0.00308022 0.00132934 0.00681881 0.01419039 0.01262648 0.05572877 0.00426533 0.00453170 0.01753299 0.02544950 0.00405950 0.00605819 0.00128883 
0.06286712 0.05641746 0.02277515 0.00316452 0.00132656 0.00683093 0.01408300 0.01242074 0.05630633 0.00422951 0.00445516 0.01728557 0.02556778 0.00400486 0.00581611 0.00128994 
0.06420796 0.05646166 0.02330539 0.00325073 0.00132299 0.00684180 0.01399801 0.01222108 0.05685305 0.00419487 0.00437552 0.01704482 0.02566169 0.00394569 0.00558129 0.00129112 
0.06551092 0.05653554 0.02380463 0.00333855 0.00131861 0.00685142 0.01393585 0.01202850 0.05736841 0.00416159 0.00429315 0.01681055 0.02572994 0.00388217 0.00535490 0.00129236 
0.06677044 0.05663808 0.02427107 0.00342766 0.00131343 0.00685982 0.01389685 0.01184405 0.05785224 0.00412986 0.00420840 0.01658266 0.02577133 0.00381456 0.00513803 0.00129367 
0.06798099 0.05676800 0.02470302 0.00351773 0.00130746 0.00686700 0.01388123 0.01166878 0.05830468 0.00409982 0.00412168 0.01636110 0.02578479 0.00374308 0.00493171 0.00129503 
0.06913711 0.05692389 0.02509889 0.00360841 0.00130070 0.00687296 0.01388908 0.01150377 0.05872622 0.00407163 0.00403335 0.01614590 0.02576933 0.00366803 0.00473695 0.00129643 
0.07023339 0.05710412 0.02545723 0.00369935 0.00129317 0.00687769 0.01392042 0.01135008 0.05911767 0.00404543 0.00394383 0.01593716 0.02572412 0.00358967 0.00455466 0.00129787 
0.07126458 0.05730691 0.02577672 0.00379019 0.00128488 0.00688116 0.01397514 0.01120881 0.05948015 0.00402136 0.00385350 0.01573506 0.02564845 0.00350831 0.00438571 0.00129935 
0.07222553 0.05753030 0.02605617 0.00388059 0.00127584 0.00688334 0.01405302 0.01108104 0.05981509 0.00399951 0.00376276 0.01553986 0.02554175 0.00342428 0.00423088 0.00130086 
0.07311131 0.05777220 0.02629453 0.00397016 0.00126608 0.00688420 0.01415376 0.01096784 0.06012421 0.00398000 0.00367202 0.01535190 0.02540362 0.00333790 0.00409089 0.00130238 
0.07391719 0.05803037 0.02649092 0.00405856 0.00125562 0.00688368 0.01427693 0.01087029 0.06040949 0.00396291 0.00358166 0.01517159 0.02523379 0.00324953 0.00396636 0.00130393 
0.07463866 0.05830246 0.02664459 0.00414541 0.00124449 0.00688174 0.01442202 0.01078943 0.06067314 0.00394831 0.00349209 0.01499941 0.02503219 0.00315950 0.00385785 0.00130548 
0.07527152 0.05858599 0.02675497 0.00423038 0.00123271 0.00687830 0.01458842 0.01072632 0.06091764 0.00393627 0.00340367 0.01483594 0.02479890 0.00306819 0.00376580 0.00130705 
0.07581184 0.05887841 0.02682163 0.00431311 0.00122033 0.00687331 0.01477543 0.01068194 0.06114563 0.00392683 0.00331680 0.01468180 0.02453419 0.00297595 0.00369058 0.00130862 
0.07625602 0.05917708 0.02684431 0.00439327 0.00120737 0.00686668 0.01498226 0.01065728 0.06135994 0.00392002 0.00323182 0.01453770 0.02423849 0.00288317 0.00363248 0.00131018 
0.07660082 0.05947929 0.02682293 0.00447054 0.00119387 0.00685834 0.01520804 0.01065328 0.06156353 0.00391584 0.00314910 0.01440439 0.02391241 0.00279021 0.00359166 0.00131175 
0.07684339 0.05978230 0.02675755 0.00454461 0.00117987 0.00684821 0.01545182 0.01067082 0.06175948 0.00391430 0.00306898 0.01428269 0.02355675 0.00269744 0.00356822 0.00131331 
0.07698126 0.06008333 0.02664842 0.00461519 0.00116542 0.00683621 0.01571257 0.01071075 0.06195097 0.00391538 0.00299176 0.01417346 0.02317249 0.00260523 0.00356214 0.00131486 
0.07701239 0.06037959 0.02649594 0.00468201 0.00115056 0.00682224 0.01598921 0.01077384 0.06214119 0.00391904 0.00291777 0.01407762 0.02276077 0.00251395 0.00357333 0.00131640 
0.07693519 0.06066831 0.02630068 0.00474480 0.00113533 0.00680623 0.01628058 0.01086081 0.06233339 0.00392525 0.00284729 0.01399611 0.02232291 0.00242395 0.00360157 0.00131793 
0.07674852 0.06094673 0.02606337 0.00480335 0.00111979 0.00678808 0.01658548 0.01097229 0.06253077 0.00393393 0.00278057 0.01392988 0.02186039 0.00233559 0.00364658 0.00131945 
0.07645170 0.06121212 0.02578490 0.00485746 0.00110398 0.00676772 0.01690265 0.01110885 0.06273650 0.00394502 0.00271787 0.01387993 0.02137485 0.00224920 0.00370797 0.00132095 
0.07604455 0.06146183 0.02546631 0.00490693 0.00108795 0.00674506 0.01723079 0.01127098 0.06295366 0.00395842 0.00265942 0.01384725 0.02086809 0.00216511 0.00378526 0.00132244 
0.07552739 0.06169328 0.02510880 0.00495161 0.00107176 0.00672003 0.01756855 0.01145904 0.06318521 0.00397403 0.00260540 0.01383283 0.02034204 0.00208363 0.00387790 0.00132391 
0.07490102 0.06190398 0.02471369 0.00499139 0.00105546 0.00669256 0.01791456 0.01167334 0.06343397 0.00399173 0.00255599 0.01383765 0.01979878 0.00200507 0.00398524 0.00132537 
0.07416675 0.06209153 0.02428248 0.00502616 0.00103910 0.00666258 0.01826743 0.01191404 0.06370257 0.00401139 0.00251134 0.01386267 0.01924050 0.00192969 0.00410655 0.00132681 
0.07332641 0.06225370 0.02381676 0.00505586 0.00102273 0.00663003 0.01862573 0.01218123 0.06399346 0.00403289 0.00247157 0.01390882 0.01866948 0.00185776 0.00424103 0.00132825 
0.07238231 0.06238835 0.02331827 0.00508045 0.00100641 0.00659487 0.01898805 0.01247487 0.06430881 0.00405606 0.00243678 0.01397696 0.01808814 0.00178953 0.00438782 0.00132966 
0.07133728 0.06249353 0.02278886 0.00509992 0.00099020 0.00655706 0.01935293 0.01279479 0.06465056 0.00408075 0.00240705 0.01406795 0.01749895 0.00172522 0.00454597 0.00133107 
0.07019463 0.06256744 0.02223049 0.00511431 0.00097414 0.00651656 0.01971895 0.01314071 0.06502035 0.00410680 0.00238240 0.01418253 0.01690444 0.00166502 0.00471451 0.00133247 
0.06895815 0.06260846 0.02164522 0.00512366 0.00095830 0.00647336 0.02008467 0.01351222 0.06541951 0.00413401 0.00236287 0.01432140 0.01630723 0.00160910 0.00489236 0.00133386 
0.06763212 0.06261517 0.02103520 0.00512807 0.00094272 0.00642745 0.02044866 0.01390878 0.06584905 0.00416223 0.00234843 0.01448517 0.01570994 0.00155763 0.00507844 0.00133524 
0.06622126 0.06258634 0.02040267 0.00512764 0.00092746 0.00637883 0.02080952 0.01432971 0.06630961 0.00419124 0.00233906 0.01467435 0.01511522 0.00151074 0.00527162 0.00133661 
0.06473071 0.06252098 0.01974992 0.00512252 0.00091257 0.00632753 0.02116586 0.01477422 0.06680149 0.00422087 0.00233468 0.01488936 0.01452572 0.00146851 0.00547071 0.00133798 
0.06316607 0.06241828 0.01907933 0.00511289 0.00089809 0.00627358 0.02151633 0.01524135 0.06732461 0.00425091 0.00233522 0.01513049 0.01394410 0.00143104 0.00567453 0.00133935 
0.06153328 0.06227769 0.01839332 0.00509894 0.00088408 0.00621701 0.02185960 0.01573002 0.06787850 0.00428116 0.00234056 0.01539793 0.01337294 0.00139837 0.00588184 0.00134071 
0.05983869 0.06209888 0.01769435 0.00508090 0.00087059 0.00615790 0.02219438 0.01623903 0.06846230 0.00431142 0.00235056 0.01569173 0.01281482 0.00137054 0.00609141 0.00134207 
0.05808898 0.06188176 0.01698490 0.00505903 0.00085766 0.00609630 0.02251942 0.01676703 0.06907477 0.00434148 0.00236506 0.01601183 0.01227223 0.00134754 0.00630201 0.00134343 
0.05629112 0.06162648 0.01626751 0.00503358 0.00084532 0.00603232 0.02283353 0.01731254 0.06971427 0.00437115 0.00238389 0.01635800 0.01174758 0.00132936 0.00651240 0.00134479 
0.05445240 0.06133342 0.01554468 0.00500487 0.00083363 0.00596604 0.02313555 0.01787395 0.07037877 0.00440020 0.00240683 0.01672989 0.01124318 0.00131594 0.00672135 0.00134614 
0.05258031 0.06100323 0.01481895 0.00497319 0.00082262 0.00589758 0.02342438 0.01844953 0.07106588 0.00442845 0.00243366 0.01712701 0.01076123 0.00130723 0.00692764 0.00134750 
0.05068258 0.06063678 0.01409283 0.00493888 0.00081232 0.00582706 0.02369899 0.01903744 0.07177279 0.00445570 0.00246416 0.01754869 0.01030380 0.00130313 0.00713007 0.00134886 
0.04876713 0.06023517 0.01336881 0.00490227 0.00080278 0.00575463 0.02395840 0.01963570 0.07249640 0.00448174 0.00249805 0.01799415 0.00987283 0.00130353 0.00732749 0.00135022 
0.04684198 0.05979975 0.01264938 0.00486374 0.00079400 0.00568044 0.02420169 0.02024225 0.07323320 0.00450640 0.00253507 0.01846243 0.00947008 0.00130829 0.00751877 0.00135157 
0.04491529 0.05933209 0.01193696 0.00482363 0.00078604 0.00560465 0.02442801 0.02085490 0.07397940 0.00452947 0.00257494 0.01895243 0.00909717 0.00131726 0.00770282 0.00135293 
0.04299525 0.05883399 0.01123393 0.00478232 0.00077889 0.00552743 0.02463659 0.02147141 0.07473090 0.00455080 0.00261735 0.01946290 0.00875550 0.00133028 0.00787861 0.00135428 
0.04109009 0.05830744 0.01054263 0.00474019 0.00077259 0.00544896 0.02482672 0.02208941 0.07548332 0.00457020 0.00266200 0.01999246 0.00844632 0.00134714 0.00804515 0.00135563 
0.03920804 0.05775466 0.00986531 0.00469761 0.00076716 0.00536944 0.02499777 0.02270649 0.07623202 0.00458752 0.00270858 0.02053957 0.00817066 0.00136766 0.00820152 0.00135696 
0.03735723 0.05717804 0.00920416 0.00465496 0.00076260 0.00528907 0.02514918 0.02332017 0.07697216 0.00460261 0.00275677 0.02110255 0.00792936 0.00139161 0.00834687 0.00135830 
0.03554572 0.05658015 0.00856132 0.00461262 0.00075892 0.00520805 0.02528047 0.02392790 0.07769869 0.00461531 0.00280623 0.02167962 0.00772302 0.00141876 0.00848039 0.00135962 
0.03378145 0.05596373 0.00793879 0.00457095 0.00075612 0.00512659 0.02539124 0.02452712 0.07840643 0.00462550 0.00285665 0.02226885 0.00755206 0.00144887 0.00860139 0.00136092 
0.03207215 0.05533168 0.00733853 0.00453031 0.00075422 0.00504492 0.02548117 0.02511522 0.07909005 0.00463306 0.00290770 0.02286822 0.00741664 0.00148171 0.00870921 0.00136221 
0.03042535 0.05468701 0.00676236 0.00449105 0.00075319 0.00496325 0.02555001 0.02568959 0.07974416 0.00463788 0.00295904 0.02347558 0.00731674 0.00151700 0.00880331 0.00136349 
0.02884835 0.05403288 0.00621202 0.00445350 0.00075305 0.00488179 0.02559759 0.02624761 0.08036331 0.00463986 0.00301036 0.02408872 0.00725209 0.00155449 0.00888321 0.00136473 
0.02734812 0.05337252 0.00568914 0.00441799 0.00075378 0.00480079 0.02562385 0.02678667 0.08094204 0.00463893 0.00306135 0.02470531 0.00722221 0.00159392 0.00894852 0.00136596 
0.02593135 0.05270927 0.00519524 0.00438480 0.00075535 0.00472045 0.02562876 0.02730420 0.08147494 0.00463501 0.00311168 0.02532299 0.00722639 0.00163502 0.00899895 0.00136715 
0.02460435 0.05204650 0.00473170 0.00435423 0.00075776 0.00464100 0.02561241 0.02779766 0.08195665 0.00462806 0.00316106 0.02593932 0.00726373 0.00167752 0.00903428 0.00136831 
0.02337305 0.05138767 0.00429982 0.00432653 0.00076099 0.00456265 0.02557495 0.02826457 0.08238193 0.00461802 0.00320920 0.02655182 0.00733310 0.00172116 0.00905438 0.00136943 
0.02224297 0.05073624 0.00390074 0.00430193 0.00076500 0.00448561 0.02551661 0.02870251 0.08274569 0.00460488 0.00325582 0.02715799 0.00743318 0.00176568 0.00905924 0.00137051 
0.02121916 0.05009566 0.00353551 0.00428065 0.00076977 0.00441011 0.02543769 0.02910917 0.08304302 0.00458862 0.00330066 0.02775530 0.00756248 0.00181082 0.00904890 0.00137155 
0.02030622 0.04946941 0.00320502 0.00426286 0.00077526 0.00433632 0.02533858 0.02948231 0.08326924 0.00456926 0.00334346 0.02834126 0.00771929 0.00185633 0.00902351 0.00137254 
0.01950825 0.04886089 0.00291007 0.00424873 0.00078144 0.00426445 0.02521972 0.02981982 0.08341993 0.00454682 0.00338400 0.02891334 0.00790175 0.00190197 0.00898330 0.00137347 
0.01882884 0.04827348 0.00265129 0.00423836 0.00078827 0.00419469 0.02508165 0.03011970 0.08349098 0.00452133 0.00342205 0.02946909 0.00810785 0.00194751 0.00892859 0.00137435 
0.01827104 0.04771047 0.00242923 0.00423187 0.00079571 0.00412719 0.02492494 0.03038011 0.08347860 0.00449284 0.00345743 0.03000609 0.00833544 0.00199273 0.00885978 0.00137517 
0.01783733 0.04717506 0.00224426 0.00422931 0.00080371 0.00406214 0.02475026 0.03059935 0.08337935 0.00446142 0.00348996 0.03052197 0.00858223 0.00203740 0.00877734 0.00137592 
0.01752966 0.04667034 0.00209668 0.00423072 0.00081223 0.00399967 0.02455832 0.03077588 0.08319020 0.00442716 0.00351948 0.03101446 0.00884581 0.00208135 0.00868183 0.00137661 
0.01734939 0.04619928 0.00198662 0.00423610 0.00082121 0.00393993 0.02434989 0.03090834 0.08290855 0.00439016 0.00354587 0.03148138 0.00912370 0.00212437 0.00857388 0.00137723 
0.01729728 0.04576468 0.00191411 0.00424542 0.00083061 0.00388304 0.02412581 0.03099556 0.08253221 0.00435053 0.00356900 0.03192063 0.00941333 0.00216631 0.00845417 0.00137777 
0.01737353 0.04536920 0.00187905 0.00425862 0.00084037 0.00382911 0.02388697 0.03103656 0.08205948 0.00430839 0.00358880 0.03233027 0.00971206 0.00220700 0.00832348 0.00137823 
0.01757773 0.04501530 0.00188121 0.00427561 0.00085044 0.00377825 0.02363428 0.03103056 0.08148914 0.00426390 0.00360520 0.03270848 0.01001723 0.00224631 0.00818260 0.00137862 
0.01790888 0.04470526 0.00192027 0.00429628 0.00086077 0.00373053 0.02336872 0.03097700 0.08082047 0.00421719 0.00361816 0.03305356 0.01032613 0.00228411 0.00803241 0.00137892 
0.01836542 0.04444114 0.00199576 0.00432048 0.00087129 0.00368602 0.02309131 0.03087552 0.08005325 0.00416845 0.00362766 0.03336401 0.01063607 0.00232030 0.00787383 0.00137915 
0.01894518 0.04422478 0.00210714 0.00434802 0.00088195 0.00364477 0.02280308 0.03072601 0.07918780 0.00411785 0.00363370 0.03363847 0.01094437 0.00235479 0.00770781 0.00137928 
0.01964544 0.04405780 0.00225372 0.00437872 0.00089269 0.00360683 0.02250513 0.03052857 0.07822496 0.00406558 0.00363632 0.03387577 0.01124836 0.00238751 0.00753534 0.00137933 
0.02046291 0.04394155 0.00243474 0.00441234 0.00090345 0.00357222 0.02219855 0.03028352 0.07716610 0.00401184 0.00363556 0.03407493 0.01154546 0.00241839 0.00735744 0.00137929 
0.02139376 0.04387716 0.00264932 0.00444864 0.00091419 0.00354093 0.02188446 0.02999142 0.07601312 0.00395685 0.00363150 0.03423515 0.01183313 0.00244740 0.00717515 0.00137916 
0.02243363 0.04386547 0.00289649 0.00448735 0.00092484 0.00351297 0.02156399 0.02965308 0.07476844 0.00390082 0.00362422 0.03435585 0.01210894 0.00247451 0.00698954 0.00137894 
0.02357767 0.04390707 0.00317519 0.00452817 0.00093534 0.00348832 0.02123830 0.02926951 0.07343501 0.00384397 0.00361385 0.03443664 0.01237054 0.00249972 0.00680168 0.00137863 
0.02482053 0.04400228 0.00348427 0.00457082 0.00094566 0.00346693 0.02090853 0.02884196 0.07201627 0.00378654 0.00360051 0.03447734 0.01261573 0.00252302 0.00661263 0.00137824 
0.02615641 0.04415115 0.00382249 0.00461496 0.00095572 0.00344876 0.02057584 0.02837190 0.07051617 0.00372877 0.00358435 0.03447799 0.01284242 0.00254445 0.00642347 0.00137775 
0.02757908 0.04435344 0.00418855 0.00466027 0.00096549 0.00343374 0.02024135 0.02786102 0.06893912 0.00367090 0.00356554 0.03443884 0.01304871 0.00256404 0.00623525 0.00137717 
0.02908189 0.04460865 0.00458105 0.00470640 0.00097492 0.00342181 0.01990621 0.02731123 0.06729000 0.00361316 0.00354425 0.03436034 0.01323282 0.00258182 0.00604902 0.00137651 
0.03065784 0.04491601 0.00499854 0.00475301 0.00098396 0.00341287 0.01957151 0.02672461 0.06557410 0.00355581 0.00352069 0.03424316 0.01339319 0.00259787 0.00586579 0.00137576 
0.03229959 0.04527447 0.00543950 0.00479975 0.00099256 0.00340683 0.01923836 0.02610348 0.06379714 0.00349909 0.00349506 0.03408817 0.01352842 0.00261225 0.00568657 0.00137492 
0.03399949 0.04568273 0.00590235 0.00484625 0.00100070 0.00340359 0.01890780 0.02545030 0.06196519 0.00344323 0.00346757 0.03389644 0.01363733 0.00262504 0.00551230 0.00137400 
0.03574961 0.04613921 0.00638546 0.00489217 0.00100834 0.00340301 0.01858086 0.02476774 0.06008468 0.00338849 0.00343844 0.03366924 0.01371893 0.00263632 0.00534392 0.00137300 
0.03754180 0.04664211 0.00688714 0.00493716 0.00101544 0.00340499 0.01825854 0.02405860 0.05816235 0.00333508 0.00340792 0.03340802 0.01377246 0.00264620 0.00518228 0.00137192 
0.03936774 0.04718938 0.00740565 0.00498086 0.00102197 0.00340940 0.01794175 0.02332583 0.05620521 0.00328325 0.00337623 0.03311442 0.01379739 0.00265478 0.00502822 0.00137076 
0.04121891 0.04777872 0.00793924 0.00502295 0.00102792 0.00341608 0.01763141 0.02257252 0.05422053 0.00323322 0.00334362 0.03279023 0.01379338 0.00266215 0.00488250 0.00136954 
0.04308673 0.04840765 0.00848609 0.00506309 0.00103325 0.00342491 0.01732833 0.02180187 0.05221575 0.00318519 0.00331032 0.03243742 0.01376035 0.00266843 0.00474584 0.00136824 
0.04496250 0.04907345 0.00904438 0.00510097 0.00103796 0.00343574 0.01703331 0.02101718 0.05019848 0.00313937 0.00327657 0.03205809 0.01369844 0.00267374 0.00461888 0.00136687 
0.04683752 0.04977324 0.00961223 0.00513629 0.00104203 0.00344841 0.01674706 0.02022182 0.04817648 0.00309595 0.00324262 0.03165447 0.01360801 0.00267818 0.00450220 0.00136543 
0.04870308 0.05050394 0.01018778 0.00516876 0.00104546 0.00346278 0.01647022 0.01941925 0.04615754 0.00305512 0.00320868 0.03122893 0.01348965 0.00268187 0.00439632 0.00136394 
0.05055055 0.05126234 0.01076912 0.00519813 0.00104823 0.00347869 0.01620337 0.01861294 0.04414952 0.00301704 0.00317500 0.03078393 0.01334418 0.00268493 0.00430168 0.00136239 
0.05237134 0.05204507 0.01135436 0.00522414 0.00105035 0.00349600 0.01594702 0.01780643 0.04216025 0.00298185 0.00314178 0.03032201 0.01317263 0.00268745 0.00421864 0.00136078 
0.05415705 0.05284864 0.01194159 0.00524658 0.00105183 0.00351454 0.01570160 0.01700322 0.04019754 0.00294971 0.00310923 0.02984580 0.01297622 0.00268956 0.00414751 0.00135912 
0.05589942 0.05366945 0.01252889 0.00526526 0.00105267 0.00353417 0.01546745 0.01620683 0.03826909 0.00292071 0.00307756 0.02935799 0.01275641 0.00269135 0.00408849 0.00135741 
0.05759039 0.05450384 0.01311436 0.00527999 0.00105288 0.00355474 0.01524484 0.01542076 0.03638245 0.00289498 0.00304693 0.02886129 0.01251481 0.00269292 0.00404172 0.00135566 
0.05922218 0.05534805 0.01369611 0.00529063 0.00105248 0.00357611 0.01503396 0.01464844 0.03454504 0.00287258 0.00301753 0.02835846 0.01225325 0.00269436 0.00400727 0.00135387 
0.06078727 0.05619829 0.01427225 0.00529707 0.00105150 0.00359814 0.01483492 0.01389324 0.03276402 0.00285358 0.00298951 0.02785225 0.01197369 0.00269576 0.00398513 0.00135203 
0.06227847 0.05705074 0.01484094 0.00529921 0.00104995 0.00362068 0.01464773 0.01315845 0.03104634 0.00283802 0.00296300 0.02734541 0.01167826 0.00269718 0.00397519 0.00135017 
0.06368893 0.05790158 0.01540033 0.00529698 0.00104787 0.00364361 0.01447233 0.01244725 0.02939861 0.00282594 0.00293812 0.02684066 0.01136923 0.00269871 0.00397729 0.00134827 
0.06501221 0.05874699 0.01594862 0.00529036 0.00104528 0.00366680 0.01430856 0.01176272 0.02782717 0.00281732 0.00291498 0.02634068 0.01104900 0.00270039 0.00399120 0.00134635 
0.06624226 0.05958318 0.01648404 0.00527933 0.00104221 0.00369014 0.01415620 0.01110778 0.02633797 0.00281215 0.00289365 0.02584810 0.01072006 0.00270227 0.00401660 0.00134440 
0.06737348 0.06040642 0.01700486 0.00526392 0.00103871 0.00371350 0.01401494 0.01048522 0.02493655 0.00281040 0.00287421 0.02536547 0.01038500 0.00270440 0.00405311 0.00134243 
0.06840076 0.06121303 0.01750939 0.00524418 0.00103481 0.00373679 0.01388438 0.00989764 0.02362808 0.00281200 0.00285668 0.02489525 0.01004648 0.00270681 0.00410029 0.00134044 
0.06931946 0.06199943 0.01799601 0.00522018 0.00103055 0.00375990 0.01376407 0.00934749 0.02241725 0.00281687 0.00284109 0.02443980 0.00970720 0.00270950 0.00415764 0.00133843 
0.07012545 0.06276212 0.01846312 0.00519202 0.00102598 0.00378273 0.01365345 0.00883700 0.02130827 0.00282491 0.00282745 0.02400136 0.00936993 0.00271250 0.00422457 0.00133642 
0.07081514 0.06349776 0.01890920 0.00515984 0.00102113 0.00380521 0.01355192 0.00836821 0.02030489 0.00283600 0.00281572 0.02358207 0.00903741 0.00271580 0.00430049 0.00133439 
0.07138549 0.06420308 0.01933279 0.00512379 0.00101606 0.00382724 0.01345882 0.00794294 0.01941031 0.00285000 0.00280587 0.02318389 0.00871240 0.00271939 0.00438471 0.00133235 
0.07183403 0.06487502 0.01973250 0.00508404 0.00101081 0.00384877 0.01337340 0.00756279 0.01862723 0.00286674 0.00279785 0.02280865 0.00839764 0.00272324 0.00447651 0.00133032 
0.07215884 0.06551062 0.02010701 0.00504080 0.00100543 0.00386971 0.01329487 0.00722912 0.01795779 0.00288606 0.00279156 0.02245802 0.00809583 0.00272733 0.00457516 0.00132827 
0.07235859 0.06610714 0.02045507 0.00499428 0.00099995 0.00389002 0.01322241 0.00694306 0.01740359 0.00290775 0.00278692 0.02213352 0.00780957 0.00273162 0.00467984 0.00132623 
0.07243253 0.06666200 0.02077551 0.00494473 0.00099444 0.00390963 0.01315513 0.00670549 0.01696567 0.00293161 0.00278380 0.02183645 0.00754144 0.00273605 0.00478974 0.00132420 
0.07238052 0.06717279 0.02106727 0.00489240 0.00098894 0.00392850 0.01309212 0.00651704 0.01664451 0.00295741 0.00278207 0.02156797 0.00729388 0.00274057 0.00490401 0.00132216 
0.07220297 0.06763735 0.02132935 0.00483755 0.00098349 0.00394658 0.01303244 0.00637810 0.01644001 0.00298492 0.00278159 0.02132904 0.00706922 0.00274511 0.00502178 0.00132014 
0.07190089 0.06805369 0.02156085 0.00478048 0.00097814 0.00396384 0.01297511 0.00628879 0.01635153 0.00301388 0.00278218 0.02112042 0.00686968 0.00274961 0.00514217 0.00131812 
0.07147587 0.06842003 0.02176096 0.00472148 0.00097293 0.00398023 0.01291917 0.00624898 0.01637786 0.00304404 0.00278369 0.02094270 0.00669731 0.00275398 0.00526430 0.00131612 
0.07093005 0.06873484 0.02192899 0.00466085 0.00096789 0.00399574 0.01286362 0.00625832 0.01651726 0.00307513 0.00278590 0.02079626 0.00655401 0.00275814 0.00538727 0.00131412 
0.07026614 0.06899678 0.02206433 0.00459890 0.00096309 0.00401033 0.01280749 0.00631619 0.01676744 0.00310686 0.00278864 0.02068128 0.00644151 0.00276201 0.00551019 0.00131215 
0.06948738 0.06920474 0.02216649 0.00453596 0.00095854 0.00402398 0.01274980 0.00642173 0.01712559 0.00313897 0.00279170 0.02059779 0.00636133 0.00276550 0.00563218 0.00131019 
0.06859754 0.06935785 0.02223507 0.00447233 0.00095428 0.00403666 0.01268960 0.00657384 0.01758842 0.00317117 0.00279486 0.02054558 0.00631482 0.00276851 0.00575237 0.00130824 
0.06760088 0.06945546 0.02226979 0.00440835 0.00095036 0.00404836 0.01262597 0.00677120 0.01815214 0.00320317 0.00279791 0.02052429 0.00630309 0.00277094 0.00586992 0.00130632 
0.06650215 0.06949712 0.02227049 0.00434433 0.00094679 0.00405905 0.01255802 0.00701229 0.01881249 0.00323468 0.00280063 0.02053337 0.00632707 0.00277271 0.00598399 0.00130442 
0.06530655 0.06948265 0.02223710 0.00428058 0.00094360 0.00406872 0.01248491 0.00729535 0.01956480 0.00326543 0.00280280 0.02057210 0.00638743 0.00277371 0.00609379 0.00130254 
0.06401971 0.06941205 0.02216969 0.00421742 0.00094082 0.00407735 0.01240585 0.00761844 0.02040399 0.00329514 0.00280421 0.02063960 0.00648463 0.00277385 0.00619856 0.00130069 
0.06264768 0.06928554 0.02206843 0.00415515 0.00093847 0.00408492 0.01232012 0.00797943 0.02132458 0.00332353 0.00280464 0.02073481 0.00661890 0.00277304 0.00629757 0.00129887 
0.06119684 0.06910358 0.02193359 0.00409407 0.00093657 0.00409141 0.01222704 0.00837602 0.02232078 0.00335034 0.00280388 0.02085657 0.00679023 0.00277119 0.00639014 0.00129707 
0.05967395 0.06886681 0.02176558 0.00403446 0.00093512 0.00409680 0.01212604 0.00880575 0.02338646 0.00337532 0.00280174 0.02100354 0.00699835 0.00276822 0.00647563 0.00129530 
0.05808605 0.06857609 0.02156492 0.00397659 0.00093414 0.00410108 0.01201663 0.00926602 0.02451524 0.00339822 0.00279802 0.02117427 0.00724280 0.00276403 0.00655344 0.00129357 
0.05644046 0.06823245 0.02133222 0.00392073 0.00093364 0.00410422 0.01189839 0.00975410 0.02570048 0.00341882 0.00279254 0.02136720 0.00752283 0.00275857 0.00662304 0.00129186 
0.05474472 0.06783714 0.02106824 0.00386712 0.00093362 0.00410620 0.01177102 0.01026715 0.02693536 0.00343691 0.00278513 0.02158068 0.00783752 0.00275174 0.00668395 0.00129019 
0.05300659 0.06739158 0.02077381 0.00381598 0.00093408 0.00410700 0.01163431 0.01080223 0.02821288 0.00345227 0.00277564 0.02181296 0.00818567 0.00274350 0.00673573 0.00128856 
0.05123398 0.06689735 0.02044990 0.00376754 0.00093501 0.00410658 0.01148816 0.01135633 0.02952593 0.00346475 0.00276393 0.02206221 0.00856591 0.00273379 0.00677802 0.00128696 
0.04943492 0.06635622 0.02009756 0.00372198 0.00093642 0.00410493 0.01133258 0.01192639 0.03086730 0.00347418 0.00274988 0.02232656 0.00897662 0.00272255 0.00681051 0.00128540 
0.04761751 0.06577011 0.01971795 0.00367947 0.00093828 0.00410201 0.01116770 0.01250928 0.03222977 0.00348043 0.00273339 0.02260410 0.00941600 0.00270976 0.00683295 0.00128388 
0.04578993 0.06514108 0.01931234 0.00364019 0.00094059 0.00409780 0.01099377 0.01310188 0.03360610 0.00348338 0.00271439 0.02289286 0.00988207 0.00269537 0.00684516 0.00128240 
0.04396032 0.06447135 0.01888208 0.00360425 0.00094333 0.00409227 0.01081118 0.01370103 0.03498908 0.00348294 0.00269281 0.02319088 0.01037266 0.00267937 0.00684702 0.00128096 
0.04213682 0.06376327 0.01842861 0.00357178 0.00094649 0.00408539 0.01062040 0.01430360 0.03637159 0.00347905 0.00266861 0.02349621 0.01088543 0.00266175 0.00683846 0.00127957 
0.04032750 0.06301931 0.01795345 0.00354287 0.00095004 0.00407712 0.01042206 0.01490648 0.03774664 0.00347166 0.00264178 0.02380689 0.01141790 0.00264249 0.00681950 0.00127822 
0.03854031 0.06224208 0.01745822 0.00351760 0.00095395 0.00406744 0.01021690 0.01550662 0.03910738 0.00346077 0.00261234 0.02412101 0.01196747 0.00262163 0.00679019 0.00127692 
0.03678304 0.06143429 0.01694458 0.00349602 0.00095821 0.00405633 0.01000579 0.01610102 0.04044716 0.00344639 0.00258031 0.02443670 0.01253141 0.00259916 0.00675066 0.00127567 
0.03506334 0.06059875 0.01641428 0.00347817 0.00096279 0.00404374 0.00978972 0.01668674 0.04175956 0.00342855 0.00254576 0.02475213 0.01310688 0.00257512 0.00670111 0.00127446 
0.03338862 0.05973837 0.01586913 0.00346406 0.00096766 0.00402967 0.00956979 0.01726097 0.04303842 0.00340733 0.00250877 0.02506557 0.01369097 0.00254955 0.00664176 0.00127331 
0.03176604 0.05885616 0.01531098 0.00345368 0.00097278 0.00401409 0.00934721 0.01782096 0.04427788 0.00338281 0.00246945 0.02537536 0.01428071 0.00252250 0.00657292 0.00127221 
0.03020249 0.05795519 0.01474173 0.00344702 0.00097813 0.00399698 0.00912332 0.01836413 0.04547242 0.00335512 0.00242793 0.02567993 0.01487308 0.00249403 0.00649493 0.00127116 
0.02870455 0.05703864 0.01416333 0.00344403 0.00098368 0.00397833 0.00889955 0.01888799 0.04661685 0.00332440 0.00238436 0.02597783 0.01546503 0.00246420 0.00640821 0.00127016 
0.02727846 0.05610972 0.01357775 0.00344465 0.00098940 0.00395813 0.00867743 0.01939021 0.04770639 0.00329082 0.00233893 0.02626772 0.01605351 0.00243309 0.00631319 0.00126921 
0.02593011 0.05517173 0.01298698 0.00344880 0.00099524 0.00393638 0.00845858 0.01986861 0.04873666 0.00325459 0.00229185 0.02654840 0.01663546 0.00240080 0.00621037 0.00126833 
0.02466498 0.05422801 0.01239304 0.00345639 0.00100119 0.00391309 0.00824470 0.02032120 0.04970369 0.00321593 0.00224333 0.02681878 0.01720789 0.00236740 0.00610028 0.00126750 
0.02348815 0.05328196 0.01179795 0.00346732 0.00100720 0.00388827 0.00803756 0.02074611 0.05060398 0.00317507 0.00219362 0.02707794 0.01776783 0.00233302 0.00598350 0.00126672 
0.02240427 0.05233700 0.01120371 0.00348147 0.00101326 0.00386194 0.00783901 0.02114170 0.05143449 0.00313230 0.00214298 0.02732509 0.01831238 0.00229775 0.00586062 0.00126601 
0.02141755 0.05139661 0.01061235 0.00349870 0.00101931 0.00383412 0.00765093 0.02150648 0.05219264 0.00308788 0.00209170 0.02755960 0.01883873 0.00226172 0.00573229 0.00126535 
0.02053171 0.05046428 0.01002584 0.00351886 0.00102535 0.00380487 0.00747526 0.02183917 0.05287636 0.00304214 0.00204007 0.02778101 0.01934418 0.00222505 0.00559915 0.00126475 
0.01975003 0.04954351 0.00944616 0.00354180 0.00103134 0.00377423 0.00731397 0.02213866 0.05348407 0.00299538 0.00198840 0.02798900 0.01982614 0.00218786 0.00546189 0.00126421 
0.01907526 0.04863784 0.00887524 0.00356736 0.00103725 0.00374225 0.00716904 0.02240406 0.05401466 0.00294796 0.00193703 0.02818342 0.02028215 0.00215030 0.00532122 0.00126374 
0.01850967 0.04775079 0.00831496 0.00359536 0.00104306 0.00370902 0.00704245 0.02263465 0.05446757 0.00290022 0.00188628 0.02836428 0.02070992 0.00211251 0.00517783 0.00126332 
0.01805505 0.04688587 0.00776717 0.00362562 0.00104875 0.00367461 0.00693620 0.02282993 0.05484269 0.00285254 0.00183649 0.02853176 0.02110729 0.00207461 0.00503246 0.00126297 
0.01771264 0.04604661 0.00723364 0.00365796 0.00105429 0.00363912 0.00685224 0.02298957 0.05514043 0.00280527 0.00178803 0.02868618 0.02147231 0.00203676 0.00488582 0.00126268 
0.01748320 0.04523649 0.00671610 0.00369217 0.00105968 0.00360265 0.00679250 0.02311344 0.05536169 0.00275880 0.00174124 0.02882802 0.02180321 0.00199910 0.00473865 0.00126245 
0.01736696 0.04445896 0.00621619 0.00372807 0.00106489 0.00356533 0.00675888 0.02320160 0.05550782 0.00271351 0.00169647 0.02895791 0.02209839 0.00196178 0.00459167 0.00126229 
0.01736366 0.04371744 0.00573548 0.00376546 0.00106992 0.00352729 0.00675320 0.02325427 0.05558065 0.00266980 0.00165408 0.02907663 0.02235649 0.00192494 0.00444560 0.00126219 
0.01747253 0.04301530 0.00527544 0.00380414 0.00107474 0.00348867 0.00677720 0.02327188 0.05558245 0.00262805 0.00161443 0.02918507 0.02257634 0.00188873 0.00430114 0.00126215 
0.01769231 0.04235583 0.00483748 0.00384389 0.00107937 0.00344962 0.00683256 0.02325498 0.05551592 0.00258864 0.00157786 0.02928426 0.02275702 0.00185330 0.00415898 0.00126218 
0.01802127 0.04174227 0.00442287 0.00388453 0.00108378 0.00341031 0.00692084 0.02320433 0.05538416 0.00255195 0.00154471 0.02937534 0.02289779 0.00181878 0.00401979 0.00126228 
0.01845717 0.04117776 0.00403282 0.00392586 0.00108799 0.00337092 0.00704349 0.02312081 0.05519066 0.00251836 0.00151531 0.02945955 0.02299817 0.00178531 0.00388423 0.00126244 
0.01899734 0.04066535 0.00366840 0.00396766 0.00109199 0.00333164 0.00720186 0.02300544 0.05493924 0.00248822 0.00148997 0.02953824 0.02305790 0.00175303 0.00375293 0.00126267 
0.01963868 0.04020798 0.00333060 0.00400974 0.00109579 0.00329266 0.00739712 0.02285938 0.05463407 0.00246189 0.00146899 0.02961282 0.02307696 0.00172206 0.00362647 0.00126296 
0.02037762 0.03980847 0.00302026 0.00405192 0.00109938 0.00325420 0.00763034 0.02268391 0.05427962 0.00243970 0.00145266 0.02968477 0.02305553 0.00169253 0.00350542 0.00126332 
0.02121022 0.03946950 0.00273812 0.00409400 0.00110280 0.00321647 0.00790239 0.02248042 0.05388060 0.00242197 0.00144125 0.02975561 0.02299404 0.00166455 0.00339032 0.00126374 
0.02213213 0.03919361 0.00248481 0.00413578 0.00110603 0.00317968 0.00821402 0.02225038 0.05344198 0.00240899 0.00143499 0.02982693 0.02289313 0.00163823 0.00328165 0.00126423 
0.02313866 0.03898317 0.00226082 0.00417710 0.00110911 0.00314407 0.00856576 0.02199537 0.05296889 0.00240105 0.00143411 0.02990031 0.02275366 0.00161367 0.00317988 0.00126479 
0.02422476 0.03884039 0.00206651 0.00421778 0.00111204 0.00310988 0.00895799 0.02171702 0.05246667 0.00239840 0.00143880 0.02997734 0.02257669 0.00159096 0.00308543 0.00126541 
0.02538507 0.03876727 0.00190214 0.00425763 0.00111485 0.00307732 0.00939087 0.02141703 0.05194075 0.00240127 0.00144924 0.03005961 0.02236349 0.00157019 0.00299865 0.00126610 
0.02661392 0.03876562 0.00176782 0.00429651 0.00111755 0.00304666 0.00986439 0.02109716 0.05139666 0.00240985 0.00146555 0.03014869 0.02211552 0.00155143 0.00291989 0.00126686 
0.02790541 0.03883703 0.00166354 0.00433425 0.00112017 0.00301811 0.01037833 0.02075919 0.05083999 0.00242432 0.00148786 0.03024610 0.02183441 0.00153474 0.00284942 0.00126769 
0.02925338 0.03898287 0.00158917 0.00437070 0.00112274 0.00299193 0.01093227 0.02040493 0.05027631 0.00244482 0.00151624 0.03035330 0.02152198 0.00152017 0.00278748 0.00126858 
0.03065148 0.03920426 0.00154446 0.00440572 0.00112526 0.00296834 0.01152556 0.02003619 0.04971122 0.00247146 0.00155075 0.03047170 0.02118017 0.00150777 0.00273426 0.00126954 
0.03209315 0.03950208 0.00152902 0.00443916 0.00112778 0.00294758 0.01215737 0.01965481 0.04915021 0.00250432 0.00159139 0.03060259 0.02081111 0.00149756 0.00268991 0.00127057 
0.03357171 0.03987692 0.00154236 0.00447091 0.00113032 0.00292986 0.01282665 0.01926259 0.04859872 0.00254344 0.00163816 0.03074719 0.02041702 0.00148957 0.00265451 0.00127166 
0.03508036 0.04032911 0.00158386 0.00450083 0.00113290 0.00291541 0.01353216 0.01886132 0.04806201 0.00258883 0.00169099 0.03090661 0.02000025 0.00148380 0.00262811 0.00127282 
0.03661220 0.04085870 0.00165281 0.00452881 0.00113555 0.00290443 0.01427242 0.01845277 0.04754522 0.00264046 0.00174981 0.03108181 0.01956325 0.00148025 0.00261071 0.00127405 
0.03816028 0.04146542 0.00174835 0.00455476 0.00113830 0.00289712 0.01504577 0.01803865 0.04705327 0.00269827 0.00181449 0.03127363 0.01910856 0.00147890 0.00260226 0.00127534 
0.03971761 0.04214874 0.00186957 0.00457856 0.00114117 0.00289366 0.01585038 0.01762064 0.04659084 0.00276216 0.00188489 0.03148277 0.01863876 0.00147972 0.00260267 0.00127669 
0.04127721 0.04290777 0.00201541 0.00460013 0.00114419 0.00289423 0.01668418 0.01720035 0.04616238 0.00283200 0.00196082 0.03170975 0.01815652 0.00148267 0.00261180 0.00127811 
0.04283216 0.04374135 0.00218476 0.00461940 0.00114737 0.00289897 0.01754497 0.01677933 0.04577203 0.00290762 0.00204206 0.03195494 0.01766451 0.00148770 0.00262945 0.00127959 
0.04437557 0.04464796 0.00237640 0.00463628 0.00115075 0.00290802 0.01843034 0.01635906 0.04542362 0.00298881 0.00212836 0.03221853 0.01716545 0.00149475 0.00265541 0.00128114 
0.04590065 0.04562580 0.00258902 0.00465072 0.00115433 0.00292150 0.01933773 0.01594095 0.04512064 0.00307534 0.00221944 0.03250055 0.01666202 0.00150374 0.00268940 0.00128274 
0.04740075 0.04667271 0.00282126 0.00466266 0.00115814 0.00293950 0.02026443 0.01552631 0.04486625 0.00316694 0.00231498 0.03280082 0.01615693 0.00151459 0.00273111 0.00128440 
0.04886936 0.04778625 0.00307169 0.00467205 0.00116220 0.00296211 0.02120759 0.01511639 0.04466319 0.00326329 0.00241466 0.03311900 0.01565282 0.00152721 0.00278021 0.00128612 
0.05030014 0.04896361 0.00333880 0.00467886 0.00116651 0.00298937 0.02216424 0.01471234 0.04451383 0.00336406 0.00251809 0.03345455 0.01515232 0.00154148 0.00283630 0.00128789 
0.05168698 0.05020172 0.00362105 0.00468307 0.00117109 0.00302132 0.02313128 0.01431521 0.04442015 0.00346889 0.00262490 0.03380674 0.01465798 0.00155731 0.00289898 0.00128972 
0.05302399 0.05149716 0.00391684 0.00468465 0.00117594 0.00305796 0.02410553 0.01392597 0.04438367 0.00357739 0.00273467 0.03417466 0.01417226 0.00157456 0.00296780 0.00129160 
0.05430552 0.05284624 0.00422456 0.00468361 0.00118107 0.00309928 0.02508373 0.01354550 0.04440553 0.00368913 0.00284697 0.03455721 0.01369757 0.00159311 0.00304229 0.00129352 
0.05552624 0.05424496 0.00454253 0.00467993 0.00118648 0.00314523 0.02606252 0.01317457 0.04448641 0.00380367 0.00296134 0.03495312 0.01323617 0.00161282 0.00312195 0.00129549 
0.05668108 0.05568904 0.00486909 0.00467365 0.00119215 0.00319574 0.02703854 0.01281387 0.04462657 0.00392055 0.00307731 0.03536095 0.01279025 0.00163356 0.00320627 0.00129750 
0.05776532 0.05717397 0.00520255 0.00466477 0.00119810 0.00325071 0.02800835 0.01246401 0.04482583 0.00403928 0.00319441 0.03577909 0.01236185 0.00165516 0.00329470 0.00129955 
0.05877457 0.05869494 0.00554121 0.00465334 0.00120429 0.00331003 0.02896853 0.01212549 0.04508360 0.00415936 0.00331213 0.03620576 0.01195287 0.00167748 0.00338670 0.00130163 
0.05970481 0.06024696 0.00588338 0.00463940 0.00121073 0.00337354 0.02991565 0.01179874 0.04539883 0.00428027 0.00342998 0.03663905 0.01156507 0.00170036 0.00348169 0.00130374 
0.06055240 0.06182478 0.00622741 0.00462300 0.00121739 0.00344107 0.03084630 0.01148410 0.04577011 0.00440148 0.00354744 0.03707692 0.01120005 0.00172364 0.00357909 0.00130588 
0.06131406 0.06342300 0.00657162 0.00460422 0.00122425 0.00351243 0.03175711 0.01118183 0.04619559 0.00452246 0.00366401 0.03751718 0.01085927 0.00174716 0.00367832 0.00130804 
0.06198696 0.06503603 0.00691439 0.00458312 0.00123128 0.00358738 0.03264476 0.01089213 0.04667304 0.00464266 0.00377917 0.03795757 0.01054399 0.00177076 0.00377880 0.00131021 
0.06256863 0.06665812 0.00725413 0.00455980 0.00123845 0.00366568 0.03350602 0.01061511 0.04719988 0.00476154 0.00389242 0.03839569 0.01025532 0.00179427 0.00387992 0.00131240 
0.06305708 0.06828344 0.00758930 0.00453436 0.00124574 0.00374706 0.03433773 0.01035083 0.04777316 0.00487854 0.00400325 0.03882911 0.00999416 0.00181753 0.00398111 0.00131459 
