0.07643557 0.04298095 0.00918737 0.00419975 0.00145269 0.00271995 0.00986357 0.00590165 0.01891069 0.00257912 0.00264004 0.07100644 0.01164334 0.00643188 0.01600468 0.00123761 
0.07738071 0.04296797 0.00882227 0.00417792 0.00146385 0.00276134 0.00991436 0.00608576 0.01938670 0.00262805 0.00262948 0.07223364 0.01140502 0.00650406 0.01611881 0.00123551 
0.07820506 0.04300201 0.00846309 0.00415841 0.00147713 0.00280388 0.00995800 0.00627661 0.01986637 0.00267943 0.00261612 0.07360606 0.01116479 0.00657707 0.01623047 0.00123408 
0.07890444 0.04308486 0.00811124 0.00414145 0.00149260 0.00284749 0.00999435 0.00647386 0.02034839 0.00273321 0.00260003 0.07512304 0.01092402 0.00665078 0.01633926 0.00123328 
0.07947527 0.04321807 0.00776809 0.00412726 0.00151033 0.00289204 0.01002327 0.00667712 0.02083144 0.00278934 0.00258126 0.07678307 0.01068406 0.00672507 0.01644476 0.00123308 
0.07991455 0.04340298 0.00743498 0.00411607 0.00153037 0.00293743 0.01004467 0.00688596 0.02131418 0.00284774 0.00255991 0.07858379 0.01044628 0.00679978 0.01654657 0.00123346 
0.08021992 0.04364070 0.00711317 0.00410808 0.00155277 0.00298352 0.01005849 0.00709992 0.02179530 0.00290831 0.00253605 0.08052201 0.01021203 0.00687478 0.01664426 0.00123436 
0.08038965 0.04393212 0.00680391 0.00410347 0.00157755 0.00303020 0.01006469 0.00731848 0.02227346 0.00297094 0.00250981 0.08259367 0.00998265 0.00694992 0.01673743 0.00123576 
0.08042269 0.04427788 0.00650836 0.00410245 0.00160471 0.00307733 0.01006326 0.00754109 0.02274735 0.00303552 0.00248128 0.08479391 0.00975943 0.00702505 0.01682566 0.00123762 
0.08031867 0.04467840 0.00622762 0.00410515 0.00163424 0.00312477 0.01005422 0.00776717 0.02321564 0.00310190 0.00245059 0.08711708 0.00954365 0.00710000 0.01690852 0.00123990 
0.08007791 0.04513387 0.00596275 0.00411175 0.00166613 0.00317239 0.01003762 0.00799608 0.02367706 0.00316994 0.00241788 0.08955675 0.00933654 0.00717463 0.01698563 0.00124256 
0.07970146 0.04564422 0.00571470 0.00412236 0.00170031 0.00322003 0.01001352 0.00822718 0.02413030 0.00323946 0.00238327 0.09210575 0.00913928 0.00724875 0.01705658 0.00124554 
0.07919104 0.04620918 0.00548436 0.00413709 0.00173675 0.00326756 0.00998204 0.00845977 0.02457411 0.00331029 0.00234691 0.09475623 0.00895299 0.00732222 0.01712099 0.00124882 
0.07854911 0.04682822 0.00527254 0.00415605 0.00177535 0.00331481 0.00994328 0.00869313 0.02500724 0.00338224 0.00230896 0.09749968 0.00877871 0.00739485 0.01717848 0.00125234 
0.07777883 0.04750060 0.00507998 0.00417928 0.00181603 0.00336165 0.00989742 0.00892651 0.02542849 0.00345508 0.00226958 0.10032696 0.00861744 0.00746649 0.01722870 0.00125607 
0.07688406 0.04822535 0.00490730 0.00420685 0.00185867 0.00340791 0.00984461 0.00915916 0.02583666 0.00352862 0.00222892 0.10322840 0.00847008 0.00753695 0.01727129 0.00125997 
0.07586934 0.04900129 0.00475506 0.00423876 0.00190315 0.00345343 0.00978506 0.00939027 0.02623059 0.00360262 0.00218714 0.10619381 0.00833746 0.00760606 0.01730595 0.00126398 
0.07473989 0.04982701 0.00462373 0.00427503 0.00194932 0.00349807 0.00971898 0.00961904 0.02660917 0.00367685 0.00214443 0.10921256 0.00822031 0.00767366 0.01733237 0.00126807 
0.07350157 0.05070091 0.00451366 0.00431561 0.00199704 0.00354166 0.00964662 0.00984466 0.02697129 0.00375104 0.00210093 0.11227363 0.00811928 0.00773958 0.01735027 0.00127221 
0.07216087 0.05162119 0.00442512 0.00436047 0.00204612 0.00358405 0.00956822 0.01006629 0.02731590 0.00382496 0.00205684 0.11536569 0.00803493 0.00780363 0.01735940 0.00127634 
0.07072489 0.05258585 0.00435830 0.00440951 0.00209638 0.00362508 0.00948407 0.01028312 0.02764199 0.00389834 0.00201230 0.11847713 0.00796770 0.00786566 0.01735953 0.00128044 
0.06920129 0.05359272 0.00431327 0.00446264 0.00214762 0.00366459 0.00939446 0.01049430 0.02794857 0.00397091 0.00196750 0.12159617 0.00791796 0.00792550 0.01735047 0.00128447 
0.06759825 0.05463946 0.00429002 0.00451972 0.00219964 0.00370244 0.00929968 0.01069902 0.02823472 0.00404240 0.00192261 0.12471090 0.00788596 0.00798299 0.01733205 0.00128839 
0.06592445 0.05572355 0.00428844 0.00458062 0.00225220 0.00373847 0.00920007 0.01089645 0.02849955 0.00411253 0.00187777 0.12780934 0.00787185 0.00803797 0.01730414 0.00129217 
0.06418902 0.05684234 0.00430832 0.00464513 0.00230509 0.00377254 0.00909595 0.01108578 0.02874220 0.00418104 0.00183316 0.13087955 0.00787569 0.00809029 0.01726664 0.00129579 
0.06240150 0.05799303 0.00434936 0.00471308 0.00235806 0.00380451 0.00898766 0.01126624 0.02896189 0.00424764 0.00178894 0.13390966 0.00789743 0.00813980 0.01721949 0.00129922 
0.06057177 0.05917270 0.00441117 0.00478422 0.00241086 0.00383425 0.00887556 0.01143705 0.02915786 0.00431206 0.00174524 0.13688795 0.00793691 0.00818636 0.01716264 0.00130243 
0.05871001 0.06037832 0.00449328 0.00485832 0.00246324 0.00386161 0.00875999 0.01159747 0.02932942 0.00437403 0.00170223 0.13980291 0.00799389 0.00822984 0.01709612 0.00130540 
0.05682669 0.06160673 0.00459512 0.00493510 0.00251495 0.00388649 0.00864133 0.01174680 0.02947592 0.00443330 0.00166004 0.14264333 0.00806803 0.00827012 0.01701997 0.00130811 
0.05493242 0.06285472 0.00471604 0.00501429 0.00256572 0.00390877 0.00851994 0.01188437 0.02959678 0.00448958 0.00161881 0.14539833 0.00815887 0.00830708 0.01693426 0.00131055 
0.05303799 0.06411897 0.00485531 0.00509557 0.00261530 0.00392833 0.00839619 0.01200953 0.02969145 0.00454264 0.00157866 0.14805744 0.00826590 0.00834062 0.01683914 0.00131269 
0.05115426 0.06539611 0.00501214 0.00517863 0.00266342 0.00394508 0.00827045 0.01212170 0.02975947 0.00459223 0.00153970 0.15061067 0.00838850 0.00837064 0.01673475 0.00131453 
0.04929210 0.06668274 0.00518563 0.00526313 0.00270984 0.00395893 0.00814310 0.01222034 0.02980041 0.00463813 0.00150206 0.15304853 0.00852597 0.00839707 0.01662131 0.00131606 
0.04746235 0.06797540 0.00537485 0.00534872 0.00275428 0.00396981 0.00801451 0.01230494 0.02981393 0.00468010 0.00146584 0.15536210 0.00867753 0.00841984 0.01649906 0.00131726 
0.04567575 0.06927062 0.00557880 0.00543505 0.00279651 0.00397763 0.00788505 0.01237508 0.02979974 0.00471794 0.00143112 0.15754309 0.00884234 0.00843888 0.01636828 0.00131814 
0.04394290 0.07056492 0.00579641 0.00552175 0.00283627 0.00398234 0.00775508 0.01243036 0.02975760 0.00475146 0.00139800 0.15958388 0.00901946 0.00845416 0.01622929 0.00131870 
0.04227414 0.07185482 0.00602658 0.00560845 0.00287334 0.00398391 0.00762498 0.01247047 0.02968738 0.00478049 0.00136655 0.16147753 0.00920794 0.00846566 0.01608246 0.00131893 
0.04067956 0.07313687 0.00626813 0.00569478 0.00290749 0.00398229 0.00749508 0.01249514 0.02958899 0.00480486 0.00133684 0.16321785 0.00940673 0.00847336 0.01592820 0.00131883 
0.03916892 0.07440767 0.00651988 0.00578034 0.00293851 0.00397746 0.00736576 0.01250417 0.02946241 0.00482443 0.00130893 0.16479940 0.00961474 0.00847727 0.01576693 0.00131841 
0.03775158 0.07566382 0.00678059 0.00586477 0.00296619 0.00396941 0.00723734 0.01249744 0.02930772 0.00483909 0.00128287 0.16621756 0.00983085 0.00847741 0.01559914 0.00131769 
0.03643645 0.07690203 0.00704901 0.00594769 0.00299034 0.00395816 0.00711017 0.01247488 0.02912505 0.00484873 0.00125870 0.16746848 0.01005390 0.00847383 0.01542534 0.00131666 
0.03523194 0.07811906 0.00732386 0.00602873 0.00301080 0.00394371 0.00698457 0.01243649 0.02891464 0.00485327 0.00123645 0.16854916 0.01028267 0.00846657 0.01524608 0.00131533 
0.03414593 0.07931176 0.00760384 0.00610752 0.00302740 0.00392611 0.00686085 0.01238235 0.02867679 0.00485264 0.00121615 0.16945742 0.01051597 0.00845572 0.01506193 0.00131373 
0.03318568 0.08047706 0.00788767 0.00618372 0.00304002 0.00390540 0.00673932 0.01231259 0.02841189 0.00484683 0.00119781 0.17019192 0.01075254 0.00844137 0.01487351 0.00131186 
0.03235783 0.08161202 0.00817403 0.00625698 0.00304853 0.00388163 0.00662028 0.01222743 0.02812042 0.00483580 0.00118144 0.17075214 0.01099113 0.00842363 0.01468146 0.00130974 
0.03166834 0.08271382 0.00846165 0.00632697 0.00305283 0.00385488 0.00650400 0.01212715 0.02780294 0.00481956 0.00116704 0.17113842 0.01123050 0.00840263 0.01448645 0.00130738 
0.03112243 0.08377976 0.00874923 0.00639337 0.00305284 0.00382525 0.00639075 0.01201208 0.02746012 0.00479815 0.00115461 0.17135186 0.01146938 0.00837853 0.01428917 0.00130481 
0.03072460 0.08480728 0.00903553 0.00645590 0.00304851 0.00379282 0.00628080 0.01188264 0.02709269 0.00477162 0.00114413 0.17139440 0.01170654 0.00835148 0.01409034 0.00130203 
0.03047855 0.08579397 0.00931930 0.00651428 0.00303980 0.00375773 0.00617439 0.01173931 0.02670151 0.00474005 0.00113557 0.17126872 0.01194073 0.00832167 0.01389069 0.00129908 
0.03038720 0.08673758 0.00959936 0.00656825 0.00302669 0.00372009 0.00607173 0.01158261 0.02628750 0.00470353 0.00112893 0.17097828 0.01217075 0.00828931 0.01369097 0.00129597 
0.03045261 0.08763601 0.00987452 0.00661758 0.00300920 0.00368005 0.00597306 0.01141314 0.02585170 0.00466219 0.00112415 0.17052721 0.01239540 0.00825461 0.01349196 0.00129273 
0.03067605 0.08848735 0.01014369 0.00666207 0.00298735 0.00363776 0.00587857 0.01123154 0.02539523 0.00461616 0.00112121 0.16992036 0.01261354 0.00821781 0.01329443 0.00128937 
0.03105789 0.08928985 0.01040578 0.00670152 0.00296120 0.00359339 0.00578845 0.01103853 0.02491932 0.00456561 0.00112006 0.16916318 0.01282402 0.00817915 0.01309917 0.00128591 
0.03159767 0.09004195 0.01065979 0.00673578 0.00293083 0.00354711 0.00570286 0.01083483 0.02442527 0.00451072 0.00112066 0.16826174 0.01302578 0.00813890 0.01290698 0.00128238 
0.03229407 0.09074228 0.01090475 0.00676472 0.00289634 0.00349912 0.00562197 0.01062125 0.02391450 0.00445170 0.00112296 0.16722264 0.01321778 0.00809734 0.01271864 0.00127879 
0.03314492 0.09138964 0.01113979 0.00678823 0.00285784 0.00344960 0.00554592 0.01039863 0.02338850 0.00438876 0.00112690 0.16605298 0.01339901 0.00805475 0.01253496 0.00127518 
0.03414719 0.09198305 0.01136407 0.00680624 0.00281548 0.00339877 0.00547483 0.01016782 0.02284888 0.00432215 0.00113244 0.16476032 0.01356856 0.00801144 0.01235673 0.00127155 
0.03529702 0.09252169 0.01157685 0.00681870 0.00276943 0.00334684 0.00540883 0.00992973 0.02229730 0.00425211 0.00113952 0.16335260 0.01372554 0.00796770 0.01218471 0.00126793 
0.03658975 0.09300497 0.01177746 0.00682560 0.00271986 0.00329403 0.00534799 0.00968529 0.02173555 0.00417891 0.00114807 0.16183808 0.01386912 0.00792387 0.01201968 0.00126434 
0.03801992 0.09343246 0.01196529 0.00682693 0.00266698 0.00324057 0.00529242 0.00943545 0.02116545 0.00410283 0.00115804 0.16022531 0.01399855 0.00788025 0.01186239 0.00126080 
0.03958129 0.09380395 0.01213982 0.00682273 0.00261101 0.00318670 0.00524218 0.00918117 0.02058895 0.00402417 0.00116938 0.15852308 0.01411315 0.00783717 0.01171358 0.00125733 
0.04126690 0.09411940 0.01230063 0.00681307 0.00255218 0.00313265 0.00519732 0.00892342 0.02000803 0.00394323 0.00118201 0.15674032 0.01421227 0.00779497 0.01157395 0.00125394 
0.04306911 0.09437897 0.01244737 0.00679803 0.00249076 0.00307868 0.00515788 0.00866319 0.01942476 0.00386032 0.00119589 0.15488605 0.01429538 0.00775397 0.01144417 0.00125065 
0.04497959 0.09458301 0.01257975 0.00677773 0.00242700 0.00302501 0.00512389 0.00840147 0.01884128 0.00377575 0.00121095 0.15296937 0.01436198 0.00771449 0.01132491 0.00124748 
0.04698941 0.09473204 0.01269760 0.00675230 0.00236119 0.00297191 0.00509537 0.00813923 0.01825976 0.00368986 0.00122713 0.15099936 0.01441168 0.00767687 0.01121678 0.00124444 
0.04908909 0.09482675 0.01280082 0.00672190 0.00229361 0.00291961 0.00507231 0.00787744 0.01768244 0.00360296 0.00124439 0.14898502 0.01444412 0.00764142 0.01112035 0.00124154 
0.05126862 0.09486803 0.01288938 0.00668671 0.00222458 0.00286836 0.00505470 0.00761707 0.01711160 0.00351538 0.00126266 0.14693524 0.01445905 0.00760845 0.01103616 0.00123880 
0.05351752 0.09485691 0.01296335 0.00664693 0.00215440 0.00281842 0.00504252 0.00735904 0.01654954 0.00342747 0.00128190 0.14485876 0.01445629 0.00757826 0.01096470 0.00123622 
0.05582493 0.09479458 0.01302288 0.00660278 0.00208338 0.00277001 0.00503572 0.00710428 0.01599859 0.00333954 0.00130206 0.14276407 0.01443573 0.00755114 0.01090642 0.00123382 
0.05817962 0.09468239 0.01306817 0.00655449 0.00201184 0.00272337 0.00503428 0.00685367 0.01546110 0.00325191 0.00132309 0.14065943 0.01439733 0.00752736 0.01086170 0.00123160 
0.06057011 0.09452183 0.01309953 0.00650231 0.00194011 0.00267875 0.00503811 0.00660807 0.01493942 0.00316492 0.00134494 0.13855277 0.01434113 0.00750719 0.01083089 0.00122958 
0.06298466 0.09431451 0.01311732 0.00644650 0.00186852 0.00263635 0.00504716 0.00636829 0.01443591 0.00307887 0.00136758 0.13645169 0.01426726 0.00749086 0.01081426 0.00122775 
0.06541139 0.09406220 0.01312197 0.00638733 0.00179737 0.00259641 0.00506135 0.00613511 0.01395289 0.00299408 0.00139097 0.13436340 0.01417590 0.00747860 0.01081204 0.00122613 
0.06783834 0.09376675 0.01311397 0.00632507 0.00172700 0.00255912 0.00508058 0.00590928 0.01349267 0.00291083 0.00141507 0.13229471 0.01406731 0.00747060 0.01082438 0.00122471 
0.07025350 0.09343015 0.01309389 0.00626001 0.00165772 0.00252470 0.00510476 0.00569146 0.01305754 0.00282942 0.00143985 0.13025199 0.01394184 0.00746704 0.01085138 0.00122350 
0.07264493 0.09305446 0.01306231 0.00619243 0.00158983 0.00249332 0.00513379 0.00548232 0.01264970 0.00275012 0.00146529 0.12824114 0.01379988 0.00746807 0.01089306 0.00122250 
0.07500077 0.09264185 0.01301991 0.00612262 0.00152364 0.00246518 0.00516753 0.00528243 0.01227134 0.00267319 0.00149136 0.12626758 0.01364193 0.00747381 0.01094940 0.00122171 
0.07730935 0.09219457 0.01296738 0.00605086 0.00145945 0.00244043 0.00520589 0.00509232 0.01192454 0.00259889 0.00151803 0.12433624 0.01346851 0.00748436 0.01102027 0.00122113 
0.07955921 0.09171491 0.01290546 0.00597745 0.00139752 0.00241922 0.00524871 0.00491248 0.01161132 0.00252745 0.00154529 0.12245155 0.01328024 0.00749977 0.01110551 0.00122075 
0.08173922 0.09120526 0.01283491 0.00590264 0.00133813 0.00240171 0.00529587 0.00474332 0.01133360 0.00245909 0.00157312 0.12061740 0.01307778 0.00752010 0.01120487 0.00122057 
0.08383858 0.09066803 0.01275653 0.00582672 0.00128154 0.00238801 0.00534723 0.00458521 0.01109321 0.00239401 0.00160151 0.11883720 0.01286188 0.00754532 0.01131803 0.00122059 
0.08584694 0.09010568 0.01267114 0.00574995 0.00122797 0.00237823 0.00540263 0.00443845 0.01089184 0.00233239 0.00163044 0.11711382 0.01263331 0.00757542 0.01144460 0.00122080 
0.08775439 0.08952071 0.01257957 0.00567256 0.00117765 0.00237247 0.00546192 0.00430328 0.01073108 0.00227440 0.00165991 0.11544965 0.01239292 0.00761033 0.01158413 0.00122120 
0.08955157 0.08891562 0.01248265 0.00559481 0.00113079 0.00237081 0.00552494 0.00417988 0.01061235 0.00222018 0.00168991 0.11384655 0.01214160 0.00764995 0.01173608 0.00122178 
0.09122971 0.08829294 0.01238123 0.00551692 0.00108756 0.00237331 0.00559153 0.00406838 0.01053696 0.00216988 0.00172043 0.11230592 0.01188030 0.00769414 0.01189986 0.00122253 
0.09278064 0.08765518 0.01227613 0.00543908 0.00104813 0.00238001 0.00566152 0.00396885 0.01050604 0.00212361 0.00175147 0.11082869 0.01161001 0.00774275 0.01207481 0.00122344 
0.09419687 0.08700486 0.01216820 0.00536150 0.00101265 0.00239094 0.00573472 0.00388128 0.01052057 0.00208144 0.00178302 0.10941534 0.01133175 0.00779556 0.01226020 0.00122451 
0.09547164 0.08634447 0.01205823 0.00528435 0.00098123 0.00240612 0.00581097 0.00380565 0.01058134 0.00204346 0.00181509 0.10806593 0.01104660 0.00785235 0.01245524 0.00122572 
0.09659892 0.08567649 0.01194703 0.00520778 0.00095398 0.00242553 0.00589009 0.00374183 0.01068896 0.00200973 0.00184766 0.10678012 0.01075565 0.00791285 0.01265908 0.00122707 
0.09757344 0.08500336 0.01183535 0.00513192 0.00093097 0.00244916 0.00597189 0.00368968 0.01084388 0.00198028 0.00188073 0.10555720 0.01046005 0.00797676 0.01287081 0.00122855 
0.09839077 0.08432747 0.01172393 0.00505690 0.00091226 0.00247695 0.00605617 0.00364899 0.01104631 0.00195514 0.00191431 0.10439611 0.01016094 0.00804376 0.01308946 0.00123014 
0.09904727 0.08365116 0.01161348 0.00498280 0.00089788 0.00250886 0.00614276 0.00361951 0.01129630 0.00193430 0.00194838 0.10329550 0.00985951 0.00811347 0.01331404 0.00123184 
0.09954018 0.08297673 0.01150466 0.00490972 0.00088784 0.00254481 0.00623146 0.00360093 0.01159366 0.00191775 0.00198294 0.10225373 0.00955695 0.00818553 0.01354347 0.00123363 
0.09986757 0.08230638 0.01139808 0.00483769 0.00088213 0.00258470 0.00632206 0.00359293 0.01193803 0.00190546 0.00201798 0.10126893 0.00925449 0.00825952 0.01377667 0.00123551 
0.10002838 0.08164228 0.01129431 0.00476676 0.00088071 0.00262843 0.00641438 0.00359510 0.01232881 0.00189739 0.00205350 0.10033902 0.00895333 0.00833500 0.01401249 0.00123745 
0.10002240 0.08098650 0.01119389 0.00469695 0.00088354 0.00267588 0.00650821 0.00360705 0.01276520 0.00189347 0.00208948 0.09946173 0.00865470 0.00841152 0.01424976 0.00123946 
0.09985031 0.08034101 0.01109728 0.00462826 0.00089052 0.00272689 0.00660334 0.00362831 0.01324619 0.00189364 0.00212591 0.09863467 0.00835982 0.00848861 0.01448730 0.00124152 
0.09951362 0.07970771 0.01100489 0.00456067 0.00090156 0.00278133 0.00669958 0.00365841 0.01377054 0.00189781 0.00216277 0.09785535 0.00806991 0.00856577 0.01472389 0.00124363 
0.09901469 0.07908841 0.01091711 0.00449414 0.00091655 0.00283901 0.00679671 0.00369684 0.01433684 0.00190588 0.00220004 0.09712120 0.00778618 0.00864250 0.01495829 0.00124576 
0.09835670 0.07848478 0.01083421 0.00442862 0.00093535 0.00289977 0.00689453 0.00374308 0.01494343 0.00191775 0.00223770 0.09642962 0.00750981 0.00871830 0.01518927 0.00124791 
0.09754364 0.07789842 0.01075647 0.00436406 0.00095780 0.00296339 0.00699283 0.00379657 0.01558848 0.00193330 0.00227572 0.09577802 0.00724197 0.00879264 0.01541558 0.00125008 
0.09658026 0.07733081 0.01068406 0.00430037 0.00098375 0.00302969 0.00709139 0.00385675 0.01626995 0.00195240 0.00231407 0.09516380 0.00698381 0.00886499 0.01563599 0.00125225 
0.09547207 0.07678328 0.01061712 0.00423746 0.00101299 0.00309843 0.00719000 0.00392305 0.01698561 0.00197492 0.00235272 0.09458446 0.00673643 0.00893485 0.01584927 0.00125441 
0.09422527 0.07625709 0.01055572 0.00417525 0.00104534 0.00316940 0.00728845 0.00399489 0.01773305 0.00200073 0.00239163 0.09403756 0.00650092 0.00900168 0.01605420 0.00125655 
0.09284674 0.07575334 0.01049989 0.00411363 0.00108057 0.00324236 0.00738653 0.00407167 0.01850969 0.00202968 0.00243076 0.09352077 0.00627831 0.00906498 0.01624961 0.00125867 
0.09134398 0.07527302 0.01044959 0.00405249 0.00111848 0.00331707 0.00748401 0.00415280 0.01931279 0.00206164 0.00247006 0.09303190 0.00606959 0.00912425 0.01643432 0.00126076 
0.08972508 0.07481696 0.01040474 0.00399171 0.00115882 0.00339327 0.00758070 0.00423771 0.02013945 0.00209644 0.00250947 0.09256889 0.00587570 0.00917901 0.01660722 0.00126282 
0.08799864 0.07438590 0.01036519 0.00393118 0.00120136 0.00347070 0.00767637 0.00432580 0.02098664 0.00213395 0.00254896 0.09212989 0.00569753 0.00922878 0.01676724 0.00126483 
0.08617376 0.07398040 0.01033076 0.00387079 0.00124585 0.00354912 0.00777081 0.00441650 0.02185119 0.00217402 0.00258845 0.09171320 0.00553590 0.00927312 0.01691334 0.00126679 
0.08425994 0.07360093 0.01030123 0.00381042 0.00129203 0.00362825 0.00786382 0.00450924 0.02272984 0.00221649 0.00262789 0.09131733 0.00539159 0.00931161 0.01704457 0.00126870 
0.08226708 0.07324778 0.01027633 0.00374997 0.00133966 0.00370782 0.00795518 0.00460347 0.02361920 0.00226122 0.00266722 0.09094102 0.00526527 0.00934387 0.01716001 0.00127055 
0.08020534 0.07292112 0.01025574 0.00368933 0.00138848 0.00378758 0.00804469 0.00469866 0.02451583 0.00230806 0.00270636 0.09058318 0.00515759 0.00936954 0.01725883 0.00127234 
0.07808518 0.07262100 0.01023912 0.00362841 0.00143822 0.00386725 0.00813215 0.00479428 0.02541621 0.00235689 0.00274524 0.09024299 0.00506909 0.00938830 0.01734027 0.00127406 
0.07591720 0.07234730 0.01022610 0.00356712 0.00148864 0.00394656 0.00821735 0.00488984 0.02631677 0.00240755 0.00278380 0.08991983 0.00500024 0.00939986 0.01740366 0.00127572 
0.07371217 0.07209979 0.01021627 0.00350539 0.00153948 0.00402525 0.00830011 0.00498486 0.02721392 0.00245992 0.00282195 0.08961330 0.00495144 0.00940399 0.01744840 0.00127730 
0.07148088 0.07187809 0.01020922 0.00344315 0.00159050 0.00410306 0.00838024 0.00507888 0.02810403 0.00251388 0.00285962 0.08932323 0.00492299 0.00940049 0.01747400 0.00127882 
0.06923417 0.07168172 0.01020451 0.00338036 0.00164145 0.00417973 0.00845754 0.00517148 0.02898352 0.00256930 0.00289673 0.08904968 0.00491511 0.00938923 0.01748005 0.00128026 
0.06698279 0.07151003 0.01020167 0.00331699 0.00169209 0.00425501 0.00853185 0.00526225 0.02984878 0.00262607 0.00293320 0.08879289 0.00492794 0.00937009 0.01746626 0.00128164 
0.06473737 0.07136229 0.01020024 0.00325301 0.00174221 0.00432865 0.00860300 0.00535082 0.03069629 0.00268409 0.00296895 0.08855331 0.00496153 0.00934303 0.01743244 0.00128294 
0.06250839 0.07123764 0.01019975 0.00318843 0.00179158 0.00440043 0.00867083 0.00543683 0.03152257 0.00274326 0.00300390 0.08833160 0.00501582 0.00930807 0.01737849 0.00128418 
0.06030606 0.07113510 0.01019973 0.00312327 0.00184001 0.00447009 0.00873518 0.00551997 0.03232421 0.00280348 0.00303797 0.08812855 0.00509069 0.00926526 0.01730445 0.00128535 
0.05814034 0.07105359 0.01019971 0.00305757 0.00188728 0.00453744 0.00879592 0.00559995 0.03309792 0.00286467 0.00307110 0.08794515 0.00518590 0.00921471 0.01721045 0.00128646 
0.05602081 0.07099195 0.01019922 0.00299138 0.00193324 0.00460225 0.00885292 0.00567649 0.03384051 0.00292675 0.00310319 0.08778252 0.00530115 0.00915661 0.01709675 0.00128750 
0.05395668 0.07094892 0.01019780 0.00292478 0.00197770 0.00466433 0.00890605 0.00574937 0.03454893 0.00298966 0.00313417 0.08764190 0.00543601 0.00909118 0.01696373 0.00128849 
0.05195671 0.07092316 0.01019503 0.00285788 0.00202052 0.00472349 0.00895522 0.00581838 0.03522028 0.00305333 0.00316399 0.08752464 0.00558999 0.00901870 0.01681186 0.00128942 
0.05002918 0.07091328 0.01019046 0.00279077 0.00206157 0.00477955 0.00900032 0.00588335 0.03585183 0.00311770 0.00319256 0.08743219 0.00576251 0.00893951 0.01664177 0.00129031 
0.04818183 0.07091780 0.01018369 0.00272361 0.00210071 0.00483235 0.00904129 0.00594411 0.03644104 0.00318272 0.00321983 0.08736604 0.00595290 0.00885401 0.01645418 0.00129115 
0.04642185 0.07093522 0.01017435 0.00265655 0.00213784 0.00488175 0.00907806 0.00600056 0.03698554 0.00324836 0.00324574 0.08732775 0.00616040 0.00876264 0.01624991 0.00129195 
0.04475582 0.07096400 0.01016207 0.00258975 0.00217288 0.00492761 0.00911058 0.00605259 0.03748321 0.00331457 0.00327024 0.08731891 0.00638420 0.00866590 0.01602994 0.00129271 
0.04318969 0.07100258 0.01014653 0.00252341 0.00220575 0.00496980 0.00913882 0.00610014 0.03793212 0.00338131 0.00329328 0.08734109 0.00662337 0.00856433 0.01579532 0.00129345 
0.04172876 0.07104937 0.01012742 0.00245773 0.00223640 0.00500823 0.00916277 0.00614315 0.03833061 0.00344857 0.00331482 0.08739586 0.00687696 0.00845852 0.01554721 0.00129416 
0.04037765 0.07110280 0.01010448 0.00239293 0.00226479 0.00504280 0.00918243 0.00618161 0.03867725 0.00351631 0.00333482 0.08748476 0.00714390 0.00834911 0.01528690 0.00129485 
0.03914027 0.07116132 0.01007747 0.00232925 0.00229090 0.00507343 0.00919781 0.00621551 0.03897086 0.00358450 0.00335326 0.08760926 0.00742311 0.00823677 0.01501576 0.00129554 
0.03801984 0.07122341 0.01004618 0.00226693 0.00231471 0.00510007 0.00920897 0.00624488 0.03921054 0.00365313 0.00337013 0.08777077 0.00771342 0.00812221 0.01473524 0.00129622 
0.03701885 0.07128756 0.01001045 0.00220624 0.00233625 0.00512267 0.00921595 0.00626975 0.03939564 0.00372218 0.00338539 0.08797059 0.00801361 0.00800618 0.01444691 0.00129689 
0.03613907 0.07135236 0.00997015 0.00214742 0.00235552 0.00514120 0.00921883 0.00629019 0.03952580 0.00379163 0.00339906 0.08820991 0.00832244 0.00788944 0.01415239 0.00129758 
0.03538154 0.07141643 0.00992517 0.00209076 0.00237258 0.00515564 0.00921770 0.00630628 0.03960095 0.00386146 0.00341114 0.08848980 0.00863861 0.00777278 0.01385338 0.00129828 
0.03474658 0.07147851 0.00987546 0.00203652 0.00238748 0.00516600 0.00921268 0.00631811 0.03962127 0.00393165 0.00342163 0.08881119 0.00896079 0.00765703 0.01355165 0.00129899 
0.03423381 0.07153741 0.00982099 0.00198499 0.00240028 0.00517228 0.00920389 0.00632580 0.03958724 0.00400217 0.00343056 0.08917484 0.00928765 0.00754299 0.01324903 0.00129973 
0.03384213 0.07159205 0.00976177 0.00193644 0.00241107 0.00517453 0.00919149 0.00632945 0.03949961 0.00407300 0.00343796 0.08958135 0.00961782 0.00743151 0.01294739 0.00130050 
0.03356977 0.07164146 0.00969784 0.00189115 0.00241992 0.00517278 0.00917563 0.00632922 0.03935941 0.00414412 0.00344386 0.09003112 0.00994993 0.00732342 0.01264863 0.00130130 
0.03341428 0.07168482 0.00962928 0.00184938 0.00242695 0.00516709 0.00915651 0.00632525 0.03916794 0.00421548 0.00344831 0.09052440 0.01028259 0.00721955 0.01235470 0.00130214 
0.03337260 0.07172142 0.00955619 0.00181141 0.00243227 0.00515753 0.00913431 0.00631770 0.03892675 0.00428706 0.00345136 0.09106120 0.01061445 0.00712073 0.01206755 0.00130303 
0.03344101 0.07175071 0.00947872 0.00177748 0.00243599 0.00514418 0.00910926 0.00630674 0.03863767 0.00435880 0.00345307 0.09164135 0.01094415 0.00702776 0.01178915 0.00130396 
0.03361526 0.07177230 0.00939703 0.00174785 0.00243824 0.00512714 0.00908157 0.00629254 0.03830274 0.00443065 0.00345351 0.09226445 0.01127035 0.00694144 0.01152144 0.00130494 
0.03389050 0.07178595 0.00931132 0.00172273 0.00243915 0.00510651 0.00905150 0.00627531 0.03792428 0.00450257 0.00345275 0.09292990 0.01159176 0.00686252 0.01126638 0.00130598 
0.03426141 0.07179157 0.00922182 0.00170235 0.00243886 0.00508241 0.00901930 0.00625521 0.03750477 0.00457449 0.00345087 0.09363689 0.01190709 0.00679176 0.01102589 0.00130707 
0.03472217 0.07178925 0.00912876 0.00168690 0.00243752 0.00505496 0.00898522 0.00623247 0.03704696 0.00464633 0.00344797 0.09438439 0.01221513 0.00672983 0.01080184 0.00130822 
0.03526655 0.07177927 0.00903242 0.00167656 0.00243526 0.00502431 0.00894955 0.00620727 0.03655375 0.00471803 0.00344413 0.09517114 0.01251469 0.00667741 0.01059606 0.00130943 
0.03588792 0.07176204 0.00893309 0.00167149 0.00243223 0.00499059 0.00891258 0.00617983 0.03602821 0.00478948 0.00343945 0.09599570 0.01280467 0.00663509 0.01041034 0.00131071 
0.03657930 0.07173817 0.00883107 0.00167182 0.00242859 0.00495395 0.00887458 0.00615036 0.03547361 0.00486059 0.00343403 0.09685639 0.01308400 0.00660345 0.01024637 0.00131204 
0.03733344 0.07170840 0.00872670 0.00167765 0.00242447 0.00491456 0.00883586 0.00611909 0.03489331 0.00493127 0.00342799 0.09775136 0.01335169 0.00658298 0.01010576 0.00131344 
0.03814282 0.07167367 0.00862030 0.00168907 0.00242002 0.00487257 0.00879672 0.00608622 0.03429081 0.00500139 0.00342142 0.09867853 0.01360684 0.00657414 0.00999006 0.00131490 
0.03899975 0.07163504 0.00851224 0.00170613 0.00241538 0.00482816 0.00875746 0.00605198 0.03366972 0.00507084 0.00341443 0.09963568 0.01384860 0.00657729 0.00990067 0.00131643 
0.03989637 0.07159373 0.00840287 0.00172886 0.00241068 0.00478149 0.00871839 0.00601660 0.03303370 0.00513949 0.00340714 0.10062037 0.01407624 0.00659277 0.00983891 0.00131801 
0.04082473 0.07155110 0.00829256 0.00175726 0.00240607 0.00473276 0.00867980 0.00598031 0.03238649 0.00520720 0.00339967 0.10163001 0.01428910 0.00662080 0.00980596 0.00131964 
0.04177686 0.07150862 0.00818170 0.00179129 0.00240165 0.00468212 0.00864199 0.00594332 0.03173184 0.00527382 0.00339211 0.10266186 0.01448659 0.00666158 0.00980289 0.00132133 
0.04274477 0.07146788 0.00807066 0.00183089 0.00239756 0.00462977 0.00860526 0.00590588 0.03107354 0.00533921 0.00338458 0.10371302 0.01466826 0.00671519 0.00983059 0.00132308 
0.04372052 0.07143058 0.00795982 0.00187595 0.00239391 0.00457588 0.00856990 0.00586821 0.03041534 0.00540320 0.00337720 0.10478047 0.01483373 0.00678166 0.00988985 0.00132487 
0.04469629 0.07139847 0.00784958 0.00192637 0.00239080 0.00452064 0.00853619 0.00583054 0.02976099 0.00546564 0.00337005 0.10586107 0.01498272 0.00686093 0.00998126 0.00132670 
0.04566442 0.07137339 0.00774031 0.00198197 0.00238832 0.00446423 0.00850439 0.00579310 0.02911416 0.00552634 0.00336326 0.10695157 0.01511506 0.00695288 0.01010527 0.00132857 
0.04661743 0.07135722 0.00763240 0.00204257 0.00238655 0.00440682 0.00847476 0.00575613 0.02847846 0.00558513 0.00335690 0.10804862 0.01523066 0.00705730 0.01026217 0.00133047 
0.04754810 0.07135186 0.00752623 0.00210796 0.00238558 0.00434859 0.00844755 0.00571985 0.02785741 0.00564185 0.00335108 0.10914882 0.01532955 0.00717390 0.01045206 0.00133240 
0.04844947 0.07135923 0.00742217 0.00217788 0.00238547 0.00428973 0.00842299 0.00568450 0.02725441 0.00569629 0.00334588 0.11024868 0.01541187 0.00730232 0.01067487 0.00133434 
0.04931494 0.07138124 0.00732058 0.00225206 0.00238627 0.00423039 0.00840129 0.00565031 0.02667271 0.00574829 0.00334138 0.11134467 0.01547782 0.00744212 0.01093036 0.00133631 
0.05013825 0.07141973 0.00722183 0.00233020 0.00238802 0.00417075 0.00838265 0.00561750 0.02611543 0.00579765 0.00333765 0.11243323 0.01552772 0.00759280 0.01121809 0.00133828 
0.05091356 0.07147655 0.00712625 0.00241198 0.00239076 0.00411097 0.00836724 0.00558630 0.02558551 0.00584419 0.00333475 0.11351079 0.01556199 0.00775377 0.01153745 0.00134025 
0.05163545 0.07155340 0.00703420 0.00249703 0.00239450 0.00405120 0.00835524 0.00555694 0.02508573 0.00588773 0.00333274 0.11457376 0.01558111 0.00792439 0.01188767 0.00134221 
0.05229897 0.07165195 0.00694599 0.00258499 0.00239925 0.00399161 0.00834676 0.00552964 0.02461862 0.00592809 0.00333167 0.11561856 0.01558568 0.00810395 0.01226775 0.00134416 
0.05289965 0.07177370 0.00686193 0.00267547 0.00240502 0.00393233 0.00834193 0.00550462 0.02418656 0.00596508 0.00333156 0.11664166 0.01557634 0.00829167 0.01267656 0.00134609 
0.05343357 0.07192004 0.00678233 0.00276805 0.00241178 0.00387351 0.00834083 0.00548208 0.02379165 0.00599852 0.00333245 0.11763955 0.01555384 0.00848675 0.01311277 0.00134799 
0.05389729 0.07209220 0.00670747 0.00286231 0.00241951 0.00381528 0.00834355 0.00546226 0.02343578 0.00602827 0.00333434 0.11860877 0.01551899 0.00868829 0.01357489 0.00134985 
0.05428796 0.07229122 0.00663761 0.00295780 0.00242818 0.00375778 0.00835012 0.00544534 0.02312062 0.00605413 0.00333726 0.11954594 0.01547264 0.00889538 0.01406127 0.00135166 
0.05460328 0.07251794 0.00657300 0.00305407 0.00243773 0.00370112 0.00836056 0.00543154 0.02284755 0.00607598 0.00334118 0.12044776 0.01541572 0.00910705 0.01457009 0.00135343 
0.05484152 0.07277302 0.00651388 0.00315067 0.00244812 0.00364541 0.00837488 0.00542104 0.02261771 0.00609365 0.00334609 0.12131101 0.01534921 0.00932232 0.01509939 0.00135513 
0.05500155 0.07305686 0.00646045 0.00324713 0.00245928 0.00359077 0.00839304 0.00541404 0.02243200 0.00610701 0.00335196 0.12213259 0.01527410 0.00954016 0.01564706 0.00135676 
0.05508279 0.07336963 0.00641292 0.00334297 0.00247114 0.00353730 0.00841500 0.00541070 0.02229102 0.00611593 0.00335876 0.12290952 0.01519147 0.00975952 0.01621087 0.00135832 
0.05508525 0.07371126 0.00637145 0.00343774 0.00248360 0.00348508 0.00844067 0.00541121 0.02219516 0.00612031 0.00336643 0.12363893 0.01510236 0.00997935 0.01678847 0.00135980 
0.05500953 0.07408141 0.00633619 0.00353096 0.00249659 0.00343421 0.00846997 0.00541572 0.02214450 0.00612003 0.00337491 0.12431811 0.01500788 0.01019857 0.01737738 0.00136119 
0.05485677 0.07447946 0.00630728 0.00362217 0.00251001 0.00338477 0.00850276 0.00542439 0.02213890 0.00611501 0.00338413 0.12494450 0.01490913 0.01041611 0.01797506 0.00136248 
0.05462868 0.07490453 0.00628482 0.00371092 0.00252375 0.00333682 0.00853891 0.00543734 0.02217796 0.00610518 0.00339402 0.12551569 0.01480720 0.01063092 0.01857885 0.00136367 
0.05432750 0.07535546 0.00626889 0.00379677 0.00253770 0.00329043 0.00857826 0.00545470 0.02226102 0.00609048 0.00340447 0.12602946 0.01470320 0.01084192 0.01918605 0.00136475 
0.05395597 0.07583081 0.00625955 0.00387929 0.00255176 0.00324567 0.00862061 0.00547659 0.02238720 0.00607087 0.00341540 0.12648375 0.01459821 0.01104809 0.01979387 0.00136571 
0.05351735 0.07632886 0.00625684 0.00395807 0.00256580 0.00320258 0.00866576 0.00550309 0.02255539 0.00604631 0.00342669 0.12687670 0.01449329 0.01124840 0.02039951 0.00136656 
0.05301535 0.07684761 0.00626076 0.00403272 0.00257970 0.00316121 0.00871349 0.00553430 0.02276427 0.00601681 0.00343823 0.12720665 0.01438947 0.01144189 0.02100012 0.00136728 
0.05245412 0.07738483 0.00627131 0.00410286 0.00259335 0.00312160 0.00876357 0.00557026 0.02301229 0.00598237 0.00344989 0.12747214 0.01428774 0.01162760 0.02159287 0.00136788 
0.05183823 0.07793798 0.00628842 0.00416814 0.00260662 0.00308378 0.00881574 0.00561104 0.02329774 0.00594302 0.00346154 0.12767192 0.01418906 0.01180462 0.02217491 0.00136834 
0.05117262 0.07850431 0.00631205 0.00422825 0.00261939 0.00304779 0.00886973 0.00565664 0.02361872 0.00589880 0.00347306 0.12780496 0.01409432 0.01197212 0.02274341 0.00136867 
0.05046255 0.07908082 0.00634208 0.00428288 0.00263152 0.00301364 0.00892527 0.00570709 0.02397316 0.00584978 0.00348430 0.12787047 0.01400438 0.01212928 0.02329560 0.00136885 
0.04971360 0.07966431 0.00637839 0.00433178 0.00264291 0.00298136 0.00898207 0.00576236 0.02435886 0.00579603 0.00349513 0.12786787 0.01392001 0.01227537 0.02382875 0.00136890 
0.04893159 0.08025136 0.00642084 0.00437470 0.00265343 0.00295095 0.00903984 0.00582242 0.02477349 0.00573767 0.00350538 0.12779682 0.01384192 0.01240971 0.02434018 0.00136881 
0.04812259 0.08083840 0.00646925 0.00441145 0.00266296 0.00292242 0.00909826 0.00588722 0.02521459 0.00567480 0.00351493 0.12765721 0.01377076 0.01253169 0.02482735 0.00136858 
0.04729282 0.08142168 0.00652340 0.00444186 0.00267139 0.00289578 0.00915705 0.00595667 0.02567962 0.00560756 0.00352361 0.12744919 0.01370709 0.01264078 0.02528776 0.00136820 
0.04644862 0.08199733 0.00658307 0.00446579 0.00267861 0.00287103 0.00921588 0.00603069 0.02616598 0.00553612 0.00353129 0.12717314 0.01365140 0.01273652 0.02571906 0.00136767 
0.04559644 0.08256137 0.00664799 0.00448316 0.00268452 0.00284815 0.00927445 0.00610913 0.02667099 0.00546064 0.00353782 0.12682969 0.01360409 0.01281852 0.02611903 0.00136701 
0.04474277 0.08310975 0.00671787 0.00449390 0.00268901 0.00282715 0.00933246 0.00619187 0.02719193 0.00538132 0.00354305 0.12641971 0.01356547 0.01288649 0.02648558 0.00136620 
0.04389408 0.08363836 0.00679242 0.00449799 0.00269199 0.00280800 0.00938959 0.00627872 0.02772609 0.00529835 0.00354686 0.12594432 0.01353578 0.01294020 0.02681679 0.00136525 
0.04305681 0.08414308 0.00687128 0.00449544 0.00269338 0.00279068 0.00944554 0.00636950 0.02827071 0.00521197 0.00354909 0.12540489 0.01351515 0.01297952 0.02711090 0.00136417 
0.04223729 0.08461980 0.00695410 0.00448631 0.00269310 0.00277519 0.00950004 0.00646400 0.02882310 0.00512241 0.00354963 0.12480303 0.01350365 0.01300439 0.02736633 0.00136295 
0.04144171 0.08506446 0.00704050 0.00447069 0.00269107 0.00276149 0.00955278 0.00656197 0.02938055 0.00502992 0.00354836 0.12414059 0.01350123 0.01301486 0.02758170 0.00136160 
0.04067611 0.08547305 0.00713006 0.00444870 0.00268725 0.00274955 0.00960350 0.00666315 0.02994043 0.00493478 0.00354515 0.12341965 0.01350778 0.01301103 0.02775583 0.00136012 
0.03994627 0.08584169 0.00722237 0.00442050 0.00268157 0.00273935 0.00965194 0.00676727 0.03050018 0.00483725 0.00353991 0.12264254 0.01352309 0.01299310 0.02788773 0.00135851 
0.03925773 0.08616663 0.00731697 0.00438629 0.00267399 0.00273085 0.00969784 0.00687404 0.03105730 0.00473763 0.00353253 0.12181179 0.01354686 0.01296136 0.02797665 0.00135679 
0.03861572 0.08644430 0.00741341 0.00434631 0.00266449 0.00272402 0.00974097 0.00698312 0.03160938 0.00463623 0.00352294 0.12093018 0.01357873 0.01291616 0.02802205 0.00135495 
0.03802515 0.08667130 0.00751121 0.00430081 0.00265303 0.00271880 0.00978111 0.00709418 0.03215414 0.00453334 0.00351106 0.12000069 0.01361826 0.01285794 0.02802362 0.00135301 
0.03749053 0.08684451 0.00760988 0.00425010 0.00263960 0.00271517 0.00981807 0.00720687 0.03268940 0.00442930 0.00349683 0.11902649 0.01366492 0.01278722 0.02798126 0.00135096 
0.03701599 0.08696103 0.00770893 0.00419449 0.00262421 0.00271307 0.00985165 0.00732083 0.03321312 0.00432442 0.00348020 0.11801095 0.01371812 0.01270456 0.02789513 0.00134882 
0.03660522 0.08701826 0.00780784 0.00413434 0.00260686 0.00271245 0.00988169 0.00743566 0.03372338 0.00421903 0.00346112 0.11695765 0.01377721 0.01261061 0.02776559 0.00134658 
0.03626147 0.08701391 0.00790611 0.00407002 0.00258757 0.00271327 0.00990805 0.00755098 0.03421844 0.00411348 0.00343959 0.11587029 0.01384148 0.01250609 0.02759326 0.00134426 
0.03598750 0.08694604 0.00800322 0.00400195 0.00256636 0.00271546 0.00993060 0.00766637 0.03469668 0.00400810 0.00341560 0.11475278 0.01391018 0.01239174 0.02737897 0.00134187 
0.03578555 0.08681307 0.00809866 0.00393053 0.00254329 0.00271897 0.00994923 0.00778144 0.03515667 0.00390322 0.00338914 0.11360912 0.01398248 0.01226838 0.02712378 0.00133941 
0.03565738 0.08661378 0.00819192 0.00385621 0.00251840 0.00272373 0.00996387 0.00789575 0.03559710 0.00379920 0.00336024 0.11244349 0.01405753 0.01213688 0.02682895 0.00133689 
0.03560422 0.08634737 0.00828250 0.00377945 0.00249176 0.00272969 0.00997444 0.00800888 0.03601688 0.00369636 0.00332893 0.11126014 0.01413446 0.01199812 0.02649597 0.00133431 
0.03562673 0.08601346 0.00836990 0.00370073 0.00246343 0.00273676 0.00998090 0.00812042 0.03641505 0.00359504 0.00329528 0.11006344 0.01421235 0.01185303 0.02612654 0.00133169 
0.03572506 0.08561207 0.00845364 0.00362051 0.00243350 0.00274490 0.00998323 0.00822992 0.03679083 0.00349557 0.00325933 0.10885782 0.01429027 0.01170258 0.02572254 0.00132903 
0.03589882 0.08514369 0.00853327 0.00353930 0.00240205 0.00275401 0.00998143 0.00833698 0.03714360 0.00339829 0.00322118 0.10764779 0.01436726 0.01154774 0.02528603 0.00132634 
0.03614705 0.08460923 0.00860833 0.00345759 0.00236920 0.00276402 0.00997551 0.00844116 0.03747292 0.00330350 0.00318091 0.10643789 0.01444238 0.01138949 0.02481925 0.00132363 
0.03646829 0.08401006 0.00867840 0.00337587 0.00233505 0.00277486 0.00996552 0.00854206 0.03777849 0.00321152 0.00313864 0.10523267 0.01451467 0.01122885 0.02432460 0.00132090 
0.03686052 0.08334799 0.00874310 0.00329466 0.00229973 0.00278643 0.00995150 0.00863927 0.03806018 0.00312264 0.00309449 0.10403669 0.01458318 0.01106679 0.02380463 0.00131817 
0.03732124 0.08262529 0.00880205 0.00321444 0.00226335 0.00279867 0.00993352 0.00873239 0.03831800 0.00303716 0.00304859 0.10285449 0.01464698 0.01090432 0.02326201 0.00131545 
0.03784742 0.08184468 0.00885492 0.00313570 0.00222605 0.00281147 0.00991169 0.00882106 0.03855210 0.00295535 0.00300108 0.10169056 0.01470515 0.01074241 0.02269954 0.00131273 
0.03843558 0.08100930 0.00890142 0.00305894 0.00218798 0.00282475 0.00988609 0.00890490 0.03876278 0.00287747 0.00295214 0.10054934 0.01475679 0.01058201 0.02212009 0.00131004 
0.03908177 0.08012271 0.00894128 0.00298461 0.00214928 0.00283842 0.00985684 0.00898357 0.03895044 0.00280378 0.00290192 0.09943518 0.01480105 0.01042407 0.02152666 0.00130737 
0.03978161 0.07918890 0.00897429 0.00291319 0.00211010 0.00285239 0.00982409 0.00905674 0.03911562 0.00273449 0.00285062 0.09835232 0.01483710 0.01026948 0.02092226 0.00130474 
0.04053032 0.07821223 0.00900026 0.00284510 0.00207061 0.00286655 0.00978796 0.00912409 0.03925894 0.00266984 0.00279841 0.09730489 0.01486416 0.01011910 0.02031000 0.00130214 
0.04132278 0.07719745 0.00901908 0.00278079 0.00203097 0.00288082 0.00974861 0.00918535 0.03938112 0.00261000 0.00274550 0.09629685 0.01488149 0.00997375 0.01969297 0.00129960 
0.04215350 0.07614965 0.00903065 0.00272064 0.00199134 0.00289509 0.00970621 0.00924025 0.03948298 0.00255517 0.00269208 0.09533202 0.01488841 0.00983420 0.01907431 0.00129712 
0.04301670 0.07507425 0.00903495 0.00266505 0.00195189 0.00290926 0.00966091 0.00928856 0.03956538 0.00250550 0.00263838 0.09441401 0.01488430 0.00970116 0.01845712 0.00129469 
0.04390635 0.07397696 0.00903200 0.00261437 0.00191280 0.00292324 0.00961291 0.00933006 0.03962924 0.00246112 0.00258459 0.09354625 0.01486857 0.00957530 0.01784450 0.00129234 
0.04481620 0.07286376 0.00902186 0.00256893 0.00187423 0.00293693 0.00956236 0.00936459 0.03967556 0.00242216 0.00253095 0.09273192 0.01484073 0.00945720 0.01723950 0.00129007 
0.04573983 0.07174086 0.00900466 0.00252904 0.00183637 0.00295023 0.00950946 0.00939197 0.03970532 0.00238870 0.00247767 0.09197399 0.01480033 0.00934740 0.01664508 0.00128788 
0.04667066 0.07061466 0.00898057 0.00249496 0.00179937 0.00296304 0.00945439 0.00941209 0.03971955 0.00236082 0.00242498 0.09127515 0.01474699 0.00924636 0.01606416 0.00128578 
0.04760206 0.06949175 0.00894984 0.00246693 0.00176341 0.00297528 0.00939733 0.00942486 0.03971929 0.00233857 0.00237309 0.09063783 0.01468040 0.00915446 0.01549954 0.00128377 
0.04852731 0.06837881 0.00891275 0.00244518 0.00172867 0.00298683 0.00933846 0.00943020 0.03970555 0.00232197 0.00232222 0.09006417 0.01460033 0.00907202 0.01495390 0.00128186 
0.04943972 0.06728262 0.00886963 0.00242987 0.00169529 0.00299762 0.00927795 0.00942810 0.03967935 0.00231103 0.00227259 0.08955601 0.01450661 0.00899928 0.01442981 0.00128006 
0.05033265 0.06621001 0.00882089 0.00242114 0.00166345 0.00300756 0.00921599 0.00941854 0.03964166 0.00230574 0.00222441 0.08911489 0.01439915 0.00893640 0.01392969 0.00127837 
0.05119952 0.06516780 0.00876696 0.00241911 0.00163330 0.00301656 0.00915275 0.00940156 0.03959342 0.00230604 0.00217789 0.08874204 0.01427791 0.00888347 0.01345578 0.00127680 
0.05203391 0.06416279 0.00870834 0.00242384 0.00160499 0.00302455 0.00908837 0.00937720 0.03953552 0.00231188 0.00213323 0.08843833 0.01414296 0.00884049 0.01301018 0.00127534 
0.05282957 0.06320167 0.00864557 0.00243538 0.00157866 0.00303145 0.00902303 0.00934557 0.03946880 0.00232317 0.00209062 0.08820434 0.01399440 0.00880739 0.01259479 0.00127401 
0.05358047 0.06229104 0.00857924 0.00245372 0.00155444 0.00303719 0.00895686 0.00930677 0.03939402 0.00233981 0.00205025 0.08804027 0.01383242 0.00878404 0.01221132 0.00127280 
0.05428085 0.06143731 0.00850999 0.00247883 0.00153247 0.00304171 0.00889000 0.00926095 0.03931188 0.00236165 0.00201228 0.08794602 0.01365728 0.00877020 0.01186127 0.00127172 
0.05492525 0.06064670 0.00843849 0.00251065 0.00151286 0.00304496 0.00882259 0.00920828 0.03922299 0.00238855 0.00197689 0.08792113 0.01346929 0.00876560 0.01154594 0.00127077 
0.05550853 0.05992517 0.00836545 0.00254908 0.00149571 0.00304689 0.00875473 0.00914896 0.03912787 0.00242034 0.00194422 0.08796478 0.01326884 0.00876986 0.01126641 0.00126996 
0.05602595 0.05927840 0.00829160 0.00259397 0.00148112 0.00304745 0.00868654 0.00908321 0.03902697 0.00245683 0.00191441 0.08807584 0.01305636 0.00878256 0.01102353 0.00126928 
0.05647317 0.05871175 0.00821774 0.00264517 0.00146919 0.00304662 0.00861810 0.00901128 0.03892063 0.00249781 0.00188759 0.08825284 0.01283236 0.00880320 0.01081792 0.00126874 
0.05684629 0.05823020 0.00814464 0.00270246 0.00145997 0.00304437 0.00854951 0.00893344 0.03880909 0.00254306 0.00186387 0.08849397 0.01259739 0.00883124 0.01064998 0.00126834 
0.05714187 0.05783836 0.00807315 0.00276563 0.00145354 0.00304069 0.00848083 0.00884997 0.03869251 0.00259232 0.00184333 0.08879710 0.01235207 0.00886606 0.01051987 0.00126808 
0.05735698 0.05754040 0.00800408 0.00283442 0.00144993 0.00303558 0.00841212 0.00876119 0.03857095 0.00264535 0.00182607 0.08915979 0.01209703 0.00890701 0.01042751 0.00126795 
0.05748920 0.05734001 0.00793828 0.00290853 0.00144918 0.00302904 0.00834344 0.00866741 0.03844436 0.00270188 0.00181214 0.08957930 0.01183299 0.00895338 0.01037262 0.00126797 
0.05753662 0.05724041 0.00787661 0.00298767 0.00145132 0.00302109 0.00827481 0.00856899 0.03831261 0.00276160 0.00180160 0.09005259 0.01156067 0.00900443 0.01035467 0.00126813 
0.05749792 0.05724431 0.00781992 0.00307149 0.00145634 0.00301175 0.00820627 0.00846627 0.03817548 0.00282424 0.00179447 0.09057637 0.01128087 0.00905937 0.01037290 0.00126842 
0.05737231 0.05735388 0.00776906 0.00315965 0.00146424 0.00300107 0.00813783 0.00835963 0.03803265 0.00288948 0.00179077 0.09114707 0.01099438 0.00911739 0.01042636 0.00126885 
0.05715959 0.05757072 0.00772487 0.00325176 0.00147499 0.00298909 0.00806950 0.00824944 0.03788375 0.00295701 0.00179050 0.09176087 0.01070205 0.00917765 0.01051388 0.00126941 
0.05686012 0.05789587 0.00768816 0.00334744 0.00148856 0.00297588 0.00800128 0.00813609 0.03772832 0.00302651 0.00179364 0.09241375 0.01040474 0.00923930 0.01063407 0.00127011 
0.05647486 0.05832979 0.00765974 0.00344627 0.00150488 0.00296150 0.00793315 0.00801998 0.03756581 0.00309764 0.00180015 0.09310146 0.01010334 0.00930146 0.01078539 0.00127094 
0.05600533 0.05887233 0.00764037 0.00354784 0.00152390 0.00294603 0.00786510 0.00790149 0.03739565 0.00317008 0.00180998 0.09381960 0.00979875 0.00936327 0.01096608 0.00127190 
0.05545362 0.05952275 0.00763080 0.00365172 0.00154552 0.00292957 0.00779709 0.00778104 0.03721721 0.00324350 0.00182307 0.09456358 0.00949189 0.00942385 0.01117423 0.00127298 
0.05482239 0.06027971 0.00763173 0.00375746 0.00156964 0.00291222 0.00772911 0.00765903 0.03702980 0.00331754 0.00183933 0.09532868 0.00918369 0.00948232 0.01140778 0.00127418 
0.05411486 0.06114125 0.00764380 0.00386462 0.00159617 0.00289409 0.00766110 0.00753586 0.03683272 0.00339189 0.00185866 0.09611007 0.00887508 0.00953783 0.01166453 0.00127550 
0.05333476 0.06210484 0.00766764 0.00397276 0.00162496 0.00287530 0.00759304 0.00741194 0.03662524 0.00346621 0.00188095 0.09690283 0.00856700 0.00958953 0.01194214 0.00127693 
0.05248636 0.06316733 0.00770378 0.00408143 0.00165587 0.00285599 0.00752489 0.00728766 0.03640664 0.00354016 0.00190607 0.09770197 0.00826039 0.00963661 0.01223817 0.00127847 
0.05157442 0.06432503 0.00775272 0.00419017 0.00168876 0.00283629 0.00745659 0.00716343 0.03617618 0.00361343 0.00193390 0.09850248 0.00795618 0.00967827 0.01255009 0.00128012 
0.05060417 0.06557367 0.00781489 0.00429854 0.00172347 0.00281634 0.00738810 0.00703962 0.03593313 0.00368569 0.00196426 0.09929932 0.00765529 0.00971375 0.01287528 0.00128186 
0.04958127 0.06690843 0.00789065 0.00440611 0.00175980 0.00279631 0.00731940 0.00691663 0.03567682 0.00375664 0.00199701 0.10008748 0.00735865 0.00974234 0.01321107 0.00128369 
0.04851182 0.06832401 0.00798029 0.00451245 0.00179758 0.00277635 0.00725042 0.00679482 0.03540658 0.00382598 0.00203197 0.10086198 0.00706716 0.00976336 0.01355474 0.00128561 
0.04740229 0.06981458 0.00808401 0.00461715 0.00183660 0.00275663 0.00718115 0.00667456 0.03512179 0.00389341 0.00206896 0.10161793 0.00678170 0.00977618 0.01390357 0.00128761 
0.04625948 0.07137388 0.00820195 0.00471978 0.00187667 0.00273731 0.00711155 0.00655621 0.03482192 0.00395866 0.00210779 0.10235051 0.00650315 0.00978023 0.01425479 0.00128968 
0.04509052 0.07299521 0.00833416 0.00481997 0.00191756 0.00271858 0.00704159 0.00644009 0.03450647 0.00402146 0.00214827 0.10305506 0.00623234 0.00977498 0.01460568 0.00129181 
0.04390281 0.07467148 0.00848060 0.00491734 0.00195906 0.00270060 0.00697125 0.00632655 0.03417505 0.00408157 0.00219018 0.10372704 0.00597012 0.00975999 0.01495353 0.00129401 
0.04270399 0.07639524 0.00864116 0.00501154 0.00200094 0.00268356 0.00690054 0.00621590 0.03382732 0.00413875 0.00223332 0.10436209 0.00571727 0.00973485 0.01529569 0.00129625 
0.04150186 0.07815874 0.00881562 0.00510222 0.00204297 0.00266762 0.00682944 0.00610842 0.03346308 0.00419278 0.00227749 0.10495609 0.00547457 0.00969924 0.01562956 0.00129854 
0.04030441 0.07995396 0.00900369 0.00518909 0.00208490 0.00265298 0.00675796 0.00600442 0.03308221 0.00424346 0.00232247 0.10550510 0.00524276 0.00965289 0.01595262 0.00130086 
0.03911970 0.08177263 0.00920498 0.00527183 0.00212651 0.00263979 0.00668613 0.00590416 0.03268470 0.00429060 0.00236805 0.10600546 0.00502254 0.00959561 0.01626247 0.00130321 
0.03795587 0.08360634 0.00941901 0.00535020 0.00216756 0.00262823 0.00661398 0.00580788 0.03227066 0.00433404 0.00241400 0.10645378 0.00481461 0.00952728 0.01655681 0.00130558 
0.03682107 0.08544653 0.00964522 0.00542394 0.00220781 0.00261848 0.00654155 0.00571583 0.03184035 0.00437364 0.00246013 0.10684696 0.00461959 0.00944785 0.01683346 0.00130797 
0.03572344 0.08728454 0.00988297 0.00549285 0.00224702 0.00261068 0.00646891 0.00562821 0.03139411 0.00440926 0.00250622 0.10718223 0.00443809 0.00935735 0.01709040 0.00131035 
0.03467102 0.08911170 0.01013151 0.00555672 0.00228496 0.00260499 0.00639611 0.00554524 0.03093245 0.00444080 0.00255206 0.10745715 0.00427068 0.00925589 0.01732574 0.00131273 
0.03367175 0.09091935 0.01039003 0.00561541 0.00232141 0.00260157 0.00632327 0.00546709 0.03045600 0.00446817 0.00259745 0.10766965 0.00411790 0.00914362 0.01753780 0.00131509 
0.03273342 0.09269890 0.01065763 0.00566878 0.00235614 0.00260054 0.00625046 0.00539391 0.02996552 0.00449131 0.00264221 0.10781800 0.00398021 0.00902081 0.01772504 0.00131744 
0.03186359 0.09444186 0.01093334 0.00571672 0.00238893 0.00260203 0.00617781 0.00532586 0.02946190 0.00451017 0.00268613 0.10790089 0.00385809 0.00888776 0.01788614 0.00131975 
0.03106962 0.09613992 0.01121610 0.00575915 0.00241958 0.00260617 0.00610545 0.00526305 0.02894618 0.00452472 0.00272903 0.10791739 0.00375191 0.00874488 0.01801995 0.00132202 
0.03035855 0.09778497 0.01150482 0.00579602 0.00244789 0.00261304 0.00603353 0.00520559 0.02841951 0.00453495 0.00277076 0.10786700 0.00366206 0.00859261 0.01812555 0.00132425 
0.02973712 0.09936917 0.01179831 0.00582731 0.00247367 0.00262275 0.00596220 0.00515356 0.02788319 0.00454088 0.00281113 0.10774962 0.00358883 0.00843149 0.01820223 0.00132643 
0.02921169 0.10088496 0.01209533 0.00585302 0.00249676 0.00263537 0.00589164 0.00510703 0.02733861 0.00454254 0.00285001 0.10756558 0.00353251 0.00826211 0.01824949 0.00132854 
0.02878824 0.10232516 0.01239460 0.00587318 0.00251698 0.00265096 0.00582204 0.00506603 0.02678729 0.00453998 0.00288725 0.10731566 0.00349331 0.00808512 0.01826705 0.00133058 
0.02847233 0.10368295 0.01269480 0.00588785 0.00253420 0.00266958 0.00575360 0.00503060 0.02623088 0.00453326 0.00292273 0.10700105 0.00347141 0.00790123 0.01825487 0.00133254 
0.02826903 0.10495194 0.01299456 0.00589710 0.00254827 0.00269124 0.00568654 0.00500074 0.02567108 0.00452248 0.00295632 0.10662340 0.00346694 0.00771120 0.01821311 0.00133442 
0.02818296 0.10612621 0.01329247 0.00590103 0.00255909 0.00271596 0.00562109 0.00497643 0.02510973 0.00450773 0.00298793 0.10618476 0.00347999 0.00751586 0.01814218 0.00133621 
0.02821819 0.10720031 0.01358712 0.00589977 0.00256655 0.00274375 0.00555747 0.00495764 0.02454872 0.00448913 0.00301746 0.10568765 0.00351058 0.00731607 0.01804270 0.00133791 
0.02837828 0.10816935 0.01387706 0.00589347 0.00257057 0.00277458 0.00549595 0.00494432 0.02399001 0.00446681 0.00304484 0.10513498 0.00355870 0.00711273 0.01791550 0.00133950 
0.02866620 0.10902896 0.01416085 0.00588228 0.00257109 0.00280842 0.00543677 0.00493639 0.02343564 0.00444092 0.00307001 0.10453008 0.00362429 0.00690680 0.01776163 0.00134099 
0.02908437 0.10977534 0.01443705 0.00586638 0.00256807 0.00284521 0.00538020 0.00493375 0.02288768 0.00441163 0.00309291 0.10387669 0.00370723 0.00669924 0.01758235 0.00134236 
0.02963458 0.11040529 0.01470422 0.00584598 0.00256146 0.00288489 0.00532651 0.00493631 0.02234822 0.00437909 0.00311352 0.10317893 0.00380736 0.00649107 0.01737913 0.00134362 
0.03031805 0.11091622 0.01496092 0.00582128 0.00255128 0.00292735 0.00527597 0.00494393 0.02181939 0.00434349 0.00313181 0.10244128 0.00392445 0.00628332 0.01715360 0.00134476 
0.03113535 0.11130613 0.01520578 0.00579250 0.00253753 0.00297251 0.00522885 0.00495646 0.02130331 0.00430503 0.00314778 0.10166859 0.00405827 0.00607703 0.01690759 0.00134578 
0.03208643 0.11157368 0.01543742 0.00575989 0.00252025 0.00302023 0.00518544 0.00497375 0.02080210 0.00426389 0.00316144 0.10086602 0.00420848 0.00587327 0.01664310 0.00134667 
0.03317063 0.11171812 0.01565452 0.00572367 0.00249948 0.00307038 0.00514601 0.00499560 0.02031785 0.00422029 0.00317280 0.10003905 0.00437473 0.00567311 0.01636227 0.00134743 
0.03438663 0.11173935 0.01585582 0.00568411 0.00247529 0.00312281 0.00511083 0.00502184 0.01985261 0.00417444 0.00318190 0.09919344 0.00455661 0.00547761 0.01606741 0.00134807 
0.03573249 0.11163787 0.01604008 0.00564146 0.00244779 0.00317735 0.00508016 0.00505223 0.01940837 0.00412655 0.00318878 0.09833519 0.00475367 0.00528783 0.01576091 0.00134857 
0.03720566 0.11141479 0.01620617 0.00559597 0.00241707 0.00323382 0.00505426 0.00508656 0.01898706 0.00407685 0.00319351 0.09747054 0.00496541 0.00510484 0.01544533 0.00134895 
0.03880294 0.11107183 0.01635301 0.00554790 0.00238327 0.00329203 0.00503338 0.00512459 0.01859053 0.00402556 0.00319614 0.09660589 0.00519126 0.00492967 0.01512327 0.00134919 
0.04052055 0.11061129 0.01647959 0.00549752 0.00234653 0.00335177 0.00501776 0.00516605 0.01822053 0.00397290 0.00319677 0.09574783 0.00543064 0.00476334 0.01479744 0.00134931 
0.04235410 0.11003602 0.01658502 0.00544508 0.00230701 0.00341283 0.00500762 0.00521070 0.01787870 0.00391910 0.00319547 0.09490304 0.00568291 0.00460685 0.01447061 0.00134930 
0.04429864 0.10934941 0.01666846 0.00539084 0.00226489 0.00347499 0.00500317 0.00525824 0.01756655 0.00386437 0.00319235 0.09407830 0.00594739 0.00446115 0.01414557 0.00134916 
0.04634864 0.10855535 0.01672920 0.00533505 0.00222037 0.00353801 0.00500458 0.00530840 0.01728546 0.00380894 0.00318752 0.09328044 0.00622336 0.00432716 0.01382515 0.00134891 
0.04849805 0.10765822 0.01676662 0.00527795 0.00217365 0.00360166 0.00501203 0.00536087 0.01703667 0.00375303 0.00318107 0.09251627 0.00651006 0.00420577 0.01351218 0.00134853 
0.05074029 0.10666284 0.01678021 0.00521978 0.00212495 0.00366569 0.00502567 0.00541535 0.01682125 0.00369685 0.00317314 0.09179259 0.00680668 0.00409780 0.01320948 0.00134804 
0.05306830 0.10557444 0.01676959 0.00516077 0.00207451 0.00372985 0.00504560 0.00547153 0.01664010 0.00364060 0.00316385 0.09111610 0.00711240 0.00400404 0.01291983 0.00134743 
0.05547456 0.10439863 0.01673447 0.00510114 0.00202258 0.00379389 0.00507192 0.00552909 0.01649397 0.00358450 0.00315332 0.09049342 0.00742635 0.00392521 0.01264596 0.00134672 
0.05795114 0.10314133 0.01667469 0.00504109 0.00196940 0.00385757 0.00510469 0.00558771 0.01638339 0.00352874 0.00314168 0.08993096 0.00774763 0.00386197 0.01239052 0.00134591 
0.06048968 0.10180877 0.01659023 0.00498082 0.00191523 0.00392063 0.00514394 0.00564708 0.01630872 0.00347350 0.00312907 0.08943496 0.00807531 0.00381492 0.01215609 0.00134501 
0.06308150 0.10040743 0.01648116 0.00492052 0.00186036 0.00398282 0.00518967 0.00570685 0.01627013 0.00341896 0.00311563 0.08901141 0.00840846 0.00378457 0.01194513 0.00134401 
0.06571757 0.09894397 0.01634771 0.00486035 0.00180504 0.00404391 0.00524185 0.00576672 0.01626756 0.00336531 0.00310147 0.08866601 0.00874609 0.00377139 0.01175997 0.00134294 
0.06838858 0.09742523 0.01619021 0.00480048 0.00174957 0.00410364 0.00530040 0.00582635 0.01630079 0.00331270 0.00308675 0.08840414 0.00908721 0.00377575 0.01160281 0.00134178 
0.07108498 0.09585816 0.01600912 0.00474106 0.00169421 0.00416180 0.00536522 0.00588543 0.01636935 0.00326128 0.00307158 0.08823081 0.00943083 0.00379794 0.01147568 0.00134056 
0.07379702 0.09424977 0.01580504 0.00468221 0.00163926 0.00421814 0.00543617 0.00594363 0.01647260 0.00321120 0.00305609 0.08815063 0.00977591 0.00383819 0.01138046 0.00133928 
0.07651478 0.09260709 0.01557867 0.00462406 0.00158498 0.00427247 0.00551306 0.00600066 0.01660968 0.00316260 0.00304042 0.08816776 0.01012144 0.00389662 0.01131883 0.00133794 
0.07922822 0.09093715 0.01533084 0.00456671 0.00153167 0.00432457 0.00559567 0.00605620 0.01677952 0.00311560 0.00302467 0.08828590 0.01046638 0.00397329 0.01129226 0.00133655 
0.08192725 0.08924690 0.01506249 0.00451025 0.00147958 0.00437425 0.00568375 0.00610998 0.01698088 0.00307030 0.00300895 0.08850823 0.01080970 0.00406815 0.01130203 0.00133513 
0.08460171 0.08754317 0.01477469 0.00445478 0.00142900 0.00442133 0.00577700 0.00616170 0.01721230 0.00302682 0.00299338 0.08883740 0.01115037 0.00418109 0.01134919 0.00133367 
0.08724150 0.08583267 0.01446859 0.00440035 0.00138018 0.00446564 0.00587509 0.00621109 0.01747215 0.00298525 0.00297806 0.08927550 0.01148736 0.00431188 0.01143457 0.00133219 
0.08983654 0.08412191 0.01414546 0.00434703 0.00133337 0.00450704 0.00597764 0.00625790 0.01775862 0.00294567 0.00296307 0.08982401 0.01181966 0.00446023 0.01155876 0.00133069 
0.09237689 0.08241717 0.01380668 0.00429486 0.00128883 0.00454538 0.00608424 0.00630189 0.01806973 0.00290814 0.00294849 0.09048380 0.01214627 0.00462575 0.01172209 0.00132918 
0.09485273 0.08072447 0.01345368 0.00424388 0.00124678 0.00458054 0.00619446 0.00634284 0.01840334 0.00287274 0.00293440 0.09125513 0.01246622 0.00480797 0.01192468 0.00132767 
0.09725446 0.07904956 0.01308802 0.00419412 0.00120745 0.00461243 0.00630781 0.00638054 0.01875717 0.00283951 0.00292087 0.09213760 0.01277855 0.00500633 0.01216635 0.00132616 
0.09957272 0.07739785 0.01271129 0.00414561 0.00117104 0.00464095 0.00642379 0.00641479 0.01912881 0.00280849 0.00290794 0.09313013 0.01308232 0.00522019 0.01244672 0.00132467 
0.10179840 0.07577441 0.01232518 0.00409835 0.00113774 0.00466604 0.00654186 0.00644544 0.01951571 0.00277972 0.00289567 0.09423102 0.01337665 0.00544885 0.01276513 0.00132319 
0.10392276 0.07418394 0.01193144 0.00405236 0.00110774 0.00468765 0.00666145 0.00647234 0.01991524 0.00275322 0.00288408 0.09543785 0.01366067 0.00569150 0.01312067 0.00132174 
0.10593740 0.07263074 0.01153185 0.00400764 0.00108118 0.00470574 0.00678197 0.00649537 0.02032466 0.00272901 0.00287320 0.09674758 0.01393356 0.00594728 0.01351220 0.00132031 
0.10783432 0.07111872 0.01112824 0.00396420 0.00105822 0.00472031 0.00690281 0.00651441 0.02074118 0.00270709 0.00286305 0.09815646 0.01419454 0.00621526 0.01393833 0.00131892 
0.10960600 0.06965135 0.01072248 0.00392202 0.00103898 0.00473135 0.00702333 0.00652941 0.02116194 0.00268746 0.00285362 0.09966011 0.01444286 0.00649444 0.01439743 0.00131757 
0.11124537 0.06823167 0.01031645 0.00388111 0.00102357 0.00473889 0.00714289 0.00654030 0.02158404 0.00267012 0.00284492 0.10125351 0.01467786 0.00678377 0.01488767 0.00131626 
0.11274588 0.06686230 0.00991206 0.00384146 0.00101206 0.00474296 0.00726083 0.00654706 0.02200457 0.00265505 0.00283692 0.10293099 0.01489890 0.00708213 0.01540697 0.00131501 
0.11410155 0.06554539 0.00951120 0.00380307 0.00100453 0.00474363 0.00737648 0.00654968 0.02242061 0.00264222 0.00282960 0.10468630 0.01510540 0.00738836 0.01595308 0.00131380 
0.11530695 0.06428266 0.00911577 0.00376593 0.00100102 0.00474097 0.00748917 0.00654820 0.02282927 0.00263162 0.00282292 0.10651260 0.01529685 0.00770126 0.01652354 0.00131264 
0.11635728 0.06307539 0.00872765 0.00373005 0.00100155 0.00473506 0.00759823 0.00654266 0.02322770 0.00262321 0.00281684 0.10840251 0.01547280 0.00801960 0.01711570 0.00131155 
0.11724837 0.06192442 0.00834868 0.00369543 0.00100614 0.00472600 0.00770298 0.00653315 0.02361308 0.00261695 0.00281131 0.11034813 0.01563286 0.00834212 0.01772678 0.00131051 
0.11797670 0.06083016 0.00798068 0.00366208 0.00101475 0.00471392 0.00780278 0.00651976 0.02398269 0.00261280 0.00280628 0.11234108 0.01577670 0.00866751 0.01835383 0.00130953 
0.11853943 0.05979263 0.00762541 0.00363000 0.00102735 0.00469895 0.00789698 0.00650262 0.02433390 0.00261071 0.00280166 0.11437257 0.01590406 0.00899449 0.01899378 0.00130862 
0.11893441 0.05881141 0.00728459 0.00359921 0.00104389 0.00468122 0.00798494 0.00648189 0.02466418 0.00261065 0.00279740 0.11643338 0.01601477 0.00932175 0.01964345 0.00130777 
0.11916021 0.05788574 0.00695985 0.00356973 0.00106428 0.00466089 0.00806607 0.00645774 0.02497115 0.00261254 0.00279342 0.11851400 0.01610871 0.00964796 0.02029957 0.00130697 
0.11921612 0.05701449 0.00665276 0.00354160 0.00108842 0.00463812 0.00813978 0.00643039 0.02525256 0.00261635 0.00278963 0.12060460 0.01618582 0.00997184 0.02095880 0.00130624 
0.11910214 0.05619616 0.00636482 0.00351484 0.00111620 0.00461309 0.00820554 0.00640006 0.02550634 0.00262201 0.00278595 0.12269514 0.01624614 0.01029209 0.02161775 0.00130557 
0.11881901 0.05542898 0.00609741 0.00348950 0.00114748 0.00458597 0.00826282 0.00636700 0.02573058 0.00262947 0.00278229 0.12477538 0.01628977 0.01060745 0.02227299 0.00130496 
0.11836820 0.05471087 0.00585183 0.00346561 0.00118210 0.00455695 0.00831115 0.00633148 0.02592357 0.00263866 0.00277855 0.12683498 0.01631686 0.01091669 0.02292111 0.00130441 
0.11775194 0.05403949 0.00562927 0.00344324 0.00121990 0.00452623 0.00835011 0.00629379 0.02608383 0.00264952 0.00277466 0.12886356 0.01632767 0.01121862 0.02355869 0.00130391 
0.11697315 0.05341229 0.00543081 0.00342243 0.00126067 0.00449399 0.00837932 0.00625426 0.02621007 0.00266199 0.00277052 0.13085073 0.01632250 0.01151209 0.02418234 0.00130346 
0.11603548 0.05282648 0.00525740 0.00340326 0.00130423 0.00446044 0.00839845 0.00621319 0.02630126 0.00267600 0.00276603 0.13278617 0.01630172 0.01179601 0.02478876 0.00130307 
0.11494328 0.05227916 0.00510988 0.00338578 0.00135034 0.00442577 0.00840722 0.00617096 0.02635658 0.00269149 0.00276111 0.13465972 0.01626578 0.01206933 0.02537470 0.00130272 
0.11370162 0.05176724 0.00498895 0.00337007 0.00139879 0.00439019 0.00840542 0.00612790 0.02637549 0.00270839 0.00275567 0.13646141 0.01621517 0.01233110 0.02593701 0.00130242 
0.11231619 0.05128757 0.00489520 0.00335620 0.00144932 0.00435389 0.00839290 0.00608440 0.02635770 0.00272664 0.00274963 0.13818153 0.01615047 0.01258041 0.02647268 0.00130215 
0.11079338 0.05083689 0.00482905 0.00334425 0.00150169 0.00431707 0.00836955 0.00604085 0.02630317 0.00274617 0.00274290 0.13981072 0.01607230 0.01281645 0.02697882 0.00130192 
0.10914016 0.05041194 0.00479081 0.00333431 0.00155563 0.00427991 0.00833537 0.00599763 0.02621214 0.00276691 0.00273543 0.14133998 0.01598133 0.01303850 0.02745271 0.00130173 
0.10736413 0.05000942 0.00478064 0.00332645 0.00161087 0.00424262 0.00829038 0.00595514 0.02608512 0.00278880 0.00272713 0.14276080 0.01587829 0.01324591 0.02789181 0.00130157 
0.10547345 0.04962610 0.00479855 0.00332076 0.00166714 0.00420537 0.00823471 0.00591380 0.02592289 0.00281176 0.00271794 0.14406515 0.01576396 0.01343813 0.02829375 0.00130143 
0.10347678 0.04925875 0.00484443 0.00331731 0.00172416 0.00416833 0.00816852 0.00587402 0.02572649 0.00283572 0.00270782 0.14524561 0.01563915 0.01361471 0.02865640 0.00130131 
0.10138330 0.04890428 0.00491801 0.00331618 0.00178164 0.00413169 0.00809207 0.00583620 0.02549723 0.00286063 0.00269671 0.14629534 0.01550472 0.01377531 0.02897784 0.00130121 
0.09920264 0.04855968 0.00501888 0.00331744 0.00183930 0.00409559 0.00800568 0.00580075 0.02523670 0.00288640 0.00268457 0.14720820 0.01536156 0.01391967 0.02925639 0.00130112 
0.09694484 0.04822211 0.00514652 0.00332118 0.00189686 0.00406020 0.00790974 0.00576809 0.02494672 0.00291298 0.00267139 0.14797876 0.01521059 0.01404766 0.02949062 0.00130104 
0.09462031 0.04788887 0.00530024 0.00332744 0.00195403 0.00402565 0.00780471 0.00573861 0.02462937 0.00294028 0.00265712 0.14860234 0.01505274 0.01415926 0.02967935 0.00130097 
0.09223977 0.04755748 0.00547925 0.00333629 0.00201053 0.00399208 0.00769110 0.00571270 0.02428696 0.00296823 0.00264178 0.14907508 0.01488898 0.01425452 0.02982168 0.00130090 
0.08981421 0.04722564 0.00568262 0.00334778 0.00206608 0.00395961 0.00756952 0.00569076 0.02392206 0.00299678 0.00262534 0.14939394 0.01472029 0.01433363 0.02991698 0.00130084 
0.08735488 0.04689133 0.00590929 0.00336195 0.00212043 0.00392835 0.00744061 0.00567315 0.02353740 0.00302583 0.00260783 0.14955674 0.01454764 0.01439689 0.02996490 0.00130076 
0.08487315 0.04655274 0.00615811 0.00337882 0.00217330 0.00389840 0.00730508 0.00566022 0.02313596 0.00305532 0.00258927 0.14956218 0.01437201 0.01444468 0.02996538 0.00130069 
0.08238054 0.04620834 0.00642780 0.00339842 0.00222444 0.00386986 0.00716371 0.00565233 0.02272088 0.00308517 0.00256967 0.14940987 0.01419440 0.01447750 0.02991864 0.00130060 
0.07988863 0.04585690 0.00671699 0.00342076 0.00227361 0.00384280 0.00701732 0.00564979 0.02229546 0.00311532 0.00254909 0.14910033 0.01401577 0.01449593 0.02982518 0.00130050 
0.07740900 0.04549744 0.00702421 0.00344582 0.00232058 0.00381727 0.00686677 0.00565291 0.02186318 0.00314567 0.00252758 0.14863497 0.01383707 0.01450067 0.02968579 0.00130039 
0.07495322 0.04512933 0.00734791 0.00347359 0.00236513 0.00379335 0.00671299 0.00566196 0.02142762 0.00317616 0.00250519 0.14801615 0.01365926 0.01449249 0.02950154 0.00130027 
0.07253271 0.04475221 0.00768646 0.00350402 0.00240706 0.00377106 0.00655692 0.00567721 0.02099249 0.00320670 0.00248199 0.14724713 0.01348325 0.01447226 0.02927375 0.00130012 
0.07015879 0.04436602 0.00803816 0.00353708 0.00244618 0.00375045 0.00639956 0.00569889 0.02056158 0.00323722 0.00245807 0.14633206 0.01330993 0.01444091 0.02900404 0.00129996 
0.06784253 0.04397105 0.00840128 0.00357268 0.00248232 0.00373152 0.00624192 0.00572719 0.02013873 0.00326764 0.00243351 0.14527595 0.01314015 0.01439945 0.02869427 0.00129978 
0.06559476 0.04356786 0.00877399 0.00361075 0.00251533 0.00371428 0.00608505 0.00576231 0.01972786 0.00329787 0.00240841 0.14408471 0.01297473 0.01434897 0.02834653 0.00129958 
0.06342600 0.04315733 0.00915447 0.00365119 0.00254506 0.00369874 0.00592999 0.00580438 0.01933287 0.00332784 0.00238289 0.14276502 0.01281445 0.01429060 0.02796317 0.00129937 
0.06134640 0.04274063 0.00954086 0.00369388 0.00257141 0.00368487 0.00577781 0.00585352 0.01895768 0.00335747 0.00235704 0.14132440 0.01266004 0.01422551 0.02754673 0.00129913 
0.05936568 0.04231922 0.00993126 0.00373869 0.00259427 0.00367267 0.00562958 0.00590982 0.01860618 0.00338667 0.00233099 0.13977106 0.01251218 0.01415494 0.02709996 0.00129887 
0.05749311 0.04189483 0.01032381 0.00378546 0.00261356 0.00366208 0.00548637 0.00597332 0.01828219 0.00341537 0.00230488 0.13811394 0.01237150 0.01408013 0.02662582 0.00129859 
0.05573744 0.04146946 0.01071661 0.00383403 0.00262924 0.00365308 0.00534923 0.00604405 0.01798948 0.00344348 0.00227882 0.13636264 0.01223857 0.01400237 0.02612739 0.00129829 
0.05410688 0.04104537 0.01110780 0.00388421 0.00264125 0.00364561 0.00521920 0.00612199 0.01773169 0.00347093 0.00225296 0.13452731 0.01211392 0.01392293 0.02560794 0.00129797 
0.05260901 0.04062502 0.01149554 0.00393582 0.00264958 0.00363961 0.00509730 0.00620710 0.01751236 0.00349764 0.00222744 0.13261865 0.01199799 0.01384312 0.02507084 0.00129764 
0.05125081 0.04021110 0.01187804 0.00398863 0.00265425 0.00363503 0.00498452 0.00629928 0.01733485 0.00352354 0.00220241 0.13064785 0.01189119 0.01376421 0.02451957 0.00129728 
0.05003855 0.03980649 0.01225355 0.00404242 0.00265527 0.00363179 0.00488181 0.00639843 0.01720239 0.00354854 0.00217800 0.12862644 0.01179384 0.01368748 0.02395771 0.00129692 
0.04897782 0.03941423 0.01262037 0.00409696 0.00265269 0.00362981 0.00479007 0.00650439 0.01711797 0.00357259 0.00215437 0.12656633 0.01170621 0.01361415 0.02338887 0.00129654 
0.04807346 0.03903751 0.01297687 0.00415198 0.00264657 0.00362903 0.00471015 0.00661698 0.01708441 0.00359560 0.00213167 0.12447966 0.01162851 0.01354545 0.02281673 0.00129615 
0.04732953 0.03867964 0.01332151 0.00420724 0.00263701 0.00362934 0.00464288 0.00673599 0.01710427 0.00361753 0.00211004 0.12237875 0.01156088 0.01348252 0.02224496 0.00129575 
0.04674933 0.03834402 0.01365282 0.00426246 0.00262411 0.00363068 0.00458898 0.00686116 0.01717985 0.00363830 0.00208964 0.12027600 0.01150339 0.01342648 0.02167723 0.00129534 
0.04633534 0.03803411 0.01396944 0.00431736 0.00260799 0.00363294 0.00454913 0.00699223 0.01731321 0.00365787 0.00207059 0.11818388 0.01145605 0.01337835 0.02111718 0.00129493 
0.04608921 0.03775343 0.01427011 0.00437167 0.00258879 0.00363604 0.00452394 0.00712887 0.01750608 0.00367618 0.00205306 0.11611475 0.01141882 0.01333911 0.02056839 0.00129451 
0.04601176 0.03750549 0.01455366 0.00442509 0.00256667 0.00363988 0.00451394 0.00727076 0.01775992 0.00369319 0.00203716 0.11408088 0.01139157 0.01330966 0.02003437 0.00129409 
0.04610297 0.03729380 0.01481907 0.00447734 0.00254181 0.00364437 0.00451958 0.00741754 0.01807587 0.00370886 0.00202304 0.11209431 0.01137415 0.01329078 0.01951851 0.00129367 
0.04636199 0.03712180 0.01506541 0.00452813 0.00251439 0.00364941 0.00454121 0.00756882 0.01845473 0.00372316 0.00201082 0.11016678 0.01136632 0.01328319 0.01902409 0.00129326 
0.04678710 0.03699289 0.01529191 0.00457716 0.00248462 0.00365493 0.00457913 0.00772419 0.01889697 0.00373606 0.00200062 0.10830968 0.01136780 0.01328749 0.01855426 0.00129285 
0.04737576 0.03691036 0.01549790 0.00462415 0.00245272 0.00366081 0.00463352 0.00788322 0.01940271 0.00374755 0.00199255 0.10653397 0.01137825 0.01330419 0.01811198 0.00129245 
0.04812461 0.03687735 0.01568287 0.00466883 0.00241891 0.00366699 0.00470448 0.00804547 0.01997174 0.00375762 0.00198671 0.10485010 0.01139728 0.01333368 0.01770005 0.00129205 
0.04902945 0.03689688 0.01584644 0.00471091 0.00238343 0.00367336 0.00479200 0.00821046 0.02060346 0.00376626 0.00198321 0.10326794 0.01142447 0.01337624 0.01732105 0.00129167 
0.05008532 0.03697176 0.01598838 0.00475014 0.00234652 0.00367985 0.00489600 0.00837772 0.02129696 0.00377350 0.00198213 0.10179672 0.01145934 0.01343202 0.01697735 0.00129131 
0.05128646 0.03710462 0.01610859 0.00478625 0.00230844 0.00368638 0.00501630 0.00854676 0.02205092 0.00377934 0.00198353 0.10044500 0.01150138 0.01350107 0.01667111 0.00129096 
0.05262638 0.03729784 0.01620713 0.00481902 0.00226944 0.00369286 0.00515261 0.00871708 0.02286371 0.00378381 0.00198750 0.09922057 0.01155003 0.01358331 0.01640421 0.00129063 
0.05409789 0.03755356 0.01628419 0.00484820 0.00222979 0.00369924 0.00530456 0.00888817 0.02373332 0.00378696 0.00199408 0.09813041 0.01160473 0.01367855 0.01617830 0.00129032 
0.05569309 0.03787366 0.01634010 0.00487358 0.00218975 0.00370544 0.00547168 0.00905952 0.02465742 0.00378883 0.00200332 0.09718069 0.01166485 0.01378645 0.01599474 0.00129003 
0.05740346 0.03825970 0.01637535 0.00489499 0.00214958 0.00371139 0.00565342 0.00923062 0.02563333 0.00378947 0.00201525 0.09637667 0.01172976 0.01390659 0.01585464 0.00128977 
0.05921989 0.03871296 0.01639055 0.00491223 0.00210955 0.00371704 0.00584912 0.00940096 0.02665804 0.00378895 0.00202989 0.09572270 0.01179883 0.01403841 0.01575881 0.00128954 
0.06113269 0.03923438 0.01638644 0.00492516 0.00206993 0.00372235 0.00605805 0.00957002 0.02772824 0.00378737 0.00204725 0.09522218 0.01187137 0.01418123 0.01570777 0.00128933 
0.06313171 0.03982457 0.01636390 0.00493364 0.00203097 0.00372725 0.00627940 0.00973732 0.02884031 0.00378479 0.00206732 0.09487756 0.01194671 0.01433429 0.01570175 0.00128916 
0.06520630 0.04048378 0.01632393 0.00493757 0.00199292 0.00373170 0.00651228 0.00990236 0.02999035 0.00378132 0.00209010 0.09469030 0.01202417 0.01449669 0.01574071 0.00128901 
0.06734546 0.04121192 0.01626765 0.00493686 0.00195603 0.00373567 0.00675573 0.01006465 0.03117420 0.00377707 0.00211555 0.09466085 0.01210305 0.01466746 0.01582430 0.00128890 
0.06953781 0.04200850 0.01619629 0.00493145 0.00192054 0.00373913 0.00700872 0.01022373 0.03238744 0.00377216 0.00214363 0.09478872 0.01218268 0.01484553 0.01595187 0.00128883 
0.07177171 0.04287270 0.01611117 0.00492131 0.00188669 0.00374205 0.00727014 0.01037915 0.03362544 0.00376671 0.00217429 0.09507238 0.01226236 0.01502973 0.01612251 0.00128879 
0.07403530 0.04380330 0.01601372 0.00490643 0.00185468 0.00374440 0.00753886 0.01053047 0.03488334 0.00376087 0.00220748 0.09550936 0.01234144 0.01521883 0.01633501 0.00128879 
0.07631655 0.04479870 0.01590546 0.00488684 0.00182472 0.00374617 0.00781367 0.01067728 0.03615613 0.00375476 0.00224311 0.09609620 0.01241924 0.01541153 0.01658792 0.00128883 
0.07860335 0.04585694 0.01578798 0.00486257 0.00179702 0.00374735 0.00809332 0.01081919 0.03743864 0.00374855 0.00228111 0.09682855 0.01249513 0.01560646 0.01687951 0.00128891 
0.08088353 0.04697569 0.01566292 0.00483371 0.00177175 0.00374793 0.00837655 0.01095583 0.03872554 0.00374240 0.00232138 0.09770112 0.01256847 0.01580221 0.01720779 0.00128903 
0.08314499 0.04815225 0.01553200 0.00480035 0.00174906 0.00374790 0.00866205 0.01108685 0.04001144 0.00373646 0.00236383 0.09870775 0.01263868 0.01599733 0.01757056 0.00128920 
0.08537569 0.04938356 0.01539698 0.00476262 0.00172913 0.00374726 0.00894847 0.01121195 0.04129085 0.00373092 0.00240832 0.09984148 0.01270517 0.01619033 0.01796538 0.00128941 
0.08756378 0.05066623 0.01525964 0.00472068 0.00171206 0.00374603 0.00923449 0.01133082 0.04255823 0.00372593 0.00245476 0.10109456 0.01276740 0.01637971 0.01838963 0.00128966 
0.08969763 0.05199652 0.01512181 0.00467470 0.00169798 0.00374420 0.00951876 0.01144322 0.04380803 0.00372169 0.00250300 0.10245850 0.01282485 0.01656398 0.01884046 0.00128996 
0.09176587 0.05337041 0.01498531 0.00462490 0.00168699 0.00374180 0.00979992 0.01154890 0.04503473 0.00371838 0.00255292 0.10392416 0.01287705 0.01674161 0.01931490 0.00129030 
0.09375752 0.05478353 0.01485197 0.00457149 0.00167916 0.00373883 0.01007664 0.01164767 0.04623281 0.00371616 0.00260437 0.10548178 0.01292354 0.01691112 0.01980980 0.00129069 
0.09566198 0.05623128 0.01472360 0.00451473 0.00167455 0.00373531 0.01034760 0.01173936 0.04739685 0.00371524 0.00265720 0.10712108 0.01296393 0.01707105 0.02032188 0.00129113 
0.09746912 0.05770876 0.01460199 0.00445489 0.00167321 0.00373127 0.01061151 0.01182382 0.04852153 0.00371578 0.00271127 0.10883128 0.01299784 0.01721997 0.02084778 0.00129161 
0.09916933 0.05921085 0.01448889 0.00439226 0.00167514 0.00372672 0.01086710 0.01190095 0.04960163 0.00371798 0.00276641 0.11060124 0.01302496 0.01735650 0.02138403 0.00129214 
0.10075357 0.06073223 0.01438603 0.00432715 0.00168036 0.00372169 0.01111315 0.01197067 0.05063211 0.00372200 0.00282247 0.11241946 0.01304499 0.01747932 0.02192709 0.00129272 
0.10221343 0.06226738 0.01429503 0.00425989 0.00168884 0.00371621 0.01134848 0.01203293 0.05160811 0.00372802 0.00287929 0.11427423 0.01305770 0.01758717 0.02247342 0.00129334 
0.10354117 0.06381061 0.01421749 0.00419081 0.00170055 0.00371031 0.01157197 0.01208770 0.05252497 0.00373621 0.00293671 0.11615367 0.01306290 0.01767889 0.02301942 0.00129401 
0.10472973 0.06535613 0.01415490 0.00412027 0.00171543 0.00370401 0.01178256 0.01213499 0.05337829 0.00374672 0.00299455 0.11804582 0.01306044 0.01775338 0.02356152 0.00129472 
0.10577283 0.06689800 0.01410868 0.00404863 0.00173341 0.00369734 0.01197925 0.01217485 0.05416390 0.00375971 0.00305266 0.11993871 0.01305020 0.01780966 0.02409617 0.00129548 
0.10666496 0.06843025 0.01408012 0.00397627 0.00175439 0.00369033 0.01216113 0.01220733 0.05487794 0.00377532 0.00311087 0.12182048 0.01303214 0.01784685 0.02461989 0.00129628 
0.10740142 0.06994684 0.01407043 0.00390355 0.00177827 0.00368301 0.01232733 0.01223251 0.05551683 0.00379368 0.00316903 0.12367942 0.01300623 0.01786419 0.02512925 0.00129712 
0.10797834 0.07144174 0.01408068 0.00383087 0.00180491 0.00367542 0.01247711 0.01225052 0.05607736 0.00381491 0.00322696 0.12550406 0.01297252 0.01786101 0.02562094 0.00129801 
0.10839272 0.07290892 0.01411183 0.00375860 0.00183418 0.00366758 0.01260978 0.01226147 0.05655663 0.00383913 0.00328453 0.12728330 0.01293107 0.01783680 0.02609176 0.00129893 
0.10864242 0.07434240 0.01416468 0.00368713 0.00186592 0.00365952 0.01272477 0.01226553 0.05695211 0.00386642 0.00334157 0.12900639 0.01288200 0.01779117 0.02653865 0.00129989 
0.10872619 0.07573630 0.01423992 0.00361683 0.00189996 0.00365127 0.01282156 0.01226286 0.05726167 0.00389686 0.00339793 0.13066311 0.01282547 0.01772386 0.02695870 0.00130088 
0.10864367 0.07708484 0.01433807 0.00354808 0.00193611 0.00364286 0.01289979 0.01225364 0.05748355 0.00393052 0.00345348 0.13224376 0.01276168 0.01763477 0.02734920 0.00130191 
0.10839539 0.07838239 0.01445951 0.00348126 0.00197418 0.00363432 0.01295913 0.01223810 0.05761641 0.00396744 0.00350808 0.13373928 0.01269087 0.01752391 0.02770762 0.00130296 
0.10798276 0.07962347 0.01460445 0.00341671 0.00201396 0.00362568 0.01299941 0.01221642 0.05765932 0.00400765 0.00356158 0.13514129 0.01261332 0.01739147 0.02803163 0.00130405 
0.10740807 0.08080284 0.01477296 0.00335478 0.00205524 0.00361695 0.01302054 0.01218886 0.05761177 0.00405116 0.00361387 0.13644216 0.01252935 0.01723776 0.02831915 0.00130516 
0.10667448 0.08191546 0.01496493 0.00329581 0.00209778 0.00360816 0.01302251 0.01215563 0.05747368 0.00409797 0.00366483 0.13763506 0.01243929 0.01706324 0.02856833 0.00130628 
0.10578598 0.08295655 0.01518011 0.00324011 0.00214136 0.00359935 0.01300544 0.01211698 0.05724540 0.00414804 0.00371435 0.13871400 0.01234353 0.01686853 0.02877757 0.00130743 
0.10474739 0.08392163 0.01541806 0.00318798 0.00218574 0.00359051 0.01296954 0.01207316 0.05692771 0.00420134 0.00376232 0.13967390 0.01224247 0.01665437 0.02894552 0.00130859 
0.10356431 0.08480651 0.01567819 0.00313971 0.00223068 0.00358169 0.01291513 0.01202442 0.05652182 0.00425778 0.00380864 0.14051058 0.01213656 0.01642164 0.02907111 0.00130976 
0.10224310 0.08560733 0.01595975 0.00309554 0.00227593 0.00357289 0.01284261 0.01197101 0.05602938 0.00431729 0.00385323 0.14122085 0.01202624 0.01617138 0.02915354 0.00131094 
0.10079084 0.08632059 0.01626184 0.00305573 0.00232124 0.00356413 0.01275249 0.01191319 0.05545242 0.00437976 0.00389600 0.14180249 0.01191200 0.01590473 0.02919229 0.00131212 
0.09921529 0.08694315 0.01658340 0.00302049 0.00236638 0.00355544 0.01264537 0.01185120 0.05479342 0.00444506 0.00393689 0.14225428 0.01179434 0.01562297 0.02918713 0.00131330 
0.09752484 0.08747225 0.01692321 0.00299000 0.00241108 0.00354681 0.01252193 0.01178529 0.05405526 0.00451304 0.00397582 0.14257601 0.01167377 0.01532749 0.02913810 0.00131447 
0.09572846 0.08790555 0.01727993 0.00296443 0.00245511 0.00353828 0.01238295 0.01171570 0.05324117 0.00458354 0.00401275 0.14276847 0.01155082 0.01501980 0.02904552 0.00131562 
0.09383566 0.08824110 0.01765206 0.00294391 0.00249824 0.00352985 0.01222926 0.01164268 0.05235479 0.00465637 0.00404762 0.14283346 0.01142603 0.01470149 0.02890999 0.00131677 
0.09185640 0.08847738 0.01803798 0.00292856 0.00254021 0.00352152 0.01206181 0.01156645 0.05140012 0.00473132 0.00408040 0.14277379 0.01129995 0.01437427 0.02873239 0.00131789 
0.08980109 0.08861330 0.01843596 0.00291846 0.00258081 0.00351333 0.01188157 0.01148722 0.05038146 0.00480818 0.00411105 0.14259321 0.01117312 0.01403991 0.02851386 0.00131898 
0.08768047 0.08864823 0.01884414 0.00291367 0.00261980 0.00350527 0.01168962 0.01140522 0.04930347 0.00488671 0.00413955 0.14229643 0.01104609 0.01370027 0.02825580 0.00132005 
0.08550560 0.08858193 0.01926059 0.00291420 0.00265699 0.00349735 0.01148705 0.01132065 0.04817107 0.00496666 0.00416588 0.14188906 0.01091942 0.01335725 0.02795985 0.00132107 
0.08328774 0.08841465 0.01968325 0.00292007 0.00269216 0.00348958 0.01127503 0.01123370 0.04698949 0.00504774 0.00419004 0.14137759 0.01079364 0.01301281 0.02762790 0.00132206 
0.08103833 0.08814705 0.02011001 0.00293123 0.00272512 0.00348198 0.01105478 0.01114455 0.04576417 0.00512969 0.00421202 0.14076930 0.01066929 0.01266897 0.02726204 0.00132300 
0.07876891 0.08778024 0.02053868 0.00294763 0.00275569 0.00347455 0.01082752 0.01105338 0.04450079 0.00521221 0.00423183 0.14007225 0.01054690 0.01232773 0.02686458 0.00132389 
0.07649106 0.08731575 0.02096703 0.00296919 0.00278370 0.00346731 0.01059455 0.01096034 0.04320522 0.00529498 0.00424948 0.13929519 0.01042697 0.01199115 0.02643804 0.00132472 
0.07421631 0.08675554 0.02139277 0.00299580 0.00280900 0.00346025 0.01035714 0.01086558 0.04188349 0.00537771 0.00426499 0.13844751 0.01031000 0.01166127 0.02598507 0.00132549 
0.07195611 0.08610197 0.02181360 0.00302731 0.00283144 0.00345340 0.01011661 0.01076925 0.04054175 0.00546006 0.00427838 0.13753916 0.01019647 0.01134012 0.02550850 0.00132620 
0.06972171 0.08535781 0.02222719 0.00306356 0.00285091 0.00344677 0.00987427 0.01067147 0.03918628 0.00554171 0.00428969 0.13658055 0.01008682 0.01102970 0.02501131 0.00132683 
0.06752418 0.08452620 0.02263122 0.00310438 0.00286728 0.00344036 0.00963143 0.01057236 0.03782341 0.00562233 0.00429895 0.13558252 0.00998148 0.01073200 0.02449657 0.00132739 
0.06537427 0.08361066 0.02302339 0.00314954 0.00288046 0.00343419 0.00938941 0.01047203 0.03645952 0.00570157 0.00430621 0.13455622 0.00988086 0.01044892 0.02396746 0.00132787 
0.06328237 0.08261504 0.02340140 0.00319882 0.00289037 0.00342827 0.00914949 0.01037058 0.03510100 0.00577912 0.00431150 0.13351301 0.00978533 0.01018234 0.02342721 0.00132827 
0.06125849 0.08154354 0.02376303 0.00325198 0.00289696 0.00342262 0.00891294 0.01026810 0.03375419 0.00585462 0.00431488 0.13246441 0.00969523 0.00993406 0.02287914 0.00132859 
0.05931215 0.08040066 0.02410609 0.00330874 0.00290017 0.00341726 0.00868100 0.01016468 0.03242541 0.00592775 0.00431640 0.13142198 0.00961088 0.00970576 0.02232655 0.00132881 
0.05745237 0.07919117 0.02442845 0.00336882 0.00289997 0.00341220 0.00845486 0.01006039 0.03112086 0.00599819 0.00431613 0.13039724 0.00953254 0.00949908 0.02177280 0.00132894 
0.05568757 0.07792011 0.02472809 0.00343192 0.00289636 0.00340746 0.00823568 0.00995530 0.02984665 0.00606561 0.00431411 0.12940156 0.00946046 0.00931552 0.02122119 0.00132897 
0.05402561 0.07659275 0.02500306 0.00349773 0.00288934 0.00340307 0.00802458 0.00984949 0.02860871 0.00612970 0.00431041 0.12844611 0.00939485 0.00915647 0.02067500 0.00132891 
0.05247365 0.07521458 0.02525154 0.00356592 0.00287893 0.00339904 0.00782260 0.00974301 0.02741280 0.00619017 0.00430511 0.12754172 0.00933586 0.00902321 0.02013747 0.00132875 
0.05103818 0.07379125 0.02547179 0.00363616 0.00286517 0.00339541 0.00763074 0.00963594 0.02626449 0.00624671 0.00429826 0.12669882 0.00928364 0.00891687 0.01961172 0.00132848 
0.04972495 0.07232857 0.02566225 0.00370812 0.00284812 0.00339219 0.00744993 0.00952831 0.02516907 0.00629907 0.00428993 0.12592734 0.00923828 0.00883846 0.01910081 0.00132812 
0.04853898 0.07083249 0.02582145 0.00378144 0.00282783 0.00338942 0.00728101 0.00942020 0.02413160 0.00634697 0.00428021 0.12523666 0.00919981 0.00878883 0.01860766 0.00132765 
0.04748447 0.06930903 0.02594811 0.00385577 0.00280441 0.00338711 0.00712477 0.00931166 0.02315683 0.00639018 0.00426915 0.12463549 0.00916826 0.00876867 0.01813506 0.00132707 
0.04656487 0.06776431 0.02604107 0.00393077 0.00277795 0.00338531 0.00698192 0.00920274 0.02224920 0.00642847 0.00425683 0.12413183 0.00914361 0.00877852 0.01768565 0.00132640 
0.04578279 0.06620446 0.02609936 0.00400609 0.00274856 0.00338404 0.00685307 0.00909351 0.02141281 0.00646164 0.00424332 0.12373287 0.00912578 0.00881878 0.01726188 0.00132563 
0.04514001 0.06463564 0.02612217 0.00408136 0.00271637 0.00338333 0.00673877 0.00898403 0.02065141 0.00648950 0.00422871 0.12344497 0.00911468 0.00888965 0.01686603 0.00132475 
0.04463750 0.06306399 0.02610889 0.00415625 0.00268151 0.00338322 0.00663946 0.00887435 0.01996835 0.00651189 0.00421305 0.12327358 0.00911016 0.00899119 0.01650019 0.00132378 
0.04427540 0.06149562 0.02605905 0.00423041 0.00264416 0.00338373 0.00655550 0.00876457 0.01936660 0.00652868 0.00419642 0.12322317 0.00911206 0.00912326 0.01616622 0.00132271 
0.04405304 0.05993654 0.02597240 0.00430352 0.00260445 0.00338490 0.00648718 0.00865473 0.01884872 0.00653974 0.00417890 0.12329726 0.00912017 0.00928559 0.01586578 0.00132154 
0.04396892 0.05839270 0.02584888 0.00437524 0.00256258 0.00338677 0.00643468 0.00854493 0.01841684 0.00654500 0.00416055 0.12349830 0.00913425 0.00947772 0.01560027 0.00132029 
0.04402077 0.05686992 0.02568858 0.00444527 0.00251871 0.00338935 0.00639810 0.00843523 0.01807265 0.00654438 0.00414145 0.12382772 0.00915402 0.00969901 0.01537090 0.00131895 
0.04420552 0.05537388 0.02549183 0.00451329 0.00247304 0.00339268 0.00637744 0.00832575 0.01781740 0.00653784 0.00412167 0.12428585 0.00917919 0.00994868 0.01517858 0.00131753 
0.04451938 0.05391009 0.02525912 0.00457903 0.00242576 0.00339680 0.00637262 0.00821656 0.01765191 0.00652538 0.00410126 0.12487197 0.00920942 0.01022579 0.01502403 0.00131604 
0.04495783 0.05248387 0.02499114 0.00464220 0.00237708 0.00340172 0.00638350 0.00810776 0.01757651 0.00650701 0.00408031 0.12558428 0.00924438 0.01052924 0.01490768 0.00131447 
0.04551568 0.05110037 0.02468874 0.00470255 0.00232721 0.00340748 0.00640980 0.00799948 0.01759110 0.00648277 0.00405886 0.12641988 0.00928368 0.01085776 0.01482975 0.00131284 
0.04618707 0.04976449 0.02435298 0.00475983 0.00227635 0.00341410 0.00645122 0.00789180 0.01769511 0.00645271 0.00403699 0.12737486 0.00932693 0.01120996 0.01479017 0.00131115 
0.04696557 0.04848089 0.02398509 0.00481382 0.00222472 0.00342159 0.00650734 0.00778487 0.01788754 0.00641695 0.00401476 0.12844427 0.00937372 0.01158431 0.01478866 0.00130941 
0.04784418 0.04725398 0.02358645 0.00486431 0.00217253 0.00342998 0.00657769 0.00767879 0.01816691 0.00637558 0.00399222 0.12962216 0.00942361 0.01197915 0.01482469 0.00130762 
0.04881539 0.04608792 0.02315862 0.00491111 0.00212000 0.00343927 0.00666172 0.00757371 0.01853133 0.00632876 0.00396943 0.13090165 0.00947619 0.01239269 0.01489750 0.00130580 
0.04987124 0.04498658 0.02270330 0.00495407 0.00206735 0.00344948 0.00675881 0.00746975 0.01897848 0.00627664 0.00394645 0.13227493 0.00953099 0.01282304 0.01500610 0.00130394 
0.05100336 0.04395353 0.02222234 0.00499302 0.00201478 0.00346061 0.00686830 0.00736706 0.01950560 0.00621942 0.00392332 0.13373336 0.00958756 0.01326822 0.01514930 0.00130207 
0.05220307 0.04299205 0.02171774 0.00502785 0.00196252 0.00347266 0.00698944 0.00726579 0.02010955 0.00615730 0.00390011 0.13526754 0.00964544 0.01372613 0.01532569 0.00130018 
0.05346138 0.04210514 0.02119161 0.00505844 0.00191076 0.00348562 0.00712146 0.00716609 0.02078680 0.00609051 0.00387686 0.13686731 0.00970418 0.01419463 0.01553367 0.00129828 
0.05476907 0.04129544 0.02064617 0.00508472 0.00185971 0.00349949 0.00726353 0.00706810 0.02153345 0.00601931 0.00385362 0.13852191 0.00976332 0.01467147 0.01577147 0.00129639 
0.05611679 0.04056533 0.02008374 0.00510662 0.00180957 0.00351425 0.00741480 0.00697199 0.02234526 0.00594397 0.00383042 0.14021999 0.00982239 0.01515439 0.01603715 0.00129451 
0.05749507 0.03991683 0.01950675 0.00512410 0.00176052 0.00352987 0.00757435 0.00687792 0.02321767 0.00586476 0.00380733 0.14194976 0.00988096 0.01564106 0.01632861 0.00129265 
0.05889441 0.03935166 0.01891768 0.00513715 0.00171277 0.00354633 0.00774126 0.00678605 0.02414582 0.00578199 0.00378437 0.14369900 0.00993859 0.01612912 0.01664364 0.00129082 
0.06030533 0.03887122 0.01831909 0.00514575 0.00166647 0.00356359 0.00791459 0.00669654 0.02512457 0.00569597 0.00376159 0.14545522 0.00999486 0.01661619 0.01697989 0.00128903 
0.06171846 0.03847659 0.01771359 0.00514992 0.00162180 0.00358160 0.00809337 0.00660957 0.02614853 0.00560702 0.00373902 0.14720570 0.01004934 0.01709991 0.01733493 0.00128729 
0.06312456 0.03816855 0.01710382 0.00514972 0.00157891 0.00360033 0.00827662 0.00652529 0.02721212 0.00551549 0.00371671 0.14893763 0.01010165 0.01757791 0.01770622 0.00128560 
0.06451461 0.03794756 0.01649244 0.00514519 0.00153797 0.00361970 0.00846337 0.00644387 0.02830955 0.00542171 0.00369469 0.15063816 0.01015140 0.01804782 0.01809119 0.00128398 
0.06587986 0.03781375 0.01588213 0.00513642 0.00149909 0.00363967 0.00865265 0.00636547 0.02943489 0.00532603 0.00367298 0.15229452 0.01019824 0.01850735 0.01848719 0.00128243 
0.06721187 0.03776701 0.01527555 0.00512350 0.00146243 0.00366016 0.00884347 0.00629026 0.03058206 0.00522881 0.00365164 0.15389411 0.01024184 0.01895422 0.01889157 0.00128097 
0.06850259 0.03780687 0.01467535 0.00510653 0.00142808 0.00368109 0.00903489 0.00621840 0.03174493 0.00513041 0.00363068 0.15542460 0.01028187 0.01938621 0.01930167 0.00127960 
0.06974441 0.03793262 0.01408415 0.00508566 0.00139616 0.00370238 0.00922597 0.00615004 0.03291728 0.00503119 0.00361014 0.15687399 0.01031806 0.01980120 0.01971481 0.00127832 
0.07093017 0.03814326 0.01350452 0.00506101 0.00136676 0.00372394 0.00941580 0.00608533 0.03409287 0.00493149 0.00359005 0.15823072 0.01035014 0.02019711 0.02012836 0.00127715 
0.07205324 0.03843752 0.01293897 0.00503275 0.00133997 0.00374568 0.00960348 0.00602444 0.03526549 0.00483168 0.00357043 0.15948376 0.01037788 0.02057198 0.02053972 0.00127609 
0.07310757 0.03881388 0.01238994 0.00500104 0.00131585 0.00376749 0.00978816 0.00596749 0.03642894 0.00473211 0.00355132 0.16062264 0.01040107 0.02092395 0.02094637 0.00127516 
0.07408767 0.03927055 0.01185977 0.00496607 0.00129446 0.00378927 0.00996903 0.00591463 0.03757712 0.00463312 0.00353273 0.16163761 0.01041953 0.02125125 0.02134585 0.00127434 
0.07498870 0.03980553 0.01135074 0.00492803 0.00127585 0.00381090 0.01014530 0.00586600 0.03870402 0.00453505 0.00351470 0.16251961 0.01043312 0.02155227 0.02173577 0.00127366 
0.07580648 0.04041657 0.01086499 0.00488712 0.00126006 0.00383227 0.01031624 0.00582172 0.03980380 0.00443821 0.00349725 0.16326040 0.01044171 0.02182551 0.02211389 0.00127312 
0.07653749 0.04110122 0.01040457 0.00484355 0.00124710 0.00385326 0.01048116 0.00578191 0.04087077 0.00434294 0.00348041 0.16385260 0.01044522 0.02206959 0.02247806 0.00127271 
0.07717893 0.04185682 0.00997137 0.00479752 0.00123698 0.00387375 0.01063942 0.00574668 0.04189943 0.00424953 0.00346419 0.16428972 0.01044359 0.02228332 0.02282624 0.00127245 
0.07772867 0.04268051 0.00956718 0.00474928 0.00122972 0.00389361 0.01079043 0.00571614 0.04288454 0.00415826 0.00344863 0.16456621 0.01043678 0.02246563 0.02315658 0.00127234 
0.07818534 0.04356925 0.00919363 0.00469903 0.00122528 0.00391272 0.01093365 0.00569039 0.04382112 0.00406942 0.00343373 0.16467751 0.01042480 0.02261563 0.02346733 0.00127238 
0.07854826 0.04451984 0.00885220 0.00464701 0.00122366 0.00393093 0.01106862 0.00566951 0.04470445 0.00398326 0.00341953 0.16462006 0.01040768 0.02273257 0.02375693 0.00127258 
0.07881748 0.04552890 0.00854421 0.00459346 0.00122481 0.00394814 0.01119488 0.00565358 0.04553016 0.00390002 0.00340604 0.16439132 0.01038547 0.02281588 0.02402397 0.00127293 
0.07899374 0.04659293 0.00827083 0.00453860 0.00122870 0.00396420 0.01131209 0.00564268 0.04629417 0.00381992 0.00339327 0.16398980 0.01035825 0.02286518 0.02426722 0.00127343 
0.07907851 0.04770828 0.00803304 0.00448266 0.00123527 0.00397899 0.01141992 0.00563686 0.04699280 0.00374316 0.00338125 0.16341503 0.01032615 0.02288024 0.02448562 0.00127409 
0.07907391 0.04887116 0.00783168 0.00442588 0.00124446 0.00399239 0.01151811 0.00563617 0.04762274 0.00366994 0.00336999 0.16266760 0.01028930 0.02286101 0.02467829 0.00127491 
0.07898273 0.05007770 0.00766738 0.00436849 0.00125619 0.00400427 0.01160647 0.00564066 0.04818104 0.00360040 0.00335951 0.16174910 0.01024786 0.02280763 0.02484454 0.00127588 
0.07880840 0.05132390 0.00754062 0.00431071 0.00127039 0.00401452 0.01168483 0.00565035 0.04866520 0.00353468 0.00334981 0.16066216 0.01020202 0.02272040 0.02498384 0.00127700 
0.07855492 0.05260568 0.00745170 0.00425276 0.00128698 0.00402303 0.01175312 0.00566527 0.04907313 0.00347292 0.00334090 0.15941035 0.01015199 0.02259980 0.02509587 0.00127828 
0.07822689 0.05391889 0.00740074 0.00419485 0.00130585 0.00402969 0.01181127 0.00568541 0.04940317 0.00341520 0.00333280 0.15799823 0.01009800 0.02244649 0.02518045 0.00127970 
0.07782943 0.05525930 0.00738768 0.00413720 0.00132690 0.00403440 0.01185930 0.00571077 0.04965409 0.00336161 0.00332551 0.15643125 0.01004030 0.02226130 0.02523762 0.00128126 
0.07736811 0.05662262 0.00741229 0.00408000 0.00135004 0.00403707 0.01189726 0.00574134 0.04982513 0.00331219 0.00331902 0.15471574 0.00997916 0.02204522 0.02526755 0.00128297 
0.07684898 0.05800454 0.00747416 0.00402346 0.00137515 0.00403761 0.01192525 0.00577709 0.04991595 0.00326698 0.00331336 0.15285885 0.00991487 0.02179940 0.02527060 0.00128480 
0.07627846 0.05940068 0.00757273 0.00396775 0.00140210 0.00403596 0.01194341 0.00581798 0.04992670 0.00322600 0.00330850 0.15086848 0.00984773 0.02152517 0.02524729 0.00128677 
0.07566330 0.06080666 0.00770726 0.00391305 0.00143079 0.00403204 0.01195192 0.00586396 0.04985793 0.00318923 0.00330444 0.14875325 0.00977805 0.02122399 0.02519828 0.00128885 
0.07501056 0.06221809 0.00787685 0.00385953 0.00146109 0.00402582 0.01195100 0.00591495 0.04971067 0.00315664 0.00330118 0.14652243 0.00970617 0.02089746 0.02512437 0.00129106 
0.07432750 0.06363057 0.00808047 0.00380735 0.00149286 0.00401724 0.01194091 0.00597088 0.04948636 0.00312819 0.00329871 0.14418585 0.00963243 0.02054735 0.02502650 0.00129337 
0.07362156 0.06503971 0.00831691 0.00375665 0.00152598 0.00400628 0.01192191 0.00603166 0.04918688 0.00310381 0.00329700 0.14175385 0.00955716 0.02017551 0.02490573 0.00129578 
0.07290029 0.06644115 0.00858484 0.00370757 0.00156032 0.00399292 0.01189434 0.00609719 0.04881451 0.00308341 0.00329605 0.13923724 0.00948074 0.01978396 0.02476325 0.00129828 
0.07217131 0.06783056 0.00888281 0.00366023 0.00159575 0.00397716 0.01185853 0.00616734 0.04837194 0.00306689 0.00329582 0.13664714 0.00940351 0.01937479 0.02460032 0.00130087 
0.07144223 0.06920365 0.00920921 0.00361475 0.00163213 0.00395901 0.01181483 0.00624198 0.04786222 0.00305413 0.00329629 0.13399501 0.00932585 0.01895022 0.02441832 0.00130353 
0.07072057 0.07055620 0.00956236 0.00357124 0.00166932 0.00393850 0.01176363 0.00632097 0.04728877 0.00304499 0.00329743 0.13129250 0.00924811 0.01851254 0.02421868 0.00130625 
0.07001378 0.07188405 0.00994044 0.00352978 0.00170719 0.00391567 0.01170532 0.00640415 0.04665537 0.00303933 0.00329921 0.12855141 0.00917068 0.01806414 0.02400292 0.00130904 
0.06932907 0.07318313 0.01034155 0.00349045 0.00174562 0.00389057 0.01164031 0.00649134 0.04596607 0.00303698 0.00330158 0.12578361 0.00909390 0.01760744 0.02377259 0.00131186 
0.06867348 0.07444944 0.01076370 0.00345333 0.00178446 0.00386327 0.01156902 0.00658236 0.04522525 0.00303777 0.00330451 0.12300094 0.00901815 0.01714496 0.02352930 0.00131473 
0.06805372 0.07567913 0.01120484 0.00341848 0.00182359 0.00383384 0.01149188 0.00667701 0.04443753 0.00304152 0.00330795 0.12021520 0.00894378 0.01667923 0.02327468 0.00131762 
0.06747618 0.07686843 0.01166283 0.00338594 0.00186287 0.00380240 0.01140931 0.00677506 0.04360776 0.00304803 0.00331184 0.11743803 0.00887115 0.01621282 0.02301037 0.00132053 
0.06694685 0.07801371 0.01213550 0.00335576 0.00190218 0.00376904 0.01132176 0.00687630 0.04274102 0.00305711 0.00331614 0.11468084 0.00880060 0.01574832 0.02273803 0.00132344 
0.06647131 0.07911151 0.01262063 0.00332797 0.00194140 0.00373390 0.01122965 0.00698048 0.04184254 0.00306854 0.00332079 0.11195479 0.00873245 0.01528833 0.02245928 0.00132635 
0.06605465 0.08015848 0.01311595 0.00330258 0.00198041 0.00369710 0.01113343 0.00708735 0.04091768 0.00308211 0.00332572 0.10927068 0.00866704 0.01483543 0.02217574 0.00132924 
0.06570146 0.08115148 0.01361921 0.00327961 0.00201908 0.00365881 0.01103353 0.00719663 0.03997194 0.00309761 0.00333087 0.10663892 0.00860466 0.01439218 0.02188902 0.00133211 
0.06541576 0.08208753 0.01412811 0.00325907 0.00205730 0.00361917 0.01093037 0.00730805 0.03901086 0.00311482 0.00333617 0.10406948 0.00854563 0.01396111 0.02160064 0.00133494 
0.06520102 0.08296387 0.01464038 0.00324095 0.00209497 0.00357836 0.01082438 0.00742131 0.03804005 0.00313351 0.00334156 0.10157183 0.00849020 0.01354469 0.02131211 0.00133773 
0.06506008 0.08377791 0.01515375 0.00322524 0.00213197 0.00353657 0.01071598 0.00753611 0.03706509 0.00315348 0.00334696 0.09915488 0.00843865 0.01314535 0.02102486 0.00134046 
0.06499519 0.08452730 0.01566598 0.00321192 0.00216819 0.00349398 0.01060556 0.00765213 0.03609157 0.00317450 0.00335230 0.09682699 0.00839121 0.01276542 0.02074024 0.00134313 
0.06500792 0.08520993 0.01617484 0.00320098 0.00220355 0.00345080 0.01049354 0.00776905 0.03512498 0.00319636 0.00335749 0.09459588 0.00834812 0.01240716 0.02045956 0.00134572 
0.06509922 0.08582392 0.01667818 0.00319238 0.00223795 0.00340722 0.01038030 0.00788653 0.03417075 0.00321885 0.00336247 0.09246861 0.00830956 0.01207273 0.02018400 0.00134824 
0.06526934 0.08636765 0.01717387 0.00318609 0.00227129 0.00336347 0.01026623 0.00800423 0.03323414 0.00324176 0.00336715 0.09045160 0.00827571 0.01176417 0.01991468 0.00135066 
0.06551791 0.08683975 0.01765987 0.00318208 0.00230349 0.00331975 0.01015169 0.00812178 0.03232029 0.00326489 0.00337146 0.08855054 0.00824674 0.01148340 0.01965261 0.00135299 
0.06584388 0.08723913 0.01813418 0.00318030 0.00233448 0.00327630 0.01003706 0.00823884 0.03143413 0.00328806 0.00337532 0.08677042 0.00822276 0.01123222 0.01939871 0.00135521 
0.06624553 0.08756501 0.01859490 0.00318072 0.00236417 0.00323332 0.00992268 0.00835503 0.03058037 0.00331108 0.00337864 0.08511552 0.00820389 0.01101228 0.01915380 0.00135732 
0.06672054 0.08781686 0.01904022 0.00318327 0.00239250 0.00319105 0.00980891 0.00846999 0.02976346 0.00333377 0.00338136 0.08358937 0.00819020 0.01082506 0.01891857 0.00135930 
0.06726594 0.08799447 0.01946841 0.00318793 0.00241939 0.00314970 0.00969608 0.00858333 0.02898761 0.00335598 0.00338340 0.08219479 0.00818174 0.01067189 0.01869362 0.00136117 
0.06787817 0.08809795 0.01987785 0.00319463 0.00244479 0.00310950 0.00958452 0.00869469 0.02825668 0.00337755 0.00338468 0.08093384 0.00817854 0.01055395 0.01847945 0.00136290 
0.06855310 0.08812770 0.02026701 0.00320333 0.00246865 0.00307065 0.00947455 0.00880367 0.02757425 0.00339835 0.00338514 0.07980789 0.00818059 0.01047220 0.01827642 0.00136450 
0.06928606 0.08808445 0.02063449 0.00321398 0.00249090 0.00303338 0.00936650 0.00890992 0.02694355 0.00341823 0.00338470 0.07881757 0.00818787 0.01042746 0.01808482 0.00136596 
0.07007186 0.08796924 0.02097900 0.00322653 0.00251151 0.00299789 0.00926067 0.00901304 0.02636742 0.00343708 0.00338331 0.07796285 0.00820030 0.01042032 0.01790481 0.00136727 
0.07090488 0.08778344 0.02129938 0.00324092 0.00253044 0.00296437 0.00915738 0.00911267 0.02584837 0.00345481 0.00338090 0.07724299 0.00821781 0.01045121 0.01773645 0.00136844 
0.07177904 0.08752874 0.02159458 0.00325710 0.00254764 0.00293301 0.00905692 0.00920844 0.02538847 0.00347132 0.00337743 0.07665661 0.00824027 0.01052032 0.01757970 0.00136946 
0.07268790 0.08720716 0.02186368 0.00327502 0.00256310 0.00290399 0.00895959 0.00930000 0.02498943 0.00348654 0.00337284 0.07620169 0.00826754 0.01062769 0.01743443 0.00137033 
0.07362469 0.08682105 0.02210590 0.00329464 0.00257678 0.00287748 0.00886570 0.00938699 0.02465253 0.00350040 0.00336709 0.07587563 0.00829946 0.01077311 0.01730041 0.00137105 
0.07458236 0.08637304 0.02232058 0.00331591 0.00258866 0.00285363 0.00877554 0.00946907 0.02437864 0.00351285 0.00336014 0.07567524 0.00833582 0.01095619 0.01717734 0.00137162 
0.07555366 0.08586613 0.02250720 0.00333877 0.00259873 0.00283258 0.00868940 0.00954591 0.02416820 0.00352385 0.00335197 0.07559679 0.00837640 0.01117633 0.01706481 0.00137203 
0.07653114 0.08530358 0.02266536 0.00336318 0.00260698 0.00281446 0.00860759 0.00961720 0.02402125 0.00353340 0.00334255 0.07563607 0.00842095 0.01143272 0.01696237 0.00137230 
0.07750727 0.08468898 0.02279480 0.00338909 0.00261341 0.00279937 0.00853039 0.00968265 0.02393741 0.00354147 0.00333186 0.07578839 0.00846921 0.01172438 0.01686947 0.00137241 
0.07847444 0.08402619 0.02289538 0.00341646 0.00261801 0.00278741 0.00845810 0.00974197 0.02391588 0.00354806 0.00331991 0.07604862 0.00852088 0.01205009 0.01678553 0.00137238 
0.07942508 0.08331937 0.02296712 0.00344524 0.00262079 0.00277866 0.00839102 0.00979490 0.02395546 0.00355321 0.00330668 0.07641127 0.00857564 0.01240847 0.01670990 0.00137221 
0.08035166 0.08257295 0.02301013 0.00347539 0.00262177 0.00277318 0.00832945 0.00984120 0.02405456 0.00355694 0.00329219 0.07687049 0.00863317 0.01279795 0.01664189 0.00137189 
0.08124678 0.08179158 0.02302466 0.00350687 0.00262095 0.00277101 0.00827369 0.00988065 0.02421122 0.00355928 0.00327645 0.07742012 0.00869311 0.01321676 0.01658077 0.00137144 
0.08210324 0.08098018 0.02301107 0.00353962 0.00261836 0.00277217 0.00822403 0.00991306 0.02442310 0.00356029 0.00325950 0.07805374 0.00875510 0.01366299 0.01652579 0.00137085 
0.08291405 0.08014389 0.02296985 0.00357362 0.00261403 0.00277666 0.00818077 0.00993827 0.02468752 0.00356003 0.00324135 0.07876472 0.00881877 0.01413454 0.01647618 0.00137013 
0.08367253 0.07928804 0.02290160 0.00360881 0.00260798 0.00278448 0.00814422 0.00995613 0.02500148 0.00355858 0.00322207 0.07954622 0.00888371 0.01462918 0.01643115 0.00136929 
0.08437236 0.07841814 0.02280702 0.00364514 0.00260025 0.00279559 0.00811467 0.00996653 0.02536166 0.00355602 0.00320169 0.08039129 0.00894953 0.01514452 0.01638990 0.00136834 
0.08500758 0.07753988 0.02268691 0.00368259 0.00259088 0.00280993 0.00809242 0.00996939 0.02576448 0.00355243 0.00318028 0.08129285 0.00901583 0.01567805 0.01635166 0.00136727 
0.08557272 0.07665908 0.02254217 0.00372109 0.00257992 0.00282744 0.00807777 0.00996465 0.02620611 0.00354792 0.00315791 0.08224378 0.00908220 0.01622715 0.01631565 0.00136610 
0.08606276 0.07578166 0.02237378 0.00376061 0.00256742 0.00284803 0.00807100 0.00995229 0.02668246 0.00354259 0.00313465 0.08323693 0.00914822 0.01678908 0.01628111 0.00136482 
0.08647323 0.07491364 0.02218283 0.00380109 0.00255344 0.00287159 0.00807241 0.00993232 0.02718928 0.00353655 0.00311059 0.08426515 0.00921349 0.01736103 0.01624732 0.00136346 
0.08680023 0.07406112 0.02197047 0.00384249 0.00253803 0.00289800 0.00808228 0.00990479 0.02772214 0.00352992 0.00308582 0.08532136 0.00927760 0.01794009 0.01621360 0.00136201 
0.08704045 0.07323021 0.02173790 0.00388475 0.00252125 0.00292713 0.00810087 0.00986977 0.02827646 0.00352281 0.00306044 0.08639854 0.00934014 0.01852330 0.01617928 0.00136048 
0.08719123 0.07242704 0.02148642 0.00392782 0.00250319 0.00295882 0.00812846 0.00982736 0.02884759 0.00351536 0.00303456 0.08748981 0.00940072 0.01910768 0.01614376 0.00135889 
0.08725055 0.07165772 0.02121736 0.00397164 0.00248391 0.00299291 0.00816529 0.00977771 0.02943078 0.00350769 0.00300829 0.08858840 0.00945897 0.01969017 0.01610650 0.00135723 
0.08721706 0.07092832 0.02093210 0.00401616 0.00246349 0.00302921 0.00821162 0.00972099 0.03002126 0.00349993 0.00298175 0.08968776 0.00951451 0.02026775 0.01606699 0.00135552 
0.08709012 0.07024480 0.02063207 0.00406131 0.00244202 0.00306752 0.00826765 0.00965740 0.03061425 0.00349221 0.00295507 0.09078149 0.00956700 0.02083737 0.01602481 0.00135376 
0.08686977 0.06961304 0.02031873 0.00410703 0.00241958 0.00310765 0.00833361 0.00958719 0.03120500 0.00348466 0.00292838 0.09186344 0.00961609 0.02139601 0.01597959 0.00135196 
0.08655678 0.06903876 0.01999356 0.00415325 0.00239625 0.00314939 0.00840968 0.00951061 0.03178883 0.00347740 0.00290181 0.09292771 0.00966149 0.02194069 0.01593104 0.00135013 
0.08615258 0.06852753 0.01965807 0.00419990 0.00237215 0.00319250 0.00849604 0.00942797 0.03236115 0.00347057 0.00287550 0.09396865 0.00970289 0.02246847 0.01587892 0.00134827 
0.08565935 0.06808470 0.01931375 0.00424692 0.00234735 0.00323675 0.00859282 0.00933959 0.03291750 0.00346429 0.00284960 0.09498091 0.00974003 0.02297650 0.01582309 0.00134640 
0.08507992 0.06771539 0.01896212 0.00429423 0.00232197 0.00328192 0.00870015 0.00924582 0.03345359 0.00345868 0.00282425 0.09595944 0.00977267 0.02346200 0.01576348 0.00134452 
0.08441782 0.06742446 0.01860470 0.00434175 0.00229611 0.00332777 0.00881813 0.00914704 0.03396530 0.00345387 0.00279960 0.09689948 0.00980062 0.02392229 0.01570008 0.00134264 
0.08367719 0.06721649 0.01824296 0.00438940 0.00226987 0.00337404 0.00894682 0.00904365 0.03444873 0.00344996 0.00277579 0.09779663 0.00982368 0.02435480 0.01563298 0.00134076 
0.08286285 0.06709574 0.01787839 0.00443711 0.00224337 0.00342049 0.00908625 0.00893607 0.03490025 0.00344708 0.00275299 0.09864681 0.00984172 0.02475710 0.01556233 0.00133889 
0.08198016 0.06706609 0.01751244 0.00448479 0.00221670 0.00346689 0.00923642 0.00882475 0.03531647 0.00344532 0.00273133 0.09944627 0.00985461 0.02512690 0.01548835 0.00133703 
0.08103508 0.06713108 0.01714651 0.00453237 0.00218999 0.00351298 0.00939730 0.00871013 0.03569430 0.00344478 0.00271097 0.10019163 0.00986229 0.02546206 0.01541134 0.00133520 
0.08003406 0.06729385 0.01678198 0.00457975 0.00216335 0.00355852 0.00956881 0.00859271 0.03603099 0.00344555 0.00269206 0.10087986 0.00986470 0.02576061 0.01533168 0.00133340 
0.07898406 0.06755708 0.01642019 0.00462685 0.00213689 0.00360328 0.00975084 0.00847295 0.03632409 0.00344772 0.00267473 0.10150828 0.00986184 0.02602075 0.01524980 0.00133163 
0.07789243 0.06792305 0.01606240 0.00467360 0.00211073 0.00364703 0.00994325 0.00835137 0.03657152 0.00345137 0.00265914 0.10207455 0.00985375 0.02624087 0.01516619 0.00132990 
0.07676692 0.06839354 0.01570984 0.00471990 0.00208498 0.00368954 0.01014583 0.00822846 0.03677156 0.00345657 0.00264541 0.10257672 0.00984047 0.02641956 0.01508141 0.00132821 
0.07561560 0.06896984 0.01536367 0.00476569 0.00205975 0.00373060 0.01035834 0.00810472 0.03692287 0.00346339 0.00263369 0.10301315 0.00982212 0.02655561 0.01499606 0.00132656 
0.07444682 0.06965276 0.01502497 0.00481087 0.00203516 0.00376999 0.01058052 0.00798067 0.03702449 0.00347187 0.00262411 0.10338257 0.00979883 0.02664803 0.01491081 0.00132497 
0.07326913 0.07044256 0.01469477 0.00485536 0.00201132 0.00380752 0.01081203 0.00785682 0.03707588 0.00348206 0.00261678 0.10368405 0.00977077 0.02669603 0.01482635 0.00132343 
0.07209122 0.07133897 0.01437401 0.00489911 0.00198833 0.00384300 0.01105250 0.00773366 0.03707685 0.00349400 0.00261182 0.10391696 0.00973815 0.02669904 0.01474340 0.00132194 
0.07092188 0.07234120 0.01406355 0.00494203 0.00196632 0.00387626 0.01130152 0.00761169 0.03702764 0.00350772 0.00260935 0.10408104 0.00970122 0.02665673 0.01466274 0.00132051 
0.06976994 0.07344788 0.01376418 0.00498406 0.00194537 0.00390714 0.01155862 0.00749141 0.03692889 0.00352325 0.00260947 0.10417631 0.00966024 0.02656897 0.01458513 0.00131914 
0.06864415 0.07465708 0.01347660 0.00502513 0.00192558 0.00393550 0.01182330 0.00737327 0.03678163 0.00354059 0.00261226 0.10420309 0.00961552 0.02643588 0.01451138 0.00131783 
0.06755320 0.07596631 0.01320142 0.00506518 0.00190707 0.00396119 0.01209499 0.00725774 0.03658725 0.00355974 0.00261781 0.10416202 0.00956740 0.02625778 0.01444229 0.00131658 
0.06650560 0.07737253 0.01293916 0.00510417 0.00188991 0.00398410 0.01237312 0.00714526 0.03634755 0.00358071 0.00262621 0.10405397 0.00951623 0.02603521 0.01437865 0.00131540 
0.06550962 0.07887212 0.01269027 0.00514205 0.00187419 0.00400413 0.01265703 0.00703625 0.03606468 0.00360347 0.00263751 0.10388012 0.00946241 0.02576895 0.01432125 0.00131428 
0.06457327 0.08046091 0.01245509 0.00517877 0.00185999 0.00402119 0.01294604 0.00693111 0.03574113 0.00362801 0.00265177 0.10364186 0.00940634 0.02545997 0.01427089 0.00131322 
0.06370418 0.08213419 0.01223386 0.00521431 0.00184739 0.00403522 0.01323943 0.00683020 0.03537974 0.00365430 0.00266903 0.10334084 0.00934847 0.02510947 0.01422829 0.00131222 
0.06290960 0.08388669 0.01202677 0.00524863 0.00183645 0.00404615 0.01353643 0.00673387 0.03498367 0.00368229 0.00268933 0.10297891 0.00928923 0.02471881 0.01419420 0.00131128 
0.06219633 0.08571263 0.01183387 0.00528171 0.00182724 0.00405397 0.01383626 0.00664244 0.03455634 0.00371195 0.00271270 0.10255813 0.00922911 0.02428959 0.01416928 0.00131040 
0.06157062 0.08760574 0.01165517 0.00531355 0.00181981 0.00405863 0.01413807 0.00655620 0.03410147 0.00374322 0.00273913 0.10208075 0.00916856 0.02382355 0.01415416 0.00130958 
0.06103820 0.08955925 0.01149056 0.00534414 0.00181421 0.00406015 0.01444100 0.00647540 0.03362302 0.00377604 0.00276863 0.10154916 0.00910810 0.02332264 0.01414945 0.00130881 
0.06060418 0.09156592 0.01133987 0.00537348 0.00181046 0.00405854 0.01474416 0.00640025 0.03312516 0.00381034 0.00280118 0.10096594 0.00904821 0.02278894 0.01415564 0.00130810 
0.06027303 0.09361808 0.01120281 0.00540159 0.00180861 0.00405381 0.01504663 0.00633096 0.03261226 0.00384605 0.00283676 0.10033378 0.00898940 0.02222469 0.01417321 0.00130744 
0.06004854 0.09570768 0.01107906 0.00542847 0.00180867 0.00404602 0.01534748 0.00626767 0.03208884 0.00388310 0.00287534 0.09965549 0.00893216 0.02163227 0.01420254 0.00130683 
0.05993380 0.09782625 0.01096818 0.00545416 0.00181065 0.00403523 0.01564575 0.00621050 0.03155957 0.00392138 0.00291685 0.09893398 0.00887700 0.02101420 0.01424394 0.00130626 
0.05993113 0.09996501 0.01086970 0.00547868 0.00181456 0.00402151 0.01594047 0.00615954 0.03102921 0.00396083 0.00296124 0.09817225 0.00882441 0.02037308 0.01429764 0.00130574 
0.06004213 0.10211489 0.01078305 0.00550207 0.00182039 0.00400495 0.01623066 0.00611483 0.03050259 0.00400133 0.00300844 0.09737337 0.00877487 0.01971163 0.01436378 0.00130525 
0.06026760 0.10426653 0.01070760 0.00552439 0.00182811 0.00398564 0.01651533 0.00607639 0.02998459 0.00404280 0.00305835 0.09654043 0.00872887 0.01903265 0.01444243 0.00130481 
0.06060756 0.10641037 0.01064268 0.00554567 0.00183771 0.00396371 0.01679351 0.00604419 0.02948008 0.00408512 0.00311088 0.09567659 0.00868684 0.01833899 0.01453353 0.00130439 
0.06106123 0.10853667 0.01058755 0.00556597 0.00184915 0.00393928 0.01706421 0.00601819 0.02899393 0.00412820 0.00316592 0.09478500 0.00864924 0.01763357 0.01463698 0.00130401 
0.06162704 0.11063556 0.01054142 0.00558536 0.00186239 0.00391248 0.01732645 0.00599830 0.02853092 0.00417192 0.00322334 0.09386885 0.00861647 0.01691935 0.01475255 0.00130365 
0.06230264 0.11269711 0.01050348 0.00560389 0.00187736 0.00388347 0.01757929 0.00598440 0.02809578 0.00421617 0.00328302 0.09293128 0.00858893 0.01619931 0.01487992 0.00130331 
0.06308488 0.11471133 0.01047285 0.00562163 0.00189402 0.00385239 0.01782177 0.00597634 0.02769308 0.00426084 0.00334481 0.09197542 0.00856699 0.01547642 0.01501869 0.00130300 
0.06396987 0.11666828 0.01044865 0.00563864 0.00191228 0.00381942 0.01805299 0.00597395 0.02732729 0.00430581 0.00340857 0.09100437 0.00855097 0.01475366 0.01516835 0.00130270 
0.06495296 0.11855808 0.01042994 0.00565501 0.00193207 0.00378471 0.01827205 0.00597702 0.02700266 0.00435096 0.00347412 0.09002117 0.00854117 0.01403400 0.01532832 0.00130241 
0.06602881 0.12037099 0.01041581 0.00567079 0.00195329 0.00374846 0.01847810 0.00598534 0.02672327 0.00439619 0.00354130 0.08902879 0.00853787 0.01332034 0.01549792 0.00130212 
0.06719136 0.12209742 0.01040529 0.00568605 0.00197586 0.00371083 0.01867032 0.00599865 0.02649295 0.00444136 0.00360993 0.08803015 0.00854128 0.01261558 0.01567637 0.00130185 
0.06843394 0.12372806 0.01039743 0.00570086 0.00199967 0.00367203 0.01884793 0.00601669 0.02631529 0.00448638 0.00367982 0.08702806 0.00855159 0.01192250 0.01586284 0.00130157 
0.06974922 0.12525384 0.01039127 0.00571529 0.00202460 0.00363223 0.01901021 0.00603917 0.02619359 0.00453111 0.00375078 0.08602525 0.00856894 0.01124384 0.01605640 0.00130130 
0.07112937 0.12666608 0.01038586 0.00572939 0.00205056 0.00359163 0.01915647 0.00606579 0.02613087 0.00457545 0.00382262 0.08502436 0.00859344 0.01058226 0.01625607 0.00130102 
0.07256598 0.12795644 0.01038027 0.00574322 0.00207740 0.00355042 0.01928608 0.00609624 0.02612980 0.00461928 0.00389511 0.08402791 0.00862514 0.00994028 0.01646080 0.00130073 
0.07405023 0.12911706 0.01037358 0.00575682 0.00210501 0.00350880 0.01939849 0.00613019 0.02619276 0.00466250 0.00396806 0.08303830 0.00866405 0.00932035 0.01666946 0.00130044 
0.07557285 0.13014055 0.01036490 0.00577024 0.00213326 0.00346695 0.01949319 0.00616732 0.02632174 0.00470500 0.00404125 0.08205783 0.00871013 0.00872478 0.01688090 0.00130013 
0.07712424 0.13102009 0.01035336 0.00578352 0.00216201 0.00342508 0.01956973 0.00620730 0.02651840 0.00474666 0.00411446 0.08108867 0.00876330 0.00815575 0.01709393 0.00129981 
0.07869451 0.13174940 0.01033814 0.00579667 0.00219112 0.00338337 0.01962775 0.00624978 0.02678400 0.00478740 0.00418748 0.08013287 0.00882342 0.00761530 0.01730731 0.00129947 
0.08027351 0.13232287 0.01031847 0.00580972 0.00222047 0.00334199 0.01966694 0.00629443 0.02711942 0.00482711 0.00426007 0.07919233 0.00889032 0.00710533 0.01751978 0.00129912 
0.08185097 0.13273553 0.01029360 0.00582268 0.00224989 0.00330114 0.01968708 0.00634091 0.02752519 0.00486570 0.00433203 0.07826885 0.00896375 0.00662759 0.01773008 0.00129875 
0.08341648 0.13298312 0.01026286 0.00583553 0.00227927 0.00326100 0.01968801 0.00638891 0.02800139 0.00490308 0.00440312 0.07736409 0.00904345 0.00618364 0.01793692 0.00129835 
0.08495962 0.13306214 0.01022562 0.00584826 0.00230845 0.00322172 0.01966966 0.00643809 0.02854776 0.00493916 0.00447312 0.07647960 0.00912910 0.00577491 0.01813905 0.00129794 
0.08646998 0.13296984 0.01018132 0.00586085 0.00233730 0.00318347 0.01963201 0.00648815 0.02916360 0.00497386 0.00454182 0.07561676 0.00922033 0.00540265 0.01833520 0.00129750 
0.08793725 0.13270425 0.01012946 0.00587325 0.00236568 0.00314642 0.01957514 0.00653878 0.02984784 0.00500712 0.00460900 0.07477689 0.00931672 0.00506793 0.01852415 0.00129704 
0.08935128 0.13226425 0.01006963 0.00588542 0.00239345 0.00311071 0.01949920 0.00658970 0.03059905 0.00503884 0.00467444 0.07396114 0.00941784 0.00477165 0.01870470 0.00129656 
0.09070216 0.13164954 0.01000146 0.00589727 0.00242048 0.00307648 0.01940442 0.00664065 0.03141538 0.00506898 0.00473794 0.07317057 0.00952319 0.00451452 0.01887571 0.00129606 
0.09198025 0.13086066 0.00992469 0.00590875 0.00244666 0.00304387 0.01929109 0.00669136 0.03229462 0.00509747 0.00479929 0.07240613 0.00963223 0.00429710 0.01903607 0.00129553 
0.09317624 0.12989902 0.00983910 0.00591974 0.00247184 0.00301299 0.01915959 0.00674160 0.03323423 0.00512425 0.00485829 0.07166866 0.00974443 0.00411974 0.01918477 0.00129498 
0.09428126 0.12876689 0.00974458 0.00593016 0.00249592 0.00298396 0.01901038 0.00679115 0.03423130 0.00514927 0.00491475 0.07095890 0.00985917 0.00398264 0.01932083 0.00129441 
0.09528687 0.12746741 0.00964109 0.00593989 0.00251879 0.00295689 0.01884395 0.00683981 0.03528259 0.00517250 0.00496849 0.07027750 0.00997585 0.00388580 0.01944339 0.00129382 
0.09618516 0.12600455 0.00952868 0.00594878 0.00254034 0.00293187 0.01866091 0.00688742 0.03638457 0.00519388 0.00501932 0.06962503 0.01009382 0.00382907 0.01955166 0.00129322 
0.09696877 0.12438314 0.00940748 0.00595672 0.00256047 0.00290898 0.01846188 0.00693380 0.03753339 0.00521339 0.00506709 0.06900198 0.01021242 0.00381212 0.01964495 0.00129259 
0.09763096 0.12260885 0.00927768 0.00596353 0.00257909 0.00288830 0.01824759 0.00697883 0.03872495 0.00523100 0.00511163 0.06840876 0.01033097 0.00383445 0.01972267 0.00129195 
0.09816561 0.12068814 0.00913959 0.00596908 0.00259613 0.00286988 0.01801880 0.00702240 0.03995489 0.00524667 0.00515279 0.06784572 0.01044877 0.00389541 0.01978435 0.00129130 
0.09856731 0.11862826 0.00899358 0.00597317 0.00261150 0.00285377 0.01777632 0.00706442 0.04121861 0.00526041 0.00519044 0.06731316 0.01056514 0.00399418 0.01982964 0.00129063 
0.09883138 0.11643723 0.00884011 0.00597565 0.00262516 0.00284003 0.01752102 0.00710481 0.04251131 0.00527217 0.00522445 0.06681131 0.01067935 0.00412980 0.01985829 0.00128996 
0.09895385 0.11412377 0.00867969 0.00597633 0.00263703 0.00282866 0.01725381 0.00714352 0.04382803 0.00528197 0.00525470 0.06634038 0.01079072 0.00430118 0.01987019 0.00128927 
0.09893155 0.11169728 0.00851295 0.00597501 0.00264707 0.00281970 0.01697564 0.00718053 0.04516363 0.00528980 0.00528109 0.06590051 0.01089853 0.00450706 0.01986535 0.00128859 
0.09876209 0.10916782 0.00834057 0.00597151 0.00265525 0.00281315 0.01668749 0.00721582 0.04651286 0.00529564 0.00530352 0.06549182 0.01100211 0.00474608 0.01984392 0.00128790 
0.09844388 0.10654601 0.00816328 0.00596564 0.00266154 0.00280901 0.01639038 0.00724940 0.04787036 0.00529951 0.00532193 0.06511442 0.01110078 0.00501675 0.01980617 0.00128721 
0.09797616 0.10384302 0.00798191 0.00595719 0.00266593 0.00280725 0.01608534 0.00728129 0.04923070 0.00530142 0.00533624 0.06476837 0.01119387 0.00531747 0.01975250 0.00128653 
0.09735897 0.10107052 0.00779734 0.00594598 0.00266840 0.00280786 0.01577342 0.00731154 0.05058840 0.00530137 0.00534640 0.06445371 0.01128075 0.00564652 0.01968344 0.00128586 
0.09659317 0.09824059 0.00761050 0.00593181 0.00266896 0.00281080 0.01545569 0.00734018 0.05193796 0.00529938 0.00535237 0.06417048 0.01136082 0.00600212 0.01959965 0.00128519 
0.09568044 0.09536566 0.00742237 0.00591450 0.00266763 0.00281603 0.01513322 0.00736730 0.05327391 0.00529546 0.00535413 0.06391870 0.01143350 0.00638238 0.01950192 0.00128454 
0.09462326 0.09245850 0.00723398 0.00589387 0.00266441 0.00282348 0.01480708 0.00739296 0.05459080 0.00528965 0.00535166 0.06369836 0.01149824 0.00678532 0.01939115 0.00128390 
0.09342488 0.08953208 0.00704642 0.00586974 0.00265934 0.00283309 0.01447835 0.00741724 0.05588324 0.00528195 0.00534498 0.06350945 0.01155454 0.00720893 0.01926836 0.00128328 
0.09208934 0.08659956 0.00686078 0.00584197 0.00265245 0.00284479 0.01414807 0.00744025 0.05714595 0.00527240 0.00533409 0.06335195 0.01160195 0.00765113 0.01913467 0.00128268 
0.09062139 0.08367417 0.00667820 0.00581039 0.00264380 0.00285850 0.01381731 0.00746206 0.05837376 0.00526102 0.00531902 0.06322583 0.01164003 0.00810977 0.01899132 0.00128211 
0.08902653 0.08076921 0.00649985 0.00577487 0.00263344 0.00287413 0.01348708 0.00748279 0.05956163 0.00524785 0.00529983 0.06313104 0.01166842 0.00858268 0.01883964 0.00128156 
0.08731091 0.07789791 0.00632690 0.00573528 0.00262143 0.00289156 0.01315838 0.00750253 0.06070471 0.00523291 0.00527656 0.06306750 0.01168681 0.00906769 0.01868104 0.00128105 
0.08548135 0.07507338 0.00616053 0.00569154 0.00260784 0.00291071 0.01283219 0.00752139 0.06179832 0.00521625 0.00524929 0.06303513 0.01169493 0.00956257 0.01851701 0.00128056 
0.08354524 0.07230856 0.00600193 0.00564354 0.00259274 0.00293146 0.01250943 0.00753947 0.06283800 0.00519789 0.00521810 0.06303382 0.01169256 0.01006510 0.01834911 0.00128011 
0.08151056 0.06961614 0.00585228 0.00559123 0.00257622 0.00295367 0.01219102 0.00755686 0.06381954 0.00517788 0.00518310 0.06306345 0.01167955 0.01057307 0.01817896 0.00127970 
0.07938579 0.06700848 0.00571274 0.00553457 0.00255836 0.00297724 0.01187781 0.00757365 0.06473895 0.00515625 0.00514438 0.06312383 0.01165581 0.01108427 0.01800824 0.00127933 
0.07717989 0.06449752 0.00558448 0.00547352 0.00253925 0.00300203 0.01157060 0.00758993 0.06559255 0.00513304 0.00510206 0.06321478 0.01162130 0.01159652 0.01783863 0.00127900 
0.07490221 0.06209480 0.00546860 0.00540810 0.00251899 0.00302789 0.01127016 0.00760578 0.06637692 0.00510829 0.00505629 0.06333603 0.01157603 0.01210767 0.01767187 0.00127872 
0.07256249 0.05981128 0.00536621 0.00533834 0.00249769 0.00305470 0.01097720 0.00762126 0.06708896 0.00508204 0.00500721 0.06348732 0.01152010 0.01261560 0.01750969 0.00127848 
0.07017076 0.05765737 0.00527835 0.00526429 0.00247543 0.00308230 0.01069238 0.00763644 0.06772587 0.00505435 0.00495496 0.06366828 0.01145362 0.01311824 0.01735384 0.00127829 
