0.05388286 0.02013607 0.00935066 0.00258513 0.00115054 0.00264347 0.01025165 0.00361909 0.04754738 0.00272552 0.00411222 0.00081700 0.00360047 0.00121750 0.00257296 0.00129731 
0.05220904 0.02047752 0.00952760 0.00259509 0.00115692 0.00261718 0.01024795 0.00356095 0.04616788 0.00272341 0.00410785 0.00081800 0.00359327 0.00119505 0.00256406 0.00129687 
0.05051735 0.02080839 0.00973003 0.00260501 0.00116403 0.00258918 0.01023841 0.00350444 0.04476799 0.00272209 0.00410313 0.00081921 0.00358536 0.00117050 0.00255100 0.00129639 
0.04881333 0.02112778 0.00995742 0.00261486 0.00117183 0.00255952 0.01022320 0.00344962 0.04335317 0.00272152 0.00409793 0.00082058 0.00357673 0.00114397 0.00253386 0.00129588 
0.04710259 0.02143482 0.01020905 0.00262462 0.00118029 0.00252828 0.01020253 0.00339656 0.04192877 0.00272163 0.00409212 0.00082209 0.00356734 0.00111559 0.00251274 0.00129535 
0.04539076 0.02172869 0.01048407 0.00263426 0.00118939 0.00249555 0.01017665 0.00334528 0.04050008 0.00272236 0.00408559 0.00082369 0.00355716 0.00108549 0.00248775 0.00129481 
0.04368352 0.02200867 0.01078145 0.00264376 0.00119907 0.00246140 0.01014585 0.00329584 0.03907224 0.00272363 0.00407819 0.00082535 0.00354617 0.00105381 0.00245905 0.00129425 
0.04198652 0.02227408 0.01110002 0.00265312 0.00120929 0.00242595 0.01011046 0.00324825 0.03765025 0.00272539 0.00406979 0.00082699 0.00353434 0.00102069 0.00242678 0.00129370 
0.04030541 0.02252431 0.01143847 0.00266232 0.00122002 0.00238929 0.01007082 0.00320253 0.03623893 0.00272757 0.00406025 0.00082858 0.00352163 0.00098628 0.00239113 0.00129316 
0.03864576 0.02275884 0.01179533 0.00267135 0.00123120 0.00235152 0.01002731 0.00315869 0.03484292 0.00273008 0.00404944 0.00083003 0.00350802 0.00095074 0.00235230 0.00129262 
0.03701308 0.02297722 0.01216904 0.00268023 0.00124277 0.00231277 0.00998036 0.00311674 0.03346662 0.00273286 0.00403721 0.00083128 0.00349348 0.00091424 0.00231049 0.00129211 
0.03541280 0.02317908 0.01255787 0.00268896 0.00125469 0.00227315 0.00993040 0.00307666 0.03211421 0.00273583 0.00402343 0.00083226 0.00347800 0.00087692 0.00226594 0.00129162 
0.03385022 0.02336413 0.01296003 0.00269754 0.00126691 0.00223279 0.00987790 0.00303845 0.03078963 0.00273893 0.00400797 0.00083287 0.00346153 0.00083895 0.00221888 0.00129116 
0.03233052 0.02353216 0.01337358 0.00270599 0.00127936 0.00219180 0.00982335 0.00300209 0.02949653 0.00274208 0.00399069 0.00083303 0.00344408 0.00080050 0.00216958 0.00129075 
0.03085871 0.02368305 0.01379654 0.00271434 0.00129198 0.00215032 0.00976724 0.00296754 0.02823830 0.00274521 0.00397148 0.00083266 0.00342563 0.00076172 0.00211829 0.00129037 
0.02943965 0.02381678 0.01422680 0.00272259 0.00130473 0.00210848 0.00971010 0.00293478 0.02701805 0.00274825 0.00395022 0.00083167 0.00340616 0.00072278 0.00206529 0.00129005 
0.02807801 0.02393338 0.01466223 0.00273078 0.00131754 0.00206641 0.00965247 0.00290377 0.02583857 0.00275114 0.00392680 0.00082995 0.00338567 0.00068384 0.00201086 0.00128978 
0.02677826 0.02403301 0.01510061 0.00273894 0.00133035 0.00202425 0.00959488 0.00287447 0.02470237 0.00275379 0.00390111 0.00082741 0.00336417 0.00064506 0.00195530 0.00128957 
0.02554464 0.02411589 0.01553972 0.00274708 0.00134311 0.00198211 0.00953789 0.00284683 0.02361165 0.00275616 0.00387307 0.00082396 0.00334166 0.00060658 0.00189889 0.00128942 
0.02438119 0.02418231 0.01597727 0.00275524 0.00135575 0.00194015 0.00948205 0.00282081 0.02256828 0.00275818 0.00384260 0.00081950 0.00331815 0.00056856 0.00184193 0.00128934 
0.02329168 0.02423268 0.01641098 0.00276345 0.00136822 0.00189848 0.00942790 0.00279634 0.02157384 0.00275978 0.00380963 0.00081393 0.00329367 0.00053113 0.00178473 0.00128932 
0.02227965 0.02426747 0.01683857 0.00277174 0.00138046 0.00185723 0.00937600 0.00277337 0.02062960 0.00276092 0.00377411 0.00080717 0.00326824 0.00049444 0.00172759 0.00128938 
0.02134836 0.02428722 0.01725777 0.00278014 0.00139242 0.00181654 0.00932689 0.00275185 0.01973653 0.00276153 0.00373599 0.00079912 0.00324190 0.00045861 0.00167080 0.00128951 
0.02050082 0.02429257 0.01766633 0.00278868 0.00140404 0.00177652 0.00928110 0.00273171 0.01889527 0.00276157 0.00369525 0.00078969 0.00321469 0.00042378 0.00161466 0.00128972 
0.01973974 0.02428420 0.01806205 0.00279739 0.00141528 0.00173729 0.00923914 0.00271289 0.01810621 0.00276099 0.00365187 0.00077881 0.00318667 0.00039005 0.00155946 0.00128999 
0.01906755 0.02426290 0.01844277 0.00280629 0.00142608 0.00169896 0.00920151 0.00269533 0.01736943 0.00275975 0.00360586 0.00076641 0.00315789 0.00035753 0.00150551 0.00129035 
0.01848641 0.02422949 0.01880641 0.00281541 0.00143640 0.00166165 0.00916869 0.00267897 0.01668473 0.00275781 0.00355724 0.00075242 0.00312842 0.00032634 0.00145307 0.00129077 
0.01799817 0.02418486 0.01915094 0.00282476 0.00144619 0.00162545 0.00914113 0.00266375 0.01605166 0.00275513 0.00350604 0.00073678 0.00309835 0.00029655 0.00140243 0.00129127 
0.01760438 0.02412997 0.01947445 0.00283437 0.00145542 0.00159046 0.00911926 0.00264960 0.01546952 0.00275168 0.00345231 0.00071945 0.00306775 0.00026825 0.00135385 0.00129184 
0.01730630 0.02406579 0.01977512 0.00284425 0.00146404 0.00155678 0.00910349 0.00263648 0.01493737 0.00274744 0.00339613 0.00070039 0.00303671 0.00024152 0.00130759 0.00129248 
0.01710488 0.02399339 0.02005123 0.00285442 0.00147202 0.00152449 0.00909417 0.00262431 0.01445405 0.00274237 0.00333758 0.00067958 0.00300535 0.00021643 0.00126390 0.00129319 
0.01700079 0.02391383 0.02030117 0.00286487 0.00147934 0.00149366 0.00909164 0.00261306 0.01401818 0.00273647 0.00327675 0.00065701 0.00297377 0.00019302 0.00122301 0.00129395 
0.01699438 0.02382823 0.02052350 0.00287560 0.00148595 0.00146436 0.00909618 0.00260266 0.01362823 0.00272972 0.00321377 0.00063268 0.00294210 0.00017135 0.00118515 0.00129477 
0.01708571 0.02373772 0.02071686 0.00288663 0.00149185 0.00143666 0.00910807 0.00259307 0.01328245 0.00272211 0.00314877 0.00060660 0.00291044 0.00015146 0.00115052 0.00129565 
0.01727457 0.02364346 0.02088008 0.00289793 0.00149700 0.00141061 0.00912751 0.00258425 0.01297898 0.00271363 0.00308189 0.00057881 0.00287895 0.00013337 0.00111933 0.00129657 
0.01756042 0.02354663 0.02101210 0.00290950 0.00150140 0.00138626 0.00915467 0.00257615 0.01271581 0.00270428 0.00301331 0.00054937 0.00284775 0.00011712 0.00109176 0.00129753 
0.01794248 0.02344838 0.02111205 0.00292131 0.00150502 0.00136363 0.00918968 0.00256875 0.01249082 0.00269407 0.00294319 0.00051832 0.00281699 0.00010270 0.00106796 0.00129853 
0.01841965 0.02334991 0.02117920 0.00293335 0.00150787 0.00134278 0.00923262 0.00256201 0.01230179 0.00268301 0.00287173 0.00048577 0.00278682 0.00009013 0.00104810 0.00129956 
0.01899061 0.02325237 0.02121297 0.00294559 0.00150994 0.00132370 0.00928353 0.00255590 0.01214643 0.00267110 0.00279913 0.00045180 0.00275739 0.00007940 0.00103230 0.00130062 
0.01965372 0.02315691 0.02121297 0.00295799 0.00151122 0.00130643 0.00934239 0.00255041 0.01202239 0.00265836 0.00272561 0.00041653 0.00272886 0.00007051 0.00102069 0.00130169 
0.02040713 0.02306467 0.02117895 0.00297052 0.00151171 0.00129097 0.00940915 0.00254552 0.01192729 0.00264481 0.00265138 0.00038010 0.00270140 0.00006343 0.00101336 0.00130277 
0.02124872 0.02297675 0.02111084 0.00298314 0.00151144 0.00127731 0.00948370 0.00254123 0.01185873 0.00263048 0.00257669 0.00034267 0.00267515 0.00005814 0.00101040 0.00130386 
0.02217614 0.02289421 0.02100872 0.00299580 0.00151040 0.00126545 0.00956588 0.00253753 0.01181432 0.00261540 0.00250177 0.00030440 0.00265030 0.00005461 0.00101187 0.00130494 
0.02318681 0.02281808 0.02087286 0.00300846 0.00150860 0.00125537 0.00965549 0.00253442 0.01179168 0.00259959 0.00242688 0.00026548 0.00262699 0.00005280 0.00101782 0.00130601 
0.02427794 0.02274933 0.02070365 0.00302105 0.00150608 0.00124705 0.00975228 0.00253190 0.01178847 0.00258310 0.00235226 0.00022611 0.00260540 0.00005267 0.00102829 0.00130706 
0.02544654 0.02268890 0.02050166 0.00303352 0.00150284 0.00124046 0.00985595 0.00253001 0.01180240 0.00256597 0.00227816 0.00018652 0.00258568 0.00005417 0.00104328 0.00130809 
0.02668940 0.02263763 0.02026761 0.00304582 0.00149890 0.00123556 0.00996617 0.00252874 0.01183127 0.00254823 0.00220486 0.00014695 0.00256799 0.00005726 0.00106280 0.00130908 
0.02800317 0.02259634 0.02000236 0.00305788 0.00149431 0.00123232 0.01008255 0.00252813 0.01187293 0.00252993 0.00213261 0.00010764 0.00255248 0.00006186 0.00108682 0.00131004 
0.02938430 0.02256576 0.01970690 0.00306963 0.00148907 0.00123068 0.01020468 0.00252821 0.01192537 0.00251113 0.00206167 0.00006886 0.00253931 0.00006793 0.00111531 0.00131095 
0.03082910 0.02254653 0.01938238 0.00308101 0.00148324 0.00123061 0.01033207 0.00252901 0.01198666 0.00249187 0.00199229 0.00003090 0.00252862 0.00007541 0.00114820 0.00131181 
0.03233372 0.02253924 0.01903004 0.00309196 0.00147682 0.00123203 0.01046424 0.00253057 0.01205502 0.00247220 0.00192474 0.00000598 0.00252054 0.00008422 0.00118543 0.00131261 
0.03389421 0.02254439 0.01865125 0.00310240 0.00146988 0.00123489 0.01060064 0.00253292 0.01212878 0.00245220 0.00185924 0.00004146 0.00251521 0.00009429 0.00122691 0.00131335 
0.03550649 0.02256238 0.01824750 0.00311227 0.00146243 0.00123913 0.01074071 0.00253612 0.01220642 0.00243191 0.00179606 0.00007523 0.00251274 0.00010557 0.00127254 0.00131403 
0.03716637 0.02259354 0.01782035 0.00312150 0.00145452 0.00124469 0.01088385 0.00254022 0.01228659 0.00241140 0.00173541 0.00010700 0.00251325 0.00011798 0.00132219 0.00131463 
0.03886959 0.02263811 0.01737148 0.00313002 0.00144619 0.00125148 0.01102943 0.00254527 0.01236809 0.00239072 0.00167753 0.00013643 0.00251683 0.00013144 0.00137573 0.00131516 
0.04061180 0.02269622 0.01690261 0.00313777 0.00143747 0.00125944 0.01117680 0.00255131 0.01244988 0.00236995 0.00162261 0.00016322 0.00252357 0.00014589 0.00143302 0.00131561 
0.04238861 0.02276793 0.01641556 0.00314468 0.00142842 0.00126850 0.01132529 0.00255841 0.01253108 0.00234914 0.00157087 0.00018703 0.00253355 0.00016125 0.00149389 0.00131597 
0.04419557 0.02285320 0.01591220 0.00315068 0.00141906 0.00127858 0.01147422 0.00256662 0.01261100 0.00232837 0.00152249 0.00020756 0.00254683 0.00017746 0.00155816 0.00131626 
0.04602821 0.02295189 0.01539442 0.00315573 0.00140945 0.00128961 0.01162288 0.00257600 0.01268911 0.00230770 0.00147764 0.00022449 0.00256346 0.00019443 0.00162565 0.00131645 
0.04788205 0.02306378 0.01486417 0.00315975 0.00139962 0.00130151 0.01177056 0.00258660 0.01276506 0.00228720 0.00143647 0.00023751 0.00258348 0.00021210 0.00169615 0.00131657 
0.04975257 0.02318856 0.01432343 0.00316271 0.00138962 0.00131421 0.01191655 0.00259847 0.01283866 0.00226693 0.00139913 0.00024633 0.00260690 0.00023041 0.00176945 0.00131659 
0.05163531 0.02332583 0.01377417 0.00316453 0.00137948 0.00132763 0.01206012 0.00261168 0.01290990 0.00224696 0.00136572 0.00025065 0.00263374 0.00024927 0.00184533 0.00131653 
0.05352580 0.02347509 0.01321837 0.00316519 0.00136924 0.00134169 0.01220056 0.00262626 0.01297893 0.00222735 0.00133636 0.00025020 0.00266398 0.00026864 0.00192356 0.00131638 
0.05541962 0.02363580 0.01265803 0.00316464 0.00135895 0.00135633 0.01233715 0.00264228 0.01304605 0.00220817 0.00131113 0.00024473 0.00269759 0.00028843 0.00200388 0.00131616 
0.05731240 0.02380730 0.01209509 0.00316283 0.00134864 0.00137148 0.01246918 0.00265976 0.01311171 0.00218949 0.00129008 0.00023400 0.00273454 0.00030860 0.00208606 0.00131585 
0.05919982 0.02398887 0.01153148 0.00315973 0.00133835 0.00138705 0.01259597 0.00267875 0.01317652 0.00217136 0.00127327 0.00021778 0.00277476 0.00032907 0.00216984 0.00131546 
0.06107764 0.02417973 0.01096912 0.00315533 0.00132810 0.00140300 0.01271683 0.00269927 0.01324121 0.00215384 0.00126071 0.00019588 0.00281818 0.00034979 0.00225494 0.00131500 
0.06294172 0.02437904 0.01040985 0.00314958 0.00131794 0.00141924 0.01283110 0.00272137 0.01330664 0.00213700 0.00125240 0.00016813 0.00286471 0.00037071 0.00234110 0.00131446 
0.06478799 0.02458589 0.00985547 0.00314248 0.00130789 0.00143572 0.01293815 0.00274505 0.01337377 0.00212088 0.00124833 0.00013439 0.00291424 0.00039176 0.00242804 0.00131387 
0.06661249 0.02479933 0.00930772 0.00313400 0.00129798 0.00145238 0.01303736 0.00277033 0.01344368 0.00210554 0.00124846 0.00009454 0.00296665 0.00041290 0.00251548 0.00131321 
0.06841139 0.02501836 0.00876828 0.00312415 0.00128823 0.00146916 0.01312816 0.00279722 0.01351752 0.00209102 0.00125271 0.00004850 0.00302181 0.00043408 0.00260314 0.00131250 
0.07018096 0.02524195 0.00823875 0.00311292 0.00127867 0.00148600 0.01320999 0.00282570 0.01359654 0.00207738 0.00126102 0.00000378 0.00307955 0.00045524 0.00269073 0.00131174 
0.07191763 0.02546903 0.00772063 0.00310031 0.00126932 0.00150286 0.01328233 0.00285578 0.01368202 0.00206466 0.00127328 0.00006232 0.00313971 0.00047635 0.00277797 0.00131094 
0.07361794 0.02569852 0.00721538 0.00308632 0.00126019 0.00151968 0.01334470 0.00288742 0.01377531 0.00205288 0.00128936 0.00012709 0.00320211 0.00049736 0.00286458 0.00131010 
0.07527860 0.02592932 0.00672433 0.00307098 0.00125131 0.00153643 0.01339668 0.00292061 0.01387778 0.00204210 0.00130914 0.00019803 0.00326656 0.00051822 0.00295026 0.00130924 
0.07689645 0.02616032 0.00624873 0.00305429 0.00124267 0.00155305 0.01343785 0.00295528 0.01399082 0.00203234 0.00133245 0.00027505 0.00333285 0.00053890 0.00303474 0.00130835 
0.07846850 0.02639042 0.00578974 0.00303628 0.00123430 0.00156951 0.01346787 0.00299140 0.01411582 0.00202361 0.00135913 0.00035802 0.00340077 0.00055937 0.00311773 0.00130746 
0.07999191 0.02661851 0.00534842 0.00301698 0.00122620 0.00158577 0.01348643 0.00302890 0.01425415 0.00201595 0.00138897 0.00044676 0.00347008 0.00057957 0.00319896 0.00130656 
0.08146402 0.02684353 0.00492571 0.00299641 0.00121838 0.00160180 0.01349327 0.00306772 0.01440716 0.00200938 0.00142178 0.00054105 0.00354055 0.00059949 0.00327816 0.00130566 
0.08288234 0.02706441 0.00452247 0.00297462 0.00121083 0.00161757 0.01348817 0.00310776 0.01457615 0.00200389 0.00145733 0.00064064 0.00361194 0.00061908 0.00335507 0.00130477 
0.08424452 0.02728014 0.00413945 0.00295164 0.00120355 0.00163304 0.01347098 0.00314893 0.01476237 0.00199950 0.00149540 0.00074524 0.00368398 0.00063831 0.00342943 0.00130390 
0.08554842 0.02748972 0.00377729 0.00292751 0.00119655 0.00164819 0.01344158 0.00319114 0.01496697 0.00199621 0.00153574 0.00085452 0.00375643 0.00065716 0.00350098 0.00130306 
0.08679205 0.02769221 0.00343654 0.00290228 0.00118981 0.00166300 0.01339990 0.00323427 0.01519103 0.00199401 0.00157810 0.00096810 0.00382902 0.00067559 0.00356950 0.00130225 
0.08797360 0.02788674 0.00311765 0.00287599 0.00118333 0.00167745 0.01334594 0.00327819 0.01543554 0.00199289 0.00162222 0.00108558 0.00390148 0.00069358 0.00363475 0.00130148 
0.08909143 0.02807246 0.00282094 0.00284871 0.00117710 0.00169150 0.01327974 0.00332277 0.01570135 0.00199285 0.00166783 0.00120652 0.00397355 0.00071110 0.00369651 0.00130076 
0.09014407 0.02824861 0.00254668 0.00282047 0.00117110 0.00170515 0.01320139 0.00336787 0.01598920 0.00199385 0.00171467 0.00133044 0.00404495 0.00072812 0.00375458 0.00130009 
0.09113023 0.02841450 0.00229500 0.00279134 0.00116533 0.00171838 0.01311102 0.00341334 0.01629969 0.00199588 0.00176244 0.00145684 0.00411542 0.00074463 0.00380877 0.00129948 
0.09204878 0.02856950 0.00206597 0.00276137 0.00115976 0.00173117 0.01300883 0.00345902 0.01663327 0.00199890 0.00181087 0.00158517 0.00418468 0.00076058 0.00385889 0.00129894 
0.09289876 0.02871307 0.00185956 0.00273063 0.00115438 0.00174350 0.01289505 0.00350474 0.01699024 0.00200288 0.00185969 0.00171489 0.00425248 0.00077597 0.00390478 0.00129847 
0.09367937 0.02884473 0.00167565 0.00269916 0.00114918 0.00175536 0.01276997 0.00355034 0.01737073 0.00200778 0.00190861 0.00184540 0.00431855 0.00079078 0.00394629 0.00129807 
0.09438997 0.02896410 0.00151404 0.00266703 0.00114412 0.00176673 0.01263391 0.00359563 0.01777471 0.00201355 0.00195735 0.00197609 0.00438264 0.00080497 0.00398329 0.00129775 
0.09503006 0.02907089 0.00137448 0.00263430 0.00113921 0.00177760 0.01248726 0.00364043 0.01820196 0.00202014 0.00200564 0.00210635 0.00444450 0.00081853 0.00401566 0.00129751 
0.09559933 0.02916488 0.00125661 0.00260102 0.00113440 0.00178795 0.01233042 0.00368455 0.01865209 0.00202750 0.00205321 0.00223554 0.00450390 0.00083144 0.00404330 0.00129736 
0.09609759 0.02924595 0.00116002 0.00256726 0.00112968 0.00179778 0.01216385 0.00372780 0.01912453 0.00203557 0.00209979 0.00236302 0.00456060 0.00084369 0.00406613 0.00129729 
0.09652478 0.02931406 0.00108424 0.00253307 0.00112504 0.00180706 0.01198804 0.00377000 0.01961852 0.00204430 0.00214514 0.00248812 0.00461438 0.00085526 0.00408409 0.00129731 
0.09688102 0.02936925 0.00102873 0.00249851 0.00112044 0.00181578 0.01180352 0.00381094 0.02013312 0.00205360 0.00218901 0.00261021 0.00466505 0.00086613 0.00409713 0.00129742 
0.09716652 0.02941165 0.00099292 0.00246363 0.00111587 0.00182392 0.01161086 0.00385043 0.02066722 0.00206342 0.00223117 0.00272863 0.00471239 0.00087629 0.00410522 0.00129762 
0.09738166 0.02944149 0.00097618 0.00242849 0.00111131 0.00183147 0.01141063 0.00388829 0.02121951 0.00207367 0.00227138 0.00284275 0.00475624 0.00088574 0.00410836 0.00129791 
0.09752692 0.02945904 0.00097782 0.00239314 0.00110674 0.00183841 0.01120347 0.00392432 0.02178853 0.00208430 0.00230944 0.00295194 0.00479643 0.00089446 0.00410655 0.00129828 
0.09760291 0.02946467 0.00099714 0.00235764 0.00110213 0.00184472 0.01099001 0.00395833 0.02237263 0.00209522 0.00234516 0.00305558 0.00483281 0.00090244 0.00409983 0.00129874 
0.09761036 0.02945883 0.00103339 0.00232202 0.00109747 0.00185039 0.01077091 0.00399014 0.02297002 0.00210634 0.00237834 0.00315309 0.00486524 0.00090969 0.00408825 0.00129928 
0.09755011 0.02944200 0.00108580 0.00228634 0.00109275 0.00185539 0.01054685 0.00401958 0.02357874 0.00211760 0.00240884 0.00324391 0.00489360 0.00091620 0.00407186 0.00129989 
0.09742311 0.02941476 0.00115357 0.00225064 0.00108794 0.00185970 0.01031854 0.00404648 0.02419669 0.00212891 0.00243648 0.00332751 0.00491780 0.00092197 0.00405077 0.00130058 
0.09723041 0.02937772 0.00123589 0.00221495 0.00108303 0.00186331 0.01008669 0.00407068 0.02482165 0.00214019 0.00246115 0.00340339 0.00493775 0.00092700 0.00402507 0.00130135 
0.09697318 0.02933154 0.00133192 0.00217933 0.00107801 0.00186618 0.00985201 0.00409202 0.02545128 0.00215134 0.00248272 0.00347110 0.00495339 0.00093131 0.00399488 0.00130217 
0.09665267 0.02927692 0.00144081 0.00214380 0.00107287 0.00186831 0.00961524 0.00411037 0.02608311 0.00216230 0.00250109 0.00353024 0.00496468 0.00093491 0.00396035 0.00130306 
0.09627025 0.02921461 0.00156172 0.00210839 0.00106759 0.00186965 0.00937709 0.00412559 0.02671459 0.00217298 0.00251619 0.00358044 0.00497158 0.00093780 0.00392163 0.00130400 
0.09582736 0.02914537 0.00169380 0.00207315 0.00106218 0.00187020 0.00913831 0.00413757 0.02734311 0.00218330 0.00252796 0.00362139 0.00497409 0.00094001 0.00387889 0.00130499 
0.09532555 0.02906997 0.00183618 0.00203810 0.00105662 0.00186992 0.00889961 0.00414621 0.02796597 0.00219318 0.00253634 0.00365286 0.00497222 0.00094157 0.00383232 0.00130601 
0.09476646 0.02898920 0.00198801 0.00200327 0.00105091 0.00186880 0.00866173 0.00415141 0.02858044 0.00220253 0.00254132 0.00367465 0.00496599 0.00094250 0.00378212 0.00130707 
0.09415181 0.02890387 0.00214846 0.00196867 0.00104506 0.00186681 0.00842538 0.00415309 0.02918375 0.00221129 0.00254288 0.00368664 0.00495546 0.00094282 0.00372851 0.00130816 
0.09348341 0.02881475 0.00231667 0.00193434 0.00103905 0.00186392 0.00819125 0.00415121 0.02977313 0.00221937 0.00254104 0.00368877 0.00494069 0.00094259 0.00367172 0.00130927 
0.09276317 0.02872263 0.00249182 0.00190030 0.00103290 0.00186012 0.00796005 0.00414571 0.03034580 0.00222672 0.00253583 0.00368105 0.00492176 0.00094184 0.00361199 0.00131039 
0.09199307 0.02862824 0.00267311 0.00186656 0.00102661 0.00185538 0.00773244 0.00413658 0.03089901 0.00223325 0.00252728 0.00366357 0.00489876 0.00094061 0.00354957 0.00131152 
0.09117517 0.02853232 0.00285972 0.00183313 0.00102018 0.00184969 0.00750909 0.00412380 0.03143006 0.00223890 0.00251547 0.00363648 0.00487183 0.00093896 0.00348472 0.00131264 
0.09031164 0.02843554 0.00305087 0.00180005 0.00101363 0.00184302 0.00729061 0.00410738 0.03193628 0.00224362 0.00250046 0.00360001 0.00484107 0.00093694 0.00341771 0.00131375 
0.08940471 0.02833855 0.00324580 0.00176732 0.00100696 0.00183536 0.00707764 0.00408736 0.03241511 0.00224735 0.00248236 0.00355448 0.00480665 0.00093462 0.00334883 0.00131485 
0.08845669 0.02824195 0.00344377 0.00173496 0.00100020 0.00182669 0.00687075 0.00406377 0.03286406 0.00225003 0.00246126 0.00350027 0.00476871 0.00093206 0.00327834 0.00131593 
0.08746999 0.02814625 0.00364405 0.00170297 0.00099335 0.00181700 0.00667050 0.00403668 0.03328075 0.00225161 0.00243729 0.00343782 0.00472744 0.00092933 0.00320656 0.00131697 
0.08644708 0.02805195 0.00384593 0.00167138 0.00098643 0.00180628 0.00647742 0.00400618 0.03366293 0.00225205 0.00241058 0.00336768 0.00468301 0.00092651 0.00313376 0.00131798 
0.08539052 0.02795944 0.00404875 0.00164019 0.00097946 0.00179452 0.00629202 0.00397237 0.03400850 0.00225132 0.00238128 0.00329044 0.00463561 0.00092368 0.00306025 0.00131895 
0.08430295 0.02786905 0.00425183 0.00160942 0.00097247 0.00178173 0.00611476 0.00393537 0.03431550 0.00224937 0.00234954 0.00320679 0.00458545 0.00092092 0.00298632 0.00131988 
0.08318707 0.02778106 0.00445455 0.00157908 0.00096546 0.00176790 0.00594608 0.00389531 0.03458214 0.00224618 0.00231552 0.00311747 0.00453275 0.00091832 0.00291228 0.00132075 
0.08204566 0.02769563 0.00465629 0.00154918 0.00095847 0.00175303 0.00578637 0.00385235 0.03480682 0.00224172 0.00227940 0.00302330 0.00447771 0.00091597 0.00283842 0.00132157 
0.08088158 0.02761287 0.00485648 0.00151974 0.00095151 0.00173713 0.00563601 0.00380665 0.03498812 0.00223598 0.00224136 0.00292514 0.00442057 0.00091397 0.00276504 0.00132232 
0.07969775 0.02753280 0.00505456 0.00149077 0.00094462 0.00172022 0.00549531 0.00375842 0.03512485 0.00222894 0.00220159 0.00282394 0.00436156 0.00091241 0.00269242 0.00132302 
0.07849715 0.02745535 0.00524999 0.00146228 0.00093782 0.00170231 0.00536457 0.00370784 0.03521601 0.00222059 0.00216027 0.00272069 0.00430091 0.00091140 0.00262087 0.00132365 
0.07728283 0.02738038 0.00544225 0.00143429 0.00093112 0.00168343 0.00524403 0.00365514 0.03526082 0.00221094 0.00211760 0.00261641 0.00423884 0.00091104 0.00255067 0.00132422 
0.07605788 0.02730767 0.00563087 0.00140682 0.00092457 0.00166359 0.00513392 0.00360055 0.03525875 0.00219998 0.00207378 0.00251220 0.00417561 0.00091143 0.00248208 0.00132472 
0.07482546 0.02723691 0.00581539 0.00137989 0.00091819 0.00164284 0.00503440 0.00354430 0.03520947 0.00218772 0.00202900 0.00240918 0.00411145 0.00091268 0.00241539 0.00132515 
0.07358875 0.02716770 0.00599538 0.00135351 0.00091199 0.00162121 0.00494560 0.00348665 0.03511293 0.00217417 0.00198346 0.00230850 0.00404658 0.00091490 0.00235084 0.00132551 
0.07235099 0.02709961 0.00617041 0.00132770 0.00090601 0.00159873 0.00486763 0.00342786 0.03496927 0.00215935 0.00193737 0.00221134 0.00398125 0.00091818 0.00228870 0.00132581 
0.07111544 0.02703209 0.00634012 0.00130250 0.00090028 0.00157547 0.00480053 0.00336820 0.03477891 0.00214329 0.00189091 0.00211889 0.00391568 0.00092263 0.00222920 0.00132604 
0.06988539 0.02696457 0.00650413 0.00127791 0.00089481 0.00155147 0.00474432 0.00330795 0.03454249 0.00212600 0.00184428 0.00203237 0.00385010 0.00092836 0.00217258 0.00132621 
0.06866412 0.02689638 0.00666213 0.00125398 0.00088964 0.00152679 0.00469897 0.00324739 0.03426090 0.00210752 0.00179766 0.00195298 0.00378473 0.00093546 0.00211904 0.00132631 
0.06745494 0.02682683 0.00681378 0.00123071 0.00088478 0.00150149 0.00466444 0.00318681 0.03393524 0.00208790 0.00175124 0.00188194 0.00371977 0.00094403 0.00206879 0.00132636 
0.06626116 0.02675517 0.00695882 0.00120816 0.00088026 0.00147565 0.00464060 0.00312650 0.03356686 0.00206716 0.00170520 0.00182043 0.00365544 0.00095415 0.00202203 0.00132635 
0.06508606 0.02668060 0.00709698 0.00118633 0.00087610 0.00144933 0.00462734 0.00306675 0.03315733 0.00204534 0.00165969 0.00176963 0.00359192 0.00096593 0.00197892 0.00132630 
0.06393288 0.02660231 0.00722803 0.00116527 0.00087231 0.00142261 0.00462446 0.00300784 0.03270842 0.00202251 0.00161489 0.00173069 0.00352941 0.00097943 0.00193963 0.00132619 
0.06280486 0.02651945 0.00735175 0.00114500 0.00086892 0.00139559 0.00463178 0.00295007 0.03222213 0.00199871 0.00157095 0.00170471 0.00346808 0.00099474 0.00190430 0.00132605 
0.06170516 0.02643115 0.00746796 0.00112555 0.00086594 0.00136834 0.00464903 0.00289371 0.03170062 0.00197399 0.00152801 0.00169276 0.00340811 0.00101191 0.00187307 0.00132587 
0.06063689 0.02633657 0.00757650 0.00110697 0.00086338 0.00134096 0.00467595 0.00283905 0.03114628 0.00194841 0.00148620 0.00169583 0.00334964 0.00103102 0.00184604 0.00132566 
0.05960309 0.02623482 0.00767724 0.00108928 0.00086125 0.00131354 0.00471223 0.00278635 0.03056162 0.00192203 0.00144565 0.00171489 0.00329283 0.00105211 0.00182331 0.00132543 
0.05860670 0.02612507 0.00777006 0.00107252 0.00085958 0.00128619 0.00475754 0.00273588 0.02994934 0.00189491 0.00140648 0.00175080 0.00323781 0.00107523 0.00180496 0.00132517 
0.05765057 0.02600648 0.00785488 0.00105672 0.00085835 0.00125901 0.00481150 0.00268787 0.02931227 0.00186713 0.00136878 0.00180437 0.00318470 0.00110040 0.00179105 0.00132491 
0.05673744 0.02587824 0.00793164 0.00104191 0.00085758 0.00123210 0.00487372 0.00264258 0.02865336 0.00183874 0.00133264 0.00187632 0.00313362 0.00112765 0.00178162 0.00132464 
0.05586992 0.02573960 0.00800030 0.00102814 0.00085726 0.00120557 0.00494378 0.00260023 0.02797570 0.00180981 0.00129815 0.00196726 0.00308466 0.00115699 0.00177670 0.00132436 
0.05505046 0.02558983 0.00806085 0.00101542 0.00085741 0.00117953 0.00502125 0.00256102 0.02728244 0.00178042 0.00126538 0.00207774 0.00303792 0.00118843 0.00177630 0.00132409 
0.05428139 0.02542828 0.00811332 0.00100380 0.00085801 0.00115409 0.00510566 0.00252515 0.02657681 0.00175064 0.00123437 0.00220818 0.00299347 0.00122194 0.00178040 0.00132383 
0.05356484 0.02525436 0.00815773 0.00099330 0.00085906 0.00112937 0.00519652 0.00249279 0.02586211 0.00172055 0.00120519 0.00235889 0.00295137 0.00125751 0.00178898 0.00132359 
0.05290280 0.02506752 0.00819416 0.00098395 0.00086056 0.00110547 0.00529334 0.00246409 0.02514167 0.00169021 0.00117785 0.00253010 0.00291169 0.00129510 0.00180200 0.00132337 
0.05229705 0.02486733 0.00822269 0.00097577 0.00086248 0.00108251 0.00539561 0.00243921 0.02441886 0.00165970 0.00115240 0.00272187 0.00287447 0.00133466 0.00181940 0.00132317 
0.05174914 0.02465343 0.00824344 0.00096879 0.00086483 0.00106060 0.00550278 0.00241824 0.02369702 0.00162911 0.00112883 0.00293420 0.00283975 0.00137612 0.00184109 0.00132300 
0.05126046 0.02442554 0.00825655 0.00096303 0.00086759 0.00103985 0.00561434 0.00240129 0.02297950 0.00159850 0.00110715 0.00316693 0.00280754 0.00141942 0.00186698 0.00132286 
0.05083214 0.02418348 0.00826219 0.00095851 0.00087073 0.00102037 0.00572971 0.00238842 0.02226961 0.00156795 0.00108735 0.00341978 0.00277787 0.00146446 0.00189697 0.00132276 
0.05046509 0.02392718 0.00826053 0.00095523 0.00087425 0.00100226 0.00584836 0.00237968 0.02157060 0.00153754 0.00106942 0.00369236 0.00275074 0.00151115 0.00193091 0.00132269 
0.05015998 0.02365668 0.00825179 0.00095322 0.00087811 0.00098562 0.00596972 0.00237509 0.02088564 0.00150735 0.00105332 0.00398415 0.00272616 0.00155938 0.00196868 0.00132266 
0.04991722 0.02337211 0.00823620 0.00095248 0.00088229 0.00097055 0.00609323 0.00237466 0.02021785 0.00147746 0.00103903 0.00429449 0.00270411 0.00160902 0.00201011 0.00132268 
0.04973697 0.02307372 0.00821401 0.00095301 0.00088678 0.00095716 0.00621834 0.00237835 0.01957020 0.00144794 0.00102650 0.00462262 0.00268458 0.00165993 0.00205503 0.00132273 
0.04961914 0.02276187 0.00818550 0.00095481 0.00089153 0.00094552 0.00634448 0.00238612 0.01894556 0.00141887 0.00101568 0.00496765 0.00266756 0.00171197 0.00210325 0.00132283 
0.04956336 0.02243705 0.00815096 0.00095787 0.00089653 0.00093572 0.00647111 0.00239789 0.01834667 0.00139033 0.00100652 0.00532857 0.00265301 0.00176498 0.00215459 0.00132296 
0.04956900 0.02209984 0.00811070 0.00096218 0.00090174 0.00092784 0.00659768 0.00241357 0.01777611 0.00136238 0.00099894 0.00570427 0.00264092 0.00181880 0.00220882 0.00132314 
0.04963515 0.02175095 0.00806505 0.00096773 0.00090713 0.00092194 0.00672366 0.00243303 0.01723628 0.00133512 0.00099289 0.00609352 0.00263124 0.00187325 0.00226573 0.00132335 
0.04976065 0.02139119 0.00801436 0.00097449 0.00091267 0.00091810 0.00684852 0.00245612 0.01672944 0.00130860 0.00098829 0.00649500 0.00262394 0.00192814 0.00232508 0.00132359 
0.04994405 0.02102148 0.00795899 0.00098245 0.00091832 0.00091638 0.00697176 0.00248267 0.01625761 0.00128291 0.00098506 0.00690727 0.00261898 0.00198330 0.00238664 0.00132386 
0.05018365 0.02064286 0.00789931 0.00099156 0.00092406 0.00091681 0.00709289 0.00251249 0.01582265 0.00125811 0.00098313 0.00732884 0.00261632 0.00203851 0.00245014 0.00132416 
0.05047746 0.02025646 0.00783570 0.00100179 0.00092983 0.00091945 0.00721143 0.00254537 0.01542620 0.00123428 0.00098241 0.00775812 0.00261593 0.00209358 0.00251534 0.00132447 
0.05082326 0.01986352 0.00776857 0.00101311 0.00093562 0.00092432 0.00732693 0.00258108 0.01506967 0.00121149 0.00098281 0.00819343 0.00261775 0.00214831 0.00258196 0.00132480 
0.05121857 0.01946535 0.00769832 0.00102547 0.00094138 0.00093145 0.00743897 0.00261936 0.01475425 0.00118981 0.00098427 0.00863307 0.00262175 0.00220249 0.00264974 0.00132513 
0.05166066 0.01906337 0.00762536 0.00103881 0.00094708 0.00094086 0.00754714 0.00265994 0.01448091 0.00116930 0.00098668 0.00907525 0.00262788 0.00225590 0.00271839 0.00132547 
0.05214657 0.01865907 0.00755010 0.00105309 0.00095268 0.00095254 0.00765106 0.00270255 0.01425037 0.00115003 0.00098996 0.00951817 0.00263610 0.00230834 0.00278763 0.00132580 
0.05267312 0.01825403 0.00747296 0.00106824 0.00095816 0.00096650 0.00775037 0.00274687 0.01406313 0.00113207 0.00099404 0.00995999 0.00264637 0.00235960 0.00285718 0.00132611 
0.05323691 0.01784986 0.00739436 0.00108420 0.00096346 0.00098272 0.00784477 0.00279260 0.01391942 0.00111548 0.00099882 0.01039883 0.00265866 0.00240948 0.00292676 0.00132640 
0.05383433 0.01744827 0.00731472 0.00110091 0.00096857 0.00100119 0.00793395 0.00283941 0.01381927 0.00110032 0.00100424 0.01083283 0.00267292 0.00245777 0.00299608 0.00132666 
0.05446163 0.01705101 0.00723445 0.00111829 0.00097345 0.00102186 0.00801766 0.00288698 0.01376244 0.00108666 0.00101021 0.01126012 0.00268912 0.00250429 0.00306485 0.00132688 
0.05511484 0.01665985 0.00715396 0.00113627 0.00097806 0.00104470 0.00809567 0.00293497 0.01374848 0.00107455 0.00101666 0.01167886 0.00270722 0.00254883 0.00313279 0.00132705 
0.05578986 0.01627662 0.00707366 0.00115479 0.00098238 0.00106965 0.00816780 0.00298303 0.01377667 0.00106404 0.00102351 0.01208723 0.00272720 0.00259122 0.00319962 0.00132716 
0.05648246 0.01590316 0.00699394 0.00117375 0.00098638 0.00109666 0.00823388 0.00303083 0.01384610 0.00105520 0.00103071 0.01248343 0.00274902 0.00263129 0.00326506 0.00132721 
0.05718829 0.01554135 0.00691517 0.00119309 0.00099003 0.00112566 0.00829381 0.00307802 0.01395563 0.00104808 0.00103820 0.01286576 0.00277266 0.00266887 0.00332884 0.00132719 
0.05790289 0.01519303 0.00683774 0.00121272 0.00099331 0.00115656 0.00834749 0.00312427 0.01410390 0.00104273 0.00104590 0.01323253 0.00279808 0.00270382 0.00339069 0.00132708 
0.05862174 0.01486009 0.00676199 0.00123256 0.00099619 0.00118929 0.00839488 0.00316925 0.01428935 0.00103919 0.00105379 0.01358216 0.00282527 0.00273599 0.00345036 0.00132688 
0.05934026 0.01454438 0.00668826 0.00125253 0.00099865 0.00122375 0.00843599 0.00321262 0.01451022 0.00103752 0.00106179 0.01391315 0.00285420 0.00276528 0.00350760 0.00132658 
0.06005381 0.01424773 0.00661688 0.00127255 0.00100067 0.00125983 0.00847082 0.00325407 0.01476459 0.00103776 0.00106989 0.01422409 0.00288484 0.00279156 0.00356217 0.00132618 
0.06075777 0.01397196 0.00654813 0.00129255 0.00100224 0.00129742 0.00849947 0.00329331 0.01505034 0.00103995 0.00107803 0.01451368 0.00291718 0.00281474 0.00361384 0.00132567 
0.06144751 0.01371881 0.00648232 0.00131244 0.00100333 0.00133642 0.00852203 0.00333005 0.01536522 0.00104412 0.00108620 0.01478073 0.00295119 0.00283475 0.00366241 0.00132504 
0.06211843 0.01349003 0.00641968 0.00133215 0.00100394 0.00137670 0.00853864 0.00336403 0.01570681 0.00105033 0.00109436 0.01502417 0.00298685 0.00285153 0.00370765 0.00132429 
0.06276597 0.01328728 0.00636046 0.00135161 0.00100405 0.00141814 0.00854949 0.00339499 0.01607258 0.00105859 0.00110249 0.01524308 0.00302415 0.00286504 0.00374940 0.00132340 
0.06338566 0.01311216 0.00630487 0.00137076 0.00100366 0.00146059 0.00855481 0.00342272 0.01645988 0.00106893 0.00111059 0.01543666 0.00306305 0.00287525 0.00378748 0.00132239 
0.06397311 0.01296620 0.00625309 0.00138952 0.00100276 0.00150393 0.00855483 0.00344702 0.01686596 0.00108139 0.00111865 0.01560427 0.00310354 0.00288217 0.00382173 0.00132124 
0.06452406 0.01285087 0.00620528 0.00140783 0.00100133 0.00154801 0.00854985 0.00346771 0.01728800 0.00109599 0.00112666 0.01574541 0.00314558 0.00288580 0.00385202 0.00131996 
0.06503437 0.01276755 0.00616159 0.00142565 0.00099939 0.00159270 0.00854019 0.00348466 0.01772309 0.00111274 0.00113462 0.01585972 0.00318916 0.00288618 0.00387822 0.00131854 
0.06550006 0.01271750 0.00612211 0.00144292 0.00099693 0.00163785 0.00852620 0.00349776 0.01816831 0.00113166 0.00114254 0.01594702 0.00323423 0.00288335 0.00390024 0.00131698 
0.06591734 0.01270193 0.00608692 0.00145960 0.00099395 0.00168331 0.00850828 0.00350693 0.01862068 0.00115276 0.00115043 0.01600729 0.00328078 0.00287740 0.00391800 0.00131529 
0.06628259 0.01272191 0.00605609 0.00147565 0.00099046 0.00172894 0.00848683 0.00351213 0.01907721 0.00117604 0.00115831 0.01604065 0.00332875 0.00286841 0.00393143 0.00131346 
0.06659243 0.01277843 0.00602965 0.00149103 0.00098645 0.00177459 0.00846229 0.00351336 0.01953491 0.00120151 0.00116619 0.01604738 0.00337812 0.00285648 0.00394049 0.00131149 
0.06684369 0.01287235 0.00600760 0.00150573 0.00098194 0.00182012 0.00843514 0.00351064 0.01999083 0.00122916 0.00117411 0.01602793 0.00342883 0.00284175 0.00394517 0.00130940 
0.06703345 0.01300444 0.00598992 0.00151973 0.00097694 0.00186538 0.00840586 0.00350405 0.02044204 0.00125898 0.00118207 0.01598291 0.00348084 0.00282435 0.00394546 0.00130719 
0.06715908 0.01317531 0.00597656 0.00153301 0.00097146 0.00191024 0.00837498 0.00349369 0.02088567 0.00129095 0.00119011 0.01591306 0.00353409 0.00280443 0.00394140 0.00130487 
0.06721819 0.01338549 0.00596747 0.00154558 0.00096550 0.00195456 0.00834301 0.00347971 0.02131892 0.00132506 0.00119827 0.01581929 0.00358853 0.00278217 0.00393303 0.00130243 
0.06720870 0.01363536 0.00596255 0.00155744 0.00095908 0.00199821 0.00831050 0.00346230 0.02173905 0.00136127 0.00120656 0.01570264 0.00364410 0.00275776 0.00392042 0.00129990 
0.06712883 0.01392519 0.00596170 0.00156859 0.00095222 0.00204106 0.00827803 0.00344168 0.02214346 0.00139956 0.00121503 0.01556428 0.00370072 0.00273139 0.00390366 0.00129727 
0.06697711 0.01425511 0.00596479 0.00157907 0.00094493 0.00208298 0.00824617 0.00341812 0.02252964 0.00143989 0.00122371 0.01540551 0.00375832 0.00270327 0.00388286 0.00129456 
0.06675240 0.01462512 0.00597168 0.00158889 0.00093722 0.00212387 0.00821549 0.00339192 0.02289519 0.00148220 0.00123263 0.01522775 0.00381683 0.00267362 0.00385815 0.00129179 
0.06645387 0.01503511 0.00598221 0.00159810 0.00092912 0.00216361 0.00818659 0.00336343 0.02323789 0.00152645 0.00124183 0.01503254 0.00387615 0.00264266 0.00382970 0.00128895 
0.06608105 0.01548481 0.00599620 0.00160672 0.00092064 0.00220210 0.00816007 0.00333301 0.02355563 0.00157257 0.00125134 0.01482151 0.00393621 0.00261064 0.00379768 0.00128607 
0.06563379 0.01597385 0.00601347 0.00161482 0.00091180 0.00223925 0.00813651 0.00330108 0.02384648 0.00162050 0.00126119 0.01459636 0.00399691 0.00257778 0.00376229 0.00128317 
0.06511231 0.01650172 0.00603382 0.00162244 0.00090262 0.00227498 0.00811651 0.00326809 0.02410867 0.00167017 0.00127142 0.01435889 0.00405814 0.00254435 0.00372373 0.00128024 
0.06451714 0.01706777 0.00605706 0.00162964 0.00089311 0.00230921 0.00810065 0.00323452 0.02434062 0.00172148 0.00128205 0.01411095 0.00411981 0.00251057 0.00368225 0.00127731 
0.06384920 0.01767124 0.00608297 0.00163648 0.00088331 0.00234187 0.00808952 0.00320086 0.02454091 0.00177437 0.00129311 0.01385446 0.00418182 0.00247670 0.00363810 0.00127440 
0.06310971 0.01831125 0.00611134 0.00164305 0.00087322 0.00237291 0.00808366 0.00316766 0.02470834 0.00182872 0.00130463 0.01359136 0.00424404 0.00244299 0.00359154 0.00127151 
0.06230028 0.01898678 0.00614195 0.00164941 0.00086287 0.00240228 0.00808365 0.00313546 0.02484188 0.00188444 0.00131663 0.01332361 0.00430638 0.00240967 0.00354287 0.00126866 
0.06142282 0.01969670 0.00617458 0.00165563 0.00085228 0.00242995 0.00809000 0.00310484 0.02494070 0.00194141 0.00132913 0.01305320 0.00436871 0.00237699 0.00349237 0.00126588 
0.06047959 0.02043978 0.00620903 0.00166181 0.00084147 0.00245590 0.00810323 0.00307640 0.02500419 0.00199952 0.00134214 0.01278212 0.00443091 0.00234518 0.00344036 0.00126317 
0.05947317 0.02121465 0.00624508 0.00166801 0.00083046 0.00248010 0.00812384 0.00305075 0.02503192 0.00205864 0.00135569 0.01251231 0.00449288 0.00231446 0.00338715 0.00126055 
0.05840646 0.02201984 0.00628253 0.00167433 0.00081926 0.00250256 0.00815227 0.00302850 0.02502368 0.00211865 0.00136977 0.01224572 0.00455449 0.00228505 0.00333309 0.00125804 
0.05728267 0.02285378 0.00632117 0.00168086 0.00080790 0.00252329 0.00818898 0.00301027 0.02497943 0.00217940 0.00138439 0.01198425 0.00461563 0.00225716 0.00327851 0.00125566 
0.05610531 0.02371481 0.00636081 0.00168767 0.00079640 0.00254230 0.00823435 0.00299670 0.02489936 0.00224074 0.00139955 0.01172972 0.00467617 0.00223097 0.00322375 0.00125341 
0.05487815 0.02460115 0.00640127 0.00169486 0.00078477 0.00255962 0.00828876 0.00298840 0.02478383 0.00230254 0.00141525 0.01148391 0.00473600 0.00220667 0.00316918 0.00125131 
0.05360526 0.02551093 0.00644239 0.00170250 0.00077304 0.00257529 0.00835253 0.00298601 0.02463340 0.00236464 0.00143149 0.01124851 0.00479501 0.00218442 0.00311513 0.00124937 
0.05229093 0.02644222 0.00648400 0.00171068 0.00076123 0.00258937 0.00842596 0.00299012 0.02444881 0.00242686 0.00144824 0.01102511 0.00485308 0.00216437 0.00306197 0.00124762 
0.05093971 0.02739298 0.00652595 0.00171947 0.00074934 0.00260191 0.00850929 0.00300134 0.02423097 0.00248906 0.00146550 0.01081523 0.00491011 0.00214665 0.00301005 0.00124606 
0.04955637 0.02836110 0.00656812 0.00172896 0.00073740 0.00261298 0.00860274 0.00302023 0.02398097 0.00255105 0.00148324 0.01062023 0.00496600 0.00213138 0.00295972 0.00124470 
0.04814586 0.02934441 0.00661039 0.00173921 0.00072544 0.00262267 0.00870645 0.00304735 0.02370006 0.00261267 0.00150144 0.01044140 0.00502063 0.00211864 0.00291133 0.00124356 
0.04671333 0.03034068 0.00665264 0.00175028 0.00071345 0.00263105 0.00882056 0.00308323 0.02338962 0.00267373 0.00152007 0.01027986 0.00507393 0.00210853 0.00286522 0.00124263 
0.04526409 0.03134759 0.00669481 0.00176224 0.00070147 0.00263822 0.00894511 0.00312836 0.02305119 0.00273407 0.00153909 0.01013661 0.00512581 0.00210108 0.00282172 0.00124194 
0.04380357 0.03236280 0.00673680 0.00177515 0.00068952 0.00264429 0.00908013 0.00318319 0.02268643 0.00279349 0.00155848 0.01001251 0.00517618 0.00209634 0.00278115 0.00124149 
0.04233734 0.03338391 0.00677857 0.00178904 0.00067760 0.00264936 0.00922558 0.00324815 0.02229714 0.00285182 0.00157818 0.00990827 0.00522496 0.00209433 0.00274383 0.00124129 
0.04087105 0.03440849 0.00682006 0.00180396 0.00066573 0.00265354 0.00938136 0.00332360 0.02188519 0.00290888 0.00159816 0.00982444 0.00527210 0.00209503 0.00271004 0.00124133 
0.03941043 0.03543406 0.00686126 0.00181993 0.00065394 0.00265696 0.00954735 0.00340987 0.02145257 0.00296448 0.00161837 0.00976143 0.00531753 0.00209841 0.00268007 0.00124163 
0.03796125 0.03645813 0.00690214 0.00183699 0.00064224 0.00265975 0.00972335 0.00350723 0.02100134 0.00301844 0.00163876 0.00971947 0.00536120 0.00210444 0.00265419 0.00124218 
0.03652930 0.03747819 0.00694269 0.00185514 0.00063065 0.00266201 0.00990911 0.00361591 0.02053365 0.00307058 0.00165928 0.00969866 0.00540306 0.00211304 0.00263263 0.00124299 
0.03512039 0.03849172 0.00698294 0.00187439 0.00061918 0.00266390 0.01010434 0.00373606 0.02005169 0.00312074 0.00167987 0.00969890 0.00544309 0.00212413 0.00261563 0.00124405 
0.03374027 0.03949619 0.00702289 0.00189475 0.00060786 0.00266553 0.01030867 0.00386779 0.01955768 0.00316873 0.00170048 0.00971998 0.00548124 0.00213760 0.00260337 0.00124537 
0.03239469 0.04048908 0.00706257 0.00191618 0.00059669 0.00266704 0.01052172 0.00401114 0.01905390 0.00321438 0.00172105 0.00976151 0.00551751 0.00215332 0.00259605 0.00124693 
0.03108927 0.04146787 0.00710203 0.00193868 0.00058571 0.00266856 0.01074302 0.00416608 0.01854263 0.00325755 0.00174151 0.00982294 0.00555187 0.00217116 0.00259382 0.00124874 
0.02982958 0.04243007 0.00714130 0.00196221 0.00057493 0.00267022 0.01097207 0.00433251 0.01802616 0.00329806 0.00176182 0.00990359 0.00558433 0.00219094 0.00259680 0.00125079 
0.02862104 0.04337322 0.00718043 0.00198673 0.00056436 0.00267214 0.01120832 0.00451029 0.01750678 0.00333578 0.00178190 0.01000264 0.00561488 0.00221251 0.00260510 0.00125307 
0.02746895 0.04429489 0.00721947 0.00201219 0.00055402 0.00267447 0.01145117 0.00469917 0.01698675 0.00337055 0.00180171 0.01011913 0.00564353 0.00223566 0.00261879 0.00125557 
0.02637842 0.04519270 0.00725848 0.00203853 0.00054395 0.00267730 0.01169998 0.00489887 0.01646831 0.00340226 0.00182117 0.01025197 0.00567030 0.00226020 0.00263793 0.00125828 
0.02535437 0.04606430 0.00729752 0.00206568 0.00053414 0.00268077 0.01195406 0.00510902 0.01595364 0.00343076 0.00184022 0.01039995 0.00569521 0.00228591 0.00266253 0.00126118 
0.02440153 0.04690742 0.00733663 0.00209356 0.00052463 0.00268498 0.01221268 0.00532919 0.01544490 0.00345595 0.00185882 0.01056176 0.00571828 0.00231258 0.00269258 0.00126428 
0.02352438 0.04771986 0.00737587 0.00212210 0.00051544 0.00269003 0.01247507 0.00555887 0.01494416 0.00347774 0.00187690 0.01073598 0.00573953 0.00233996 0.00272805 0.00126754 
0.02272716 0.04849946 0.00741528 0.00215120 0.00050658 0.00269601 0.01274045 0.00579750 0.01445343 0.00349601 0.00189440 0.01092112 0.00575901 0.00236782 0.00276887 0.00127097 
0.02201382 0.04924419 0.00745491 0.00218076 0.00049807 0.00270303 0.01300797 0.00604445 0.01397464 0.00351070 0.00191127 0.01111559 0.00577675 0.00239592 0.00281495 0.00127453 
0.02138805 0.04995209 0.00749478 0.00221068 0.00048994 0.00271115 0.01327679 0.00629902 0.01350963 0.00352175 0.00192746 0.01131774 0.00579279 0.00242401 0.00286615 0.00127822 
0.02085320 0.05062128 0.00753493 0.00224084 0.00048221 0.00272044 0.01354601 0.00656046 0.01306015 0.00352908 0.00194293 0.01152587 0.00580716 0.00245184 0.00292234 0.00128202 
0.02041233 0.05125001 0.00757535 0.00227113 0.00047489 0.00273096 0.01381473 0.00682796 0.01262784 0.00353267 0.00195762 0.01173825 0.00581990 0.00247916 0.00298332 0.00128591 
0.02006815 0.05183663 0.00761607 0.00230143 0.00046801 0.00274276 0.01408204 0.00710066 0.01221423 0.00353248 0.00197149 0.01195309 0.00583106 0.00250573 0.00304890 0.00128988 
0.01982300 0.05237963 0.00765706 0.00233162 0.00046159 0.00275586 0.01434699 0.00737764 0.01182075 0.00352851 0.00198450 0.01216861 0.00584066 0.00253131 0.00311885 0.00129390 
0.01967891 0.05287761 0.00769831 0.00236156 0.00045564 0.00277031 0.01460865 0.00765796 0.01144871 0.00352075 0.00199662 0.01238303 0.00584876 0.00255566 0.00319290 0.00129795 
0.01963749 0.05332930 0.00773977 0.00239113 0.00045018 0.00278610 0.01486606 0.00794060 0.01109930 0.00350923 0.00200782 0.01259456 0.00585537 0.00257855 0.00327078 0.00130202 
0.01969999 0.05373359 0.00778139 0.00242021 0.00044524 0.00280323 0.01511829 0.00822455 0.01077357 0.00349396 0.00201806 0.01280143 0.00586053 0.00259976 0.00335218 0.00130609 
0.01986727 0.05408949 0.00782310 0.00244865 0.00044083 0.00282169 0.01536440 0.00850873 0.01047248 0.00347500 0.00202734 0.01300193 0.00586426 0.00261908 0.00343679 0.00131015 
0.02013981 0.05439621 0.00786483 0.00247633 0.00043698 0.00284146 0.01560344 0.00879207 0.01019682 0.00345240 0.00203562 0.01319438 0.00586659 0.00263632 0.00352427 0.00131416 
0.02051768 0.05465306 0.00790645 0.00250313 0.00043368 0.00286248 0.01583452 0.00907345 0.00994730 0.00342623 0.00204289 0.01337716 0.00586753 0.00265128 0.00361426 0.00131811 
0.02100055 0.05485955 0.00794787 0.00252891 0.00043097 0.00288471 0.01605672 0.00935175 0.00972447 0.00339659 0.00204914 0.01354871 0.00586708 0.00266380 0.00370638 0.00132200 
0.02158769 0.05501535 0.00798894 0.00255355 0.00042885 0.00290809 0.01626918 0.00962586 0.00952877 0.00336357 0.00205438 0.01370757 0.00586525 0.00267372 0.00380025 0.00132579 
0.02227798 0.05512031 0.00802952 0.00257693 0.00042733 0.00293252 0.01647105 0.00989463 0.00936052 0.00332729 0.00205859 0.01385236 0.00586204 0.00268091 0.00389547 0.00132948 
0.02306989 0.05517444 0.00806944 0.00259894 0.00042644 0.00295793 0.01666153 0.01015695 0.00921991 0.00328787 0.00206178 0.01398180 0.00585743 0.00268526 0.00399164 0.00133304 
0.02396151 0.05517793 0.00810852 0.00261947 0.00042617 0.00298421 0.01683983 0.01041171 0.00910701 0.00324545 0.00206397 0.01409472 0.00585141 0.00268665 0.00408834 0.00133647 
0.02495053 0.05513117 0.00814656 0.00263841 0.00042654 0.00301125 0.01700523 0.01065781 0.00902180 0.00320019 0.00206515 0.01419006 0.00584395 0.00268501 0.00418515 0.00133975 
0.02603427 0.05503471 0.00818336 0.00265566 0.00042754 0.00303892 0.01715705 0.01089419 0.00896411 0.00315223 0.00206537 0.01426691 0.00583501 0.00268028 0.00428165 0.00134286 
0.02720968 0.05488929 0.00821871 0.00267114 0.00042919 0.00306708 0.01729466 0.01111979 0.00893369 0.00310177 0.00206462 0.01432444 0.00582456 0.00267242 0.00437743 0.00134581 
0.02847334 0.05469584 0.00825237 0.00268476 0.00043149 0.00309561 0.01741747 0.01133362 0.00893020 0.00304896 0.00206295 0.01436201 0.00581254 0.00266141 0.00447205 0.00134857 
0.02982149 0.05445546 0.00828410 0.00269644 0.00043444 0.00312434 0.01752498 0.01153472 0.00895316 0.00299401 0.00206037 0.01437908 0.00579892 0.00264726 0.00456510 0.00135113 
0.03125003 0.05416944 0.00831365 0.00270613 0.00043802 0.00315311 0.01761671 0.01172215 0.00900204 0.00293712 0.00205694 0.01437527 0.00578362 0.00262998 0.00465617 0.00135350 
0.03275455 0.05383926 0.00834078 0.00271376 0.00044225 0.00318176 0.01769228 0.01189507 0.00907621 0.00287847 0.00205267 0.01435035 0.00576657 0.00260962 0.00474487 0.00135566 
0.03433031 0.05346654 0.00836523 0.00271928 0.00044711 0.00321012 0.01775138 0.01205265 0.00917495 0.00281829 0.00204762 0.01430421 0.00574772 0.00258624 0.00483078 0.00135761 
0.03597232 0.05305311 0.00838674 0.00272266 0.00045259 0.00323802 0.01779373 0.01219415 0.00929748 0.00275679 0.00204183 0.01423691 0.00572698 0.00255993 0.00491355 0.00135935 
0.03767529 0.05260095 0.00840505 0.00272387 0.00045868 0.00326528 0.01781918 0.01231890 0.00944294 0.00269419 0.00203534 0.01414865 0.00570428 0.00253079 0.00499280 0.00136086 
0.03943371 0.05211221 0.00841991 0.00272289 0.00046536 0.00329170 0.01782760 0.01242626 0.00961042 0.00263070 0.00202820 0.01403978 0.00567952 0.00249894 0.00506817 0.00136216 
0.04124183 0.05158916 0.00843105 0.00271971 0.00047262 0.00331713 0.01781897 0.01251572 0.00979894 0.00256655 0.00202047 0.01391077 0.00565264 0.00246452 0.00513934 0.00136324 
0.04309369 0.05103427 0.00843822 0.00271433 0.00048044 0.00334137 0.01779334 0.01258679 0.01000748 0.00250196 0.00201220 0.01376225 0.00562353 0.00242769 0.00520600 0.00136411 
0.04498316 0.05045012 0.00844119 0.00270677 0.00048879 0.00336424 0.01775082 0.01263909 0.01023497 0.00243715 0.00200345 0.01359496 0.00559213 0.00238861 0.00526785 0.00136476 
0.04690394 0.04983940 0.00843973 0.00269704 0.00049766 0.00338557 0.01769163 0.01267232 0.01048030 0.00237234 0.00199427 0.01340979 0.00555834 0.00234746 0.00532462 0.00136520 
0.04884962 0.04920497 0.00843361 0.00268518 0.00050701 0.00340518 0.01761603 0.01268626 0.01074235 0.00230776 0.00198471 0.01320775 0.00552208 0.00230446 0.00537606 0.00136544 
0.05081366 0.04854974 0.00842263 0.00267122 0.00051682 0.00342290 0.01752439 0.01268075 0.01101992 0.00224360 0.00197485 0.01298993 0.00548328 0.00225979 0.00542195 0.00136549 
0.05278944 0.04787676 0.00840659 0.00265521 0.00052705 0.00343858 0.01741712 0.01265573 0.01131185 0.00218010 0.00196473 0.01275757 0.00544185 0.00221368 0.00546210 0.00136534 
0.05477031 0.04718914 0.00838532 0.00263722 0.00053767 0.00345206 0.01729473 0.01261124 0.01161692 0.00211743 0.00195442 0.01251198 0.00539773 0.00216636 0.00549633 0.00136501 
0.05674956 0.04649006 0.00835866 0.00261730 0.00054865 0.00346318 0.01715778 0.01254738 0.01193392 0.00205581 0.00194397 0.01225456 0.00535085 0.00211805 0.00552449 0.00136451 
0.05872048 0.04578278 0.00832649 0.00259553 0.00055995 0.00347182 0.01700691 0.01246434 0.01226162 0.00199543 0.00193344 0.01198681 0.00530117 0.00206899 0.00554648 0.00136385 
0.06067642 0.04507057 0.00828869 0.00257200 0.00057152 0.00347785 0.01684283 0.01236238 0.01259880 0.00193645 0.00192288 0.01171026 0.00524863 0.00201942 0.00556220 0.00136304 
0.06261074 0.04435674 0.00824517 0.00254678 0.00058334 0.00348115 0.01666628 0.01224186 0.01294423 0.00187906 0.00191236 0.01142654 0.00519320 0.00196958 0.00557158 0.00136208 
0.06451689 0.04364461 0.00819588 0.00251998 0.00059536 0.00348161 0.01647810 0.01210320 0.01329668 0.00182341 0.00190193 0.01113729 0.00513485 0.00191971 0.00557460 0.00136101 
0.06638845 0.04293750 0.00814078 0.00249169 0.00060754 0.00347915 0.01627914 0.01194689 0.01365496 0.00176966 0.00189163 0.01084420 0.00507357 0.00187005 0.00557125 0.00135981 
0.06821909 0.04223870 0.00807986 0.00246203 0.00061983 0.00347369 0.01607033 0.01177352 0.01401785 0.00171795 0.00188151 0.01054901 0.00500936 0.00182082 0.00556154 0.00135852 
0.07000267 0.04155145 0.00801314 0.00243109 0.00063219 0.00346517 0.01585261 0.01158370 0.01438418 0.00166840 0.00187163 0.01025342 0.00494223 0.00177227 0.00554552 0.00135713 
0.07173322 0.04087896 0.00794069 0.00239899 0.00064458 0.00345354 0.01562698 0.01137816 0.01475278 0.00162113 0.00186202 0.00995918 0.00487221 0.00172460 0.00552327 0.00135567 
0.07340496 0.04022436 0.00786258 0.00236586 0.00065696 0.00343876 0.01539447 0.01115763 0.01512252 0.00157624 0.00185273 0.00966800 0.00479933 0.00167803 0.00549489 0.00135415 
0.07501236 0.03959068 0.00777892 0.00233181 0.00066927 0.00342081 0.01515612 0.01092295 0.01549226 0.00153382 0.00184379 0.00938159 0.00472367 0.00163277 0.00546049 0.00135258 
0.07655014 0.03898086 0.00768987 0.00229696 0.00068148 0.00339970 0.01491300 0.01067497 0.01586092 0.00149395 0.00183523 0.00910160 0.00464528 0.00158900 0.00542023 0.00135098 
0.07801328 0.03839770 0.00759561 0.00226143 0.00069354 0.00337544 0.01466618 0.01041462 0.01622742 0.00145670 0.00182710 0.00882967 0.00456427 0.00154691 0.00537427 0.00134935 
0.07939707 0.03784387 0.00749633 0.00222535 0.00070542 0.00334806 0.01441676 0.01014284 0.01659074 0.00142210 0.00181941 0.00856736 0.00448075 0.00150665 0.00532280 0.00134771 
0.08069709 0.03732191 0.00739228 0.00218885 0.00071706 0.00331760 0.01416582 0.00986063 0.01694985 0.00139020 0.00181218 0.00831619 0.00439483 0.00146837 0.00526603 0.00134608 
0.08190928 0.03683417 0.00728374 0.00215205 0.00072843 0.00328412 0.01391443 0.00956901 0.01730379 0.00136102 0.00180544 0.00807758 0.00430667 0.00143222 0.00520419 0.00134445 
0.08302989 0.03638281 0.00717100 0.00211506 0.00073949 0.00324771 0.01366366 0.00926904 0.01765161 0.00133458 0.00179920 0.00785289 0.00421643 0.00139831 0.00513753 0.00134286 
0.08405556 0.03596983 0.00705439 0.00207802 0.00075021 0.00320844 0.01341456 0.00896178 0.01799240 0.00131085 0.00179347 0.00764339 0.00412428 0.00136674 0.00506631 0.00134130 
0.08498329 0.03559699 0.00693428 0.00204105 0.00076055 0.00316643 0.01316814 0.00864833 0.01832529 0.00128984 0.00178826 0.00745023 0.00403042 0.00133760 0.00499081 0.00133979 
0.08581047 0.03526585 0.00681104 0.00200425 0.00077048 0.00312180 0.01292539 0.00832979 0.01864944 0.00127151 0.00178356 0.00727447 0.00393507 0.00131095 0.00491131 0.00133833 
0.08653489 0.03497774 0.00668510 0.00196775 0.00077996 0.00307467 0.01268727 0.00800726 0.01896404 0.00125583 0.00177939 0.00711707 0.00383846 0.00128683 0.00482811 0.00133694 
0.08715472 0.03473375 0.00655687 0.00193165 0.00078897 0.00302520 0.01245468 0.00768187 0.01926834 0.00124273 0.00177572 0.00697886 0.00374083 0.00126529 0.00474153 0.00133562 
0.08766857 0.03453473 0.00642684 0.00189607 0.00079749 0.00297354 0.01222849 0.00735471 0.01956160 0.00123215 0.00177257 0.00686053 0.00364245 0.00124632 0.00465187 0.00133438 
0.08807544 0.03438127 0.00629546 0.00186110 0.00080549 0.00291985 0.01200950 0.00702689 0.01984313 0.00122403 0.00176990 0.00676269 0.00354360 0.00122993 0.00455947 0.00133323 
0.08837474 0.03427372 0.00616325 0.00182684 0.00081295 0.00286432 0.01179848 0.00669950 0.02011228 0.00121828 0.00176771 0.00668577 0.00344457 0.00121610 0.00446464 0.00133217 
0.08856633 0.03421215 0.00603070 0.00179340 0.00081986 0.00280714 0.01159610 0.00637362 0.02036844 0.00121481 0.00176597 0.00663011 0.00334567 0.00120477 0.00436773 0.00133120 
0.08865044 0.03419639 0.00589837 0.00176085 0.00082620 0.00274849 0.01140301 0.00605031 0.02061103 0.00121352 0.00176466 0.00659589 0.00324721 0.00119590 0.00426906 0.00133034 
0.08862773 0.03422598 0.00576677 0.00172928 0.00083196 0.00268858 0.01121976 0.00573061 0.02083953 0.00121430 0.00176377 0.00658317 0.00314953 0.00118941 0.00416897 0.00132958 
0.08849928 0.03430023 0.00563647 0.00169878 0.00083713 0.00262762 0.01104685 0.00541553 0.02105344 0.00121704 0.00176325 0.00659187 0.00305296 0.00118522 0.00406778 0.00132892 
0.08826653 0.03441817 0.00550801 0.00166940 0.00084172 0.00256582 0.01088469 0.00510605 0.02125232 0.00122161 0.00176308 0.00662179 0.00295784 0.00118323 0.00396583 0.00132838 
0.08793133 0.03457857 0.00538197 0.00164123 0.00084571 0.00250339 0.01073363 0.00480313 0.02143574 0.00122790 0.00176323 0.00667258 0.00286454 0.00118331 0.00386344 0.00132794 
0.08749590 0.03477996 0.00525890 0.00161433 0.00084911 0.00244056 0.01059395 0.00450768 0.02160336 0.00123577 0.00176367 0.00674378 0.00277342 0.00118536 0.00376092 0.00132760 
0.08696284 0.03502064 0.00513936 0.00158874 0.00085193 0.00237754 0.01046585 0.00422061 0.02175485 0.00124510 0.00176435 0.00683479 0.00268484 0.00118922 0.00365859 0.00132738 
0.08633507 0.03529864 0.00502391 0.00156453 0.00085418 0.00231454 0.01034944 0.00394274 0.02188992 0.00125575 0.00176524 0.00694490 0.00259916 0.00119476 0.00355676 0.00132725 
0.08561586 0.03561180 0.00491310 0.00154173 0.00085586 0.00225179 0.01024478 0.00367489 0.02200835 0.00126759 0.00176631 0.00707330 0.00251675 0.00120182 0.00345571 0.00132723 
0.08480879 0.03595772 0.00480746 0.00152038 0.00085698 0.00218950 0.01015185 0.00341783 0.02210995 0.00128047 0.00176751 0.00721904 0.00243798 0.00121025 0.00335574 0.00132732 
0.08391773 0.03633382 0.00470754 0.00150053 0.00085757 0.00212789 0.01007055 0.00317229 0.02219458 0.00129427 0.00176881 0.00738108 0.00236321 0.00121987 0.00325711 0.00132749 
0.08294683 0.03673732 0.00461383 0.00148220 0.00085765 0.00206715 0.01000072 0.00293895 0.02226215 0.00130885 0.00177018 0.00755829 0.00229280 0.00123052 0.00316009 0.00132776 
0.08190050 0.03716527 0.00452683 0.00146541 0.00085723 0.00200749 0.00994213 0.00271845 0.02231260 0.00132408 0.00177157 0.00774945 0.00222710 0.00124203 0.00306493 0.00132812 
0.08078335 0.03761455 0.00444702 0.00145017 0.00085634 0.00194910 0.00989448 0.00251139 0.02234596 0.00133983 0.00177295 0.00795324 0.00216645 0.00125422 0.00297186 0.00132856 
0.07960024 0.03808193 0.00437484 0.00143651 0.00085500 0.00189216 0.00985744 0.00231833 0.02236227 0.00135597 0.00177428 0.00816830 0.00211119 0.00126693 0.00288111 0.00132908 
0.07835618 0.03856405 0.00431072 0.00142444 0.00085324 0.00183686 0.00983058 0.00213976 0.02236164 0.00137238 0.00177553 0.00839319 0.00206163 0.00127997 0.00279289 0.00132967 
0.07705633 0.03905742 0.00425506 0.00141395 0.00085109 0.00178335 0.00981344 0.00197616 0.02234422 0.00138894 0.00177667 0.00862640 0.00201809 0.00129319 0.00270738 0.00133033 
0.07570600 0.03955851 0.00420821 0.00140504 0.00084857 0.00173180 0.00980552 0.00182794 0.02231022 0.00140555 0.00177768 0.00886639 0.00198085 0.00130643 0.00262478 0.00133105 
0.07431059 0.04006369 0.00417051 0.00139771 0.00084573 0.00168235 0.00980627 0.00169548 0.02225991 0.00142209 0.00177852 0.00911159 0.00195018 0.00131951 0.00254525 0.00133182 
0.07287558 0.04056932 0.00414225 0.00139196 0.00084259 0.00163513 0.00981510 0.00157912 0.02219360 0.00143847 0.00177916 0.00936039 0.00192635 0.00133230 0.00246893 0.00133264 
0.07140649 0.04107172 0.00412370 0.00138776 0.00083918 0.00159025 0.00983140 0.00147913 0.02211165 0.00145459 0.00177959 0.00961118 0.00190957 0.00134464 0.00239595 0.00133351 
0.06990888 0.04156721 0.00411507 0.00138510 0.00083553 0.00154783 0.00985450 0.00139577 0.02201450 0.00147036 0.00177980 0.00986233 0.00190006 0.00135641 0.00232644 0.00133441 
0.06838828 0.04205215 0.00411655 0.00138396 0.00083169 0.00150796 0.00988376 0.00132924 0.02190260 0.00148571 0.00177975 0.01011220 0.00189800 0.00136748 0.00226050 0.00133533 
0.06685021 0.04252292 0.00412828 0.00138432 0.00082767 0.00147072 0.00991847 0.00127970 0.02177651 0.00150057 0.00177945 0.01035920 0.00190355 0.00137772 0.00219821 0.00133629 
0.06530011 0.04297599 0.00415034 0.00138615 0.00082353 0.00143616 0.00995796 0.00124726 0.02163678 0.00151486 0.00177887 0.01060174 0.00191684 0.00138705 0.00213965 0.00133726 
0.06374334 0.04340790 0.00418279 0.00138941 0.00081927 0.00140435 0.01000152 0.00123201 0.02148406 0.00152854 0.00177803 0.01083825 0.00193797 0.00139537 0.00208486 0.00133824 
0.06218517 0.04381529 0.00422565 0.00139409 0.00081495 0.00137531 0.01004846 0.00123399 0.02131904 0.00154155 0.00177690 0.01106723 0.00196702 0.00140259 0.00203390 0.00133922 
0.06063071 0.04419494 0.00427887 0.00140014 0.00081058 0.00134906 0.01009809 0.00125318 0.02114244 0.00155386 0.00177550 0.01128720 0.00200402 0.00140865 0.00198680 0.00134021 
0.05908494 0.04454377 0.00434237 0.00140752 0.00080620 0.00132562 0.01014973 0.00128954 0.02095506 0.00156543 0.00177383 0.01149677 0.00204898 0.00141350 0.00194355 0.00134119 
0.05755263 0.04485886 0.00441602 0.00141620 0.00080184 0.00130497 0.01020272 0.00134300 0.02075772 0.00157624 0.00177189 0.01169459 0.00210188 0.00141709 0.00190417 0.00134216 
0.05603837 0.04513748 0.00449965 0.00142614 0.00079752 0.00128708 0.01025642 0.00141343 0.02055131 0.00158626 0.00176970 0.01187940 0.00216266 0.00141940 0.00186864 0.00134311 
0.05454654 0.04537709 0.00459304 0.00143728 0.00079326 0.00127193 0.01031022 0.00150068 0.02033675 0.00159549 0.00176726 0.01205002 0.00223122 0.00142040 0.00183692 0.00134404 
0.05308125 0.04557537 0.00469593 0.00144960 0.00078910 0.00125945 0.01036354 0.00160454 0.02011500 0.00160393 0.00176461 0.01220535 0.00230745 0.00142010 0.00180900 0.00134495 
0.05164640 0.04573023 0.00480801 0.00146303 0.00078505 0.00124960 0.01041582 0.00172479 0.01988706 0.00161156 0.00176175 0.01234440 0.00239119 0.00141851 0.00178480 0.00134582 
0.05024558 0.04583981 0.00492894 0.00147753 0.00078112 0.00124228 0.01046657 0.00186115 0.01965397 0.00161841 0.00175870 0.01246626 0.00248223 0.00141565 0.00176428 0.00134667 
0.04888212 0.04590250 0.00505831 0.00149306 0.00077735 0.00123742 0.01051531 0.00201330 0.01941680 0.00162449 0.00175550 0.01257015 0.00258036 0.00141154 0.00174735 0.00134747 
0.04755906 0.04591698 0.00519570 0.00150956 0.00077373 0.00123491 0.01056162 0.00218091 0.01917666 0.00162981 0.00175217 0.01265538 0.00268530 0.00140625 0.00173395 0.00134824 
0.04627912 0.04588218 0.00534065 0.00152698 0.00077030 0.00123464 0.01060512 0.00236359 0.01893466 0.00163440 0.00174873 0.01272139 0.00279677 0.00139982 0.00172397 0.00134896 
0.04504473 0.04579730 0.00549263 0.00154526 0.00076705 0.00123650 0.01064549 0.00256092 0.01869195 0.00163829 0.00174522 0.01276774 0.00291444 0.00139232 0.00171732 0.00134963 
0.04385799 0.04566186 0.00565112 0.00156436 0.00076399 0.00124035 0.01068244 0.00277244 0.01844970 0.00164151 0.00174166 0.01279409 0.00303794 0.00138383 0.00171389 0.00135026 
0.04272068 0.04547564 0.00581554 0.00158421 0.00076114 0.00124606 0.01071574 0.00299766 0.01820909 0.00164408 0.00173810 0.01280024 0.00316690 0.00137442 0.00171357 0.00135083 
0.04163426 0.04523871 0.00598529 0.00160476 0.00075849 0.00125349 0.01074523 0.00323605 0.01797129 0.00164607 0.00173455 0.01278612 0.00330088 0.00136420 0.00171624 0.00135136 
0.04059987 0.04495146 0.00615972 0.00162596 0.00075605 0.00126248 0.01077076 0.00348706 0.01773750 0.00164749 0.00173106 0.01275177 0.00343946 0.00135325 0.00172177 0.00135182 
0.03961833 0.04461455 0.00633820 0.00164774 0.00075382 0.00127289 0.01079227 0.00375007 0.01750891 0.00164839 0.00172765 0.01269735 0.00358215 0.00134168 0.00173003 0.00135223 
0.03869013 0.04422893 0.00652004 0.00167005 0.00075179 0.00128454 0.01080973 0.00402446 0.01728669 0.00164881 0.00172437 0.01262318 0.00372847 0.00132959 0.00174089 0.00135257 
0.03781546 0.04379584 0.00670453 0.00169283 0.00074997 0.00129728 0.01082316 0.00430955 0.01707201 0.00164880 0.00172123 0.01252966 0.00387789 0.00131711 0.00175420 0.00135286 
0.03699421 0.04331680 0.00689097 0.00171602 0.00074834 0.00131095 0.01083264 0.00460466 0.01686602 0.00164840 0.00171828 0.01241734 0.00402988 0.00130434 0.00176984 0.00135309 
0.03622597 0.04279361 0.00707862 0.00173956 0.00074690 0.00132538 0.01083827 0.00490904 0.01666986 0.00164765 0.00171555 0.01228687 0.00418389 0.00129140 0.00178766 0.00135325 
0.03551002 0.04222832 0.00726675 0.00176338 0.00074565 0.00134041 0.01084023 0.00522192 0.01648463 0.00164659 0.00171305 0.01213905 0.00433935 0.00127841 0.00180751 0.00135334 
0.03484541 0.04162323 0.00745460 0.00178743 0.00074456 0.00135587 0.01083870 0.00554252 0.01631139 0.00164526 0.00171082 0.01197474 0.00449568 0.00126548 0.00182925 0.00135338 
0.03423089 0.04098090 0.00764143 0.00181164 0.00074363 0.00137159 0.01083392 0.00587000 0.01615117 0.00164369 0.00170889 0.01179497 0.00465229 0.00125273 0.00185274 0.00135334 
0.03366500 0.04030409 0.00782649 0.00183595 0.00074285 0.00138743 0.01082616 0.00620352 0.01600497 0.00164193 0.00170727 0.01160082 0.00480859 0.00124027 0.00187783 0.00135325 
0.03314602 0.03959581 0.00800901 0.00186030 0.00074220 0.00140322 0.01081571 0.00654219 0.01587372 0.00164000 0.00170598 0.01139349 0.00496398 0.00122822 0.00190438 0.00135308 
0.03267205 0.03885923 0.00818825 0.00188462 0.00074166 0.00141882 0.01080291 0.00688510 0.01575832 0.00163794 0.00170505 0.01117428 0.00511787 0.00121667 0.00193226 0.00135285 
0.03224096 0.03809771 0.00836348 0.00190886 0.00074123 0.00143408 0.01078809 0.00723134 0.01565959 0.00163578 0.00170449 0.01094457 0.00526964 0.00120573 0.00196132 0.00135254 
0.03185048 0.03731480 0.00853397 0.00193294 0.00074089 0.00144887 0.01077162 0.00757994 0.01557829 0.00163352 0.00170432 0.01070580 0.00541872 0.00119551 0.00199143 0.00135218 
0.03149816 0.03651415 0.00869899 0.00195681 0.00074061 0.00146305 0.01075388 0.00792994 0.01551514 0.00163121 0.00170453 0.01045952 0.00556453 0.00118608 0.00202246 0.00135174 
0.03118144 0.03569955 0.00885786 0.00198040 0.00074039 0.00147651 0.01073525 0.00828037 0.01547076 0.00162885 0.00170514 0.01020731 0.00570650 0.00117753 0.00205429 0.00135123 
0.03089764 0.03487492 0.00900990 0.00200365 0.00074020 0.00148913 0.01071613 0.00863021 0.01544571 0.00162646 0.00170614 0.00995082 0.00584406 0.00116995 0.00208679 0.00135066 
0.03064397 0.03404421 0.00915444 0.00202649 0.00074003 0.00150081 0.01069691 0.00897847 0.01544047 0.00162405 0.00170756 0.00969175 0.00597670 0.00116339 0.00211985 0.00135002 
0.03041759 0.03321146 0.00929086 0.00204886 0.00073987 0.00151146 0.01067799 0.00932412 0.01545545 0.00162162 0.00170936 0.00943182 0.00610391 0.00115793 0.00215335 0.00134932 
0.03021562 0.03238074 0.00941856 0.00207071 0.00073970 0.00152101 0.01065974 0.00966615 0.01549096 0.00161918 0.00171157 0.00917282 0.00622518 0.00115361 0.00218719 0.00134854 
0.03003512 0.03155615 0.00953696 0.00209196 0.00073949 0.00152937 0.01064255 0.01000354 0.01554723 0.00161673 0.00171415 0.00891651 0.00634007 0.00115048 0.00222126 0.00134770 
0.02987319 0.03074174 0.00964552 0.00211256 0.00073925 0.00153650 0.01062677 0.01033526 0.01562443 0.00161426 0.00171712 0.00866471 0.00644816 0.00114857 0.00225548 0.00134680 
0.02972690 0.02994158 0.00974372 0.00213246 0.00073895 0.00154235 0.01061274 0.01066030 0.01572260 0.00161177 0.00172044 0.00841919 0.00654904 0.00114792 0.00228976 0.00134583 
0.02959339 0.02915964 0.00983110 0.00215158 0.00073857 0.00154688 0.01060080 0.01097766 0.01584173 0.00160926 0.00172411 0.00818177 0.00664237 0.00114854 0.00232402 0.00134480 
0.02946984 0.02839984 0.00990721 0.00216989 0.00073812 0.00155008 0.01059124 0.01128634 0.01598171 0.00160671 0.00172812 0.00795420 0.00672783 0.00115044 0.00235817 0.00134371 
0.02935351 0.02766601 0.00997166 0.00218731 0.00073757 0.00155194 0.01058433 0.01158538 0.01614232 0.00160411 0.00173243 0.00773823 0.00680515 0.00115362 0.00239216 0.00134256 
0.02924175 0.02696183 0.01002410 0.00220381 0.00073692 0.00155247 0.01058032 0.01187381 0.01632329 0.00160145 0.00173703 0.00753557 0.00687409 0.00115808 0.00242592 0.00134136 
0.02913202 0.02629085 0.01006420 0.00221933 0.00073615 0.00155169 0.01057944 0.01215070 0.01652425 0.00159872 0.00174190 0.00734788 0.00693447 0.00116379 0.00245940 0.00134010 
0.02902191 0.02565649 0.01009170 0.00223382 0.00073526 0.00154963 0.01058186 0.01241516 0.01674473 0.00159590 0.00174703 0.00717677 0.00698616 0.00117074 0.00249255 0.00133879 
0.02890915 0.02506194 0.01010636 0.00224724 0.00073425 0.00154632 0.01058775 0.01266632 0.01698420 0.00159297 0.00175237 0.00702377 0.00702907 0.00117889 0.00252532 0.00133743 
0.02879162 0.02451023 0.01010800 0.00225956 0.00073310 0.00154184 0.01059722 0.01290334 0.01724204 0.00158993 0.00175792 0.00689035 0.00706317 0.00118821 0.00255769 0.00133602 
0.02866739 0.02400415 0.01009647 0.00227072 0.00073181 0.00153624 0.01061038 0.01312542 0.01751755 0.00158676 0.00176365 0.00677788 0.00708847 0.00119865 0.00258962 0.00133457 
0.02853466 0.02354628 0.01007168 0.00228070 0.00073038 0.00152962 0.01062728 0.01333183 0.01780997 0.00158345 0.00176954 0.00668767 0.00710504 0.00121016 0.00262109 0.00133309 
0.02839188 0.02313894 0.01003358 0.00228946 0.00072881 0.00152205 0.01064796 0.01352184 0.01811847 0.00157999 0.00177556 0.00662090 0.00711301 0.00122268 0.00265209 0.00133157 
0.02823764 0.02278419 0.00998217 0.00229698 0.00072709 0.00151364 0.01067241 0.01369482 0.01844214 0.00157637 0.00178171 0.00657864 0.00711254 0.00123615 0.00268259 0.00133002 
0.02807077 0.02248382 0.00991748 0.00230324 0.00072523 0.00150451 0.01070061 0.01385015 0.01878002 0.00157259 0.00178796 0.00656188 0.00710387 0.00125051 0.00271261 0.00132845 
0.02789030 0.02223934 0.00983960 0.00230822 0.00072322 0.00149478 0.01073250 0.01398729 0.01913110 0.00156866 0.00179429 0.00657146 0.00708727 0.00126568 0.00274212 0.00132686 
0.02769545 0.02205198 0.00974866 0.00231190 0.00072108 0.00148457 0.01076801 0.01410575 0.01949431 0.00156457 0.00180070 0.00660809 0.00706308 0.00128159 0.00277115 0.00132526 
0.02748569 0.02192264 0.00964485 0.00231429 0.00071880 0.00147402 0.01080703 0.01420511 0.01986853 0.00156033 0.00180717 0.00667237 0.00703168 0.00129816 0.00279968 0.00132365 
0.02726068 0.02185195 0.00952837 0.00231536 0.00071639 0.00146328 0.01084946 0.01428501 0.02025262 0.00155595 0.00181370 0.00676475 0.00699350 0.00131533 0.00282775 0.00132204 
0.02702030 0.02184021 0.00939949 0.00231513 0.00071386 0.00145251 0.01089515 0.01434513 0.02064538 0.00155146 0.00182029 0.00688553 0.00694903 0.00133300 0.00285535 0.00132044 
0.02676463 0.02188743 0.00925853 0.00231361 0.00071121 0.00144185 0.01094397 0.01438526 0.02104562 0.00154687 0.00182693 0.00703489 0.00689878 0.00135110 0.00288251 0.00131885 
0.02649398 0.02199330 0.00910582 0.00231080 0.00070845 0.00143147 0.01099574 0.01440522 0.02145207 0.00154222 0.00183362 0.00721284 0.00684332 0.00136955 0.00290925 0.00131727 
0.02620884 0.02215719 0.00894177 0.00230673 0.00070559 0.00142154 0.01105033 0.01440493 0.02186350 0.00153753 0.00184039 0.00741924 0.00678326 0.00138827 0.00293558 0.00131573 
0.02590991 0.02237819 0.00876679 0.00230142 0.00070264 0.00141222 0.01110756 0.01438435 0.02227864 0.00153284 0.00184723 0.00765383 0.00671925 0.00140719 0.00296154 0.00131422 
0.02559806 0.02265507 0.00858136 0.00229490 0.00069961 0.00140368 0.01116727 0.01434353 0.02269622 0.00152821 0.00185417 0.00791617 0.00665197 0.00142622 0.00298715 0.00131274 
0.02527437 0.02298632 0.00838598 0.00228721 0.00069650 0.00139610 0.01122931 0.01428258 0.02311496 0.00152368 0.00186122 0.00820569 0.00658212 0.00144531 0.00301244 0.00131132 
0.02494005 0.02337014 0.00818121 0.00227838 0.00069333 0.00138963 0.01129353 0.01420169 0.02353361 0.00151931 0.00186842 0.00852166 0.00651044 0.00146436 0.00303742 0.00130995 
0.02459649 0.02380445 0.00796761 0.00226847 0.00069011 0.00138446 0.01135981 0.01410111 0.02395090 0.00151517 0.00187579 0.00886321 0.00643769 0.00148333 0.00306214 0.00130864 
0.02424522 0.02428693 0.00774580 0.00225751 0.00068685 0.00138074 0.01142802 0.01398115 0.02436560 0.00151132 0.00188336 0.00922933 0.00636465 0.00150215 0.00308661 0.00130739 
0.02388790 0.02481497 0.00751642 0.00224558 0.00068357 0.00137864 0.01149808 0.01384222 0.02477650 0.00150784 0.00189118 0.00961889 0.00629212 0.00152076 0.00311086 0.00130623 
0.02352631 0.02538577 0.00728015 0.00223273 0.00068026 0.00137832 0.01156991 0.01368475 0.02518240 0.00150481 0.00189929 0.01003059 0.00622088 0.00153910 0.00313492 0.00130514 
0.02316233 0.02599629 0.00703770 0.00221903 0.00067695 0.00137993 0.01164347 0.01350927 0.02558214 0.00150231 0.00190773 0.01046303 0.00615176 0.00155713 0.00315882 0.00130414 
0.02279792 0.02664329 0.00678979 0.00220454 0.00067365 0.00138362 0.01171872 0.01331636 0.02597459 0.00150043 0.00191654 0.01091470 0.00608556 0.00157481 0.00318256 0.00130323 
0.02243514 0.02732334 0.00653719 0.00218935 0.00067037 0.00138952 0.01179570 0.01310664 0.02635867 0.00149927 0.00192579 0.01138397 0.00602307 0.00159210 0.00320618 0.00130241 
0.02207607 0.02803286 0.00628067 0.00217353 0.00066712 0.00139777 0.01187444 0.01288083 0.02673332 0.00149892 0.00193553 0.01186909 0.00596509 0.00160896 0.00322970 0.00130170 
0.02172285 0.02876812 0.00602105 0.00215717 0.00066390 0.00140850 0.01195503 0.01263967 0.02709753 0.00149948 0.00194582 0.01236823 0.00591240 0.00162538 0.00325312 0.00130109 
0.02137764 0.02952528 0.00575914 0.00214034 0.00066074 0.00142181 0.01203756 0.01238395 0.02745036 0.00150105 0.00195671 0.01287950 0.00586576 0.00164133 0.00327647 0.00130058 
0.02104262 0.03030037 0.00549579 0.00212313 0.00065765 0.00143780 0.01212220 0.01211453 0.02779089 0.00150374 0.00196826 0.01340089 0.00582589 0.00165680 0.00329976 0.00130018 
0.02071994 0.03108938 0.00523186 0.00210563 0.00065462 0.00145658 0.01220913 0.01183230 0.02811826 0.00150765 0.00198054 0.01393037 0.00579350 0.00167177 0.00332298 0.00129989 
0.02041173 0.03188821 0.00496823 0.00208794 0.00065168 0.00147822 0.01229857 0.01153820 0.02843167 0.00151289 0.00199360 0.01446584 0.00576925 0.00168626 0.00334616 0.00129971 
0.02012008 0.03269276 0.00470577 0.00207014 0.00064882 0.00150278 0.01239077 0.01123321 0.02873036 0.00151955 0.00200752 0.01500516 0.00575378 0.00170025 0.00336929 0.00129963 
0.01984702 0.03349890 0.00444540 0.00205232 0.00064607 0.00153033 0.01248602 0.01091832 0.02901363 0.00152774 0.00202234 0.01554616 0.00574766 0.00171377 0.00339237 0.00129966 
0.01959452 0.03430252 0.00418801 0.00203457 0.00064343 0.00156090 0.01258463 0.01059458 0.02928086 0.00153756 0.00203813 0.01608667 0.00575143 0.00172682 0.00341540 0.00129979 
0.01936445 0.03509954 0.00393451 0.00201698 0.00064090 0.00159452 0.01268696 0.01026307 0.02953144 0.00154910 0.00205494 0.01662451 0.00576558 0.00173943 0.00343838 0.00130001 
0.01915857 0.03588595 0.00368582 0.00199965 0.00063849 0.00163121 0.01279337 0.00992486 0.02976486 0.00156245 0.00207282 0.01715751 0.00579052 0.00175162 0.00346129 0.00130032 
0.01897854 0.03665782 0.00344285 0.00198264 0.00063622 0.00167096 0.01290427 0.00958109 0.02998064 0.00157771 0.00209183 0.01768354 0.00582663 0.00176341 0.00348413 0.00130072 
0.01882589 0.03741131 0.00320652 0.00196606 0.00063408 0.00171377 0.01302007 0.00923287 0.03017837 0.00159494 0.00211201 0.01820049 0.00587420 0.00177484 0.00350687 0.00130119 
0.01870201 0.03814271 0.00297773 0.00194998 0.00063209 0.00175960 0.01314120 0.00888135 0.03035770 0.00161422 0.00213339 0.01870630 0.00593348 0.00178595 0.00352951 0.00130173 
0.01860813 0.03884846 0.00275739 0.00193447 0.00063024 0.00180841 0.01326811 0.00852770 0.03051831 0.00163563 0.00215602 0.01919899 0.00600463 0.00179677 0.00355203 0.00130232 
0.01854532 0.03952514 0.00254639 0.00191961 0.00062854 0.00186013 0.01340125 0.00817306 0.03065996 0.00165920 0.00217992 0.01967664 0.00608775 0.00180736 0.00357439 0.00130295 
0.01851450 0.04016954 0.00234561 0.00190547 0.00062699 0.00191470 0.01354106 0.00781861 0.03078247 0.00168500 0.00220511 0.02013743 0.00618286 0.00181775 0.00359659 0.00130361 
0.01851640 0.04077861 0.00215590 0.00189210 0.00062560 0.00197203 0.01368800 0.00746551 0.03088569 0.00171305 0.00223161 0.02057962 0.00628992 0.00182798 0.00361860 0.00130428 
0.01855155 0.04134953 0.00197813 0.00187956 0.00062438 0.00203202 0.01384250 0.00711494 0.03096954 0.00174338 0.00225942 0.02100160 0.00640881 0.00183812 0.00364038 0.00130496 
0.01862032 0.04187971 0.00181311 0.00186790 0.00062331 0.00209456 0.01400498 0.00676804 0.03103399 0.00177601 0.00228853 0.02140188 0.00653931 0.00184820 0.00366192 0.00130561 
0.01872287 0.04236678 0.00166165 0.00185717 0.00062240 0.00215950 0.01417586 0.00642597 0.03107907 0.00181093 0.00231894 0.02177908 0.00668117 0.00185829 0.00368318 0.00130622 
0.01885917 0.04280862 0.00152451 0.00184739 0.00062166 0.00222672 0.01435550 0.00608988 0.03110485 0.00184814 0.00235063 0.02213197 0.00683403 0.00186842 0.00370414 0.00130678 
0.01902898 0.04320336 0.00140244 0.00183861 0.00062109 0.00229607 0.01454426 0.00576089 0.03111146 0.00188761 0.00238356 0.02245948 0.00699748 0.00187865 0.00372476 0.00130727 
0.01923187 0.04354940 0.00129615 0.00183083 0.00062067 0.00236737 0.01474244 0.00544011 0.03109906 0.00192931 0.00241769 0.02276067 0.00717103 0.00188902 0.00374502 0.00130766 
0.01946722 0.04384541 0.00120631 0.00182408 0.00062042 0.00244044 0.01495030 0.00512864 0.03106790 0.00197317 0.00245298 0.02303477 0.00735412 0.00189959 0.00376489 0.00130793 
0.01973419 0.04409032 0.00113356 0.00181836 0.00062033 0.00251512 0.01516806 0.00482756 0.03101824 0.00201915 0.00248936 0.02328118 0.00754611 0.00191040 0.00378434 0.00130806 
0.02003178 0.04428335 0.00107848 0.00181367 0.00062039 0.00259119 0.01539588 0.00453791 0.03095042 0.00206715 0.00252675 0.02349946 0.00774633 0.00192149 0.00380333 0.00130804 
0.02035878 0.04442398 0.00104161 0.00181000 0.00062061 0.00266846 0.01563387 0.00426073 0.03086481 0.00211709 0.00256509 0.02368934 0.00795402 0.00193290 0.00382185 0.00130783 
0.02071380 0.04451196 0.00102346 0.00180733 0.00062099 0.00274671 0.01588205 0.00399702 0.03076185 0.00216885 0.00260427 0.02385073 0.00816839 0.00194468 0.00383987 0.00130741 
0.02109527 0.04454734 0.00102446 0.00180563 0.00062151 0.00282573 0.01614041 0.00374775 0.03064200 0.00222231 0.00264420 0.02398371 0.00838856 0.00195685 0.00385736 0.00130677 
0.02150146 0.04453039 0.00104500 0.00180488 0.00062217 0.00290530 0.01640884 0.00351387 0.03050580 0.00227735 0.00268476 0.02408852 0.00861365 0.00196945 0.00387430 0.00130589 
0.02193049 0.04446168 0.00108541 0.00180504 0.00062298 0.00298517 0.01668716 0.00329630 0.03035381 0.00233381 0.00272583 0.02416560 0.00884271 0.00198250 0.00389066 0.00130473 
0.02238031 0.04434200 0.00114596 0.00180605 0.00062392 0.00306513 0.01697512 0.00309590 0.03018668 0.00239153 0.00276729 0.02421553 0.00907476 0.00199603 0.00390643 0.00130328 
0.02284875 0.04417241 0.00122684 0.00180786 0.00062499 0.00314494 0.01727239 0.00291353 0.03000507 0.00245035 0.00280899 0.02423905 0.00930879 0.00201006 0.00392159 0.00130151 
0.02333350 0.04395420 0.00132821 0.00181042 0.00062618 0.00322435 0.01757854 0.00275000 0.02980971 0.00251007 0.00285080 0.02423709 0.00954376 0.00202461 0.00393613 0.00129942 
0.02383215 0.04368885 0.00145012 0.00181366 0.00062748 0.00330314 0.01789308 0.00260607 0.02960137 0.00257051 0.00289254 0.02421071 0.00977863 0.00203968 0.00395002 0.00129698 
0.02434218 0.04337808 0.00159257 0.00181750 0.00062889 0.00338107 0.01821542 0.00248247 0.02938088 0.00263146 0.00293408 0.02416109 0.01001233 0.00205527 0.00396327 0.00129418 
0.02486098 0.04302381 0.00175550 0.00182188 0.00063041 0.00345791 0.01854489 0.00237989 0.02914912 0.00269271 0.00297523 0.02408960 0.01024380 0.00207140 0.00397586 0.00129100 
0.02538590 0.04262810 0.00193876 0.00182672 0.00063202 0.00353342 0.01888074 0.00229898 0.02890699 0.00275405 0.00301584 0.02399768 0.01047196 0.00208806 0.00398779 0.00128742 
0.02591419 0.04219322 0.00214212 0.00183192 0.00063371 0.00360738 0.01922214 0.00224032 0.02865546 0.00281525 0.00305572 0.02388691 0.01069577 0.00210523 0.00399906 0.00128344 
0.02644309 0.04172155 0.00236528 0.00183741 0.00063548 0.00367957 0.01956818 0.00220447 0.02839556 0.00287607 0.00309470 0.02375899 0.01091417 0.00212291 0.00400965 0.00127905 
0.02696980 0.04121563 0.00260788 0.00184310 0.00063731 0.00374977 0.01991785 0.00219193 0.02812832 0.00293630 0.00313260 0.02361567 0.01112616 0.00214108 0.00401959 0.00127423 
0.02749153 0.04067809 0.00286944 0.00184890 0.00063920 0.00381777 0.02027011 0.00220314 0.02785486 0.00299569 0.00316924 0.02345882 0.01133073 0.00215973 0.00402886 0.00126899 
0.02800548 0.04011168 0.00314945 0.00185472 0.00064114 0.00388338 0.02062381 0.00223850 0.02757630 0.00305400 0.00320443 0.02329035 0.01152692 0.00217881 0.00403749 0.00126333 
0.02850887 0.03951919 0.00344728 0.00186047 0.00064311 0.00394640 0.02097777 0.00229834 0.02729383 0.00311101 0.00323801 0.02311222 0.01171383 0.00219831 0.00404547 0.00125723 
0.02899898 0.03890351 0.00376225 0.00186606 0.00064511 0.00400666 0.02133072 0.00238295 0.02700865 0.00316647 0.00326978 0.02292645 0.01189058 0.00221820 0.00405281 0.00125071 
0.02947313 0.03826755 0.00409359 0.00187141 0.00064713 0.00406399 0.02168135 0.00249253 0.02672201 0.00322015 0.00329958 0.02273505 0.01205635 0.00223842 0.00405954 0.00124378 
0.02992870 0.03761425 0.00444047 0.00187642 0.00064915 0.00411822 0.02202832 0.00262725 0.02643516 0.00327184 0.00332725 0.02254007 0.01221038 0.00225896 0.00406567 0.00123643 
0.03036318 0.03694654 0.00480197 0.00188101 0.00065117 0.00416923 0.02237021 0.00278719 0.02614940 0.00332130 0.00335260 0.02234352 0.01235197 0.00227976 0.00407120 0.00122868 
0.03077415 0.03626736 0.00517709 0.00188511 0.00065316 0.00421686 0.02270561 0.00297238 0.02586603 0.00336833 0.00337549 0.02214744 0.01248049 0.00230078 0.00407617 0.00122056 
0.03115929 0.03557960 0.00556480 0.00188864 0.00065513 0.00426102 0.02303306 0.00318277 0.02558638 0.00341272 0.00339577 0.02195377 0.01259537 0.00232197 0.00408059 0.00121206 
0.03151642 0.03488613 0.00596395 0.00189152 0.00065706 0.00430160 0.02335108 0.00341823 0.02531178 0.00345428 0.00341330 0.02176445 0.01269613 0.00234329 0.00408449 0.00120323 
0.03184349 0.03418973 0.00637337 0.00189370 0.00065894 0.00433850 0.02365821 0.00367857 0.02504354 0.00349283 0.00342794 0.02158134 0.01278236 0.00236468 0.00408787 0.00119407 
0.03213861 0.03349314 0.00679181 0.00189512 0.00066075 0.00437166 0.02395295 0.00396352 0.02478300 0.00352820 0.00343958 0.02140622 0.01285373 0.00238610 0.00409078 0.00118462 
0.03240004 0.03279899 0.00721798 0.00189571 0.00066249 0.00440102 0.02423386 0.00427273 0.02453146 0.00356022 0.00344810 0.02124079 0.01290997 0.00240749 0.00409322 0.00117491 
0.03262621 0.03210979 0.00765051 0.00189543 0.00066414 0.00442654 0.02449946 0.00460576 0.02429021 0.00358877 0.00345341 0.02108664 0.01295094 0.00242880 0.00409523 0.00116496 
0.03281572 0.03142799 0.00808802 0.00189424 0.00066570 0.00444819 0.02474835 0.00496210 0.02406052 0.00361370 0.00345542 0.02094525 0.01297653 0.00244998 0.00409683 0.00115482 
0.03296738 0.03075585 0.00852907 0.00189212 0.00066716 0.00446597 0.02497913 0.00534116 0.02384362 0.00363493 0.00345407 0.02081798 0.01298676 0.00247098 0.00409804 0.00114453 
0.03308015 0.03009556 0.00897218 0.00188902 0.00066849 0.00447988 0.02519047 0.00574225 0.02364070 0.00365235 0.00344930 0.02070606 0.01298169 0.00249176 0.00409890 0.00113412 
0.03315323 0.02944912 0.00941586 0.00188494 0.00066971 0.00448995 0.02538108 0.00616459 0.02345290 0.00366590 0.00344107 0.02061059 0.01296151 0.00251225 0.00409942 0.00112363 
0.03318596 0.02881840 0.00985858 0.00187986 0.00067079 0.00449622 0.02554973 0.00660733 0.02328129 0.00367551 0.00342935 0.02053250 0.01292644 0.00253243 0.00409963 0.00111312 
0.03317794 0.02820513 0.01029879 0.00187378 0.00067172 0.00449873 0.02569528 0.00706953 0.02312689 0.00368116 0.00341413 0.02047259 0.01287681 0.00255223 0.00409955 0.00110262 
0.03312893 0.02761084 0.01073496 0.00186670 0.00067251 0.00449755 0.02581665 0.00755015 0.02299064 0.00368283 0.00339542 0.02043149 0.01281303 0.00257163 0.00409922 0.00109220 
0.03303891 0.02703694 0.01116552 0.00185864 0.00067314 0.00449278 0.02591286 0.00804806 0.02287340 0.00368053 0.00337323 0.02040966 0.01273556 0.00259058 0.00409865 0.00108189 
0.03290803 0.02648465 0.01158893 0.00184961 0.00067361 0.00448450 0.02598301 0.00856206 0.02277594 0.00367427 0.00334762 0.02040743 0.01264495 0.00260905 0.00409788 0.00107174 
0.03273667 0.02595504 0.01200366 0.00183964 0.00067391 0.00447282 0.02602632 0.00909084 0.02269893 0.00366412 0.00331862 0.02042494 0.01254179 0.00262701 0.00409691 0.00106182 
0.03252538 0.02544898 0.01240817 0.00182877 0.00067404 0.00445787 0.02604211 0.00963304 0.02264295 0.00365012 0.00328632 0.02046216 0.01242676 0.00264443 0.00409579 0.00105217 
0.03227490 0.02496723 0.01280100 0.00181703 0.00067400 0.00443979 0.02602980 0.01018717 0.02260845 0.00363237 0.00325078 0.02051892 0.01230057 0.00266128 0.00409453 0.00104285 
0.03198613 0.02451033 0.01318067 0.00180447 0.00067378 0.00441870 0.02598895 0.01075170 0.02259579 0.00361096 0.00321212 0.02059488 0.01216400 0.00267756 0.00409316 0.00103391 
0.03166018 0.02407872 0.01354577 0.00179113 0.00067339 0.00439478 0.02591921 0.01132500 0.02260518 0.00358602 0.00317045 0.02068954 0.01201786 0.00269324 0.00409171 0.00102539 
0.03129828 0.02367263 0.01389494 0.00177708 0.00067282 0.00436818 0.02582040 0.01190536 0.02263672 0.00355769 0.00312590 0.02080225 0.01186300 0.00270831 0.00409019 0.00101736 
0.03090184 0.02329219 0.01422687 0.00176238 0.00067208 0.00433908 0.02569243 0.01249103 0.02269039 0.00352613 0.00307860 0.02093222 0.01170033 0.00272278 0.00408863 0.00100986 
0.03047240 0.02293735 0.01454031 0.00174709 0.00067117 0.00430766 0.02553535 0.01308016 0.02276603 0.00349150 0.00302872 0.02107853 0.01153074 0.00273663 0.00408707 0.00100295 
0.03001163 0.02260797 0.01483407 0.00173128 0.00067009 0.00427409 0.02534936 0.01367085 0.02286333 0.00345400 0.00297642 0.02124012 0.01135518 0.00274988 0.00408551 0.00099666 
0.02952131 0.02230374 0.01510706 0.00171501 0.00066886 0.00423858 0.02513476 0.01426116 0.02298187 0.00341383 0.00292187 0.02141581 0.01117459 0.00276254 0.00408401 0.00099105 
0.02900334 0.02202426 0.01535826 0.00169837 0.00066747 0.00420131 0.02489202 0.01484907 0.02312108 0.00337120 0.00286527 0.02160433 0.01098994 0.00277462 0.00408257 0.00098616 
0.02845971 0.02176902 0.01558674 0.00168142 0.00066595 0.00416249 0.02462170 0.01543254 0.02328024 0.00332634 0.00280680 0.02180429 0.01080218 0.00278615 0.00408123 0.00098202 
0.02789248 0.02153741 0.01579165 0.00166425 0.00066429 0.00412231 0.02432452 0.01600949 0.02345852 0.00327948 0.00274669 0.02201422 0.01061227 0.00279715 0.00408002 0.00097869 
0.02730378 0.02132873 0.01597226 0.00164693 0.00066251 0.00408098 0.02400131 0.01657781 0.02365496 0.00323087 0.00268513 0.02223258 0.01042116 0.00280764 0.00407898 0.00097618 
0.02669579 0.02114220 0.01612793 0.00162953 0.00066063 0.00403870 0.02365303 0.01713537 0.02386844 0.00318077 0.00262235 0.02245777 0.01022978 0.00281767 0.00407813 0.00097453 
0.02607071 0.02097699 0.01625813 0.00161213 0.00065865 0.00399566 0.02328076 0.01768002 0.02409774 0.00312944 0.00255856 0.02268815 0.01003903 0.00282728 0.00407752 0.00097377 
0.02543080 0.02083220 0.01636243 0.00159480 0.00065660 0.00395207 0.02288567 0.01820961 0.02434153 0.00307713 0.00249400 0.02292203 0.00984979 0.00283651 0.00407717 0.00097392 
0.02477830 0.02070689 0.01644054 0.00157762 0.00065450 0.00390811 0.02246907 0.01872202 0.02459835 0.00302413 0.00242888 0.02315770 0.00966292 0.00284541 0.00407714 0.00097500 
0.02411544 0.02060009 0.01649226 0.00156065 0.00065235 0.00386399 0.02203235 0.01921510 0.02486664 0.00297068 0.00236345 0.02339346 0.00947922 0.00285403 0.00407745 0.00097702 
0.02344445 0.02051080 0.01651751 0.00154396 0.00065018 0.00381987 0.02157700 0.01968677 0.02514474 0.00291708 0.00229792 0.02362760 0.00929948 0.00286242 0.00407816 0.00097999 
0.02276752 0.02043800 0.01651633 0.00152761 0.00064802 0.00377596 0.02110460 0.02013495 0.02543092 0.00286357 0.00223252 0.02385844 0.00912441 0.00287065 0.00407931 0.00098392 
0.02208679 0.02038069 0.01648889 0.00151167 0.00064588 0.00373240 0.02061680 0.02055765 0.02572337 0.00281043 0.00216748 0.02408433 0.00895469 0.00287877 0.00408095 0.00098880 
0.02140435 0.02033785 0.01643546 0.00149617 0.00064378 0.00368938 0.02011531 0.02095288 0.02602020 0.00275791 0.00210302 0.02430367 0.00879096 0.00288685 0.00408313 0.00099464 
0.02072223 0.02030849 0.01635642 0.00148118 0.00064175 0.00364705 0.01960194 0.02131877 0.02631947 0.00270628 0.00203935 0.02451492 0.00863378 0.00289496 0.00408590 0.00100141 
0.02004237 0.02029163 0.01625230 0.00146674 0.00063981 0.00360556 0.01907849 0.02165349 0.02661922 0.00265577 0.00197669 0.02471659 0.00848368 0.00290315 0.00408931 0.00100910 
0.01936662 0.02028633 0.01612370 0.00145288 0.00063799 0.00356505 0.01854687 0.02195532 0.02691745 0.00260662 0.00191522 0.02490731 0.00834111 0.00291151 0.00409342 0.00101770 
0.01869676 0.02029168 0.01597134 0.00143965 0.00063632 0.00352565 0.01800895 0.02222263 0.02721213 0.00255906 0.00185515 0.02508578 0.00820646 0.00292009 0.00409829 0.00102717 
0.01803444 0.02030682 0.01579607 0.00142708 0.00063480 0.00348748 0.01746669 0.02245391 0.02750126 0.00251331 0.00179667 0.02525079 0.00808009 0.00292896 0.00410397 0.00103750 
0.01738121 0.02033092 0.01559881 0.00141518 0.00063348 0.00345064 0.01692200 0.02264773 0.02778283 0.00246957 0.00173994 0.02540126 0.00796228 0.00293820 0.00411053 0.00104863 
0.01673850 0.02036323 0.01538058 0.00140398 0.00063237 0.00341524 0.01637682 0.02280285 0.02805487 0.00242803 0.00168512 0.02553623 0.00785323 0.00294786 0.00411803 0.00106054 
0.01610764 0.02040302 0.01514250 0.00139349 0.00063150 0.00338137 0.01583309 0.02291811 0.02831545 0.00238886 0.00163238 0.02565485 0.00775311 0.00295801 0.00412652 0.00107317 
0.01548981 0.02044964 0.01488576 0.00138373 0.00063089 0.00334910 0.01529271 0.02299254 0.02856269 0.00235223 0.00158184 0.02575641 0.00766204 0.00296871 0.00413607 0.00108649 
0.01488609 0.02050250 0.01461163 0.00137469 0.00063057 0.00331849 0.01475754 0.02302529 0.02879478 0.00231828 0.00153364 0.02584034 0.00758004 0.00298003 0.00414673 0.00110043 
0.01429741 0.02056106 0.01432145 0.00136638 0.00063055 0.00328960 0.01422944 0.02301570 0.02901003 0.00228713 0.00148789 0.02590618 0.00750711 0.00299201 0.00415858 0.00111494 
0.01372460 0.02062484 0.01401663 0.00135879 0.00063085 0.00326247 0.01371016 0.02296327 0.02920679 0.00225891 0.00144469 0.02595366 0.00744319 0.00300470 0.00417166 0.00112997 
0.01316835 0.02069343 0.01369862 0.00135192 0.00063150 0.00323713 0.01320146 0.02286767 0.02938356 0.00223369 0.00140412 0.02598260 0.00738816 0.00301816 0.00418604 0.00114545 
0.01262922 0.02076646 0.01336892 0.00134575 0.00063251 0.00321361 0.01270496 0.02272877 0.02953896 0.00221156 0.00136626 0.02599300 0.00734187 0.00303243 0.00420176 0.00116131 
0.01210767 0.02084364 0.01302905 0.00134028 0.00063390 0.00319190 0.01222227 0.02254661 0.02967173 0.00219258 0.00133116 0.02598497 0.00730410 0.00304755 0.00421889 0.00117748 
0.01160404 0.02092471 0.01268059 0.00133549 0.00063568 0.00317202 0.01175486 0.02232143 0.02978077 0.00217677 0.00129886 0.02595879 0.00727461 0.00306353 0.00423746 0.00119391 
0.01111856 0.02100946 0.01232511 0.00133135 0.00063785 0.00315394 0.01130414 0.02205366 0.02986513 0.00216417 0.00126939 0.02591484 0.00725312 0.00308042 0.00425753 0.00121051 
0.01065134 0.02109773 0.01196421 0.00132785 0.00064044 0.00313765 0.01087141 0.02174394 0.02992402 0.00215476 0.00124276 0.02585366 0.00723930 0.00309822 0.00427913 0.00122722 
0.01020243 0.02118940 0.01159946 0.00132497 0.00064344 0.00312312 0.01045788 0.02139311 0.02995683 0.00214855 0.00121897 0.02577588 0.00723280 0.00311696 0.00430231 0.00124396 
0.00977175 0.02128437 0.01123246 0.00132269 0.00064686 0.00311031 0.01006462 0.02100219 0.02996312 0.00214549 0.00119802 0.02568229 0.00723325 0.00313663 0.00432708 0.00126065 
0.00935917 0.02138259 0.01086476 0.00132098 0.00065070 0.00309917 0.00969261 0.02057242 0.02994266 0.00214552 0.00117986 0.02557375 0.00724023 0.00315722 0.00435349 0.00127724 
0.00896449 0.02148401 0.01049789 0.00131983 0.00065496 0.00308964 0.00934271 0.02010523 0.02989536 0.00214860 0.00116446 0.02545123 0.00725334 0.00317873 0.00438154 0.00129363 
0.00858742 0.02158861 0.01013337 0.00131922 0.00065962 0.00308167 0.00901564 0.01960225 0.02982138 0.00215463 0.00115176 0.02531582 0.00727213 0.00320115 0.00441124 0.00130976 
0.00822765 0.02169636 0.00977265 0.00131912 0.00066469 0.00307518 0.00871201 0.01906530 0.02972102 0.00216351 0.00114171 0.02516866 0.00729616 0.00322443 0.00444261 0.00132557 
0.00788481 0.02180726 0.00941712 0.00131953 0.00067014 0.00307010 0.00843231 0.01849640 0.02959480 0.00217513 0.00113421 0.02501097 0.00732497 0.00324855 0.00447564 0.00134098 
0.00755851 0.02192128 0.00906815 0.00132042 0.00067597 0.00306635 0.00817688 0.01789772 0.02944344 0.00218937 0.00112919 0.02484404 0.00735810 0.00327346 0.00451032 0.00135592 
0.00724834 0.02203839 0.00872700 0.00132179 0.00068215 0.00306385 0.00794597 0.01727164 0.02926783 0.00220609 0.00112655 0.02466920 0.00739508 0.00329911 0.00454664 0.00137033 
0.00695386 0.02215855 0.00839489 0.00132364 0.00068866 0.00306250 0.00773966 0.01662070 0.02906905 0.00222514 0.00112618 0.02448783 0.00743546 0.00332543 0.00458456 0.00138416 
0.00667466 0.02228169 0.00807296 0.00132595 0.00069547 0.00306223 0.00755795 0.01594758 0.02884837 0.00224635 0.00112798 0.02430133 0.00747879 0.00335237 0.00462405 0.00139734 
0.00641033 0.02240771 0.00776223 0.00132873 0.00070256 0.00306293 0.00740069 0.01525514 0.02860721 0.00226957 0.00113181 0.02411111 0.00752462 0.00337985 0.00466508 0.00140983 
0.00616047 0.02253650 0.00746368 0.00133198 0.00070989 0.00306451 0.00726762 0.01454636 0.02834719 0.00229460 0.00113755 0.02391859 0.00757251 0.00340778 0.00470759 0.00142156 
0.00592473 0.02266788 0.00717815 0.00133572 0.00071742 0.00306687 0.00715837 0.01382435 0.02807005 0.00232128 0.00114508 0.02372519 0.00762204 0.00343607 0.00475151 0.00143250 
0.00570279 0.02280165 0.00690643 0.00133995 0.00072511 0.00306992 0.00707245 0.01309233 0.02777770 0.00234941 0.00115425 0.02353229 0.00767281 0.00346462 0.00479679 0.00144261 
0.00549438 0.02293759 0.00664917 0.00134469 0.00073293 0.00307356 0.00700928 0.01235363 0.02747218 0.00237879 0.00116494 0.02334126 0.00772444 0.00349334 0.00484335 0.00145184 
0.00529929 0.02307539 0.00640693 0.00134996 0.00074081 0.00307770 0.00696818 0.01161166 0.02715564 0.00240923 0.00117698 0.02315341 0.00777655 0.00352211 0.00489110 0.00146017 
0.00511738 0.02321472 0.00618019 0.00135580 0.00074873 0.00308224 0.00694836 0.01086992 0.02683034 0.00244053 0.00119026 0.02297003 0.00782880 0.00355082 0.00493996 0.00146758 
0.00494856 0.02335522 0.00596928 0.00136222 0.00075661 0.00308709 0.00694898 0.01013194 0.02649865 0.00247249 0.00120462 0.02279232 0.00788087 0.00357935 0.00498983 0.00147403 
0.00479284 0.02349645 0.00577447 0.00136927 0.00076442 0.00309216 0.00696909 0.00940131 0.02616301 0.00250491 0.00121992 0.02262141 0.00793245 0.00360758 0.00504059 0.00147952 
0.00465031 0.02363795 0.00559589 0.00137698 0.00077209 0.00309738 0.00700768 0.00868164 0.02582590 0.00253760 0.00123603 0.02245838 0.00798327 0.00363538 0.00509215 0.00148403 
0.00452112 0.02377923 0.00543360 0.00138540 0.00077956 0.00310265 0.00706369 0.00797653 0.02548989 0.00257036 0.00125281 0.02230420 0.00803308 0.00366263 0.00514438 0.00148755 
0.00440553 0.02391972 0.00528753 0.00139456 0.00078678 0.00310789 0.00713601 0.00728960 0.02515754 0.00260301 0.00127012 0.02215977 0.00808166 0.00368919 0.00519717 0.00149010 
0.00430390 0.02405886 0.00515752 0.00140452 0.00079369 0.00311305 0.00722347 0.00662442 0.02483145 0.00263536 0.00128785 0.02202587 0.00812879 0.00371493 0.00525038 0.00149167 
0.00421665 0.02419605 0.00504333 0.00141533 0.00080023 0.00311804 0.00732488 0.00598452 0.02451421 0.00266723 0.00130586 0.02190319 0.00817431 0.00373972 0.00530389 0.00149227 
0.00414431 0.02433064 0.00494461 0.00142703 0.00080633 0.00312280 0.00743901 0.00537336 0.02420836 0.00269845 0.00132404 0.02179232 0.00821807 0.00376344 0.00535758 0.00149192 
0.00408749 0.02446200 0.00486093 0.00143968 0.00081193 0.00312729 0.00756464 0.00479433 0.02391645 0.00272887 0.00134228 0.02169375 0.00825992 0.00378595 0.00541129 0.00149064 
0.00404691 0.02458947 0.00479178 0.00145333 0.00081698 0.00313144 0.00770052 0.00425070 0.02364094 0.00275832 0.00136049 0.02160784 0.00829978 0.00380713 0.00546490 0.00148846 
0.00402333 0.02471240 0.00473657 0.00146803 0.00082141 0.00313521 0.00784540 0.00374563 0.02338422 0.00278667 0.00137856 0.02153485 0.00833756 0.00382685 0.00551828 0.00148540 
0.00401761 0.02483014 0.00469465 0.00148384 0.00082517 0.00313856 0.00799807 0.00328216 0.02314861 0.00281379 0.00139641 0.02147494 0.00837319 0.00384500 0.00557128 0.00148149 
0.00403070 0.02494206 0.00466528 0.00150079 0.00082819 0.00314145 0.00815731 0.00286315 0.02293630 0.00283955 0.00141397 0.02142814 0.00840664 0.00386146 0.00562378 0.00147678 
0.00406358 0.02504756 0.00464770 0.00151893 0.00083043 0.00314387 0.00832195 0.00249132 0.02274939 0.00286386 0.00143117 0.02139441 0.00843789 0.00387613 0.00567564 0.00147131 
0.00411731 0.02514608 0.00464108 0.00153831 0.00083184 0.00314579 0.00849084 0.00216917 0.02258981 0.00288660 0.00144795 0.02137356 0.00846693 0.00388891 0.00572674 0.00146512 
0.00419299 0.02523709 0.00464453 0.00155897 0.00083236 0.00314720 0.00866288 0.00189903 0.02245938 0.00290770 0.00146428 0.02136535 0.00849377 0.00389970 0.00577695 0.00145826 
0.00429176 0.02532014 0.00465716 0.00158093 0.00083196 0.00314808 0.00883702 0.00168299 0.02235973 0.00292710 0.00148010 0.02136940 0.00851844 0.00390843 0.00582615 0.00145079 
0.00441479 0.02539483 0.00467802 0.00160423 0.00083059 0.00314844 0.00901228 0.00152294 0.02229233 0.00294473 0.00149541 0.02138528 0.00854099 0.00391502 0.00587422 0.00144274 
0.00456327 0.02546085 0.00470617 0.00162888 0.00082822 0.00314828 0.00918772 0.00142050 0.02225847 0.00296055 0.00151017 0.02141246 0.00856147 0.00391939 0.00592107 0.00143419 
0.00473840 0.02551797 0.00474064 0.00165490 0.00082482 0.00314760 0.00936250 0.00137706 0.02225924 0.00297453 0.00152440 0.02145032 0.00857994 0.00392151 0.00596658 0.00142518 
0.00494137 0.02556606 0.00478045 0.00168229 0.00082036 0.00314643 0.00953582 0.00139373 0.02229554 0.00298666 0.00153809 0.02149820 0.00859648 0.00392132 0.00601067 0.00141578 
0.00517335 0.02560511 0.00482465 0.00171105 0.00081484 0.00314478 0.00970700 0.00147135 0.02236805 0.00299694 0.00155127 0.02155536 0.00861118 0.00391880 0.00605326 0.00140605 
0.00543548 0.02563521 0.00487227 0.00174117 0.00080822 0.00314267 0.00987539 0.00161048 0.02247724 0.00300537 0.00156395 0.02162101 0.00862412 0.00391393 0.00609426 0.00139604 
0.00572887 0.02565658 0.00492239 0.00177263 0.00080052 0.00314015 0.01004048 0.00181141 0.02262337 0.00301198 0.00157618 0.02169432 0.00863540 0.00390669 0.00613361 0.00138582 
0.00605457 0.02566958 0.00497409 0.00180539 0.00079173 0.00313723 0.01020181 0.00207412 0.02280647 0.00301681 0.00158800 0.02177440 0.00864513 0.00389710 0.00617125 0.00137544 
0.00641355 0.02567468 0.00502650 0.00183942 0.00078187 0.00313396 0.01035903 0.00239829 0.02302636 0.00301991 0.00159946 0.02186037 0.00865341 0.00388516 0.00620714 0.00136497 
0.00680671 0.02567254 0.00507878 0.00187465 0.00077094 0.00313037 0.01051185 0.00278332 0.02328263 0.00302134 0.00161062 0.02195131 0.00866035 0.00387092 0.00624124 0.00135446 
0.00723486 0.02566392 0.00513016 0.00191103 0.00075898 0.00312652 0.01066011 0.00322830 0.02357464 0.00302116 0.00162157 0.02204628 0.00866606 0.00385441 0.00627353 0.00134397 
0.00769869 0.02564977 0.00517989 0.00194849 0.00074602 0.00312244 0.01080370 0.00373203 0.02390156 0.00301947 0.00163237 0.02214435 0.00867066 0.00383570 0.00630399 0.00133357 
0.00819880 0.02563117 0.00522729 0.00198693 0.00073209 0.00311819 0.01094263 0.00429300 0.02426231 0.00301635 0.00164310 0.02224459 0.00867424 0.00381484 0.00633262 0.00132330 
0.00873564 0.02560937 0.00527177 0.00202626 0.00071726 0.00311381 0.01107696 0.00490943 0.02465563 0.00301190 0.00165386 0.02234609 0.00867693 0.00379191 0.00635941 0.00131321 
0.00930953 0.02558574 0.00531277 0.00206638 0.00070157 0.00310935 0.01120686 0.00557925 0.02508004 0.00300623 0.00166474 0.02244794 0.00867884 0.00376702 0.00638440 0.00130336 
0.00992064 0.02556185 0.00534983 0.00210716 0.00068509 0.00310487 0.01133257 0.00630010 0.02553388 0.00299946 0.00167584 0.02254929 0.00868008 0.00374026 0.00640761 0.00129379 
0.01056899 0.02553937 0.00538256 0.00214848 0.00066790 0.00310041 0.01145440 0.00706938 0.02601530 0.00299170 0.00168725 0.02264929 0.00868076 0.00371175 0.00642907 0.00128455 
0.01125443 0.02552014 0.00541063 0.00219021 0.00065008 0.00309603 0.01157272 0.00788419 0.02652227 0.00298309 0.00169910 0.02274715 0.00868098 0.00368161 0.00644882 0.00127568 
0.01197664 0.02550613 0.00543382 0.00223219 0.00063171 0.00309178 0.01168798 0.00874143 0.02705260 0.00297376 0.00171147 0.02284212 0.00868084 0.00364997 0.00646694 0.00126721 
0.01273512 0.02549943 0.00545198 0.00227427 0.00061290 0.00308770 0.01180068 0.00963775 0.02760395 0.00296384 0.00172448 0.02293349 0.00868046 0.00361697 0.00648346 0.00125919 
0.01352921 0.02550226 0.00546505 0.00231630 0.00059375 0.00308385 0.01191136 0.01056956 0.02817383 0.00295347 0.00173823 0.02302063 0.00867993 0.00358277 0.00649848 0.00125164 
0.01435804 0.02551692 0.00547304 0.00235810 0.00057436 0.00308027 0.01202062 0.01153312 0.02875965 0.00294279 0.00175282 0.02310295 0.00867934 0.00354752 0.00651207 0.00124459 
0.01522057 0.02554583 0.00547608 0.00239949 0.00055486 0.00307699 0.01212909 0.01252445 0.02935870 0.00293194 0.00176837 0.02317991 0.00867879 0.00351138 0.00652431 0.00123807 
0.01611556 0.02559148 0.00547436 0.00244031 0.00053537 0.00307407 0.01223742 0.01353945 0.02996816 0.00292105 0.00178497 0.02325105 0.00867838 0.00347451 0.00653529 0.00123209 
0.01704159 0.02565642 0.00546815 0.00248036 0.00051602 0.00307154 0.01234630 0.01457386 0.03058516 0.00291027 0.00180271 0.02331598 0.00867818 0.00343709 0.00654511 0.00122668 
0.01799707 0.02574325 0.00545781 0.00251946 0.00049694 0.00306943 0.01245641 0.01562330 0.03120674 0.00289972 0.00182170 0.02337435 0.00867830 0.00339930 0.00655386 0.00122183 
0.01898020 0.02585460 0.00544379 0.00255744 0.00047827 0.00306777 0.01256846 0.01668326 0.03182991 0.00288954 0.00184200 0.02342590 0.00867881 0.00336130 0.00656166 0.00121757 
0.01998902 0.02599312 0.00542660 0.00259409 0.00046014 0.00306659 0.01268314 0.01774920 0.03245166 0.00287986 0.00186372 0.02347042 0.00867979 0.00332327 0.00656861 0.00121390 
0.02102139 0.02616144 0.00540685 0.00262924 0.00044271 0.00306591 0.01280112 0.01881648 0.03306896 0.00287079 0.00188691 0.02350778 0.00868132 0.00328539 0.00657481 0.00121081 
0.02207502 0.02636218 0.00538518 0.00266271 0.00042611 0.00306574 0.01292308 0.01988045 0.03367878 0.00286246 0.00191164 0.02353790 0.00868348 0.00324782 0.00658038 0.00120832 
0.02314744 0.02659790 0.00536232 0.00269432 0.00041050 0.00306610 0.01304964 0.02093644 0.03427812 0.00285497 0.00193798 0.02356077 0.00868634 0.00321075 0.00658541 0.00120640 
0.02423607 0.02687109 0.00533907 0.00272390 0.00039602 0.00306700 0.01318142 0.02197979 0.03486401 0.00284841 0.00196596 0.02357643 0.00868997 0.00317433 0.00659003 0.00120505 
0.02533814 0.02718415 0.00531626 0.00275128 0.00038281 0.00306844 0.01331896 0.02300589 0.03543356 0.00284289 0.00199563 0.02358498 0.00869444 0.00313873 0.00659433 0.00120426 
0.02645080 0.02753938 0.00529479 0.00277631 0.00037102 0.00307041 0.01346279 0.02401018 0.03598392 0.00283848 0.00202701 0.02358658 0.00869981 0.00310411 0.00659842 0.00120401 
0.02757108 0.02793894 0.00527559 0.00279884 0.00036078 0.00307291 0.01361334 0.02498819 0.03651235 0.00283527 0.00206012 0.02358144 0.00870615 0.00307061 0.00660240 0.00120429 
0.02869589 0.02838484 0.00525963 0.00281875 0.00035225 0.00307594 0.01377102 0.02593556 0.03701621 0.00283330 0.00209497 0.02356980 0.00871351 0.00303838 0.00660636 0.00120507 
0.02982207 0.02887891 0.00524791 0.00283589 0.00034555 0.00307947 0.01393615 0.02684806 0.03749296 0.00283264 0.00213155 0.02355195 0.00872195 0.00300756 0.00661040 0.00120633 
0.03094640 0.02942279 0.00524145 0.00285018 0.00034080 0.00308348 0.01410897 0.02772160 0.03794021 0.00283333 0.00216984 0.02352823 0.00873151 0.00297825 0.00661461 0.00120804 
0.03206559 0.03001790 0.00524129 0.00286151 0.00033814 0.00308795 0.01428966 0.02855229 0.03835570 0.00283539 0.00220983 0.02349900 0.00874226 0.00295059 0.00661906 0.00121017 
0.03317631 0.03066545 0.00524848 0.00286980 0.00033768 0.00309284 0.01447831 0.02933641 0.03873734 0.00283885 0.00225145 0.02346466 0.00875422 0.00292468 0.00662384 0.00121270 
0.03427523 0.03136637 0.00526405 0.00287500 0.00033952 0.00309813 0.01467493 0.03007047 0.03908317 0.00284372 0.00229468 0.02342562 0.00876743 0.00290061 0.00662902 0.00121560 
0.03535901 0.03212134 0.00528904 0.00287705 0.00034375 0.00310378 0.01487943 0.03075120 0.03939146 0.00284998 0.00233943 0.02338233 0.00878193 0.00287846 0.00663465 0.00121882 
0.03642431 0.03293077 0.00532448 0.00287594 0.00035048 0.00310975 0.01509165 0.03137560 0.03966061 0.00285764 0.00238564 0.02333524 0.00879775 0.00285830 0.00664080 0.00122234 
0.03746782 0.03379476 0.00537137 0.00287166 0.00035977 0.00311598 0.01531131 0.03194092 0.03988925 0.00286665 0.00243322 0.02328481 0.00881489 0.00284020 0.00664751 0.00122612 
0.03848631 0.03471312 0.00543068 0.00286422 0.00037170 0.00312244 0.01553807 0.03244468 0.04007620 0.00287698 0.00248207 0.02323154 0.00883339 0.00282420 0.00665482 0.00123013 
0.03947658 0.03568532 0.00550333 0.00285366 0.00038631 0.00312907 0.01577148 0.03288470 0.04022046 0.00288858 0.00253208 0.02317590 0.00885324 0.00281033 0.00666277 0.00123433 
0.04043552 0.03671053 0.00559021 0.00284003 0.00040365 0.00313582 0.01601102 0.03325911 0.04032128 0.00290140 0.00258314 0.02311837 0.00887444 0.00279862 0.00667139 0.00123868 
0.04136015 0.03778760 0.00569216 0.00282341 0.00042374 0.00314263 0.01625605 0.03356634 0.04037809 0.00291535 0.00263511 0.02305945 0.00889698 0.00278907 0.00668070 0.00124316 
0.04224755 0.03891501 0.00580995 0.00280389 0.00044660 0.00314945 0.01650588 0.03380514 0.04039054 0.00293037 0.00268786 0.02299959 0.00892086 0.00278170 0.00669070 0.00124771 
0.04309499 0.04009095 0.00594429 0.00278159 0.00047224 0.00315623 0.01675972 0.03397459 0.04035851 0.00294636 0.00274124 0.02293929 0.00894603 0.00277647 0.00670141 0.00125232 
0.04389984 0.04131324 0.00609582 0.00275664 0.00050062 0.00316289 0.01701670 0.03407410 0.04028208 0.00296322 0.00279511 0.02287899 0.00897246 0.00277338 0.00671282 0.00125693 
0.04465966 0.04257941 0.00626510 0.00272920 0.00053173 0.00316938 0.01727590 0.03410339 0.04016155 0.00298086 0.00284929 0.02281913 0.00900012 0.00277238 0.00672493 0.00126153 
0.04537216 0.04388662 0.00645261 0.00269945 0.00056552 0.00317564 0.01753631 0.03406252 0.03999743 0.00299915 0.00290364 0.02276016 0.00902894 0.00277343 0.00673771 0.00126608 
0.04603524 0.04523174 0.00665874 0.00266758 0.00060193 0.00318161 0.01779687 0.03395189 0.03979044 0.00301798 0.00295797 0.02270248 0.00905886 0.00277646 0.00675115 0.00127055 
0.04664702 0.04661134 0.00688378 0.00263380 0.00064088 0.00318723 0.01805647 0.03377222 0.03954150 0.00303722 0.00301211 0.02264649 0.00908980 0.00278143 0.00676522 0.00127491 
0.04720580 0.04802167 0.00712795 0.00259833 0.00068228 0.00319244 0.01831395 0.03352452 0.03925173 0.00305674 0.00306589 0.02259256 0.00912169 0.00278825 0.00677989 0.00127913 
0.04771010 0.04945872 0.00739133 0.00256143 0.00072604 0.00319719 0.01856811 0.03321014 0.03892244 0.00307641 0.00311913 0.02254106 0.00915441 0.00279683 0.00679511 0.00128319 
0.04815868 0.05091821 0.00767394 0.00252334 0.00077202 0.00320142 0.01881773 0.03283073 0.03855514 0.00309609 0.00317165 0.02249231 0.00918788 0.00280710 0.00681085 0.00128706 
0.04855052 0.05239560 0.00797566 0.00248434 0.00082009 0.00320508 0.01906155 0.03238823 0.03815148 0.00311565 0.00322327 0.02244663 0.00922196 0.00281895 0.00682706 0.00129073 
0.04888482 0.05388615 0.00829629 0.00244471 0.00087011 0.00320811 0.01929834 0.03188483 0.03771332 0.00313495 0.00327382 0.02240431 0.00925654 0.00283229 0.00684368 0.00129417 
0.04916106 0.05538491 0.00863550 0.00240473 0.00092192 0.00321047 0.01952682 0.03132304 0.03724266 0.00315383 0.00332312 0.02236561 0.00929147 0.00284700 0.00686066 0.00129736 
0.04937893 0.05688674 0.00899288 0.00236472 0.00097533 0.00321211 0.01974575 0.03070557 0.03674163 0.00317218 0.00337101 0.02233078 0.00932661 0.00286297 0.00687795 0.00130030 
0.04953838 0.05838636 0.00936789 0.00232496 0.00103017 0.00321300 0.01995390 0.03003539 0.03621254 0.00318985 0.00341731 0.02230004 0.00936181 0.00288010 0.00689547 0.00130296 
0.04963961 0.05987838 0.00975988 0.00228578 0.00108623 0.00321309 0.02015006 0.02931568 0.03565778 0.00320671 0.00346188 0.02227358 0.00939690 0.00289825 0.00691316 0.00130534 
0.04968304 0.06135728 0.01016812 0.00224748 0.00114331 0.00321235 0.02033307 0.02854982 0.03507988 0.00322262 0.00350455 0.02225159 0.00943171 0.00291732 0.00693096 0.00130744 
0.04966937 0.06281752 0.01059174 0.00221037 0.00120120 0.00321075 0.02050181 0.02774137 0.03448147 0.00323748 0.00354520 0.02223421 0.00946607 0.00293718 0.00694880 0.00130924 
0.04959951 0.06425348 0.01102980 0.00217476 0.00125966 0.00320828 0.02065523 0.02689406 0.03386526 0.00325115 0.00358368 0.02222158 0.00949979 0.00295771 0.00696660 0.00131074 
0.04947462 0.06565959 0.01148125 0.00214097 0.00131848 0.00320490 0.02079232 0.02601173 0.03323405 0.00326353 0.00361987 0.02221381 0.00953268 0.00297878 0.00698429 0.00131195 
0.04929610 0.06703027 0.01194495 0.00210928 0.00137741 0.00320060 0.02091217 0.02509837 0.03259068 0.00327451 0.00365366 0.02221098 0.00956456 0.00300029 0.00700179 0.00131286 
0.04906555 0.06836003 0.01241965 0.00208000 0.00143621 0.00319537 0.02101395 0.02415804 0.03193806 0.00328400 0.00368496 0.02221315 0.00959522 0.00302211 0.00701902 0.00131347 
0.04878481 0.06964346 0.01290405 0.00205341 0.00149463 0.00318922 0.02109692 0.02319489 0.03127913 0.00329191 0.00371367 0.02222038 0.00962447 0.00304412 0.00703592 0.00131380 
0.04845591 0.07087531 0.01339674 0.00202977 0.00155245 0.00318213 0.02116044 0.02221312 0.03061685 0.00329817 0.00373973 0.02223267 0.00965211 0.00306621 0.00705239 0.00131385 
0.04808109 0.07205046 0.01389625 0.00200936 0.00160939 0.00317412 0.02120398 0.02121697 0.02995419 0.00330271 0.00376307 0.02225005 0.00967795 0.00308827 0.00706835 0.00131363 
0.04766277 0.07316401 0.01440104 0.00199241 0.00166524 0.00316520 0.02122713 0.02021066 0.02929411 0.00330548 0.00378366 0.02227247 0.00970179 0.00311019 0.00708373 0.00131316 
0.04720356 0.07421128 0.01490951 0.00197915 0.00171973 0.00315538 0.02122960 0.01919844 0.02863957 0.00330643 0.00380146 0.02229991 0.00972344 0.00313186 0.00709845 0.00131244 
0.04670622 0.07518786 0.01542000 0.00196978 0.00177264 0.00314469 0.02121121 0.01818448 0.02799346 0.00330554 0.00381647 0.02233229 0.00974272 0.00315319 0.00711241 0.00131149 
0.04617368 0.07608961 0.01593081 0.00196450 0.00182372 0.00313316 0.02117192 0.01717295 0.02735867 0.00330279 0.00382868 0.02236953 0.00975944 0.00317409 0.00712553 0.00131033 
0.04560900 0.07691272 0.01644019 0.00196347 0.00187277 0.00312082 0.02111184 0.01616791 0.02673800 0.00329817 0.00383811 0.02241152 0.00977344 0.00319446 0.00713772 0.00130897 
0.04501538 0.07765373 0.01694637 0.00196684 0.00191955 0.00310770 0.02103119 0.01517334 0.02613420 0.00329169 0.00384480 0.02245814 0.00978456 0.00321421 0.00714891 0.00130744 
0.04439611 0.07830954 0.01744756 0.00197472 0.00196386 0.00309387 0.02093034 0.01419312 0.02554992 0.00328337 0.00384880 0.02250923 0.00979264 0.00323327 0.00715899 0.00130575 
0.04375461 0.07887745 0.01794193 0.00198720 0.00200551 0.00307935 0.02080982 0.01323099 0.02498773 0.00327324 0.00385017 0.02256460 0.00979754 0.00325155 0.00716789 0.00130392 
0.04309436 0.07935516 0.01842768 0.00200436 0.00204430 0.00306422 0.02067025 0.01229056 0.02445009 0.00326136 0.00384900 0.02262407 0.00979913 0.00326900 0.00717551 0.00130198 
0.04241893 0.07974081 0.01890299 0.00202623 0.00208007 0.00304853 0.02051243 0.01137528 0.02393932 0.00324778 0.00384538 0.02268740 0.00979732 0.00328553 0.00718176 0.00129995 
0.04173193 0.08003299 0.01936604 0.00205282 0.00211265 0.00303234 0.02033728 0.01048843 0.02345766 0.00323257 0.00383942 0.02275436 0.00979199 0.00330110 0.00718655 0.00129785 
0.04103702 0.08023076 0.01981504 0.00208413 0.00214191 0.00301572 0.02014586 0.00963311 0.02300717 0.00321582 0.00383125 0.02282465 0.00978307 0.00331565 0.00718980 0.00129570 
0.04033790 0.08033362 0.02024825 0.00212010 0.00216772 0.00299875 0.01993934 0.00881222 0.02258979 0.00319762 0.00382100 0.02289800 0.00977051 0.00332912 0.00719140 0.00129353 
0.03963824 0.08034160 0.02066392 0.00216066 0.00218997 0.00298149 0.01971903 0.00802848 0.02220728 0.00317809 0.00380882 0.02297408 0.00975424 0.00334146 0.00719126 0.00129135 
0.03894176 0.08025517 0.02106038 0.00220572 0.00220857 0.00296404 0.01948635 0.00728437 0.02186127 0.00315733 0.00379487 0.02305253 0.00973426 0.00335264 0.00718931 0.00128919 
0.03825212 0.08007532 0.02143599 0.00225515 0.00222344 0.00294647 0.01924284 0.00658217 0.02155319 0.00313548 0.00377932 0.02313299 0.00971056 0.00336262 0.00718543 0.00128708 
0.03757297 0.07980351 0.02178919 0.00230878 0.00223452 0.00292887 0.01899013 0.00592392 0.02128429 0.00311268 0.00376235 0.02321507 0.00968314 0.00337136 0.00717955 0.00128502 
0.03690789 0.07944169 0.02211847 0.00236644 0.00224179 0.00291132 0.01872995 0.00531145 0.02105568 0.00308907 0.00374415 0.02329834 0.00965206 0.00337882 0.00717157 0.00128305 
0.03626043 0.07899229 0.02242240 0.00242791 0.00224522 0.00289392 0.01846411 0.00474634 0.02086823 0.00306480 0.00372491 0.02338237 0.00961736 0.00338500 0.00716141 0.00128119 
0.03563405 0.07845820 0.02269962 0.00249297 0.00224482 0.00287675 0.01819450 0.00422995 0.02072265 0.00304003 0.00370484 0.02346670 0.00957912 0.00338985 0.00714898 0.00127944 
0.03503211 0.07784278 0.02294889 0.00256134 0.00224061 0.00285992 0.01792307 0.00376340 0.02061945 0.00301493 0.00368412 0.02355083 0.00953745 0.00339337 0.00713420 0.00127783 
0.03445787 0.07714981 0.02316902 0.00263276 0.00223263 0.00284350 0.01765183 0.00334758 0.02055893 0.00298967 0.00366298 0.02363428 0.00949245 0.00339552 0.00711699 0.00127638 
0.03391450 0.07638349 0.02335896 0.00270691 0.00222093 0.00282759 0.01738282 0.00298313 0.02054119 0.00296442 0.00364161 0.02371651 0.00944427 0.00339630 0.00709727 0.00127510 
0.03340502 0.07554844 0.02351774 0.00278348 0.00220561 0.00281229 0.01711811 0.00267049 0.02056616 0.00293935 0.00362023 0.02379700 0.00939305 0.00339570 0.00707497 0.00127400 
0.03293230 0.07464964 0.02364452 0.00286213 0.00218675 0.00279768 0.01685978 0.00240984 0.02063354 0.00291466 0.00359904 0.02387520 0.00933899 0.00339370 0.00705002 0.00127310 
0.03249909 0.07369242 0.02373854 0.00294249 0.00216448 0.00278386 0.01660993 0.00220117 0.02074284 0.00289050 0.00357825 0.02395056 0.00928225 0.00339030 0.00702237 0.00127241 
0.03210796 0.07268243 0.02379921 0.00302420 0.00213891 0.00277090 0.01637063 0.00204423 0.02089338 0.00286706 0.00355805 0.02402251 0.00922306 0.00338548 0.00699195 0.00127194 
0.03176129 0.07162560 0.02382602 0.00310687 0.00211020 0.00275890 0.01614393 0.00193858 0.02108427 0.00284452 0.00353864 0.02409047 0.00916163 0.00337925 0.00695872 0.00127169 
0.03146132 0.07052813 0.02381861 0.00319011 0.00207851 0.00274794 0.01593184 0.00188357 0.02131444 0.00282304 0.00352021 0.02415389 0.00909820 0.00337160 0.00692265 0.00127168 
0.03121005 0.06939644 0.02377673 0.00327351 0.00204401 0.00273809 0.01573633 0.00187836 0.02158265 0.00280279 0.00350293 0.02421218 0.00903301 0.00336254 0.00688371 0.00127190 
0.03100932 0.06823711 0.02370027 0.00335668 0.00200690 0.00272942 0.01555928 0.00192193 0.02188747 0.00278393 0.00348698 0.02426480 0.00896631 0.00335205 0.00684186 0.00127237 
0.03086072 0.06705689 0.02358927 0.00343920 0.00196737 0.00272201 0.01540252 0.00201306 0.02222729 0.00276661 0.00347251 0.02431119 0.00889836 0.00334015 0.00679711 0.00127307 
0.03076566 0.06586262 0.02344386 0.00352066 0.00192563 0.00271592 0.01526776 0.00215041 0.02260033 0.00275099 0.00345968 0.02435080 0.00882944 0.00332684 0.00674945 0.00127402 
0.03072530 0.06466122 0.02326434 0.00360065 0.00188191 0.00271121 0.01515663 0.00233244 0.02300469 0.00273719 0.00344861 0.02438313 0.00875981 0.00331212 0.00669891 0.00127521 
0.03074059 0.06345963 0.02305112 0.00367877 0.00183642 0.00270793 0.01507063 0.00255750 0.02343829 0.00272535 0.00343943 0.02440767 0.00868975 0.00329600 0.00664549 0.00127664 
0.03081223 0.06226477 0.02280477 0.00375463 0.00178941 0.00270612 0.01501114 0.00282380 0.02389893 0.00271559 0.00343224 0.02442396 0.00861954 0.00327849 0.00658925 0.00127830 
0.03094068 0.06108349 0.02252597 0.00382782 0.00174111 0.00270583 0.01497939 0.00312942 0.02438426 0.00270801 0.00342715 0.02443154 0.00854943 0.00325960 0.00653024 0.00128019 
0.03112616 0.05992258 0.02221552 0.00389798 0.00169176 0.00270709 0.01497650 0.00347233 0.02489185 0.00270270 0.00342421 0.02443003 0.00847970 0.00323935 0.00646852 0.00128230 
0.03136865 0.05878865 0.02187437 0.00396474 0.00164161 0.00270992 0.01500337 0.00385040 0.02541915 0.00269976 0.00342349 0.02441905 0.00841061 0.00321774 0.00640418 0.00128462 
0.03166787 0.05768815 0.02150359 0.00402776 0.00159089 0.00271434 0.01506080 0.00426144 0.02596351 0.00269923 0.00342504 0.02439830 0.00834241 0.00319480 0.00633731 0.00128714 
0.03202329 0.05662732 0.02110436 0.00408671 0.00153986 0.00272035 0.01514938 0.00470315 0.02652223 0.00270119 0.00342887 0.02436749 0.00827534 0.00317054 0.00626804 0.00128985 
0.03243414 0.05561212 0.02067800 0.00414127 0.00148874 0.00272796 0.01526954 0.00517318 0.02709252 0.00270566 0.00343500 0.02432640 0.00820963 0.00314498 0.00619647 0.00129274 
0.03289940 0.05464824 0.02022591 0.00419117 0.00143778 0.00273716 0.01542150 0.00566913 0.02767155 0.00271268 0.00344341 0.02427489 0.00814549 0.00311815 0.00612278 0.00129579 
0.03341778 0.05374103 0.01974963 0.00423614 0.00138720 0.00274794 0.01560533 0.00618855 0.02825648 0.00272226 0.00345408 0.02421284 0.00808313 0.00309008 0.00604710 0.00129900 
0.03398777 0.05289549 0.01925080 0.00427596 0.00133724 0.00276026 0.01582090 0.00672896 0.02884442 0.00273439 0.00346696 0.02414021 0.00802272 0.00306078 0.00596962 0.00130234 
0.03460760 0.05211623 0.01873115 0.00431040 0.00128809 0.00277411 0.01606786 0.00728787 0.02943247 0.00274905 0.00348200 0.02405704 0.00796444 0.00303030 0.00589054 0.00130580 
0.03527529 0.05140744 0.01819250 0.00433930 0.00123998 0.00278942 0.01634572 0.00786277 0.03001778 0.00276621 0.00349910 0.02396342 0.00790842 0.00299867 0.00581006 0.00130936 
0.03598860 0.05077286 0.01763677 0.00436251 0.00119310 0.00280616 0.01665375 0.00845114 0.03059749 0.00278582 0.00351818 0.02385951 0.00785479 0.00296593 0.00572839 0.00131301 
0.03674508 0.05021577 0.01706595 0.00437992 0.00114763 0.00282426 0.01699107 0.00905049 0.03116879 0.00280782 0.00353913 0.02374555 0.00780365 0.00293211 0.00564579 0.00131673 
0.03754206 0.04973897 0.01648212 0.00439144 0.00110375 0.00284366 0.01735659 0.00965832 0.03172892 0.00283213 0.00356181 0.02362185 0.00775509 0.00289726 0.00556249 0.00132051 
0.03837667 0.04934476 0.01588740 0.00439702 0.00106161 0.00286429 0.01774907 0.01027218 0.03227520 0.00285867 0.00358610 0.02348880 0.00770916 0.00286142 0.00547876 0.00132432 
0.03924583 0.04903492 0.01528400 0.00439665 0.00102137 0.00288605 0.01816706 0.01088965 0.03280502 0.00288733 0.00361184 0.02334685 0.00766591 0.00282466 0.00539487 0.00132814 
0.04014628 0.04881071 0.01467417 0.00439036 0.00098315 0.00290887 0.01860897 0.01150833 0.03331589 0.00291799 0.00363886 0.02319655 0.00762534 0.00278701 0.00531112 0.00133197 
0.04107459 0.04867286 0.01406019 0.00437820 0.00094708 0.00293265 0.01907304 0.01212590 0.03380539 0.00295053 0.00366699 0.02303849 0.00758746 0.00274854 0.00522778 0.00133577 
0.04202715 0.04862156 0.01344439 0.00436025 0.00091324 0.00295728 0.01955738 0.01274007 0.03427126 0.00298481 0.00369605 0.02287335 0.00755223 0.00270931 0.00514517 0.00133955 
0.04300024 0.04865647 0.01282913 0.00433665 0.00088174 0.00298266 0.02005994 0.01334863 0.03471136 0.00302070 0.00372584 0.02270188 0.00751961 0.00266937 0.00506360 0.00134326 
0.04398997 0.04877673 0.01221679 0.00430755 0.00085263 0.00300867 0.02057855 0.01394942 0.03512368 0.00305802 0.00375617 0.02252489 0.00748953 0.00262880 0.00498337 0.00134691 
0.04499234 0.04898096 0.01160974 0.00427315 0.00082598 0.00303520 0.02111094 0.01454036 0.03550640 0.00309663 0.00378682 0.02234325 0.00746192 0.00258766 0.00490481 0.00135047 
0.04600328 0.04926726 0.01101038 0.00423367 0.00080182 0.00306212 0.02165472 0.01511947 0.03585782 0.00313636 0.00381760 0.02215791 0.00743666 0.00254603 0.00482823 0.00135393 
0.04701859 0.04963324 0.01042108 0.00418937 0.00078018 0.00308931 0.02220743 0.01568481 0.03617645 0.00317702 0.00384828 0.02196985 0.00741365 0.00250398 0.00475396 0.00135728 
0.04803405 0.05007604 0.00984422 0.00414054 0.00076106 0.00311664 0.02276653 0.01623456 0.03646097 0.00321845 0.00387867 0.02178012 0.00739276 0.00246158 0.00468232 0.00136049 
