0.01612472 0.00517147 0.00502078 0.00097811 0.00884114 0.00075772 0.00573624 0.00517080 0.02314375 0.00408000 0.01694373 0.00074984 0.00507791 0.02639081 0.00884735 0.00047854 
0.01606127 0.00505166 0.00495929 0.00099751 0.00889659 0.00077893 0.00589353 0.00518935 0.02339111 0.00410226 0.01694682 0.00076084 0.00508558 0.02635768 0.00888807 0.00048222 
0.01599959 0.00496557 0.00489873 0.00102021 0.00894865 0.00080310 0.00605539 0.00520280 0.02362078 0.00412191 0.01693877 0.00077309 0.00509562 0.02634712 0.00894179 0.00048715 
0.01594043 0.00491247 0.00483937 0.00104619 0.00899696 0.00083016 0.00622110 0.00521116 0.02383144 0.00413902 0.01691986 0.00078658 0.00510823 0.02635992 0.00900886 0.00049335 
0.01588454 0.00489149 0.00478151 0.00107539 0.00904119 0.00086004 0.00638995 0.00521448 0.02402182 0.00415366 0.01689041 0.00080131 0.00512361 0.02639672 0.00908954 0.00050083 
0.01583262 0.00490162 0.00472540 0.00110773 0.00908105 0.00089262 0.00656123 0.00521282 0.02419075 0.00416592 0.01685073 0.00081724 0.00514194 0.02645799 0.00918398 0.00050957 
0.01578537 0.00494172 0.00467129 0.00114314 0.00911627 0.00092780 0.00673421 0.00520626 0.02433717 0.00417589 0.01680118 0.00083437 0.00516342 0.02654401 0.00929225 0.00051957 
0.01574344 0.00501054 0.00461944 0.00118150 0.00914666 0.00096545 0.00690815 0.00519490 0.02446010 0.00418368 0.01674213 0.00085266 0.00518823 0.02665488 0.00941431 0.00053080 
0.01570744 0.00510671 0.00457005 0.00122269 0.00917203 0.00100543 0.00708234 0.00517888 0.02455871 0.00418941 0.01667399 0.00087206 0.00521655 0.02679052 0.00955003 0.00054324 
0.01567795 0.00522876 0.00452332 0.00126659 0.00919225 0.00104761 0.00725606 0.00515834 0.02463227 0.00419321 0.01659716 0.00089254 0.00524855 0.02695065 0.00969916 0.00055686 
0.01565549 0.00537513 0.00447944 0.00131302 0.00920723 0.00109180 0.00742861 0.00513343 0.02468021 0.00419520 0.01651207 0.00091403 0.00528437 0.02713480 0.00986135 0.00057161 
0.01564053 0.00554420 0.00443857 0.00136183 0.00921692 0.00113784 0.00759929 0.00510436 0.02470210 0.00419554 0.01641918 0.00093649 0.00532418 0.02734231 0.01003614 0.00058743 
0.01563349 0.00573427 0.00440083 0.00141284 0.00922129 0.00118555 0.00776743 0.00507130 0.02469764 0.00419435 0.01631895 0.00095984 0.00536811 0.02757231 0.01022298 0.00060428 
0.01563472 0.00594359 0.00436636 0.00146584 0.00922038 0.00123474 0.00793239 0.00503449 0.02466673 0.00419180 0.01621184 0.00098400 0.00541628 0.02782376 0.01042120 0.00062208 
0.01564452 0.00617037 0.00433522 0.00152064 0.00921424 0.00128519 0.00809353 0.00499416 0.02460939 0.00418804 0.01609833 0.00100890 0.00546881 0.02809542 0.01063005 0.00064076 
0.01566312 0.00641280 0.00430750 0.00157701 0.00920297 0.00133671 0.00825025 0.00495054 0.02452583 0.00418321 0.01597893 0.00103445 0.00552580 0.02838587 0.01084866 0.00066025 
0.01569068 0.00666904 0.00428322 0.00163473 0.00918669 0.00138907 0.00840199 0.00490389 0.02441644 0.00417747 0.01585412 0.00106057 0.00558734 0.02869353 0.01107608 0.00068045 
0.01572731 0.00693725 0.00426241 0.00169356 0.00916556 0.00144207 0.00854820 0.00485449 0.02428174 0.00417098 0.01572440 0.00108714 0.00565350 0.02901664 0.01131126 0.00070127 
0.01577302 0.00721558 0.00424505 0.00175326 0.00913979 0.00149546 0.00868840 0.00480261 0.02412248 0.00416389 0.01559030 0.00111408 0.00572435 0.02935327 0.01155308 0.00072263 
0.01582776 0.00750223 0.00423109 0.00181356 0.00910958 0.00154903 0.00882210 0.00474854 0.02393952 0.00415635 0.01545230 0.00114128 0.00579992 0.02970136 0.01180034 0.00074441 
0.01589143 0.00779539 0.00422049 0.00187423 0.00907518 0.00160255 0.00894888 0.00469257 0.02373394 0.00414849 0.01531092 0.00116863 0.00588025 0.03005871 0.01205175 0.00076650 
0.01596383 0.00809331 0.00421316 0.00193499 0.00903686 0.00165578 0.00906836 0.00463500 0.02350696 0.00414046 0.01516667 0.00119602 0.00596536 0.03042300 0.01230598 0.00078881 
0.01604469 0.00839427 0.00420897 0.00199559 0.00899491 0.00170849 0.00918020 0.00457612 0.02325997 0.00413239 0.01502004 0.00122334 0.00605524 0.03079182 0.01256163 0.00081121 
0.01613369 0.00869664 0.00420780 0.00205576 0.00894964 0.00176046 0.00928409 0.00451624 0.02299451 0.00412440 0.01487155 0.00125047 0.00614989 0.03116264 0.01281726 0.00083360 
0.01623043 0.00899880 0.00420949 0.00211524 0.00890136 0.00181146 0.00937978 0.00445566 0.02271228 0.00411662 0.01472168 0.00127730 0.00624927 0.03153287 0.01307139 0.00085585 
0.01633444 0.00929925 0.00421385 0.00217377 0.00885041 0.00186127 0.00946706 0.00439468 0.02241511 0.00410914 0.01457093 0.00130370 0.00635335 0.03189988 0.01332251 0.00087784 
0.01644518 0.00959655 0.00422070 0.00223109 0.00879714 0.00190968 0.00954576 0.00433360 0.02210496 0.00410208 0.01441977 0.00132957 0.00646208 0.03226098 0.01356909 0.00089946 
0.01656207 0.00988933 0.00422982 0.00228695 0.00874190 0.00195647 0.00961575 0.00427270 0.02178394 0.00409550 0.01426868 0.00135479 0.00657537 0.03261347 0.01380960 0.00092059 
0.01668443 0.01017634 0.00424097 0.00234111 0.00868505 0.00200144 0.00967698 0.00421227 0.02145423 0.00408950 0.01411812 0.00137924 0.00669316 0.03295466 0.01404250 0.00094112 
0.01681157 0.01045641 0.00425390 0.00239332 0.00862693 0.00204440 0.00972940 0.00415258 0.02111814 0.00408414 0.01396854 0.00140282 0.00681535 0.03328189 0.01426627 0.00096092 
0.01694272 0.01072846 0.00426835 0.00244335 0.00856791 0.00208517 0.00977303 0.00409391 0.02077806 0.00407948 0.01382038 0.00142542 0.00694184 0.03359253 0.01447942 0.00097989 
0.01707705 0.01099154 0.00428404 0.00249099 0.00850833 0.00212357 0.00980793 0.00403650 0.02043643 0.00407555 0.01367407 0.00144692 0.00707251 0.03388401 0.01468049 0.00099792 
0.01721372 0.01124478 0.00430071 0.00253603 0.00844855 0.00215945 0.00983421 0.00398060 0.02009577 0.00407240 0.01353003 0.00146724 0.00720724 0.03415388 0.01486806 0.00101491 
0.01735183 0.01148742 0.00431805 0.00257827 0.00838888 0.00219265 0.00985201 0.00392644 0.01975865 0.00407004 0.01338865 0.00148627 0.00734589 0.03439977 0.01504078 0.00103075 
0.01749044 0.01171883 0.00433577 0.00261754 0.00832965 0.00222304 0.00986151 0.00387424 0.01942763 0.00406849 0.01325033 0.00150393 0.00748833 0.03461944 0.01519736 0.00104536 
0.01762858 0.01193846 0.00435357 0.00265366 0.00827117 0.00225051 0.00986295 0.00382419 0.01910532 0.00406775 0.01311544 0.00152012 0.00763439 0.03481082 0.01533659 0.00105865 
0.01776528 0.01214589 0.00437117 0.00268648 0.00821371 0.00227493 0.00985658 0.00377648 0.01879431 0.00406780 0.01298433 0.00153478 0.00778393 0.03497199 0.01545735 0.00107054 
0.01789952 0.01234078 0.00438826 0.00271587 0.00815756 0.00229623 0.00984272 0.00373127 0.01849714 0.00406864 0.01285735 0.00154783 0.00793678 0.03510123 0.01555863 0.00108095 
0.01803028 0.01252292 0.00440455 0.00274171 0.00810295 0.00231433 0.00982168 0.00368871 0.01821636 0.00407024 0.01273482 0.00155920 0.00809275 0.03519703 0.01563951 0.00108984 
0.01815652 0.01269218 0.00441975 0.00276390 0.00805011 0.00232917 0.00979383 0.00364893 0.01795442 0.00407256 0.01261706 0.00156883 0.00825169 0.03525809 0.01569919 0.00109714 
0.01827723 0.01284854 0.00443360 0.00278236 0.00799924 0.00234070 0.00975958 0.00361205 0.01771373 0.00407556 0.01250435 0.00157669 0.00841340 0.03528336 0.01573701 0.00110281 
0.01839137 0.01299207 0.00444583 0.00279702 0.00795050 0.00234891 0.00971934 0.00357815 0.01749659 0.00407920 0.01239698 0.00158273 0.00857770 0.03527206 0.01575242 0.00110681 
0.01849791 0.01312293 0.00445618 0.00280785 0.00790403 0.00235377 0.00967356 0.00354731 0.01730519 0.00408342 0.01229520 0.00158691 0.00874440 0.03522365 0.01574504 0.00110913 
0.01859586 0.01324136 0.00446442 0.00281482 0.00785995 0.00235531 0.00962270 0.00351958 0.01714163 0.00408817 0.01219925 0.00158922 0.00891330 0.03513790 0.01571462 0.00110974 
0.01868422 0.01334768 0.00447033 0.00281791 0.00781835 0.00235353 0.00956726 0.00349499 0.01700785 0.00409339 0.01210936 0.00158963 0.00908421 0.03501484 0.01566104 0.00110865 
0.01876205 0.01344229 0.00447370 0.00281716 0.00777927 0.00234849 0.00950773 0.00347356 0.01690565 0.00409903 0.01202574 0.00158815 0.00925692 0.03485483 0.01558436 0.00110587 
0.01882840 0.01352564 0.00447436 0.00281259 0.00774273 0.00234023 0.00944463 0.00345530 0.01683666 0.00410502 0.01194856 0.00158478 0.00943123 0.03465852 0.01548480 0.00110142 
0.01888240 0.01359826 0.00447213 0.00280425 0.00770874 0.00232883 0.00937848 0.00344016 0.01680234 0.00411131 0.01187800 0.00157953 0.00960693 0.03442687 0.01536273 0.00109532 
0.01892320 0.01366071 0.00446690 0.00279221 0.00767724 0.00231437 0.00930983 0.00342813 0.01680396 0.00411784 0.01181421 0.00157242 0.00978381 0.03416116 0.01521867 0.00108762 
0.01894998 0.01371362 0.00445853 0.00277657 0.00764817 0.00229696 0.00923920 0.00341914 0.01684261 0.00412457 0.01175733 0.00156348 0.00996166 0.03386297 0.01505333 0.00107839 
0.01896201 0.01375765 0.00444694 0.00275743 0.00762143 0.00227671 0.00916713 0.00341313 0.01691915 0.00413143 0.01170745 0.00155276 0.01014026 0.03353420 0.01486755 0.00106767 
0.01895859 0.01379348 0.00443206 0.00273491 0.00759689 0.00225375 0.00909417 0.00341001 0.01703425 0.00413841 0.01166469 0.00154031 0.01031939 0.03317705 0.01466234 0.00105555 
0.01893909 0.01382184 0.00441386 0.00270915 0.00757439 0.00222821 0.00902083 0.00340967 0.01718834 0.00414545 0.01162910 0.00152617 0.01049882 0.03279403 0.01443887 0.00104213 
0.01890294 0.01384347 0.00439232 0.00268032 0.00755377 0.00220025 0.00894765 0.00341201 0.01738163 0.00415254 0.01160074 0.00151042 0.01067834 0.03238794 0.01419844 0.00102749 
0.01884964 0.01385912 0.00436746 0.00264857 0.00753480 0.00217002 0.00887513 0.00341691 0.01761411 0.00415965 0.01157964 0.00149312 0.01085771 0.03196184 0.01394253 0.00101174 
0.01877877 0.01386953 0.00433932 0.00261409 0.00751728 0.00213771 0.00880377 0.00342423 0.01788554 0.00416677 0.01156582 0.00147436 0.01103669 0.03151909 0.01367272 0.00099500 
0.01868997 0.01387547 0.00430795 0.00257708 0.00750094 0.00210348 0.00873405 0.00343382 0.01819542 0.00417392 0.01155926 0.00145423 0.01121505 0.03106326 0.01339073 0.00097741 
0.01858296 0.01387768 0.00427345 0.00253774 0.00748552 0.00206752 0.00866643 0.00344554 0.01854306 0.00418110 0.01155994 0.00143281 0.01139253 0.03059820 0.01309842 0.00095908 
0.01845756 0.01387690 0.00423595 0.00249628 0.00747075 0.00203003 0.00860136 0.00345923 0.01892750 0.00418833 0.01156781 0.00141021 0.01156889 0.03012795 0.01279774 0.00094017 
0.01831364 0.01387386 0.00419556 0.00245294 0.00745634 0.00199121 0.00853924 0.00347473 0.01934758 0.00419565 0.01158279 0.00138654 0.01174387 0.02965673 0.01249075 0.00092083 
0.01815118 0.01386923 0.00415246 0.00240794 0.00744198 0.00195125 0.00848047 0.00349187 0.01980191 0.00420311 0.01160479 0.00136189 0.01191720 0.02918896 0.01217960 0.00090121 
0.01797024 0.01386370 0.00410683 0.00236151 0.00742737 0.00191036 0.00842540 0.00351049 0.02028888 0.00421077 0.01163370 0.00133639 0.01208862 0.02872919 0.01186651 0.00088146 
0.01777094 0.01385790 0.00405887 0.00231391 0.00741219 0.00186875 0.00837437 0.00353042 0.02080667 0.00421869 0.01166937 0.00131015 0.01225784 0.02828209 0.01155377 0.00086177 
0.01755353 0.01385242 0.00400880 0.00226537 0.00739614 0.00182661 0.00832766 0.00355150 0.02135329 0.00422696 0.01171166 0.00128329 0.01242460 0.02785242 0.01124373 0.00084228 
0.01731831 0.01384782 0.00395686 0.00221615 0.00737891 0.00178416 0.00828554 0.00357355 0.02192652 0.00423566 0.01176038 0.00125594 0.01258858 0.02744499 0.01093876 0.00082318 
0.01706568 0.01384463 0.00390330 0.00216649 0.00736021 0.00174160 0.00824823 0.00359641 0.02252399 0.00424491 0.01181534 0.00122822 0.01274951 0.02706467 0.01064127 0.00080464 
0.01679612 0.01384331 0.00384838 0.00211663 0.00733973 0.00169913 0.00821592 0.00361994 0.02314315 0.00425480 0.01187632 0.00120026 0.01290706 0.02671630 0.01035364 0.00078682 
0.01651020 0.01384429 0.00379237 0.00206683 0.00731721 0.00165695 0.00818877 0.00364398 0.02378132 0.00426547 0.01194308 0.00117218 0.01306094 0.02640470 0.01007829 0.00076990 
0.01620857 0.01384795 0.00373557 0.00201731 0.00729238 0.00161524 0.00816687 0.00366839 0.02443567 0.00427703 0.01201536 0.00114411 0.01321081 0.02613461 0.00981759 0.00075406 
0.01589197 0.01385460 0.00367827 0.00196833 0.00726501 0.00157420 0.00815032 0.00369303 0.02510326 0.00428962 0.01209289 0.00111618 0.01335637 0.02591070 0.00957386 0.00073945 
0.01556118 0.01386452 0.00362074 0.00192010 0.00723488 0.00153399 0.00813913 0.00371778 0.02578102 0.00430338 0.01217538 0.00108850 0.01349727 0.02573747 0.00934939 0.00072624 
0.01521711 0.01387793 0.00356330 0.00187285 0.00720179 0.00149479 0.00813330 0.00374253 0.02646583 0.00431845 0.01226251 0.00106120 0.01363318 0.02561929 0.00914639 0.00071459 
0.01486071 0.01389500 0.00350623 0.00182679 0.00716559 0.00145677 0.00813279 0.00376716 0.02715449 0.00433498 0.01235396 0.00103440 0.01376376 0.02556030 0.00896696 0.00070465 
0.01449301 0.01391586 0.00344983 0.00178214 0.00712615 0.00142006 0.00813751 0.00379159 0.02784373 0.00435311 0.01244940 0.00100822 0.01388868 0.02556443 0.00881312 0.00069657 
0.01411508 0.01394057 0.00339438 0.00173907 0.00708337 0.00138482 0.00814733 0.00381575 0.02853026 0.00437298 0.01254847 0.00098276 0.01400757 0.02563533 0.00868678 0.00069049 
0.01372810 0.01396915 0.00334016 0.00169777 0.00703718 0.00135118 0.00816210 0.00383955 0.02921080 0.00439473 0.01265081 0.00095813 0.01412010 0.02577636 0.00858971 0.00068652 
0.01333327 0.01400157 0.00328744 0.00165842 0.00698758 0.00131924 0.00818162 0.00386295 0.02988204 0.00441850 0.01275606 0.00093444 0.01422592 0.02599057 0.00852352 0.00068481 
0.01293185 0.01403776 0.00323648 0.00162117 0.00693458 0.00128913 0.00820566 0.00388591 0.03054072 0.00444442 0.01286383 0.00091179 0.01432469 0.02628065 0.00848968 0.00068544 
0.01252515 0.01407760 0.00318753 0.00158616 0.00687824 0.00126093 0.00823396 0.00390840 0.03118360 0.00447262 0.01297375 0.00089025 0.01441606 0.02664889 0.00848950 0.00068852 
0.01211453 0.01412093 0.00314080 0.00155352 0.00681866 0.00123473 0.00826621 0.00393040 0.03180753 0.00450319 0.01308542 0.00086993 0.01449969 0.02709719 0.00852407 0.00069413 
0.01170138 0.01416755 0.00309652 0.00152336 0.00675600 0.00121059 0.00830209 0.00395192 0.03240941 0.00453625 0.01319847 0.00085090 0.01457526 0.02762705 0.00859432 0.00070236 
0.01128713 0.01421724 0.00305486 0.00149579 0.00669045 0.00118858 0.00834126 0.00397298 0.03298626 0.00457188 0.01331250 0.00083323 0.01464245 0.02823947 0.00870099 0.00071324 
0.01087321 0.01426971 0.00301602 0.00147087 0.00662224 0.00116873 0.00838333 0.00399358 0.03353519 0.00461014 0.01342713 0.00081698 0.01470093 0.02893502 0.00884457 0.00072684 
0.01046111 0.01432469 0.00298013 0.00144869 0.00655165 0.00115108 0.00842790 0.00401378 0.03405347 0.00465111 0.01354199 0.00080222 0.01475042 0.02971379 0.00902537 0.00074318 
0.01005230 0.01438183 0.00294732 0.00142928 0.00647901 0.00113564 0.00847457 0.00403363 0.03453849 0.00469480 0.01365672 0.00078898 0.01479062 0.03057534 0.00924346 0.00076227 
0.00964828 0.01444080 0.00291770 0.00141268 0.00640468 0.00112242 0.00852289 0.00405317 0.03498781 0.00474125 0.01377094 0.00077732 0.01482127 0.03151877 0.00949870 0.00078413 
0.00925053 0.01450123 0.00289134 0.00139891 0.00632909 0.00111140 0.00857241 0.00407249 0.03539915 0.00479045 0.01388433 0.00076727 0.01484212 0.03254263 0.00979070 0.00080872 
0.00886054 0.01456272 0.00286830 0.00138796 0.00625267 0.00110257 0.00862268 0.00409166 0.03577044 0.00484238 0.01399655 0.00075885 0.01485293 0.03364498 0.01011886 0.00083603 
0.00847978 0.01462489 0.00284860 0.00137982 0.00617591 0.00109589 0.00867323 0.00411077 0.03609979 0.00489698 0.01410730 0.00075208 0.01485351 0.03482334 0.01048233 0.00086601 
0.00810971 0.01468733 0.00283225 0.00137446 0.00609934 0.00109132 0.00872360 0.00412991 0.03638552 0.00495420 0.01421628 0.00074697 0.01484366 0.03607474 0.01088006 0.00089860 
0.00775176 0.01474961 0.00281922 0.00137183 0.00602351 0.00108879 0.00877330 0.00414918 0.03662614 0.00501393 0.01432324 0.00074353 0.01482323 0.03739569 0.01131076 0.00093372 
0.00740733 0.01481131 0.00280948 0.00137187 0.00594902 0.00108825 0.00882188 0.00416869 0.03682043 0.00507606 0.01442793 0.00074174 0.01479210 0.03878218 0.01177290 0.00097128 
0.00707777 0.01487203 0.00280293 0.00137450 0.00587646 0.00108961 0.00886886 0.00418854 0.03696735 0.00514044 0.01453013 0.00074160 0.01475017 0.04022975 0.01226476 0.00101118 
0.00676440 0.01493133 0.00279949 0.00137962 0.00580649 0.00109279 0.00891380 0.00420885 0.03706613 0.00520692 0.01462967 0.00074309 0.01469737 0.04173345 0.01278441 0.00105330 
0.00646848 0.01498882 0.00279903 0.00138714 0.00573976 0.00109768 0.00895625 0.00422972 0.03711620 0.00527530 0.01472639 0.00074617 0.01463369 0.04328788 0.01332971 0.00109751 
0.00619123 0.01504407 0.00280142 0.00139694 0.00567695 0.00110419 0.00899579 0.00425127 0.03711726 0.00534537 0.01482017 0.00075081 0.01455911 0.04488721 0.01389833 0.00114367 
0.00593377 0.01509671 0.00280648 0.00140889 0.00561872 0.00111220 0.00903199 0.00427360 0.03706923 0.00541689 0.01491092 0.00075697 0.01447369 0.04652521 0.01448779 0.00119161 
0.00569720 0.01514634 0.00281404 0.00142285 0.00556579 0.00112159 0.00906448 0.00429681 0.03697225 0.00548961 0.01499858 0.00076460 0.01437752 0.04819528 0.01509541 0.00124116 
0.00548250 0.01519261 0.00282389 0.00143867 0.00551884 0.00113223 0.00909289 0.00432101 0.03682672 0.00556324 0.01508314 0.00077365 0.01427070 0.04989048 0.01571837 0.00129216 
0.00529060 0.01523517 0.00283582 0.00145618 0.00547855 0.00114400 0.00911686 0.00434629 0.03663326 0.00563749 0.01516462 0.00078406 0.01415341 0.05160355 0.01635374 0.00134441 
0.00512233 0.01527369 0.00284959 0.00147524 0.00544563 0.00115677 0.00913610 0.00437273 0.03639271 0.00571204 0.01524307 0.00079575 0.01402584 0.05332699 0.01699844 0.00139772 
0.00497843 0.01530787 0.00286496 0.00149565 0.00542074 0.00117038 0.00915032 0.00440041 0.03610612 0.00578656 0.01531858 0.00080867 0.01388824 0.05505304 0.01764931 0.00145187 
0.00485957 0.01533742 0.00288168 0.00151724 0.00540453 0.00118470 0.00915927 0.00442940 0.03577476 0.00586070 0.01539127 0.00082274 0.01374089 0.05677379 0.01830310 0.00150667 
0.00476629 0.01536209 0.00289947 0.00153983 0.00539764 0.00119959 0.00916272 0.00445976 0.03540010 0.00593410 0.01546131 0.00083787 0.01358413 0.05848116 0.01895649 0.00156190 
0.00469905 0.01538165 0.00291808 0.00156322 0.00540069 0.00121490 0.00916051 0.00449153 0.03498380 0.00600640 0.01552890 0.00085399 0.01341833 0.06016700 0.01960613 0.00161732 
0.00465820 0.01539589 0.00293724 0.00158722 0.00541423 0.00123048 0.00915249 0.00452475 0.03452769 0.00607721 0.01559426 0.00087102 0.01324389 0.06182310 0.02024865 0.00167274 
0.00464398 0.01540463 0.00295666 0.00161165 0.00543883 0.00124620 0.00913855 0.00455943 0.03403378 0.00614615 0.01565765 0.00088885 0.01306126 0.06344127 0.02088065 0.00172791 
0.00465652 0.01540773 0.00297608 0.00163630 0.00547498 0.00126191 0.00911862 0.00459559 0.03350422 0.00621284 0.01571937 0.00090740 0.01287094 0.06501337 0.02149878 0.00178262 
0.00469585 0.01540508 0.00299523 0.00166099 0.00552313 0.00127746 0.00909267 0.00463321 0.03294131 0.00627689 0.01577973 0.00092659 0.01267345 0.06653136 0.02209972 0.00183665 
0.00476188 0.01539657 0.00301384 0.00168552 0.00558370 0.00129273 0.00906073 0.00467228 0.03234747 0.00633792 0.01583908 0.00094631 0.01246937 0.06798738 0.02268021 0.00188976 
0.00485440 0.01538215 0.00303167 0.00170969 0.00565704 0.00130757 0.00902283 0.00471275 0.03172525 0.00639555 0.01589778 0.00096647 0.01225929 0.06937377 0.02323706 0.00194176 
0.00497311 0.01536179 0.00304847 0.00173334 0.00574345 0.00132186 0.00897908 0.00475457 0.03107728 0.00644941 0.01595623 0.00098697 0.01204386 0.07068312 0.02376721 0.00199242 
0.00511758 0.01533549 0.00306402 0.00175627 0.00584318 0.00133547 0.00892959 0.00479768 0.03040628 0.00649914 0.01601482 0.00100773 0.01182374 0.07190835 0.02426771 0.00204153 
0.00528728 0.01530328 0.00307809 0.00177831 0.00595640 0.00134828 0.00887454 0.00484200 0.02971502 0.00654440 0.01607398 0.00102865 0.01159962 0.07304275 0.02473575 0.00208891 
0.00548155 0.01526521 0.00309049 0.00179930 0.00608322 0.00136018 0.00881414 0.00488741 0.02900634 0.00658486 0.01613413 0.00104963 0.01137224 0.07408001 0.02516869 0.00213436 
0.00569964 0.01522136 0.00310105 0.00181907 0.00622371 0.00137107 0.00874862 0.00493382 0.02828312 0.00662021 0.01619571 0.00107058 0.01114233 0.07501428 0.02556406 0.00217769 
0.00594070 0.01517186 0.00310960 0.00183748 0.00637783 0.00138085 0.00867826 0.00498110 0.02754824 0.00665017 0.01625915 0.00109142 0.01091069 0.07584021 0.02591962 0.00221875 
0.00620377 0.01511683 0.00311601 0.00185437 0.00654550 0.00138942 0.00860337 0.00502911 0.02680460 0.00667447 0.01632488 0.00111205 0.01067808 0.07655300 0.02623331 0.00225737 
0.00648778 0.01505644 0.00312016 0.00186963 0.00672656 0.00139671 0.00852430 0.00507770 0.02605509 0.00669288 0.01639335 0.00113239 0.01044532 0.07714844 0.02650332 0.00229340 
0.00679159 0.01499088 0.00312198 0.00188313 0.00692076 0.00140264 0.00844140 0.00512671 0.02530255 0.00670520 0.01646497 0.00115236 0.01021323 0.07762293 0.02672808 0.00232671 
0.00711395 0.01492036 0.00312139 0.00189476 0.00712781 0.00140715 0.00835508 0.00517596 0.02454983 0.00671125 0.01654013 0.00117187 0.00998264 0.07797354 0.02690628 0.00235719 
0.00745354 0.01484510 0.00311838 0.00190442 0.00734734 0.00141019 0.00826577 0.00522528 0.02379969 0.00671089 0.01661924 0.00119086 0.00975437 0.07819800 0.02703687 0.00238473 
0.00780896 0.01476537 0.00311292 0.00191204 0.00757888 0.00141172 0.00817389 0.00527446 0.02305483 0.00670401 0.01670266 0.00120924 0.00952925 0.07829476 0.02711909 0.00240924 
0.00817873 0.01468143 0.00310505 0.00191754 0.00782194 0.00141169 0.00807991 0.00532333 0.02231789 0.00669056 0.01679072 0.00122695 0.00930813 0.07826301 0.02715247 0.00243065 
0.00856131 0.01459358 0.00309481 0.00192086 0.00807591 0.00141008 0.00798432 0.00537167 0.02159141 0.00667049 0.01688374 0.00124393 0.00909183 0.07810268 0.02713680 0.00244891 
0.00895510 0.01450212 0.00308229 0.00192198 0.00834016 0.00140689 0.00788759 0.00541927 0.02087785 0.00664383 0.01698199 0.00126012 0.00888116 0.07781444 0.02707219 0.00246397 
0.00935845 0.01440736 0.00306758 0.00192085 0.00861396 0.00140211 0.00779024 0.00546594 0.02017953 0.00661061 0.01708570 0.00127546 0.00867694 0.07739975 0.02695905 0.00247581 
0.00976967 0.01430964 0.00305083 0.00191746 0.00889655 0.00139575 0.00769277 0.00551145 0.01949869 0.00657093 0.01719508 0.00128990 0.00847994 0.07686083 0.02679808 0.00248443 
0.01018702 0.01420931 0.00303219 0.00191183 0.00918708 0.00138782 0.00759570 0.00555560 0.01883743 0.00652492 0.01731027 0.00130339 0.00829093 0.07620066 0.02659027 0.00248984 
0.01060874 0.01410670 0.00301185 0.00190396 0.00948468 0.00137836 0.00749954 0.00559817 0.01819773 0.00647276 0.01743137 0.00131590 0.00811067 0.07542298 0.02633690 0.00249207 
0.01103306 0.01400220 0.00299003 0.00189388 0.00978841 0.00136739 0.00740480 0.00563897 0.01758141 0.00641464 0.01755844 0.00132739 0.00793985 0.07453229 0.02603956 0.00249116 
0.01145818 0.01389615 0.00296695 0.00188165 0.01009728 0.00135498 0.00731198 0.00567780 0.01699019 0.00635084 0.01769147 0.00133782 0.00777918 0.07353381 0.02570009 0.00248717 
0.01188232 0.01378893 0.00294287 0.00186732 0.01041028 0.00134118 0.00722160 0.00571444 0.01642562 0.00628164 0.01783041 0.00134718 0.00762929 0.07243344 0.02532062 0.00248019 
0.01230368 0.01368091 0.00291806 0.00185096 0.01072634 0.00132606 0.00713413 0.00574873 0.01588912 0.00620736 0.01797515 0.00135544 0.00749080 0.07123781 0.02490352 0.00247030 
0.01272050 0.01357246 0.00289283 0.00183267 0.01104438 0.00130969 0.00705004 0.00578048 0.01538196 0.00612838 0.01812550 0.00136259 0.00736427 0.06995416 0.02445142 0.00245762 
0.01313103 0.01346395 0.00286748 0.00181255 0.01136328 0.00129216 0.00696979 0.00580952 0.01490525 0.00604511 0.01828124 0.00136861 0.00725025 0.06859034 0.02396718 0.00244227 
0.01353354 0.01335574 0.00284233 0.00179070 0.01168190 0.00127356 0.00689383 0.00583570 0.01445998 0.00595796 0.01844207 0.00137350 0.00714919 0.06715479 0.02345387 0.00242439 
0.01392638 0.01324820 0.00281771 0.00176726 0.01199910 0.00125399 0.00682255 0.00585886 0.01404698 0.00586742 0.01860764 0.00137726 0.00706155 0.06565645 0.02291476 0.00240411 
0.01430790 0.01314168 0.00279398 0.00174237 0.01231372 0.00123357 0.00675635 0.00587888 0.01366693 0.00577397 0.01877753 0.00137990 0.00698768 0.06410476 0.02235329 0.00238162 
0.01467654 0.01303653 0.00277148 0.00171617 0.01262460 0.00121241 0.00669559 0.00589564 0.01332039 0.00567813 0.01895126 0.00138142 0.00692793 0.06250955 0.02177306 0.00235707 
0.01503080 0.01293308 0.00275055 0.00168882 0.01293058 0.00119063 0.00664059 0.00590904 0.01300777 0.00558046 0.01912829 0.00138184 0.00688256 0.06088104 0.02117781 0.00233065 
0.01536923 0.01283167 0.00273155 0.00166049 0.01323052 0.00116836 0.00659167 0.00591899 0.01272937 0.00548151 0.01930804 0.00138117 0.00685178 0.05922975 0.02057140 0.00230255 
0.01569049 0.01273259 0.00271484 0.00163135 0.01352328 0.00114573 0.00654908 0.00592541 0.01248533 0.00538187 0.01948985 0.00137944 0.00683575 0.05756642 0.01995777 0.00227298 
0.01599331 0.01263616 0.00270075 0.00160160 0.01380775 0.00112288 0.00651305 0.00592826 0.01227569 0.00528213 0.01967301 0.00137668 0.00683457 0.05590201 0.01934092 0.00224213 
0.01627651 0.01254264 0.00268962 0.00157141 0.01408286 0.00109994 0.00648379 0.00592749 0.01210039 0.00518289 0.01985676 0.00137290 0.00684826 0.05424755 0.01872490 0.00221023 
0.01653901 0.01245231 0.00268177 0.00154099 0.01434755 0.00107707 0.00646144 0.00592310 0.01195923 0.00508477 0.02004031 0.00136816 0.00687680 0.05261415 0.01811377 0.00217748 
0.01677985 0.01236541 0.00267753 0.00151053 0.01460081 0.00105441 0.00644613 0.00591506 0.01185194 0.00498838 0.02022281 0.00136248 0.00692012 0.05101287 0.01751158 0.00214410 
0.01699814 0.01228218 0.00267717 0.00148024 0.01484168 0.00103210 0.00643794 0.00590340 0.01177813 0.00489433 0.02040335 0.00135590 0.00697805 0.04945469 0.01692236 0.00211032 
0.01719314 0.01220281 0.00268098 0.00145033 0.01506924 0.00101029 0.00643691 0.00588816 0.01173734 0.00480324 0.02058101 0.00134848 0.00705040 0.04795044 0.01635006 0.00207636 
0.01736422 0.01212750 0.00268921 0.00142099 0.01528262 0.00098913 0.00644303 0.00586937 0.01172903 0.00471571 0.02075484 0.00134025 0.00713690 0.04651069 0.01579856 0.00204244 
0.01751084 0.01205640 0.00270210 0.00139244 0.01548102 0.00096878 0.00645628 0.00584710 0.01175258 0.00463232 0.02092385 0.00133127 0.00723723 0.04514574 0.01527161 0.00200878 
0.01763263 0.01198967 0.00271984 0.00136488 0.01566371 0.00094936 0.00647658 0.00582143 0.01180731 0.00455365 0.02108702 0.00132159 0.00735101 0.04386550 0.01477284 0.00197560 
0.01772929 0.01192741 0.00274261 0.00133851 0.01583000 0.00093103 0.00650381 0.00579246 0.01189248 0.00448026 0.02124335 0.00131125 0.00747781 0.04267948 0.01430572 0.00194311 
0.01780068 0.01186974 0.00277056 0.00131354 0.01597930 0.00091394 0.00653781 0.00576029 0.01200731 0.00441267 0.02139178 0.00130033 0.00761713 0.04159667 0.01387354 0.00191152 
0.01784677 0.01181671 0.00280380 0.00129016 0.01611107 0.00089820 0.00657841 0.00572505 0.01215097 0.00435140 0.02153129 0.00128887 0.00776843 0.04062552 0.01347940 0.00188103 
0.01786767 0.01176837 0.00284241 0.00126855 0.01622487 0.00088397 0.00662536 0.00568688 0.01232258 0.00429692 0.02166084 0.00127693 0.00793115 0.03977388 0.01312614 0.00185184 
0.01786359 0.01172475 0.00288643 0.00124891 0.01632032 0.00087136 0.00667842 0.00564592 0.01252126 0.00424968 0.02177939 0.00126458 0.00810463 0.03904891 0.01281642 0.00182414 
0.01783488 0.01168585 0.00293589 0.00123140 0.01639714 0.00086049 0.00673728 0.00560233 0.01274607 0.00421009 0.02188596 0.00125187 0.00828822 0.03845710 0.01255258 0.00179809 
0.01778199 0.01165165 0.00299075 0.00121619 0.01645512 0.00085149 0.00680164 0.00555628 0.01299607 0.00417852 0.02197953 0.00123887 0.00848119 0.03800414 0.01233673 0.00177388 
0.01770552 0.01162209 0.00305095 0.00120345 0.01649413 0.00084447 0.00687112 0.00550794 0.01327031 0.00415530 0.02205915 0.00122564 0.00868281 0.03769496 0.01217068 0.00175166 
0.01760614 0.01159711 0.00311640 0.00119330 0.01651414 0.00083951 0.00694536 0.00545750 0.01356782 0.00414074 0.02212390 0.00121225 0.00889228 0.03753362 0.01205594 0.00173157 
0.01748466 0.01157661 0.00318695 0.00118590 0.01651520 0.00083672 0.00702394 0.00540516 0.01388762 0.00413507 0.02217290 0.00119874 0.00910880 0.03752335 0.01199372 0.00171376 
0.01734198 0.01156048 0.00326244 0.00118136 0.01649743 0.00083619 0.00710645 0.00535110 0.01422874 0.00413849 0.02220531 0.00118520 0.00933154 0.03766648 0.01198489 0.00169834 
0.01717911 0.01154858 0.00334265 0.00117978 0.01646106 0.00083798 0.00719243 0.00529552 0.01459020 0.00415117 0.02222035 0.00117167 0.00955964 0.03796443 0.01203001 0.00168543 
0.01699714 0.01154075 0.00342736 0.00118127 0.01640638 0.00084216 0.00728142 0.00523863 0.01497103 0.00417320 0.02221732 0.00115822 0.00979223 0.03841769 0.01212932 0.00167511 
0.01679724 0.01153683 0.00351626 0.00118591 0.01633378 0.00084879 0.00737293 0.00518064 0.01537025 0.00420465 0.02219555 0.00114491 0.01002844 0.03902583 0.01228272 0.00166748 
0.01658069 0.01153662 0.00360907 0.00119376 0.01624370 0.00085792 0.00746648 0.00512174 0.01578691 0.00424553 0.02215447 0.00113180 0.01026736 0.03978748 0.01248979 0.00166261 
0.01634881 0.01153991 0.00370544 0.00120486 0.01613669 0.00086958 0.00756156 0.00506215 0.01622003 0.00429579 0.02209359 0.00111895 0.01050811 0.04070036 0.01274975 0.00166053 
0.01610300 0.01154648 0.00380500 0.00121927 0.01601335 0.00088379 0.00765766 0.00500206 0.01666867 0.00435535 0.02201250 0.00110641 0.01074978 0.04176125 0.01306155 0.00166131 
0.01584472 0.01155609 0.00390736 0.00123699 0.01587436 0.00090058 0.00775426 0.00494167 0.01713187 0.00442407 0.02191087 0.00109424 0.01099149 0.04296603 0.01342377 0.00166496 
0.01557548 0.01156850 0.00401210 0.00125803 0.01572046 0.00091993 0.00785085 0.00488119 0.01760870 0.00450176 0.02178848 0.00108249 0.01123234 0.04430971 0.01383471 0.00167150 
0.01529681 0.01158343 0.00411877 0.00128237 0.01555246 0.00094185 0.00794691 0.00482081 0.01809821 0.00458819 0.02164520 0.00107121 0.01147148 0.04578644 0.01429237 0.00168092 
0.01501029 0.01160064 0.00422692 0.00130999 0.01537120 0.00096632 0.00804193 0.00476071 0.01859946 0.00468308 0.02148098 0.00106045 0.01170803 0.04738954 0.01479445 0.00169321 
0.01471753 0.01161984 0.00433607 0.00134084 0.01517761 0.00099330 0.00813540 0.00470108 0.01911151 0.00478611 0.02129591 0.00105026 0.01194116 0.04911156 0.01533838 0.00170835 
0.01442015 0.01164076 0.00444573 0.00137485 0.01497264 0.00102276 0.00822681 0.00464208 0.01963343 0.00489691 0.02109017 0.00104067 0.01217005 0.05094431 0.01592136 0.00172628 
0.01411976 0.01166312 0.00455540 0.00141196 0.01475728 0.00105464 0.00831568 0.00458390 0.02016425 0.00501508 0.02086404 0.00103173 0.01239392 0.05287890 0.01654030 0.00174696 
0.01381798 0.01168664 0.00466457 0.00145205 0.01453257 0.00108888 0.00840152 0.00452670 0.02070304 0.00514019 0.02061792 0.00102348 0.01261199 0.05490581 0.01719194 0.00177031 
0.01351643 0.01171104 0.00477274 0.00149504 0.01429958 0.00112540 0.00848386 0.00447062 0.02124882 0.00527174 0.02035231 0.00101595 0.01282355 0.05701493 0.01787278 0.00179627 
0.01321670 0.01173606 0.00487939 0.00154078 0.01405938 0.00116413 0.00856227 0.00441581 0.02180062 0.00540924 0.02006783 0.00100918 0.01302788 0.05919564 0.01857918 0.00182473 
0.01292035 0.01176142 0.00498402 0.00158915 0.01381308 0.00120497 0.00863630 0.00436240 0.02235745 0.00555215 0.01976521 0.00100319 0.01322434 0.06143685 0.01930730 0.00185559 
0.01262890 0.01178688 0.00508613 0.00164000 0.01356179 0.00124781 0.00870555 0.00431053 0.02291829 0.00569990 0.01944526 0.00099800 0.01341230 0.06372709 0.02005321 0.00188876 
0.01234384 0.01181217 0.00518523 0.00169316 0.01330662 0.00129255 0.00876961 0.00426032 0.02348212 0.00585191 0.01910894 0.00099365 0.01359117 0.06605457 0.02081284 0.00192409 
0.01206661 0.01183708 0.00528084 0.00174846 0.01304870 0.00133906 0.00882813 0.00421187 0.02404788 0.00600757 0.01875728 0.00099014 0.01376042 0.06840724 0.02158206 0.00196148 
0.01179857 0.01186139 0.00537251 0.00180572 0.01278911 0.00138722 0.00888075 0.00416528 0.02461449 0.00616626 0.01839141 0.00098750 0.01391955 0.07077289 0.02235667 0.00200077 
0.01154105 0.01188490 0.00545980 0.00186474 0.01252897 0.00143689 0.00892715 0.00412064 0.02518084 0.00632735 0.01801257 0.00098573 0.01406811 0.07313920 0.02313244 0.00204182 
0.01129529 0.01190743 0.00554230 0.00192532 0.01226932 0.00148794 0.00896704 0.00407804 0.02574581 0.00649019 0.01762208 0.00098484 0.01420570 0.07549382 0.02390514 0.00208449 
0.01106244 0.01192882 0.00561961 0.00198724 0.01201123 0.00154020 0.00900014 0.00403755 0.02630822 0.00665414 0.01722134 0.00098484 0.01433194 0.07782445 0.02467056 0.00212861 
0.01084360 0.01194895 0.00569139 0.00205029 0.01175570 0.00159354 0.00902621 0.00399924 0.02686688 0.00681855 0.01681184 0.00098573 0.01444654 0.08011894 0.02542453 0.00217403 
0.01063976 0.01196770 0.00575729 0.00211426 0.01150370 0.00164779 0.00904504 0.00396316 0.02742056 0.00698276 0.01639513 0.00098750 0.01454920 0.08236529 0.02616296 0.00222058 
0.01045183 0.01198501 0.00581704 0.00217891 0.01125617 0.00170279 0.00905642 0.00392936 0.02796802 0.00714614 0.01597285 0.00099016 0.01463972 0.08455180 0.02688184 0.00226808 
0.01028063 0.01200083 0.00587037 0.00224401 0.01101399 0.00175837 0.00906021 0.00389788 0.02850795 0.00730805 0.01554665 0.00099368 0.01471791 0.08666710 0.02757730 0.00231637 
0.01012687 0.01201513 0.00591707 0.00230934 0.01077798 0.00181438 0.00905626 0.00386877 0.02903905 0.00746787 0.01511828 0.00099806 0.01478364 0.08870023 0.02824560 0.00236528 
0.00999117 0.01202794 0.00595696 0.00237467 0.01054894 0.00187063 0.00904448 0.00384203 0.02955998 0.00762500 0.01468949 0.00100327 0.01483682 0.09064070 0.02888318 0.00241463 
0.00987405 0.01203930 0.00598992 0.00243976 0.01032757 0.00192697 0.00902479 0.00381770 0.03006938 0.00777885 0.01426209 0.00100931 0.01487740 0.09247855 0.02948665 0.00246425 
0.00977592 0.01204930 0.00601584 0.00250440 0.01011452 0.00198322 0.00899712 0.00379579 0.03056585 0.00792885 0.01383789 0.00101614 0.01490537 0.09420443 0.03005283 0.00251395 
0.00969710 0.01205806 0.00603469 0.00256836 0.00991038 0.00203922 0.00896148 0.00377631 0.03104800 0.00807446 0.01341873 0.00102375 0.01492077 0.09580960 0.03057876 0.00256358 
0.00963779 0.01206574 0.00604646 0.00263142 0.00971566 0.00209479 0.00891785 0.00375926 0.03151442 0.00821517 0.01300643 0.00103209 0.01492367 0.09728606 0.03106174 0.00261296 
0.00959810 0.01207253 0.00605120 0.00269338 0.00953082 0.00214979 0.00886627 0.00374464 0.03196367 0.00835049 0.01260284 0.00104113 0.01491418 0.09862650 0.03149930 0.00266192 
0.00957804 0.01207866 0.00604899 0.00275402 0.00935622 0.00220404 0.00880680 0.00373245 0.03239433 0.00847996 0.01220974 0.00105085 0.01489245 0.09982445 0.03188925 0.00271030 
0.00957752 0.01208440 0.00603998 0.00281316 0.00919217 0.00225739 0.00873953 0.00372268 0.03280498 0.00860316 0.01182893 0.00106121 0.01485864 0.10087420 0.03222968 0.00275795 
0.00959633 0.01209005 0.00602435 0.00287060 0.00903889 0.00230970 0.00866455 0.00371530 0.03319420 0.00871972 0.01146214 0.00107215 0.01481298 0.10177092 0.03251897 0.00280470 
0.00963420 0.01209594 0.00600231 0.00292619 0.00889653 0.00236081 0.00858202 0.00371032 0.03356060 0.00882927 0.01111106 0.00108364 0.01475571 0.10251063 0.03275579 0.00285040 
0.00969075 0.01210246 0.00597414 0.00297974 0.00876518 0.00241059 0.00849208 0.00370770 0.03390278 0.00893151 0.01077733 0.00109564 0.01468708 0.10309026 0.03293911 0.00289492 
0.00976551 0.01211001 0.00594014 0.00303112 0.00864483 0.00245890 0.00839492 0.00370742 0.03421942 0.00902617 0.01046250 0.00110808 0.01460741 0.10350762 0.03306822 0.00293811 
0.00985794 0.01211902 0.00590067 0.00308018 0.00853543 0.00250563 0.00829074 0.00370946 0.03450918 0.00911300 0.01016806 0.00112094 0.01451700 0.10376143 0.03314270 0.00297985 
0.00996740 0.01212996 0.00585611 0.00312680 0.00843683 0.00255065 0.00817977 0.00371379 0.03477081 0.00919183 0.00989540 0.00113415 0.01441620 0.10385132 0.03316246 0.00302002 
0.01009319 0.01214333 0.00580688 0.00317088 0.00834883 0.00259386 0.00806225 0.00372039 0.03500310 0.00926250 0.00964583 0.00114766 0.01430537 0.10377783 0.03312768 0.00305849 
0.01023454 0.01215966 0.00575345 0.00321232 0.00827117 0.00263516 0.00793846 0.00372921 0.03520488 0.00932489 0.00942053 0.00116141 0.01418490 0.10354238 0.03303887 0.00309517 
0.01039062 0.01217948 0.00569629 0.00325104 0.00820351 0.00267446 0.00780868 0.00374023 0.03537507 0.00937895 0.00922058 0.00117536 0.01405518 0.10314728 0.03289683 0.00312995 
0.01056054 0.01220336 0.00563593 0.00328699 0.00814547 0.00271169 0.00767321 0.00375341 0.03551267 0.00942463 0.00904693 0.00118945 0.01391664 0.10259568 0.03270262 0.00316274 
0.01074334 0.01223188 0.00557291 0.00332012 0.00809660 0.00274678 0.00753238 0.00376871 0.03561674 0.00946195 0.00890041 0.00120361 0.01376970 0.10189157 0.03245761 0.00319348 
0.01093804 0.01226564 0.00550778 0.00335040 0.00805642 0.00277966 0.00738653 0.00378610 0.03568646 0.00949096 0.00878171 0.00121779 0.01361481 0.10103975 0.03216342 0.00322207 
0.01114360 0.01230524 0.00544113 0.00337781 0.00802437 0.00281029 0.00723601 0.00380554 0.03572109 0.00951175 0.00869139 0.00123194 0.01345243 0.10004575 0.03182193 0.00324847 
0.01135897 0.01235129 0.00537355 0.00340237 0.00799988 0.00283863 0.00708121 0.00382697 0.03572001 0.00952444 0.00862984 0.00124599 0.01328302 0.09891586 0.03143524 0.00327261 
0.01158305 0.01240440 0.00530565 0.00342409 0.00798233 0.00286466 0.00692250 0.00385035 0.03568269 0.00952920 0.00859732 0.00125989 0.01310707 0.09765700 0.03100569 0.00329447 
0.01181472 0.01246519 0.00523804 0.00344301 0.00797106 0.00288837 0.00676028 0.00387565 0.03560874 0.00952621 0.00859394 0.00127359 0.01292504 0.09627678 0.03053583 0.00331399 
0.01205288 0.01253424 0.00517134 0.00345918 0.00796540 0.00290973 0.00659497 0.00390280 0.03549789 0.00951571 0.00861964 0.00128702 0.01273745 0.09478332 0.03002837 0.00333117 
0.01229637 0.01261216 0.00510616 0.00347266 0.00796465 0.00292877 0.00642699 0.00393176 0.03535001 0.00949795 0.00867421 0.00130013 0.01254478 0.09318532 0.02948623 0.00334598 
0.01254408 0.01269951 0.00504311 0.00348355 0.00796809 0.00294550 0.00625677 0.00396246 0.03516507 0.00947322 0.00875729 0.00131288 0.01234753 0.09149192 0.02891245 0.00335842 
0.01279486 0.01279684 0.00498280 0.00349192 0.00797498 0.00295994 0.00608477 0.00399485 0.03494322 0.00944183 0.00886834 0.00132520 0.01214623 0.08971267 0.02831021 0.00336850 
0.01304759 0.01290469 0.00492582 0.00349789 0.00798461 0.00297212 0.00591142 0.00402887 0.03468473 0.00940413 0.00900670 0.00133705 0.01194137 0.08785746 0.02768280 0.00337622 
0.01330117 0.01302354 0.00487275 0.00350157 0.00799622 0.00298210 0.00573719 0.00406445 0.03439001 0.00936048 0.00917152 0.00134838 0.01173347 0.08593648 0.02703360 0.00338161 
0.01355453 0.01315385 0.00482414 0.00350310 0.00800910 0.00298991 0.00556254 0.00410152 0.03405963 0.00931126 0.00936183 0.00135914 0.01152305 0.08396013 0.02636606 0.00338470 
0.01380659 0.01329604 0.00478053 0.00350261 0.00802251 0.00299563 0.00538794 0.00414001 0.03369429 0.00925687 0.00957648 0.00136930 0.01131063 0.08193896 0.02568365 0.00338554 
0.01405634 0.01345047 0.00474242 0.00350026 0.00803575 0.00299932 0.00521388 0.00417983 0.03329486 0.00919772 0.00981421 0.00137880 0.01109670 0.07988363 0.02498990 0.00338415 
0.01430278 0.01361748 0.00471028 0.00349618 0.00804813 0.00300105 0.00504081 0.00422090 0.03286234 0.00913426 0.01007361 0.00138762 0.01088181 0.07780481 0.02428833 0.00338061 
0.01454497 0.01379732 0.00468457 0.00349056 0.00805898 0.00300091 0.00486923 0.00426314 0.03239788 0.00906691 0.01035314 0.00139572 0.01066644 0.07571315 0.02358243 0.00337497 
0.01478200 0.01399020 0.00466568 0.00348355 0.00806768 0.00299898 0.00469960 0.00430644 0.03190276 0.00899614 0.01065115 0.00140307 0.01045112 0.07361920 0.02287567 0.00336730 
0.01501302 0.01419626 0.00465399 0.00347533 0.00807360 0.00299535 0.00453240 0.00435072 0.03137842 0.00892239 0.01096586 0.00140964 0.01023635 0.07153336 0.02217146 0.00335768 
0.01523721 0.01441558 0.00464981 0.00346606 0.00807619 0.00299012 0.00436811 0.00439586 0.03082643 0.00884614 0.01129539 0.00141540 0.01002262 0.06946580 0.02147312 0.00334618 
0.01545382 0.01464817 0.00465345 0.00345592 0.00807491 0.00298339 0.00420718 0.00444175 0.03024847 0.00876785 0.01163778 0.00142035 0.00981044 0.06742644 0.02078388 0.00333289 
0.01566216 0.01489396 0.00466512 0.00344509 0.00806927 0.00297526 0.00405009 0.00448828 0.02964638 0.00868797 0.01199097 0.00142446 0.00960030 0.06542485 0.02010689 0.00331791 
0.01586158 0.01515281 0.00468501 0.00343374 0.00805882 0.00296582 0.00389729 0.00453532 0.02902210 0.00860698 0.01235285 0.00142771 0.00939266 0.06347025 0.01944512 0.00330134 
0.01605150 0.01542450 0.00471327 0.00342204 0.00804317 0.00295519 0.00374922 0.00458276 0.02837767 0.00852532 0.01272121 0.00143012 0.00918800 0.06157141 0.01880142 0.00328326 
0.01623141 0.01570871 0.00474999 0.00341015 0.00802197 0.00294347 0.00360630 0.00463044 0.02771526 0.00844346 0.01309383 0.00143166 0.00898677 0.05973666 0.01817850 0.00326379 
0.01640084 0.01600509 0.00479519 0.00339823 0.00799492 0.00293077 0.00346898 0.00467825 0.02703713 0.00836183 0.01346844 0.00143234 0.00878943 0.05797378 0.01757888 0.00324303 
0.01655941 0.01631315 0.00484886 0.00338645 0.00796177 0.00291718 0.00333764 0.00472603 0.02634562 0.00828086 0.01384274 0.00143217 0.00859640 0.05629005 0.01700490 0.00322109 
0.01670676 0.01663236 0.00491094 0.00337494 0.00792234 0.00290281 0.00321269 0.00477363 0.02564316 0.00820097 0.01421443 0.00143116 0.00840810 0.05469212 0.01645871 0.00319810 
0.01684263 0.01696208 0.00498130 0.00336385 0.00787648 0.00288775 0.00309450 0.00482091 0.02493223 0.00812258 0.01458122 0.00142932 0.00822494 0.05318605 0.01594225 0.00317415 
0.01696681 0.01730162 0.00505976 0.00335330 0.00782410 0.00287211 0.00298342 0.00486771 0.02421540 0.00804607 0.01494082 0.00142668 0.00804729 0.05177727 0.01545727 0.00314936 
0.01707915 0.01765017 0.00514611 0.00334341 0.00776517 0.00285598 0.00287978 0.00491386 0.02349526 0.00797181 0.01529099 0.00142325 0.00787553 0.05047054 0.01500530 0.00312386 
0.01717954 0.01800689 0.00524006 0.00333430 0.00769971 0.00283943 0.00278390 0.00495922 0.02277445 0.00790016 0.01562951 0.00141906 0.00770999 0.04926994 0.01458763 0.00309776 
0.01726794 0.01837082 0.00534128 0.00332605 0.00762779 0.00282257 0.00269607 0.00500361 0.02205564 0.00783145 0.01595424 0.00141415 0.00755099 0.04817887 0.01420536 0.00307118 
0.01734439 0.01874096 0.00544940 0.00331875 0.00754954 0.00280546 0.00261655 0.00504687 0.02134152 0.00776600 0.01626310 0.00140855 0.00739884 0.04720002 0.01385934 0.00304422 
0.01740893 0.01911624 0.00556401 0.00331246 0.00746511 0.00278817 0.00254558 0.00508885 0.02063477 0.00770410 0.01655410 0.00140230 0.00725382 0.04633538 0.01355020 0.00301702 
0.01746169 0.01949551 0.00568462 0.00330726 0.00737473 0.00277077 0.00248336 0.00512937 0.01993806 0.00764602 0.01682534 0.00139545 0.00711616 0.04558624 0.01327835 0.00298968 
0.01750283 0.01987758 0.00581075 0.00330317 0.00727866 0.00275333 0.00243008 0.00516827 0.01925407 0.00759200 0.01707504 0.00138804 0.00698610 0.04495320 0.01304399 0.00296232 
0.01753257 0.02026120 0.00594183 0.00330023 0.00717720 0.00273590 0.00238589 0.00520541 0.01858543 0.00754227 0.01730152 0.00138013 0.00686383 0.04443614 0.01284707 0.00293504 
0.01755115 0.02064509 0.00607730 0.00329845 0.00707070 0.00271852 0.00235090 0.00524061 0.01793473 0.00749702 0.01750325 0.00137176 0.00674952 0.04403431 0.01268735 0.00290797 
0.01755885 0.02102789 0.00621652 0.00329783 0.00695952 0.00270124 0.00232519 0.00527375 0.01730450 0.00745641 0.01767883 0.00136301 0.00664331 0.04374624 0.01256437 0.00288120 
0.01755600 0.02140826 0.00635886 0.00329837 0.00684408 0.00268408 0.00230883 0.00530466 0.01669724 0.00742060 0.01782701 0.00135391 0.00654531 0.04356985 0.01247749 0.00285485 
0.01754294 0.02178481 0.00650364 0.00330002 0.00672482 0.00266708 0.00230182 0.00533323 0.01611533 0.00738970 0.01794670 0.00134455 0.00645560 0.04350245 0.01242584 0.00282901 
0.01752007 0.02215613 0.00665018 0.00330276 0.00660221 0.00265026 0.00230416 0.00535933 0.01556110 0.00736379 0.01803699 0.00133498 0.00637423 0.04354072 0.01240839 0.00280379 
0.01748777 0.02252082 0.00679775 0.00330652 0.00647674 0.00263362 0.00231578 0.00538283 0.01503678 0.00734295 0.01809711 0.00132527 0.00630122 0.04368081 0.01242394 0.00277928 
0.01744647 0.02287746 0.00694563 0.00331125 0.00634892 0.00261719 0.00233660 0.00540365 0.01454449 0.00732721 0.01812651 0.00131548 0.00623657 0.04391832 0.01247111 0.00275558 
0.01739660 0.02322466 0.00709308 0.00331687 0.00621928 0.00260095 0.00236650 0.00542168 0.01408624 0.00731657 0.01812479 0.00130568 0.00618024 0.04424835 0.01254836 0.00273277 
0.01733862 0.02356103 0.00723935 0.00332329 0.00608834 0.00258491 0.00240532 0.00543686 0.01366391 0.00731103 0.01809175 0.00129595 0.00613216 0.04466556 0.01265404 0.00271095 
0.01727298 0.02388523 0.00738370 0.00333041 0.00595666 0.00256906 0.00245286 0.00544913 0.01327926 0.00731053 0.01802739 0.00128635 0.00609225 0.04516416 0.01278634 0.00269019 
0.01720016 0.02419594 0.00752539 0.00333813 0.00582479 0.00255339 0.00250889 0.00545844 0.01293392 0.00731503 0.01793188 0.00127695 0.00606038 0.04573800 0.01294336 0.00267059 
0.01712060 0.02449189 0.00766366 0.00334633 0.00569327 0.00253786 0.00257316 0.00546476 0.01262935 0.00732441 0.01780559 0.00126782 0.00603641 0.04638060 0.01312307 0.00265221 
0.01703479 0.02477188 0.00779780 0.00335489 0.00556266 0.00252247 0.00264536 0.00546810 0.01236687 0.00733857 0.01764909 0.00125902 0.00602017 0.04708516 0.01332338 0.00263513 
0.01694318 0.02503474 0.00792709 0.00336369 0.00543350 0.00250719 0.00272516 0.00546847 0.01214767 0.00735736 0.01746313 0.00125062 0.00601147 0.04784467 0.01354211 0.00261942 
0.01684622 0.02527941 0.00805083 0.00337260 0.00530631 0.00249198 0.00281221 0.00546590 0.01197272 0.00738063 0.01724864 0.00124269 0.00601012 0.04865188 0.01377702 0.00260515 
0.01674437 0.02550489 0.00816835 0.00338148 0.00518164 0.00247682 0.00290611 0.00546045 0.01184287 0.00740819 0.01700674 0.00123528 0.00601587 0.04949941 0.01402583 0.00259238 
0.01663804 0.02571028 0.00827899 0.00339019 0.00505997 0.00246167 0.00300643 0.00545220 0.01175878 0.00743984 0.01673872 0.00122846 0.00602849 0.05037977 0.01428623 0.00258118 
0.01652767 0.02589478 0.00838214 0.00339859 0.00494181 0.00244650 0.00311275 0.00544125 0.01172093 0.00747535 0.01644604 0.00122228 0.00604772 0.05128538 0.01455588 0.00257160 
0.01641364 0.02605767 0.00847721 0.00340656 0.00482761 0.00243127 0.00322457 0.00542773 0.01172963 0.00751449 0.01613033 0.00121680 0.00607329 0.05220869 0.01483245 0.00256368 
0.01629635 0.02619837 0.00856365 0.00341396 0.00471782 0.00241594 0.00334141 0.00541179 0.01178499 0.00755701 0.01579335 0.00121206 0.00610494 0.05314213 0.01511361 0.00255750 
0.01617615 0.02631641 0.00864095 0.00342065 0.00461287 0.00240049 0.00346275 0.00539360 0.01188698 0.00760262 0.01543702 0.00120812 0.00614238 0.05407824 0.01539705 0.00255309 
0.01605338 0.02641142 0.00870865 0.00342650 0.00451316 0.00238487 0.00358806 0.00537336 0.01203534 0.00765104 0.01506340 0.00120500 0.00618534 0.05500965 0.01568051 0.00255049 
0.01592837 0.02648318 0.00876631 0.00343140 0.00441903 0.00236905 0.00371679 0.00535130 0.01222965 0.00770198 0.01467464 0.00120275 0.00623353 0.05592916 0.01596178 0.00254976 
0.01580141 0.02653160 0.00881355 0.00343523 0.00433084 0.00235301 0.00384837 0.00532766 0.01246930 0.00775513 0.01427305 0.00120141 0.00628667 0.05682977 0.01623868 0.00255093 
0.01567277 0.02655671 0.00885006 0.00343788 0.00424889 0.00233670 0.00398223 0.00530270 0.01275351 0.00781017 0.01386097 0.00120099 0.00634451 0.05770472 0.01650913 0.00255404 
0.01554269 0.02655868 0.00887554 0.00343924 0.00417346 0.00232012 0.00411780 0.00527672 0.01308132 0.00786677 0.01344088 0.00120152 0.00640676 0.05854751 0.01677113 0.00255912 
0.01541140 0.02653783 0.00888978 0.00343923 0.00410478 0.00230323 0.00425447 0.00525003 0.01345158 0.00792461 0.01301530 0.00120301 0.00647320 0.05935195 0.01702276 0.00256621 
0.01527910 0.02649459 0.00889259 0.00343777 0.00404306 0.00228602 0.00439168 0.00522296 0.01386297 0.00798336 0.01258680 0.00120548 0.00654358 0.06011221 0.01726221 0.00257534 
0.01514595 0.02642955 0.00888385 0.00343479 0.00398849 0.00226848 0.00452883 0.00519586 0.01431402 0.00804267 0.01215800 0.00120893 0.00661770 0.06082280 0.01748778 0.00258653 
0.01501212 0.02634343 0.00886350 0.00343024 0.00394121 0.00225058 0.00466534 0.00516909 0.01480308 0.00810221 0.01173155 0.00121335 0.00669535 0.06147866 0.01769788 0.00259981 
0.01487773 0.02623707 0.00883151 0.00342405 0.00390133 0.00223234 0.00480063 0.00514305 0.01532835 0.00816164 0.01131007 0.00121875 0.00677637 0.06207512 0.01789105 0.00261522 
0.01474288 0.02611146 0.00878793 0.00341621 0.00386894 0.00221374 0.00493416 0.00511812 0.01588788 0.00822063 0.01089622 0.00122511 0.00686062 0.06260798 0.01806597 0.00263276 
0.01460766 0.02596771 0.00873285 0.00340669 0.00384407 0.00219480 0.00506536 0.00509472 0.01647956 0.00827885 0.01049261 0.00123241 0.00694797 0.06307348 0.01822144 0.00265247 
0.01447214 0.02580703 0.00866642 0.00339550 0.00382675 0.00217551 0.00519372 0.00507326 0.01710118 0.00833598 0.01010180 0.00124063 0.00703833 0.06346836 0.01835642 0.00267436 
0.01433637 0.02563076 0.00858882 0.00338262 0.00381697 0.00215591 0.00531871 0.00505416 0.01775036 0.00839171 0.00972632 0.00124974 0.00713165 0.06378984 0.01847001 0.00269847 
0.01420037 0.02544036 0.00850030 0.00336809 0.00381470 0.00213600 0.00543986 0.00503786 0.01842464 0.00844572 0.00936860 0.00125970 0.00722790 0.06403565 0.01856145 0.00272479 
0.01406418 0.02523736 0.00840116 0.00335194 0.00381986 0.00211582 0.00555669 0.00502479 0.01912142 0.00849772 0.00903102 0.00127047 0.00732709 0.06420402 0.01863014 0.00275336 
0.01392779 0.02502341 0.00829173 0.00333422 0.00383237 0.00209539 0.00566879 0.00501538 0.01983802 0.00854744 0.00871581 0.00128202 0.00742926 0.06429371 0.01867562 0.00278420 
0.01379120 0.02480023 0.00817239 0.00331498 0.00385211 0.00207475 0.00577574 0.00501005 0.02057167 0.00859459 0.00842514 0.00129428 0.00753448 0.06430399 0.01869761 0.00281733 
0.01365440 0.02456961 0.00804357 0.00329431 0.00387895 0.00205394 0.00587718 0.00500922 0.02131952 0.00863893 0.00816100 0.00130720 0.00764285 0.06423465 0.01869594 0.00285275 
0.01351736 0.02433340 0.00790573 0.00327228 0.00391273 0.00203301 0.00597278 0.00501331 0.02207867 0.00868021 0.00792529 0.00132073 0.00775452 0.06408599 0.01867064 0.00289051 
0.01338007 0.02409351 0.00775937 0.00324899 0.00395327 0.00201201 0.00606224 0.00502272 0.02284615 0.00871822 0.00771971 0.00133481 0.00786965 0.06385882 0.01862185 0.00293061 
0.01324248 0.02385189 0.00760502 0.00322455 0.00400038 0.00199098 0.00614531 0.00503783 0.02361896 0.00875275 0.00754583 0.00134936 0.00798846 0.06355444 0.01854988 0.00297308 
0.01310458 0.02361051 0.00744325 0.00319907 0.00405386 0.00197000 0.00622177 0.00505899 0.02439407 0.00878361 0.00740502 0.00136432 0.00811117 0.06317467 0.01845518 0.00301795 
0.01296634 0.02337137 0.00727465 0.00317269 0.00411347 0.00194911 0.00629145 0.00508657 0.02516846 0.00881064 0.00729850 0.00137961 0.00823805 0.06272177 0.01833834 0.00306524 
0.01282772 0.02313646 0.00709983 0.00314553 0.00417899 0.00192839 0.00635422 0.00512088 0.02593907 0.00883370 0.00722726 0.00139518 0.00836937 0.06219848 0.01820007 0.00311498 
0.01268871 0.02290777 0.00691942 0.00311774 0.00425017 0.00190790 0.00641000 0.00516220 0.02670290 0.00885266 0.00719213 0.00141093 0.00850544 0.06160796 0.01804124 0.00316721 
0.01254928 0.02268726 0.00673409 0.00308946 0.00432676 0.00188771 0.00645874 0.00521081 0.02745696 0.00886741 0.00719370 0.00142679 0.00864660 0.06095384 0.01786283 0.00322196 
0.01240944 0.02247687 0.00654450 0.00306085 0.00440849 0.00186789 0.00650045 0.00526692 0.02819830 0.00887789 0.00723239 0.00144269 0.00879318 0.06024010 0.01766594 0.00327928 
0.01226918 0.02227849 0.00635132 0.00303205 0.00449509 0.00184852 0.00653518 0.00533075 0.02892404 0.00888401 0.00730838 0.00145855 0.00894554 0.05947112 0.01745177 0.00333919 
0.01212850 0.02209394 0.00615525 0.00300324 0.00458630 0.00182967 0.00656301 0.00540243 0.02963138 0.00888576 0.00742164 0.00147428 0.00910404 0.05865166 0.01722165 0.00340176 
0.01198745 0.02192499 0.00595697 0.00297458 0.00468183 0.00181141 0.00658408 0.00548209 0.03031759 0.00888312 0.00757194 0.00148982 0.00926906 0.05778677 0.01697700 0.00346704 
0.01184603 0.02177332 0.00575718 0.00294621 0.00478142 0.00179382 0.00659856 0.00556981 0.03098005 0.00887608 0.00775884 0.00150510 0.00944096 0.05688182 0.01671931 0.00353508 
0.01170432 0.02164050 0.00555656 0.00291831 0.00488477 0.00177697 0.00660668 0.00566561 0.03161625 0.00886468 0.00798167 0.00152002 0.00962011 0.05594247 0.01645019 0.00360595 
0.01156235 0.02152803 0.00535581 0.00289102 0.00499161 0.00176093 0.00660868 0.00576947 0.03222383 0.00884898 0.00823956 0.00153453 0.00980686 0.05497459 0.01617127 0.00367972 
0.01142022 0.02143728 0.00515559 0.00286451 0.00510166 0.00174578 0.00660486 0.00588135 0.03280056 0.00882903 0.00853145 0.00154856 0.01000156 0.05398431 0.01588430 0.00375646 
0.01127802 0.02136949 0.00495658 0.00283892 0.00521464 0.00173159 0.00659554 0.00600112 0.03334434 0.00880493 0.00885606 0.00156203 0.01020453 0.05297791 0.01559105 0.00383626 
0.01113584 0.02132577 0.00475943 0.00281441 0.00533027 0.00171841 0.00658108 0.00612863 0.03385329 0.00877679 0.00921195 0.00157489 0.01041607 0.05196184 0.01529334 0.00391921 
0.01099381 0.02130710 0.00456477 0.00279110 0.00544829 0.00170632 0.00656188 0.00626367 0.03432565 0.00874474 0.00959747 0.00158708 0.01063645 0.05094268 0.01499305 0.00400540 
0.01085206 0.02131431 0.00437322 0.00276913 0.00556840 0.00169538 0.00653834 0.00640598 0.03475989 0.00870892 0.01001082 0.00159854 0.01086592 0.04992708 0.01469204 0.00409494 
0.01071076 0.02134808 0.00418538 0.00274862 0.00569036 0.00168564 0.00651091 0.00655527 0.03515465 0.00866950 0.01045002 0.00160923 0.01110467 0.04892179 0.01439224 0.00418793 
0.01057005 0.02140891 0.00400182 0.00272968 0.00581389 0.00167716 0.00648004 0.00671116 0.03550880 0.00862665 0.01091296 0.00161909 0.01135287 0.04793355 0.01409554 0.00428450 
0.01043013 0.02149717 0.00382309 0.00271242 0.00593873 0.00166999 0.00644621 0.00687327 0.03582141 0.00858058 0.01139738 0.00162809 0.01161063 0.04696910 0.01380388 0.00438477 
0.01029119 0.02161303 0.00364972 0.00269693 0.00606463 0.00166416 0.00640992 0.00704114 0.03609177 0.00853147 0.01190091 0.00163620 0.01187801 0.04603518 0.01351914 0.00448886 
0.01015343 0.02175651 0.00348220 0.00268328 0.00619132 0.00165973 0.00637165 0.00721427 0.03631940 0.00847957 0.01242104 0.00164338 0.01215503 0.04513843 0.01324320 0.00459693 
0.01001706 0.02192745 0.00332100 0.00267155 0.00631856 0.00165672 0.00633193 0.00739213 0.03650404 0.00842508 0.01295521 0.00164961 0.01244163 0.04428539 0.01297791 0.00470911 
0.00988232 0.02212553 0.00316654 0.00266179 0.00644610 0.00165517 0.00629125 0.00757413 0.03664567 0.00836827 0.01350075 0.00165487 0.01273770 0.04348251 0.01272509 0.00482554 
0.00974944 0.02235023 0.00301924 0.00265404 0.00657370 0.00165510 0.00625012 0.00775965 0.03674451 0.00830937 0.01405493 0.00165916 0.01304309 0.04273605 0.01248649 0.00494640 
0.00961867 0.02260090 0.00287946 0.00264833 0.00670112 0.00165651 0.00620906 0.00794804 0.03680099 0.00824864 0.01461501 0.00166246 0.01335753 0.04205208 0.01226382 0.00507182 
0.00949026 0.02287668 0.00274754 0.00264467 0.00682811 0.00165944 0.00616855 0.00813860 0.03681581 0.00818634 0.01517817 0.00166478 0.01368074 0.04143648 0.01205872 0.00520199 
0.00936445 0.02317658 0.00262378 0.00264308 0.00695446 0.00166387 0.00612907 0.00833062 0.03678988 0.00812273 0.01574161 0.00166611 0.01401234 0.04089488 0.01187275 0.00533705 
0.00924153 0.02349942 0.00250845 0.00264352 0.00707992 0.00166981 0.00609110 0.00852333 0.03672431 0.00805810 0.01630254 0.00166648 0.01435189 0.04043263 0.01170740 0.00547718 
0.00912173 0.02384390 0.00240180 0.00264599 0.00720427 0.00167726 0.00605508 0.00871599 0.03662049 0.00799270 0.01685817 0.00166590 0.01469886 0.04005479 0.01156406 0.00562255 
0.00900533 0.02420852 0.00230401 0.00265043 0.00732729 0.00168619 0.00602144 0.00890778 0.03647996 0.00792681 0.01740577 0.00166439 0.01505269 0.03976610 0.01144404 0.00577331 
0.00889260 0.02459169 0.00221525 0.00265680 0.00744876 0.00169658 0.00599058 0.00909791 0.03630452 0.00786070 0.01794266 0.00166198 0.01541271 0.03957096 0.01134853 0.00592963 
0.00878378 0.02499166 0.00213566 0.00266503 0.00756845 0.00170842 0.00596287 0.00928556 0.03609612 0.00779463 0.01846624 0.00165871 0.01577822 0.03947341 0.01127863 0.00609168 
0.00867914 0.02540654 0.00206532 0.00267504 0.00768617 0.00172167 0.00593865 0.00946991 0.03585694 0.00772888 0.01897399 0.00165461 0.01614843 0.03947708 0.01123531 0.00625959 
0.00857892 0.02583436 0.00200431 0.00268675 0.00780169 0.00173628 0.00591824 0.00965014 0.03558930 0.00766370 0.01946349 0.00164972 0.01652250 0.03958523 0.01121944 0.00643353 
0.00848338 0.02627302 0.00195266 0.00270005 0.00791480 0.00175222 0.00590191 0.00982542 0.03529568 0.00759934 0.01993246 0.00164409 0.01689951 0.03980067 0.01123174 0.00661362 
0.00839273 0.02672031 0.00191036 0.00271484 0.00802532 0.00176943 0.00588990 0.00999496 0.03497872 0.00753607 0.02037875 0.00163777 0.01727852 0.04012577 0.01127282 0.00679998 
0.00830721 0.02717398 0.00187738 0.00273099 0.00813303 0.00178786 0.00588241 0.01015794 0.03464119 0.00747411 0.02080033 0.00163082 0.01765851 0.04056245 0.01134317 0.00699273 
0.00822704 0.02763167 0.00185366 0.00274837 0.00823774 0.00180744 0.00587960 0.01031359 0.03428596 0.00741371 0.02119537 0.00162328 0.01803842 0.04111217 0.01144312 0.00719197 
0.00815240 0.02809097 0.00183909 0.00276685 0.00833927 0.00182811 0.00588159 0.01046117 0.03391600 0.00735508 0.02156218 0.00161523 0.01841715 0.04177589 0.01157288 0.00739775 
0.00808349 0.02854942 0.00183356 0.00278629 0.00843744 0.00184980 0.00588846 0.01059993 0.03353436 0.00729845 0.02189925 0.00160672 0.01879357 0.04255410 0.01173252 0.00761016 
0.00802049 0.02900454 0.00183691 0.00280653 0.00853205 0.00187242 0.00590026 0.01072918 0.03314415 0.00724401 0.02220529 0.00159781 0.01916651 0.04344677 0.01192198 0.00782920 
0.00796354 0.02945381 0.00184897 0.00282742 0.00862296 0.00189590 0.00591698 0.01084827 0.03274850 0.00719197 0.02247916 0.00158858 0.01953479 0.04445338 0.01214105 0.00805490 
0.00791279 0.02989471 0.00186951 0.00284881 0.00870998 0.00192016 0.00593859 0.01095658 0.03235058 0.00714251 0.02271996 0.00157908 0.01989720 0.04557289 0.01238939 0.00828724 
0.00786836 0.03032472 0.00189833 0.00287053 0.00879297 0.00194509 0.00596499 0.01105355 0.03195356 0.00709580 0.02292698 0.00156939 0.02025251 0.04680375 0.01266650 0.00852615 
0.00783035 0.03074135 0.00193515 0.00289242 0.00887178 0.00197061 0.00599609 0.01113864 0.03156056 0.00705200 0.02309973 0.00155957 0.02059952 0.04814392 0.01297178 0.00877156 
0.00779884 0.03114214 0.00197969 0.00291432 0.00894628 0.00199663 0.00603171 0.01121141 0.03117470 0.00701127 0.02323791 0.00154968 0.02093701 0.04959082 0.01330448 0.00902336 
0.00777391 0.03152467 0.00203166 0.00293607 0.00901632 0.00202304 0.00607168 0.01127143 0.03079900 0.00697373 0.02334147 0.00153979 0.02126378 0.05114138 0.01366371 0.00928139 
0.00775560 0.03188658 0.00209074 0.00295751 0.00908181 0.00204975 0.00611577 0.01131835 0.03043642 0.00693952 0.02341054 0.00152997 0.02157863 0.05279204 0.01404847 0.00954545 
0.00774393 0.03222558 0.00215657 0.00297848 0.00914263 0.00207665 0.00616373 0.01135190 0.03008982 0.00690876 0.02344548 0.00152027 0.02188042 0.05453873 0.01445762 0.00981532 
0.00773890 0.03253949 0.00222880 0.00299883 0.00919870 0.00210363 0.00621528 0.01137185 0.02976193 0.00688155 0.02344684 0.00151076 0.02216802 0.05637692 0.01488992 0.01009073 
0.00774050 0.03282620 0.00230705 0.00301841 0.00924992 0.00213060 0.00627011 0.01137805 0.02945534 0.00685797 0.02341539 0.00150150 0.02244036 0.05830161 0.01534401 0.01037134 
0.00774870 0.03308371 0.00239093 0.00303709 0.00929624 0.00215745 0.00632790 0.01137041 0.02917250 0.00683812 0.02335209 0.00149254 0.02269639 0.06030734 0.01581841 0.01065681 
0.00776343 0.03331017 0.00248002 0.00305471 0.00933760 0.00218407 0.00638828 0.01134892 0.02891569 0.00682206 0.02325806 0.00148393 0.02293514 0.06238823 0.01631157 0.01094671 
0.00778461 0.03350383 0.00257390 0.00307117 0.00937396 0.00221034 0.00645091 0.01131364 0.02868698 0.00680986 0.02313465 0.00147573 0.02315569 0.06453799 0.01682183 0.01124060 
0.00781215 0.03366311 0.00267213 0.00308633 0.00940531 0.00223618 0.00651541 0.01126470 0.02848826 0.00680156 0.02298334 0.00146797 0.02335720 0.06674994 0.01734743 0.01153796 
0.00784594 0.03378658 0.00277427 0.00310010 0.00943162 0.00226148 0.00658137 0.01120229 0.02832122 0.00679720 0.02280578 0.00146070 0.02353889 0.06901704 0.01788657 0.01183826 
0.00788582 0.03387295 0.00287985 0.00311237 0.00945292 0.00228612 0.00664842 0.01112669 0.02818729 0.00679683 0.02260376 0.00145396 0.02370006 0.07133189 0.01843734 0.01214088 
0.00793165 0.03392114 0.00298842 0.00312305 0.00946921 0.00231001 0.00671615 0.01103824 0.02808770 0.00680046 0.02237922 0.00144778 0.02384010 0.07368682 0.01899779 0.01244519 
0.00798324 0.03393022 0.00309949 0.00313207 0.00948055 0.00233305 0.00678417 0.01093734 0.02802343 0.00680810 0.02213420 0.00144219 0.02395849 0.07607385 0.01956593 0.01275048 
0.00804041 0.03389945 0.00321258 0.00313936 0.00948698 0.00235515 0.00685207 0.01082448 0.02799520 0.00681976 0.02187084 0.00143722 0.02405479 0.07848478 0.02013971 0.01305603 
0.00810295 0.03382830 0.00332721 0.00314487 0.00948857 0.00237621 0.00691948 0.01070019 0.02800350 0.00683545 0.02159140 0.00143288 0.02412867 0.08091119 0.02071705 0.01336105 
0.00817062 0.03371642 0.00344289 0.00314855 0.00948541 0.00239614 0.00698601 0.01056507 0.02804854 0.00685514 0.02129817 0.00142920 0.02417988 0.08334448 0.02129586 0.01366471 
0.00824318 0.03356368 0.00355912 0.00315039 0.00947761 0.00241485 0.00705130 0.01041978 0.02813030 0.00687883 0.02099354 0.00142618 0.02420829 0.08577594 0.02187403 0.01396616 
0.00832038 0.03337013 0.00367542 0.00315035 0.00946526 0.00243226 0.00711500 0.01026503 0.02824847 0.00690649 0.02067992 0.00142383 0.02421385 0.08819674 0.02244944 0.01426449 
0.00840193 0.03313606 0.00379128 0.00314845 0.00944851 0.00244830 0.00717678 0.01010160 0.02840253 0.00693809 0.02035973 0.00142216 0.02419662 0.09059801 0.02302000 0.01455878 
0.00848756 0.03286194 0.00390623 0.00314469 0.00942750 0.00246288 0.00723632 0.00993028 0.02859168 0.00697359 0.02003543 0.00142116 0.02415677 0.09297086 0.02358361 0.01484806 
0.00857695 0.03254847 0.00401978 0.00313909 0.00940237 0.00247595 0.00729333 0.00975194 0.02881488 0.00701295 0.01970944 0.00142083 0.02409456 0.09530642 0.02413823 0.01513134 
0.00866980 0.03219655 0.00413143 0.00313168 0.00937330 0.00248744 0.00734755 0.00956746 0.02907087 0.00705611 0.01938418 0.00142115 0.02401035 0.09759590 0.02468183 0.01540762 
0.00876578 0.03180728 0.00424073 0.00312251 0.00934046 0.00249730 0.00739874 0.00937776 0.02935813 0.00710302 0.01906201 0.00142212 0.02390460 0.09983065 0.02521244 0.01567587 
0.00886455 0.03138197 0.00434721 0.00311165 0.00930404 0.00250546 0.00744668 0.00918380 0.02967497 0.00715361 0.01874524 0.00142372 0.02377786 0.10200212 0.02572814 0.01593504 
0.00896576 0.03092213 0.00445041 0.00309914 0.00926423 0.00251189 0.00749120 0.00898655 0.03001945 0.00720781 0.01843611 0.00142592 0.02363077 0.10410202 0.02622710 0.01618410 
0.00906907 0.03042947 0.00454988 0.00308509 0.00922124 0.00251655 0.00753212 0.00878699 0.03038948 0.00726554 0.01813677 0.00142870 0.02346407 0.10612226 0.02670754 0.01642201 
0.00917411 0.02990588 0.00464520 0.00306956 0.00917526 0.00251941 0.00756934 0.00858612 0.03078276 0.00732671 0.01784927 0.00143204 0.02327857 0.10805507 0.02716776 0.01664771 
0.00928050 0.02935342 0.00473595 0.00305267 0.00912653 0.00252044 0.00760275 0.00838495 0.03119685 0.00739123 0.01757555 0.00143590 0.02307515 0.10989298 0.02760618 0.01686018 
0.00938787 0.02877435 0.00482174 0.00303452 0.00907524 0.00251962 0.00763228 0.00818446 0.03162917 0.00745899 0.01731743 0.00144026 0.02285480 0.11162891 0.02802130 0.01705840 
0.00949584 0.02817107 0.00490219 0.00301521 0.00902162 0.00251694 0.00765790 0.00798566 0.03207700 0.00752989 0.01707657 0.00144507 0.02261852 0.11325616 0.02841172 0.01724139 
0.00960401 0.02754613 0.00497693 0.00299487 0.00896589 0.00251240 0.00767960 0.00778953 0.03253754 0.00760379 0.01685451 0.00145030 0.02236742 0.11476850 0.02877617 0.01740819 
0.00971199 0.02690224 0.00504563 0.00297363 0.00890826 0.00250599 0.00769739 0.00759702 0.03300789 0.00768058 0.01665262 0.00145591 0.02210264 0.11616015 0.02911348 0.01755787 
0.00981938 0.02624222 0.00510798 0.00295161 0.00884894 0.00249774 0.00771132 0.00740907 0.03348508 0.00776011 0.01647210 0.00146187 0.02182536 0.11742587 0.02942261 0.01768954 
0.00992579 0.02556902 0.00516368 0.00292896 0.00878816 0.00248765 0.00772146 0.00722660 0.03396610 0.00784224 0.01631401 0.00146813 0.02153683 0.11856093 0.02970265 0.01780238 
0.01003081 0.02488568 0.00521248 0.00290579 0.00872610 0.00247575 0.00772791 0.00705047 0.03444793 0.00792680 0.01617921 0.00147465 0.02123829 0.11956121 0.02995282 0.01789561 
0.01013404 0.02419534 0.00525415 0.00288227 0.00866297 0.00246207 0.00773077 0.00688152 0.03492755 0.00801363 0.01606838 0.00148139 0.02093104 0.12042314 0.03017247 0.01796850 
0.01023508 0.02350120 0.00528847 0.00285852 0.00859896 0.00244665 0.00773018 0.00672054 0.03540193 0.00810254 0.01598203 0.00148830 0.02061638 0.12114379 0.03036108 0.01802040 
0.01033353 0.02280653 0.00531528 0.00283468 0.00853426 0.00242953 0.00772629 0.00656826 0.03586811 0.00819334 0.01592048 0.00149535 0.02029562 0.12172085 0.03051829 0.01805074 
0.01042900 0.02211462 0.00533444 0.00281089 0.00846902 0.00241077 0.00771928 0.00642538 0.03632319 0.00828583 0.01588388 0.00150249 0.01997008 0.12215269 0.03064384 0.01805901 
0.01052108 0.02142880 0.00534584 0.00278730 0.00840341 0.00239042 0.00770932 0.00629252 0.03676434 0.00837980 0.01587217 0.00150968 0.01964105 0.12243830 0.03073764 0.01804478 
0.01060938 0.02075240 0.00534941 0.00276402 0.00833758 0.00236854 0.00769659 0.00617026 0.03718883 0.00847502 0.01588515 0.00151689 0.01930984 0.12257737 0.03079973 0.01800773 
0.01069353 0.02008874 0.00534511 0.00274120 0.00827165 0.00234522 0.00768131 0.00605910 0.03759407 0.00857126 0.01592240 0.00152406 0.01897771 0.12257025 0.03083026 0.01794761 
0.01077314 0.01944112 0.00533294 0.00271895 0.00820576 0.00232052 0.00766366 0.00595949 0.03797758 0.00866826 0.01598337 0.00153118 0.01864590 0.12241796 0.03082954 0.01786426 
0.01084785 0.01881277 0.00531294 0.00269739 0.00814000 0.00229453 0.00764387 0.00587180 0.03833706 0.00876576 0.01606732 0.00153819 0.01831562 0.12212221 0.03079800 0.01775763 
0.01091729 0.01820689 0.00528519 0.00267663 0.00807445 0.00226734 0.00762214 0.00579633 0.03867036 0.00886350 0.01617337 0.00154507 0.01798802 0.12168536 0.03073618 0.01762775 
0.01098112 0.01762656 0.00524980 0.00265679 0.00800921 0.00223904 0.00759867 0.00573333 0.03897554 0.00896119 0.01630047 0.00155178 0.01766423 0.12111041 0.03064476 0.01747478 
0.01103900 0.01707480 0.00520692 0.00263795 0.00794431 0.00220972 0.00757366 0.00568294 0.03925082 0.00905856 0.01644744 0.00155830 0.01734529 0.12040103 0.03052453 0.01729895 
0.01109060 0.01655448 0.00515674 0.00262020 0.00787980 0.00217950 0.00754732 0.00564527 0.03949466 0.00915528 0.01661298 0.00156459 0.01703221 0.11956148 0.03037639 0.01710061 
0.01113563 0.01606837 0.00509948 0.00260362 0.00781571 0.00214847 0.00751984 0.00562032 0.03970574 0.00925107 0.01679565 0.00157063 0.01672590 0.11859665 0.03020133 0.01688020 
0.01117379 0.01561908 0.00503543 0.00258828 0.00775204 0.00211675 0.00749138 0.00560806 0.03988294 0.00934560 0.01699393 0.00157641 0.01642723 0.11751196 0.03000045 0.01663827 
0.01120480 0.01520904 0.00496487 0.00257423 0.00768878 0.00208446 0.00746212 0.00560835 0.04002540 0.00943856 0.01720617 0.00158190 0.01613698 0.11631341 0.02977493 0.01637545 
0.01122842 0.01484053 0.00488814 0.00256153 0.00762592 0.00205170 0.00743222 0.00562100 0.04013249 0.00952961 0.01743066 0.00158708 0.01585585 0.11500749 0.02952605 0.01609249 
0.01124443 0.01451562 0.00480563 0.00255021 0.00756341 0.00201861 0.00740181 0.00564576 0.04020382 0.00961843 0.01766562 0.00159193 0.01558446 0.11360119 0.02925515 0.01579021 
0.01125260 0.01423620 0.00471774 0.00254029 0.00750120 0.00198529 0.00737101 0.00568230 0.04023924 0.00970469 0.01790919 0.00159646 0.01532333 0.11210191 0.02896364 0.01546954 
0.01125278 0.01400392 0.00462491 0.00253179 0.00743923 0.00195187 0.00733994 0.00573023 0.04023886 0.00978805 0.01815950 0.00160065 0.01507293 0.11051748 0.02865298 0.01513149 
0.01124480 0.01382021 0.00452762 0.00252471 0.00737741 0.00191849 0.00730868 0.00578911 0.04020302 0.00986818 0.01841463 0.00160450 0.01483359 0.10885607 0.02832470 0.01477713 
0.01122855 0.01368627 0.00442637 0.00251905 0.00731565 0.00188525 0.00727732 0.00585844 0.04013228 0.00994476 0.01867264 0.00160800 0.01460560 0.10712617 0.02798036 0.01440762 
0.01120394 0.01360306 0.00432170 0.00251478 0.00725386 0.00185230 0.00724590 0.00593766 0.04002747 0.01001744 0.01893160 0.00161115 0.01438913 0.10533653 0.02762155 0.01402421 
0.01117091 0.01357129 0.00421415 0.00251188 0.00719191 0.00181974 0.00721446 0.00602618 0.03988962 0.01008592 0.01918958 0.00161396 0.01418427 0.10349614 0.02724990 0.01362817 
0.01112944 0.01359140 0.00410430 0.00251031 0.00712969 0.00178772 0.00718303 0.00612335 0.03971998 0.01014988 0.01944468 0.00161644 0.01399102 0.10161415 0.02686706 0.01322085 
0.01107955 0.01366358 0.00399276 0.00251001 0.00706707 0.00175635 0.00715161 0.00622849 0.03952000 0.01020901 0.01969504 0.00161859 0.01380929 0.09969985 0.02647466 0.01280366 
0.01102130 0.01378777 0.00388015 0.00251092 0.00700392 0.00172574 0.00712020 0.00634088 0.03929133 0.01026302 0.01993885 0.00162043 0.01363891 0.09776259 0.02607438 0.01237802 
0.01095477 0.01396362 0.00376708 0.00251299 0.00694010 0.00169604 0.00708875 0.00645978 0.03903580 0.01031164 0.02017434 0.00162196 0.01347963 0.09581177 0.02566786 0.01194541 
0.01088011 0.01419053 0.00365421 0.00251612 0.00687547 0.00166734 0.00705724 0.00658441 0.03875542 0.01035459 0.02039984 0.00162322 0.01333111 0.09385675 0.02525674 0.01150732 
0.01079749 0.01446766 0.00354219 0.00252024 0.00680989 0.00163976 0.00702562 0.00671398 0.03845233 0.01039164 0.02061375 0.00162421 0.01319297 0.09190685 0.02484267 0.01106526 
0.01070715 0.01479387 0.00343167 0.00252526 0.00674321 0.00161342 0.00699380 0.00684770 0.03812881 0.01042256 0.02081456 0.00162496 0.01306471 0.08997126 0.02442723 0.01062075 
0.01060934 0.01516781 0.00332331 0.00253107 0.00667529 0.00158842 0.00696174 0.00698475 0.03778727 0.01044713 0.02100086 0.00162549 0.01294581 0.08805901 0.02401201 0.01017532 
0.01050440 0.01558786 0.00321777 0.00253758 0.00660599 0.00156487 0.00692933 0.00712432 0.03743021 0.01046517 0.02117137 0.00162583 0.01283566 0.08617894 0.02359855 0.00973047 
0.01039267 0.01605217 0.00311569 0.00254467 0.00653519 0.00154285 0.00689649 0.00726560 0.03706020 0.01047652 0.02132490 0.00162601 0.01273362 0.08433965 0.02318836 0.00928770 
0.01027458 0.01655865 0.00301772 0.00255223 0.00646275 0.00152247 0.00686314 0.00740777 0.03667990 0.01048106 0.02146039 0.00162604 0.01263899 0.08254945 0.02278291 0.00884849 
0.01015059 0.01710502 0.00292448 0.00256016 0.00638855 0.00150381 0.00682917 0.00755007 0.03629200 0.01047866 0.02157692 0.00162598 0.01255103 0.08081632 0.02238362 0.00841426 
0.01002120 0.01768878 0.00283658 0.00256833 0.00631249 0.00148696 0.00679448 0.00769170 0.03589919 0.01046925 0.02167370 0.00162583 0.01246898 0.07914792 0.02199186 0.00798643 
0.00988696 0.01830723 0.00275462 0.00257663 0.00623445 0.00147198 0.00675899 0.00783192 0.03550421 0.01045279 0.02175007 0.00162565 0.01239204 0.07755149 0.02160896 0.00756634 
0.00974850 0.01895753 0.00267917 0.00258494 0.00615434 0.00145895 0.00672259 0.00797001 0.03510974 0.01042925 0.02180551 0.00162545 0.01231939 0.07603386 0.02123619 0.00715530 
0.00960645 0.01963663 0.00261076 0.00259315 0.00607210 0.00144792 0.00668521 0.00810528 0.03471845 0.01039865 0.02183966 0.00162528 0.01225021 0.07460144 0.02087477 0.00675453 
0.00946151 0.02034139 0.00254990 0.00260114 0.00598764 0.00143896 0.00664675 0.00823708 0.03433296 0.01036103 0.02185226 0.00162516 0.01218367 0.07326014 0.02052587 0.00636522 
0.00931443 0.02106853 0.00249707 0.00260880 0.00590093 0.00143211 0.00660716 0.00836478 0.03395581 0.01031646 0.02184323 0.00162514 0.01211895 0.07201541 0.02019060 0.00598845 
0.00916600 0.02181465 0.00245270 0.00261602 0.00581192 0.00142741 0.00656636 0.00848782 0.03358944 0.01026507 0.02181262 0.00162525 0.01205523 0.07087219 0.01987002 0.00562526 
0.00901704 0.02257629 0.00241720 0.00262271 0.00572059 0.00142490 0.00652430 0.00860567 0.03323622 0.01020699 0.02176060 0.00162551 0.01199172 0.06983490 0.01956512 0.00527657 
0.00886842 0.02334992 0.00239091 0.00262876 0.00562694 0.00142459 0.00648095 0.00871786 0.03289836 0.01014240 0.02168750 0.00162596 0.01192766 0.06890743 0.01927686 0.00494325 
0.00872105 0.02413197 0.00237415 0.00263408 0.00553098 0.00142650 0.00643629 0.00882397 0.03257797 0.01007151 0.02159375 0.00162664 0.01186231 0.06809315 0.01900612 0.00462605 
0.00857586 0.02491886 0.00236718 0.00263860 0.00543274 0.00143064 0.00639030 0.00892363 0.03227698 0.00999455 0.02147995 0.00162758 0.01179499 0.06739486 0.01875374 0.00432566 
0.00843383 0.02570700 0.00237021 0.00264223 0.00533228 0.00143702 0.00634299 0.00901652 0.03199719 0.00991180 0.02134677 0.00162880 0.01172504 0.06681486 0.01852052 0.00404263 
0.00829595 0.02649284 0.00238339 0.00264491 0.00522965 0.00144561 0.00629438 0.00910239 0.03174022 0.00982356 0.02119502 0.00163034 0.01165189 0.06635487 0.01830718 0.00377747 
0.00816326 0.02727286 0.00240683 0.00264658 0.00512495 0.00145641 0.00624453 0.00918104 0.03150748 0.00973015 0.02102562 0.00163222 0.01157499 0.06601610 0.01811442 0.00353056 
0.00803678 0.02804363 0.00244058 0.00264718 0.00501828 0.00146939 0.00619348 0.00925234 0.03130025 0.00963194 0.02083957 0.00163447 0.01149389 0.06579921 0.01794287 0.00330217 
0.00791758 0.02880181 0.00248463 0.00264668 0.00490976 0.00148452 0.00614131 0.00931620 0.03111957 0.00952930 0.02063799 0.00163710 0.01140819 0.06570438 0.01779313 0.00309252 
0.00780673 0.02954416 0.00253891 0.00264504 0.00479953 0.00150174 0.00608812 0.00937260 0.03096630 0.00942264 0.02042205 0.00164015 0.01131757 0.06573123 0.01766573 0.00290170 
0.00770530 0.03026759 0.00260331 0.00264225 0.00468775 0.00152102 0.00603403 0.00942159 0.03084110 0.00931237 0.02019301 0.00164363 0.01122179 0.06587892 0.01756118 0.00272971 
0.00761438 0.03096915 0.00267765 0.00263830 0.00457460 0.00154230 0.00597916 0.00946324 0.03074441 0.00919895 0.01995221 0.00164755 0.01112069 0.06614611 0.01747992 0.00257647 
0.00753503 0.03164609 0.00276168 0.00263317 0.00446027 0.00156550 0.00592366 0.00949772 0.03067650 0.00908284 0.01970101 0.00165193 0.01101419 0.06653103 0.01742238 0.00244180 
0.00746832 0.03229582 0.00285511 0.00262689 0.00434498 0.00159055 0.00586769 0.00952522 0.03063741 0.00896450 0.01944084 0.00165678 0.01090231 0.06703143 0.01738890 0.00232545 
0.00741530 0.03291598 0.00295761 0.00261948 0.00422894 0.00161738 0.00581143 0.00954600 0.03062699 0.00884443 0.01917316 0.00166210 0.01078513 0.06764466 0.01737981 0.00222708 
0.00737700 0.03350442 0.00306875 0.00261095 0.00411241 0.00164589 0.00575508 0.00956035 0.03064491 0.00872311 0.01889945 0.00166791 0.01066286 0.06836766 0.01739539 0.00214626 
0.00735442 0.03405926 0.00318809 0.00260135 0.00399563 0.00167599 0.00569884 0.00956863 0.03069065 0.00860105 0.01862122 0.00167419 0.01053576 0.06919700 0.01743586 0.00208251 
0.00734853 0.03457883 0.00331512 0.00259074 0.00387889 0.00170758 0.00564293 0.00957121 0.03076348 0.00847875 0.01833997 0.00168095 0.01040418 0.07012887 0.01750139 0.00203527 
0.00736027 0.03506176 0.00344929 0.00257916 0.00376246 0.00174054 0.00558757 0.00956854 0.03086256 0.00835670 0.01805721 0.00168818 0.01026858 0.07115915 0.01759213 0.00200391 
0.00739051 0.03550694 0.00359000 0.00256667 0.00364663 0.00177477 0.00553300 0.00956108 0.03098684 0.00823541 0.01777443 0.00169588 0.01012948 0.07228341 0.01770814 0.00198777 
0.00744010 0.03591353 0.00373659 0.00255337 0.00353172 0.00181014 0.00547946 0.00954932 0.03113515 0.00811536 0.01749309 0.00170402 0.00998749 0.07349693 0.01784947 0.00198611 
0.00750981 0.03628100 0.00388839 0.00253931 0.00341804 0.00184652 0.00542721 0.00953378 0.03130619 0.00799705 0.01721463 0.00171260 0.00984328 0.07479471 0.01801607 0.00199816 
0.00760037 0.03660909 0.00404469 0.00252459 0.00330591 0.00188379 0.00537648 0.00951501 0.03149851 0.00788092 0.01694046 0.00172159 0.00969763 0.07617154 0.01820786 0.00202311 
0.00771243 0.03689785 0.00420473 0.00250930 0.00319567 0.00192182 0.00532755 0.00949358 0.03171058 0.00776744 0.01667191 0.00173097 0.00955134 0.07762199 0.01842469 0.00206010 
0.00784656 0.03714763 0.00436772 0.00249354 0.00308766 0.00196046 0.00528066 0.00947007 0.03194078 0.00765705 0.01641030 0.00174072 0.00940530 0.07914043 0.01866635 0.00210826 
0.00800325 0.03735904 0.00453288 0.00247741 0.00298221 0.00199957 0.00523607 0.00944506 0.03218742 0.00755015 0.01615684 0.00175081 0.00926045 0.08072107 0.01893255 0.00216671 
0.00818294 0.03753302 0.00469937 0.00246100 0.00287968 0.00203902 0.00519402 0.00941915 0.03244872 0.00744713 0.01591272 0.00176120 0.00911776 0.08235798 0.01922295 0.00223452 
0.00838594 0.03767077 0.00486636 0.00244443 0.00278042 0.00207864 0.00515476 0.00939294 0.03272291 0.00734837 0.01567901 0.00177186 0.00897828 0.08404511 0.01953709 0.00231077 
0.00861248 0.03777377 0.00503301 0.00242779 0.00268478 0.00211831 0.00511853 0.00936702 0.03300815 0.00725420 0.01545672 0.00178276 0.00884305 0.08577629 0.01987448 0.00239456 
0.00886270 0.03784376 0.00519845 0.00241121 0.00259311 0.00215786 0.00508555 0.00934197 0.03330263 0.00716492 0.01524679 0.00179386 0.00871316 0.08754530 0.02023453 0.00248495 
0.00913665 0.03788275 0.00536183 0.00239478 0.00250575 0.00219714 0.00505605 0.00931837 0.03360453 0.00708081 0.01505005 0.00180511 0.00858972 0.08934584 0.02061654 0.00258103 
0.00943424 0.03789297 0.00552231 0.00237861 0.00242307 0.00223602 0.00503024 0.00929677 0.03391206 0.00700210 0.01486724 0.00181648 0.00847383 0.09117159 0.02101974 0.00268191 
0.00975532 0.03787690 0.00567905 0.00236280 0.00234539 0.00227434 0.00500831 0.00927772 0.03422349 0.00692902 0.01469901 0.00182791 0.00836661 0.09301620 0.02144328 0.00278670 
0.01009959 0.03783721 0.00583121 0.00234746 0.00227306 0.00231195 0.00499045 0.00926171 0.03453713 0.00686173 0.01454593 0.00183937 0.00826917 0.09487331 0.02188620 0.00289455 
0.01046666 0.03777676 0.00597800 0.00233267 0.00220642 0.00234870 0.00497682 0.00924923 0.03485138 0.00680036 0.01440843 0.00185080 0.00818258 0.09673662 0.02234742 0.00300461 
0.01085603 0.03769859 0.00611863 0.00231853 0.00214578 0.00238447 0.00496758 0.00924073 0.03516472 0.00674501 0.01428689 0.00186217 0.00810790 0.09859983 0.02282580 0.00311610 
0.01126707 0.03760588 0.00625235 0.00230512 0.00209146 0.00241910 0.00496286 0.00923662 0.03547576 0.00669575 0.01418155 0.00187342 0.00804617 0.10045671 0.02332009 0.00322823 
0.01169907 0.03750195 0.00637843 0.00229253 0.00204376 0.00245246 0.00496279 0.00923729 0.03578320 0.00665259 0.01409258 0.00188450 0.00799836 0.10230111 0.02382891 0.00334029 
0.01215118 0.03739020 0.00649619 0.00228082 0.00200297 0.00248441 0.00496745 0.00924306 0.03608589 0.00661553 0.01402003 0.00189538 0.00796541 0.10412696 0.02435081 0.00345158 
0.01262246 0.03727414 0.00660500 0.00227006 0.00196937 0.00251485 0.00497694 0.00925424 0.03638280 0.00658452 0.01396388 0.00190601 0.00794817 0.10592832 0.02488424 0.00356144 
0.01311183 0.03715729 0.00670425 0.00226031 0.00194323 0.00254363 0.00499131 0.00927106 0.03667306 0.00655947 0.01392399 0.00191633 0.00794746 0.10769936 0.02542753 0.00366929 
0.01361814 0.03704323 0.00679340 0.00225161 0.00192479 0.00257065 0.00501062 0.00929373 0.03695596 0.00654027 0.01390016 0.00192632 0.00796400 0.10943439 0.02597894 0.00377456 
0.01414012 0.03693554 0.00687197 0.00224400 0.00191429 0.00259580 0.00503489 0.00932239 0.03723095 0.00652676 0.01389207 0.00193592 0.00799844 0.11112790 0.02653664 0.00387673 
0.01467640 0.03683774 0.00693950 0.00223752 0.00191193 0.00261898 0.00506412 0.00935715 0.03749765 0.00651878 0.01389936 0.00194511 0.00805132 0.11277456 0.02709868 0.00397535 
0.01522553 0.03675334 0.00699564 0.00223218 0.00191790 0.00264009 0.00509831 0.00939806 0.03775586 0.00651610 0.01392156 0.00195384 0.00812312 0.11436921 0.02766308 0.00406999 
0.01578595 0.03668574 0.00704005 0.00222799 0.00193238 0.00265905 0.00513743 0.00944512 0.03800554 0.00651849 0.01395814 0.00196209 0.00821419 0.11590693 0.02822775 0.00416030 
0.01635604 0.03663824 0.00707248 0.00222496 0.00195551 0.00267579 0.00518143 0.00949827 0.03824683 0.00652569 0.01400850 0.00196982 0.00832479 0.11738302 0.02879054 0.00424594 
0.01693408 0.03661402 0.00709276 0.00222309 0.00198743 0.00269022 0.00523024 0.00955742 0.03848004 0.00653743 0.01407198 0.00197701 0.00845508 0.11879303 0.02934927 0.00432665 
0.01751831 0.03661607 0.00710077 0.00222234 0.00202822 0.00270231 0.00528379 0.00962240 0.03870566 0.00655339 0.01414787 0.00198363 0.00860508 0.12013278 0.02990167 0.00440219 
0.01810687 0.03664725 0.00709644 0.00222270 0.00207797 0.00271199 0.00534197 0.00969302 0.03892433 0.00657327 0.01423541 0.00198968 0.00877473 0.12139838 0.03044547 0.00447238 
0.01869787 0.03671016 0.00707979 0.00222412 0.00213672 0.00271922 0.00540469 0.00976902 0.03913686 0.00659674 0.01433379 0.00199512 0.00896384 0.12258621 0.03097836 0.00453708 
0.01928938 0.03680721 0.00705092 0.00222657 0.00220450 0.00272398 0.00547181 0.00985011 0.03934419 0.00662346 0.01444218 0.00199996 0.00917210 0.12369300 0.03149801 0.00459619 
0.01987941 0.03694054 0.00700997 0.00223000 0.00228129 0.00272626 0.00554319 0.00993594 0.03954744 0.00665307 0.01455970 0.00200419 0.00939908 0.12471579 0.03200210 0.00464964 
0.02046597 0.03711203 0.00695717 0.00223433 0.00236706 0.00272603 0.00561868 0.01002614 0.03974782 0.00668524 0.01468548 0.00200781 0.00964426 0.12565198 0.03248831 0.00469741 
0.02104704 0.03732329 0.00689279 0.00223951 0.00246174 0.00272330 0.00569812 0.01012027 0.03994668 0.00671962 0.01481860 0.00201082 0.00990697 0.12649934 0.03295437 0.00473951 
0.02162058 0.03757560 0.00681721 0.00224545 0.00256523 0.00271809 0.00578134 0.01021788 0.04014547 0.00675586 0.01495815 0.00201323 0.01018647 0.12725599 0.03339803 0.00477597 
0.02218457 0.03786994 0.00673082 0.00225208 0.00267740 0.00271042 0.00586815 0.01031846 0.04034573 0.00679361 0.01510323 0.00201505 0.01048186 0.12792047 0.03381709 0.00480686 
0.02273701 0.03820696 0.00663410 0.00225932 0.00279809 0.00270032 0.00595837 0.01042150 0.04054908 0.00683255 0.01525292 0.00201629 0.01079220 0.12849170 0.03420945 0.00483228 
0.02327590 0.03858698 0.00652760 0.00226706 0.00292711 0.00268783 0.00605180 0.01052644 0.04075719 0.00687237 0.01540634 0.00201699 0.01111639 0.12896904 0.03457306 0.00485234 
0.02379930 0.03900998 0.00641190 0.00227522 0.00306423 0.00267302 0.00614823 0.01063271 0.04097176 0.00691276 0.01556260 0.00201716 0.01145326 0.12935223 0.03490599 0.00486718 
0.02430530 0.03947556 0.00628764 0.00228370 0.00320918 0.00265594 0.00624746 0.01073970 0.04119454 0.00695343 0.01572084 0.00201683 0.01180158 0.12964147 0.03520642 0.00487695 
0.02479205 0.03998301 0.00615551 0.00229239 0.00336167 0.00263667 0.00634927 0.01084679 0.04142727 0.00699412 0.01588026 0.00201604 0.01215999 0.12983740 0.03547265 0.00488181 
0.02525777 0.04053123 0.00601624 0.00230120 0.00352138 0.00261529 0.00645345 0.01095338 0.04167166 0.00703459 0.01604006 0.00201481 0.01252708 0.12994107 0.03570314 0.00488196 
0.02570077 0.04111880 0.00587062 0.00231002 0.00368795 0.00259190 0.00655978 0.01105881 0.04192942 0.00707463 0.01619948 0.00201320 0.01290139 0.12995398 0.03589649 0.00487757 
0.02611942 0.04174394 0.00571944 0.00231875 0.00386098 0.00256660 0.00666805 0.01116246 0.04220217 0.00711404 0.01635783 0.00201123 0.01328136 0.12987808 0.03605146 0.00486884 
0.02651221 0.04240452 0.00556354 0.00232729 0.00404006 0.00253949 0.00677803 0.01126368 0.04249147 0.00715267 0.01651445 0.00200896 0.01366543 0.12971574 0.03616702 0.00485598 
0.02687773 0.04309809 0.00540380 0.00233554 0.00422472 0.00251070 0.00688951 0.01136184 0.04279880 0.00719040 0.01666874 0.00200643 0.01405196 0.12946976 0.03624230 0.00483918 
0.02721468 0.04382189 0.00524109 0.00234339 0.00441448 0.00248035 0.00700226 0.01145631 0.04312552 0.00722712 0.01682014 0.00200368 0.01443930 0.12914336 0.03627664 0.00481865 
0.02752190 0.04457285 0.00507633 0.00235076 0.00460882 0.00244857 0.00711607 0.01154648 0.04347286 0.00726277 0.01696817 0.00200076 0.01482578 0.12874016 0.03626959 0.00479459 
0.02779836 0.04534760 0.00491041 0.00235756 0.00480721 0.00241549 0.00723074 0.01163175 0.04384190 0.00729731 0.01711239 0.00199773 0.01520972 0.12826417 0.03622089 0.00476719 
0.02804315 0.04614251 0.00474425 0.00236370 0.00500906 0.00238126 0.00734604 0.01171155 0.04423356 0.00733076 0.01725244 0.00199462 0.01558942 0.12771976 0.03613054 0.00473666 
0.02825553 0.04695369 0.00457878 0.00236909 0.00521379 0.00234603 0.00746177 0.01178532 0.04464859 0.00736316 0.01738800 0.00199150 0.01596321 0.12711169 0.03599873 0.00470316 
0.02843490 0.04777705 0.00441489 0.00237367 0.00542077 0.00230994 0.00757773 0.01185252 0.04508754 0.00739456 0.01751884 0.00198839 0.01632944 0.12644500 0.03582589 0.00466690 
0.02858083 0.04860825 0.00425348 0.00237736 0.00562936 0.00227315 0.00769372 0.01191268 0.04555075 0.00742507 0.01764477 0.00198536 0.01668648 0.12572505 0.03561267 0.00462803 
0.02869303 0.04944281 0.00409544 0.00238011 0.00583889 0.00223580 0.00780955 0.01196532 0.04603835 0.00745483 0.01776569 0.00198244 0.01703275 0.12495747 0.03535994 0.00458673 
0.02877139 0.05027608 0.00394162 0.00238185 0.00604869 0.00219807 0.00792502 0.01201001 0.04655024 0.00748401 0.01788152 0.00197968 0.01736670 0.12414812 0.03506881 0.00454315 
0.02881597 0.05110329 0.00379284 0.00238254 0.00625806 0.00216010 0.00803995 0.01204638 0.04708610 0.00751279 0.01799228 0.00197711 0.01768685 0.12330307 0.03474060 0.00449744 
0.02882699 0.05191956 0.00364991 0.00238214 0.00646629 0.00212205 0.00815416 0.01207407 0.04764533 0.00754141 0.01809804 0.00197477 0.01799180 0.12242854 0.03437682 0.00444974 
0.02880483 0.05271998 0.00351358 0.00238062 0.00667265 0.00208408 0.00826749 0.01209278 0.04822712 0.00757011 0.01819890 0.00197269 0.01828021 0.12153087 0.03397921 0.00440018 
0.02875007 0.05349957 0.00338457 0.00237795 0.00687643 0.00204633 0.00837974 0.01210225 0.04883039 0.00759917 0.01829506 0.00197090 0.01855083 0.12061651 0.03354969 0.00434890 
0.02866342 0.05425337 0.00326356 0.00237411 0.00707688 0.00200896 0.00849077 0.01210228 0.04945381 0.00762887 0.01838673 0.00196942 0.01880249 0.11969192 0.03309038 0.00429601 
0.02854577 0.05497643 0.00315116 0.00236911 0.00727328 0.00197211 0.00860042 0.01209270 0.05009582 0.00765954 0.01847419 0.00196828 0.01903414 0.11876357 0.03260355 0.00424163 
0.02839817 0.05566389 0.00304794 0.00236293 0.00746488 0.00193593 0.00870853 0.01207341 0.05075459 0.00769151 0.01855775 0.00196748 0.01924481 0.11783787 0.03209164 0.00418587 
0.02822183 0.05631095 0.00295441 0.00235559 0.00765097 0.00190056 0.00881494 0.01204433 0.05142805 0.00772510 0.01863777 0.00196703 0.01943367 0.11692112 0.03155723 0.00412884 
0.02801809 0.05691295 0.00287102 0.00234710 0.00783081 0.00186611 0.00891952 0.01200546 0.05211392 0.00776068 0.01871464 0.00196695 0.01959998 0.11601951 0.03100301 0.00407066 
0.02778846 0.05746540 0.00279815 0.00233748 0.00800370 0.00183272 0.00902213 0.01195684 0.05280966 0.00779861 0.01878878 0.00196723 0.01974313 0.11513901 0.03043180 0.00401142 
0.02753455 0.05796398 0.00273614 0.00232676 0.00816894 0.00180051 0.00912262 0.01189856 0.05351255 0.00783924 0.01886063 0.00196785 0.01986264 0.11428537 0.02984648 0.00395126 
0.02725814 0.05840457 0.00268523 0.00231498 0.00832586 0.00176957 0.00922086 0.01183075 0.05421966 0.00788294 0.01893066 0.00196882 0.01995815 0.11346404 0.02925004 0.00389027 
0.02696108 0.05878333 0.00264561 0.00230217 0.00847379 0.00174002 0.00931673 0.01175360 0.05492786 0.00793006 0.01899935 0.00197011 0.02002943 0.11268016 0.02864547 0.00382859 
0.02664536 0.05909666 0.00261739 0.00228840 0.00861211 0.00171195 0.00941009 0.01166735 0.05563386 0.00798097 0.01906719 0.00197171 0.02007639 0.11193851 0.02803583 0.00376635 
0.02631306 0.05934127 0.00260062 0.00227370 0.00874021 0.00168542 0.00950083 0.01157227 0.05633424 0.00803599 0.01913468 0.00197357 0.02009905 0.11124344 0.02742416 0.00370369 
0.02596632 0.05951420 0.00259528 0.00225814 0.00885753 0.00166053 0.00958881 0.01146870 0.05702544 0.00809547 0.01920231 0.00197568 0.02009757 0.11059887 0.02681350 0.00364076 
0.02560737 0.05961282 0.00260128 0.00224178 0.00896352 0.00163733 0.00967393 0.01135699 0.05770377 0.00815971 0.01927057 0.00197799 0.02007227 0.11000826 0.02620686 0.00357772 
0.02523850 0.05963488 0.00261845 0.00222468 0.00905769 0.00161586 0.00975605 0.01123756 0.05836550 0.00822900 0.01933995 0.00198046 0.02002354 0.10947453 0.02560717 0.00351476 
0.02486204 0.05957849 0.00264655 0.00220692 0.00913958 0.00159618 0.00983508 0.01111085 0.05900681 0.00830361 0.01941091 0.00198305 0.01995195 0.10900008 0.02501731 0.00345206 
0.02448034 0.05944218 0.00268530 0.00218856 0.00920877 0.00157831 0.00991088 0.01097735 0.05962386 0.00838378 0.01948389 0.00198571 0.01985816 0.10858676 0.02444006 0.00338986 
0.02409579 0.05922489 0.00273434 0.00216967 0.00926491 0.00156227 0.00998335 0.01083756 0.06021279 0.00846974 0.01955932 0.00198839 0.01974295 0.10823582 0.02387807 0.00332837 
0.02371074 0.05892600 0.00279322 0.00215034 0.00930767 0.00154806 0.01005237 0.01069203 0.06076979 0.00856165 0.01963760 0.00199103 0.01960724 0.10794795 0.02333386 0.00326785 
0.02332758 0.05854529 0.00286149 0.00213062 0.00933679 0.00153570 0.01011782 0.01054133 0.06129106 0.00865967 0.01971907 0.00199357 0.01945203 0.10772320 0.02280982 0.00320858 
0.02294862 0.05808303 0.00293859 0.00211060 0.00935207 0.00152515 0.01017961 0.01038605 0.06177290 0.00876391 0.01980406 0.00199597 0.01927844 0.10756105 0.02230815 0.00315084 
0.02257616 0.05753991 0.00302393 0.00209036 0.00935334 0.00151640 0.01023761 0.01022681 0.06221170 0.00887445 0.01989287 0.00199815 0.01908767 0.10746033 0.02183088 0.00309496 
0.02221245 0.05691707 0.00311688 0.00206995 0.00934051 0.00150941 0.01029171 0.01006424 0.06260399 0.00899131 0.01998573 0.00200006 0.01888103 0.10741932 0.02137984 0.00304127 
0.02185963 0.05621613 0.00321674 0.00204946 0.00931355 0.00150414 0.01034180 0.00989897 0.06294645 0.00911450 0.02008285 0.00200164 0.01865988 0.10743565 0.02095666 0.00299013 
0.02151979 0.05543914 0.00332281 0.00202895 0.00927247 0.00150053 0.01038777 0.00973166 0.06323595 0.00924395 0.02018436 0.00200283 0.01842570 0.10750641 0.02056274 0.00294193 
0.02119490 0.05458857 0.00343430 0.00200849 0.00921738 0.00149852 0.01042950 0.00956298 0.06346955 0.00937958 0.02029038 0.00200358 0.01817998 0.10762813 0.02019927 0.00289708 
0.02088685 0.05366738 0.00355045 0.00198814 0.00914841 0.00149804 0.01046690 0.00939358 0.06364459 0.00952124 0.02040096 0.00200383 0.01792432 0.10779678 0.01986721 0.00285599 
0.02059737 0.05267891 0.00367042 0.00196795 0.00906578 0.00149901 0.01049984 0.00922412 0.06375861 0.00966876 0.02051609 0.00200352 0.01766032 0.10800785 0.01956726 0.00281911 
0.02032808 0.05162694 0.00379339 0.00194800 0.00896977 0.00150133 0.01052822 0.00905527 0.06380948 0.00982190 0.02063572 0.00200262 0.01738965 0.10825635 0.01929991 0.00278690 
0.02008044 0.05051564 0.00391851 0.00192832 0.00886070 0.00150492 0.01055193 0.00888767 0.06379534 0.00998039 0.02075976 0.00200107 0.01711399 0.10853686 0.01906538 0.00275985 
0.01985577 0.04934955 0.00404491 0.00190897 0.00873899 0.00150968 0.01057087 0.00872197 0.06371466 0.01014391 0.02088804 0.00199884 0.01683506 0.10884357 0.01886369 0.00273844 
0.01965522 0.04813358 0.00417173 0.00188998 0.00860508 0.00151548 0.01058494 0.00855878 0.06356625 0.01031210 0.02102035 0.00199589 0.01655456 0.10917032 0.01869459 0.00272318 
0.01947976 0.04687300 0.00429812 0.00187141 0.00845950 0.00152224 0.01059403 0.00839872 0.06334928 0.01048455 0.02115645 0.00199219 0.01627420 0.10951066 0.01855761 0.00271459 
0.01933019 0.04557337 0.00442322 0.00185327 0.00830283 0.00152982 0.01059806 0.00824239 0.06306325 0.01066083 0.02129601 0.00198772 0.01599570 0.10985791 0.01845206 0.00271319 
0.01920715 0.04424055 0.00454619 0.00183560 0.00813569 0.00153811 0.01059694 0.00809033 0.06270808 0.01084044 0.02143869 0.00198246 0.01572072 0.11020516 0.01837704 0.00271950 
0.01911105 0.04288067 0.00466621 0.00181843 0.00795878 0.00154700 0.01059057 0.00794311 0.06228404 0.01102286 0.02158410 0.00197639 0.01545092 0.11054542 0.01833141 0.00273407 
0.01904214 0.04150009 0.00478248 0.00180177 0.00777282 0.00155635 0.01057888 0.00780122 0.06179181 0.01120754 0.02173178 0.00196953 0.01518791 0.11087160 0.01831388 0.00275740 
0.01900047 0.04010538 0.00489423 0.00178563 0.00757862 0.00156604 0.01056180 0.00766517 0.06123245 0.01139387 0.02188126 0.00196187 0.01493325 0.11117659 0.01832295 0.00279003 
0.01898590 0.03870328 0.00500073 0.00177004 0.00737699 0.00157596 0.01053927 0.00753539 0.06060741 0.01158124 0.02203203 0.00195342 0.01468845 0.11145334 0.01835697 0.00283248 
0.01899810 0.03730067 0.00510128 0.00175499 0.00716881 0.00158598 0.01051123 0.00741232 0.05991855 0.01176899 0.02218353 0.00194420 0.01445494 0.11169491 0.01841413 0.00288523 
0.01903655 0.03590454 0.00519523 0.00174050 0.00695499 0.00159598 0.01047764 0.00729632 0.05916809 0.01195645 0.02233519 0.00193424 0.01423408 0.11189451 0.01849249 0.00294877 
0.01910054 0.03452197 0.00528197 0.00172654 0.00673647 0.00160585 0.01043847 0.00718776 0.05835863 0.01214292 0.02248640 0.00192358 0.01402716 0.11204560 0.01858999 0.00302357 
0.01918918 0.03316006 0.00536095 0.00171313 0.00651422 0.00161546 0.01039370 0.00708693 0.05749317 0.01232769 0.02263654 0.00191225 0.01383536 0.11214189 0.01870447 0.00311007 
0.01930142 0.03182591 0.00543166 0.00170025 0.00628925 0.00162472 0.01034331 0.00699411 0.05657501 0.01251001 0.02278497 0.00190030 0.01365979 0.11217745 0.01883370 0.00320868 
0.01943602 0.03052660 0.00549366 0.00168790 0.00606255 0.00163351 0.01028732 0.00690953 0.05560785 0.01268916 0.02293103 0.00188779 0.01350143 0.11214676 0.01897539 0.00331978 
0.01959161 0.02926915 0.00554657 0.00167605 0.00583518 0.00164175 0.01022576 0.00683338 0.05459565 0.01286437 0.02307407 0.00187479 0.01336117 0.11204471 0.01912721 0.00344371 
0.01976663 0.02806045 0.00559006 0.00166469 0.00560817 0.00164932 0.01015865 0.00676579 0.05354273 0.01303489 0.02321341 0.00186136 0.01323977 0.11186669 0.01928681 0.00358078 
0.01995941 0.02690727 0.00562389 0.00165380 0.00538256 0.00165616 0.01008605 0.00670688 0.05245365 0.01319997 0.02334839 0.00184758 0.01313790 0.11160864 0.01945184 0.00373125 
0.02016816 0.02581621 0.00564787 0.00164337 0.00515942 0.00166219 0.01000804 0.00665671 0.05133323 0.01335885 0.02347836 0.00183353 0.01305609 0.11126707 0.01961998 0.00389533 
0.02039094 0.02479365 0.00566187 0.00163337 0.00493977 0.00166733 0.00992471 0.00661531 0.05018655 0.01351081 0.02360266 0.00181930 0.01299475 0.11083907 0.01978894 0.00407318 
0.02062574 0.02384573 0.00566585 0.00162379 0.00472465 0.00167153 0.00983617 0.00658266 0.04901885 0.01365509 0.02372066 0.00180498 0.01295416 0.11032242 0.01995650 0.00426492 
0.02087045 0.02297832 0.00565981 0.00161460 0.00451509 0.00167472 0.00974256 0.00655869 0.04783558 0.01379100 0.02383174 0.00179066 0.01293447 0.10971552 0.02012051 0.00447060 
0.02112286 0.02219698 0.00564385 0.00160577 0.00431207 0.00167688 0.00964402 0.00654332 0.04664230 0.01391784 0.02393532 0.00177644 0.01293573 0.10901748 0.02027891 0.00469021 
0.02138075 0.02150695 0.00561811 0.00159729 0.00411656 0.00167796 0.00954073 0.00653640 0.04544470 0.01403493 0.02403083 0.00176242 0.01295783 0.10822812 0.02042977 0.00492370 
0.02164183 0.02091309 0.00558282 0.00158915 0.00392951 0.00167795 0.00943289 0.00653777 0.04424855 0.01414164 0.02411773 0.00174870 0.01300054 0.10734795 0.02057127 0.00517093 
0.02190376 0.02041987 0.00553826 0.00158131 0.00375182 0.00167683 0.00932071 0.00654721 0.04305965 0.01423735 0.02419553 0.00173539 0.01306351 0.10637821 0.02070173 0.00543170 
0.02216422 0.02003136 0.00548478 0.00157376 0.00358435 0.00167460 0.00920442 0.00656449 0.04188383 0.01432150 0.02426376 0.00172259 0.01314628 0.10532084 0.02081964 0.00570576 
0.02242089 0.01975117 0.00542278 0.00156648 0.00342792 0.00167126 0.00908430 0.00658933 0.04072687 0.01439354 0.02432200 0.00171040 0.01324823 0.10417850 0.02092364 0.00599278 
0.02267146 0.01958248 0.00535273 0.00155947 0.00328329 0.00166684 0.00896060 0.00662141 0.03959451 0.01445299 0.02436989 0.00169892 0.01336867 0.10295454 0.02101253 0.00629236 
0.02291365 0.01952797 0.00527515 0.00155271 0.00315118 0.00166135 0.00883365 0.00666042 0.03849241 0.01449939 0.02440708 0.00168825 0.01350677 0.10165299 0.02108533 0.00660405 
0.02314524 0.01958982 0.00519062 0.00154618 0.00303225 0.00165484 0.00870375 0.00670598 0.03742607 0.01453235 0.02443331 0.00167849 0.01366159 0.10027852 0.02114122 0.00692730 
0.02336408 0.01976974 0.00509974 0.00153988 0.00292708 0.00164734 0.00857125 0.00675771 0.03640087 0.01455152 0.02444835 0.00166972 0.01383211 0.09883644 0.02117957 0.00726153 
0.02356809 0.02006889 0.00500319 0.00153381 0.00283622 0.00163893 0.00843650 0.00681521 0.03542197 0.01455660 0.02445203 0.00166204 0.01401719 0.09733264 0.02119997 0.00760607 
0.02375529 0.02048790 0.00490167 0.00152797 0.00276012 0.00162964 0.00829987 0.00687803 0.03449433 0.01454737 0.02444421 0.00165552 0.01421562 0.09577357 0.02120219 0.00796019 
0.02392382 0.02102690 0.00479590 0.00152234 0.00269918 0.00161957 0.00816177 0.00694575 0.03362264 0.01452364 0.02442485 0.00165023 0.01442610 0.09416617 0.02118620 0.00832310 
0.02407193 0.02168544 0.00468666 0.00151695 0.00265371 0.00160879 0.00802258 0.00701789 0.03281131 0.01448529 0.02439394 0.00164626 0.01464726 0.09251787 0.02115216 0.00869395 
0.02419801 0.02246258 0.00457473 0.00151178 0.00262397 0.00159738 0.00788273 0.00709398 0.03206447 0.01443227 0.02435151 0.00164365 0.01487765 0.09083650 0.02110043 0.00907183 
0.02430058 0.02335682 0.00446092 0.00150686 0.00261013 0.00158543 0.00774265 0.00717354 0.03138589 0.01436459 0.02429769 0.00164245 0.01511579 0.08913024 0.02103157 0.00945579 
0.02437834 0.02436613 0.00434604 0.00150219 0.00261228 0.00157305 0.00760276 0.00725608 0.03077900 0.01428232 0.02423264 0.00164272 0.01536014 0.08740758 0.02094630 0.00984482 
0.02443015 0.02548796 0.00423093 0.00149779 0.00263045 0.00156034 0.00746353 0.00734111 0.03024683 0.01418560 0.02415656 0.00164449 0.01560910 0.08567728 0.02084550 0.01023785 
0.02445502 0.02671928 0.00411640 0.00149366 0.00266457 0.00154740 0.00732539 0.00742812 0.02979205 0.01407463 0.02406975 0.00164777 0.01586107 0.08394824 0.02073026 0.01063379 
0.02445218 0.02805654 0.00400329 0.00148984 0.00271451 0.00153435 0.00718880 0.00751662 0.02941689 0.01394967 0.02397252 0.00165260 0.01611443 0.08222950 0.02060177 0.01103150 
0.02442102 0.02949571 0.00389241 0.00148633 0.00278007 0.00152130 0.00705421 0.00760611 0.02912318 0.01381106 0.02386525 0.00165896 0.01636753 0.08053018 0.02046139 0.01142982 
0.02436111 0.03103231 0.00378455 0.00148316 0.00286096 0.00150837 0.00692207 0.00769611 0.02891227 0.01365920 0.02374838 0.00166686 0.01661873 0.07885937 0.02031061 0.01182755 
0.02427225 0.03266142 0.00368051 0.00148036 0.00295682 0.00149568 0.00679282 0.00778614 0.02878511 0.01349455 0.02362239 0.00167629 0.01686640 0.07722610 0.02015101 0.01222348 
0.02415441 0.03437772 0.00358103 0.00147794 0.00306724 0.00148333 0.00666692 0.00787573 0.02874217 0.01331762 0.02348780 0.00168720 0.01710893 0.07563926 0.01998429 0.01261637 
0.02400775 0.03617549 0.00348684 0.00147593 0.00319171 0.00147146 0.00654479 0.00796441 0.02878348 0.01312901 0.02334517 0.00169958 0.01734475 0.07410757 0.01981223 0.01300499 
0.02383266 0.03804866 0.00339862 0.00147435 0.00332968 0.00146017 0.00642684 0.00805176 0.02890858 0.01292935 0.02319512 0.00171338 0.01757230 0.07263948 0.01963666 0.01338809 
0.02362969 0.03999083 0.00331702 0.00147324 0.00348054 0.00144958 0.00631348 0.00813734 0.02911660 0.01271933 0.02303830 0.00172852 0.01779010 0.07124313 0.01945949 0.01376443 
0.02339959 0.04199532 0.00324265 0.00147261 0.00364360 0.00143981 0.00620511 0.00822075 0.02940618 0.01249970 0.02287539 0.00174497 0.01799670 0.06992629 0.01928264 0.01413278 
0.02314330 0.04405517 0.00317606 0.00147249 0.00381813 0.00143095 0.00610209 0.00830160 0.02977554 0.01227127 0.02270710 0.00176262 0.01819073 0.06869629 0.01910807 0.01449191 
0.02286195 0.04616323 0.00311775 0.00147290 0.00400336 0.00142311 0.00600476 0.00837954 0.03022245 0.01203487 0.02253417 0.00178142 0.01837090 0.06756003 0.01893772 0.01484063 
0.02255683 0.04831214 0.00306817 0.00147387 0.00419845 0.00141639 0.00591345 0.00845422 0.03074425 0.01179139 0.02235737 0.00180125 0.01853598 0.06652384 0.01877352 0.01517778 
0.02222939 0.05049441 0.00302770 0.00147541 0.00440255 0.00141088 0.00582847 0.00852534 0.03133791 0.01154175 0.02217749 0.00182202 0.01868485 0.06559351 0.01861738 0.01550220 
0.02188124 0.05270243 0.00299667 0.00147756 0.00461476 0.00140666 0.00575006 0.00859260 0.03199996 0.01128692 0.02199533 0.00184362 0.01881647 0.06477422 0.01847114 0.01581280 
0.02151416 0.05492855 0.00297534 0.00148031 0.00483414 0.00140382 0.00567849 0.00865577 0.03272659 0.01102788 0.02181171 0.00186595 0.01892992 0.06407050 0.01833661 0.01610853 
0.02113002 0.05716507 0.00296391 0.00148370 0.00505975 0.00140242 0.00561395 0.00871460 0.03351363 0.01076564 0.02162746 0.00188887 0.01902436 0.06348621 0.01821549 0.01638838 
0.02073084 0.05940433 0.00296250 0.00148774 0.00529062 0.00140252 0.00555662 0.00876889 0.03435659 0.01050124 0.02144342 0.00191227 0.01909909 0.06302450 0.01810939 0.01665140 
0.02031874 0.06163871 0.00297118 0.00149242 0.00552576 0.00140418 0.00550663 0.00881850 0.03525068 0.01023573 0.02126042 0.00193602 0.01915351 0.06268783 0.01801984 0.01689670 
0.01989595 0.06386069 0.00298993 0.00149777 0.00576419 0.00140743 0.00546410 0.00886327 0.03619081 0.00997015 0.02107929 0.00195998 0.01918714 0.06247789 0.01794822 0.01712344 
0.01946475 0.06606292 0.00301869 0.00150378 0.00600492 0.00141231 0.00542908 0.00890310 0.03717169 0.00970558 0.02090086 0.00198402 0.01919963 0.06239562 0.01789579 0.01733087 
0.01902752 0.06823817 0.00305731 0.00151046 0.00624695 0.00141885 0.00540160 0.00893793 0.03818778 0.00944308 0.02072597 0.00200800 0.01919076 0.06244122 0.01786369 0.01751829 
0.01858665 0.07037949 0.00310558 0.00151780 0.00648932 0.00142706 0.00538166 0.00896770 0.03923338 0.00918369 0.02055541 0.00203179 0.01916043 0.06261411 0.01785287 0.01768510 
0.01814460 0.07248013 0.00316323 0.00152580 0.00673107 0.00143694 0.00536920 0.00899241 0.04030261 0.00892846 0.02038997 0.00205526 0.01910865 0.06291297 0.01786416 0.01783075 
0.01770382 0.07453366 0.00322991 0.00153445 0.00697127 0.00144848 0.00536414 0.00901208 0.04138952 0.00867841 0.02023044 0.00207825 0.01903559 0.06333572 0.01789820 0.01795478 
0.01726679 0.07653396 0.00330523 0.00154373 0.00720899 0.00146166 0.00536634 0.00902675 0.04248803 0.00843454 0.02007755 0.00210065 0.01894152 0.06387955 0.01795547 0.01805683 
0.01683595 0.07847527 0.00338874 0.00155364 0.00744338 0.00147646 0.00537565 0.00903649 0.04359204 0.00819782 0.01993204 0.00212232 0.01882684 0.06454094 0.01803627 0.01813659 
0.01641371 0.08035219 0.00347991 0.00156414 0.00767358 0.00149283 0.00539185 0.00904142 0.04469543 0.00796919 0.01979460 0.00214314 0.01869209 0.06531566 0.01814072 0.01819386 
0.01600245 0.08215977 0.00357819 0.00157522 0.00789879 0.00151073 0.00541471 0.00904166 0.04579209 0.00774954 0.01966589 0.00216298 0.01853790 0.06619883 0.01826876 0.01822851 
0.01560448 0.08389345 0.00368297 0.00158685 0.00811827 0.00153009 0.00544396 0.00903737 0.04687599 0.00753972 0.01954653 0.00218173 0.01836504 0.06718491 0.01842017 0.01824051 
0.01522202 0.08554915 0.00379359 0.00159901 0.00833131 0.00155084 0.00547927 0.00902871 0.04794117 0.00734055 0.01943712 0.00219928 0.01817437 0.06826779 0.01859453 0.01822989 
0.01485721 0.08712325 0.00390936 0.00161165 0.00853725 0.00157291 0.00552032 0.00901591 0.04898180 0.00715276 0.01933819 0.00221552 0.01796685 0.06944077 0.01879124 0.01819678 
0.01451209 0.08861264 0.00402955 0.00162474 0.00873551 0.00159621 0.00556673 0.00899916 0.04999221 0.00697706 0.01925027 0.00223035 0.01774358 0.07069664 0.01900954 0.01814140 
0.01418856 0.09001468 0.00415341 0.00163825 0.00892554 0.00162063 0.00561809 0.00897871 0.05096691 0.00681406 0.01917381 0.00224370 0.01750570 0.07202772 0.01924850 0.01806404 
0.01388840 0.09132726 0.00428016 0.00165214 0.00910686 0.00164608 0.00567399 0.00895481 0.05190063 0.00666433 0.01910921 0.00225549 0.01725446 0.07342590 0.01950703 0.01796505 
0.01361324 0.09254878 0.00440899 0.00166635 0.00927907 0.00167244 0.00573397 0.00892772 0.05278837 0.00652838 0.01905684 0.00226564 0.01699119 0.07488269 0.01978387 0.01784488 
0.01336457 0.09367816 0.00453911 0.00168087 0.00944180 0.00169960 0.00579756 0.00889773 0.05362537 0.00640661 0.01901702 0.00227409 0.01671729 0.07638928 0.02007763 0.01770405 
0.01314370 0.09471483 0.00466970 0.00169562 0.00959479 0.00172741 0.00586427 0.00886512 0.05440720 0.00629938 0.01898999 0.00228081 0.01643421 0.07793659 0.02038678 0.01754314 
0.01295177 0.09565874 0.00479993 0.00171058 0.00973779 0.00175576 0.00593360 0.00883018 0.05512974 0.00620696 0.01897597 0.00228574 0.01614345 0.07951533 0.02070967 0.01736280 
0.01278974 0.09651034 0.00492899 0.00172569 0.00987067 0.00178451 0.00600503 0.00879321 0.05578923 0.00612954 0.01897511 0.00228886 0.01584656 0.08111606 0.02104451 0.01716374 
0.01265838 0.09727057 0.00505608 0.00174092 0.00999332 0.00181351 0.00607806 0.00875452 0.05638228 0.00606725 0.01898748 0.00229016 0.01554513 0.08272921 0.02138943 0.01694672 
0.01255829 0.09794087 0.00518041 0.00175620 0.01010572 0.00184262 0.00615214 0.00871440 0.05690587 0.00602010 0.01901313 0.00228962 0.01524076 0.08434520 0.02174247 0.01671257 
0.01248985 0.09852312 0.00530122 0.00177151 0.01020790 0.00187170 0.00622675 0.00867316 0.05735740 0.00598806 0.01905203 0.00228726 0.01493507 0.08595444 0.02210158 0.01646215 
0.01245326 0.09901964 0.00541776 0.00178678 0.01029995 0.00190060 0.00630138 0.00863108 0.05773467 0.00597101 0.01910409 0.00228309 0.01462969 0.08754743 0.02246464 0.01619638 
0.01244850 0.09943320 0.00552932 0.00180199 0.01038202 0.00192917 0.00637549 0.00858846 0.05803591 0.00596872 0.01916917 0.00227713 0.01432623 0.08911479 0.02282951 0.01591621 
0.01247540 0.09976692 0.00563524 0.00181709 0.01045432 0.00195726 0.00644858 0.00854557 0.05825980 0.00598093 0.01924707 0.00226943 0.01402630 0.09064731 0.02319398 0.01562262 
0.01253355 0.10002433 0.00573488 0.00183203 0.01051709 0.00198473 0.00652016 0.00850268 0.05840542 0.00600726 0.01933751 0.00226002 0.01373147 0.09213603 0.02355583 0.01531663 
0.01262236 0.10020926 0.00582766 0.00184679 0.01057065 0.00201142 0.00658974 0.00846005 0.05847234 0.00604729 0.01944017 0.00224897 0.01344328 0.09357226 0.02391286 0.01499927 
0.01274108 0.10032587 0.00591304 0.00186133 0.01061533 0.00203720 0.00665687 0.00841793 0.05846052 0.00610050 0.01955467 0.00223635 0.01316325 0.09494765 0.02426283 0.01467159 
0.01288875 0.10037855 0.00599054 0.00187561 0.01065152 0.00206193 0.00672112 0.00837652 0.05837039 0.00616632 0.01968055 0.00222223 0.01289281 0.09625422 0.02460356 0.01433468 
0.01306426 0.10037197 0.00605974 0.00188962 0.01067964 0.00208547 0.00678206 0.00833605 0.05820280 0.00624410 0.01981733 0.00220669 0.01263337 0.09748442 0.02493289 0.01398959 
0.01326631 0.10031094 0.00612026 0.00190331 0.01070014 0.00210769 0.00683933 0.00829670 0.05795904 0.00633314 0.01996443 0.00218984 0.01238623 0.09863116 0.02524872 0.01363743 
0.01349348 0.10020048 0.00617181 0.00191668 0.01071349 0.00212847 0.00689257 0.00825863 0.05764079 0.00643267 0.02012123 0.00217175 0.01215265 0.09968784 0.02554900 0.01327925 
0.01374418 0.10004569 0.00621414 0.00192970 0.01072020 0.00214770 0.00694147 0.00822200 0.05725014 0.00654188 0.02028707 0.00215255 0.01193380 0.10064839 0.02583176 0.01291615 
0.01401670 0.09985175 0.00624709 0.00194236 0.01072076 0.00216525 0.00698576 0.00818692 0.05678957 0.00665991 0.02046122 0.00213235 0.01173074 0.10150731 0.02609513 0.01254917 
0.01430922 0.09962389 0.00627054 0.00195466 0.01071571 0.00218104 0.00702519 0.00815350 0.05626193 0.00678583 0.02064289 0.00211126 0.01154447 0.10225970 0.02633734 0.01217938 
0.01461980 0.09936732 0.00628446 0.00196658 0.01070557 0.00219497 0.00705957 0.00812182 0.05567039 0.00691871 0.02083127 0.00208941 0.01137587 0.10290123 0.02655671 0.01180779 
0.01494642 0.09908722 0.00628888 0.00197812 0.01069087 0.00220695 0.00708875 0.00809193 0.05501847 0.00705757 0.02102547 0.00206692 0.01122572 0.10342822 0.02675169 0.01143542 
0.01528698 0.09878867 0.00628388 0.00198929 0.01067212 0.00221691 0.00711261 0.00806385 0.05430999 0.00720139 0.02122457 0.00204392 0.01109470 0.10383765 0.02692089 0.01106324 
0.01563932 0.09847666 0.00626964 0.00200009 0.01064985 0.00222479 0.00713109 0.00803760 0.05354904 0.00734916 0.02142762 0.00202055 0.01098337 0.10412710 0.02706302 0.01069220 
0.01600125 0.09815597 0.00624639 0.00201053 0.01062454 0.00223053 0.00714417 0.00801315 0.05273994 0.00749982 0.02163361 0.00199693 0.01089220 0.10429486 0.02717694 0.01032322 
0.01637054 0.09783124 0.00621441 0.00202063 0.01059667 0.00223410 0.00715187 0.00799047 0.05188727 0.00765234 0.02184151 0.00197320 0.01082152 0.10433984 0.02726169 0.00995718 
0.01674495 0.09750685 0.00617406 0.00203040 0.01056671 0.00223545 0.00715426 0.00796949 0.05099576 0.00780565 0.02205026 0.00194950 0.01077158 0.10426162 0.02731644 0.00959491 
0.01712225 0.09718692 0.00612575 0.00203985 0.01053507 0.00223458 0.00715147 0.00795012 0.05007031 0.00795872 0.02225875 0.00192595 0.01074248 0.10406044 0.02734052 0.00923721 
0.01750023 0.09687529 0.00606995 0.00204903 0.01050216 0.00223148 0.00714364 0.00793227 0.04911595 0.00811050 0.02246589 0.00190269 0.01073424 0.10373716 0.02733346 0.00888484 
0.01787672 0.09657548 0.00600718 0.00205794 0.01046833 0.00222614 0.00713099 0.00791579 0.04813780 0.00825997 0.02267052 0.00187984 0.01074676 0.10329327 0.02729490 0.00853850 
0.01824961 0.09629066 0.00593800 0.00206662 0.01043391 0.00221859 0.00711375 0.00790056 0.04714105 0.00840614 0.02287152 0.00185754 0.01077982 0.10273089 0.02722470 0.00819885 
0.01861686 0.09602366 0.00586304 0.00207510 0.01039919 0.00220885 0.00709223 0.00788642 0.04613091 0.00854804 0.02306772 0.00183590 0.01083312 0.10205269 0.02712285 0.00786651 
0.01897649 0.09577688 0.00578294 0.00208340 0.01036441 0.00219696 0.00706673 0.00787318 0.04511258 0.00868473 0.02325796 0.00181504 0.01090624 0.10126193 0.02698953 0.00754202 
0.01932666 0.09555237 0.00569839 0.00209156 0.01032976 0.00218297 0.00703764 0.00786066 0.04409123 0.00881533 0.02344110 0.00179508 0.01099868 0.10036241 0.02682505 0.00722590 
0.01966562 0.09535175 0.00561011 0.00209962 0.01029542 0.00216695 0.00700533 0.00784866 0.04307196 0.00893898 0.02361598 0.00177611 0.01110982 0.09935841 0.02662991 0.00691862 
0.01999173 0.09517620 0.00551884 0.00210761 0.01026148 0.00214896 0.00697023 0.00783698 0.04205978 0.00905489 0.02378149 0.00175826 0.01123899 0.09825471 0.02640476 0.00662056 
0.02030352 0.09502651 0.00542534 0.00211556 0.01022800 0.00212910 0.00693282 0.00782540 0.04105954 0.00916233 0.02393651 0.00174160 0.01138542 0.09705652 0.02615038 0.00633209 
0.02059964 0.09490300 0.00533039 0.00212350 0.01019502 0.00210744 0.00689355 0.00781371 0.04007594 0.00926060 0.02407997 0.00172622 0.01154827 0.09576943 0.02586770 0.00605351 
0.02087892 0.09480559 0.00523476 0.00213147 0.01016250 0.00208411 0.00685294 0.00780169 0.03911352 0.00934909 0.02421082 0.00171222 0.01172663 0.09439943 0.02555781 0.00578507 
0.02114032 0.09473378 0.00513926 0.00213949 0.01013037 0.00205920 0.00681150 0.00778911 0.03817656 0.00942725 0.02432806 0.00169965 0.01191955 0.09295281 0.02522189 0.00552697 
0.02138301 0.09468663 0.00504465 0.00214761 0.01009852 0.00203285 0.00676978 0.00777576 0.03726911 0.00949460 0.02443073 0.00168860 0.01212600 0.09143613 0.02486125 0.00527937 
0.02160631 0.09466281 0.00495172 0.00215584 0.01006680 0.00200517 0.00672830 0.00776142 0.03639498 0.00955075 0.02451794 0.00167911 0.01234493 0.08985622 0.02447733 0.00504236 
0.02180973 0.09466060 0.00486122 0.00216421 0.01003501 0.00197632 0.00668763 0.00774589 0.03555767 0.00959535 0.02458884 0.00167123 0.01257523 0.08822008 0.02407165 0.00481600 
0.02199295 0.09467790 0.00477389 0.00217275 0.01000293 0.00194642 0.00664832 0.00772898 0.03476036 0.00962816 0.02464268 0.00166502 0.01281579 0.08653487 0.02364581 0.00460032 
0.02215584 0.09471228 0.00469044 0.00218148 0.00997031 0.00191564 0.00661090 0.00771050 0.03400595 0.00964901 0.02467874 0.00166050 0.01306545 0.08480785 0.02320152 0.00439527 
0.02229847 0.09476095 0.00461156 0.00219041 0.00993684 0.00188412 0.00657594 0.00769027 0.03329695 0.00965781 0.02469643 0.00165769 0.01332306 0.08304634 0.02274053 0.00420078 
0.02242106 0.09482085 0.00453790 0.00219956 0.00990223 0.00185204 0.00654396 0.00766815 0.03263557 0.00965454 0.02469522 0.00165663 0.01358746 0.08125771 0.02226465 0.00401675 
0.02252402 0.09488862 0.00447006 0.00220894 0.00986614 0.00181954 0.00651548 0.00764401 0.03202361 0.00963928 0.02467467 0.00165731 0.01385747 0.07944927 0.02177574 0.00384302 
0.02260793 0.09496068 0.00440860 0.00221856 0.00982822 0.00178680 0.00649100 0.00761771 0.03146254 0.00961218 0.02463445 0.00165975 0.01413196 0.07762829 0.02127571 0.00367940 
0.02267355 0.09503323 0.00435404 0.00222842 0.00978810 0.00175398 0.00647100 0.00758918 0.03095342 0.00957346 0.02457435 0.00166393 0.01440978 0.07580193 0.02076646 0.00352570 
0.02272175 0.09510230 0.00430685 0.00223853 0.00974542 0.00172126 0.00645593 0.00755833 0.03049697 0.00952343 0.02449423 0.00166985 0.01468984 0.07397722 0.02024992 0.00338165 
0.02275361 0.09516379 0.00426742 0.00224887 0.00969979 0.00168881 0.00644621 0.00752513 0.03009351 0.00946247 0.02439410 0.00167748 0.01497103 0.07216099 0.01972802 0.00324699 
0.02277030 0.09521348 0.00423612 0.00225946 0.00965084 0.00165680 0.00644224 0.00748955 0.02974299 0.00939104 0.02427407 0.00168680 0.01525234 0.07035990 0.01920268 0.00312142 
0.02277313 0.09524712 0.00421322 0.00227026 0.00959821 0.00162540 0.00644435 0.00745161 0.02944500 0.00930965 0.02413438 0.00169778 0.01553275 0.06858032 0.01867579 0.00300462 
0.02276352 0.09526040 0.00419895 0.00228128 0.00954152 0.00159477 0.00645286 0.00741133 0.02919875 0.00921891 0.02397538 0.00171039 0.01581131 0.06682837 0.01814921 0.00289626 
0.02274299 0.09524906 0.00419348 0.00229249 0.00948045 0.00156508 0.00646805 0.00736880 0.02900313 0.00911946 0.02379758 0.00172457 0.01608713 0.06510987 0.01762477 0.00279597 
0.02271316 0.09520888 0.00419689 0.00230388 0.00941465 0.00153649 0.00649013 0.00732409 0.02885665 0.00901202 0.02360157 0.00174028 0.01635936 0.06343033 0.01710424 0.00270339 
0.02267568 0.09513574 0.00420923 0.00231543 0.00934382 0.00150917 0.00651928 0.00727733 0.02875755 0.00889735 0.02338811 0.00175747 0.01662722 0.06179488 0.01658934 0.00261813 
0.02263228 0.09502565 0.00423046 0.00232711 0.00926769 0.00148325 0.00655563 0.00722869 0.02870372 0.00877626 0.02315806 0.00177609 0.01688999 0.06020831 0.01608172 0.00253982 
0.02258473 0.09487480 0.00426046 0.00233889 0.00918601 0.00145889 0.00659925 0.00717835 0.02869279 0.00864961 0.02291243 0.00179606 0.01714702 0.05867503 0.01558296 0.00246806 
0.02253480 0.09467956 0.00429909 0.00235076 0.00909857 0.00143623 0.00665017 0.00712652 0.02872211 0.00851831 0.02265233 0.00181734 0.01739771 0.05719906 0.01509457 0.00240243 
0.02248427 0.09443657 0.00434610 0.00236267 0.00900518 0.00141540 0.00670835 0.00707344 0.02878879 0.00838327 0.02237902 0.00183985 0.01764156 0.05578400 0.01461795 0.00234256 
0.02243492 0.09414273 0.00440122 0.00237461 0.00890572 0.00139653 0.00677372 0.00701939 0.02888974 0.00824546 0.02209385 0.00186352 0.01787812 0.05443307 0.01415444 0.00228803 
0.02238847 0.09379526 0.00446408 0.00238654 0.00880009 0.00137973 0.00684613 0.00696467 0.02902165 0.00810585 0.02179832 0.00188828 0.01810701 0.05314907 0.01370526 0.00223845 
0.02234661 0.09339167 0.00453428 0.00239843 0.00868823 0.00136511 0.00692540 0.00690960 0.02918109 0.00796544 0.02149401 0.00191407 0.01832792 0.05193438 0.01327158 0.00219342 
0.02231096 0.09292989 0.00461136 0.00241026 0.00857015 0.00135278 0.00701127 0.00685452 0.02936444 0.00782523 0.02118262 0.00194081 0.01854061 0.05079098 0.01285441 0.00215257 
0.02228305 0.09240817 0.00469481 0.00242198 0.00844589 0.00134281 0.00710345 0.00679983 0.02956803 0.00768621 0.02086593 0.00196843 0.01874491 0.04972046 0.01245471 0.00211551 
0.02226434 0.09182519 0.00478407 0.00243358 0.00831555 0.00133529 0.00720159 0.00674589 0.02978807 0.00754940 0.02054582 0.00199685 0.01894071 0.04872401 0.01207332 0.00208188 
0.02225615 0.09118006 0.00487854 0.00244504 0.00817926 0.00133029 0.00730530 0.00669313 0.03002075 0.00741576 0.02022426 0.00202600 0.01912796 0.04780245 0.01171098 0.00205133 
0.02225968 0.09047228 0.00497759 0.00245631 0.00803722 0.00132786 0.00741412 0.00664198 0.03026226 0.00728629 0.01990326 0.00205581 0.01930669 0.04695620 0.01136834 0.00202352 
0.02227601 0.08970183 0.00508053 0.00246739 0.00788967 0.00132806 0.00752757 0.00659287 0.03050877 0.00716192 0.01958491 0.00208621 0.01947695 0.04618538 0.01104593 0.00199811 
0.02230606 0.08886911 0.00518668 0.00247825 0.00773689 0.00133091 0.00764510 0.00654626 0.03075653 0.00704358 0.01927136 0.00211713 0.01963886 0.04548975 0.01074422 0.00197480 
0.02235058 0.08797499 0.00529529 0.00248888 0.00757924 0.00133645 0.00776616 0.00650260 0.03100187 0.00693216 0.01896476 0.00214849 0.01979260 0.04486876 0.01046354 0.00195330 
0.02241017 0.08702078 0.00540565 0.00249926 0.00741708 0.00134468 0.00789012 0.00646237 0.03124121 0.00682849 0.01866731 0.00218024 0.01993838 0.04432158 0.01020418 0.00193331 
0.02248525 0.08600824 0.00551698 0.00250939 0.00725086 0.00135561 0.00801634 0.00642604 0.03147112 0.00673338 0.01838123 0.00221230 0.02007645 0.04384713 0.00996630 0.00191460 
0.02257606 0.08493955 0.00562852 0.00251926 0.00708103 0.00136922 0.00814415 0.00639407 0.03168834 0.00664757 0.01810870 0.00224462 0.02020710 0.04344406 0.00975002 0.00189691 
