0.00029225 0.00038656 0.00013883 0.00011850 0.00004129 0.00019477 0.00006745 0.00052537 0.00011627 0.00003721 0.00069061 0.00028823 0.00036795 0.00002423 0.00098568 0.00001958 
0.00024069 0.00050881 0.00009425 0.00072242 0.00003163 0.00013935 0.00031331 0.00092037 0.00020453 0.00014138 0.00064254 0.00049244 0.00053789 0.00005571 0.00117978 0.00003985 
0.00018539 0.00063027 0.00032629 0.00131004 0.00010277 0.00046599 0.00068330 0.00130413 0.00029205 0.00024392 0.00058978 0.00069657 0.00070606 0.00008731 0.00137480 0.00009726 
0.00012630 0.00075057 0.00055671 0.00187988 0.00017199 0.00078436 0.00104164 0.00167559 0.00037865 0.00034461 0.00053213 0.00089973 0.00087194 0.00011893 0.00157025 0.00015252 
0.00006337 0.00086935 0.00078492 0.00243057 0.00023915 0.00109372 0.00138752 0.00203376 0.00046413 0.00044324 0.00046939 0.00110103 0.00103502 0.00015053 0.00176563 0.00020556 
0.00000342 0.00098624 0.00101037 0.00296077 0.00030413 0.00139336 0.00172017 0.00237772 0.00054833 0.00053963 0.00040137 0.00129963 0.00119481 0.00018202 0.00196043 0.00025629 
0.00007411 0.00110089 0.00123248 0.00346924 0.00036680 0.00168261 0.00203891 0.00270659 0.00063105 0.00063359 0.00032791 0.00149465 0.00135082 0.00021333 0.00215416 0.00030464 
0.00014869 0.00121295 0.00145071 0.00395481 0.00042707 0.00196085 0.00234310 0.00301958 0.00071214 0.00072496 0.00024886 0.00168526 0.00150260 0.00024439 0.00234635 0.00035055 
0.00022717 0.00132207 0.00166452 0.00441639 0.00048483 0.00222748 0.00263219 0.00331596 0.00079145 0.00081358 0.00016409 0.00187065 0.00164970 0.00027513 0.00253651 0.00039398 
0.00030954 0.00142793 0.00187337 0.00485300 0.00054000 0.00248199 0.00290571 0.00359508 0.00086882 0.00089930 0.00007350 0.00205003 0.00179169 0.00030549 0.00272419 0.00043489 
0.00039576 0.00153022 0.00207677 0.00526374 0.00059249 0.00272389 0.00316323 0.00385637 0.00094412 0.00098201 0.00002302 0.00222265 0.00192818 0.00033541 0.00290895 0.00047325 
0.00048581 0.00162863 0.00227422 0.00564782 0.00064224 0.00295275 0.00340443 0.00409934 0.00101722 0.00106160 0.00012551 0.00238778 0.00205881 0.00036482 0.00309035 0.00050905 
0.00057962 0.00172287 0.00246526 0.00600455 0.00068919 0.00316819 0.00362906 0.00432359 0.00108801 0.00113797 0.00023403 0.00254475 0.00218322 0.00039365 0.00326800 0.00054230 
0.00067714 0.00181268 0.00264943 0.00633335 0.00073330 0.00336991 0.00383694 0.00452881 0.00115638 0.00121104 0.00034859 0.00269293 0.00230110 0.00042187 0.00344151 0.00057300 
0.00077828 0.00189782 0.00282631 0.00663374 0.00077452 0.00355763 0.00402798 0.00471475 0.00122225 0.00128076 0.00046918 0.00283173 0.00241217 0.00044941 0.00361053 0.00060116 
0.00088293 0.00197804 0.00299552 0.00690537 0.00081284 0.00373115 0.00420217 0.00488129 0.00128554 0.00134709 0.00059575 0.00296061 0.00251619 0.00047622 0.00377472 0.00062683 
0.00099100 0.00205314 0.00315668 0.00714799 0.00084824 0.00389032 0.00435956 0.00502838 0.00134618 0.00140998 0.00072825 0.00307910 0.00261293 0.00050225 0.00393379 0.00065004 
0.00110234 0.00212295 0.00330945 0.00736147 0.00088073 0.00403505 0.00450031 0.00515604 0.00140412 0.00146945 0.00086658 0.00318678 0.00270221 0.00052748 0.00408746 0.00067085 
0.00121682 0.00218729 0.00345354 0.00754581 0.00091029 0.00416530 0.00462464 0.00526442 0.00145933 0.00152548 0.00101060 0.00328327 0.00278390 0.00055185 0.00423549 0.00068931 
0.00133427 0.00224602 0.00358865 0.00770110 0.00093696 0.00428110 0.00473282 0.00535373 0.00151179 0.00157811 0.00116017 0.00336827 0.00285787 0.00057534 0.00437767 0.00070550 
0.00145451 0.00229904 0.00371456 0.00782757 0.00096076 0.00438251 0.00482524 0.00542426 0.00156147 0.00162737 0.00131510 0.00344154 0.00292406 0.00059790 0.00451381 0.00071949 
0.00157735 0.00234626 0.00383106 0.00792555 0.00098173 0.00446967 0.00490232 0.00547640 0.00160840 0.00167332 0.00147517 0.00350291 0.00298242 0.00061953 0.00464378 0.00073138 
0.00170258 0.00238760 0.00393797 0.00799550 0.00099991 0.00454277 0.00496458 0.00551062 0.00165258 0.00171603 0.00164013 0.00355226 0.00303296 0.00064019 0.00476745 0.00074124 
0.00182997 0.00242305 0.00403516 0.00803797 0.00101536 0.00460203 0.00501256 0.00552746 0.00169405 0.00175557 0.00180972 0.00358954 0.00307570 0.00065988 0.00488475 0.00074919 
0.00195926 0.00245257 0.00412253 0.00805363 0.00102815 0.00464775 0.00504689 0.00552753 0.00173285 0.00179206 0.00198361 0.00361476 0.00311072 0.00067856 0.00499562 0.00075532 
0.00209022 0.00247620 0.00420001 0.00804327 0.00103834 0.00468024 0.00506826 0.00551153 0.00176904 0.00182559 0.00216149 0.00362801 0.00313812 0.00069625 0.00510004 0.00075974 
0.00222255 0.00249397 0.00426759 0.00800777 0.00104601 0.00469989 0.00507738 0.00548020 0.00180269 0.00185629 0.00234298 0.00362942 0.00315803 0.00071292 0.00519804 0.00076257 
0.00235598 0.00250594 0.00432526 0.00794811 0.00105126 0.00470712 0.00507503 0.00543437 0.00183388 0.00188429 0.00252770 0.00361920 0.00317062 0.00072859 0.00528966 0.00076393 
0.00249019 0.00251221 0.00437308 0.00786538 0.00105417 0.00470238 0.00506203 0.00537490 0.00186270 0.00190974 0.00271522 0.00359762 0.00317608 0.00074325 0.00537496 0.00076394 
0.00262487 0.00251289 0.00441113 0.00776073 0.00105485 0.00468618 0.00503921 0.00530273 0.00188924 0.00193278 0.00290512 0.00356500 0.00317466 0.00075690 0.00545405 0.00076270 
0.00275970 0.00250813 0.00443953 0.00763543 0.00105340 0.00465903 0.00500747 0.00521880 0.00191363 0.00195357 0.00309693 0.00352172 0.00316659 0.00076957 0.00552706 0.00076036 
0.00289434 0.00249808 0.00445845 0.00749082 0.00104993 0.00462149 0.00496770 0.00512414 0.00193599 0.00197228 0.00329017 0.00346821 0.00315216 0.00078125 0.00559413 0.00075702 
0.00302843 0.00248293 0.00446806 0.00732830 0.00104455 0.00457417 0.00492082 0.00501978 0.00195644 0.00198908 0.00348432 0.00340495 0.00313168 0.00079197 0.00565545 0.00075282 
0.00316162 0.00246289 0.00446861 0.00714936 0.00103739 0.00451767 0.00486778 0.00490680 0.00197511 0.00200415 0.00367889 0.00333249 0.00310546 0.00080175 0.00571120 0.00074787 
0.00329356 0.00243818 0.00446035 0.00695555 0.00102855 0.00445263 0.00480950 0.00478628 0.00199215 0.00201767 0.00387332 0.00325140 0.00307386 0.00081060 0.00576161 0.00074228 
0.00342386 0.00240904 0.00444358 0.00674846 0.00101817 0.00437969 0.00474694 0.00465932 0.00200770 0.00202980 0.00406707 0.00316229 0.00303723 0.00081856 0.00580690 0.00073618 
0.00355216 0.00237575 0.00441862 0.00652974 0.00100637 0.00429954 0.00468104 0.00452706 0.00202192 0.00204074 0.00425959 0.00306583 0.00299596 0.00082564 0.00584731 0.00072968 
0.00367809 0.00233857 0.00438583 0.00630108 0.00099328 0.00421286 0.00461272 0.00439059 0.00203496 0.00205067 0.00445031 0.00296270 0.00295044 0.00083187 0.00588311 0.00072288 
0.00380127 0.00229780 0.00434560 0.00606422 0.00097902 0.00412033 0.00454292 0.00425103 0.00204698 0.00205975 0.00463865 0.00285362 0.00290107 0.00083729 0.00591455 0.00071589 
0.00392132 0.00225374 0.00429835 0.00582091 0.00096373 0.00402265 0.00447252 0.00410949 0.00205812 0.00206818 0.00482405 0.00273933 0.00284826 0.00084192 0.00594191 0.00070880 
0.00403789 0.00220672 0.00424451 0.00557293 0.00094753 0.00392053 0.00440241 0.00396706 0.00206856 0.00207612 0.00500593 0.00262060 0.00279242 0.00084579 0.00596547 0.00070171 
0.00415061 0.00215706 0.00418455 0.00532206 0.00093055 0.00381467 0.00433342 0.00382479 0.00207843 0.00208373 0.00518371 0.00249822 0.00273397 0.00084894 0.00598550 0.00069471 
0.00425911 0.00210509 0.00411897 0.00507011 0.00091291 0.00370576 0.00426638 0.00368373 0.00208791 0.00209118 0.00535683 0.00237297 0.00267335 0.00085140 0.00600229 0.00068787 
0.00436306 0.00205115 0.00404827 0.00481885 0.00089474 0.00359450 0.00420204 0.00354489 0.00209714 0.00209862 0.00552474 0.00224565 0.00261096 0.00085320 0.00601610 0.00068128 
0.00446212 0.00199560 0.00397298 0.00457009 0.00087616 0.00348157 0.00414116 0.00340922 0.00210627 0.00210619 0.00568688 0.00211707 0.00254722 0.00085437 0.00602721 0.00067499 
0.00455597 0.00193878 0.00389367 0.00432557 0.00085728 0.00336766 0.00408440 0.00327765 0.00211544 0.00211404 0.00584273 0.00198804 0.00248255 0.00085495 0.00603589 0.00066907 
0.00464431 0.00188105 0.00381088 0.00408705 0.00083824 0.00325341 0.00403242 0.00315107 0.00212478 0.00212228 0.00599176 0.00185934 0.00241735 0.00085497 0.00604239 0.00066356 
0.00472684 0.00182274 0.00372520 0.00385623 0.00081914 0.00313948 0.00398580 0.00303029 0.00213442 0.00213104 0.00613347 0.00173177 0.00235201 0.00085446 0.00604695 0.00065853 
0.00480329 0.00176422 0.00363722 0.00363478 0.00080008 0.00302650 0.00394506 0.00291608 0.00214450 0.00214042 0.00626739 0.00160610 0.00228692 0.00085344 0.00604980 0.00065399 
0.00487342 0.00170582 0.00354753 0.00342432 0.00078118 0.00291507 0.00391069 0.00280916 0.00215511 0.00215051 0.00639307 0.00148308 0.00222246 0.00085196 0.00605117 0.00064999 
0.00493700 0.00164789 0.00345675 0.00322643 0.00076254 0.00280580 0.00388310 0.00271018 0.00216636 0.00216140 0.00651006 0.00136345 0.00215897 0.00085004 0.00605125 0.00064655 
0.00499384 0.00159075 0.00336548 0.00304260 0.00074425 0.00269924 0.00386264 0.00261971 0.00217835 0.00217317 0.00661799 0.00124792 0.00209681 0.00084769 0.00605022 0.00064369 
0.00504375 0.00153474 0.00327433 0.00287429 0.00072641 0.00259593 0.00384962 0.00253827 0.00219116 0.00218585 0.00671646 0.00113717 0.00203628 0.00084496 0.00604827 0.00064141 
0.00508658 0.00148015 0.00318392 0.00272285 0.00070910 0.00249640 0.00384426 0.00246631 0.00220486 0.00219951 0.00680516 0.00103185 0.00197771 0.00084187 0.00604553 0.00063971 
0.00512222 0.00142731 0.00309485 0.00258958 0.00069241 0.00240114 0.00384674 0.00240422 0.00221951 0.00221417 0.00688376 0.00093257 0.00192137 0.00083843 0.00604215 0.00063861 
0.00515057 0.00137648 0.00300773 0.00247568 0.00067641 0.00231060 0.00385717 0.00235229 0.00223517 0.00222986 0.00695201 0.00083990 0.00186752 0.00083466 0.00603822 0.00063808 
0.00517158 0.00132796 0.00292314 0.00238226 0.00066118 0.00222522 0.00387559 0.00231077 0.00225186 0.00224658 0.00700967 0.00075439 0.00181641 0.00083059 0.00603385 0.00063811 
0.00518521 0.00128200 0.00284168 0.00231034 0.00064677 0.00214541 0.00390199 0.00227981 0.00226961 0.00226432 0.00705655 0.00067651 0.00176827 0.00082624 0.00602910 0.00063869 
0.00519146 0.00123883 0.00276391 0.00226083 0.00063326 0.00207153 0.00393630 0.00225952 0.00228843 0.00228308 0.00709249 0.00060673 0.00172329 0.00082161 0.00602404 0.00063978 
0.00519037 0.00119870 0.00269040 0.00223456 0.00062069 0.00200394 0.00397839 0.00224992 0.00230831 0.00230281 0.00711738 0.00054544 0.00168164 0.00081673 0.00601870 0.00064137 
0.00518201 0.00116181 0.00262167 0.00223222 0.00060912 0.00194293 0.00402807 0.00225096 0.00232925 0.00232349 0.00713115 0.00049300 0.00164347 0.00081161 0.00601311 0.00064341 
0.00516646 0.00112834 0.00255824 0.00225440 0.00059858 0.00188880 0.00408510 0.00226253 0.00235122 0.00234505 0.00713376 0.00044970 0.00160893 0.00080625 0.00600726 0.00064588 
0.00514387 0.00109846 0.00250061 0.00230158 0.00058912 0.00184178 0.00414919 0.00228445 0.00237416 0.00236744 0.00712522 0.00041582 0.00157810 0.00080068 0.00600115 0.00064873 
0.00511438 0.00107233 0.00244925 0.00237413 0.00058076 0.00180208 0.00421999 0.00231649 0.00239804 0.00239059 0.00710558 0.00039154 0.00155107 0.00079489 0.00599475 0.00065193 
0.00507820 0.00105007 0.00240458 0.00247227 0.00057354 0.00176990 0.00429712 0.00235834 0.00242278 0.00241441 0.00707492 0.00037702 0.00152791 0.00078889 0.00598803 0.00065543 
0.00503553 0.00103179 0.00236703 0.00259614 0.00056747 0.00174537 0.00438016 0.00240965 0.00244831 0.00243882 0.00703340 0.00037237 0.00150865 0.00078271 0.00598094 0.00065919 
0.00498664 0.00101757 0.00233697 0.00274571 0.00056256 0.00172861 0.00446863 0.00247001 0.00247454 0.00246373 0.00698117 0.00037764 0.00149330 0.00077633 0.00597343 0.00066317 
0.00493179 0.00100747 0.00231475 0.00292088 0.00055883 0.00171971 0.00456203 0.00253896 0.00250136 0.00248902 0.00691845 0.00039282 0.00148186 0.00076977 0.00596544 0.00066732 
0.00487129 0.00100155 0.00230066 0.00312139 0.00055629 0.00171871 0.00465982 0.00261599 0.00252868 0.00251459 0.00684549 0.00041788 0.00147430 0.00076303 0.00595689 0.00067160 
0.00480547 0.00099981 0.00229498 0.00334686 0.00055492 0.00172564 0.00476145 0.00270056 0.00255637 0.00254033 0.00676257 0.00045270 0.00147057 0.00075612 0.00594773 0.00067596 
0.00473467 0.00100226 0.00229793 0.00359680 0.00055472 0.00174048 0.00486633 0.00279208 0.00258431 0.00256612 0.00667004 0.00049716 0.00147062 0.00074904 0.00593789 0.00068037 
0.00465926 0.00100887 0.00230970 0.00387060 0.00055568 0.00176318 0.00497386 0.00288993 0.00261235 0.00259183 0.00656824 0.00055105 0.00147436 0.00074181 0.00592729 0.00068478 
0.00457964 0.00101960 0.00233044 0.00416752 0.00055778 0.00179367 0.00508341 0.00299346 0.00264036 0.00261735 0.00645757 0.00061414 0.00148169 0.00073442 0.00591587 0.00068915 
0.00449621 0.00103440 0.00236025 0.00448671 0.00056101 0.00183184 0.00519435 0.00310201 0.00266819 0.00264255 0.00633847 0.00068617 0.00149250 0.00072689 0.00590358 0.00069346 
0.00440939 0.00105316 0.00239917 0.00482722 0.00056533 0.00187756 0.00530604 0.00321487 0.00269569 0.00266731 0.00621138 0.00076680 0.00150665 0.00071922 0.00589037 0.00069766 
0.00431961 0.00107580 0.00244723 0.00518797 0.00057071 0.00193066 0.00541785 0.00333135 0.00272270 0.00269150 0.00607679 0.00085568 0.00152402 0.00071142 0.00587619 0.00070173 
0.00422731 0.00110218 0.00250437 0.00556779 0.00057713 0.00199093 0.00552914 0.00345073 0.00274906 0.00271500 0.00593523 0.00095243 0.00154444 0.00070351 0.00586103 0.00070564 
0.00413293 0.00113218 0.00257051 0.00596540 0.00058453 0.00205817 0.00563927 0.00357228 0.00277461 0.00273769 0.00578722 0.00105661 0.00156775 0.00069549 0.00584487 0.00070936 
0.00403694 0.00116563 0.00264552 0.00637943 0.00059289 0.00213212 0.00574763 0.00369528 0.00279919 0.00275945 0.00563332 0.00116778 0.00159378 0.00068738 0.00582771 0.00071288 
0.00393977 0.00120236 0.00272922 0.00680842 0.00060215 0.00221251 0.00585358 0.00381900 0.00282264 0.00278017 0.00547412 0.00128544 0.00162236 0.00067920 0.00580957 0.00071619 
0.00384188 0.00124220 0.00282138 0.00725083 0.00061226 0.00229902 0.00595656 0.00394274 0.00284478 0.00279973 0.00531021 0.00140910 0.00165329 0.00067095 0.00579048 0.00071926 
0.00374372 0.00128493 0.00292172 0.00770503 0.00062317 0.00239133 0.00605597 0.00406579 0.00286548 0.00281805 0.00514221 0.00153821 0.00168638 0.00066267 0.00577052 0.00072208 
0.00364573 0.00133035 0.00302993 0.00816933 0.00063483 0.00248909 0.00615128 0.00418747 0.00288457 0.00283501 0.00497074 0.00167222 0.00172144 0.00065436 0.00574975 0.00072466 
0.00354834 0.00137823 0.00314564 0.00864198 0.00064718 0.00259193 0.00624194 0.00430711 0.00290191 0.00285052 0.00479644 0.00181058 0.00175828 0.00064606 0.00572827 0.00072700 
0.00345196 0.00142834 0.00326843 0.00912117 0.00066016 0.00269946 0.00632749 0.00442407 0.00291734 0.00286451 0.00461995 0.00195269 0.00179668 0.00063779 0.00570620 0.00072909 
0.00335701 0.00148044 0.00339785 0.00960504 0.00067371 0.00281124 0.00640744 0.00453773 0.00293075 0.00287690 0.00444193 0.00209798 0.00183645 0.00062957 0.00568370 0.00073093 
0.00326387 0.00153428 0.00353342 0.01009169 0.00068775 0.00292686 0.00648137 0.00464750 0.00294198 0.00288762 0.00426302 0.00224583 0.00187739 0.00062143 0.00566091 0.00073255 
0.00317291 0.00158960 0.00367460 0.01057920 0.00070224 0.00304586 0.00654888 0.00475284 0.00295094 0.00289660 0.00408389 0.00239565 0.00191931 0.00061340 0.00563803 0.00073395 
0.00308449 0.00164614 0.00382081 0.01106562 0.00071709 0.00316777 0.00660964 0.00485322 0.00295750 0.00290381 0.00390517 0.00254683 0.00196200 0.00060552 0.00561527 0.00073514 
0.00299892 0.00170364 0.00397147 0.01154898 0.00073226 0.00329210 0.00666331 0.00494815 0.00296158 0.00290919 0.00372753 0.00269878 0.00200528 0.00059782 0.00559286 0.00073614 
0.00291651 0.00176183 0.00412593 0.01202732 0.00074765 0.00341837 0.00670962 0.00503721 0.00296307 0.00291271 0.00355161 0.00285088 0.00204896 0.00059034 0.00557104 0.00073697 
0.00283754 0.00182044 0.00428352 0.01249869 0.00076322 0.00354606 0.00674835 0.00511999 0.00296191 0.00291436 0.00337802 0.00300256 0.00209286 0.00058311 0.00555008 0.00073765 
0.00276226 0.00187921 0.00444357 0.01296113 0.00077889 0.00367466 0.00677930 0.00519612 0.00295803 0.00291411 0.00320740 0.00315322 0.00213680 0.00057616 0.00553027 0.00073821 
0.00269088 0.00193788 0.00460536 0.01341272 0.00079459 0.00380365 0.00680233 0.00526531 0.00295139 0.00291196 0.00304036 0.00330229 0.00218062 0.00056955 0.00551190 0.00073867 
0.00262359 0.00199617 0.00476817 0.01385159 0.00081025 0.00393249 0.00681733 0.00532727 0.00294195 0.00290791 0.00287747 0.00344923 0.00222415 0.00056331 0.00549528 0.00073904 
0.00256056 0.00205383 0.00493125 0.01427589 0.00082582 0.00406065 0.00682425 0.00538178 0.00292969 0.00290199 0.00271932 0.00359349 0.00226725 0.00055748 0.00548074 0.00073937 
0.00250191 0.00211061 0.00509384 0.01468382 0.00084123 0.00418759 0.00682305 0.00542867 0.00291459 0.00289421 0.00256646 0.00373456 0.00230975 0.00055211 0.00546861 0.00073967 
0.00244774 0.00216626 0.00525519 0.01507365 0.00085640 0.00431279 0.00681378 0.00546780 0.00289669 0.00288460 0.00241941 0.00387192 0.00235154 0.00054723 0.00545923 0.00073996 
0.00239810 0.00222054 0.00541452 0.01544372 0.00087129 0.00443571 0.00679649 0.00549908 0.00287598 0.00287320 0.00227869 0.00400512 0.00239248 0.00054289 0.00545293 0.00074028 
0.00235305 0.00227323 0.00557109 0.01579246 0.00088584 0.00455582 0.00677128 0.00552248 0.00285253 0.00286006 0.00214477 0.00413369 0.00243245 0.00053913 0.00545006 0.00074065 
0.00231256 0.00232410 0.00572412 0.01611835 0.00089998 0.00467261 0.00673830 0.00553798 0.00282637 0.00284524 0.00201811 0.00425721 0.00247134 0.00053599 0.00545095 0.00074108 
0.00227663 0.00237295 0.00587288 0.01642001 0.00091367 0.00478556 0.00669773 0.00554563 0.00279758 0.00282879 0.00189912 0.00437528 0.00250905 0.00053351 0.00545594 0.00074160 
0.00224517 0.00241956 0.00601662 0.01669613 0.00092686 0.00489418 0.00664977 0.00554551 0.00276624 0.00281079 0.00178821 0.00448754 0.00254550 0.00053172 0.00546535 0.00074222 
0.00221811 0.00246377 0.00615464 0.01694551 0.00093949 0.00499798 0.00659469 0.00553774 0.00273246 0.00279131 0.00168573 0.00459363 0.00258059 0.00053067 0.00547950 0.00074296 
0.00219533 0.00250539 0.00628624 0.01716708 0.00095153 0.00509650 0.00653276 0.00552250 0.00269633 0.00277044 0.00159201 0.00469327 0.00261425 0.00053039 0.00549867 0.00074385 
0.00217667 0.00254427 0.00641076 0.01735988 0.00096293 0.00518928 0.00646428 0.00549996 0.00265800 0.00274825 0.00150735 0.00478616 0.00264642 0.00053091 0.00552314 0.00074487 
0.00216197 0.00258027 0.00652756 0.01752309 0.00097367 0.00527590 0.00638959 0.00547036 0.00261759 0.00272485 0.00143199 0.00487206 0.00267704 0.00053226 0.00555318 0.00074605 
0.00215104 0.00261324 0.00663605 0.01765600 0.00098370 0.00535595 0.00630905 0.00543396 0.00257526 0.00270032 0.00136616 0.00495075 0.00270606 0.00053446 0.00558900 0.00074739 
0.00214364 0.00264308 0.00673566 0.01775804 0.00099301 0.00542906 0.00622304 0.00539105 0.00253118 0.00267476 0.00131005 0.00502207 0.00273345 0.00053755 0.00563082 0.00074889 
0.00213956 0.00266969 0.00682589 0.01782881 0.00100157 0.00549488 0.00613195 0.00534195 0.00248550 0.00264828 0.00126380 0.00508585 0.00275917 0.00054154 0.00567881 0.00075055 
0.00213852 0.00269299 0.00690626 0.01786800 0.00100936 0.00555308 0.00603621 0.00528699 0.00243842 0.00262098 0.00122752 0.00514199 0.00278319 0.00054644 0.00573310 0.00075236 
0.00214025 0.00271291 0.00697635 0.01787548 0.00101638 0.00560337 0.00593623 0.00522655 0.00239013 0.00259297 0.00120127 0.00519039 0.00280550 0.00055227 0.00579379 0.00075432 
0.00214447 0.00272939 0.00703580 0.01785126 0.00102260 0.00564550 0.00583247 0.00516098 0.00234083 0.00256435 0.00118510 0.00523101 0.00282608 0.00055904 0.00586096 0.00075640 
0.00215089 0.00274241 0.00708429 0.01779548 0.00102804 0.00567924 0.00572536 0.00509071 0.00229072 0.00253523 0.00117898 0.00526383 0.00284492 0.00056674 0.00593462 0.00075861 
0.00215918 0.00275195 0.00712158 0.01770845 0.00103270 0.00570441 0.00561536 0.00501612 0.00224002 0.00250571 0.00118288 0.00528886 0.00286203 0.00057538 0.00601476 0.00076091 
0.00216904 0.00275800 0.00714747 0.01759060 0.00103657 0.00572087 0.00550293 0.00493765 0.00218894 0.00247591 0.00119671 0.00530613 0.00287741 0.00058495 0.00610132 0.00076329 
0.00218015 0.00276059 0.00716184 0.01744252 0.00103968 0.00572850 0.00538853 0.00485571 0.00213770 0.00244592 0.00122034 0.00531572 0.00289106 0.00059544 0.00619418 0.00076572 
0.00219218 0.00275973 0.00716462 0.01726493 0.00104203 0.00572724 0.00527260 0.00477074 0.00208652 0.00241586 0.00125362 0.00531772 0.00290300 0.00060683 0.00629321 0.00076817 
0.00220482 0.00275548 0.00715581 0.01705870 0.00104366 0.00571706 0.00515561 0.00468318 0.00203563 0.00238583 0.00129635 0.00531225 0.00291324 0.00061910 0.00639819 0.00077062 
0.00221774 0.00274791 0.00713547 0.01682482 0.00104460 0.00569798 0.00503799 0.00459346 0.00198525 0.00235592 0.00134830 0.00529947 0.00292180 0.00063222 0.00650889 0.00077303 
0.00223065 0.00273707 0.00710375 0.01656441 0.00104486 0.00567006 0.00492018 0.00450200 0.00193561 0.00232623 0.00140920 0.00527955 0.00292871 0.00064616 0.00662502 0.00077537 
0.00224322 0.00272307 0.00706084 0.01627874 0.00104449 0.00563340 0.00480261 0.00440924 0.00188691 0.00229686 0.00147875 0.00525268 0.00293397 0.00066088 0.00674623 0.00077760 
0.00225517 0.00270602 0.00700700 0.01596916 0.00104353 0.00558814 0.00468567 0.00431560 0.00183937 0.00226789 0.00155662 0.00521909 0.00293764 0.00067633 0.00687215 0.00077968 
0.00226622 0.00268602 0.00694258 0.01563715 0.00104203 0.00553447 0.00456978 0.00422147 0.00179321 0.00223941 0.00164244 0.00517900 0.00293972 0.00069248 0.00700235 0.00078157 
0.00227609 0.00266320 0.00686795 0.01528430 0.00104002 0.00547262 0.00445530 0.00412727 0.00174863 0.00221150 0.00173583 0.00513267 0.00294024 0.00070926 0.00713636 0.00078324 
0.00228454 0.00263772 0.00678358 0.01491229 0.00103757 0.00540286 0.00434261 0.00403338 0.00170582 0.00218423 0.00183635 0.00508038 0.00293925 0.00072661 0.00727369 0.00078464 
0.00229132 0.00260972 0.00668999 0.01452288 0.00103473 0.00532550 0.00423204 0.00394015 0.00166498 0.00215769 0.00194357 0.00502242 0.00293676 0.00074449 0.00741378 0.00078575 
0.00229624 0.00257937 0.00658776 0.01411792 0.00103155 0.00524090 0.00412391 0.00384795 0.00162627 0.00213193 0.00205701 0.00495908 0.00293282 0.00076281 0.00755605 0.00078650 
0.00229909 0.00254683 0.00647750 0.01369934 0.00102810 0.00514945 0.00401853 0.00375711 0.00158988 0.00210701 0.00217618 0.00489068 0.00292744 0.00078150 0.00769990 0.00078688 
0.00229970 0.00251229 0.00635990 0.01326911 0.00102444 0.00505157 0.00391617 0.00366794 0.00155595 0.00208300 0.00230057 0.00481755 0.00292067 0.00080050 0.00784469 0.00078683 
0.00229793 0.00247594 0.00623570 0.01282926 0.00102063 0.00494773 0.00381709 0.00358073 0.00152464 0.00205993 0.00242964 0.00474000 0.00291254 0.00081972 0.00798975 0.00078634 
0.00229365 0.00243797 0.00610566 0.01238187 0.00101674 0.00483842 0.00372151 0.00349575 0.00149607 0.00203786 0.00256286 0.00465839 0.00290308 0.00083908 0.00813440 0.00078535 
0.00228677 0.00239859 0.00597060 0.01192902 0.00101284 0.00472418 0.00362966 0.00341326 0.00147037 0.00201683 0.00269966 0.00457305 0.00289232 0.00085850 0.00827794 0.00078385 
0.00227722 0.00235800 0.00583137 0.01147286 0.00100899 0.00460555 0.00354170 0.00333347 0.00144764 0.00199686 0.00283947 0.00448434 0.00288030 0.00087789 0.00841964 0.00078179 
0.00226495 0.00231640 0.00568884 0.01101549 0.00100526 0.00448314 0.00345780 0.00325659 0.00142797 0.00197798 0.00298172 0.00439260 0.00286706 0.00089717 0.00855880 0.00077917 
0.00224994 0.00227402 0.00554392 0.01055906 0.00100172 0.00435754 0.00337809 0.00318279 0.00141143 0.00196022 0.00312582 0.00429818 0.00285262 0.00091624 0.00869469 0.00077594 
0.00223221 0.00223106 0.00539754 0.01010569 0.00099843 0.00422938 0.00330269 0.00311223 0.00139809 0.00194360 0.00327119 0.00420144 0.00283702 0.00093501 0.00882658 0.00077211 
0.00221179 0.00218774 0.00525063 0.00965745 0.00099545 0.00409932 0.00323168 0.00304503 0.00138799 0.00192811 0.00341723 0.00410272 0.00282030 0.00095339 0.00895375 0.00076764 
0.00218874 0.00214428 0.00510413 0.00921641 0.00099286 0.00396801 0.00316513 0.00298129 0.00138117 0.00191378 0.00356337 0.00400236 0.00280250 0.00097130 0.00907551 0.00076254 
0.00216316 0.00210088 0.00495901 0.00878460 0.00099071 0.00383613 0.00310307 0.00292109 0.00137762 0.00190059 0.00370901 0.00390071 0.00278365 0.00098864 0.00919115 0.00075679 
0.00213514 0.00205777 0.00481620 0.00836395 0.00098906 0.00370436 0.00304553 0.00286450 0.00137735 0.00188854 0.00385359 0.00379809 0.00276379 0.00100533 0.00930002 0.00075039 
0.00210484 0.00201515 0.00467665 0.00795639 0.00098796 0.00357339 0.00299252 0.00281153 0.00138034 0.00187763 0.00399654 0.00369483 0.00274297 0.00102127 0.00940146 0.00074334 
0.00207241 0.00197322 0.00454129 0.00756371 0.00098748 0.00344391 0.00294400 0.00276220 0.00138656 0.00186783 0.00413730 0.00359125 0.00272122 0.00103639 0.00949487 0.00073566 
0.00203803 0.00193218 0.00441101 0.00718767 0.00098764 0.00331661 0.00289994 0.00271650 0.00139595 0.00185913 0.00427534 0.00348766 0.00269860 0.00105061 0.00957966 0.00072735 
0.00200191 0.00189223 0.00428669 0.00682992 0.00098851 0.00319217 0.00286029 0.00267438 0.00140845 0.00185151 0.00441013 0.00338435 0.00267513 0.00106384 0.00965531 0.00071843 
0.00196426 0.00185355 0.00416919 0.00649199 0.00099012 0.00307126 0.00282496 0.00263580 0.00142397 0.00184493 0.00454116 0.00328162 0.00265089 0.00107601 0.00972130 0.00070893 
0.00192533 0.00181633 0.00405932 0.00617533 0.00099250 0.00295455 0.00279389 0.00260068 0.00144242 0.00183936 0.00466795 0.00317972 0.00262590 0.00108705 0.00977719 0.00069886 
0.00188538 0.00178073 0.00395784 0.00588127 0.00099568 0.00284267 0.00276695 0.00256893 0.00146370 0.00183478 0.00479004 0.00307893 0.00260024 0.00109690 0.00982259 0.00068826 
0.00184465 0.00174692 0.00386548 0.00561101 0.00099969 0.00273625 0.00274404 0.00254045 0.00148767 0.00183114 0.00490699 0.00297949 0.00257394 0.00110549 0.00985714 0.00067717 
0.00180345 0.00171505 0.00378290 0.00536563 0.00100455 0.00263590 0.00272503 0.00251510 0.00151422 0.00182840 0.00501839 0.00288164 0.00254708 0.00111279 0.00988055 0.00066562 
0.00176205 0.00168526 0.00371073 0.00514606 0.00101027 0.00254219 0.00270979 0.00249275 0.00154318 0.00182652 0.00512386 0.00278559 0.00251971 0.00111873 0.00989259 0.00065366 
0.00172076 0.00165768 0.00364950 0.00495313 0.00101686 0.00245565 0.00269816 0.00247324 0.00157440 0.00182544 0.00522303 0.00269155 0.00249190 0.00112327 0.00989310 0.00064133 
0.00167987 0.00163243 0.00359972 0.00478749 0.00102432 0.00237682 0.00268999 0.00245642 0.00160772 0.00182513 0.00531560 0.00259971 0.00246371 0.00112639 0.00988195 0.00062870 
0.00163969 0.00160962 0.00356179 0.00464967 0.00103264 0.00230616 0.00268513 0.00244210 0.00164296 0.00182553 0.00540125 0.00251025 0.00243522 0.00112805 0.00985911 0.00061580 
0.00160053 0.00158934 0.00353608 0.00454005 0.00104182 0.00224411 0.00268341 0.00243011 0.00167994 0.00182659 0.00547975 0.00242331 0.00240649 0.00112824 0.00982459 0.00060271 
0.00156269 0.00157167 0.00352286 0.00445885 0.00105184 0.00219107 0.00268466 0.00242026 0.00171846 0.00182825 0.00555085 0.00233905 0.00237760 0.00112694 0.00977847 0.00058948 
0.00152647 0.00155668 0.00352233 0.00440617 0.00106267 0.00214740 0.00268871 0.00241235 0.00175832 0.00183046 0.00561438 0.00225759 0.00234864 0.00112415 0.00972090 0.00057618 
0.00149217 0.00154443 0.00353462 0.00438194 0.00107430 0.00211340 0.00269538 0.00240618 0.00179933 0.00183318 0.00567016 0.00217905 0.00231967 0.00111988 0.00965207 0.00056287 
0.00146007 0.00153496 0.00355976 0.00438594 0.00108668 0.00208933 0.00270450 0.00240155 0.00184128 0.00183633 0.00571809 0.00210351 0.00229079 0.00111413 0.00957227 0.00054962 
0.00143046 0.00152829 0.00359773 0.00441782 0.00109977 0.00207541 0.00271590 0.00239825 0.00188395 0.00183988 0.00575807 0.00203106 0.00226207 0.00110693 0.00948182 0.00053649 
0.00140360 0.00152443 0.00364842 0.00447708 0.00111354 0.00207180 0.00272939 0.00239607 0.00192715 0.00184375 0.00579004 0.00196177 0.00223361 0.00109829 0.00938111 0.00052356 
0.00137973 0.00152338 0.00371163 0.00456308 0.00112793 0.00207860 0.00274482 0.00239482 0.00197065 0.00184791 0.00581401 0.00189568 0.00220549 0.00108827 0.00927057 0.00051090 
0.00135911 0.00152513 0.00378709 0.00467503 0.00114289 0.00209588 0.00276200 0.00239428 0.00201424 0.00185229 0.00582997 0.00183283 0.00217780 0.00107690 0.00915071 0.00049857 
0.00134194 0.00152965 0.00387446 0.00481205 0.00115836 0.00212363 0.00278078 0.00239426 0.00205773 0.00185684 0.00583798 0.00177324 0.00215064 0.00106424 0.00902207 0.00048665 
0.00132843 0.00153689 0.00397332 0.00497308 0.00117427 0.00216181 0.00280099 0.00239456 0.00210089 0.00186152 0.00583812 0.00171692 0.00212408 0.00105033 0.00888525 0.00047520 
0.00131876 0.00154680 0.00408316 0.00515699 0.00119057 0.00221030 0.00282248 0.00239499 0.00214353 0.00186627 0.00583050 0.00166386 0.00209823 0.00103525 0.00874086 0.00046428 
0.00131308 0.00155929 0.00420343 0.00536250 0.00120719 0.00226896 0.00284509 0.00239538 0.00218545 0.00187104 0.00581526 0.00161404 0.00207317 0.00101908 0.00858958 0.00045398 
0.00131153 0.00157430 0.00433350 0.00558824 0.00122405 0.00233755 0.00286867 0.00239554 0.00222645 0.00187579 0.00579259 0.00156744 0.00204898 0.00100188 0.00843213 0.00044434 
0.00131422 0.00159173 0.00447265 0.00583274 0.00124107 0.00241583 0.00289309 0.00239531 0.00226636 0.00188048 0.00576267 0.00152400 0.00202576 0.00098374 0.00826922 0.00043543 
0.00132124 0.00161145 0.00462015 0.00609443 0.00125820 0.00250346 0.00291820 0.00239453 0.00230499 0.00188507 0.00572573 0.00148369 0.00200359 0.00096476 0.00810161 0.00042730 
0.00133265 0.00163337 0.00477518 0.00637169 0.00127534 0.00260009 0.00294388 0.00239306 0.00234217 0.00188951 0.00568202 0.00144642 0.00198255 0.00094502 0.00793009 0.00042001 
0.00134848 0.00165733 0.00493687 0.00666278 0.00129242 0.00270529 0.00297001 0.00239076 0.00237774 0.00189378 0.00563181 0.00141212 0.00196273 0.00092464 0.00775543 0.00041361 
0.00136874 0.00168321 0.00510433 0.00696593 0.00130936 0.00281860 0.00299646 0.00238750 0.00241156 0.00189783 0.00557539 0.00138073 0.00194418 0.00090371 0.00757843 0.00040813 
0.00139341 0.00171085 0.00527659 0.00727931 0.00132609 0.00293951 0.00302312 0.00238317 0.00244348 0.00190165 0.00551307 0.00135213 0.00192699 0.00088234 0.00739989 0.00040363 
0.00142246 0.00174009 0.00545269 0.00760104 0.00134253 0.00306746 0.00304990 0.00237768 0.00247338 0.00190520 0.00544517 0.00132623 0.00191123 0.00086064 0.00722061 0.00040014 
0.00145580 0.00177077 0.00563160 0.00792920 0.00135860 0.00320187 0.00307668 0.00237094 0.00250114 0.00190845 0.00537203 0.00130293 0.00189695 0.00083872 0.00704138 0.00039769 
0.00149334 0.00180271 0.00581230 0.00826187 0.00137424 0.00334211 0.00310338 0.00236287 0.00252666 0.00191140 0.00529400 0.00128211 0.00188420 0.00081670 0.00686298 0.00039630 
0.00153497 0.00183572 0.00599374 0.00859710 0.00138936 0.00348750 0.00312990 0.00235342 0.00254984 0.00191401 0.00521143 0.00126366 0.00187305 0.00079470 0.00668617 0.00039599 
0.00158052 0.00186963 0.00617484 0.00893294 0.00140391 0.00363736 0.00315617 0.00234253 0.00257062 0.00191629 0.00512470 0.00124744 0.00186352 0.00077282 0.00651168 0.00039679 
0.00162983 0.00190423 0.00635456 0.00926744 0.00141782 0.00379097 0.00318211 0.00233018 0.00258893 0.00191822 0.00503417 0.00123334 0.00185566 0.00075118 0.00634022 0.00039868 
0.00168271 0.00193935 0.00653182 0.00959869 0.00143102 0.00394758 0.00320764 0.00231635 0.00260471 0.00191978 0.00494021 0.00122123 0.00184949 0.00072990 0.00617249 0.00040168 
0.00173894 0.00197477 0.00670557 0.00992477 0.00144347 0.00410642 0.00323270 0.00230103 0.00261794 0.00192099 0.00484319 0.00121096 0.00184504 0.00070909 0.00600912 0.00040578 
0.00179828 0.00201030 0.00687477 0.01024385 0.00145510 0.00426671 0.00325722 0.00228422 0.00262860 0.00192183 0.00474349 0.00120241 0.00184231 0.00068885 0.00585072 0.00041097 
0.00186048 0.00204575 0.00703841 0.01055410 0.00146586 0.00442766 0.00328115 0.00226597 0.00263668 0.00192231 0.00464148 0.00119544 0.00184132 0.00066929 0.00569787 0.00041724 
0.00192527 0.00208091 0.00719549 0.01085377 0.00147572 0.00458847 0.00330443 0.00224628 0.00264218 0.00192244 0.00453751 0.00118991 0.00184206 0.00065052 0.00555107 0.00042455 
0.00199235 0.00211559 0.00734506 0.01114118 0.00148464 0.00474833 0.00332701 0.00222522 0.00264513 0.00192222 0.00443193 0.00118570 0.00184451 0.00063263 0.00541080 0.00043288 
0.00206142 0.00214959 0.00748619 0.01141470 0.00149258 0.00490644 0.00334885 0.00220285 0.00264557 0.00192167 0.00432510 0.00118265 0.00184867 0.00061571 0.00527748 0.00044220 
0.00213217 0.00218273 0.00761802 0.01167281 0.00149951 0.00506199 0.00336989 0.00217923 0.00264354 0.00192080 0.00421734 0.00118065 0.00185449 0.00059986 0.00515149 0.00045246 
0.00220427 0.00221482 0.00773971 0.01191406 0.00150541 0.00521420 0.00339009 0.00215444 0.00263911 0.00191963 0.00410898 0.00117955 0.00186195 0.00058514 0.00503314 0.00046361 
0.00227739 0.00224569 0.00785051 0.01213710 0.00151027 0.00536228 0.00340943 0.00212858 0.00263236 0.00191818 0.00400033 0.00117924 0.00187099 0.00057165 0.00492268 0.00047560 
0.00235118 0.00227515 0.00794969 0.01234071 0.00151407 0.00550548 0.00342786 0.00210175 0.00262336 0.00191647 0.00389167 0.00117958 0.00188157 0.00055944 0.00482034 0.00048838 
0.00242530 0.00230305 0.00803661 0.01252373 0.00151681 0.00564305 0.00344534 0.00207407 0.00261223 0.00191452 0.00378328 0.00118046 0.00189363 0.00054857 0.00472624 0.00050187 
0.00249940 0.00232922 0.00811068 0.01268516 0.00151849 0.00577428 0.00346186 0.00204565 0.00259906 0.00191235 0.00367544 0.00118175 0.00190709 0.00053910 0.00464050 0.00051602 
0.00257313 0.00235353 0.00817141 0.01282409 0.00151910 0.00589847 0.00347737 0.00201662 0.00258399 0.00191000 0.00356837 0.00118336 0.00192188 0.00053106 0.00456314 0.00053075 
0.00264614 0.00237583 0.00821835 0.01293974 0.00151867 0.00601499 0.00349187 0.00198711 0.00256714 0.00190750 0.00346232 0.00118516 0.00193792 0.00052451 0.00449415 0.00054598 
0.00271810 0.00239601 0.00825114 0.01303147 0.00151721 0.00612320 0.00350531 0.00195727 0.00254866 0.00190487 0.00335748 0.00118705 0.00195512 0.00051945 0.00443345 0.00056163 
0.00278865 0.00241395 0.00826950 0.01309875 0.00151473 0.00622253 0.00351768 0.00192724 0.00252869 0.00190214 0.00325405 0.00118895 0.00197339 0.00051591 0.00438093 0.00057762 
0.00285748 0.00242954 0.00827323 0.01314119 0.00151126 0.00631245 0.00352897 0.00189716 0.00250738 0.00189934 0.00315221 0.00119077 0.00199262 0.00051391 0.00433640 0.00059387 
0.00292425 0.00244270 0.00826220 0.01315853 0.00150682 0.00639246 0.00353915 0.00186720 0.00248491 0.00189651 0.00305210 0.00119241 0.00201271 0.00051342 0.00429964 0.00061029 
0.00298866 0.00245336 0.00823637 0.01315064 0.00150146 0.00646213 0.00354822 0.00183751 0.00246143 0.00189367 0.00295388 0.00119381 0.00203355 0.00051446 0.00427039 0.00062678 
0.00305040 0.00246145 0.00819578 0.01311751 0.00149519 0.00652105 0.00355616 0.00180825 0.00243712 0.00189087 0.00285767 0.00119489 0.00205504 0.00051700 0.00424834 0.00064326 
0.00310920 0.00246693 0.00814055 0.01305928 0.00148806 0.00656889 0.00356297 0.00177957 0.00241216 0.00188812 0.00276358 0.00119559 0.00207704 0.00052101 0.00423312 0.00065963 
0.00316479 0.00246977 0.00807088 0.01297621 0.00148012 0.00660537 0.00356863 0.00175162 0.00238672 0.00188547 0.00267169 0.00119586 0.00209945 0.00052646 0.00422436 0.00067580 
0.00321691 0.00246995 0.00798706 0.01286868 0.00147139 0.00663024 0.00357315 0.00172457 0.00236099 0.00188293 0.00258210 0.00119565 0.00212215 0.00053330 0.00422162 0.00069169 
0.00326533 0.00246747 0.00788943 0.01273720 0.00146192 0.00664335 0.00357654 0.00169857 0.00233514 0.00188054 0.00249487 0.00119491 0.00214502 0.00054148 0.00422445 0.00070720 
0.00330984 0.00246235 0.00777844 0.01258240 0.00145176 0.00664458 0.00357878 0.00167377 0.00230936 0.00187833 0.00241007 0.00119361 0.00216794 0.00055095 0.00423237 0.00072223 
0.00335024 0.00245460 0.00765457 0.01240500 0.00144095 0.00663387 0.00357991 0.00165031 0.00228382 0.00187633 0.00232773 0.00119172 0.00219079 0.00056162 0.00424488 0.00073671 
0.00338637 0.00244429 0.00751840 0.01220586 0.00142953 0.00661121 0.00357991 0.00162834 0.00225871 0.00187455 0.00224791 0.00118922 0.00221345 0.00057344 0.00426145 0.00075054 
0.00341807 0.00243145 0.00737057 0.01198593 0.00141755 0.00657668 0.00357882 0.00160799 0.00223420 0.00187302 0.00217064 0.00118609 0.00223582 0.00058630 0.00428155 0.00076365 
0.00344522 0.00241617 0.00721177 0.01174626 0.00140506 0.00653039 0.00357665 0.00158939 0.00221045 0.00187177 0.00209595 0.00118233 0.00225777 0.00060014 0.00430462 0.00077595 
0.00346772 0.00239853 0.00704275 0.01148798 0.00139208 0.00647251 0.00357343 0.00157266 0.00218763 0.00187080 0.00202386 0.00117793 0.00227921 0.00061485 0.00433010 0.00078736 
0.00348548 0.00237864 0.00686432 0.01121232 0.00137868 0.00640328 0.00356918 0.00155791 0.00216590 0.00187015 0.00195440 0.00117291 0.00230004 0.00063033 0.00435742 0.00079783 
0.00349846 0.00235659 0.00667734 0.01092057 0.00136487 0.00632298 0.00356394 0.00154526 0.00214541 0.00186982 0.00188761 0.00116725 0.00232015 0.00064649 0.00438604 0.00080727 
0.00350662 0.00233253 0.00648269 0.01061411 0.00135071 0.00623194 0.00355774 0.00153480 0.00212630 0.00186982 0.00182349 0.00116099 0.00233946 0.00066321 0.00441537 0.00081563 
0.00350995 0.00230659 0.00628130 0.01029436 0.00133621 0.00613057 0.00355063 0.00152661 0.00210870 0.00187017 0.00176210 0.00115414 0.00235789 0.00068039 0.00444487 0.00082285 
0.00350847 0.00227891 0.00607415 0.00996279 0.00132142 0.00601930 0.00354265 0.00152078 0.00209274 0.00187087 0.00170345 0.00114672 0.00237536 0.00069791 0.00447399 0.00082887 
0.00350222 0.00224965 0.00586221 0.00962094 0.00130637 0.00589860 0.00353386 0.00151736 0.00207854 0.00187192 0.00164760 0.00113876 0.00239180 0.00071565 0.00450220 0.00083366 
0.00349126 0.00221898 0.00564648 0.00927036 0.00129107 0.00576902 0.00352430 0.00151642 0.00206619 0.00187334 0.00159459 0.00113030 0.00240718 0.00073350 0.00452898 0.00083717 
0.00347567 0.00218708 0.00542800 0.00891263 0.00127555 0.00563110 0.00351404 0.00151799 0.00205579 0.00187511 0.00154448 0.00112138 0.00242142 0.00075135 0.00455383 0.00083938 
0.00345557 0.00215414 0.00520779 0.00854937 0.00125982 0.00548547 0.00350313 0.00152210 0.00204741 0.00187723 0.00149733 0.00111202 0.00243451 0.00076908 0.00457628 0.00084024 
0.00343108 0.00212033 0.00498686 0.00818217 0.00124391 0.00533275 0.00349166 0.00152879 0.00204112 0.00187970 0.00145322 0.00110228 0.00244641 0.00078656 0.00459586 0.00083975 
0.00340234 0.00208586 0.00476626 0.00781267 0.00122782 0.00517361 0.00347968 0.00153805 0.00203697 0.00188251 0.00141224 0.00109220 0.00245712 0.00080369 0.00461216 0.00083790 
0.00336952 0.00205093 0.00454699 0.00744245 0.00121157 0.00500874 0.00346727 0.00154988 0.00203500 0.00188564 0.00137450 0.00108182 0.00246662 0.00082035 0.00462477 0.00083467 
0.00333281 0.00201574 0.00433004 0.00707312 0.00119515 0.00483886 0.00345450 0.00156427 0.00203523 0.00188908 0.00134009 0.00107120 0.00247494 0.00083644 0.00463332 0.00083007 
0.00329241 0.00198049 0.00411640 0.00670623 0.00117857 0.00466470 0.00344147 0.00158119 0.00203767 0.00189281 0.00130915 0.00106039 0.00248210 0.00085184 0.00463747 0.00082411 
0.00324852 0.00194540 0.00390701 0.00634332 0.00116184 0.00448700 0.00342824 0.00160059 0.00204232 0.00189681 0.00128182 0.00104944 0.00248812 0.00086646 0.00463692 0.00081680 
0.00320139 0.00191067 0.00370278 0.00598588 0.00114494 0.00430653 0.00341491 0.00162243 0.00204916 0.00190107 0.00125823 0.00103839 0.00249307 0.00088019 0.00463138 0.00080816 
0.00315126 0.00187651 0.00350460 0.00563535 0.00112789 0.00412402 0.00340157 0.00164664 0.00205815 0.00190555 0.00123856 0.00102731 0.00249700 0.00089295 0.00462063 0.00079824 
0.00309838 0.00184311 0.00331329 0.00529313 0.00111066 0.00394026 0.00338829 0.00167315 0.00206924 0.00191022 0.00122298 0.00101625 0.00250000 0.00090464 0.00460444 0.00078705 
0.00304303 0.00181069 0.00312965 0.00496054 0.00109326 0.00375600 0.00337517 0.00170187 0.00208237 0.00191507 0.00121167 0.00100526 0.00250214 0.00091519 0.00458266 0.00077464 
0.00298546 0.00177943 0.00295440 0.00463886 0.00107567 0.00357199 0.00336230 0.00173270 0.00209745 0.00192005 0.00120481 0.00099439 0.00250354 0.00092452 0.00455515 0.00076107 
0.00292598 0.00174953 0.00278825 0.00432926 0.00105790 0.00338897 0.00334977 0.00176555 0.00211441 0.00192514 0.00120262 0.00098369 0.00250431 0.00093256 0.00452180 0.00074639 
0.00286487 0.00172116 0.00263180 0.00403285 0.00103994 0.00320766 0.00333767 0.00180029 0.00213312 0.00193029 0.00120530 0.00097322 0.00250458 0.00093925 0.00448255 0.00073066 
0.00280242 0.00169452 0.00248562 0.00375068 0.00102178 0.00302878 0.00332609 0.00183680 0.00215347 0.00193547 0.00121306 0.00096301 0.00250449 0.00094453 0.00443737 0.00071394 
0.00273894 0.00166976 0.00235021 0.00348367 0.00100342 0.00285301 0.00331512 0.00187495 0.00217533 0.00194065 0.00122612 0.00095313 0.00250420 0.00094837 0.00438626 0.00069631 
0.00267473 0.00164704 0.00222600 0.00323269 0.00098486 0.00268100 0.00330484 0.00191460 0.00219855 0.00194578 0.00124469 0.00094362 0.00250388 0.00095072 0.00432926 0.00067784 
0.00261009 0.00162651 0.00211336 0.00299848 0.00096610 0.00251338 0.00329534 0.00195560 0.00222298 0.00195083 0.00126901 0.00093451 0.00250371 0.00095155 0.00426644 0.00065861 
0.00254533 0.00160832 0.00201258 0.00278171 0.00094714 0.00235076 0.00328670 0.00199779 0.00224844 0.00195574 0.00129927 0.00092586 0.00250387 0.00095084 0.00419789 0.00063871 
0.00248075 0.00159258 0.00192388 0.00258294 0.00092801 0.00219369 0.00327901 0.00204103 0.00227477 0.00196049 0.00133569 0.00091769 0.00250458 0.00094858 0.00412374 0.00061823 
0.00241664 0.00157941 0.00184743 0.00240263 0.00090870 0.00204271 0.00327233 0.00208513 0.00230177 0.00196503 0.00137848 0.00091006 0.00250604 0.00094476 0.00404416 0.00059724 
0.00235332 0.00156892 0.00178330 0.00224114 0.00088925 0.00189829 0.00326675 0.00212995 0.00232926 0.00196930 0.00142782 0.00090298 0.00250848 0.00093938 0.00395932 0.00057586 
0.00229108 0.00156119 0.00173150 0.00209873 0.00086967 0.00176087 0.00326232 0.00217530 0.00235703 0.00197328 0.00148391 0.00089650 0.00251213 0.00093245 0.00386943 0.00055417 
0.00223019 0.00155629 0.00169199 0.00197557 0.00085001 0.00163086 0.00325913 0.00222102 0.00238488 0.00197692 0.00154691 0.00089063 0.00251723 0.00092400 0.00377474 0.00053228 
0.00217095 0.00155428 0.00166463 0.00187170 0.00083029 0.00150861 0.00325723 0.00226693 0.00241260 0.00198018 0.00161697 0.00088542 0.00252404 0.00091405 0.00367550 0.00051027 
0.00211363 0.00155522 0.00164923 0.00178708 0.00081058 0.00139442 0.00325668 0.00231286 0.00243997 0.00198302 0.00169422 0.00088087 0.00253280 0.00090263 0.00357199 0.00048825 
0.00205850 0.00155913 0.00164555 0.00172159 0.00079091 0.00128856 0.00325753 0.00235863 0.00246679 0.00198539 0.00177877 0.00087702 0.00254378 0.00088979 0.00346451 0.00046631 
0.00200582 0.00156603 0.00165325 0.00167497 0.00077136 0.00119124 0.00325983 0.00240407 0.00249283 0.00198726 0.00187071 0.00087387 0.00255724 0.00087557 0.00335337 0.00044456 
0.00195583 0.00157592 0.00167196 0.00164692 0.00075199 0.00110261 0.00326363 0.00244901 0.00251789 0.00198859 0.00197009 0.00087144 0.00257346 0.00086003 0.00323892 0.00042309 
0.00190878 0.00158879 0.00170124 0.00163701 0.00073288 0.00102279 0.00326897 0.00249329 0.00254176 0.00198934 0.00207694 0.00086975 0.00259270 0.00084323 0.00312150 0.00040201 
0.00186489 0.00160460 0.00174062 0.00164473 0.00071413 0.00095184 0.00327587 0.00253674 0.00256423 0.00198949 0.00219127 0.00086880 0.00261524 0.00082524 0.00300147 0.00038139 
0.00182439 0.00162333 0.00178954 0.00166952 0.00069582 0.00088978 0.00328438 0.00257921 0.00258510 0.00198901 0.00231304 0.00086859 0.00264136 0.00080613 0.00287920 0.00036134 
0.00178748 0.00164490 0.00184743 0.00171071 0.00067806 0.00083659 0.00329451 0.00262054 0.00260418 0.00198786 0.00244218 0.00086913 0.00267133 0.00078598 0.00275509 0.00034195 
0.00175435 0.00166926 0.00191367 0.00176757 0.00066097 0.00079217 0.00330630 0.00266060 0.00262130 0.00198602 0.00257858 0.00087042 0.00270542 0.00076488 0.00262952 0.00032330 
0.00172518 0.00169631 0.00198760 0.00183929 0.00064467 0.00075641 0.00331974 0.00269924 0.00263627 0.00198348 0.00272211 0.00087246 0.00274389 0.00074291 0.00250290 0.00030547 
0.00170014 0.00172597 0.00206851 0.00192503 0.00062929 0.00072915 0.00333487 0.00273633 0.00264894 0.00198021 0.00287260 0.00087524 0.00278701 0.00072017 0.00237562 0.00028855 
0.00167940 0.00175811 0.00215570 0.00202386 0.00061497 0.00071017 0.00335168 0.00277177 0.00265916 0.00197621 0.00302981 0.00087874 0.00283504 0.00069675 0.00224811 0.00027260 
0.00166308 0.00179262 0.00224842 0.00213481 0.00060185 0.00069923 0.00337018 0.00280543 0.00266681 0.00197146 0.00319351 0.00088298 0.00288823 0.00067274 0.00212077 0.00025771 
0.00165131 0.00182937 0.00234591 0.00225688 0.00059009 0.00069604 0.00339038 0.00283723 0.00267178 0.00196597 0.00336339 0.00088791 0.00294681 0.00064826 0.00199401 0.00024393 
0.00164422 0.00186821 0.00244739 0.00238901 0.00057984 0.00070029 0.00341226 0.00286707 0.00267396 0.00195974 0.00353912 0.00089355 0.00301102 0.00062340 0.00186827 0.00023132 
0.00164189 0.00190899 0.00255209 0.00253012 0.00057127 0.00071161 0.00343583 0.00289488 0.00267329 0.00195277 0.00372033 0.00089985 0.00308107 0.00059827 0.00174393 0.00021995 
0.00164440 0.00195154 0.00265922 0.00267910 0.00056456 0.00072964 0.00346108 0.00292059 0.00266972 0.00194508 0.00390662 0.00090682 0.00315717 0.00057296 0.00162143 0.00020985 
0.00165184 0.00199570 0.00276800 0.00283483 0.00055986 0.00075395 0.00348799 0.00294417 0.00266322 0.00193669 0.00409754 0.00091441 0.00323951 0.00054760 0.00150118 0.00020108 
0.00166425 0.00204127 0.00287764 0.00299617 0.00055737 0.00078411 0.00351656 0.00296556 0.00265378 0.00192762 0.00429261 0.00092262 0.00332826 0.00052228 0.00138357 0.00019366 
0.00168167 0.00208809 0.00298740 0.00316197 0.00055726 0.00081967 0.00354677 0.00298476 0.00264142 0.00191791 0.00449133 0.00093142 0.00342358 0.00049710 0.00126901 0.00018764 
0.00170413 0.00213595 0.00309651 0.00333108 0.00055971 0.00086016 0.00357860 0.00300175 0.00262619 0.00190760 0.00469314 0.00094077 0.00352560 0.00047218 0.00115789 0.00018303 
0.00173163 0.00218466 0.00320425 0.00350235 0.00056490 0.00090508 0.00361204 0.00301654 0.00260816 0.00189673 0.00489749 0.00095066 0.00363445 0.00044761 0.00105061 0.00017985 
0.00176417 0.00223402 0.00330991 0.00367467 0.00057301 0.00095394 0.00364706 0.00302915 0.00258744 0.00188536 0.00510378 0.00096105 0.00375022 0.00042350 0.00094754 0.00017812 
0.00180172 0.00228381 0.00341282 0.00384691 0.00058423 0.00100623 0.00368365 0.00303963 0.00256415 0.00187354 0.00531139 0.00097191 0.00387298 0.00039995 0.00084905 0.00017784 
0.00184424 0.00233384 0.00351233 0.00401799 0.00059872 0.00106143 0.00372177 0.00304801 0.00253845 0.00186134 0.00551969 0.00098322 0.00400278 0.00037704 0.00075551 0.00017901 
0.00189169 0.00238390 0.00360782 0.00418684 0.00061666 0.00111903 0.00376142 0.00305437 0.00251052 0.00184884 0.00572802 0.00099493 0.00413965 0.00035488 0.00066727 0.00018162 
0.00194399 0.00243377 0.00369874 0.00435244 0.00063821 0.00117851 0.00380257 0.00305880 0.00248059 0.00183611 0.00593573 0.00100702 0.00428359 0.00033355 0.00058468 0.00018566 
0.00200107 0.00248324 0.00378454 0.00451379 0.00066353 0.00123936 0.00384519 0.00306138 0.00244891 0.00182325 0.00614214 0.00101944 0.00443458 0.00031315 0.00050805 0.00019110 
0.00206281 0.00253211 0.00386473 0.00466996 0.00069277 0.00130108 0.00388927 0.00306223 0.00241573 0.00181035 0.00634658 0.00103218 0.00459254 0.00029374 0.00043770 0.00019794 
0.00212911 0.00258018 0.00393887 0.00482004 0.00072608 0.00136316 0.00393477 0.00306147 0.00238137 0.00179751 0.00654838 0.00104519 0.00475741 0.00027541 0.00037394 0.00020612 
0.00219984 0.00262723 0.00400658 0.00496318 0.00076357 0.00142513 0.00398167 0.00305925 0.00234616 0.00178483 0.00674687 0.00105843 0.00492907 0.00025824 0.00031705 0.00021561 
0.00227484 0.00267307 0.00406749 0.00509860 0.00080538 0.00148652 0.00402996 0.00305572 0.00231045 0.00177244 0.00694139 0.00107188 0.00510738 0.00024228 0.00026730 0.00022637 
0.00235397 0.00271750 0.00412131 0.00522555 0.00085160 0.00154688 0.00407959 0.00305104 0.00227464 0.00176044 0.00713129 0.00108549 0.00529217 0.00022760 0.00022495 0.00023836 
0.00243704 0.00276033 0.00416779 0.00534336 0.00090233 0.00160577 0.00413056 0.00304540 0.00223912 0.00174896 0.00731594 0.00109924 0.00548323 0.00021427 0.00019024 0.00025151 
0.00252387 0.00280138 0.00420674 0.00545143 0.00095765 0.00166278 0.00418283 0.00303897 0.00220433 0.00173814 0.00749474 0.00111308 0.00568034 0.00020233 0.00016339 0.00026577 
0.00261425 0.00284048 0.00423800 0.00554920 0.00101762 0.00171753 0.00423637 0.00303197 0.00217072 0.00172809 0.00766711 0.00112699 0.00588323 0.00019183 0.00014459 0.00028108 
0.00270797 0.00287744 0.00426149 0.00563621 0.00108228 0.00176966 0.00429116 0.00302461 0.00213877 0.00171896 0.00783250 0.00114093 0.00609162 0.00018280 0.00013403 0.00029737 
0.00280479 0.00291211 0.00427715 0.00571203 0.00115166 0.00181884 0.00434718 0.00301709 0.00210897 0.00171089 0.00799040 0.00115486 0.00630517 0.00017529 0.00013187 0.00031456 
0.00290448 0.00294434 0.00428499 0.00577633 0.00122577 0.00186475 0.00440438 0.00300966 0.00208183 0.00170401 0.00814032 0.00116875 0.00652354 0.00016933 0.00013825 0.00033259 
0.00300677 0.00297397 0.00428506 0.00582884 0.00130461 0.00190712 0.00446275 0.00300254 0.00205787 0.00169848 0.00828184 0.00118258 0.00674635 0.00016493 0.00015327 0.00035137 
0.00311139 0.00300088 0.00427744 0.00586935 0.00138813 0.00194571 0.00452226 0.00299598 0.00203761 0.00169442 0.00841456 0.00119631 0.00697319 0.00016211 0.00017705 0.00037082 
0.00321808 0.00302495 0.00426228 0.00589774 0.00147629 0.00198030 0.00458286 0.00299021 0.00202160 0.00169198 0.00853814 0.00120991 0.00720363 0.00016088 0.00020964 0.00039087 
0.00332652 0.00304604 0.00423977 0.00591393 0.00156903 0.00201070 0.00464453 0.00298549 0.00201038 0.00169130 0.00865229 0.00122335 0.00743720 0.00016125 0.00025108 0.00041142 
0.00343644 0.00306408 0.00421011 0.00591794 0.00166626 0.00203677 0.00470722 0.00298207 0.00200450 0.00169252 0.00875677 0.00123660 0.00767343 0.00016321 0.00030140 0.00043240 
0.00354750 0.00307896 0.00417357 0.00590983 0.00176785 0.00205838 0.00477091 0.00298019 0.00200450 0.00169577 0.00885140 0.00124964 0.00791180 0.00016677 0.00036058 0.00045370 
0.00365940 0.00309060 0.00413044 0.00588973 0.00187370 0.00207545 0.00483554 0.00298011 0.00201093 0.00170119 0.00893605 0.00126245 0.00815178 0.00017189 0.00042860 0.00047525 
0.00377181 0.00309894 0.00408104 0.00585785 0.00198364 0.00208792 0.00490108 0.00298207 0.00202431 0.00170889 0.00901065 0.00127499 0.00839282 0.00017857 0.00050537 0.00049695 
0.00388440 0.00310393 0.00402571 0.00581443 0.00209751 0.00209576 0.00496749 0.00298631 0.00204517 0.00171900 0.00907520 0.00128724 0.00863436 0.00018677 0.00059083 0.00051871 
0.00399682 0.00310552 0.00396484 0.00575979 0.00221512 0.00209898 0.00503470 0.00299308 0.00207401 0.00173162 0.00912974 0.00129920 0.00887581 0.00019647 0.00068483 0.00054045 
0.00410874 0.00310368 0.00389882 0.00569430 0.00233626 0.00209762 0.00510268 0.00300259 0.00211131 0.00174687 0.00917437 0.00131083 0.00911657 0.00020763 0.00078722 0.00056208 
0.00421980 0.00309841 0.00382807 0.00561836 0.00246071 0.00209173 0.00517137 0.00301507 0.00215755 0.00176483 0.00920927 0.00132211 0.00935603 0.00022020 0.00089784 0.00058350 
0.00432967 0.00308970 0.00375301 0.00553245 0.00258822 0.00208141 0.00524071 0.00303074 0.00221316 0.00178558 0.00923466 0.00133304 0.00959357 0.00023415 0.00101646 0.00060464 
0.00443799 0.00307756 0.00367409 0.00543708 0.00271855 0.00206677 0.00531065 0.00304980 0.00227856 0.00180920 0.00925080 0.00134360 0.00982856 0.00024940 0.00114285 0.00062541 
0.00454441 0.00306203 0.00359176 0.00533278 0.00285142 0.00204796 0.00538112 0.00307242 0.00235410 0.00183575 0.00925805 0.00135377 0.01006038 0.00026592 0.00127672 0.00064573 
0.00464859 0.00304314 0.00350648 0.00522014 0.00298653 0.00202515 0.00545206 0.00309879 0.00244015 0.00186528 0.00925677 0.00136355 0.01028839 0.00028363 0.00141779 0.00066552 
0.00475019 0.00302094 0.00341869 0.00509978 0.00312360 0.00199850 0.00552341 0.00312906 0.00253699 0.00189781 0.00924741 0.00137292 0.01051196 0.00030247 0.00156572 0.00068470 
0.00484888 0.00299552 0.00332886 0.00497234 0.00326232 0.00196825 0.00559509 0.00316337 0.00264489 0.00193337 0.00923044 0.00138188 0.01073046 0.00032237 0.00172014 0.00070320 
0.00494431 0.00296694 0.00323743 0.00483849 0.00340235 0.00193460 0.00566704 0.00320184 0.00276405 0.00197195 0.00920638 0.00139042 0.01094328 0.00034325 0.00188066 0.00072096 
0.00503619 0.00293532 0.00314486 0.00469890 0.00354339 0.00189779 0.00573919 0.00324458 0.00289464 0.00201355 0.00917580 0.00139854 0.01114981 0.00036504 0.00204688 0.00073790 
0.00512418 0.00290075 0.00305157 0.00455428 0.00368509 0.00185809 0.00581146 0.00329166 0.00303676 0.00205814 0.00913928 0.00140623 0.01134944 0.00038765 0.00221833 0.00075396 
0.00520801 0.00286337 0.00295799 0.00440534 0.00382712 0.00181576 0.00588378 0.00334314 0.00319049 0.00210567 0.00909745 0.00141351 0.01154160 0.00041099 0.00239456 0.00076909 
0.00528737 0.00282332 0.00286453 0.00425278 0.00396913 0.00177107 0.00595609 0.00339907 0.00335582 0.00215608 0.00905096 0.00142036 0.01172572 0.00043499 0.00257505 0.00078324 
0.00536202 0.00278075 0.00277157 0.00409734 0.00411079 0.00172431 0.00602829 0.00345945 0.00353269 0.00220929 0.00900049 0.00142679 0.01190128 0.00045955 0.00275930 0.00079636 
0.00543169 0.00273581 0.00267948 0.00393972 0.00425175 0.00167577 0.00610034 0.00352427 0.00372099 0.00226520 0.00894672 0.00143282 0.01206774 0.00048458 0.00294676 0.00080840 
0.00549615 0.00268870 0.00258862 0.00378063 0.00439167 0.00162575 0.00617215 0.00359351 0.00392055 0.00232371 0.00889036 0.00143843 0.01222463 0.00050999 0.00313686 0.00081933 
0.00555519 0.00263961 0.00249931 0.00362078 0.00453022 0.00157454 0.00624365 0.00366709 0.00413113 0.00238467 0.00883210 0.00144366 0.01237148 0.00053568 0.00332901 0.00082912 
0.00560863 0.00258873 0.00241186 0.00346084 0.00466707 0.00152245 0.00631479 0.00374494 0.00435244 0.00244795 0.00877266 0.00144849 0.01250788 0.00056155 0.00352264 0.00083773 
0.00565630 0.00253629 0.00232655 0.00330149 0.00480190 0.00146976 0.00638550 0.00382694 0.00458411 0.00251338 0.00871274 0.00145296 0.01263342 0.00058752 0.00371711 0.00084514 
0.00569805 0.00248250 0.00224363 0.00314337 0.00493440 0.00141678 0.00645571 0.00391296 0.00482575 0.00258078 0.00865303 0.00145707 0.01274778 0.00061347 0.00391180 0.00085135 
0.00573378 0.00242761 0.00216332 0.00298710 0.00506427 0.00136378 0.00652539 0.00400284 0.00507685 0.00264996 0.00859421 0.00146083 0.01285062 0.00063933 0.00410608 0.00085633 
0.00576340 0.00237186 0.00208584 0.00283328 0.00519122 0.00131105 0.00659448 0.00409639 0.00533690 0.00272072 0.00853695 0.00146427 0.01294169 0.00066499 0.00429930 0.00086008 
0.00578686 0.00231552 0.00201136 0.00268248 0.00531497 0.00125886 0.00666293 0.00419339 0.00560530 0.00279282 0.00848187 0.00146741 0.01302075 0.00069035 0.00449083 0.00086261 
0.00580412 0.00225883 0.00194002 0.00253524 0.00543528 0.00120748 0.00673072 0.00429363 0.00588140 0.00286605 0.00842959 0.00147026 0.01308763 0.00071533 0.00468000 0.00086391 
0.00581521 0.00220208 0.00187195 0.00239205 0.00555190 0.00115715 0.00679781 0.00439683 0.00616450 0.00294016 0.00838069 0.00147284 0.01314220 0.00073983 0.00486618 0.00086399 
0.00582015 0.00214555 0.00180726 0.00225338 0.00566462 0.00110811 0.00686418 0.00450273 0.00645386 0.00301489 0.00833571 0.00147519 0.01318438 0.00076376 0.00504872 0.00086287 
0.00581903 0.00208952 0.00174600 0.00211965 0.00577322 0.00106059 0.00692982 0.00461102 0.00674867 0.00309000 0.00829514 0.00147732 0.01321411 0.00078704 0.00522698 0.00086057 
0.00581194 0.00203427 0.00168824 0.00199126 0.00587753 0.00101480 0.00699474 0.00472139 0.00704811 0.00316520 0.00825945 0.00147926 0.01323144 0.00080957 0.00540034 0.00085711 
0.00579902 0.00198012 0.00163399 0.00186856 0.00597740 0.00097093 0.00705892 0.00483350 0.00735131 0.00324023 0.00822905 0.00148104 0.01323641 0.00083129 0.00556819 0.00085252 
0.00578046 0.00192734 0.00158328 0.00175184 0.00607268 0.00092916 0.00712239 0.00494700 0.00765735 0.00331481 0.00820431 0.00148268 0.01322914 0.00085210 0.00572993 0.00084683 
0.00575646 0.00187624 0.00153607 0.00164138 0.00616326 0.00088965 0.00718517 0.00506153 0.00796530 0.00338867 0.00818552 0.00148422 0.01320980 0.00087194 0.00588499 0.00084009 
0.00572727 0.00182712 0.00149234 0.00153740 0.00624906 0.00085255 0.00724730 0.00517669 0.00827420 0.00346153 0.00817297 0.00148567 0.01317861 0.00089074 0.00603281 0.00083232 
0.00569316 0.00178027 0.00145204 0.00144008 0.00633000 0.00081797 0.00730881 0.00529212 0.00858308 0.00353312 0.00816685 0.00148708 0.01313584 0.00090842 0.00617287 0.00082358 
0.00565444 0.00173599 0.00141511 0.00134956 0.00640605 0.00078602 0.00736977 0.00540739 0.00889094 0.00360316 0.00816732 0.00148848 0.01308179 0.00092494 0.00630467 0.00081391 
0.00561147 0.00169458 0.00138146 0.00126594 0.00647717 0.00075680 0.00743024 0.00552212 0.00919680 0.00367138 0.00817448 0.00148989 0.01301683 0.00094023 0.00642773 0.00080336 
0.00556460 0.00165631 0.00135102 0.00118927 0.00654339 0.00073037 0.00749028 0.00563589 0.00949967 0.00373754 0.00818838 0.00149135 0.01294136 0.00095424 0.00654163 0.00079198 
0.00551426 0.00162147 0.00132367 0.00111958 0.00660473 0.00070678 0.00754999 0.00574829 0.00979855 0.00380137 0.00820900 0.00149288 0.01285585 0.00096693 0.00664597 0.00077984 
0.00546087 0.00159033 0.00129931 0.00105685 0.00666124 0.00068606 0.00760945 0.00585891 0.01009247 0.00386264 0.00823628 0.00149453 0.01276078 0.00097825 0.00674039 0.00076698 
0.00540491 0.00156315 0.00127783 0.00100101 0.00671299 0.00066823 0.00766876 0.00596733 0.01038048 0.00392112 0.00827012 0.00149632 0.01265668 0.00098817 0.00682456 0.00075346 
0.00534685 0.00154019 0.00125912 0.00095198 0.00676008 0.00065329 0.00772803 0.00607316 0.01066165 0.00397660 0.00831034 0.00149828 0.01254414 0.00099667 0.00689822 0.00073936 
0.00528721 0.00152169 0.00124304 0.00090963 0.00680263 0.00064120 0.00778737 0.00617599 0.01093508 0.00402889 0.00835674 0.00150045 0.01242375 0.00100373 0.00696113 0.00072471 
0.00522652 0.00150787 0.00122949 0.00087380 0.00684076 0.00063195 0.00784690 0.00627544 0.01119992 0.00407779 0.00840907 0.00150285 0.01229616 0.00100931 0.00701312 0.00070960 
0.00516534 0.00149894 0.00121833 0.00084431 0.00687463 0.00062546 0.00790675 0.00637113 0.01145535 0.00412314 0.00846702 0.00150552 0.01216202 0.00101343 0.00705403 0.00069408 
0.00510423 0.00149510 0.00120946 0.00082092 0.00690440 0.00062168 0.00796703 0.00646270 0.01170062 0.00416481 0.00853027 0.00150848 0.01202204 0.00101606 0.00708378 0.00067821 
0.00504379 0.00149653 0.00120276 0.00080342 0.00693027 0.00062051 0.00802787 0.00654979 0.01193501 0.00420268 0.00859844 0.00151177 0.01187693 0.00101723 0.00710234 0.00066205 
0.00498460 0.00150338 0.00119812 0.00079152 0.00695243 0.00062187 0.00808942 0.00663208 0.01215790 0.00423663 0.00867113 0.00151541 0.01172743 0.00101692 0.00710972 0.00064568 
0.00492726 0.00151579 0.00119543 0.00078495 0.00697109 0.00062565 0.00815179 0.00670926 0.01236870 0.00426659 0.00874791 0.00151942 0.01157428 0.00101517 0.00710596 0.00062914 
0.00487238 0.00153388 0.00119461 0.00078340 0.00698646 0.00063172 0.00821511 0.00678104 0.01256691 0.00429251 0.00882834 0.00152383 0.01141824 0.00101199 0.00709120 0.00061250 
0.00482058 0.00155774 0.00119557 0.00078655 0.00699878 0.00063996 0.00827951 0.00684716 0.01275211 0.00431436 0.00891193 0.00152866 0.01126008 0.00100742 0.00706557 0.00059581 
0.00477244 0.00158745 0.00119823 0.00079408 0.00700827 0.00065022 0.00834510 0.00690737 0.01292396 0.00433211 0.00899820 0.00153393 0.01110058 0.00100147 0.00702930 0.00057914 
0.00472858 0.00162304 0.00120252 0.00080563 0.00701518 0.00066236 0.00841200 0.00696147 0.01308220 0.00434580 0.00908666 0.00153967 0.01094051 0.00099420 0.00698265 0.00056254 
0.00468959 0.00166454 0.00120838 0.00082086 0.00701974 0.00067621 0.00848031 0.00700926 0.01322665 0.00435546 0.00917680 0.00154588 0.01078062 0.00098565 0.00692590 0.00054607 
0.00465604 0.00171194 0.00121576 0.00083941 0.00702219 0.00069163 0.00855012 0.00705058 0.01335725 0.00436115 0.00926813 0.00155259 0.01062169 0.00097587 0.00685942 0.00052976 
0.00462850 0.00176522 0.00122464 0.00086093 0.00702277 0.00070845 0.00862151 0.00708532 0.01347399 0.00436296 0.00936014 0.00155979 0.01046445 0.00096491 0.00678360 0.00051368 
0.00460751 0.00182430 0.00123498 0.00088504 0.00702172 0.00072649 0.00869455 0.00711337 0.01357698 0.00436100 0.00945235 0.00156751 0.01030965 0.00095284 0.00669886 0.00049787 
0.00459359 0.00188911 0.00124677 0.00091140 0.00701926 0.00074558 0.00876930 0.00713466 0.01366642 0.00435540 0.00954427 0.00157575 0.01015799 0.00093973 0.00660569 0.00048238 
0.00458724 0.00195953 0.00125999 0.00093965 0.00701561 0.00076556 0.00884579 0.00714915 0.01374261 0.00434631 0.00963544 0.00158451 0.01001017 0.00092563 0.00650459 0.00046723 
0.00458893 0.00203541 0.00127466 0.00096944 0.00701098 0.00078624 0.00892404 0.00715685 0.01380593 0.00433390 0.00972541 0.00159379 0.00986684 0.00091064 0.00639611 0.00045248 
0.00459907 0.00211660 0.00129079 0.00100043 0.00700557 0.00080746 0.00900405 0.00715778 0.01385686 0.00431837 0.00981377 0.00160359 0.00972865 0.00089481 0.00628081 0.00043816 
0.00461808 0.00220290 0.00130840 0.00103229 0.00699956 0.00082904 0.00908579 0.00715199 0.01389596 0.00429993 0.00990013 0.00161390 0.00959620 0.00087824 0.00615931 0.00042430 
0.00464630 0.00229408 0.00132752 0.00106470 0.00699313 0.00085081 0.00916923 0.00713958 0.01392389 0.00427878 0.00998412 0.00162472 0.00947004 0.00086101 0.00603223 0.00041094 
0.00468407 0.00238990 0.00134817 0.00109736 0.00698644 0.00087262 0.00925430 0.00712065 0.01394139 0.00425519 0.01006541 0.00163604 0.00935072 0.00084321 0.00590021 0.00039808 
0.00473164 0.00249009 0.00137041 0.00112997 0.00697960 0.00089430 0.00934090 0.00709535 0.01394928 0.00422939 0.01014371 0.00164783 0.00923872 0.00082492 0.00576392 0.00038577 
0.00478924 0.00259435 0.00139428 0.00116225 0.00697276 0.00091570 0.00942892 0.00706386 0.01394846 0.00420165 0.01021877 0.00166007 0.00913448 0.00080623 0.00562403 0.00037403 
0.00485707 0.00270237 0.00141982 0.00119396 0.00696599 0.00093667 0.00951822 0.00702637 0.01393988 0.00417224 0.01029036 0.00167276 0.00903841 0.00078724 0.00548124 0.00036286 
0.00493523 0.00281380 0.00144708 0.00122485 0.00695938 0.00095708 0.00960864 0.00698312 0.01392458 0.00414143 0.01035832 0.00168585 0.00895086 0.00076803 0.00533624 0.00035228 
0.00502382 0.00292829 0.00147611 0.00125470 0.00695299 0.00097678 0.00969998 0.00693435 0.01390365 0.00410952 0.01042251 0.00169933 0.00887213 0.00074871 0.00518971 0.00034232 
0.00512285 0.00304546 0.00150697 0.00128331 0.00694684 0.00099566 0.00979202 0.00688032 0.01387822 0.00407677 0.01048284 0.00171315 0.00880249 0.00072936 0.00504236 0.00033296 
0.00523231 0.00316492 0.00153969 0.00131050 0.00694095 0.00101359 0.00988453 0.00682134 0.01384949 0.00404347 0.01053928 0.00172728 0.00874214 0.00071007 0.00489486 0.00032424 
0.00535210 0.00328626 0.00157433 0.00133611 0.00693529 0.00103048 0.00997723 0.00675771 0.01381866 0.00400992 0.01059182 0.00174169 0.00869123 0.00069093 0.00474791 0.00031614 
0.00548209 0.00340907 0.00161091 0.00136000 0.00692985 0.00104623 0.01006982 0.00668976 0.01378701 0.00397638 0.01064050 0.00175633 0.00864988 0.00067204 0.00460215 0.00030867 
0.00562209 0.00353291 0.00164947 0.00138206 0.00692455 0.00106076 0.01016200 0.00661784 0.01375579 0.00394313 0.01068542 0.00177116 0.00861814 0.00065349 0.00445825 0.00030183 
0.00577185 0.00365734 0.00169004 0.00140218 0.00691931 0.00107398 0.01025342 0.00654228 0.01372629 0.00391044 0.01072670 0.00178612 0.00859600 0.00063534 0.00431681 0.00029562 
0.00593108 0.00378194 0.00173263 0.00142030 0.00691404 0.00108583 0.01034371 0.00646346 0.01369979 0.00387855 0.01076452 0.00180117 0.00858342 0.00061770 0.00417846 0.00029003 
0.00609943 0.00390624 0.00177725 0.00143635 0.00690860 0.00109627 0.01043250 0.00638176 0.01367759 0.00384772 0.01079909 0.00181626 0.00858031 0.00060064 0.00404375 0.00028506 
0.00627650 0.00402981 0.00182388 0.00145030 0.00690286 0.00110524 0.01051938 0.00629754 0.01366094 0.00381816 0.01083065 0.00183132 0.00858652 0.00058424 0.00391325 0.00028069 
0.00646183 0.00415221 0.00187252 0.00146214 0.00689665 0.00111272 0.01060393 0.00621120 0.01365109 0.00379011 0.01085950 0.00184631 0.00860186 0.00056856 0.00378745 0.00027693 
0.00665493 0.00427299 0.00192314 0.00147187 0.00688978 0.00111869 0.01068572 0.00612311 0.01364926 0.00376374 0.01088595 0.00186115 0.00862609 0.00055368 0.00366684 0.00027376 
0.00685525 0.00439173 0.00197568 0.00147950 0.00688207 0.00112314 0.01076430 0.00603366 0.01365661 0.00373924 0.01091036 0.00187580 0.00865892 0.00053965 0.00355185 0.00027116 
0.00706222 0.00450800 0.00203009 0.00148509 0.00687329 0.00112606 0.01083921 0.00594323 0.01367427 0.00371677 0.01093309 0.00189019 0.00870002 0.00052654 0.00344289 0.00026913 
0.00727521 0.00462139 0.00208631 0.00148867 0.00686322 0.00112747 0.01090999 0.00585219 0.01370330 0.00369646 0.01095456 0.00190425 0.00874905 0.00051440 0.00334032 0.00026765 
0.00749356 0.00473152 0.00214424 0.00149033 0.00685162 0.00112740 0.01097618 0.00576092 0.01374470 0.00367844 0.01097520 0.00191792 0.00880558 0.00050328 0.00324444 0.00026671 
0.00771658 0.00483801 0.00220378 0.00149013 0.00683825 0.00112587 0.01103729 0.00566977 0.01379938 0.00366278 0.01099544 0.00193114 0.00886918 0.00049321 0.00315553 0.00026628 
0.00794354 0.00494050 0.00226481 0.00148819 0.00682285 0.00112293 0.01109285 0.00557909 0.01386819 0.00364957 0.01101575 0.00194384 0.00893937 0.00048424 0.00307381 0.00026636 
0.00817371 0.00503866 0.00232721 0.00148461 0.00680517 0.00111862 0.01114240 0.00548922 0.01395189 0.00363884 0.01103661 0.00195595 0.00901567 0.00047639 0.00299946 0.00026693 
0.00840630 0.00513217 0.00239081 0.00147950 0.00678493 0.00111301 0.01118547 0.00540049 0.01405113 0.00363062 0.01105848 0.00196743 0.00909752 0.00046969 0.00293262 0.00026796 
0.00864054 0.00522076 0.00245547 0.00147300 0.00676188 0.00110617 0.01122162 0.00531318 0.01416646 0.00362490 0.01108187 0.00197819 0.00918439 0.00046414 0.00287336 0.00026945 
0.00887562 0.00530418 0.00252100 0.00146523 0.00673576 0.00109816 0.01125040 0.00522761 0.01429834 0.00362165 0.01110726 0.00198819 0.00927570 0.00045977 0.00282173 0.00027137 
0.00911073 0.00538218 0.00258722 0.00145635 0.00670631 0.00108907 0.01127139 0.00514403 0.01444710 0.00362083 0.01113513 0.00199735 0.00937085 0.00045657 0.00277773 0.00027371 
0.00934507 0.00545459 0.00265391 0.00144649 0.00667328 0.00107900 0.01128418 0.00506271 0.01461296 0.00362234 0.01116596 0.00200564 0.00946923 0.00045454 0.00274129 0.00027645 
0.00957781 0.00552124 0.00272087 0.00143581 0.00663643 0.00106803 0.01128839 0.00498386 0.01479603 0.00362611 0.01120024 0.00201298 0.00957023 0.00045367 0.00271233 0.00027957 
0.00980816 0.00558200 0.00278788 0.00142447 0.00659553 0.00105627 0.01128366 0.00490770 0.01499630 0.00363200 0.01123842 0.00201934 0.00967321 0.00045393 0.00269071 0.00028305 
0.01003530 0.00563679 0.00285469 0.00141262 0.00655036 0.00104382 0.01126967 0.00483442 0.01521362 0.00363987 0.01128094 0.00202465 0.00977754 0.00045532 0.00267624 0.00028688 
0.01025845 0.00568554 0.00292106 0.00140042 0.00650072 0.00103079 0.01124611 0.00476418 0.01544772 0.00364955 0.01132823 0.00202889 0.00988259 0.00045778 0.00266871 0.00029104 
0.01047683 0.00572823 0.00298675 0.00138802 0.00644642 0.00101729 0.01121272 0.00469711 0.01569822 0.00366088 0.01138070 0.00203200 0.00998770 0.00046129 0.00266787 0.00029551 
0.01068970 0.00576488 0.00305149 0.00137558 0.00638731 0.00100344 0.01116926 0.00463334 0.01596460 0.00367364 0.01143872 0.00203395 0.01009225 0.00046580 0.00267340 0.00030027 
0.01089633 0.00579554 0.00311504 0.00136325 0.00632325 0.00098935 0.01111555 0.00457296 0.01624623 0.00368762 0.01150265 0.00203471 0.01019561 0.00047126 0.00268501 0.00030531 
0.01109603 0.00582031 0.00317712 0.00135118 0.00625411 0.00097515 0.01105143 0.00451603 0.01654234 0.00370260 0.01157281 0.00203425 0.01029716 0.00047762 0.00270232 0.00031061 
0.01128811 0.00583929 0.00323748 0.00133952 0.00617981 0.00096095 0.01097679 0.00446261 0.01685206 0.00371833 0.01164949 0.00203256 0.01039630 0.00048480 0.00272495 0.00031615 
0.01147196 0.00585265 0.00329586 0.00132840 0.00610027 0.00094687 0.01089157 0.00441270 0.01717439 0.00373455 0.01173295 0.00202961 0.01049242 0.00049274 0.00275251 0.00032192 
0.01164699 0.00586058 0.00335200 0.00131795 0.00601547 0.00093304 0.01079575 0.00436632 0.01750824 0.00375102 0.01182341 0.00202540 0.01058495 0.00050137 0.00278455 0.00032789 
0.01181264 0.00586331 0.00340565 0.00130831 0.00592540 0.00091956 0.01068935 0.00432342 0.01785239 0.00376745 0.01192105 0.00201992 0.01067334 0.00051060 0.00282062 0.00033406 
0.01196840 0.00586108 0.00345656 0.00129959 0.00583007 0.00090655 0.01057245 0.00428397 0.01820553 0.00378358 0.01202601 0.00201318 0.01075704 0.00052036 0.00286027 0.00034040 
0.01211382 0.00585419 0.00350450 0.00129191 0.00572956 0.00089413 0.01044516 0.00424791 0.01856627 0.00379913 0.01213840 0.00200518 0.01083555 0.00053055 0.00290302 0.00034690 
0.01224848 0.00584295 0.00354924 0.00128536 0.00562394 0.00088240 0.01030766 0.00421513 0.01893311 0.00381383 0.01225827 0.00199594 0.01090837 0.00054109 0.00294837 0.00035353 
0.01237202 0.00582769 0.00359056 0.00128005 0.00551333 0.00087148 0.01016016 0.00418553 0.01930450 0.00382740 0.01238563 0.00198548 0.01097505 0.00055187 0.00299584 0.00036029 
0.01248412 0.00580877 0.00362826 0.00127605 0.00539790 0.00086145 0.01000294 0.00415898 0.01967878 0.00383958 0.01252047 0.00197383 0.01103515 0.00056281 0.00304492 0.00036715 
0.01258453 0.00578657 0.00366217 0.00127344 0.00527782 0.00085243 0.00983629 0.00413535 0.02005426 0.00385009 0.01266271 0.00196102 0.01108827 0.00057380 0.00309513 0.00037410 
0.01267304 0.00576151 0.00369211 0.00127229 0.00515332 0.00084449 0.00966059 0.00411447 0.02042919 0.00385870 0.01281223 0.00194709 0.01113404 0.00058474 0.00314595 0.00038112 
0.01274948 0.00573398 0.00371792 0.00127266 0.00502466 0.00083773 0.00947623 0.00409616 0.02080178 0.00386514 0.01296887 0.00193209 0.01117212 0.00059553 0.00319691 0.00038819 
0.01281376 0.00570442 0.00373950 0.00127460 0.00489212 0.00083222 0.00928367 0.00408025 0.02117018 0.00386919 0.01313242 0.00191608 0.01120221 0.00060606 0.00324753 0.00039529 
0.01286582 0.00567327 0.00375671 0.00127813 0.00475601 0.00082804 0.00908339 0.00406653 0.02153257 0.00387063 0.01330264 0.00189910 0.01122404 0.00061623 0.00329733 0.00040239 
0.01290566 0.00564097 0.00376948 0.00128330 0.00461668 0.00082526 0.00887593 0.00405479 0.02188706 0.00386924 0.01347923 0.00188124 0.01123737 0.00062594 0.00334585 0.00040949 
0.01293333 0.00560797 0.00377775 0.00129011 0.00447452 0.00082393 0.00866186 0.00404481 0.02223179 0.00386486 0.01366185 0.00186255 0.01124201 0.00063509 0.00339267 0.00041656 
0.01294893 0.00557473 0.00378147 0.00129859 0.00432993 0.00082410 0.00844178 0.00403637 0.02256491 0.00385729 0.01385014 0.00184313 0.01123779 0.00064358 0.00343736 0.00042358 
0.01295260 0.00554169 0.00378064 0.00130872 0.00418333 0.00082582 0.00821633 0.00402924 0.02288459 0.00384641 0.01404365 0.00182303 0.01122458 0.00065130 0.00347953 0.00043053 
0.01294454 0.00550929 0.00377527 0.00132051 0.00403520 0.00082913 0.00798617 0.00402318 0.02318901 0.00383207 0.01424195 0.00180236 0.01120229 0.00065818 0.00351879 0.00043739 
0.01292497 0.00547797 0.00376540 0.00133394 0.00388600 0.00083405 0.00775200 0.00401796 0.02347642 0.00381418 0.01444453 0.00178121 0.01117088 0.00066411 0.00355479 0.00044413 
0.01289417 0.00544815 0.00375109 0.00134897 0.00373624 0.00084060 0.00751453 0.00401333 0.02374510 0.00379265 0.01465086 0.00175966 0.01113032 0.00066902 0.00358722 0.00045074 
0.01285246 0.00542024 0.00373245 0.00136559 0.00358644 0.00084880 0.00727451 0.00400906 0.02399342 0.00376742 0.01486038 0.00173782 0.01108063 0.00067282 0.00361578 0.00045718 
0.01280017 0.00539464 0.00370959 0.00138375 0.00343713 0.00085864 0.00703267 0.00400492 0.02421979 0.00373845 0.01507249 0.00171578 0.01102187 0.00067544 0.00364019 0.00046344 
0.01273769 0.00537171 0.00368266 0.00140340 0.00328888 0.00087013 0.00678978 0.00400067 0.02442272 0.00370575 0.01528656 0.00169366 0.01095412 0.00067681 0.00366023 0.00046950 
0.01266542 0.00535182 0.00365183 0.00142449 0.00314223 0.00088326 0.00654662 0.00399608 0.02460083 0.00366931 0.01550193 0.00167155 0.01087750 0.00067687 0.00367568 0.00047533 
0.01258380 0.00533529 0.00361732 0.00144697 0.00299776 0.00089799 0.00630395 0.00399093 0.02475282 0.00362919 0.01571793 0.00164956 0.01079218 0.00067557 0.00368639 0.00048090 
0.01249328 0.00532241 0.00357934 0.00147077 0.00285605 0.00091431 0.00606257 0.00398502 0.02487750 0.00358546 0.01593386 0.00162779 0.01069833 0.00067286 0.00369219 0.00048620 
0.01239434 0.00531347 0.00353815 0.00149581 0.00271768 0.00093217 0.00582323 0.00397813 0.02497382 0.00353819 0.01614899 0.00160637 0.01059617 0.00066870 0.00369300 0.00049120 
0.01228747 0.00530871 0.00349404 0.00152204 0.00258324 0.00095155 0.00558670 0.00397007 0.02504085 0.00348750 0.01636260 0.00158538 0.01048595 0.00066308 0.00368872 0.00049588 
0.01217318 0.00530834 0.00344729 0.00154936 0.00245329 0.00097238 0.00535374 0.00396066 0.02507778 0.00343354 0.01657392 0.00156495 0.01036796 0.00065596 0.00367932 0.00050021 
0.01205196 0.00531253 0.00339824 0.00157770 0.00232842 0.00099461 0.00512509 0.00394973 0.02508396 0.00337647 0.01678222 0.00154517 0.01024248 0.00064735 0.00366479 0.00050418 
0.01192435 0.00532144 0.00334724 0.00160696 0.00220919 0.00101818 0.00490146 0.00393711 0.02505887 0.00331646 0.01698671 0.00152614 0.01010986 0.00063724 0.00364515 0.00050776 
0.01179086 0.00533518 0.00329464 0.00163707 0.00209615 0.00104302 0.00468356 0.00392267 0.02500217 0.00325372 0.01718664 0.00150797 0.00997043 0.00062565 0.00362044 0.00051094 
0.01165201 0.00535381 0.00324083 0.00166794 0.00198985 0.00106906 0.00447205 0.00390627 0.02491364 0.00318849 0.01738124 0.00149075 0.00982458 0.00061261 0.00359075 0.00051368 
0.01150832 0.00537739 0.00318622 0.00169947 0.00189080 0.00109622 0.00426758 0.00388780 0.02479325 0.00312099 0.01756975 0.00147457 0.00967271 0.00059814 0.00355619 0.00051599 
0.01136029 0.00540591 0.00313121 0.00173156 0.00179952 0.00112441 0.00407074 0.00386717 0.02464112 0.00305149 0.01775143 0.00145952 0.00951522 0.00058229 0.00351690 0.00051783 
0.01120842 0.00543935 0.00307624 0.00176413 0.00171649 0.00115355 0.00388213 0.00384428 0.02445753 0.00298026 0.01792552 0.00144568 0.00935255 0.00056512 0.00347303 0.00051919 
0.01105320 0.00547764 0.00302174 0.00179707 0.00164215 0.00118355 0.00370227 0.00381907 0.02424293 0.00290760 0.01809131 0.00143313 0.00918514 0.00054671 0.00342478 0.00052006 
0.01089510 0.00552068 0.00296817 0.00183030 0.00157694 0.00121431 0.00353166 0.00379150 0.02399793 0.00283380 0.01824810 0.00142194 0.00901345 0.00052712 0.00337235 0.00052042 
0.01073458 0.00556834 0.00291599 0.00186372 0.00152126 0.00124574 0.00337076 0.00376154 0.02372332 0.00275917 0.01839520 0.00141217 0.00883796 0.00050644 0.00331599 0.00052027 
0.01057208 0.00562045 0.00286565 0.00189724 0.00147547 0.00127774 0.00321996 0.00372916 0.02342004 0.00268403 0.01853197 0.00140388 0.00865913 0.00048479 0.00325593 0.00051959 
0.01040800 0.00567683 0.00281762 0.00193075 0.00143991 0.00131020 0.00307962 0.00369437 0.02308919 0.00260871 0.01865779 0.00139711 0.00847746 0.00046227 0.00319245 0.00051838 
0.01024275 0.00573724 0.00277237 0.00196418 0.00141487 0.00134304 0.00295007 0.00365720 0.02273202 0.00253354 0.01877207 0.00139191 0.00829343 0.00043899 0.00312583 0.00051664 
0.01007670 0.00580145 0.00273037 0.00199742 0.00140061 0.00137615 0.00283157 0.00361767 0.02234995 0.00245884 0.01887426 0.00138831 0.00810755 0.00041510 0.00305637 0.00051435 
0.00991019 0.00586917 0.00269207 0.00203039 0.00139733 0.00140943 0.00272432 0.00357584 0.02194453 0.00238496 0.01896386 0.00138633 0.00792030 0.00039073 0.00298438 0.00051153 
0.00974355 0.00594011 0.00265795 0.00206301 0.00140523 0.00144277 0.00262849 0.00353179 0.02151745 0.00231221 0.01904042 0.00138600 0.00773217 0.00036603 0.00291018 0.00050817 
0.00957707 0.00601396 0.00262843 0.00209518 0.00142443 0.00147609 0.00254419 0.00348560 0.02107055 0.00224093 0.01910351 0.00138731 0.00754366 0.00034115 0.00283409 0.00050427 
0.00941103 0.00609039 0.00260398 0.00212684 0.00145502 0.00150929 0.00247149 0.00343736 0.02060577 0.00217144 0.01915278 0.00139026 0.00735525 0.00031626 0.00275643 0.00049985 
0.00924567 0.00616903 0.00258501 0.00215789 0.00149704 0.00154227 0.00241038 0.00338720 0.02012520 0.00210405 0.01918793 0.00139484 0.00716743 0.00029152 0.00267756 0.00049492 
0.00908122 0.00624955 0.00257194 0.00218827 0.00155049 0.00157494 0.00236084 0.00333525 0.01963100 0.00203906 0.01920869 0.00140103 0.00698065 0.00026711 0.00259779 0.00048948 
0.00891787 0.00633156 0.00256518 0.00221791 0.00161533 0.00160722 0.00232276 0.00328165 0.01912545 0.00197677 0.01921489 0.00140880 0.00679538 0.00024321 0.00251746 0.00048356 
0.00875579 0.00641470 0.00256509 0.00224673 0.00169145 0.00163901 0.00229601 0.00322656 0.01861092 0.00191745 0.01920638 0.00141811 0.00661207 0.00021999 0.00243690 0.00047716 
0.00859514 0.00649859 0.00257205 0.00227468 0.00177873 0.00167026 0.00228041 0.00317015 0.01808983 0.00186138 0.01918310 0.00142891 0.00643114 0.00019764 0.00235644 0.00047032 
0.00843604 0.00658284 0.00258638 0.00230169 0.00187696 0.00170087 0.00227572 0.00311259 0.01756471 0.00180878 0.01914504 0.00144115 0.00625302 0.00017634 0.00227639 0.00046305 
0.00827859 0.00666710 0.00260842 0.00232771 0.00198594 0.00173078 0.00228167 0.00305409 0.01703808 0.00175990 0.01909225 0.00145475 0.00607810 0.00015627 0.00219706 0.00045537 
0.00812290 0.00675098 0.00263844 0.00235269 0.00210537 0.00175992 0.00229794 0.00299483 0.01651256 0.00171495 0.01902486 0.00146965 0.00590677 0.00013762 0.00211874 0.00044732 
0.00796902 0.00683413 0.00267671 0.00237658 0.00223493 0.00178825 0.00232417 0.00293503 0.01599075 0.00167412 0.01894304 0.00148577 0.00573939 0.00012056 0.00204173 0.00043893 
0.00781702 0.00691620 0.00272347 0.00239935 0.00237428 0.00181569 0.00235998 0.00287490 0.01547529 0.00163756 0.01884704 0.00150300 0.00557631 0.00010527 0.00196630 0.00043022 
0.00766693 0.00699686 0.00277892 0.00242095 0.00252300 0.00184222 0.00240492 0.00281466 0.01496880 0.00160544 0.01873717 0.00152127 0.00541783 0.00009191 0.00189270 0.00042123 
0.00751877 0.00707579 0.00284324 0.00244136 0.00268065 0.00186778 0.00245855 0.00275455 0.01447391 0.00157786 0.01861380 0.00154046 0.00526426 0.00008065 0.00182118 0.00041200 
0.00737258 0.00715269 0.00291656 0.00246055 0.00284675 0.00189234 0.00252037 0.00269479 0.01399321 0.00155493 0.01847736 0.00156046 0.00511588 0.00007164 0.00175195 0.00040257 
0.00722837 0.00722728 0.00299899 0.00247850 0.00302080 0.00191588 0.00258986 0.00263562 0.01352924 0.00153672 0.01832834 0.00158117 0.00497293 0.00006502 0.00168523 0.00039296 
0.00708613 0.00729931 0.00309061 0.00249520 0.00320222 0.00193837 0.00266649 0.00257728 0.01308449 0.00152328 0.01816728 0.00160246 0.00483564 0.00006093 0.00162120 0.00038323 
0.00694586 0.00736855 0.00319146 0.00251063 0.00339045 0.00195980 0.00274969 0.00251999 0.01266138 0.00151462 0.01799478 0.00162420 0.00470420 0.00005949 0.00156003 0.00037341 
0.00680758 0.00743479 0.00330153 0.00252480 0.00358488 0.00198015 0.00283890 0.00246400 0.01226228 0.00151075 0.01781150 0.00164628 0.00457880 0.00006079 0.00150186 0.00036355 
0.00667128 0.00749787 0.00342079 0.00253770 0.00378487 0.00199943 0.00293351 0.00240954 0.01188941 0.00151162 0.01761811 0.00166856 0.00445958 0.00006495 0.00144682 0.00035369 
0.00653697 0.00755763 0.00354917 0.00254934 0.00398976 0.00201763 0.00303293 0.00235685 0.01154492 0.00151720 0.01741536 0.00169090 0.00434665 0.00007203 0.00139502 0.00034387 
0.00640465 0.00761397 0.00368655 0.00255973 0.00419886 0.00203477 0.00313655 0.00230615 0.01123085 0.00152739 0.01720401 0.00171319 0.00424013 0.00008210 0.00134654 0.00033413 
0.00627434 0.00766680 0.00383279 0.00256888 0.00441149 0.00205085 0.00324375 0.00225766 0.01094908 0.00154209 0.01698489 0.00173527 0.00414007 0.00009519 0.00130143 0.00032452 
0.00614608 0.00771606 0.00398770 0.00257683 0.00462693 0.00206590 0.00335392 0.00221160 0.01070136 0.00156116 0.01675882 0.00175702 0.00404652 0.00011133 0.00125975 0.00031508 
0.00601988 0.00776174 0.00415106 0.00258360 0.00484445 0.00207994 0.00346644 0.00216819 0.01048931 0.00158447 0.01652667 0.00177830 0.00395950 0.00013053 0.00122151 0.00030585 
0.00589580 0.00780385 0.00432261 0.00258922 0.00506332 0.00209300 0.00358070 0.00212762 0.01031436 0.00161182 0.01628931 0.00179899 0.00387901 0.00015276 0.00118671 0.00029688 
0.00577391 0.00784243 0.00450203 0.00259372 0.00528281 0.00210510 0.00369611 0.00209009 0.01017778 0.00164303 0.01604765 0.00181895 0.00380501 0.00017800 0.00115534 0.00028819 
0.00565428 0.00787756 0.00468901 0.00259715 0.00550217 0.00211630 0.00381206 0.00205577 0.01008067 0.00167786 0.01580259 0.00183805 0.00373745 0.00020617 0.00112734 0.00027984 
0.00553700 0.00790933 0.00488317 0.00259956 0.00572066 0.00212662 0.00392798 0.00202484 0.01002394 0.00171610 0.01555503 0.00185618 0.00367626 0.00023721 0.00110267 0.00027186 
0.00542218 0.00793789 0.00508410 0.00260098 0.00593756 0.00213610 0.00404330 0.00199746 0.01000832 0.00175748 0.01530588 0.00187322 0.00362132 0.00027100 0.00108124 0.00026428 
0.00530994 0.00796339 0.00529135 0.00260148 0.00615213 0.00214480 0.00415747 0.00197376 0.01003432 0.00180173 0.01505603 0.00188905 0.00357253 0.00030743 0.00106296 0.00025713 
0.00520045 0.00798602 0.00550446 0.00260112 0.00636367 0.00215276 0.00426997 0.00195389 0.01010227 0.00184856 0.01480638 0.00190357 0.00352974 0.00034634 0.00104773 0.00025045 
0.00509385 0.00800600 0.00572292 0.00259994 0.00657146 0.00216003 0.00438028 0.00193796 0.01021229 0.00189768 0.01455779 0.00191668 0.00349279 0.00038757 0.00103541 0.00024426 
0.00499033 0.00802355 0.00594619 0.00259802 0.00677482 0.00216666 0.00448793 0.00192606 0.01036430 0.00194878 0.01431111 0.00192828 0.00346150 0.00043093 0.00102588 0.00023859 
0.00489011 0.00803894 0.00617370 0.00259541 0.00697308 0.00217269 0.00459245 0.00191828 0.01055801 0.00200153 0.01406714 0.00193830 0.00343568 0.00047620 0.00101897 0.00023345 
0.00479339 0.00805244 0.00640486 0.00259219 0.00716561 0.00217818 0.00469340 0.00191470 0.01079292 0.00205562 0.01382668 0.00194665 0.00341511 0.00052315 0.00101452 0.00022888 
0.00470043 0.00806434 0.00663906 0.00258842 0.00735179 0.00218318 0.00479039 0.00191535 0.01106832 0.00211070 0.01359046 0.00195327 0.00339957 0.00057152 0.00101237 0.00022488 
0.00461147 0.00807494 0.00687564 0.00258417 0.00753102 0.00218774 0.00488304 0.00192028 0.01138331 0.00216645 0.01335920 0.00195809 0.00338881 0.00062106 0.00101233 0.00022146 
0.00452680 0.00808458 0.00711395 0.00257952 0.00770274 0.00219190 0.00497100 0.00192949 0.01173677 0.00222252 0.01313356 0.00196108 0.00338259 0.00067147 0.00101421 0.00021864 
0.00444671 0.00809356 0.00735330 0.00257452 0.00786643 0.00219571 0.00505396 0.00194299 0.01212742 0.00227857 0.01291413 0.00196219 0.00338064 0.00072245 0.00101781 0.00021642 
0.00437151 0.00810222 0.00759299 0.00256926 0.00802158 0.00219922 0.00513162 0.00196075 0.01255373 0.00233428 0.01270149 0.00196138 0.00338269 0.00077368 0.00102295 0.00021480 
0.00430151 0.00811090 0.00783231 0.00256380 0.00816774 0.00220247 0.00520374 0.00198272 0.01301405 0.00238931 0.01249614 0.00195866 0.00338845 0.00082483 0.00102940 0.00021378 
0.00423704 0.00811994 0.00807052 0.00255821 0.00830449 0.00220549 0.00527009 0.00200885 0.01350649 0.00244333 0.01229852 0.00195399 0.00339763 0.00087556 0.00103697 0.00021335 
0.00417846 0.00812967 0.00830690 0.00255255 0.00843145 0.00220832 0.00533049 0.00203906 0.01402904 0.00249603 0.01210902 0.00194740 0.00340995 0.00092551 0.00104545 0.00021350 
0.00412612 0.00814042 0.00854069 0.00254690 0.00854826 0.00221100 0.00538478 0.00207325 0.01457951 0.00254710 0.01192798 0.00193888 0.00342511 0.00097434 0.00105464 0.00021423 
0.00408036 0.00815252 0.00877115 0.00254131 0.00865463 0.00221355 0.00543282 0.00211131 0.01515555 0.00259624 0.01175565 0.00192847 0.00344279 0.00102167 0.00106433 0.00021551 
0.00404155 0.00816628 0.00899754 0.00253584 0.00875030 0.00221600 0.00547452 0.00215309 0.01575467 0.00264317 0.01159225 0.00191620 0.00346270 0.00106715 0.00107432 0.00021733 
0.00401006 0.00818200 0.00921909 0.00253055 0.00883505 0.00221836 0.00550982 0.00219845 0.01637428 0.00268763 0.01143792 0.00190210 0.00348454 0.00111040 0.00108441 0.00021965 
0.00398624 0.00819997 0.00943508 0.00252549 0.00890871 0.00222067 0.00553867 0.00224722 0.01701164 0.00272935 0.01129275 0.00188624 0.00350799 0.00115108 0.00109442 0.00022247 
0.00397046 0.00822045 0.00964477 0.00252072 0.00897114 0.00222292 0.00556108 0.00229922 0.01766391 0.00276812 0.01115676 0.00186868 0.00353275 0.00118883 0.00110417 0.00022574 
0.00396307 0.00824371 0.00984743 0.00251627 0.00902226 0.00222512 0.00557705 0.00235424 0.01832819 0.00280371 0.01102991 0.00184948 0.00355853 0.00122329 0.00111346 0.00022943 
0.00396441 0.00826996 0.01004235 0.00251218 0.00906202 0.00222729 0.00558664 0.00241206 0.01900146 0.00283592 0.01091212 0.00182874 0.00358502 0.00125414 0.00112215 0.00023351 
0.00397481 0.00829942 0.01022885 0.00250849 0.00909042 0.00222942 0.00558991 0.00247246 0.01968068 0.00286460 0.01080324 0.00180654 0.00361194 0.00128105 0.00113007 0.00023794 
0.00399460 0.00833226 0.01040624 0.00250523 0.00910751 0.00223149 0.00558697 0.00253520 0.02036274 0.00288958 0.01070307 0.00178298 0.00363899 0.00130371 0.00113707 0.00024269 
0.00402407 0.00836864 0.01057389 0.00250242 0.00911335 0.00223352 0.00557792 0.00260001 0.02104450 0.00291074 0.01061137 0.00175816 0.00366589 0.00132185 0.00114302 0.00024771 
0.00406352 0.00840869 0.01073116 0.00250008 0.00910808 0.00223547 0.00556291 0.00266664 0.02172280 0.00292797 0.01052785 0.00173220 0.00369238 0.00133520 0.00114780 0.00025296 
0.00411319 0.00845251 0.01087746 0.00249822 0.00909186 0.00223733 0.00554209 0.00273481 0.02239450 0.00294120 0.01045217 0.00170521 0.00371817 0.00134353 0.00115129 0.00025840 
0.00417333 0.00850016 0.01101224 0.00249685 0.00906489 0.00223909 0.00551565 0.00280423 0.02305645 0.00295038 0.01038396 0.00167732 0.00374302 0.00134662 0.00115340 0.00026397 
0.00424414 0.00855168 0.01113495 0.00249597 0.00902739 0.00224072 0.00548376 0.00287461 0.02370554 0.00295546 0.01032282 0.00164864 0.00376668 0.00134431 0.00115405 0.00026964 
0.00432579 0.00860707 0.01124513 0.00249558 0.00897966 0.00224218 0.00544666 0.00294566 0.02433871 0.00295645 0.01026830 0.00161933 0.00378890 0.00133644 0.00115316 0.00027536 
0.00441844 0.00866632 0.01134230 0.00249565 0.00892199 0.00224345 0.00540454 0.00301707 0.02495296 0.00295337 0.01021996 0.00158949 0.00380946 0.00132290 0.00115068 0.00028109 
0.00452218 0.00872935 0.01142607 0.00249618 0.00885472 0.00224449 0.00535765 0.00308855 0.02554536 0.00294626 0.01017730 0.00155929 0.00382813 0.00130364 0.00114657 0.00028677 
0.00463710 0.00879609 0.01149608 0.00249714 0.00877821 0.00224527 0.00530623 0.00315978 0.02611308 0.00293519 0.01013984 0.00152885 0.00384472 0.00127862 0.00114080 0.00029236 
0.00476321 0.00886640 0.01155201 0.00249849 0.00869287 0.00224574 0.00525052 0.00323047 0.02665337 0.00292025 0.01010705 0.00149831 0.00385902 0.00124785 0.00113338 0.00029782 
0.00490052 0.00894013 0.01159360 0.00250022 0.00859912 0.00224588 0.00519080 0.00330031 0.02716363 0.00290155 0.01007843 0.00146781 0.00387086 0.00121140 0.00112429 0.00030311 
0.00504896 0.00901710 0.01162062 0.00250226 0.00849740 0.00224563 0.00512731 0.00336901 0.02764137 0.00287924 0.01005345 0.00143749 0.00388005 0.00116937 0.00111357 0.00030817 
0.00520843 0.00909709 0.01163292 0.00250459 0.00838818 0.00224495 0.00506033 0.00343626 0.02808426 0.00285346 0.01003160 0.00140748 0.00388645 0.00112191 0.00110124 0.00031299 
0.00537880 0.00917986 0.01163038 0.00250714 0.00827195 0.00224381 0.00499013 0.00350179 0.02849010 0.00282440 0.01001237 0.00137792 0.00388990 0.00106923 0.00108736 0.00031751 
0.00555985 0.00926513 0.01161296 0.00250987 0.00814920 0.00224215 0.00491698 0.00356531 0.02885689 0.00279225 0.00999525 0.00134895 0.00389028 0.00101156 0.00107199 0.00032170 
0.00575136 0.00935260 0.01158065 0.00251271 0.00802047 0.00223994 0.00484115 0.00362655 0.02918277 0.00275723 0.00997976 0.00132068 0.00388745 0.00094922 0.00105521 0.00032554 
0.00595303 0.00944195 0.01153351 0.00251561 0.00788627 0.00223713 0.00476291 0.00368526 0.02946609 0.00271955 0.00996544 0.00129324 0.00388132 0.00088255 0.00103711 0.00032898 
0.00616451 0.00953282 0.01147166 0.00251849 0.00774714 0.00223369 0.00468252 0.00374119 0.02970539 0.00267947 0.00995184 0.00126674 0.00387180 0.00081196 0.00101779 0.00033201 
0.00638542 0.00962484 0.01139526 0.00252129 0.00760365 0.00222957 0.00460026 0.00379410 0.02989940 0.00263724 0.00993853 0.00124131 0.00385880 0.00073789 0.00099738 0.00033460 
0.00661531 0.00971763 0.01130454 0.00252393 0.00745633 0.00222474 0.00451638 0.00384379 0.03004707 0.00259312 0.00992513 0.00121703 0.00384225 0.00066084 0.00097601 0.00033673 
0.00685370 0.00981076 0.01119978 0.00252635 0.00730574 0.00221915 0.00443114 0.00389004 0.03014754 0.00254738 0.00991127 0.00119402 0.00382211 0.00058136 0.00095380 0.00033839 
0.00710003 0.00990380 0.01108133 0.00252847 0.00715244 0.00221279 0.00434478 0.00393268 0.03020019 0.00250032 0.00989664 0.00117236 0.00379834 0.00050005 0.00093093 0.00033957 
0.00735372 0.00999632 0.01094957 0.00253021 0.00699698 0.00220562 0.00425755 0.00397154 0.03020461 0.00245221 0.00988093 0.00115213 0.00377092 0.00041755 0.00090754 0.00034025 
0.00761414 0.01008785 0.01080495 0.00253150 0.00683990 0.00219761 0.00416969 0.00400648 0.03016061 0.00240335 0.00986389 0.00113340 0.00373983 0.00033453 0.00088381 0.00034045 
0.00788061 0.01017793 0.01064796 0.00253227 0.00668176 0.00218874 0.00408143 0.00403736 0.03006820 0.00235402 0.00984530 0.00111625 0.00370508 0.00025172 0.00085992 0.00034015 
0.00815240 0.01026608 0.01047915 0.00253243 0.00652308 0.00217900 0.00399297 0.00406408 0.02992765 0.00230453 0.00982499 0.00110073 0.00366669 0.00016988 0.00083606 0.00033936 
0.00842875 0.01035183 0.01029912 0.00253193 0.00636438 0.00216837 0.00390455 0.00408656 0.02973942 0.00225515 0.00980282 0.00108688 0.00362470 0.00008980 0.00081241 0.00033809 
0.00870885 0.01043468 0.01010848 0.00253068 0.00620618 0.00215684 0.00381637 0.00410475 0.02950420 0.00220618 0.00977869 0.00107475 0.00357915 0.00001231 0.00078917 0.00033636 
0.00899188 0.01051415 0.00990793 0.00252862 0.00604897 0.00214440 0.00372862 0.00411858 0.02922287 0.00215789 0.00975255 0.00106436 0.00353010 0.00006174 0.00076655 0.00033418 
0.00927695 0.01058975 0.00969818 0.00252569 0.00589323 0.00213105 0.00364149 0.00412807 0.02889654 0.00211056 0.00972438 0.00105572 0.00347765 0.00013147 0.00074475 0.00033158 
0.00956317 0.01066101 0.00947998 0.00252183 0.00573942 0.00211681 0.00355518 0.00413319 0.02852652 0.00206445 0.00969420 0.00104886 0.00342187 0.00019599 0.00072398 0.00032857 
0.00984961 0.01072746 0.00925411 0.00251697 0.00558798 0.00210167 0.00346984 0.00413400 0.02811429 0.00201981 0.00966207 0.00104375 0.00336287 0.00025439 0.00070446 0.00032520 
0.01013533 0.01078862 0.00902139 0.00251106 0.00543934 0.00208566 0.00338565 0.00413052 0.02766155 0.00197688 0.00962808 0.00104041 0.00330079 0.00030575 0.00068638 0.00032148 
0.01041937 0.01084404 0.00878266 0.00250407 0.00529388 0.00206878 0.00330278 0.00412285 0.02717014 0.00193589 0.00959238 0.00103880 0.00323576 0.00034915 0.00066995 0.00031746 
0.01070074 0.01089328 0.00853876 0.00249594 0.00515198 0.00205108 0.00322137 0.00411108 0.02664210 0.00189705 0.00955512 0.00103890 0.00316793 0.00038366 0.00065539 0.00031318 
0.01097847 0.01093591 0.00829058 0.00248665 0.00501400 0.00203257 0.00314157 0.00409531 0.02607961 0.00186056 0.00951650 0.00104067 0.00309747 0.00040837 0.00064290 0.00030867 
0.01125156 0.01097154 0.00803900 0.00247615 0.00488025 0.00201329 0.00306354 0.00407568 0.02548499 0.00182658 0.00947675 0.00104406 0.00302456 0.00042238 0.00063267 0.00030399 
0.01151903 0.01099977 0.00778492 0.00246443 0.00475104 0.00199328 0.00298739 0.00405237 0.02486071 0.00179530 0.00943612 0.00104902 0.00294941 0.00042480 0.00062489 0.00029917 
0.01177990 0.01102024 0.00752923 0.00245147 0.00462663 0.00197259 0.00291327 0.00402552 0.02420934 0.00176683 0.00939489 0.00105548 0.00287222 0.00041476 0.00061977 0.00029427 
0.01203321 0.01103261 0.00727284 0.00243727 0.00450728 0.00195126 0.00284130 0.00399535 0.02353358 0.00174131 0.00935334 0.00106338 0.00279322 0.00039145 0.00061746 0.00028934 
0.01227800 0.01103657 0.00701663 0.00242181 0.00439320 0.00192934 0.00277162 0.00396206 0.02283621 0.00171885 0.00931180 0.00107263 0.00271266 0.00035404 0.00061815 0.00028443 
0.01251335 0.01103184 0.00676149 0.00240510 0.00428456 0.00190690 0.00270433 0.00392588 0.02212009 0.00169950 0.00927060 0.00108316 0.00263080 0.00030180 0.00062200 0.00027958 
0.01273837 0.01101816 0.00650829 0.00238716 0.00418155 0.00188399 0.00263955 0.00388705 0.02138816 0.00168335 0.00923008 0.00109487 0.00254789 0.00023401 0.00062915 0.00027485 
0.01295218 0.01099533 0.00625788 0.00236801 0.00408428 0.00186067 0.00257741 0.00384582 0.02064338 0.00167043 0.00919058 0.00110767 0.00246423 0.00015000 0.00063975 0.00027030 
0.01315396 0.01096315 0.00601109 0.00234766 0.00399287 0.00183702 0.00251801 0.00380245 0.01988878 0.00166075 0.00915247 0.00112145 0.00238012 0.00004919 0.00065392 0.00026598 
0.01334295 0.01092149 0.00576872 0.00232616 0.00390738 0.00181310 0.00246147 0.00375722 0.01912740 0.00165432 0.00911610 0.00113612 0.00229586 0.00006898 0.00067178 0.00026193 
0.01351840 0.01087022 0.00553155 0.00230355 0.00382788 0.00178899 0.00240789 0.00371042 0.01836229 0.00165112 0.00908183 0.00115157 0.00221177 0.00020497 0.00069342 0.00025821 
0.01367964 0.01080929 0.00530032 0.00227987 0.00375438 0.00176475 0.00235738 0.00366233 0.01759648 0.00165109 0.00905002 0.00116767 0.00212819 0.00035919 0.00071894 0.00025487 
0.01382607 0.01073866 0.00507572 0.00225519 0.00368689 0.00174047 0.00231005 0.00361326 0.01683299 0.00165418 0.00902102 0.00118433 0.00204546 0.00053195 0.00074839 0.00025195 
0.01395714 0.01065835 0.00485842 0.00222955 0.00362537 0.00171621 0.00226601 0.00356350 0.01607480 0.00166032 0.00899516 0.00120142 0.00196393 0.00072350 0.00078184 0.00024950 
0.01407236 0.01056841 0.00464904 0.00220304 0.00356977 0.00169206 0.00222535 0.00351335 0.01532486 0.00166940 0.00897278 0.00121884 0.00188397 0.00093400 0.00081932 0.00024755 
0.01417134 0.01046894 0.00444814 0.00217571 0.00352003 0.00166809 0.00218817 0.00346311 0.01458603 0.00168131 0.00895418 0.00123645 0.00180594 0.00116351 0.00086086 0.00024616 
0.01425376 0.01036010 0.00425625 0.00214767 0.00347604 0.00164438 0.00215459 0.00341309 0.01386111 0.00169592 0.00893966 0.00125415 0.00173022 0.00141202 0.00090645 0.00024535 
0.01431937 0.01024206 0.00407384 0.00211898 0.00343769 0.00162100 0.00212470 0.00336359 0.01315281 0.00171308 0.00892950 0.00127182 0.00165719 0.00167942 0.00095608 0.00024516 
0.01436801 0.01011506 0.00390132 0.00208973 0.00340484 0.00159803 0.00209859 0.00331490 0.01246374 0.00173265 0.00892396 0.00128934 0.00158724 0.00196551 0.00100972 0.00024561 
0.01439962 0.00997939 0.00373906 0.00206004 0.00337734 0.00157554 0.00207637 0.00326730 0.01179640 0.00175444 0.00892325 0.00130660 0.00152075 0.00226998 0.00106733 0.00024674 
0.01441421 0.00983537 0.00358736 0.00202997 0.00335500 0.00155359 0.00205811 0.00322108 0.01115317 0.00177829 0.00892761 0.00132350 0.00145811 0.00259244 0.00112883 0.00024855 
0.01441191 0.00968336 0.00344647 0.00199966 0.00333765 0.00153227 0.00204392 0.00317651 0.01053629 0.00180399 0.00893719 0.00133992 0.00139971 0.00293240 0.00119414 0.00025107 
0.01439291 0.00952380 0.00331659 0.00196918 0.00332507 0.00151163 0.00203388 0.00313384 0.00994788 0.00183137 0.00895215 0.00135577 0.00134594 0.00328927 0.00126316 0.00025431 
0.01435753 0.00935713 0.00319783 0.00193865 0.00331704 0.00149173 0.00202806 0.00309332 0.00938991 0.00186020 0.00897263 0.00137094 0.00129718 0.00366238 0.00133577 0.00025827 
0.01430615 0.00918386 0.00309028 0.00190819 0.00331335 0.00147264 0.00202655 0.00305520 0.00886417 0.00189029 0.00899870 0.00138534 0.00125380 0.00405096 0.00141185 0.00026295 
0.01423927 0.00900453 0.00299396 0.00187789 0.00331373 0.00145439 0.00202941 0.00301968 0.00837232 0.00192142 0.00903043 0.00139889 0.00121618 0.00445414 0.00149123 0.00026836 
0.01415748 0.00881974 0.00290882 0.00184786 0.00331795 0.00143705 0.00203670 0.00298697 0.00791585 0.00195339 0.00906785 0.00141149 0.00118468 0.00487098 0.00157376 0.00027448 
0.01406145 0.00863010 0.00283477 0.00181822 0.00332574 0.00142066 0.00204848 0.00295725 0.00749605 0.00198597 0.00911096 0.00142308 0.00115964 0.00530046 0.00165925 0.00028130 
0.01395195 0.00843629 0.00277165 0.00178907 0.00333683 0.00140525 0.00206480 0.00293071 0.00711408 0.00201896 0.00915972 0.00143358 0.00114141 0.00574146 0.00174751 0.00028880 
0.01382984 0.00823899 0.00271927 0.00176052 0.00335094 0.00139086 0.00208569 0.00290748 0.00677089 0.00205215 0.00921408 0.00144292 0.00113029 0.00619281 0.00183835 0.00029696 
0.01369605 0.00803895 0.00267738 0.00173268 0.00336781 0.00137751 0.00211119 0.00288769 0.00646727 0.00208533 0.00927393 0.00145106 0.00112661 0.00665327 0.00193154 0.00030576 
0.01355160 0.00783693 0.00264566 0.00170564 0.00338714 0.00136524 0.00214129 0.00287146 0.00620382 0.00211831 0.00933916 0.00145793 0.00113064 0.00712152 0.00202685 0.00031515 
0.01339760 0.00763371 0.00262377 0.00167951 0.00340864 0.00135405 0.00217602 0.00285888 0.00598097 0.00215088 0.00940959 0.00146351 0.00114264 0.00759621 0.00212406 0.00032511 
0.01323521 0.00743012 0.00261133 0.00165439 0.00343204 0.00134395 0.00221536 0.00285000 0.00579896 0.00218287 0.00948506 0.00146775 0.00116286 0.00807592 0.00222292 0.00033559 
0.01306565 0.00722699 0.00260790 0.00163036 0.00345703 0.00133496 0.00225928 0.00284489 0.00565787 0.00221409 0.00956534 0.00147063 0.00119152 0.00855920 0.00232317 0.00034655 
0.01289023 0.00702519 0.00261302 0.00160751 0.00348334 0.00132706 0.00230775 0.00284356 0.00555759 0.00224439 0.00965020 0.00147212 0.00122879 0.00904457 0.00242458 0.00035795 
0.01271028 0.00682559 0.00262618 0.00158593 0.00351066 0.00132026 0.00236071 0.00284602 0.00549784 0.00227360 0.00973937 0.00147222 0.00127485 0.00953053 0.00252687 0.00036973 
0.01252720 0.00662906 0.00264685 0.00156569 0.00353871 0.00131454 0.00241811 0.00285225 0.00547819 0.00230157 0.00983255 0.00147092 0.00132983 0.01001555 0.00262980 0.00038183 
0.01234241 0.00643652 0.00267449 0.00154687 0.00356720 0.00130988 0.00247984 0.00286220 0.00549804 0.00232819 0.00992945 0.00146823 0.00139382 0.01049809 0.00273310 0.00039421 
0.01215736 0.00624885 0.00270850 0.00152953 0.00359586 0.00130626 0.00254580 0.00287582 0.00555663 0.00235331 0.01002973 0.00146415 0.00146688 0.01097665 0.00283652 0.00040680 
0.01197354 0.00606696 0.00274830 0.00151373 0.00362439 0.00130365 0.00261588 0.00289301 0.00565305 0.00237685 0.01013303 0.00145872 0.00154905 0.01144969 0.00293980 0.00041955 
0.01179243 0.00589173 0.00279327 0.00149953 0.00365252 0.00130201 0.00268993 0.00291369 0.00578625 0.00239869 0.01023899 0.00145194 0.00164033 0.01191572 0.00304270 0.00043239 
0.01161553 0.00572407 0.00284280 0.00148696 0.00367997 0.00130131 0.00276780 0.00293772 0.00595504 0.00241877 0.01034723 0.00144386 0.00174066 0.01237327 0.00314496 0.00044527 
0.01144433 0.00556482 0.00289625 0.00147608 0.00370647 0.00130150 0.00284931 0.00296497 0.00615812 0.00243702 0.01045736 0.00143452 0.00184997 0.01282092 0.00324637 0.00045812 
0.01128029 0.00541487 0.00295300 0.00146691 0.00373177 0.00130253 0.00293425 0.00299526 0.00639406 0.00245338 0.01056896 0.00142396 0.00196813 0.01325728 0.00334669 0.00047087 
0.01112487 0.00527503 0.00301242 0.00145947 0.00375560 0.00130436 0.00302242 0.00302842 0.00666129 0.00246781 0.01068163 0.00141224 0.00209499 0.01368103 0.00344570 0.00048348 
0.01097948 0.00514612 0.00307387 0.00145379 0.00377769 0.00130693 0.00311358 0.00306425 0.00695819 0.00248030 0.01079495 0.00139941 0.00223035 0.01409091 0.00354321 0.00049588 
0.01084550 0.00502891 0.00313676 0.00144987 0.00379782 0.00131019 0.00320748 0.00310254 0.00728301 0.00249082 0.01090849 0.00138555 0.00237397 0.01448573 0.00363904 0.00050800 
0.01072424 0.00492414 0.00320047 0.00144771 0.00381572 0.00131406 0.00330384 0.00314307 0.00763394 0.00249938 0.01102184 0.00137072 0.00252556 0.01486439 0.00373300 0.00051980 
0.01061697 0.00483252 0.00326443 0.00144732 0.00383117 0.00131849 0.00340239 0.00318559 0.00800907 0.00250599 0.01113456 0.00135499 0.00268480 0.01522585 0.00382494 0.00053123 
0.01052487 0.00475471 0.00332805 0.00144868 0.00384393 0.00132342 0.00350281 0.00322985 0.00840645 0.00251068 0.01124624 0.00133845 0.00285134 0.01556920 0.00391474 0.00054222 
0.01044906 0.00469130 0.00339081 0.00145176 0.00385379 0.00132877 0.00360478 0.00327559 0.00882407 0.00251347 0.01135646 0.00132117 0.00302477 0.01589361 0.00400225 0.00055273 
0.01039055 0.00464287 0.00345217 0.00145655 0.00386052 0.00133449 0.00370796 0.00332254 0.00925988 0.00251443 0.01146482 0.00130325 0.00320465 0.01619837 0.00408740 0.00056273 
0.01035029 0.00460992 0.00351164 0.00146302 0.00386392 0.00134051 0.00381201 0.00337041 0.00971179 0.00251360 0.01157091 0.00128477 0.00339052 0.01648286 0.00417009 0.00057216 
0.01032910 0.00459288 0.00356877 0.00147111 0.00386379 0.00134675 0.00391657 0.00341892 0.01017769 0.00251105 0.01167435 0.00126583 0.00358185 0.01674658 0.00425028 0.00058099 
0.01032770 0.00459213 0.00362313 0.00148079 0.00385993 0.00135316 0.00402125 0.00346777 0.01065545 0.00250686 0.01177477 0.00124651 0.00377811 0.01698917 0.00432792 0.00058920 
0.01034670 0.00460798 0.00367431 0.00149201 0.00385217 0.00135967 0.00412568 0.00351667 0.01114295 0.00250110 0.01187181 0.00122692 0.00397871 0.01721037 0.00440300 0.00059675 
0.01038659 0.00464068 0.00372196 0.00150471 0.00384034 0.00136621 0.00422946 0.00356532 0.01163808 0.00249385 0.01196512 0.00120715 0.00418305 0.01741004 0.00447552 0.00060362 
0.01044773 0.00469040 0.00376575 0.00151882 0.00382428 0.00137273 0.00433219 0.00361342 0.01213872 0.00248522 0.01205438 0.00118730 0.00439048 0.01758818 0.00454553 0.00060981 
0.01053035 0.00475723 0.00380541 0.00153429 0.00380383 0.00137916 0.00443348 0.00366067 0.01264280 0.00247529 0.01213930 0.00116746 0.00460035 0.01774489 0.00461305 0.00061530 
0.01063457 0.00484118 0.00384068 0.00155103 0.00377887 0.00138544 0.00453292 0.00370678 0.01314827 0.00246418 0.01221959 0.00114773 0.00481197 0.01788042 0.00467818 0.00062008 
0.01076035 0.00494222 0.00387136 0.00156898 0.00374927 0.00139153 0.00463009 0.00375145 0.01365314 0.00245197 0.01229500 0.00112820 0.00502463 0.01799512 0.00474100 0.00062416 
0.01090754 0.00506018 0.00389729 0.00158805 0.00371493 0.00139738 0.00472460 0.00379441 0.01415545 0.00243877 0.01236530 0.00110896 0.00523761 0.01808945 0.00480162 0.00062754 
0.01107584 0.00519486 0.00391834 0.00160817 0.00367575 0.00140292 0.00481604 0.00383537 0.01465331 0.00242469 0.01243027 0.00109011 0.00545017 0.01816401 0.00486018 0.00063025 
0.01126481 0.00534595 0.00393442 0.00162924 0.00363166 0.00140813 0.00490402 0.00387406 0.01514490 0.00240983 0.01248975 0.00107174 0.00566156 0.01821949 0.00491682 0.00063229 
0.01147389 0.00551308 0.00394550 0.00165118 0.00358261 0.00141296 0.00498816 0.00391023 0.01562847 0.00239430 0.01254357 0.00105393 0.00587102 0.01825669 0.00497171 0.00063369 
0.01170239 0.00569578 0.00395155 0.00167389 0.00352856 0.00141738 0.00506806 0.00394363 0.01610235 0.00237819 0.01259163 0.00103676 0.00607778 0.01827650 0.00502504 0.00063448 
0.01194947 0.00589351 0.00395262 0.00169730 0.00346948 0.00142136 0.00514338 0.00397402 0.01656497 0.00236161 0.01263382 0.00102031 0.00628110 0.01827991 0.00507700 0.00063470 
0.01221421 0.00610566 0.00394877 0.00172130 0.00340540 0.00142486 0.00521377 0.00400118 0.01701483 0.00234466 0.01267008 0.00100465 0.00648020 0.01826800 0.00512779 0.00063439 
0.01249552 0.00633153 0.00394009 0.00174579 0.00333634 0.00142788 0.00527888 0.00402491 0.01745054 0.00232742 0.01270037 0.00098986 0.00667434 0.01824190 0.00517764 0.00063359 
0.01279222 0.00657036 0.00392673 0.00177070 0.00326236 0.00143040 0.00533841 0.00404503 0.01787082 0.00230999 0.01272471 0.00097600 0.00686277 0.01820283 0.00522677 0.00063236 
0.01310304 0.00682130 0.00390885 0.00179591 0.00318353 0.00143239 0.00539207 0.00406136 0.01827450 0.00229245 0.01274310 0.00096312 0.00704478 0.01815206 0.00527542 0.00063074 
0.01342657 0.00708345 0.00388664 0.00182134 0.00309998 0.00143387 0.00543959 0.00407376 0.01866052 0.00227488 0.01275561 0.00095129 0.00721965 0.01809090 0.00532382 0.00062879 
0.01376134 0.00735583 0.00386033 0.00184690 0.00301183 0.00143482 0.00548074 0.00408209 0.01902792 0.00225737 0.01276232 0.00094056 0.00738670 0.01802071 0.00537221 0.00062657 
0.01410579 0.00763742 0.00383017 0.00187249 0.00291926 0.00143524 0.00551529 0.00408625 0.01937587 0.00223997 0.01276335 0.00093096 0.00754527 0.01794286 0.00542084 0.00062415 
0.01445827 0.00792712 0.00379643 0.00189802 0.00282246 0.00143516 0.00554308 0.00408615 0.01970367 0.00222275 0.01275885 0.00092253 0.00769474 0.01785875 0.00546993 0.00062159 
0.01481709 0.00822380 0.00375939 0.00192340 0.00272169 0.00143457 0.00556394 0.00408172 0.02001074 0.00220578 0.01274898 0.00091530 0.00783451 0.01776978 0.00551972 0.00061896 
0.01518048 0.00852627 0.00371937 0.00194854 0.00261719 0.00143350 0.00557776 0.00407294 0.02029660 0.00218910 0.01273394 0.00090931 0.00796402 0.01767735 0.00557044 0.00061632 
0.01554664 0.00883331 0.00367669 0.00197336 0.00250929 0.00143196 0.00558447 0.00405978 0.02056094 0.00217278 0.01271397 0.00090456 0.00808277 0.01758283 0.00562231 0.00061375 
0.01591374 0.00914365 0.00363169 0.00199778 0.00239831 0.00142999 0.00558400 0.00404225 0.02080353 0.00215684 0.01268930 0.00090108 0.00819027 0.01748758 0.00567551 0.00061132 
0.01627992 0.00945601 0.00358471 0.00202172 0.00228463 0.00142761 0.00557636 0.00402038 0.02102429 0.00214133 0.01266022 0.00089886 0.00828611 0.01739291 0.00573026 0.00060909 
0.01664331 0.00976908 0.00353610 0.00204508 0.00216867 0.00142485 0.00556157 0.00399424 0.02122326 0.00212628 0.01262703 0.00089791 0.00836990 0.01730008 0.00578671 0.00060712 
0.01700205 0.01008154 0.00348624 0.00206782 0.00205088 0.00142175 0.00553970 0.00396390 0.02140061 0.00211173 0.01259003 0.00089823 0.00844133 0.01721032 0.00584503 0.00060550 
0.01735427 0.01039206 0.00343546 0.00208984 0.00193174 0.00141835 0.00551087 0.00392947 0.02155661 0.00209769 0.01254957 0.00089980 0.00850013 0.01712476 0.00590534 0.00060427 
0.01769816 0.01069929 0.00338414 0.00211109 0.00181178 0.00141469 0.00547521 0.00389108 0.02169166 0.00208420 0.01250601 0.00090260 0.00854609 0.01704447 0.00596778 0.00060350 
0.01803191 0.01100193 0.00333263 0.00213149 0.00169156 0.00141081 0.00543293 0.00384889 0.02180628 0.00207126 0.01245971 0.00090662 0.00857905 0.01697044 0.00603242 0.00060325 
0.01835377 0.01129866 0.00328129 0.00215099 0.00157168 0.00140676 0.00538424 0.00380308 0.02190110 0.00205890 0.01241106 0.00091182 0.00859892 0.01690356 0.00609933 0.00060357 
0.01866206 0.01158818 0.00323045 0.00216953 0.00145276 0.00140259 0.00532942 0.00375385 0.02197686 0.00204713 0.01236046 0.00091817 0.00860568 0.01684464 0.00616855 0.00060451 
0.01895514 0.01186925 0.00318045 0.00218706 0.00133547 0.00139835 0.00526877 0.00370143 0.02203439 0.00203596 0.01230831 0.00092563 0.00859935 0.01679436 0.00624009 0.00060611 
0.01923147 0.01214062 0.00313161 0.00220352 0.00122051 0.00139408 0.00520265 0.00364606 0.02207463 0.00202540 0.01225504 0.00093416 0.00858003 0.01675333 0.00631394 0.00060841 
0.01948958 0.01240114 0.00308424 0.00221887 0.00110860 0.00138984 0.00513144 0.00358801 0.02209861 0.00201546 0.01220106 0.00094372 0.00854788 0.01672201 0.00639005 0.00061144 
0.01972810 0.01264966 0.00303864 0.00223307 0.00100050 0.00138568 0.00505556 0.00352758 0.02210746 0.00200615 0.01214679 0.00095424 0.00850311 0.01670077 0.00646833 0.00061524 
0.01994578 0.01288511 0.00299508 0.00224608 0.00089698 0.00138166 0.00497546 0.00346506 0.02210237 0.00199749 0.01209268 0.00096568 0.00844600 0.01668986 0.00654870 0.00061981 
0.02014146 0.01310649 0.00295381 0.00225786 0.00079885 0.00137781 0.00489165 0.00340078 0.02208461 0.00198947 0.01203914 0.00097798 0.00837691 0.01668940 0.00663102 0.00062518 
0.02031410 0.01331285 0.00291508 0.00226839 0.00070692 0.00137420 0.00480464 0.00333508 0.02205555 0.00198212 0.01198660 0.00099107 0.00829624 0.01669942 0.00671511 0.00063135 
0.02046279 0.01350335 0.00287909 0.00227763 0.00062202 0.00137088 0.00471499 0.00326831 0.02201657 0.00197544 0.01193548 0.00100490 0.00820445 0.01671980 0.00680078 0.00063832 
0.02058674 0.01367719 0.00284605 0.00228557 0.00054501 0.00136789 0.00462327 0.00320083 0.02196913 0.00196946 0.01188620 0.00101939 0.00810205 0.01675033 0.00688782 0.00064608 
0.02068531 0.01383370 0.00281613 0.00229219 0.00047674 0.00136527 0.00453009 0.00313303 0.02191475 0.00196418 0.01183916 0.00103447 0.00798964 0.01679068 0.00697598 0.00065461 
0.02075797 0.01397228 0.00278947 0.00229748 0.00041806 0.00136309 0.00443608 0.00306527 0.02185496 0.00195964 0.01179475 0.00105009 0.00786782 0.01684041 0.00706498 0.00066389 
0.02080436 0.01409242 0.00276619 0.00230142 0.00036983 0.00136137 0.00434189 0.00299796 0.02179133 0.00195584 0.01175336 0.00106616 0.00773730 0.01689899 0.00715453 0.00067389 
0.02082422 0.01419373 0.00274640 0.00230400 0.00033290 0.00136017 0.00424817 0.00293149 0.02172546 0.00195283 0.01171536 0.00108261 0.00759877 0.01696577 0.00724429 0.00068458 
0.02081745 0.01427591 0.00273018 0.00230524 0.00030811 0.00135952 0.00415561 0.00286626 0.02165894 0.00195062 0.01168109 0.00109938 0.00745302 0.01704003 0.00733394 0.00069590 
0.02078411 0.01433879 0.00271756 0.00230512 0.00029627 0.00135946 0.00406489 0.00280267 0.02159340 0.00194926 0.01165089 0.00111639 0.00730085 0.01712097 0.00742311 0.00070780 
0.02072437 0.01438227 0.00270859 0.00230365 0.00029818 0.00136002 0.00397670 0.00274111 0.02153043 0.00194878 0.01162507 0.00113357 0.00714311 0.01720770 0.00751142 0.00072023 
0.02063853 0.01440640 0.00270327 0.00230085 0.00031463 0.00136124 0.00389175 0.00268197 0.02147161 0.00194921 0.01160393 0.00115085 0.00698066 0.01729928 0.00759850 0.00073312 
0.02052706 0.01441131 0.00270157 0.00229673 0.00034634 0.00136313 0.00381072 0.00262565 0.02141853 0.00195061 0.01158772 0.00116816 0.00681440 0.01739470 0.00768394 0.00074640 
0.02039052 0.01439727 0.00270345 0.00229131 0.00039402 0.00136573 0.00373432 0.00257251 0.02137271 0.00195302 0.01157670 0.00118543 0.00664527 0.01749293 0.00776733 0.00075999 
0.02022961 0.01436464 0.00270886 0.00228460 0.00045833 0.00136906 0.00366322 0.00252293 0.02133565 0.00195649 0.01157108 0.00120260 0.00647420 0.01759288 0.00784827 0.00077382 
0.02004515 0.01431389 0.00271770 0.00227663 0.00053987 0.00137314 0.00359810 0.00247727 0.02130879 0.00196107 0.01157105 0.00121960 0.00630215 0.01769346 0.00792634 0.00078779 
0.01983808 0.01424562 0.00272988 0.00226744 0.00063920 0.00137797 0.00353961 0.00243585 0.02129353 0.00196683 0.01157677 0.00123637 0.00613007 0.01779353 0.00800114 0.00080181 
0.01960943 0.01416050 0.00274526 0.00225705 0.00075680 0.00138358 0.00348840 0.00239901 0.02129118 0.00197381 0.01158838 0.00125285 0.00595893 0.01789200 0.00807226 0.00081579 
0.01936033 0.01405933 0.00276372 0.00224551 0.00089310 0.00138996 0.00344509 0.00236705 0.02130301 0.00198209 0.01160598 0.00126899 0.00578970 0.01798775 0.00813932 0.00082964 
0.01909201 0.01394300 0.00278509 0.00223284 0.00104847 0.00139712 0.00341026 0.00234024 0.02133017 0.00199172 0.01162964 0.00128473 0.00562333 0.01807971 0.00820192 0.00084326 
0.01880577 0.01381249 0.00280921 0.00221911 0.00122318 0.00140506 0.00338447 0.00231885 0.02137375 0.00200276 0.01165940 0.00130003 0.00546076 0.01816683 0.00825972 0.00085654 
0.01850300 0.01366886 0.00283588 0.00220434 0.00141742 0.00141377 0.00336825 0.00230310 0.02143474 0.00201529 0.01169526 0.00131483 0.00530293 0.01824811 0.00831235 0.00086939 
0.01818514 0.01351327 0.00286492 0.00218860 0.00163133 0.00142325 0.00336210 0.00229321 0.02151401 0.00202937 0.01173722 0.00132910 0.00515072 0.01832260 0.00835950 0.00088171 
0.01785368 0.01334694 0.00289612 0.00217193 0.00186492 0.00143349 0.00336647 0.00228935 0.02161234 0.00204506 0.01178520 0.00134280 0.00500503 0.01838943 0.00840086 0.00089341 
0.01751016 0.01317116 0.00292926 0.00215440 0.00211814 0.00144447 0.00338176 0.00229168 0.02173038 0.00206242 0.01183911 0.00135589 0.00486669 0.01844780 0.00843618 0.00090437 
0.01715618 0.01298729 0.00296412 0.00213606 0.00239083 0.00145617 0.00340834 0.00230030 0.02186868 0.00208152 0.01189885 0.00136833 0.00473651 0.01849699 0.00846522 0.00091452 
0.01679332 0.01279674 0.00300047 0.00211698 0.00268274 0.00146856 0.00344653 0.00231530 0.02202765 0.00210242 0.01196424 0.00138011 0.00461525 0.01853638 0.00848776 0.00092375 
0.01642320 0.01260095 0.00303808 0.00209721 0.00299351 0.00148163 0.00349659 0.00233674 0.02220757 0.00212518 0.01203511 0.00139120 0.00450365 0.01856545 0.00850365 0.00093199 
0.01604746 0.01240141 0.00307671 0.00207684 0.00332271 0.00149535 0.00355873 0.00236462 0.02240859 0.00214985 0.01211123 0.00140157 0.00440235 0.01858381 0.00851275 0.00093915 
0.01566771 0.01219964 0.00311613 0.00205592 0.00366977 0.00150967 0.00363311 0.00239894 0.02263072 0.00217648 0.01219234 0.00141122 0.00431199 0.01859116 0.00851499 0.00094516 
0.01528556 0.01199716 0.00315610 0.00203454 0.00403405 0.00152457 0.00371984 0.00243964 0.02287385 0.00220512 0.01227818 0.00142013 0.00423312 0.01858734 0.00851031 0.00094993 
0.01490259 0.01179551 0.00319638 0.00201276 0.00441480 0.00154001 0.00381895 0.00248664 0.02313770 0.00223580 0.01236842 0.00142830 0.00416625 0.01857229 0.00849871 0.00095343 
0.01452037 0.01159623 0.00323674 0.00199066 0.00481116 0.00155595 0.00393043 0.00253980 0.02342187 0.00226857 0.01246272 0.00143571 0.00411179 0.01854612 0.00848024 0.00095557 
0.01414042 0.01140083 0.00327696 0.00196831 0.00522219 0.00157234 0.00405421 0.00259897 0.02372581 0.00230344 0.01256070 0.00144236 0.00407014 0.01850904 0.00845499 0.00095633 
0.01376420 0.01121083 0.00331681 0.00194581 0.00564685 0.00158913 0.00419014 0.00266397 0.02404883 0.00234045 0.01266198 0.00144827 0.00404158 0.01846140 0.00842309 0.00095565 
0.01339315 0.01102768 0.00335607 0.00192321 0.00608400 0.00160628 0.00433804 0.00273455 0.02439010 0.00237960 0.01276611 0.00145342 0.00402636 0.01840368 0.00838472 0.00095352 
0.01302862 0.01085282 0.00339453 0.00190062 0.00653242 0.00162373 0.00449765 0.00281047 0.02474866 0.00242091 0.01287266 0.00145784 0.00402462 0.01833650 0.00834012 0.00094991 
0.01267192 0.01068763 0.00343200 0.00187810 0.00699079 0.00164144 0.00466864 0.00289142 0.02512339 0.00246436 0.01298115 0.00146153 0.00403646 0.01826060 0.00828954 0.00094480 
0.01232426 0.01053343 0.00346829 0.00185573 0.00745774 0.00165934 0.00485064 0.00297709 0.02551307 0.00250996 0.01309108 0.00146449 0.00406189 0.01817684 0.00823331 0.00093821 
0.01198681 0.01039146 0.00350320 0.00183360 0.00793180 0.00167738 0.00504322 0.00306711 0.02591633 0.00255766 0.01320194 0.00146676 0.00410086 0.01808622 0.00817178 0.00093014 
0.01166064 0.01026292 0.00353658 0.00181179 0.00841144 0.00169551 0.00524589 0.00316112 0.02633167 0.00260746 0.01331318 0.00146834 0.00415322 0.01798982 0.00810536 0.00092061 
0.01134674 0.01014888 0.00356826 0.00179037 0.00889507 0.00171365 0.00545809 0.00325870 0.02675750 0.00265931 0.01342427 0.00146926 0.00421879 0.01788886 0.00803447 0.00090965 
0.01104602 0.01005034 0.00359810 0.00176942 0.00938105 0.00173175 0.00567923 0.00335943 0.02719211 0.00271315 0.01353463 0.00146953 0.00429727 0.01778463 0.00795958 0.00089731 
0.01075929 0.00996822 0.00362596 0.00174902 0.00986767 0.00174975 0.00590865 0.00346283 0.02763366 0.00276893 0.01364369 0.00146918 0.00438832 0.01767854 0.00788121 0.00088364 
0.01048729 0.00990331 0.00365173 0.00172924 0.01035322 0.00176758 0.00614566 0.00356846 0.02808025 0.00282657 0.01375086 0.00146823 0.00449154 0.01757204 0.00779989 0.00086870 
0.01023066 0.00985628 0.00367528 0.00171015 0.01083593 0.00178519 0.00638950 0.00367580 0.02852989 0.00288600 0.01385554 0.00146671 0.00460642 0.01746668 0.00771617 0.00085258 
0.00998995 0.00982772 0.00369653 0.00169182 0.01131401 0.00180250 0.00663939 0.00378436 0.02898048 0.00294713 0.01395714 0.00146464 0.00473245 0.01736406 0.00763065 0.00083534 
0.00976563 0.00981807 0.00371540 0.00167431 0.01178568 0.00181945 0.00689451 0.00389363 0.02942989 0.00300985 0.01405506 0.00146204 0.00486900 0.01726582 0.00754393 0.00081710 
0.00955808 0.00982767 0.00373182 0.00165770 0.01224913 0.00183598 0.00715398 0.00400306 0.02987591 0.00307406 0.01414868 0.00145894 0.00501542 0.01717362 0.00745661 0.00079795 
0.00936757 0.00985671 0.00374573 0.00164204 0.01270258 0.00185202 0.00741692 0.00411214 0.03031630 0.00313962 0.01423742 0.00145537 0.00517099 0.01708916 0.00736935 0.00077800 
0.00919433 0.00990528 0.00375708 0.00162737 0.01314424 0.00186752 0.00768240 0.00422031 0.03074878 0.00320642 0.01432068 0.00145136 0.00533496 0.01701414 0.00728276 0.00075739 
0.00903847 0.00997332 0.00376586 0.00161376 0.01357236 0.00188240 0.00794948 0.00432706 0.03117103 0.00327430 0.01439787 0.00144692 0.00550651 0.01695024 0.00719750 0.00073623 
0.00890004 0.01006065 0.00377204 0.00160125 0.01398524 0.00189661 0.00821720 0.00443184 0.03158076 0.00334313 0.01446842 0.00144209 0.00568480 0.01689912 0.00711418 0.00071468 
0.00877902 0.01016696 0.00377561 0.00158988 0.01438119 0.00191009 0.00848458 0.00453412 0.03197563 0.00341273 0.01453178 0.00143688 0.00586896 0.01686240 0.00703345 0.00069286 
0.00867529 0.01029183 0.00377659 0.00157968 0.01475861 0.00192277 0.00875063 0.00463338 0.03235337 0.00348296 0.01458740 0.00143133 0.00605806 0.01684167 0.00695592 0.00067094 
0.00858870 0.01043469 0.00377500 0.00157069 0.01511595 0.00193460 0.00901436 0.00472912 0.03271171 0.00355363 0.01463476 0.00142546 0.00625119 0.01683842 0.00688219 0.00064907 
0.00851900 0.01059488 0.00377086 0.00156292 0.01545172 0.00194552 0.00927478 0.00482083 0.03304841 0.00362456 0.01467337 0.00141929 0.00644739 0.01685408 0.00681284 0.00062741 
