0.04392510 0.01860192 0.00739065 0.00174420 0.00097583 0.00104186 0.00755299 0.00306910 0.01871698 0.00167282 0.00195765 0.02370474 0.00258829 0.00252032 0.00433347 0.00122636 
0.04301490 0.01918197 0.00762658 0.00176397 0.00098621 0.00105899 0.00773092 0.00315521 0.01876015 0.00171429 0.00201426 0.02456690 0.00247184 0.00262229 0.00448892 0.00122877 
0.04210337 0.01981890 0.00787681 0.00178549 0.00099617 0.00107690 0.00790952 0.00324293 0.01880272 0.00175657 0.00207088 0.02543726 0.00236373 0.00272540 0.00464586 0.00123150 
0.04119223 0.02051199 0.00814108 0.00180867 0.00100568 0.00109549 0.00808801 0.00333180 0.01884347 0.00179943 0.00212714 0.02631339 0.00226472 0.00282930 0.00480375 0.00123453 
0.04028316 0.02126024 0.00841907 0.00183344 0.00101470 0.00111467 0.00826556 0.00342134 0.01888119 0.00184263 0.00218270 0.02719275 0.00217554 0.00293362 0.00496205 0.00123784 
0.03937787 0.02206238 0.00871033 0.00185969 0.00102318 0.00113436 0.00844138 0.00351110 0.01891467 0.00188592 0.00223720 0.02807273 0.00209684 0.00303798 0.00512018 0.00124141 
0.03847806 0.02291682 0.00901434 0.00188733 0.00103110 0.00115446 0.00861462 0.00360060 0.01894271 0.00192907 0.00229031 0.02895066 0.00202926 0.00314201 0.00527759 0.00124523 
0.03758540 0.02382171 0.00933049 0.00191623 0.00103841 0.00117489 0.00878448 0.00368938 0.01896418 0.00197184 0.00234167 0.02982384 0.00197335 0.00324532 0.00543368 0.00124927 
0.03670155 0.02477493 0.00965806 0.00194629 0.00104509 0.00119555 0.00895013 0.00377695 0.01897796 0.00201397 0.00239096 0.03068950 0.00192963 0.00334753 0.00558789 0.00125351 
0.03582811 0.02577404 0.00999627 0.00197738 0.00105109 0.00121636 0.00911076 0.00386287 0.01898301 0.00205525 0.00243786 0.03154487 0.00189852 0.00344827 0.00573962 0.00125792 
0.03496666 0.02681638 0.01034422 0.00200935 0.00105639 0.00123722 0.00926556 0.00394668 0.01897832 0.00209543 0.00248206 0.03238712 0.00188041 0.00354714 0.00588832 0.00126247 
0.03411873 0.02789899 0.01070094 0.00204208 0.00106096 0.00125804 0.00941375 0.00402795 0.01896299 0.00213430 0.00252327 0.03321348 0.00187560 0.00364378 0.00603340 0.00126715 
0.03328578 0.02901867 0.01106540 0.00207541 0.00106477 0.00127874 0.00955456 0.00410623 0.01893618 0.00217162 0.00256121 0.03402114 0.00188431 0.00373781 0.00617431 0.00127193 
0.03246922 0.03017199 0.01143646 0.00210919 0.00106779 0.00129923 0.00968725 0.00418112 0.01889714 0.00220720 0.00259563 0.03480733 0.00190671 0.00382886 0.00631049 0.00127677 
0.03167037 0.03135527 0.01181292 0.00214327 0.00107002 0.00131943 0.00981108 0.00425222 0.01884521 0.00224082 0.00262628 0.03556932 0.00194288 0.00391660 0.00644142 0.00128165 
0.03089049 0.03256463 0.01219353 0.00217750 0.00107142 0.00133926 0.00992537 0.00431917 0.01877985 0.00227230 0.00265295 0.03630444 0.00199282 0.00400067 0.00656659 0.00128654 
0.03013073 0.03379598 0.01257696 0.00221171 0.00107199 0.00135864 0.01002948 0.00438160 0.01870062 0.00230146 0.00267544 0.03701005 0.00205644 0.00408075 0.00668550 0.00129142 
0.02939217 0.03504506 0.01296185 0.00224574 0.00107172 0.00137750 0.01012276 0.00443920 0.01860722 0.00232814 0.00269358 0.03768363 0.00213361 0.00415652 0.00679767 0.00129625 
0.02867579 0.03630743 0.01334676 0.00227944 0.00107061 0.00139577 0.01020467 0.00449167 0.01849943 0.00235216 0.00270722 0.03832273 0.00222407 0.00422768 0.00690268 0.00130101 
0.02798245 0.03757855 0.01373024 0.00231262 0.00106865 0.00141337 0.01027465 0.00453872 0.01837720 0.00237341 0.00271625 0.03892499 0.00232753 0.00429395 0.00700009 0.00130567 
0.02731293 0.03885370 0.01411079 0.00234515 0.00106584 0.00143025 0.01033223 0.00458013 0.01824058 0.00239175 0.00272056 0.03948821 0.00244358 0.00435507 0.00708954 0.00131021 
0.02666789 0.04012810 0.01448690 0.00237685 0.00106221 0.00144635 0.01037698 0.00461569 0.01808979 0.00240708 0.00272008 0.04001027 0.00257177 0.00441079 0.00717066 0.00131461 
0.02604788 0.04139689 0.01485703 0.00240758 0.00105777 0.00146162 0.01040853 0.00464521 0.01792514 0.00241930 0.00271478 0.04048924 0.00271156 0.00446090 0.00724315 0.00131882 
0.02545334 0.04265516 0.01521965 0.00243717 0.00105253 0.00147601 0.01042654 0.00466855 0.01774713 0.00242834 0.00270464 0.04092331 0.00286233 0.00450519 0.00730672 0.00132284 
0.02488460 0.04389795 0.01557322 0.00246547 0.00104652 0.00148947 0.01043077 0.00468561 0.01755637 0.00243414 0.00268967 0.04131085 0.00302342 0.00454349 0.00736113 0.00132664 
0.02434187 0.04512033 0.01591620 0.00249234 0.00103978 0.00150197 0.01042101 0.00469631 0.01735360 0.00243665 0.00266991 0.04165040 0.00319409 0.00457565 0.00740618 0.00133020 
0.02382526 0.04631738 0.01624709 0.00251765 0.00103235 0.00151347 0.01039714 0.00470062 0.01713973 0.00243587 0.00264544 0.04194071 0.00337352 0.00460154 0.00744171 0.00133350 
0.02333476 0.04748422 0.01656439 0.00254125 0.00102427 0.00152395 0.01035909 0.00469853 0.01691578 0.00243177 0.00261636 0.04218069 0.00356088 0.00462107 0.00746760 0.00133652 
0.02287027 0.04861606 0.01686666 0.00256302 0.00101559 0.00153339 0.01030686 0.00469009 0.01668292 0.00242437 0.00258277 0.04236948 0.00375524 0.00463415 0.00748378 0.00133925 
0.02243157 0.04970820 0.01715249 0.00258284 0.00100636 0.00154177 0.01024051 0.00467536 0.01644244 0.00241371 0.00254484 0.04250643 0.00395567 0.00464075 0.00749020 0.00134168 
0.02201833 0.05075607 0.01742052 0.00260060 0.00099665 0.00154908 0.01016020 0.00465445 0.01619576 0.00239984 0.00250274 0.04259109 0.00416115 0.00464084 0.00748689 0.00134378 
0.02163016 0.05175527 0.01766946 0.00261620 0.00098652 0.00155533 0.01006613 0.00462750 0.01594441 0.00238281 0.00245667 0.04262325 0.00437068 0.00463443 0.00747388 0.00134555 
0.02126656 0.05270153 0.01789808 0.00262953 0.00097605 0.00156051 0.00995858 0.00459470 0.01569004 0.00236271 0.00240684 0.04260292 0.00458318 0.00462156 0.00745129 0.00134699 
0.02092694 0.05359083 0.01810521 0.00264052 0.00096530 0.00156464 0.00983791 0.00455625 0.01543441 0.00233965 0.00235352 0.04253036 0.00479757 0.00460229 0.00741924 0.00134809 
0.02061065 0.05441934 0.01828978 0.00264909 0.00095437 0.00156772 0.00970453 0.00451240 0.01517937 0.00231373 0.00229696 0.04240602 0.00501277 0.00457671 0.00737792 0.00134884 
0.02031696 0.05518347 0.01845081 0.00265518 0.00094334 0.00156979 0.00955895 0.00446342 0.01492686 0.00228509 0.00223745 0.04223062 0.00522766 0.00454493 0.00732755 0.00134924 
0.02004508 0.05587992 0.01858738 0.00265873 0.00093229 0.00157086 0.00940172 0.00440962 0.01467891 0.00225389 0.00217529 0.04200511 0.00544113 0.00450711 0.00726840 0.00134929 
0.01979417 0.05650564 0.01869871 0.00265970 0.00092132 0.00157097 0.00923347 0.00435132 0.01443760 0.00222027 0.00211081 0.04173065 0.00565207 0.00446342 0.00720075 0.00134900 
0.01956335 0.05705790 0.01878410 0.00265806 0.00091052 0.00157015 0.00905489 0.00428889 0.01420508 0.00218441 0.00204434 0.04140865 0.00585938 0.00441403 0.00712495 0.00134837 
0.01935168 0.05753429 0.01884295 0.00265378 0.00089998 0.00156846 0.00886673 0.00422271 0.01398354 0.00214650 0.00197622 0.04104072 0.00606199 0.00435918 0.00704138 0.00134741 
0.01915823 0.05793271 0.01887479 0.00264685 0.00088982 0.00156593 0.00866983 0.00415318 0.01377522 0.00210673 0.00190683 0.04062871 0.00625883 0.00429911 0.00695043 0.00134613 
0.01898203 0.05825140 0.01887925 0.00263729 0.00088013 0.00156261 0.00846504 0.00408073 0.01358236 0.00206533 0.00183652 0.04017467 0.00644888 0.00423408 0.00685256 0.00134453 
0.01882209 0.05848899 0.01885607 0.00262509 0.00087100 0.00155857 0.00825330 0.00400579 0.01340722 0.00202249 0.00176567 0.03968085 0.00663113 0.00416438 0.00674823 0.00134264 
0.01867745 0.05864442 0.01880514 0.00261029 0.00086255 0.00155387 0.00803558 0.00392881 0.01325207 0.00197845 0.00169466 0.03914970 0.00680465 0.00409031 0.00663793 0.00134047 
0.01854713 0.05871704 0.01872642 0.00259291 0.00085486 0.00154856 0.00781291 0.00385027 0.01311913 0.00193345 0.00162388 0.03858384 0.00696852 0.00401220 0.00652218 0.00133803 
0.01843017 0.05870654 0.01862003 0.00257301 0.00084804 0.00154272 0.00758635 0.00377063 0.01301061 0.00188771 0.00155372 0.03798608 0.00712190 0.00393039 0.00640153 0.00133535 
0.01832567 0.05861301 0.01848619 0.00255065 0.00084219 0.00153642 0.00735702 0.00369038 0.01292868 0.00184149 0.00148454 0.03735936 0.00726399 0.00384523 0.00627654 0.00133244 
0.01823272 0.05843689 0.01832524 0.00252589 0.00083738 0.00152972 0.00712604 0.00361001 0.01287544 0.00179502 0.00141675 0.03670680 0.00739407 0.00375710 0.00614779 0.00132933 
0.01815047 0.05817902 0.01813763 0.00249880 0.00083373 0.00152270 0.00689459 0.00352999 0.01285292 0.00174856 0.00135071 0.03603162 0.00751147 0.00366638 0.00601586 0.00132604 
0.01807813 0.05784058 0.01792393 0.00246949 0.00083130 0.00151544 0.00666385 0.00345081 0.01286306 0.00170235 0.00128680 0.03533715 0.00761562 0.00357345 0.00588137 0.00132260 
0.01801496 0.05742314 0.01768483 0.00243805 0.00083019 0.00150801 0.00643502 0.00337294 0.01290772 0.00165664 0.00122536 0.03462686 0.00770601 0.00347873 0.00574492 0.00131902 
0.01796026 0.05692861 0.01742111 0.00240458 0.00083046 0.00150049 0.00620932 0.00329685 0.01298861 0.00161168 0.00116676 0.03390424 0.00778219 0.00338263 0.00560712 0.00131535 
0.01791342 0.05635925 0.01713368 0.00236920 0.00083218 0.00149296 0.00598797 0.00322301 0.01310735 0.00156770 0.00111133 0.03317289 0.00784384 0.00328554 0.00546860 0.00131160 
0.01787391 0.05571765 0.01682351 0.00233204 0.00083542 0.00148550 0.00577218 0.00315186 0.01326540 0.00152495 0.00105939 0.03243644 0.00789068 0.00318789 0.00532996 0.00130780 
0.01784125 0.05500671 0.01649170 0.00229323 0.00084023 0.00147817 0.00556317 0.00308382 0.01346408 0.00148365 0.00101125 0.03169853 0.00792254 0.00309011 0.00519182 0.00130398 
0.01781506 0.05422966 0.01613944 0.00225292 0.00084665 0.00147106 0.00536214 0.00301931 0.01370454 0.00144402 0.00096719 0.03096283 0.00793934 0.00299259 0.00505478 0.00130017 
0.01779503 0.05339001 0.01576797 0.00221125 0.00085472 0.00146424 0.00517025 0.00295871 0.01398778 0.00140629 0.00092748 0.03023299 0.00794108 0.00289576 0.00491943 0.00129640 
0.01778096 0.05249150 0.01537864 0.00216837 0.00086447 0.00145777 0.00498867 0.00290239 0.01431458 0.00137065 0.00089237 0.02951263 0.00792785 0.00280003 0.00478635 0.00129270 
0.01777269 0.05153818 0.01497287 0.00212446 0.00087591 0.00145172 0.00481850 0.00285069 0.01468556 0.00133731 0.00086208 0.02880533 0.00789984 0.00270579 0.00465610 0.00128908 
0.01777019 0.05053429 0.01455213 0.00207966 0.00088907 0.00144616 0.00466082 0.00280392 0.01510114 0.00130643 0.00083683 0.02811458 0.00785731 0.00261344 0.00452924 0.00128559 
0.01777349 0.04948427 0.01411795 0.00203416 0.00090393 0.00144115 0.00451666 0.00276237 0.01556151 0.00127820 0.00081677 0.02744381 0.00780062 0.00252336 0.00440627 0.00128225 
0.01778271 0.04839276 0.01367193 0.00198812 0.00092048 0.00143674 0.00438701 0.00272629 0.01606666 0.00125276 0.00080207 0.02679634 0.00773021 0.00243592 0.00428771 0.00127907 
0.01779804 0.04726456 0.01321570 0.00194173 0.00093870 0.00143299 0.00427278 0.00269590 0.01661638 0.00123025 0.00079285 0.02617536 0.00764661 0.00235147 0.00417402 0.00127610 
0.01781978 0.04610458 0.01275091 0.00189516 0.00095857 0.00142993 0.00417483 0.00267138 0.01721020 0.00121081 0.00078922 0.02558395 0.00755041 0.00227037 0.00406566 0.00127334 
0.01784826 0.04491785 0.01227928 0.00184860 0.00098002 0.00142762 0.00409395 0.00265289 0.01784746 0.00119454 0.00079123 0.02502502 0.00744230 0.00219293 0.00396304 0.00127083 
0.01788391 0.04370949 0.01180252 0.00180223 0.00100302 0.00142608 0.00403086 0.00264054 0.01852725 0.00118153 0.00079893 0.02450131 0.00732301 0.00211946 0.00386654 0.00126858 
0.01792722 0.04248467 0.01132237 0.00175623 0.00102750 0.00142536 0.00398618 0.00263442 0.01924845 0.00117186 0.00081235 0.02401539 0.00719338 0.00205024 0.00377653 0.00126661 
0.01797872 0.04124857 0.01084056 0.00171079 0.00105337 0.00142546 0.00396047 0.00263456 0.02000969 0.00116558 0.00083146 0.02356966 0.00705428 0.00198554 0.00369333 0.00126494 
0.01803901 0.04000640 0.01035884 0.00166608 0.00108056 0.00142641 0.00395419 0.00264097 0.02080941 0.00116273 0.00085622 0.02316627 0.00690664 0.00192560 0.00361721 0.00126358 
0.01810873 0.03876333 0.00987893 0.00162230 0.00110898 0.00142821 0.00396772 0.00265363 0.02164578 0.00116333 0.00088657 0.02280721 0.00675146 0.00187063 0.00354843 0.00126255 
0.01818855 0.03752448 0.00940257 0.00157962 0.00113851 0.00143088 0.00400131 0.00267247 0.02251681 0.00116739 0.00092241 0.02249421 0.00658976 0.00182085 0.00348719 0.00126185 
0.01827918 0.03629492 0.00893144 0.00153821 0.00116904 0.00143442 0.00405516 0.00269738 0.02342024 0.00117489 0.00096361 0.02222880 0.00642261 0.00177640 0.00343369 0.00126150 
0.01838133 0.03507960 0.00846721 0.00149825 0.00120046 0.00143880 0.00412934 0.00272822 0.02435365 0.00118578 0.00101002 0.02201225 0.00625112 0.00173745 0.00338804 0.00126151 
0.01849573 0.03388335 0.00801151 0.00145990 0.00123263 0.00144402 0.00422381 0.00276484 0.02531441 0.00120003 0.00106146 0.02184562 0.00607643 0.00170411 0.00335036 0.00126187 
0.01862313 0.03271087 0.00756595 0.00142332 0.00126543 0.00145005 0.00433844 0.00280701 0.02629969 0.00121755 0.00111773 0.02172970 0.00589967 0.00167646 0.00332071 0.00126259 
0.01876425 0.03156669 0.00713206 0.00138867 0.00129870 0.00145687 0.00447301 0.00285450 0.02730650 0.00123826 0.00117860 0.02166507 0.00572202 0.00165459 0.00329911 0.00126367 
0.01891980 0.03045514 0.00671133 0.00135610 0.00133230 0.00146445 0.00462716 0.00290705 0.02833168 0.00126205 0.00124382 0.02165204 0.00554464 0.00163852 0.00328555 0.00126510 
0.01909046 0.02938038 0.00630520 0.00132576 0.00136608 0.00147273 0.00480045 0.00296436 0.02937191 0.00128880 0.00131313 0.02169069 0.00536870 0.00162827 0.00328000 0.00126689 
0.01927689 0.02834633 0.00591504 0.00129777 0.00139988 0.00148167 0.00499233 0.00302610 0.03042375 0.00131837 0.00138622 0.02178086 0.00519535 0.00162383 0.00328236 0.00126902 
0.01947968 0.02735665 0.00554215 0.00127226 0.00143355 0.00149123 0.00520214 0.00309194 0.03148363 0.00135061 0.00146279 0.02192215 0.00502574 0.00162515 0.00329253 0.00127149 
0.01969939 0.02641479 0.00518776 0.00124934 0.00146692 0.00150134 0.00542913 0.00316149 0.03254786 0.00138534 0.00154251 0.02211393 0.00486098 0.00163218 0.00331036 0.00127428 
0.01993651 0.02552391 0.00485301 0.00122914 0.00149983 0.00151194 0.00567244 0.00323437 0.03361268 0.00142238 0.00162503 0.02235535 0.00470217 0.00164483 0.00333567 0.00127738 
0.02019145 0.02468689 0.00453899 0.00121173 0.00153213 0.00152296 0.00593113 0.00331018 0.03467424 0.00146154 0.00170999 0.02264536 0.00455036 0.00166297 0.00336825 0.00128078 
0.02046456 0.02390635 0.00424666 0.00119722 0.00156364 0.00153434 0.00620417 0.00338848 0.03572865 0.00150261 0.00179702 0.02298268 0.00440656 0.00168649 0.00340787 0.00128445 
0.02075610 0.02318457 0.00397695 0.00118566 0.00159422 0.00154599 0.00649042 0.00346884 0.03677197 0.00154539 0.00188574 0.02336584 0.00427174 0.00171520 0.00345427 0.00128838 
0.02106622 0.02252356 0.00373064 0.00117714 0.00162371 0.00155785 0.00678868 0.00355081 0.03780026 0.00158963 0.00197577 0.02379318 0.00414682 0.00174895 0.00350716 0.00129254 
0.02139499 0.02192503 0.00350846 0.00117169 0.00165196 0.00156982 0.00709767 0.00363394 0.03880956 0.00163511 0.00206669 0.02426289 0.00403263 0.00178753 0.00356623 0.00129692 
0.02174237 0.02139034 0.00331103 0.00116936 0.00167882 0.00158182 0.00741604 0.00371777 0.03979595 0.00168158 0.00215811 0.02477297 0.00392997 0.00183071 0.00363116 0.00130149 
0.02210820 0.02092058 0.00313888 0.00117018 0.00170415 0.00159378 0.00774238 0.00380183 0.04075553 0.00172881 0.00224963 0.02532128 0.00383957 0.00187827 0.00370159 0.00130622 
0.02249224 0.02051650 0.00299243 0.00117416 0.00172782 0.00160560 0.00807522 0.00388567 0.04168450 0.00177654 0.00234084 0.02590556 0.00376206 0.00192996 0.00377716 0.00131109 
0.02289408 0.02017855 0.00287201 0.00118129 0.00174971 0.00161720 0.00841303 0.00396883 0.04257911 0.00182453 0.00243134 0.02652340 0.00369803 0.00198551 0.00385749 0.00131606 
0.02331324 0.01990685 0.00277786 0.00119158 0.00176970 0.00162849 0.00875425 0.00405085 0.04343571 0.00187251 0.00252072 0.02717233 0.00364796 0.00204464 0.00394219 0.00132112 
0.02374908 0.01970125 0.00271011 0.00120499 0.00178769 0.00163939 0.00909730 0.00413130 0.04425079 0.00192025 0.00260859 0.02784973 0.00361227 0.00210707 0.00403085 0.00132624 
0.02420087 0.01956127 0.00266880 0.00122149 0.00180356 0.00164982 0.00944054 0.00420973 0.04502097 0.00196748 0.00269457 0.02855296 0.00359128 0.00217250 0.00412308 0.00133137 
0.02466774 0.01948615 0.00265385 0.00124102 0.00181725 0.00165969 0.00978235 0.00428573 0.04574302 0.00201396 0.00277828 0.02927929 0.00358523 0.00224061 0.00421844 0.00133651 
0.02514870 0.01947484 0.00266512 0.00126351 0.00182868 0.00166892 0.01012109 0.00435889 0.04641390 0.00205944 0.00285935 0.03002594 0.00359428 0.00231111 0.00431651 0.00134160 
0.02564264 0.01952603 0.00270235 0.00128890 0.00183778 0.00167744 0.01045510 0.00442883 0.04703076 0.00210370 0.00293743 0.03079011 0.00361850 0.00238367 0.00441688 0.00134663 
0.02614832 0.01963812 0.00276518 0.00131709 0.00184450 0.00168517 0.01078275 0.00449518 0.04759096 0.00214651 0.00301218 0.03156898 0.00365787 0.00245798 0.00451912 0.00135157 
0.02666442 0.01980927 0.00285317 0.00134797 0.00184882 0.00169205 0.01110244 0.00455760 0.04809206 0.00218763 0.00308329 0.03235974 0.00371227 0.00253372 0.00462281 0.00135638 
0.02718947 0.02003740 0.00296581 0.00138143 0.00185069 0.00169801 0.01141258 0.00461575 0.04853190 0.00222686 0.00315044 0.03315957 0.00378153 0.00261056 0.00472751 0.00136105 
0.02772192 0.02032021 0.00310245 0.00141733 0.00185012 0.00170300 0.01171161 0.00466936 0.04890855 0.00226401 0.00321336 0.03396568 0.00386536 0.00268820 0.00483283 0.00136554 
0.02826012 0.02065516 0.00326241 0.00145555 0.00184710 0.00170697 0.01199804 0.00471814 0.04922033 0.00229887 0.00327178 0.03477532 0.00396340 0.00276632 0.00493834 0.00136982 
0.02880231 0.02103953 0.00344490 0.00149593 0.00184166 0.00170986 0.01227041 0.00476186 0.04946587 0.00233129 0.00332547 0.03558580 0.00407523 0.00284461 0.00504365 0.00137388 
0.02934666 0.02147042 0.00364906 0.00153830 0.00183382 0.00171164 0.01252734 0.00480030 0.04964404 0.00236109 0.00337422 0.03639447 0.00420031 0.00292277 0.00514836 0.00137768 
0.02989126 0.02194476 0.00387394 0.00158250 0.00182362 0.00171228 0.01276751 0.00483327 0.04975405 0.00238814 0.00341783 0.03719876 0.00433809 0.00300051 0.00525209 0.00138121 
0.03043413 0.02245930 0.00411855 0.00162834 0.00181112 0.00171175 0.01298969 0.00486063 0.04979536 0.00241230 0.00345614 0.03799619 0.00448788 0.00307755 0.00535447 0.00138445 
0.03097324 0.02301070 0.00438181 0.00167563 0.00179639 0.00171003 0.01319271 0.00488225 0.04976777 0.00243346 0.00348902 0.03878435 0.00464899 0.00315361 0.00545514 0.00138737 
0.03150650 0.02359547 0.00466259 0.00172419 0.00177951 0.00170712 0.01337553 0.00489804 0.04967137 0.00245151 0.00351636 0.03956093 0.00482063 0.00322844 0.00555374 0.00138996 
0.03203179 0.02421002 0.00495969 0.00177379 0.00176057 0.00170301 0.01353717 0.00490794 0.04950655 0.00246640 0.00353807 0.04032375 0.00500198 0.00330179 0.00564996 0.00139221 
0.03254695 0.02485068 0.00527188 0.00182424 0.00173968 0.00169771 0.01367679 0.00491192 0.04927402 0.00247804 0.00355411 0.04107072 0.00519214 0.00337342 0.00574346 0.00139409 
0.03304982 0.02551373 0.00559785 0.00187531 0.00171694 0.00169124 0.01379363 0.00490998 0.04897479 0.00248640 0.00356445 0.04179986 0.00539021 0.00344312 0.00583396 0.00139561 
0.03353822 0.02619537 0.00593629 0.00192678 0.00169250 0.00168361 0.01388707 0.00490217 0.04861017 0.00249146 0.00356910 0.04250933 0.00559521 0.00351067 0.00592116 0.00139675 
0.03401000 0.02689178 0.00628583 0.00197844 0.00166647 0.00167486 0.01395659 0.00488854 0.04818177 0.00249321 0.00356809 0.04319740 0.00580617 0.00357590 0.00600480 0.00139751 
0.03446300 0.02759912 0.00664505 0.00203005 0.00163900 0.00166503 0.01400180 0.00486918 0.04769150 0.00249166 0.00356149 0.04386249 0.00602206 0.00363864 0.00608463 0.00139787 
0.03489511 0.02831356 0.00701255 0.00208139 0.00161025 0.00165417 0.01402244 0.00484422 0.04714153 0.00248683 0.00354938 0.04450312 0.00624186 0.00369871 0.00616041 0.00139785 
0.03530427 0.02903127 0.00738688 0.00213223 0.00158037 0.00164234 0.01401836 0.00481381 0.04653431 0.00247879 0.00353189 0.04511796 0.00646451 0.00375600 0.00623192 0.00139743 
0.03568846 0.02974845 0.00776658 0.00218234 0.00154952 0.00162959 0.01398955 0.00477812 0.04587258 0.00246759 0.00350915 0.04570582 0.00668898 0.00381038 0.00629897 0.00139662 
0.03604574 0.03046137 0.00815018 0.00223151 0.00151786 0.00161599 0.01393613 0.00473735 0.04515927 0.00245331 0.00348136 0.04626563 0.00691421 0.00386174 0.00636137 0.00139543 
0.03637424 0.03116634 0.00853623 0.00227949 0.00148558 0.00160163 0.01385835 0.00469174 0.04439760 0.00243606 0.00344869 0.04679644 0.00713917 0.00391000 0.00641897 0.00139386 
0.03667219 0.03185976 0.00892326 0.00232609 0.00145284 0.00158660 0.01375657 0.00464152 0.04359098 0.00241595 0.00341137 0.04729747 0.00736284 0.00395509 0.00647162 0.00139191 
0.03693792 0.03253810 0.00930982 0.00237108 0.00141982 0.00157097 0.01363130 0.00458697 0.04274303 0.00239311 0.00336965 0.04776803 0.00758421 0.00399696 0.00651919 0.00138962 
0.03716987 0.03319795 0.00969447 0.00241427 0.00138669 0.00155485 0.01348316 0.00452837 0.04185754 0.00236768 0.00332378 0.04820757 0.00780232 0.00403558 0.00656157 0.00138697 
0.03736661 0.03383602 0.01007581 0.00245545 0.00135364 0.00153835 0.01331288 0.00446603 0.04093847 0.00233982 0.00327407 0.04861567 0.00801622 0.00407092 0.00659868 0.00138400 
0.03752685 0.03444914 0.01045246 0.00249442 0.00132083 0.00152156 0.01312133 0.00440026 0.03998995 0.00230970 0.00322080 0.04899202 0.00822501 0.00410299 0.00663045 0.00138071 
0.03764944 0.03503428 0.01082306 0.00253102 0.00128844 0.00150460 0.01290947 0.00433141 0.03901620 0.00227750 0.00316431 0.04933643 0.00842783 0.00413179 0.00665681 0.00137712 
0.03773337 0.03558857 0.01118631 0.00256507 0.00125663 0.00148759 0.01267837 0.00425982 0.03802155 0.00224340 0.00310492 0.04964883 0.00862389 0.00415736 0.00667773 0.00137326 
0.03777781 0.03610930 0.01154093 0.00259641 0.00122558 0.00147065 0.01242922 0.00418583 0.03701042 0.00220761 0.00304299 0.04992925 0.00881243 0.00417973 0.00669320 0.00136914 
0.03778208 0.03659393 0.01188573 0.00262489 0.00119543 0.00145389 0.01216327 0.00410983 0.03598728 0.00217033 0.00297888 0.05017781 0.00899277 0.00419897 0.00670320 0.00136479 
0.03774570 0.03704010 0.01221954 0.00265038 0.00116635 0.00143744 0.01188188 0.00403217 0.03495664 0.00213177 0.00291295 0.05039476 0.00916426 0.00421513 0.00670777 0.00136024 
0.03766834 0.03744563 0.01254126 0.00267277 0.00113848 0.00142142 0.01158649 0.00395324 0.03392302 0.00209216 0.00284559 0.05058043 0.00932637 0.00422829 0.00670691 0.00135550 
0.03754988 0.03780856 0.01284986 0.00269193 0.00111195 0.00140596 0.01127859 0.00387341 0.03289091 0.00205170 0.00277717 0.05073522 0.00947858 0.00423855 0.00670070 0.00135060 
0.03739039 0.03812712 0.01314439 0.00270778 0.00108689 0.00139119 0.01095976 0.00379305 0.03186479 0.00201064 0.00270809 0.05085964 0.00962050 0.00424601 0.00668919 0.00134557 
0.03719010 0.03839975 0.01342395 0.00272026 0.00106343 0.00137722 0.01063161 0.00371255 0.03084907 0.00196918 0.00263872 0.05095427 0.00975177 0.00425077 0.00667246 0.00134044 
0.03694948 0.03862509 0.01368773 0.00272929 0.00104167 0.00136418 0.01029580 0.00363228 0.02984808 0.00192755 0.00256946 0.05101976 0.00987213 0.00425295 0.00665061 0.00133523 
0.03666916 0.03880204 0.01393501 0.00273483 0.00102172 0.00135218 0.00995403 0.00355262 0.02886604 0.00188597 0.00250068 0.05105682 0.00998140 0.00425267 0.00662376 0.00132997 
0.03634997 0.03892968 0.01416513 0.00273687 0.00100366 0.00134135 0.00960803 0.00347391 0.02790705 0.00184468 0.00243276 0.05106626 0.01007946 0.00425007 0.00659204 0.00132469 
0.03599296 0.03900735 0.01437755 0.00273539 0.00098756 0.00133180 0.00925953 0.00339653 0.02697507 0.00180387 0.00236607 0.05104889 0.01016629 0.00424528 0.00655559 0.00131942 
0.03559934 0.03903459 0.01457178 0.00273040 0.00097350 0.00132363 0.00891027 0.00332081 0.02607389 0.00176376 0.00230097 0.05100563 0.01024194 0.00423844 0.00651457 0.00131417 
0.03517052 0.03901119 0.01474745 0.00272193 0.00096152 0.00131696 0.00856200 0.00324711 0.02520710 0.00172455 0.00223781 0.05093741 0.01030652 0.00422969 0.00646917 0.00130899 
0.03470810 0.03893717 0.01490427 0.00271002 0.00095166 0.00131187 0.00821643 0.00317573 0.02437811 0.00168644 0.00217692 0.05084523 0.01036025 0.00421917 0.00641957 0.00130390 
0.03421385 0.03881276 0.01504205 0.00269473 0.00094396 0.00130845 0.00787527 0.00310700 0.02359009 0.00164962 0.00211863 0.05073011 0.01040340 0.00420705 0.00636598 0.00129891 
0.03368972 0.03863844 0.01516069 0.00267613 0.00093842 0.00130680 0.00754018 0.00304121 0.02284598 0.00161426 0.00206323 0.05059311 0.01043631 0.00419345 0.00630862 0.00129406 
0.03313782 0.03841492 0.01526018 0.00265434 0.00093505 0.00130699 0.00721278 0.00297866 0.02214847 0.00158054 0.00201102 0.05043534 0.01045940 0.00417854 0.00624773 0.00128937 
0.03256040 0.03814311 0.01534060 0.00262945 0.00093384 0.00130910 0.00689464 0.00291960 0.02149998 0.00154860 0.00196225 0.05025791 0.01047315 0.00416245 0.00618355 0.00128486 
0.03195990 0.03782417 0.01540214 0.00260159 0.00093476 0.00131317 0.00658727 0.00286429 0.02090267 0.00151859 0.00191717 0.05006197 0.01047810 0.00414534 0.00611635 0.00128056 
0.03133886 0.03745945 0.01544506 0.00257090 0.00093779 0.00131927 0.00629211 0.00281296 0.02035840 0.00149065 0.00187600 0.04984869 0.01047485 0.00412734 0.00604640 0.00127647 
0.03069995 0.03705054 0.01546972 0.00253755 0.00094286 0.00132744 0.00601052 0.00276583 0.01986874 0.00146490 0.00183894 0.04961924 0.01046404 0.00410860 0.00597399 0.00127263 
0.03004597 0.03659921 0.01547657 0.00250169 0.00094993 0.00133771 0.00574377 0.00272310 0.01943497 0.00144142 0.00180616 0.04937482 0.01044638 0.00408925 0.00589941 0.00126904 
0.02937980 0.03610745 0.01546614 0.00246352 0.00095893 0.00135010 0.00549304 0.00268495 0.01905805 0.00142033 0.00177781 0.04911664 0.01042260 0.00406943 0.00582299 0.00126572 
0.02870444 0.03557741 0.01543903 0.00242322 0.00096977 0.00136464 0.00525942 0.00265154 0.01873864 0.00140169 0.00175400 0.04884592 0.01039347 0.00404926 0.00574503 0.00126269 
0.02802293 0.03501146 0.01539592 0.00238101 0.00098236 0.00138133 0.00504389 0.00262300 0.01847711 0.00138557 0.00173483 0.04856386 0.01035980 0.00402886 0.00566586 0.00125995 
0.02733839 0.03441213 0.01533758 0.00233710 0.00099660 0.00140016 0.00484731 0.00259946 0.01827349 0.00137200 0.00172037 0.04827169 0.01032241 0.00400835 0.00558584 0.00125751 
0.02665398 0.03378211 0.01526484 0.00229172 0.00101239 0.00142111 0.00467045 0.00258101 0.01812752 0.00136104 0.00171066 0.04797062 0.01028215 0.00398785 0.00550529 0.00125538 
0.02597288 0.03312423 0.01517857 0.00224510 0.00102961 0.00144416 0.00451393 0.00256775 0.01803866 0.00135268 0.00170569 0.04766188 0.01023988 0.00396746 0.00542458 0.00125357 
0.02529831 0.03244150 0.01507974 0.00219747 0.00104813 0.00146928 0.00437827 0.00255972 0.01800603 0.00134694 0.00170546 0.04734667 0.01019646 0.00394727 0.00534407 0.00125208 
0.02463347 0.03173702 0.01496933 0.00214909 0.00106781 0.00149641 0.00426387 0.00255698 0.01802851 0.00134380 0.00170992 0.04702621 0.01015275 0.00392739 0.00526411 0.00125091 
0.02398153 0.03101404 0.01484839 0.00210021 0.00108853 0.00152551 0.00417099 0.00255954 0.01810467 0.00134324 0.00171900 0.04670167 0.01010960 0.00390788 0.00518508 0.00125006 
0.02334566 0.03027590 0.01471802 0.00205106 0.00111014 0.00155650 0.00409978 0.00256740 0.01823282 0.00134521 0.00173260 0.04637426 0.01006786 0.00388884 0.00510735 0.00124953 
0.02272895 0.02952603 0.01457932 0.00200192 0.00113249 0.00158931 0.00405023 0.00258056 0.01841103 0.00134967 0.00175059 0.04604514 0.01002835 0.00387034 0.00503128 0.00124931 
0.02213445 0.02876794 0.01443344 0.00195303 0.00115543 0.00162386 0.00402226 0.00259897 0.01863710 0.00135654 0.00177282 0.04571548 0.00999185 0.00385243 0.00495724 0.00124939 
0.02156510 0.02800521 0.01428155 0.00190463 0.00117880 0.00166005 0.00401561 0.00262259 0.01890863 0.00136576 0.00179912 0.04538642 0.00995914 0.00383518 0.00488562 0.00124977 
0.02102377 0.02724145 0.01412484 0.00185699 0.00120246 0.00169777 0.00402993 0.00265135 0.01922300 0.00137722 0.00182929 0.04505908 0.00993094 0.00381864 0.00481676 0.00125045 
0.02051321 0.02648033 0.01396447 0.00181035 0.00122624 0.00173693 0.00406474 0.00268516 0.01957739 0.00139084 0.00186310 0.04473459 0.00990794 0.00380286 0.00475103 0.00125139 
0.02003604 0.02572550 0.01380165 0.00176494 0.00124999 0.00177740 0.00411946 0.00272393 0.01996882 0.00140650 0.00190032 0.04441402 0.00989077 0.00378787 0.00468879 0.00125261 
0.01959474 0.02498066 0.01363754 0.00172099 0.00127354 0.00181906 0.00419336 0.00276754 0.02039414 0.00142407 0.00194068 0.04409847 0.00988003 0.00377370 0.00463039 0.00125407 
0.01919164 0.02424945 0.01347331 0.00167874 0.00129676 0.00186178 0.00428565 0.00281586 0.02085007 0.00144344 0.00198391 0.04378898 0.00987625 0.00376039 0.00457615 0.00125576 
0.01882892 0.02353551 0.01331009 0.00163840 0.00131948 0.00190542 0.00439542 0.00286875 0.02133321 0.00146447 0.00202972 0.04348659 0.00987991 0.00374795 0.00452641 0.00125767 
0.01850856 0.02284240 0.01314901 0.00160017 0.00134156 0.00194985 0.00452164 0.00292606 0.02184008 0.00148700 0.00207778 0.04319230 0.00989142 0.00373640 0.00448148 0.00125979 
0.01823236 0.02217367 0.01299113 0.00156424 0.00136285 0.00199490 0.00466323 0.00298761 0.02236711 0.00151090 0.00212779 0.04290710 0.00991113 0.00372576 0.00444167 0.00126208 
0.01800191 0.02153273 0.01283748 0.00153080 0.00138321 0.00204044 0.00481900 0.00305323 0.02291069 0.00153601 0.00217941 0.04263197 0.00993934 0.00371603 0.00440726 0.00126453 
0.01781863 0.02092295 0.01268907 0.00150001 0.00140250 0.00208632 0.00498770 0.00312274 0.02346717 0.00156217 0.00223229 0.04236783 0.00997625 0.00370721 0.00437851 0.00126712 
0.01768368 0.02034755 0.01254681 0.00147202 0.00142061 0.00213237 0.00516802 0.00319593 0.02403290 0.00158923 0.00228609 0.04211561 0.01002202 0.00369931 0.00435568 0.00126983 
0.01759801 0.01980965 0.01241159 0.00144697 0.00143741 0.00217845 0.00535858 0.00327261 0.02460423 0.00161700 0.00234046 0.04187620 0.01007674 0.00369232 0.00433900 0.00127264 
0.01756237 0.01931221 0.01228421 0.00142498 0.00145278 0.00222439 0.00555794 0.00335257 0.02517757 0.00164534 0.00239504 0.04165047 0.01014042 0.00368624 0.00432869 0.00127553 
0.01757723 0.01885807 0.01216542 0.00140615 0.00146661 0.00227003 0.00576464 0.00343558 0.02574935 0.00167407 0.00244947 0.04143925 0.01021301 0.00368106 0.00432492 0.00127847 
0.01764286 0.01844985 0.01205588 0.00139057 0.00147882 0.00231523 0.00597719 0.00352142 0.02631609 0.00170304 0.00250340 0.04124336 0.01029438 0.00367676 0.00432787 0.00128144 
0.01775928 0.01809005 0.01195618 0.00137830 0.00148932 0.00235982 0.00619406 0.00360988 0.02687441 0.00173207 0.00255648 0.04106360 0.01038435 0.00367335 0.00433767 0.00128443 
0.01792625 0.01778092 0.01186684 0.00136940 0.00149801 0.00240366 0.00641372 0.00370071 0.02742103 0.00176100 0.00260836 0.04090070 0.01048268 0.00367080 0.00435445 0.00128741 
0.01814332 0.01752455 0.01178828 0.00136389 0.00150485 0.00244659 0.00663463 0.00379369 0.02795279 0.00178968 0.00265871 0.04075542 0.01058905 0.00366911 0.00437830 0.00129036 
0.01840978 0.01732278 0.01172084 0.00136178 0.00150976 0.00248847 0.00685525 0.00388859 0.02846670 0.00181794 0.00270718 0.04062844 0.01070311 0.00366826 0.00440928 0.00129326 
0.01872468 0.01717726 0.01166478 0.00136308 0.00151269 0.00252915 0.00707408 0.00398516 0.02895990 0.00184565 0.00275347 0.04052045 0.01082444 0.00366825 0.00444743 0.00129610 
0.01908686 0.01708936 0.01162026 0.00136775 0.00151363 0.00256851 0.00728960 0.00408318 0.02942973 0.00187264 0.00279727 0.04043207 0.01095256 0.00366906 0.00449276 0.00129885 
0.01949490 0.01706026 0.01158737 0.00137574 0.00151252 0.00260639 0.00750037 0.00418241 0.02987368 0.00189879 0.00283829 0.04036393 0.01108697 0.00367068 0.00454526 0.00130150 
0.01994719 0.01709084 0.01156608 0.00138700 0.00150937 0.00264270 0.00770496 0.00428262 0.03028947 0.00192395 0.00287624 0.04031659 0.01122710 0.00367311 0.00460489 0.00130403 
0.02044187 0.01718176 0.01155629 0.00140145 0.00150416 0.00267729 0.00790200 0.00438359 0.03067501 0.00194800 0.00291089 0.04029060 0.01137238 0.00367634 0.00467157 0.00130642 
0.02097689 0.01733341 0.01155783 0.00141898 0.00149689 0.00271007 0.00809018 0.00448508 0.03102842 0.00197082 0.00294199 0.04028645 0.01152216 0.00368036 0.00474520 0.00130868 
0.02155002 0.01754590 0.01157041 0.00143949 0.00148760 0.00274093 0.00826824 0.00458687 0.03134805 0.00199229 0.00296931 0.04030463 0.01167581 0.00368518 0.00482567 0.00131077 
0.02215881 0.01781911 0.01159367 0.00146284 0.00147630 0.00276977 0.00843501 0.00468874 0.03163247 0.00201232 0.00299268 0.04034554 0.01183264 0.00369080 0.00491282 0.00131270 
0.02280066 0.01815261 0.01162719 0.00148888 0.00146303 0.00279652 0.00858939 0.00479048 0.03188049 0.00203080 0.00301191 0.04040959 0.01199197 0.00369721 0.00500647 0.00131445 
0.02347278 0.01854575 0.01167043 0.00151747 0.00144785 0.00282108 0.00873037 0.00489189 0.03209113 0.00204766 0.00302687 0.04049709 0.01215309 0.00370443 0.00510642 0.00131601 
0.02417227 0.01899756 0.01172281 0.00154842 0.00143080 0.00284340 0.00885702 0.00499275 0.03226365 0.00206282 0.00303742 0.04060836 0.01231531 0.00371245 0.00521245 0.00131739 
0.02489605 0.01950687 0.01178368 0.00158156 0.00141196 0.00286341 0.00896852 0.00509287 0.03239755 0.00207620 0.00304346 0.04074362 0.01247790 0.00372130 0.00532430 0.00131857 
0.02564095 0.02007220 0.01185229 0.00161668 0.00139141 0.00288107 0.00906415 0.00519206 0.03249255 0.00208776 0.00304494 0.04090306 0.01264017 0.00373098 0.00544170 0.00131955 
0.02640368 0.02069185 0.01192787 0.00165359 0.00136923 0.00289633 0.00914327 0.00529013 0.03254859 0.00209744 0.00304180 0.04108682 0.01280141 0.00374151 0.00556436 0.00132034 
0.02718086 0.02136386 0.01200958 0.00169207 0.00134551 0.00290917 0.00920537 0.00538691 0.03256584 0.00210522 0.00303402 0.04129497 0.01296094 0.00375291 0.00569196 0.00132092 
0.02796906 0.02208604 0.01209653 0.00173190 0.00132037 0.00291957 0.00925005 0.00548222 0.03254467 0.00211106 0.00302162 0.04152751 0.01311810 0.00376520 0.00582417 0.00132131 
0.02876477 0.02285597 0.01218778 0.00177287 0.00129391 0.00292752 0.00927702 0.00557590 0.03248566 0.00211494 0.00300462 0.04178439 0.01327224 0.00377839 0.00596064 0.00132151 
0.02956444 0.02367100 0.01228238 0.00181474 0.00126624 0.00293302 0.00928608 0.00566780 0.03238960 0.00211687 0.00298309 0.04206546 0.01342274 0.00379252 0.00610100 0.00132152 
0.03036452 0.02452831 0.01237931 0.00185728 0.00123750 0.00293607 0.00927719 0.00575776 0.03225743 0.00211684 0.00295711 0.04237053 0.01356901 0.00380759 0.00624488 0.00132136 
0.03116144 0.02542485 0.01247757 0.00190027 0.00120781 0.00293671 0.00925038 0.00584563 0.03209031 0.00211487 0.00292680 0.04269930 0.01371049 0.00382364 0.00639187 0.00132102 
0.03195167 0.02635741 0.01257610 0.00194348 0.00117730 0.00293495 0.00920581 0.00593129 0.03188952 0.00211099 0.00289229 0.04305142 0.01384665 0.00384069 0.00654158 0.00132051 
0.03273168 0.02732262 0.01267388 0.00198667 0.00114612 0.00293084 0.00914375 0.00601461 0.03165653 0.00210523 0.00285374 0.04342642 0.01397700 0.00385876 0.00669358 0.00131986 
0.03349801 0.02831695 0.01276985 0.00202963 0.00111441 0.00292442 0.00906459 0.00609546 0.03139292 0.00209763 0.00281134 0.04382375 0.01410111 0.00387787 0.00684746 0.00131906 
0.03424729 0.02933676 0.01286297 0.00207214 0.00108232 0.00291574 0.00896881 0.00617372 0.03110040 0.00208825 0.00276529 0.04424278 0.01421855 0.00389804 0.00700279 0.00131814 
0.03497620 0.03037828 0.01295221 0.00211400 0.00104999 0.00290488 0.00885700 0.00624929 0.03078079 0.00207714 0.00271581 0.04468277 0.01432896 0.00391930 0.00715913 0.00131710 
0.03568154 0.03143765 0.01303656 0.00215499 0.00101757 0.00289189 0.00872985 0.00632207 0.03043603 0.00206439 0.00266316 0.04514289 0.01443201 0.00394166 0.00731604 0.00131596 
0.03636024 0.03251095 0.01311504 0.00219493 0.00098522 0.00287687 0.00858815 0.00639195 0.03006809 0.00205006 0.00260758 0.04562219 0.01452743 0.00396513 0.00747309 0.00131474 
0.03700935 0.03359420 0.01318669 0.00223363 0.00095309 0.00285988 0.00843277 0.00645885 0.02967906 0.00203424 0.00254937 0.04611963 0.01461497 0.00398972 0.00762984 0.00131345 
0.03762609 0.03468337 0.01325061 0.00227094 0.00092133 0.00284103 0.00826468 0.00652268 0.02927105 0.00201703 0.00248881 0.04663407 0.01469443 0.00401544 0.00778585 0.00131210 
0.03820783 0.03577443 0.01330592 0.00230668 0.00089009 0.00282041 0.00808491 0.00658336 0.02884622 0.00199853 0.00242620 0.04716426 0.01476565 0.00404228 0.00794068 0.00131071 
0.03875214 0.03686336 0.01335180 0.00234074 0.00085953 0.00279812 0.00789457 0.00664082 0.02840673 0.00197885 0.00236187 0.04770883 0.01482852 0.00407025 0.00809391 0.00130930 
0.03925676 0.03794616 0.01338751 0.00237297 0.00082978 0.00277426 0.00769484 0.00669499 0.02795478 0.00195809 0.00229614 0.04826633 0.01488296 0.00409933 0.00824511 0.00130789 
0.03971965 0.03901888 0.01341233 0.00240327 0.00080100 0.00274895 0.00748696 0.00674581 0.02749256 0.00193638 0.00222934 0.04883519 0.01492891 0.00412950 0.00839386 0.00130649 
0.04013900 0.04007764 0.01342564 0.00243155 0.00077332 0.00272231 0.00727222 0.00679321 0.02702221 0.00191385 0.00216181 0.04941374 0.01496638 0.00416075 0.00853976 0.00130511 
0.04051319 0.04111864 0.01342688 0.00245774 0.00074688 0.00269444 0.00705194 0.00683714 0.02654588 0.00189062 0.00209389 0.05000022 0.01499538 0.00419304 0.00868241 0.00130377 
0.04084088 0.04213822 0.01341556 0.00248178 0.00072182 0.00266546 0.00682751 0.00687756 0.02606565 0.00186682 0.00202592 0.05059279 0.01501596 0.00422634 0.00882143 0.00130248 
0.04112093 0.04313280 0.01339127 0.00250364 0.00069826 0.00263550 0.00660031 0.00691442 0.02558356 0.00184259 0.00195825 0.05118950 0.01502821 0.00426060 0.00895643 0.00130126 
0.04135249 0.04409898 0.01335369 0.00252329 0.00067633 0.00260469 0.00637177 0.00694767 0.02510158 0.00181806 0.00189121 0.05178834 0.01503223 0.00429578 0.00908706 0.00130012 
0.04153492 0.04503351 0.01330256 0.00254074 0.00065613 0.00257313 0.00614331 0.00697728 0.02462161 0.00179338 0.00182513 0.05238720 0.01502814 0.00433181 0.00921297 0.00129908 
0.04166789 0.04593333 0.01323772 0.00255602 0.00063778 0.00254096 0.00591637 0.00700323 0.02414546 0.00176869 0.00176036 0.05298395 0.01501609 0.00436863 0.00933382 0.00129813 
0.04175128 0.04679557 0.01315910 0.00256915 0.00062138 0.00250830 0.00569238 0.00702548 0.02367485 0.00174413 0.00169720 0.05357638 0.01499622 0.00440617 0.00944932 0.00129730 
0.04178527 0.04761757 0.01306672 0.00258020 0.00060703 0.00247528 0.00547275 0.00704401 0.02321141 0.00171984 0.00163596 0.05416224 0.01496872 0.00444435 0.00955914 0.00129659 
0.04177027 0.04839690 0.01296066 0.00258925 0.00059481 0.00244201 0.00525889 0.00705880 0.02275666 0.00169597 0.00157695 0.05473926 0.01493377 0.00448307 0.00966303 0.00129600 
0.04170697 0.04913136 0.01284111 0.00259638 0.00058480 0.00240861 0.00505217 0.00706985 0.02231201 0.00167265 0.00152045 0.05530515 0.01489155 0.00452225 0.00976071 0.00129554 
0.04159632 0.04981900 0.01270834 0.00260171 0.00057707 0.00237521 0.00485392 0.00707714 0.02187876 0.00165002 0.00146673 0.05585761 0.01484225 0.00456179 0.00985196 0.00129521 
0.04143950 0.05045812 0.01256270 0.00260537 0.00057169 0.00234191 0.00466544 0.00708067 0.02145810 0.00162822 0.00141604 0.05639438 0.01478606 0.00460157 0.00993654 0.00129502 
0.04123794 0.05104731 0.01240463 0.00260749 0.00056870 0.00230884 0.00448796 0.00708045 0.02105108 0.00160738 0.00136862 0.05691319 0.01472319 0.00464150 0.01001427 0.00129497 
0.04099333 0.05158538 0.01223463 0.00260823 0.00056815 0.00227611 0.00432269 0.00707648 0.02065866 0.00158763 0.00132468 0.05741186 0.01465383 0.00468146 0.01008496 0.00129504 
0.04070756 0.05207147 0.01205330 0.00260777 0.00057008 0.00224381 0.00417073 0.00706877 0.02028166 0.00156909 0.00128443 0.05788824 0.01457816 0.00472133 0.01014847 0.00129525 
0.04038275 0.05250496 0.01186129 0.00260627 0.00057450 0.00221206 0.00403316 0.00705736 0.01992078 0.00155188 0.00124804 0.05834027 0.01449637 0.00476098 0.01020466 0.00129557 
0.04002123 0.05288552 0.01165933 0.00260393 0.00058145 0.00218096 0.00391096 0.00704226 0.01957662 0.00153612 0.00121565 0.05876601 0.01440863 0.00480030 0.01025344 0.00129601 
0.03962552 0.05321309 0.01144821 0.00260095 0.00059091 0.00215060 0.00380502 0.00702352 0.01924965 0.00152191 0.00118742 0.05916361 0.01431512 0.00483917 0.01029472 0.00129655 
0.03919834 0.05348790 0.01122878 0.00259753 0.00060289 0.00212107 0.00371617 0.00700116 0.01894022 0.00150936 0.00116343 0.05953138 0.01421599 0.00487745 0.01032844 0.00129719 
0.03874254 0.05371043 0.01100194 0.00259388 0.00061738 0.00209246 0.00364514 0.00697525 0.01864860 0.00149855 0.00114379 0.05986776 0.01411141 0.00491504 0.01035459 0.00129790 
0.03826116 0.05388144 0.01076865 0.00259023 0.00063436 0.00206485 0.00359257 0.00694583 0.01837492 0.00148957 0.00112854 0.06017138 0.01400151 0.00495180 0.01037315 0.00129868 
0.03775735 0.05400194 0.01052990 0.00258678 0.00065378 0.00203833 0.00355902 0.00691298 0.01811924 0.00148250 0.00111774 0.06044107 0.01388644 0.00498763 0.01038416 0.00129951 
0.03723438 0.05407319 0.01028672 0.00258376 0.00067562 0.00201296 0.00354492 0.00687675 0.01788151 0.00147740 0.00111139 0.06067584 0.01376632 0.00502240 0.01038766 0.00130037 
0.03669562 0.05409668 0.01004017 0.00258138 0.00069981 0.00198882 0.00355064 0.00683724 0.01766159 0.00147433 0.00110947 0.06087496 0.01364128 0.00505603 0.01038373 0.00130124 
0.03614453 0.05407414 0.00979134 0.00257985 0.00072631 0.00196596 0.00357642 0.00679452 0.01745927 0.00147335 0.00111197 0.06103791 0.01351144 0.00508840 0.01037248 0.00130210 
0.03558461 0.05400750 0.00954131 0.00257938 0.00075504 0.00194444 0.00362241 0.00674871 0.01727427 0.00147448 0.00111883 0.06116444 0.01337691 0.00511942 0.01035404 0.00130292 
0.03501943 0.05389888 0.00929121 0.00258018 0.00078592 0.00192433 0.00368867 0.00669990 0.01710621 0.00147776 0.00112996 0.06125457 0.01323781 0.00514902 0.01032857 0.00130368 
0.03445254 0.05375061 0.00904215 0.00258243 0.00081887 0.00190566 0.00377512 0.00664820 0.01695470 0.00148320 0.00114527 0.06130858 0.01309425 0.00517713 0.01029627 0.00130437 
0.03388754 0.05356515 0.00879525 0.00258633 0.00085380 0.00188848 0.00388163 0.00659375 0.01681924 0.00149081 0.00116463 0.06132707 0.01294634 0.00520367 0.01025735 0.00130495 
0.03332795 0.05334512 0.00855160 0.00259205 0.00089060 0.00187282 0.00400794 0.00653667 0.01669933 0.00150059 0.00118791 0.06131091 0.01279421 0.00522862 0.01021206 0.00130539 
0.03277731 0.05309329 0.00831229 0.00259974 0.00092917 0.00185872 0.00415370 0.00647711 0.01659441 0.00151251 0.00121496 0.06126129 0.01263798 0.00525192 0.01016067 0.00130567 
0.03223904 0.05281250 0.00807839 0.00260954 0.00096938 0.00184621 0.00431847 0.00641521 0.01650388 0.00152654 0.00124558 0.06117969 0.01247778 0.00527356 0.01010347 0.00130577 
0.03171653 0.05250571 0.00785094 0.00262160 0.00101112 0.00183531 0.00450170 0.00635113 0.01642715 0.00154266 0.00127960 0.06106793 0.01231376 0.00529354 0.01004080 0.00130565 
0.03121303 0.05217594 0.00763093 0.00263603 0.00105425 0.00182603 0.00470277 0.00628504 0.01636357 0.00156080 0.00131681 0.06092811 0.01214607 0.00531186 0.00997300 0.00130529 
0.03073169 0.05182625 0.00741933 0.00265291 0.00109864 0.00181838 0.00492097 0.00621711 0.01631251 0.00158091 0.00135698 0.06076265 0.01197490 0.00532855 0.00990045 0.00130466 
0.03027552 0.05145975 0.00721707 0.00267232 0.00114414 0.00181238 0.00515551 0.00614752 0.01627331 0.00160290 0.00139989 0.06057428 0.01180044 0.00534365 0.00982355 0.00130374 
0.02984735 0.05107955 0.00702499 0.00269433 0.00119061 0.00180803 0.00540552 0.00607647 0.01624535 0.00162670 0.00144529 0.06036600 0.01162290 0.00535721 0.00974273 0.00130250 
0.02944987 0.05068874 0.00684392 0.00271896 0.00123790 0.00180531 0.00567007 0.00600413 0.01622797 0.00165221 0.00149294 0.06014111 0.01144253 0.00536932 0.00965842 0.00130091 
0.02908555 0.05029039 0.00667461 0.00274623 0.00128584 0.00180424 0.00594815 0.00593073 0.01622056 0.00167932 0.00154257 0.05990319 0.01125958 0.00538006 0.00957110 0.00129895 
0.02875667 0.04988754 0.00651773 0.00277614 0.00133428 0.00180478 0.00623870 0.00585645 0.01622250 0.00170792 0.00159393 0.05965605 0.01107435 0.00538954 0.00948124 0.00129661 
0.02846529 0.04948312 0.00637393 0.00280866 0.00138306 0.00180693 0.00654061 0.00578152 0.01623321 0.00173788 0.00164674 0.05940378 0.01088716 0.00539789 0.00938935 0.00129385 
0.02821323 0.04908002 0.00624373 0.00284372 0.00143200 0.00181067 0.00685271 0.00570614 0.01625212 0.00176907 0.00170075 0.05915064 0.01069837 0.00540524 0.00929594 0.00129066 
0.02800207 0.04868101 0.00612762 0.00288128 0.00148094 0.00181596 0.00717381 0.00563053 0.01627869 0.00180134 0.00175568 0.05890112 0.01050835 0.00541175 0.00920155 0.00128702 
0.02783315 0.04828876 0.00602600 0.00292121 0.00152971 0.00182278 0.00750266 0.00555492 0.01631242 0.00183453 0.00181127 0.05865988 0.01031753 0.00541759 0.00910672 0.00128291 
0.02770752 0.04790578 0.00593919 0.00296343 0.00157813 0.00183110 0.00783800 0.00547952 0.01635284 0.00186850 0.00186726 0.05843170 0.01012635 0.00542294 0.00901199 0.00127833 
0.02762599 0.04753447 0.00586742 0.00300778 0.00162604 0.00184087 0.00817855 0.00540456 0.01639950 0.00190307 0.00192338 0.05822151 0.00993529 0.00542801 0.00891792 0.00127327 
0.02758908 0.04717706 0.00581088 0.00305411 0.00167326 0.00185206 0.00852302 0.00533025 0.01645200 0.00193808 0.00197939 0.05803431 0.00974488 0.00543299 0.00882509 0.00126771 
0.02759705 0.04683564 0.00576963 0.00310225 0.00171962 0.00186462 0.00887009 0.00525682 0.01650995 0.00197335 0.00203504 0.05787515 0.00955565 0.00543811 0.00873404 0.00126164 
0.02764986 0.04651210 0.00574369 0.00315199 0.00176495 0.00187850 0.00921847 0.00518449 0.01657304 0.00200869 0.00209010 0.05774912 0.00936820 0.00544358 0.00864535 0.00125508 
0.02774722 0.04620816 0.00573297 0.00320314 0.00180908 0.00189365 0.00956687 0.00511346 0.01664095 0.00204393 0.00214434 0.05766128 0.00918313 0.00544966 0.00855958 0.00124802 
0.02788853 0.04592538 0.00573732 0.00325546 0.00185185 0.00191001 0.00991399 0.00504396 0.01671341 0.00207889 0.00219755 0.05761665 0.00900107 0.00545656 0.00847728 0.00124045 
0.02807294 0.04566510 0.00575650 0.00330871 0.00189310 0.00192752 0.01025860 0.00497619 0.01679018 0.00211336 0.00224953 0.05762016 0.00882271 0.00546455 0.00839901 0.00123240 
0.02829933 0.04542848 0.00579022 0.00336264 0.00193266 0.00194613 0.01059944 0.00491034 0.01687105 0.00214718 0.00230009 0.05767664 0.00864871 0.00547386 0.00832529 0.00122387 
0.02856633 0.04521652 0.00583809 0.00341698 0.00197039 0.00196577 0.01093534 0.00484661 0.01695585 0.00218014 0.00234907 0.05779074 0.00847981 0.00548474 0.00825665 0.00121488 
0.02887229 0.04502998 0.00589966 0.00347145 0.00200614 0.00198637 0.01126512 0.00478518 0.01704441 0.00221208 0.00239631 0.05796694 0.00831671 0.00549743 0.00819359 0.00120543 
0.02921534 0.04486947 0.00597442 0.00352576 0.00203976 0.00200786 0.01158769 0.00472624 0.01713660 0.00224281 0.00244167 0.05820947 0.00816018 0.00551217 0.00813661 0.00119556 
0.02959337 0.04473542 0.00606178 0.00357963 0.00207112 0.00203018 0.01190198 0.00466994 0.01723231 0.00227215 0.00248503 0.05852232 0.00801095 0.00552919 0.00808616 0.00118528 
0.03000408 0.04462806 0.00616110 0.00363276 0.00210009 0.00205325 0.01220698 0.00461645 0.01733144 0.00229993 0.00252629 0.05890916 0.00786979 0.00554873 0.00804268 0.00117463 
0.03044493 0.04454747 0.00627170 0.00368485 0.00212656 0.00207700 0.01250175 0.00456590 0.01743390 0.00232599 0.00256535 0.05937334 0.00773745 0.00557099 0.00800659 0.00116362 
0.03091322 0.04449356 0.00639282 0.00373560 0.00215040 0.00210135 0.01278541 0.00451844 0.01753963 0.00235018 0.00260216 0.05991787 0.00761470 0.00559618 0.00797827 0.00115231 
0.03140608 0.04446608 0.00652367 0.00378471 0.00217153 0.00212623 0.01305715 0.00447419 0.01764856 0.00237234 0.00263665 0.06054535 0.00750228 0.00562449 0.00795807 0.00114072 
0.03192047 0.04446467 0.00666342 0.00383189 0.00218984 0.00215156 0.01331624 0.00443324 0.01776062 0.00239233 0.00266880 0.06125795 0.00740093 0.00565609 0.00794630 0.00112890 
0.03245326 0.04448880 0.00681120 0.00387684 0.00220526 0.00217727 0.01356201 0.00439571 0.01787576 0.00241004 0.00269860 0.06205742 0.00731136 0.00569114 0.00794326 0.00111687 
0.03300117 0.04453786 0.00696610 0.00391928 0.00221771 0.00220327 0.01379387 0.00436166 0.01799392 0.00242533 0.00272604 0.06294505 0.00723427 0.00572977 0.00794919 0.00110470 
0.03356085 0.04461111 0.00712721 0.00395893 0.00222714 0.00222950 0.01401132 0.00433118 0.01811502 0.00243811 0.00275114 0.06392161 0.00717032 0.00577210 0.00796429 0.00109243 
0.03412888 0.04470772 0.00729356 0.00399553 0.00223349 0.00225588 0.01421392 0.00430430 0.01823899 0.00244829 0.00277394 0.06498741 0.00712014 0.00581822 0.00798873 0.00108011 
0.03470179 0.04482681 0.00746420 0.00402883 0.00223674 0.00228232 0.01440134 0.00428107 0.01836575 0.00245578 0.00279449 0.06614222 0.00708431 0.00586819 0.00802263 0.00106778 
0.03527610 0.04496740 0.00763815 0.00405859 0.00223685 0.00230876 0.01457330 0.00426152 0.01849521 0.00246053 0.00281285 0.06738528 0.00706339 0.00592205 0.00806608 0.00105551 
0.03584830 0.04512851 0.00781444 0.00408458 0.00223382 0.00233513 0.01472963 0.00424566 0.01862726 0.00246248 0.00282912 0.06871533 0.00705786 0.00597982 0.00811913 0.00104335 
0.03641493 0.04530908 0.00799208 0.00410661 0.00222765 0.00236135 0.01487023 0.00423347 0.01876179 0.00246160 0.00284336 0.07013053 0.00706816 0.00604149 0.00818176 0.00103135 
0.03697255 0.04550806 0.00817012 0.00412447 0.00221836 0.00238735 0.01499507 0.00422494 0.01889864 0.00245787 0.00285571 0.07162853 0.00709466 0.00610701 0.00825393 0.00101957 
0.03751781 0.04572440 0.00834758 0.00413800 0.00220598 0.00241307 0.01510420 0.00422005 0.01903768 0.00245130 0.00286626 0.07320643 0.00713770 0.00617630 0.00833556 0.00100807 
0.03804741 0.04595704 0.00852352 0.00414706 0.00219055 0.00243844 0.01519776 0.00421873 0.01917873 0.00244189 0.00287514 0.07486082 0.00719749 0.00624927 0.00842652 0.00099690 
0.03855818 0.04620497 0.00869703 0.00415152 0.00217213 0.00246341 0.01527595 0.00422095 0.01932162 0.00242969 0.00288248 0.07658776 0.00727422 0.00632579 0.00852664 0.00098613 
0.03904706 0.04646721 0.00886721 0.00415128 0.00215079 0.00248790 0.01533904 0.00422661 0.01946614 0.00241473 0.00288843 0.07838280 0.00736799 0.00640568 0.00863571 0.00097581 
0.03951115 0.04674281 0.00903318 0.00414625 0.00212662 0.00251187 0.01538739 0.00423564 0.01961208 0.00239709 0.00289313 0.08024103 0.00747881 0.00648877 0.00875347 0.00096600 
0.03994768 0.04703090 0.00919412 0.00413638 0.00209972 0.00253527 0.01542138 0.00424794 0.01975921 0.00237684 0.00289672 0.08215705 0.00760661 0.00657482 0.00887965 0.00095674 
0.04035410 0.04733069 0.00934924 0.00412164 0.00207019 0.00255805 0.01544148 0.00426341 0.01990730 0.00235408 0.00289937 0.08412502 0.00775125 0.00666360 0.00901392 0.00094811 
0.04072801 0.04764144 0.00949778 0.00410202 0.00203817 0.00258016 0.01544821 0.00428194 0.02005609 0.00232893 0.00290121 0.08613870 0.00791249 0.00675482 0.00915591 0.00094014 
0.04106723 0.04796254 0.00963903 0.00407754 0.00200379 0.00260156 0.01544214 0.00430339 0.02020533 0.00230152 0.00290240 0.08819146 0.00809002 0.00684817 0.00930525 0.00093290 
0.04136979 0.04829344 0.00977234 0.00404824 0.00196720 0.00262222 0.01542387 0.00432763 0.02035476 0.00227197 0.00290310 0.09027630 0.00828342 0.00694334 0.00946151 0.00092642 
0.04163396 0.04863370 0.00989710 0.00401419 0.00192857 0.00264211 0.01539405 0.00435452 0.02050410 0.00224046 0.00290345 0.09238594 0.00849220 0.00703996 0.00962424 0.00092075 
0.04185824 0.04898300 0.01001275 0.00397548 0.00188807 0.00266119 0.01535338 0.00438392 0.02065310 0.00220715 0.00290359 0.09451278 0.00871579 0.00713766 0.00979298 0.00091593 
0.04204135 0.04934110 0.01011879 0.00393222 0.00184588 0.00267946 0.01530256 0.00441566 0.02080149 0.00217223 0.00290366 0.09664901 0.00895350 0.00723605 0.00996724 0.00091200 
0.04218229 0.04970791 0.01021478 0.00388456 0.00180221 0.00269688 0.01524233 0.00444961 0.02094900 0.00213588 0.00290379 0.09878660 0.00920461 0.00733471 0.01014650 0.00090900 
0.04228027 0.05008341 0.01030034 0.00383264 0.00175724 0.00271345 0.01517344 0.00448558 0.02109539 0.00209830 0.00290411 0.10091739 0.00946827 0.00743322 0.01033023 0.00090696 
0.04233479 0.05046770 0.01037513 0.00377666 0.00171120 0.00272916 0.01509667 0.00452343 0.02124042 0.00205972 0.00290472 0.10303309 0.00974357 0.00753113 0.01051790 0.00090590 
0.04234557 0.05086100 0.01043889 0.00371682 0.00166431 0.00274400 0.01501277 0.00456299 0.02138386 0.00202034 0.00290574 0.10512535 0.01002954 0.00762799 0.01070896 0.00090584 
0.04231260 0.05126361 0.01049141 0.00365333 0.00161678 0.00275798 0.01492253 0.00460408 0.02152550 0.00198039 0.00290726 0.10718579 0.01032511 0.00772333 0.01090284 0.00090681 
0.04223609 0.05167594 0.01053255 0.00358644 0.00156886 0.00277111 0.01482672 0.00464655 0.02166516 0.00194011 0.00290935 0.10920608 0.01062916 0.00781670 0.01109899 0.00090881 
0.04211650 0.05209848 0.01056221 0.00351640 0.00152078 0.00278338 0.01472610 0.00469023 0.02180267 0.00189973 0.00291208 0.11117794 0.01094051 0.00790761 0.01129684 0.00091185 
0.04195453 0.05253179 0.01058037 0.00344349 0.00147277 0.00279482 0.01462141 0.00473495 0.02193789 0.00185949 0.00291552 0.11309322 0.01125791 0.00799560 0.01149583 0.00091594 
0.04175109 0.05297654 0.01058704 0.00336798 0.00142509 0.00280545 0.01451339 0.00478057 0.02207070 0.00181962 0.00291971 0.11494392 0.01158008 0.00808019 0.01169541 0.00092107 
0.04150729 0.05343341 0.01058232 0.00329019 0.00137797 0.00281528 0.01440274 0.00482692 0.02220102 0.00178036 0.00292468 0.11672228 0.01190568 0.00816094 0.01189503 0.00092723 
0.04122447 0.05390316 0.01056634 0.00321042 0.00133166 0.00282434 0.01429014 0.00487386 0.02232881 0.00174195 0.00293044 0.11842077 0.01223332 0.00823738 0.01209414 0.00093442 
0.04090411 0.05438659 0.01053930 0.00312898 0.00128639 0.00283267 0.01417625 0.00492124 0.02245402 0.00170463 0.00293700 0.12003215 0.01256161 0.00830907 0.01229223 0.00094261 
0.04054792 0.05488451 0.01050142 0.00304621 0.00124242 0.00284028 0.01406166 0.00496892 0.02257668 0.00166861 0.00294435 0.12154955 0.01288912 0.00837558 0.01248877 0.00095178 
0.04015771 0.05539775 0.01045301 0.00296243 0.00119997 0.00284722 0.01394698 0.00501677 0.02269683 0.00163412 0.00295246 0.12296644 0.01321438 0.00843651 0.01268328 0.00096190 
0.03973546 0.05592713 0.01039439 0.00287799 0.00115927 0.00285353 0.01383272 0.00506466 0.02281455 0.00160137 0.00296130 0.12427671 0.01353595 0.00849146 0.01287527 0.00097295 
0.03928328 0.05647348 0.01032594 0.00279322 0.00112055 0.00285924 0.01371940 0.00511247 0.02292994 0.00157057 0.00297082 0.12547473 0.01385237 0.00854007 0.01306430 0.00098487 
0.03880337 0.05703756 0.01024808 0.00270846 0.00108403 0.00286439 0.01360746 0.00516009 0.02304315 0.00154192 0.00298096 0.12655532 0.01416218 0.00858198 0.01324991 0.00099763 
0.03829801 0.05762013 0.01016127 0.00262406 0.00104991 0.00286903 0.01349731 0.00520743 0.02315434 0.00151560 0.00299165 0.12751381 0.01446394 0.00861689 0.01343171 0.00101118 
0.03776958 0.05822185 0.01006599 0.00254034 0.00101839 0.00287320 0.01338933 0.00525438 0.02326373 0.00149178 0.00300280 0.12834609 0.01475623 0.00864451 0.01360930 0.00102547 
0.03722048 0.05884334 0.00996276 0.00245765 0.00098967 0.00287695 0.01328381 0.00530085 0.02337153 0.00147062 0.00301432 0.12904859 0.01503766 0.00866458 0.01378231 0.00104045 
0.03665317 0.05948512 0.00985213 0.00237631 0.00096390 0.00288031 0.01318104 0.00534678 0.02347800 0.00145227 0.00302611 0.12961834 0.01530688 0.00867688 0.01395042 0.00105605 
0.03607010 0.06014761 0.00973467 0.00229665 0.00094127 0.00288334 0.01308125 0.00539209 0.02358342 0.00143685 0.00303806 0.13005295 0.01556258 0.00868122 0.01411330 0.00107221 
0.03547373 0.06083113 0.00961098 0.00221896 0.00092191 0.00288607 0.01298460 0.00543672 0.02368806 0.00142447 0.00305006 0.13035067 0.01580351 0.00867746 0.01427066 0.00108888 
0.03486652 0.06153587 0.00948165 0.00214357 0.00090595 0.00288855 0.01289123 0.00548060 0.02379224 0.00141523 0.00306198 0.13051035 0.01602845 0.00866546 0.01442226 0.00110597 
0.03425085 0.06226189 0.00934733 0.00207076 0.00089353 0.00289082 0.01280123 0.00552371 0.02389627 0.00140922 0.00307370 0.13053149 0.01623629 0.00864518 0.01456784 0.00112342 
0.03362909 0.06300911 0.00920864 0.00200082 0.00088472 0.00289293 0.01271466 0.00556599 0.02400047 0.00140648 0.00308508 0.13041423 0.01642595 0.00861655 0.01470720 0.00114116 
0.03300352 0.06377729 0.00906622 0.00193400 0.00087962 0.00289491 0.01263152 0.00560742 0.02410516 0.00140707 0.00309601 0.13015933 0.01659646 0.00857960 0.01484015 0.00115912 
0.03237636 0.06456605 0.00892072 0.00187057 0.00087830 0.00289679 0.01255179 0.00564796 0.02421065 0.00141100 0.00310634 0.12976820 0.01674690 0.00853435 0.01496653 0.00117722 
0.03174970 0.06537483 0.00877280 0.00181076 0.00088079 0.00289862 0.01247539 0.00568760 0.02431725 0.00141829 0.00311595 0.12924288 0.01687647 0.00848091 0.01508618 0.00119539 
0.03112556 0.06620292 0.00862309 0.00175480 0.00088712 0.00290043 0.01240225 0.00572632 0.02442526 0.00142891 0.00312470 0.12858602 0.01698444 0.00841938 0.01519900 0.00121354 
0.03050583 0.06704943 0.00847225 0.00170289 0.00089731 0.00290224 0.01233222 0.00576410 0.02453494 0.00144284 0.00313246 0.12780088 0.01707020 0.00834994 0.01530488 0.00123162 
0.02989229 0.06791330 0.00832091 0.00165521 0.00091134 0.00290409 0.01226518 0.00580094 0.02464655 0.00146003 0.00313913 0.12689131 0.01713321 0.00827278 0.01540373 0.00124953 
0.02928656 0.06879328 0.00816969 0.00161196 0.00092917 0.00290599 0.01220093 0.00583683 0.02476030 0.00148041 0.00314456 0.12586173 0.01717306 0.00818815 0.01549549 0.00126722 
0.02869015 0.06968799 0.00801922 0.00157326 0.00095075 0.00290798 0.01213929 0.00587176 0.02487638 0.00150389 0.00314867 0.12471710 0.01718944 0.00809631 0.01558012 0.00128460 
0.02810442 0.07059585 0.00787008 0.00153927 0.00097602 0.00291006 0.01208005 0.00590575 0.02499494 0.00153037 0.00315133 0.12346292 0.01718213 0.00799759 0.01565757 0.00130162 
0.02753058 0.07151514 0.00772287 0.00151010 0.00100488 0.00291225 0.01202299 0.00593877 0.02511608 0.00155973 0.00315246 0.12210517 0.01715105 0.00789233 0.01572782 0.00131820 
0.02696971 0.07244397 0.00757814 0.00148584 0.00103722 0.00291458 0.01196788 0.00597083 0.02523984 0.00159185 0.00315197 0.12065029 0.01709620 0.00778090 0.01579087 0.00133427 
0.02642271 0.07338030 0.00743645 0.00146658 0.00107291 0.00291703 0.01191447 0.00600192 0.02536623 0.00162656 0.00314977 0.11910516 0.01701771 0.00766371 0.01584671 0.00134979 
0.02589037 0.07432197 0.00729831 0.00145237 0.00111181 0.00291963 0.01186254 0.00603205 0.02549519 0.00166372 0.00314581 0.11747703 0.01691581 0.00754121 0.01589536 0.00136468 
0.02537333 0.07526669 0.00716423 0.00144325 0.00115375 0.00292237 0.01181183 0.00606120 0.02562661 0.00170313 0.00314002 0.11577352 0.01679085 0.00741384 0.01593681 0.00137890 
0.02487208 0.07621203 0.00703468 0.00143926 0.00119854 0.00292526 0.01176212 0.00608935 0.02576031 0.00174463 0.00313236 0.11400258 0.01664326 0.00728210 0.01597111 0.00139239 
0.02438700 0.07715550 0.00691010 0.00144039 0.00124599 0.00292829 0.01171317 0.00611651 0.02589605 0.00178801 0.00312280 0.11217241 0.01647361 0.00714649 0.01599827 0.00140512 
0.02391832 0.07809448 0.00679092 0.00144663 0.00129589 0.00293146 0.01166476 0.00614263 0.02603351 0.00183306 0.00311132 0.11029144 0.01628254 0.00700754 0.01601833 0.00141703 
0.02346618 0.07902632 0.00667754 0.00145795 0.00134801 0.00293476 0.01161668 0.00616771 0.02617233 0.00187957 0.00309792 0.10836830 0.01607081 0.00686579 0.01603131 0.00142810 
0.02303059 0.07994829 0.00657030 0.00147431 0.00140210 0.00293819 0.01156873 0.00619170 0.02631206 0.00192732 0.00308258 0.10641176 0.01583926 0.00672179 0.01603727 0.00143828 
0.02261150 0.08085762 0.00646956 0.00149563 0.00145793 0.00294173 0.01152073 0.00621458 0.02645219 0.00197610 0.00306534 0.10443067 0.01558883 0.00657610 0.01603623 0.00144756 
0.02220872 0.08175153 0.00637562 0.00152184 0.00151522 0.00294537 0.01147252 0.00623630 0.02659213 0.00202566 0.00304622 0.10243395 0.01532053 0.00642929 0.01602824 0.00145592 
0.02182204 0.08262725 0.00628874 0.00155285 0.00157370 0.00294910 0.01142394 0.00625682 0.02673125 0.00207577 0.00302527 0.10043051 0.01503547 0.00628195 0.01601334 0.00146332 
0.02145117 0.08348200 0.00620919 0.00158854 0.00163311 0.00295290 0.01137488 0.00627606 0.02686884 0.00212621 0.00300252 0.09842923 0.01473481 0.00613464 0.01599158 0.00146978 
0.02109576 0.08431306 0.00613717 0.00162878 0.00169314 0.00295676 0.01132524 0.00629399 0.02700413 0.00217675 0.00297806 0.09643888 0.01441980 0.00598794 0.01596301 0.00147527 
0.02075544 0.08511774 0.00607288 0.00167345 0.00175352 0.00296066 0.01127492 0.00631051 0.02713628 0.00222715 0.00295196 0.09446813 0.01409174 0.00584241 0.01592767 0.00147980 
0.02042981 0.08589346 0.00601646 0.00172239 0.00181395 0.00296459 0.01122387 0.00632557 0.02726443 0.00227718 0.00292429 0.09252543 0.01375198 0.00569863 0.01588561 0.00148337 
0.02011849 0.08663769 0.00596804 0.00177544 0.00187414 0.00296853 0.01117205 0.00633908 0.02738764 0.00232663 0.00289516 0.09061905 0.01340193 0.00555715 0.01583689 0.00148599 
0.01982107 0.08734803 0.00592773 0.00183243 0.00193379 0.00297246 0.01111946 0.00635095 0.02750494 0.00237528 0.00286466 0.08875699 0.01304303 0.00541850 0.01578156 0.00148768 
0.01953719 0.08802222 0.00589559 0.00189316 0.00199261 0.00297637 0.01106608 0.00636109 0.02761531 0.00242291 0.00283292 0.08694693 0.01267676 0.00528321 0.01571970 0.00148845 
0.01926651 0.08865810 0.00587167 0.00195745 0.00205032 0.00298025 0.01101196 0.00636940 0.02771771 0.00246934 0.00280004 0.08519623 0.01230463 0.00515180 0.01565137 0.00148833 
0.01900872 0.08925371 0.00585597 0.00202510 0.00210663 0.00298408 0.01095714 0.00637578 0.02781108 0.00251435 0.00276615 0.08351187 0.01192815 0.00502473 0.01557664 0.00148735 
0.01876361 0.08980723 0.00584848 0.00209589 0.00216127 0.00298784 0.01090169 0.00638012 0.02789433 0.00255779 0.00273139 0.08190044 0.01154885 0.00490249 0.01549560 0.00148553 
0.01853099 0.09031704 0.00584917 0.00216961 0.00221396 0.00299153 0.01084570 0.00638231 0.02796637 0.00259946 0.00269588 0.08036806 0.01116828 0.00478550 0.01540834 0.00148291 
0.01831080 0.09078172 0.00585797 0.00224603 0.00226445 0.00299515 0.01078927 0.00638226 0.02802611 0.00263923 0.00265976 0.07892041 0.01078798 0.00467420 0.01531497 0.00147954 
0.01810302 0.09120003 0.00587478 0.00232491 0.00231249 0.00299867 0.01073253 0.00637983 0.02807245 0.00267693 0.00262317 0.07756268 0.01040945 0.00456895 0.01521561 0.00147544 
0.01790775 0.09157096 0.00589950 0.00240603 0.00235785 0.00300209 0.01067560 0.00637492 0.02810433 0.00271244 0.00258625 0.07629955 0.01003421 0.00447011 0.01511038 0.00147068 
0.01772521 0.09189371 0.00593199 0.00248914 0.00240029 0.00300541 0.01061863 0.00636742 0.02812070 0.00274564 0.00254914 0.07513514 0.00966374 0.00437802 0.01499943 0.00146529 
0.01755571 0.09216772 0.00597209 0.00257400 0.00243962 0.00300863 0.01056177 0.00635723 0.02812056 0.00277643 0.00251198 0.07407307 0.00929949 0.00429296 0.01488292 0.00145934 
0.01739967 0.09239263 0.00601961 0.00266036 0.00247565 0.00301174 0.01050520 0.00634422 0.02810295 0.00280472 0.00247491 0.07311637 0.00894286 0.00421518 0.01476103 0.00145286 
0.01725763 0.09256834 0.00607437 0.00274797 0.00250820 0.00301475 0.01044907 0.00632831 0.02806694 0.00283045 0.00243806 0.07226751 0.00859523 0.00414492 0.01463397 0.00144591 
0.01713028 0.09269494 0.00613613 0.00283659 0.00253711 0.00301766 0.01039356 0.00630939 0.02801171 0.00285354 0.00240157 0.07152839 0.00825791 0.00408235 0.01450194 0.00143855 
0.01701839 0.09277276 0.00620467 0.00292594 0.00256226 0.00302047 0.01033884 0.00628738 0.02793648 0.00287397 0.00236555 0.07090033 0.00793217 0.00402763 0.01436520 0.00143083 
0.01692287 0.09280236 0.00627973 0.00301580 0.00258351 0.00302319 0.01028509 0.00626219 0.02784056 0.00289171 0.00233014 0.07038409 0.00761920 0.00398088 0.01422400 0.00142282 
0.01684475 0.09278451 0.00636104 0.00310590 0.00260079 0.00302583 0.01023249 0.00623375 0.02772336 0.00290675 0.00229545 0.06997985 0.00732015 0.00394216 0.01407863 0.00141456 
0.01678516 0.09272016 0.00644831 0.00319599 0.00261400 0.00302840 0.01018118 0.00620200 0.02758437 0.00291910 0.00226158 0.06968723 0.00703608 0.00391152 0.01392940 0.00140612 
0.01674535 0.09261048 0.00654125 0.00328582 0.00262310 0.00303091 0.01013135 0.00616688 0.02742323 0.00292877 0.00222864 0.06950530 0.00676798 0.00388897 0.01377665 0.00139755 
0.01672667 0.09245682 0.00663955 0.00337515 0.00262806 0.00303337 0.01008314 0.00612836 0.02723965 0.00293581 0.00219672 0.06943259 0.00651678 0.00387446 0.01362074 0.00138890 
0.01673055 0.09226070 0.00674288 0.00346373 0.00262885 0.00303580 0.01003669 0.00608641 0.02703350 0.00294026 0.00216592 0.06946711 0.00628330 0.00386794 0.01346204 0.00138024 
0.01675851 0.09202378 0.00685091 0.00355133 0.00262551 0.00303820 0.00999215 0.00604101 0.02680476 0.00294220 0.00213630 0.06960640 0.00606832 0.00386929 0.01330098 0.00137160 
0.01681217 0.09174790 0.00696330 0.00363770 0.00261804 0.00304061 0.00994963 0.00599217 0.02655356 0.00294169 0.00210794 0.06984747 0.00587248 0.00387838 0.01313799 0.00136305 
0.01689318 0.09143498 0.00707971 0.00372263 0.00260652 0.00304302 0.00990923 0.00593992 0.02628018 0.00293882 0.00208090 0.07018691 0.00569639 0.00389503 0.01297353 0.00135463 
0.01700324 0.09108709 0.00719978 0.00380587 0.00259100 0.00304546 0.00987106 0.00588428 0.02598502 0.00293370 0.00205524 0.07062089 0.00554053 0.00391904 0.01280808 0.00134640 
0.01714412 0.09070637 0.00732314 0.00388722 0.00257160 0.00304795 0.00983520 0.00582531 0.02566867 0.00292644 0.00203098 0.07114516 0.00540532 0.00395017 0.01264215 0.00133838 
0.01731757 0.09029502 0.00744945 0.00396647 0.00254841 0.00305049 0.00980171 0.00576308 0.02533185 0.00291716 0.00200817 0.07175512 0.00529107 0.00398816 0.01247627 0.00133064 
0.01752538 0.08985533 0.00757833 0.00404340 0.00252158 0.00305310 0.00977064 0.00569769 0.02497545 0.00290600 0.00198683 0.07244584 0.00519803 0.00403271 0.01231098 0.00132320 
0.01776931 0.08938959 0.00770941 0.00411783 0.00249126 0.00305581 0.00974201 0.00562924 0.02460052 0.00289308 0.00196698 0.07321207 0.00512632 0.00408349 0.01214686 0.00131610 
0.01805110 0.08890012 0.00784234 0.00418957 0.00245761 0.00305861 0.00971586 0.00555786 0.02420826 0.00287855 0.00194863 0.07404831 0.00507601 0.00414017 0.01198449 0.00130938 
0.01837247 0.08838925 0.00797674 0.00425844 0.00242082 0.00306153 0.00969218 0.00548371 0.02380004 0.00286257 0.00193178 0.07494883 0.00504707 0.00420238 0.01182447 0.00130306 
0.01873505 0.08785927 0.00811226 0.00432427 0.00238110 0.00306457 0.00967096 0.00540695 0.02337738 0.00284528 0.00191641 0.07590772 0.00503939 0.00426971 0.01166741 0.00129718 
0.01914042 0.08731245 0.00824854 0.00438692 0.00233864 0.00306775 0.00965218 0.00532776 0.02294197 0.00282686 0.00190253 0.07691887 0.00505277 0.00434177 0.01151394 0.00129174 
0.01959007 0.08675097 0.00838522 0.00444622 0.00229369 0.00307107 0.00963578 0.00524637 0.02249562 0.00280745 0.00189010 0.07797611 0.00508694 0.00441812 0.01136468 0.00128679 
0.02008535 0.08617699 0.00852196 0.00450207 0.00224648 0.00307453 0.00962173 0.00516299 0.02204032 0.00278722 0.00187910 0.07907314 0.00514154 0.00449832 0.01122028 0.00128232 
0.02062754 0.08559255 0.00865843 0.00455432 0.00219726 0.00307814 0.00960995 0.00507787 0.02157818 0.00276634 0.00186950 0.08020364 0.00521615 0.00458192 0.01108136 0.00127835 
0.02121775 0.08499959 0.00879429 0.00460288 0.00214629 0.00308190 0.00960037 0.00499128 0.02111145 0.00274497 0.00186126 0.08136128 0.00531027 0.00466844 0.01094858 0.00127489 
0.02185692 0.08439995 0.00892922 0.00464765 0.00209383 0.00308581 0.00959290 0.00490349 0.02064250 0.00272326 0.00185435 0.08253972 0.00542333 0.00475742 0.01082255 0.00127195 
0.02254588 0.08379536 0.00906292 0.00468856 0.00204015 0.00308987 0.00958747 0.00481480 0.02017381 0.00270138 0.00184871 0.08373273 0.00555472 0.00484837 0.01070392 0.00126953 
0.02328522 0.08318738 0.00919509 0.00472555 0.00198553 0.00309406 0.00958396 0.00472554 0.01970798 0.00267948 0.00184430 0.08493413 0.00570372 0.00494081 0.01059328 0.00126762 
0.02407537 0.08257746 0.00932544 0.00475855 0.00193024 0.00309838 0.00958228 0.00463602 0.01924768 0.00265772 0.00184108 0.08613788 0.00586961 0.00503425 0.01049125 0.00126623 
0.02491654 0.08196691 0.00945370 0.00478754 0.00187456 0.00310281 0.00958232 0.00454658 0.01879568 0.00263622 0.00183899 0.08733809 0.00605159 0.00512819 0.01039840 0.00126534 
0.02580876 0.08135686 0.00957961 0.00481251 0.00181877 0.00310735 0.00958398 0.00445759 0.01835480 0.00261514 0.00183798 0.08852905 0.00624879 0.00522217 0.01031530 0.00126494 
0.02675179 0.08074832 0.00970294 0.00483344 0.00176314 0.00311197 0.00958716 0.00436941 0.01792793 0.00259461 0.00183800 0.08970523 0.00646035 0.00531570 0.01024248 0.00126502 
0.02774519 0.08014214 0.00982344 0.00485036 0.00170796 0.00311665 0.00959174 0.00428240 0.01751798 0.00257474 0.00183901 0.09086137 0.00668531 0.00540830 0.01018045 0.00126557 
0.02878827 0.07953900 0.00994092 0.00486330 0.00165348 0.00312137 0.00959764 0.00419696 0.01712789 0.00255566 0.00184094 0.09199242 0.00692272 0.00549952 0.01012969 0.00126656 
0.02988011 0.07893946 0.01005517 0.00487231 0.00159998 0.00312610 0.00960475 0.00411347 0.01676060 0.00253747 0.00184376 0.09309362 0.00717158 0.00558891 0.01009064 0.00126797 
0.03101954 0.07834391 0.01016601 0.00487744 0.00154770 0.00313082 0.00961299 0.00403232 0.01641905 0.00252027 0.00184743 0.09416049 0.00743087 0.00567602 0.01006370 0.00126978 
0.03220514 0.07775264 0.01027327 0.00487879 0.00149689 0.00313549 0.00962227 0.00395390 0.01610612 0.00250415 0.00185188 0.09518883 0.00769953 0.00576044 0.01004924 0.00127197 
0.03343526 0.07716577 0.01037681 0.00487645 0.00144780 0.00314008 0.00963252 0.00387862 0.01582469 0.00248918 0.00185710 0.09617479 0.00797650 0.00584176 0.01004756 0.00127450 
0.03470797 0.07658333 0.01047649 0.00487053 0.00140064 0.00314456 0.00964368 0.00380686 0.01557752 0.00247544 0.00186303 0.09711480 0.00826070 0.00591960 0.01005895 0.00127736 
0.03602114 0.07600523 0.01057220 0.00486117 0.00135564 0.00314890 0.00965570 0.00373902 0.01536733 0.00246298 0.00186966 0.09800564 0.00855103 0.00599360 0.01008361 0.00128050 
0.03737237 0.07543129 0.01066382 0.00484851 0.00131299 0.00315305 0.00966852 0.00367547 0.01519671 0.00245185 0.00187694 0.09884440 0.00884641 0.00606341 0.01012172 0.00128389 
0.03875904 0.07486125 0.01075127 0.00483270 0.00127288 0.00315697 0.00968212 0.00361660 0.01506814 0.00244209 0.00188485 0.09962852 0.00914573 0.00612872 0.01017338 0.00128752 
0.04017832 0.07429478 0.01083448 0.00481394 0.00123550 0.00316062 0.00969648 0.00356277 0.01498397 0.00243371 0.00189338 0.10035576 0.00944788 0.00618925 0.01023865 0.00129134 
0.04162714 0.07373148 0.01091338 0.00479239 0.00120098 0.00316397 0.00971159 0.00351434 0.01494636 0.00242675 0.00190250 0.10102422 0.00975178 0.00624472 0.01031753 0.00129531 
0.04310225 0.07317094 0.01098793 0.00476828 0.00116949 0.00316697 0.00972745 0.00347164 0.01495734 0.00242119 0.00191221 0.10163232 0.01005634 0.00629491 0.01040994 0.00129942 
0.04460018 0.07261270 0.01105809 0.00474180 0.00114115 0.00316958 0.00974407 0.00343500 0.01501871 0.00241704 0.00192250 0.10217879 0.01036048 0.00633962 0.01051577 0.00130362 
0.04611730 0.07205632 0.01112383 0.00471319 0.00111606 0.00317176 0.00976148 0.00340472 0.01513210 0.00241428 0.00193335 0.10266267 0.01066314 0.00637867 0.01063481 0.00130788 
0.04764981 0.07150135 0.01118514 0.00468268 0.00109432 0.00317347 0.00977970 0.00338110 0.01529889 0.00241288 0.00194478 0.10308332 0.01096327 0.00641192 0.01076683 0.00131217 
0.04919375 0.07094737 0.01124202 0.00465051 0.00107602 0.00317466 0.00979879 0.00336439 0.01552024 0.00241282 0.00195678 0.10344034 0.01125986 0.00643927 0.01091149 0.00131645 
0.05074505 0.07039401 0.01129447 0.00461693 0.00106120 0.00317529 0.00981878 0.00335484 0.01579704 0.00241404 0.00196936 0.10373366 0.01155191 0.00646066 0.01106843 0.00132070 
0.05229950 0.06984094 0.01134249 0.00458221 0.00104991 0.00317533 0.00983973 0.00335264 0.01612996 0.00241650 0.00198254 0.10396342 0.01183843 0.00647603 0.01123721 0.00132489 
0.05385280 0.06928793 0.01138611 0.00454661 0.00104217 0.00317475 0.00986171 0.00335800 0.01651935 0.00242013 0.00199631 0.10413002 0.01211848 0.00648539 0.01141731 0.00132898 
0.05540057 0.06873480 0.01142535 0.00451039 0.00103799 0.00317349 0.00988478 0.00337107 0.01696532 0.00242488 0.00201070 0.10423410 0.01239115 0.00648878 0.01160817 0.00133295 
0.05693837 0.06818148 0.01146023 0.00447382 0.00103737 0.00317154 0.00990900 0.00339196 0.01746766 0.00243066 0.00202572 0.10427647 0.01265554 0.00648625 0.01180918 0.00133678 
0.05846172 0.06762802 0.01149079 0.00443717 0.00104028 0.00316885 0.00993445 0.00342078 0.01802590 0.00243739 0.00204139 0.10425818 0.01291082 0.00647792 0.01201966 0.00134043 
0.05996613 0.06707458 0.01151705 0.00440071 0.00104667 0.00316541 0.00996117 0.00345757 0.01863924 0.00244500 0.00205773 0.10418040 0.01315616 0.00646392 0.01223887 0.00134389 
0.06144709 0.06652144 0.01153906 0.00436471 0.00105648 0.00316119 0.00998925 0.00350237 0.01930659 0.00245339 0.00207476 0.10404450 0.01339080 0.00644442 0.01246602 0.00134713 
0.06290014 0.06596902 0.01155684 0.00432943 0.00106966 0.00315616 0.01001873 0.00355517 0.02002656 0.00246247 0.00209248 0.10385195 0.01361398 0.00641963 0.01270029 0.00135013 
0.06432084 0.06541788 0.01157044 0.00429513 0.00108609 0.00315031 0.01004966 0.00361590 0.02079747 0.00247214 0.00211093 0.10360436 0.01382502 0.00638979 0.01294080 0.00135288 
0.06570482 0.06486872 0.01157989 0.00426206 0.00110570 0.00314361 0.01008208 0.00368450 0.02161731 0.00248231 0.00213012 0.10330343 0.01402327 0.00635518 0.01318663 0.00135536 
0.06704781 0.06432239 0.01158523 0.00423046 0.00112835 0.00313607 0.01011602 0.00376083 0.02248381 0.00249286 0.00215006 0.10295095 0.01420811 0.00631610 0.01343682 0.00135756 
0.06834563 0.06377989 0.01158648 0.00420056 0.00115393 0.00312768 0.01015151 0.00384474 0.02339440 0.00250370 0.00217076 0.10254876 0.01437899 0.00627288 0.01369038 0.00135946 
0.06959422 0.06324235 0.01158369 0.00417258 0.00118230 0.00311842 0.01018854 0.00393603 0.02434623 0.00251472 0.00219223 0.10209878 0.01453537 0.00622589 0.01394632 0.00136106 
0.07078968 0.06271105 0.01157688 0.00414673 0.00121330 0.00310831 0.01022710 0.00403447 0.02533619 0.00252583 0.00221449 0.10160294 0.01467679 0.00617552 0.01420357 0.00136234 
0.07192827 0.06218740 0.01156608 0.00412320 0.00124677 0.00309734 0.01026717 0.00413979 0.02636089 0.00253691 0.00223753 0.10106321 0.01480282 0.00612219 0.01446110 0.00136332 
0.07300642 0.06167294 0.01155132 0.00410217 0.00128256 0.00308554 0.01030870 0.00425167 0.02741674 0.00254787 0.00226135 0.10048157 0.01491309 0.00606634 0.01471784 0.00136397 
0.07402077 0.06116935 0.01153264 0.00408380 0.00132047 0.00307291 0.01035163 0.00436979 0.02849990 0.00255861 0.00228595 0.09986000 0.01500727 0.00600843 0.01497272 0.00136430 
0.07496818 0.06067838 0.01151005 0.00406823 0.00136034 0.00305949 0.01039586 0.00449376 0.02960632 0.00256904 0.00231132 0.09920049 0.01508508 0.00594895 0.01522466 0.00136431 
0.07584572 0.06020192 0.01148358 0.00405558 0.00140196 0.00304528 0.01044130 0.00462318 0.03073177 0.00257906 0.00233744 0.09850498 0.01514630 0.00588840 0.01547262 0.00136400 
0.07665073 0.05974191 0.01145327 0.00404595 0.00144514 0.00303034 0.01048782 0.00475761 0.03187186 0.00258860 0.00236430 0.09777541 0.01519074 0.00582729 0.01571552 0.00136338 
0.07738079 0.05930037 0.01141914 0.00403944 0.00148969 0.00301468 0.01053527 0.00489658 0.03302205 0.00259756 0.00239187 0.09701371 0.01521828 0.00576615 0.01595235 0.00136246 
0.07803376 0.05887938 0.01138122 0.00403609 0.00153541 0.00299835 0.01058350 0.00503960 0.03417766 0.00260587 0.00242012 0.09622175 0.01522885 0.00570553 0.01618210 0.00136123 
0.07860779 0.05848106 0.01133956 0.00403596 0.00158208 0.00298140 0.01063230 0.00518616 0.03533395 0.00261347 0.00244903 0.09540138 0.01522242 0.00564596 0.01640379 0.00135972 
0.07910129 0.05810754 0.01129419 0.00403905 0.00162950 0.00296387 0.01068148 0.00533571 0.03648609 0.00262028 0.00247854 0.09455442 0.01519903 0.00558800 0.01661648 0.00135793 
0.07951300 0.05776094 0.01124517 0.00404536 0.00167747 0.00294583 0.01073081 0.00548770 0.03762919 0.00262626 0.00250862 0.09368267 0.01515876 0.00553220 0.01681929 0.00135588 
0.07984197 0.05744338 0.01119255 0.00405486 0.00172578 0.00292732 0.01078005 0.00564154 0.03875838 0.00263136 0.00253923 0.09278787 0.01510173 0.00547910 0.01701135 0.00135358 
0.08008753 0.05715692 0.01113640 0.00406751 0.00177423 0.00290842 0.01082893 0.00579665 0.03986878 0.00263553 0.00257029 0.09187177 0.01502813 0.00542926 0.01719189 0.00135104 
0.08024936 0.05690359 0.01107679 0.00408323 0.00182261 0.00288919 0.01087719 0.00595243 0.04095554 0.00263874 0.00260177 0.09093606 0.01493819 0.00538322 0.01736018 0.00134828 
0.08032744 0.05668530 0.01101382 0.00410193 0.00187074 0.00286970 0.01092454 0.00610828 0.04201390 0.00264097 0.00263359 0.08998245 0.01483220 0.00534149 0.01751555 0.00134532 
0.08032209 0.05650389 0.01094759 0.00412349 0.00191841 0.00285003 0.01097068 0.00626357 0.04303919 0.00264221 0.00266570 0.08901260 0.01471050 0.00530460 0.01765741 0.00134218 
0.08023393 0.05636107 0.01087823 0.00414778 0.00196544 0.00283026 0.01101530 0.00641769 0.04402685 0.00264245 0.00269802 0.08802819 0.01457347 0.00527303 0.01778523 0.00133887 
0.08006393 0.05625841 0.01080587 0.00417464 0.00201164 0.00281046 0.01105810 0.00657004 0.04497249 0.00264169 0.00273049 0.08703091 0.01442155 0.00524727 0.01789859 0.00133542 
0.07981336 0.05619734 0.01073068 0.00420389 0.00205685 0.00279072 0.01109875 0.00672002 0.04587188 0.00263995 0.00276302 0.08602242 0.01425521 0.00522776 0.01799713 0.00133184 
0.07948381 0.05617908 0.01065283 0.00423535 0.00210088 0.00277113 0.01113694 0.00686702 0.04672102 0.00263724 0.00279556 0.08500444 0.01407498 0.00521494 0.01808057 0.00132816 
0.07907718 0.05620468 0.01057253 0.00426880 0.00214359 0.00275177 0.01117235 0.00701047 0.04751613 0.00263361 0.00282802 0.08397868 0.01388144 0.00520920 0.01814874 0.00132440 
0.07859569 0.05627500 0.01048999 0.00430403 0.00218481 0.00273273 0.01120468 0.00714981 0.04825366 0.00262908 0.00286032 0.08294691 0.01367521 0.00521091 0.01820155 0.00132057 
0.07804183 0.05639064 0.01040549 0.00434078 0.00222441 0.00271410 0.01123361 0.00728448 0.04893038 0.00262371 0.00289239 0.08191092 0.01345694 0.00522041 0.01823901 0.00131669 
0.07741842 0.05655200 0.01031928 0.00437882 0.00226225 0.00269598 0.01125887 0.00741398 0.04954332 0.00261756 0.00292416 0.08087256 0.01322734 0.00523798 0.01826120 0.00131280 
0.07672853 0.05675922 0.01023168 0.00441788 0.00229820 0.00267845 0.01128016 0.00753780 0.05008986 0.00261069 0.00295554 0.07983370 0.01298715 0.00526389 0.01826834 0.00130890 
0.07597551 0.05701220 0.01014302 0.00445769 0.00233217 0.00266160 0.01129724 0.00765548 0.05056769 0.00260317 0.00298647 0.07879632 0.01273714 0.00529836 0.01826071 0.00130502 
0.07516298 0.05731055 0.01005367 0.00449798 0.00236403 0.00264552 0.01130985 0.00776660 0.05097486 0.00259509 0.00301688 0.07776242 0.01247814 0.00534156 0.01823870 0.00130117 
0.07429480 0.05765366 0.00996400 0.00453846 0.00239370 0.00263030 0.01131777 0.00787075 0.05130978 0.00258654 0.00304671 0.07673409 0.01221097 0.00539363 0.01820278 0.00129738 
0.07337505 0.05804062 0.00987445 0.00457885 0.00242111 0.00261602 0.01132082 0.00796759 0.05157126 0.00257761 0.00307587 0.07571348 0.01193653 0.00545464 0.01815352 0.00129367 
0.07240807 0.05847025 0.00978546 0.00461885 0.00244618 0.00260277 0.01131881 0.00805679 0.05175846 0.00256839 0.00310433 0.07470280 0.01165572 0.00552463 0.01809159 0.00129004 
0.07139835 0.05894111 0.00969750 0.00465818 0.00246885 0.00259062 0.01131162 0.00813808 0.05187096 0.00255901 0.00313202 0.07370436 0.01136946 0.00560360 0.01801774 0.00128653 
0.07035063 0.05945150 0.00961108 0.00469656 0.00248908 0.00257966 0.01129914 0.00821125 0.05190871 0.00254957 0.00315889 0.07272052 0.01107871 0.00569149 0.01793279 0.00128313 
0.06926977 0.05999945 0.00952674 0.00473370 0.00250684 0.00256994 0.01128129 0.00827609 0.05187208 0.00254018 0.00318491 0.07175372 0.01078443 0.00578820 0.01783765 0.00127988 
0.06816082 0.06058274 0.00944502 0.00476933 0.00252211 0.00256154 0.01125803 0.00833250 0.05176183 0.00253096 0.00321002 0.07080644 0.01048762 0.00589356 0.01773331 0.00127678 
0.06702896 0.06119891 0.00936651 0.00480318 0.00253487 0.00255452 0.01122938 0.00838037 0.05157911 0.00252204 0.00323421 0.06988125 0.01018927 0.00600737 0.01762082 0.00127384 
0.06587949 0.06184525 0.00929180 0.00483498 0.00254513 0.00254893 0.01119535 0.00841968 0.05132546 0.00251354 0.00325744 0.06898076 0.00989038 0.00612937 0.01750130 0.00127109 
0.06471780 0.06251885 0.00922154 0.00486450 0.00255291 0.00254483 0.01115604 0.00845044 0.05100280 0.00250557 0.00327970 0.06810762 0.00959198 0.00625928 0.01737593 0.00126852 
0.06354939 0.06321658 0.00915634 0.00489150 0.00255821 0.00254225 0.01111155 0.00847273 0.05061342 0.00249827 0.00330098 0.06726451 0.00929508 0.00639674 0.01724592 0.00126614 
0.06237979 0.06393515 0.00909687 0.00491575 0.00256109 0.00254124 0.01106205 0.00848666 0.05015996 0.00249176 0.00332127 0.06645414 0.00900068 0.00654137 0.01711256 0.00126398 
0.06121459 0.06467105 0.00904380 0.00493705 0.00256158 0.00254181 0.01100772 0.00849240 0.04964541 0.00248616 0.00334057 0.06567924 0.00870981 0.00669271 0.01697714 0.00126202 
0.06005940 0.06542067 0.00899781 0.00495520 0.00255975 0.00254400 0.01094880 0.00849017 0.04907307 0.00248158 0.00335890 0.06494252 0.00842345 0.00685031 0.01684100 0.00126028 
0.05891982 0.06618024 0.00895957 0.00497005 0.00255565 0.00254782 0.01088556 0.00848022 0.04844655 0.00247815 0.00337628 0.06424668 0.00814259 0.00701364 0.01670550 0.00125877 
0.05780146 0.06694588 0.00892977 0.00498143 0.00254937 0.00255326 0.01081831 0.00846289 0.04776973 0.00247596 0.00339272 0.06359439 0.00786820 0.00718215 0.01657201 0.00125748 
0.05670984 0.06771364 0.00890909 0.00498921 0.00254098 0.00256033 0.01074740 0.00843851 0.04704677 0.00247514 0.00340826 0.06298826 0.00760123 0.00735525 0.01644189 0.00125642 
0.05565046 0.06847951 0.00889822 0.00499328 0.00253058 0.00256901 0.01067320 0.00840750 0.04628203 0.00247576 0.00342294 0.06243083 0.00734259 0.00753233 0.01631653 0.00125559 
0.05462871 0.06923941 0.00889781 0.00499355 0.00251827 0.00257929 0.01059612 0.00837029 0.04548009 0.00247794 0.00343680 0.06192456 0.00709317 0.00771273 0.01619727 0.00125499 
0.05364988 0.06998928 0.00890852 0.00498995 0.00250415 0.00259113 0.01051661 0.00832735 0.04464570 0.00248175 0.00344989 0.06147182 0.00685385 0.00789580 0.01608547 0.00125462 
0.05271913 0.07072505 0.00893099 0.00498243 0.00248834 0.00260449 0.01043512 0.00827921 0.04378378 0.00248726 0.00346227 0.06107481 0.00662542 0.00808083 0.01598241 0.00125447 
0.05184148 0.07144269 0.00896583 0.00497097 0.00247096 0.00261933 0.01035214 0.00822639 0.04289932 0.00249455 0.00347399 0.06073563 0.00640869 0.00826712 0.01588937 0.00125454 
0.05102177 0.07213824 0.00901362 0.00495555 0.00245212 0.00263560 0.01026820 0.00816948 0.04199743 0.00250367 0.00348512 0.06045620 0.00620438 0.00845395 0.01580759 0.00125482 
0.05026464 0.07280781 0.00907492 0.00493621 0.00243197 0.00265322 0.01018381 0.00810906 0.04108326 0.00251468 0.00349574 0.06023825 0.00601318 0.00864058 0.01573822 0.00125532 
0.04957453 0.07344761 0.00915023 0.00491297 0.00241062 0.00267212 0.01009951 0.00804576 0.04016197 0.00252760 0.00350590 0.06008332 0.00583573 0.00882629 0.01568237 0.00125602 
0.04895565 0.07405399 0.00924005 0.00488590 0.00238821 0.00269223 0.01001586 0.00798020 0.03923874 0.00254246 0.00351569 0.05999273 0.00567262 0.00901033 0.01564109 0.00125692 
0.04841193 0.07462344 0.00934479 0.00485507 0.00236489 0.00271346 0.00993341 0.00791303 0.03831866 0.00255928 0.00352518 0.05996756 0.00552437 0.00919198 0.01561534 0.00125801 
0.04794705 0.07515263 0.00946483 0.00482059 0.00234079 0.00273571 0.00985272 0.00784489 0.03740677 0.00257806 0.00353445 0.06000863 0.00539145 0.00937051 0.01560599 0.00125927 
0.04756440 0.07563841 0.00960052 0.00478258 0.00231604 0.00275888 0.00977434 0.00777644 0.03650800 0.00259879 0.00354357 0.06011651 0.00527427 0.00954520 0.01561385 0.00126070 
0.04726705 0.07607784 0.00975211 0.00474117 0.00229079 0.00278287 0.00969884 0.00770835 0.03562714 0.00262145 0.00355263 0.06029147 0.00517316 0.00971537 0.01563961 0.00126229 
0.04705773 0.07646820 0.00991982 0.00469652 0.00226517 0.00280755 0.00962674 0.00764124 0.03476880 0.00264601 0.00356169 0.06053351 0.00508841 0.00988034 0.01568387 0.00126402 
0.04693886 0.07680701 0.01010379 0.00464879 0.00223932 0.00283282 0.00955856 0.00757577 0.03393739 0.00267242 0.00357084 0.06084230 0.00502021 0.01003945 0.01574712 0.00126588 
0.04691247 0.07709203 0.01030411 0.00459816 0.00221337 0.00285855 0.00949483 0.00751256 0.03313712 0.00270062 0.00358015 0.06121721 0.00496870 0.01019210 0.01582975 0.00126787 
0.04698022 0.07732131 0.01052077 0.00454484 0.00218746 0.00288460 0.00943602 0.00745222 0.03237192 0.00273055 0.00358968 0.06165729 0.00493396 0.01033769 0.01593203 0.00126997 
0.04714341 0.07749314 0.01075373 0.00448902 0.00216171 0.00291086 0.00938258 0.00739533 0.03164546 0.00276213 0.00359950 0.06216126 0.00491597 0.01047568 0.01605412 0.00127216 
0.04740290 0.07760610 0.01100283 0.00443093 0.00213624 0.00293719 0.00933495 0.00734244 0.03096110 0.00279527 0.00360968 0.06272753 0.00491466 0.01060554 0.01619608 0.00127443 
0.04775918 0.07765906 0.01126788 0.00437078 0.00211118 0.00296347 0.00929352 0.00729410 0.03032189 0.00282987 0.00362026 0.06335416 0.00492989 0.01072682 0.01635782 0.00127677 
0.04821230 0.07765118 0.01154857 0.00430881 0.00208663 0.00298954 0.00925864 0.00725078 0.02973054 0.00286581 0.00363129 0.06403890 0.00496143 0.01083909 0.01653916 0.00127917 
0.04876189 0.07758189 0.01184453 0.00424526 0.00206270 0.00301529 0.00923063 0.00721295 0.02918939 0.00290298 0.00364282 0.06477917 0.00500899 0.01094199 0.01673978 0.00128161 
0.04940715 0.07745093 0.01215533 0.00418036 0.00203950 0.00304058 0.00920975 0.00718102 0.02870045 0.00294125 0.00365489 0.06557209 0.00507223 0.01103519 0.01695927 0.00128407 
0.05014685 0.07725833 0.01248043 0.00411436 0.00201711 0.00306528 0.00919624 0.00715536 0.02826531 0.00298049 0.00366752 0.06641445 0.00515071 0.01111842 0.01719709 0.00128655 
0.05097933 0.07700440 0.01281923 0.00404749 0.00199561 0.00308927 0.00919028 0.00713630 0.02788521 0.00302054 0.00368073 0.06730276 0.00524395 0.01119147 0.01745257 0.00128903 
0.05190247 0.07668973 0.01317105 0.00398001 0.00197510 0.00311241 0.00919198 0.00712411 0.02756096 0.00306127 0.00369453 0.06823327 0.00535138 0.01125420 0.01772497 0.00129149 
0.05291375 0.07631518 0.01353513 0.00391215 0.00195565 0.00313461 0.00920143 0.00711902 0.02729300 0.00310252 0.00370893 0.06920193 0.00547240 0.01130649 0.01801341 0.00129393 
0.05401018 0.07588190 0.01391065 0.00384414 0.00193730 0.00315573 0.00921865 0.00712120 0.02708136 0.00314412 0.00372392 0.07020448 0.00560632 0.01134832 0.01831692 0.00129634 
0.05518839 0.07539126 0.01429669 0.00377622 0.00192012 0.00317569 0.00924360 0.00713076 0.02692568 0.00318593 0.00373949 0.07123641 0.00575243 0.01137970 0.01863443 0.00129869 
0.05644457 0.07484493 0.01469230 0.00370861 0.00190416 0.00319437 0.00927620 0.00714777 0.02682521 0.00322778 0.00375561 0.07229303 0.00590994 0.01140072 0.01896479 0.00130098 
0.05777450 0.07424475 0.01509643 0.00364153 0.00188945 0.00321169 0.00931630 0.00717223 0.02677880 0.00326949 0.00377224 0.07336946 0.00607803 0.01141151 0.01930675 0.00130320 
0.05917359 0.07359285 0.01550800 0.00357518 0.00187602 0.00322756 0.00936371 0.00720410 0.02678494 0.00331091 0.00378935 0.07446068 0.00625583 0.01141226 0.01965900 0.00130534 
0.06063686 0.07289151 0.01592584 0.00350976 0.00186389 0.00324192 0.00941819 0.00724325 0.02684176 0.00335187 0.00380688 0.07556156 0.00644242 0.01140324 0.02002014 0.00130738 
0.06215896 0.07214325 0.01634875 0.00344547 0.00185308 0.00325471 0.00947941 0.00728953 0.02694702 0.00339221 0.00382478 0.07666686 0.00663688 0.01138474 0.02038873 0.00130932 
0.06373423 0.07135075 0.01677548 0.00338247 0.00184360 0.00326586 0.00954703 0.00734272 0.02709818 0.00343176 0.00384296 0.07777130 0.00683822 0.01135713 0.02076324 0.00131115 
0.06535666 0.07051687 0.01720473 0.00332093 0.00183543 0.00327535 0.00962064 0.00740254 0.02729236 0.00347038 0.00386135 0.07886956 0.00704545 0.01132082 0.02114213 0.00131286 
0.06701995 0.06964459 0.01763517 0.00326102 0.00182857 0.00328314 0.00969979 0.00746867 0.02752641 0.00350791 0.00387986 0.07995636 0.00725757 0.01127627 0.02152381 0.00131445 
0.06871754 0.06873705 0.01806542 0.00320286 0.00182301 0.00328921 0.00978398 0.00754072 0.02779690 0.00354420 0.00389840 0.08102642 0.00747354 0.01122399 0.02190666 0.00131591 
0.07044262 0.06779752 0.01849411 0.00314658 0.00181871 0.00329357 0.00987265 0.00761827 0.02810016 0.00357911 0.00391685 0.08207458 0.00769233 0.01116452 0.02228903 0.00131723 
0.07218815 0.06682933 0.01891981 0.00309231 0.00181566 0.00329622 0.00996523 0.00770085 0.02843231 0.00361251 0.00393513 0.08309576 0.00791290 0.01109845 0.02266929 0.00131841 
0.07394692 0.06583594 0.01934112 0.00304014 0.00181381 0.00329718 0.01006111 0.00778792 0.02878928 0.00364428 0.00395309 0.08408505 0.00813423 0.01102640 0.02304580 0.00131944 
0.07571157 0.06482087 0.01975659 0.00299016 0.00181312 0.00329648 0.01015961 0.00787895 0.02916683 0.00367430 0.00397063 0.08503773 0.00835529 0.01094904 0.02341691 0.00132032 
0.07747459 0.06378768 0.02016481 0.00294246 0.00181355 0.00329418 0.01026007 0.00797332 0.02956060 0.00370247 0.00398762 0.08594928 0.00857507 0.01086703 0.02378102 0.00132106 
0.07922842 0.06273999 0.02056434 0.00289708 0.00181504 0.00329032 0.01036178 0.00807040 0.02996613 0.00372867 0.00400392 0.08681543 0.00879259 0.01078109 0.02413654 0.00132164 
0.08096543 0.06168146 0.02095378 0.00285409 0.00181755 0.00328498 0.01046400 0.00816955 0.03037891 0.00375284 0.00401940 0.08763221 0.00900688 0.01069195 0.02448194 0.00132207 
0.08267796 0.06061574 0.02133175 0.00281352 0.00182101 0.00327824 0.01056600 0.00827006 0.03079436 0.00377489 0.00403393 0.08839597 0.00921701 0.01060033 0.02481572 0.00132235 
0.08435840 0.05954650 0.02169689 0.00277541 0.00182536 0.00327019 0.01066702 0.00837123 0.03120794 0.00379475 0.00404736 0.08910337 0.00942208 0.01050699 0.02513645 0.00132248 
0.08599918 0.05847741 0.02204786 0.00273977 0.00183054 0.00326094 0.01076630 0.00847234 0.03161512 0.00381238 0.00405955 0.08975149 0.00962124 0.01041268 0.02544276 0.00132246 
0.08759281 0.05741212 0.02238339 0.00270662 0.00183649 0.00325060 0.01086308 0.00857264 0.03201141 0.00382773 0.00407037 0.09033778 0.00981368 0.01031816 0.02573336 0.00132229 
0.08913197 0.05635423 0.02270223 0.00267595 0.00184313 0.00323930 0.01095658 0.00867139 0.03239246 0.00384077 0.00407967 0.09086011 0.00999864 0.01022417 0.02600706 0.00132198 
0.09060948 0.05530734 0.02300319 0.00264776 0.00185042 0.00322716 0.01104607 0.00876783 0.03275401 0.00385147 0.00408732 0.09131681 0.01017540 0.01013146 0.02626273 0.00132153 
0.09201837 0.05427498 0.02328514 0.00262203 0.00185827 0.00321433 0.01113079 0.00886122 0.03309197 0.00385984 0.00409319 0.09170666 0.01034333 0.01004076 0.02649936 0.00132094 
0.09335191 0.05326063 0.02354701 0.00259875 0.00186662 0.00320095 0.01121004 0.00895081 0.03340242 0.00386587 0.00409715 0.09202890 0.01050183 0.00995278 0.02671605 0.00132023 
0.09460367 0.05226774 0.02378780 0.00257788 0.00187541 0.00318717 0.01128310 0.00903586 0.03368166 0.00386958 0.00409906 0.09228330 0.01065038 0.00986820 0.02691199 0.00131939 
0.09576748 0.05129966 0.02400658 0.00255940 0.00188458 0.00317315 0.01134931 0.00911567 0.03392622 0.00387098 0.00409882 0.09247009 0.01078851 0.00978769 0.02708650 0.00131843 
0.09683757 0.05035969 0.02420249 0.00254327 0.00189406 0.00315906 0.01140802 0.00918952 0.03413290 0.00387013 0.00409632 0.09259001 0.01091584 0.00971188 0.02723902 0.00131736 
0.09780851 0.04945106 0.02437477 0.00252946 0.00190379 0.00314504 0.01145862 0.00925675 0.03429876 0.00386705 0.00409143 0.09264433 0.01103205 0.00964136 0.02736912 0.00131619 
0.09867527 0.04857692 0.02452272 0.00251793 0.00191372 0.00313127 0.01150056 0.00931670 0.03442120 0.00386181 0.00408408 0.09263478 0.01113688 0.00957671 0.02747648 0.00131492 
0.09943326 0.04774034 0.02464574 0.00250863 0.00192380 0.00311792 0.01153330 0.00936877 0.03449789 0.00385446 0.00407418 0.09256363 0.01123017 0.00951843 0.02756091 0.00131356 
0.10007837 0.04694431 0.02474331 0.00250153 0.00193397 0.00310513 0.01155637 0.00941238 0.03452688 0.00384508 0.00406164 0.09243361 0.01131180 0.00946701 0.02762238 0.00131212 
0.10060692 0.04619173 0.02481500 0.00249659 0.00194418 0.00309308 0.01156935 0.00944700 0.03450655 0.00383374 0.00404640 0.09224794 0.01138174 0.00942286 0.02766096 0.00131061 
0.10101576 0.04548544 0.02486050 0.00249378 0.00195440 0.00308192 0.01157187 0.00947213 0.03443565 0.00382054 0.00402841 0.09201031 0.01144004 0.00938638 0.02767685 0.00130904 
0.10130227 0.04482816 0.02487955 0.00249306 0.00196458 0.00307180 0.01156362 0.00948733 0.03431328 0.00380555 0.00400763 0.09172483 0.01148682 0.00935788 0.02767040 0.00130741 
0.10146433 0.04422255 0.02487202 0.00249439 0.00197469 0.00306286 0.01154433 0.00949221 0.03413893 0.00378888 0.00398402 0.09139605 0.01152224 0.00933764 0.02764207 0.00130573 
0.10150038 0.04367116 0.02483784 0.00249775 0.00198469 0.00305525 0.01151381 0.00948644 0.03391248 0.00377063 0.00395756 0.09102889 0.01154657 0.00932588 0.02759244 0.00130402 
0.10140944 0.04317647 0.02477706 0.00250311 0.00199455 0.00304909 0.01147194 0.00946972 0.03363416 0.00375090 0.00392826 0.09062866 0.01156013 0.00932276 0.02752223 0.00130227 
0.10119105 0.04274085 0.02468982 0.00251045 0.00200426 0.00304450 0.01141865 0.00944185 0.03330461 0.00372981 0.00389613 0.09020098 0.01156329 0.00932838 0.02743225 0.00130051 
0.10084536 0.04236660 0.02457634 0.00251975 0.00201378 0.00304158 0.01135393 0.00940265 0.03292482 0.00370746 0.00386118 0.08975176 0.01155650 0.00934281 0.02732343 0.00129873 
0.10037305 0.04205591 0.02443693 0.00253101 0.00202311 0.00304045 0.01127784 0.00935203 0.03249616 0.00368396 0.00382345 0.08928720 0.01154025 0.00936601 0.02719682 0.00129696 
0.09977539 0.04181087 0.02427200 0.00254421 0.00203222 0.00304117 0.01119052 0.00928995 0.03202034 0.00365944 0.00378300 0.08881367 0.01151511 0.00939794 0.02705352 0.00129519 
0.09905420 0.04163349 0.02408202 0.00255936 0.00204111 0.00304383 0.01109216 0.00921644 0.03149943 0.00363399 0.00373989 0.08833774 0.01148168 0.00943846 0.02689478 0.00129343 
0.09821186 0.04152567 0.02386757 0.00257644 0.00204976 0.00304847 0.01098302 0.00913159 0.03093583 0.00360774 0.00369421 0.08786610 0.01144060 0.00948739 0.02672187 0.00129169 
0.09725128 0.04148921 0.02362929 0.00259548 0.00205818 0.00305514 0.01086341 0.00903555 0.03033224 0.00358080 0.00364604 0.08740552 0.01139257 0.00954450 0.02653617 0.00128999 
0.09617591 0.04152580 0.02336790 0.00261648 0.00206636 0.00306387 0.01073373 0.00892856 0.02969167 0.00355328 0.00359549 0.08696281 0.01133832 0.00960950 0.02633912 0.00128832 
0.09498971 0.04163703 0.02308420 0.00263945 0.00207431 0.00307467 0.01059441 0.00881089 0.02901739 0.00352528 0.00354269 0.08654475 0.01127860 0.00968206 0.02613218 0.00128669 
0.09369712 0.04182435 0.02277903 0.00266441 0.00208201 0.00308753 0.01044596 0.00868290 0.02831294 0.00349692 0.00348777 0.08615807 0.01121420 0.00976178 0.02591689 0.00128511 
0.09230305 0.04208913 0.02245332 0.00269139 0.00208949 0.00310243 0.01028893 0.00854498 0.02758207 0.00346830 0.00343086 0.08580936 0.01114592 0.00984824 0.02569480 0.00128359 
0.09081287 0.04243259 0.02210805 0.00272040 0.00209673 0.00311934 0.01012394 0.00839761 0.02682875 0.00343951 0.00337214 0.08550507 0.01107460 0.00994095 0.02546748 0.00128214 
0.08923235 0.04285581 0.02174425 0.00275148 0.00210376 0.00313820 0.00995164 0.00824132 0.02605710 0.00341066 0.00331177 0.08525142 0.01100105 0.01003940 0.02523653 0.00128075 
0.08756765 0.04335975 0.02136299 0.00278465 0.00211057 0.00315894 0.00977273 0.00807669 0.02527141 0.00338182 0.00324992 0.08505438 0.01092613 0.01014303 0.02500352 0.00127943 
0.08582531 0.04394522 0.02096541 0.00281993 0.00211718 0.00318147 0.00958797 0.00790435 0.02447607 0.00335311 0.00318678 0.08491960 0.01085067 0.01025125 0.02477003 0.00127819 
0.08401217 0.04461289 0.02055267 0.00285736 0.00212359 0.00320571 0.00939812 0.00772498 0.02367557 0.00332458 0.00312256 0.08485237 0.01077551 0.01036345 0.02453762 0.00127703 
0.08213536 0.04536325 0.02012595 0.00289695 0.00212982 0.00323152 0.00920403 0.00753932 0.02287446 0.00329633 0.00305745 0.08485759 0.01070147 0.01047898 0.02430779 0.00127596 
0.08020229 0.04619663 0.01968649 0.00293874 0.00213586 0.00325879 0.00900651 0.00734814 0.02207731 0.00326842 0.00299167 0.08493970 0.01062937 0.01059717 0.02408203 0.00127498 
0.07822057 0.04711319 0.01923554 0.00298275 0.00214173 0.00328737 0.00880645 0.00715225 0.02128867 0.00324093 0.00292544 0.08510269 0.01055998 0.01071734 0.02386175 0.00127408 
0.07619800 0.04811291 0.01877435 0.00302898 0.00214744 0.00331712 0.00860474 0.00695249 0.02051309 0.00321392 0.00285897 0.08534999 0.01049407 0.01083879 0.02364832 0.00127328 
0.07414251 0.04919557 0.01830423 0.00307746 0.00215298 0.00334785 0.00840227 0.00674975 0.01975503 0.00318746 0.00279250 0.08568453 0.01043239 0.01096081 0.02344302 0.00127257 
0.07206215 0.05036075 0.01782646 0.00312819 0.00215837 0.00337941 0.00819997 0.00654493 0.01901886 0.00316158 0.00272625 0.08610862 0.01037562 0.01108269 0.02324706 0.00127195 
0.06996502 0.05160781 0.01734233 0.00318116 0.00216360 0.00341160 0.00799874 0.00633895 0.01830883 0.00313636 0.00266045 0.08662399 0.01032444 0.01120372 0.02306155 0.00127144 
0.06785928 0.05293592 0.01685315 0.00323638 0.00216868 0.00344423 0.00779950 0.00613276 0.01762904 0.00311184 0.00259533 0.08723172 0.01027947 0.01132317 0.02288753 0.00127102 
0.06575304 0.05434401 0.01636022 0.00329383 0.00217361 0.00347712 0.00760315 0.00592731 0.01698340 0.00308805 0.00253113 0.08793226 0.01024128 0.01144036 0.02272590 0.00127069 
0.06365437 0.05583076 0.01586481 0.00335348 0.00217839 0.00351004 0.00741061 0.00572357 0.01637563 0.00306505 0.00246807 0.08872541 0.01021041 0.01155459 0.02257749 0.00127046 
0.06157128 0.05739465 0.01536822 0.00341529 0.00218301 0.00354280 0.00722275 0.00552250 0.01580921 0.00304286 0.00240638 0.08961028 0.01018733 0.01166518 0.02244300 0.00127033 
0.05951163 0.05903389 0.01487169 0.00347923 0.00218747 0.00357520 0.00704043 0.00532508 0.01528738 0.00302153 0.00234628 0.09058533 0.01017248 0.01177148 0.02232300 0.00127029 
0.05748314 0.06074643 0.01437647 0.00354524 0.00219176 0.00360701 0.00686448 0.00513225 0.01481308 0.00300109 0.00228799 0.09164834 0.01016621 0.01187285 0.02221797 0.00127034 
0.05549331 0.06252999 0.01388379 0.00361325 0.00219587 0.00363804 0.00669572 0.00494496 0.01438901 0.00298157 0.00223171 0.09279642 0.01016886 0.01196870 0.02212824 0.00127048 
0.05354944 0.06438201 0.01339484 0.00368317 0.00219979 0.00366808 0.00653490 0.00476415 0.01401750 0.00296299 0.00217766 0.09402604 0.01018066 0.01205845 0.02205403 0.00127072 
0.05165858 0.06629969 0.01291079 0.00375492 0.00220352 0.00369692 0.00638277 0.00459073 0.01370061 0.00294539 0.00212603 0.09533301 0.01020183 0.01214156 0.02199544 0.00127104 
0.04982748 0.06827994 0.01243277 0.00382839 0.00220703 0.00372438 0.00624000 0.00442558 0.01344003 0.00292879 0.00207700 0.09671253 0.01023249 0.01221753 0.02195244 0.00127144 
0.04806258 0.07031942 0.01196190 0.00390345 0.00221032 0.00375027 0.00610723 0.00426955 0.01323713 0.00291322 0.00203075 0.09815919 0.01027272 0.01228590 0.02192486 0.00127192 
0.04636998 0.07241454 0.01149924 0.00397999 0.00221336 0.00377440 0.00598506 0.00412347 0.01309290 0.00289870 0.00198746 0.09966701 0.01032255 0.01234625 0.02191245 0.00127249 
0.04475545 0.07456141 0.01104582 0.00405784 0.00221614 0.00379660 0.00587403 0.00398812 0.01300799 0.00288527 0.00194726 0.10122949 0.01038192 0.01239820 0.02191481 0.00127313 
0.04322434 0.07675593 0.01060265 0.00413685 0.00221864 0.00381672 0.00577460 0.00386425 0.01298268 0.00287294 0.00191032 0.10283961 0.01045074 0.01244143 0.02193144 0.00127384 
0.04178163 0.07899371 0.01017066 0.00421684 0.00222085 0.00383461 0.00568720 0.00375254 0.01301691 0.00286175 0.00187675 0.10448987 0.01052884 0.01247565 0.02196173 0.00127463 
0.04043187 0.08127013 0.00975077 0.00429763 0.00222274 0.00385014 0.00561219 0.00365364 0.01311022 0.00285172 0.00184667 0.10617238 0.01061601 0.01250063 0.02200496 0.00127548 
0.03917919 0.08358034 0.00934385 0.00437902 0.00222430 0.00386318 0.00554986 0.00356816 0.01326183 0.00284288 0.00182020 0.10787885 0.01071197 0.01251620 0.02206032 0.00127640 
0.03802728 0.08591924 0.00895071 0.00446079 0.00222551 0.00387364 0.00550045 0.00349662 0.01347059 0.00283525 0.00179741 0.10960068 0.01081641 0.01252223 0.02212692 0.00127737 
0.03697939 0.08828153 0.00857212 0.00454273 0.00222635 0.00388141 0.00546411 0.00343952 0.01373503 0.00282888 0.00177837 0.11132899 0.01092893 0.01251862 0.02220378 0.00127841 
0.03603830 0.09066169 0.00820882 0.00462458 0.00222680 0.00388644 0.00544094 0.00339727 0.01405333 0.00282378 0.00176316 0.11305468 0.01104912 0.01250537 0.02228983 0.00127951 
0.03520635 0.09305403 0.00786147 0.00470612 0.00222685 0.00388866 0.00543098 0.00337022 0.01442337 0.00282000 0.00175181 0.11476848 0.01117651 0.01248249 0.02238395 0.00128066 
0.03448541 0.09545267 0.00753070 0.00478709 0.00222647 0.00388805 0.00543418 0.00335869 0.01484273 0.00281756 0.00174435 0.11646102 0.01131058 0.01245005 0.02248498 0.00128186 
0.03387691 0.09785157 0.00721709 0.00486721 0.00222566 0.00388457 0.00545044 0.00336290 0.01530870 0.00281650 0.00174080 0.11812288 0.01145077 0.01240817 0.02259169 0.00128310 
0.03338180 0.10024456 0.00692116 0.00494623 0.00222441 0.00387822 0.00547958 0.00338300 0.01581833 0.00281685 0.00174115 0.11974463 0.01159650 0.01235704 0.02270281 0.00128440 
0.03300060 0.10262533 0.00664339 0.00502386 0.00222269 0.00386903 0.00552138 0.00341910 0.01636841 0.00281865 0.00174539 0.12131694 0.01174714 0.01229686 0.02281707 0.00128574 
0.03273339 0.10498750 0.00638418 0.00509982 0.00222051 0.00385702 0.00557553 0.00347124 0.01695551 0.00282193 0.00175349 0.12283058 0.01190202 0.01222789 0.02293315 0.00128713 
0.03257982 0.10732460 0.00614392 0.00517383 0.00221786 0.00384224 0.00564166 0.00353935 0.01757603 0.00282673 0.00176539 0.12427651 0.01206047 0.01215044 0.02304975 0.00128855 
0.03253911 0.10963009 0.00592290 0.00524560 0.00221472 0.00382476 0.00571936 0.00362335 0.01822617 0.00283308 0.00178104 0.12564595 0.01222178 0.01206486 0.02316556 0.00129002 
0.03261008 0.11189743 0.00572138 0.00531484 0.00221110 0.00380466 0.00580813 0.00372305 0.01890202 0.00284102 0.00180036 0.12693039 0.01238521 0.01197151 0.02327929 0.00129153 
0.03279116 0.11412004 0.00553957 0.00538126 0.00220700 0.00378203 0.00590745 0.00383821 0.01959954 0.00285057 0.00182327 0.12812170 0.01255004 0.01187083 0.02338967 0.00129307 
0.03308041 0.11629141 0.00537762 0.00544459 0.00220243 0.00375700 0.00601673 0.00396852 0.02031459 0.00286177 0.00184965 0.12921213 0.01271550 0.01176325 0.02349545 0.00129465 
0.03347552 0.11840502 0.00523560 0.00550453 0.00219738 0.00372969 0.00613531 0.00411361 0.02104300 0.00287464 0.00187941 0.13019440 0.01288082 0.01164925 0.02359545 0.00129627 
0.03397386 0.12045446 0.00511357 0.00556082 0.00219186 0.00370023 0.00626253 0.00427305 0.02178054 0.00288922 0.00191241 0.13106173 0.01304524 0.01152933 0.02368852 0.00129792 
0.03457247 0.12243342 0.00501148 0.00561318 0.00218590 0.00366877 0.00639766 0.00444634 0.02252302 0.00290551 0.00194853 0.13180787 0.01320798 0.01140401 0.02377357 0.00129961 
0.03526809 0.12433571 0.00492928 0.00566135 0.00217949 0.00363548 0.00653992 0.00463291 0.02326623 0.00292356 0.00198760 0.13242717 0.01336828 0.01127384 0.02384960 0.00130133 
0.03605722 0.12615527 0.00486681 0.00570510 0.00217266 0.00360053 0.00668853 0.00483217 0.02400604 0.00294335 0.00202947 0.13291461 0.01352537 0.01113937 0.02391567 0.00130309 
0.03693606 0.12788627 0.00482388 0.00574417 0.00216543 0.00356408 0.00684265 0.00504345 0.02473840 0.00296492 0.00207399 0.13326579 0.01367850 0.01100116 0.02397090 0.00130488 
0.03790061 0.12952304 0.00480025 0.00577834 0.00215782 0.00352633 0.00700144 0.00526602 0.02545938 0.00298826 0.00212098 0.13347703 0.01382693 0.01085978 0.02401454 0.00130671 
0.03894667 0.13106017 0.00479560 0.00580742 0.00214986 0.00348746 0.00716402 0.00549912 0.02616517 0.00301337 0.00217025 0.13354534 0.01396993 0.01071583 0.02404591 0.00130857 
0.04006984 0.13249249 0.00480956 0.00583120 0.00214157 0.00344766 0.00732951 0.00574195 0.02685211 0.00304024 0.00222164 0.13346845 0.01410681 0.01056987 0.02406443 0.00131046 
0.04126558 0.13381513 0.00484172 0.00584950 0.00213298 0.00340713 0.00749700 0.00599364 0.02751676 0.00306887 0.00227493 0.13324485 0.01423687 0.01042247 0.02406963 0.00131238 
0.04252920 0.13502350 0.00489159 0.00586218 0.00212413 0.00336606 0.00766558 0.00625332 0.02815586 0.00309924 0.00232995 0.13287377 0.01435947 0.01027421 0.02406114 0.00131433 
0.04385592 0.13611336 0.00495863 0.00586910 0.00211505 0.00332464 0.00783436 0.00652007 0.02876638 0.00313132 0.00238649 0.13235521 0.01447398 0.01012565 0.02403871 0.00131632 
0.04524086 0.13708078 0.00504226 0.00587014 0.00210577 0.00328307 0.00800244 0.00679292 0.02934555 0.00316507 0.00244435 0.13168993 0.01457980 0.00997732 0.02400218 0.00131833 
0.04667908 0.13792224 0.00514183 0.00586522 0.00209634 0.00324153 0.00816891 0.00707090 0.02989084 0.00320045 0.00250334 0.13087942 0.01467638 0.00982976 0.02395152 0.00132037 
0.04816559 0.13863456 0.00525662 0.00585426 0.00208680 0.00320020 0.00833289 0.00735301 0.03040002 0.00323742 0.00256326 0.12992596 0.01476319 0.00968347 0.02388680 0.00132244 
0.04969540 0.13921497 0.00538590 0.00583722 0.00207717 0.00315926 0.00849354 0.00763824 0.03087114 0.00327593 0.00262390 0.12883255 0.01483976 0.00953895 0.02380820 0.00132453 
0.05126350 0.13966112 0.00552885 0.00581409 0.00206751 0.00311889 0.00864999 0.00792555 0.03130256 0.00331589 0.00268507 0.12760289 0.01490564 0.00939666 0.02371602 0.00132665 
0.05286492 0.13997108 0.00568462 0.00578486 0.00205786 0.00307923 0.00880146 0.00821391 0.03169296 0.00335726 0.00274657 0.12624139 0.01496044 0.00925703 0.02361065 0.00132879 
0.05449471 0.14014333 0.00585231 0.00574957 0.00204826 0.00304045 0.00894714 0.00850227 0.03204132 0.00339993 0.00280820 0.12475315 0.01500380 0.00912047 0.02349259 0.00133094 
0.05614799 0.14017681 0.00603097 0.00570828 0.00203876 0.00300268 0.00908630 0.00878958 0.03234696 0.00344383 0.00286980 0.12314388 0.01503544 0.00898737 0.02336244 0.00133311 
0.05781996 0.14007090 0.00621961 0.00566107 0.00202938 0.00296606 0.00921824 0.00907482 0.03260952 0.00348887 0.00293116 0.12141992 0.01505509 0.00885805 0.02322089 0.00133528 
0.05950590 0.13982543 0.00641720 0.00560805 0.00202019 0.00293070 0.00934228 0.00935694 0.03282897 0.00353493 0.00299211 0.11958816 0.01506256 0.00873285 0.02306872 0.00133747 
0.06120120 0.13944068 0.00662267 0.00554936 0.00201121 0.00289670 0.00945783 0.00963493 0.03300559 0.00358192 0.00305249 0.11765604 0.01505769 0.00861203 0.02290678 0.00133965 
0.06290138 0.13891735 0.00683492 0.00548516 0.00200249 0.00286418 0.00956432 0.00990779 0.03314001 0.00362970 0.00311213 0.11563146 0.01504040 0.00849584 0.02273601 0.00134183 
0.06460209 0.13825664 0.00705281 0.00541563 0.00199406 0.00283320 0.00966123 0.01017454 0.03323315 0.00367817 0.00317087 0.11352279 0.01501064 0.00838450 0.02255742 0.00134400 
0.06629910 0.13746015 0.00727520 0.00534099 0.00198597 0.00280383 0.00974811 0.01043422 0.03328624 0.00372719 0.00322857 0.11133877 0.01496843 0.00827816 0.02237207 0.00134615 
0.06798837 0.13652991 0.00750090 0.00526147 0.00197825 0.00277613 0.00982458 0.01068593 0.03330080 0.00377664 0.00328508 0.10908848 0.01491383 0.00817697 0.02218106 0.00134829 
0.06966600 0.13546841 0.00772871 0.00517732 0.00197093 0.00275014 0.00989030 0.01092875 0.03327863 0.00382636 0.00334029 0.10678129 0.01484697 0.00808103 0.02198556 0.00135039 
0.07132826 0.13427853 0.00795742 0.00508884 0.00196404 0.00272590 0.00994500 0.01116184 0.03322182 0.00387623 0.00339406 0.10442681 0.01476802 0.00799040 0.02178675 0.00135246 
0.07297162 0.13296354 0.00818582 0.00499630 0.00195761 0.00270341 0.00998848 0.01138440 0.03313268 0.00392610 0.00344629 0.10203482 0.01467723 0.00790513 0.02158586 0.00135448 
0.07459269 0.13152712 0.00841269 0.00490005 0.00195167 0.00268268 0.01002059 0.01159564 0.03301376 0.00397582 0.00349688 0.09961522 0.01457487 0.00782521 0.02138410 0.00135646 
0.07618830 0.12997331 0.00863680 0.00480041 0.00194623 0.00266371 0.01004128 0.01179485 0.03286783 0.00402523 0.00354574 0.09717798 0.01446129 0.00775061 0.02118271 0.00135837 
0.07775547 0.12830650 0.00885695 0.00469773 0.00194132 0.00264648 0.01005052 0.01198136 0.03269785 0.00407421 0.00359278 0.09473307 0.01433688 0.00768128 0.02098294 0.00136021 
0.07929137 0.12653141 0.00907194 0.00459239 0.00193696 0.00263096 0.01004839 0.01215455 0.03250694 0.00412258 0.00363794 0.09229043 0.01420208 0.00761711 0.02078599 0.00136197 
0.08079341 0.12465310 0.00928061 0.00448477 0.00193314 0.00261712 0.01003501 0.01231387 0.03229836 0.00417020 0.00368116 0.08985990 0.01405740 0.00755801 0.02059307 0.00136365 
0.08225915 0.12267688 0.00948181 0.00437527 0.00192989 0.00260490 0.01001058 0.01245881 0.03207553 0.00421693 0.00372239 0.08745114 0.01390336 0.00750383 0.02040535 0.00136523 
0.08368637 0.12060835 0.00967443 0.00426428 0.00192720 0.00259426 0.00997537 0.01258892 0.03184191 0.00426262 0.00376158 0.08507363 0.01374057 0.00745442 0.02022394 0.00136670 
0.08507301 0.11845338 0.00985739 0.00415222 0.00192507 0.00258513 0.00992969 0.01270384 0.03160107 0.00430712 0.00379871 0.08273658 0.01356965 0.00740959 0.02004994 0.00136806 
0.08641720 0.11621801 0.01002968 0.00403950 0.00192351 0.00257746 0.00987393 0.01280324 0.03135662 0.00435030 0.00383376 0.08044888 0.01339128 0.00736915 0.01988436 0.00136929 
0.08771725 0.11390853 0.01019031 0.00392656 0.00192250 0.00257117 0.00980854 0.01288687 0.03111217 0.00439201 0.00386671 0.07821909 0.01320617 0.00733290 0.01972816 0.00137039 
0.08897164 0.11153136 0.01033838 0.00381382 0.00192204 0.00256620 0.00973403 0.01295454 0.03087134 0.00443214 0.00389756 0.07605535 0.01301506 0.00730060 0.01958224 0.00137135 
0.09017901 0.10909309 0.01047304 0.00370169 0.00192210 0.00256246 0.00965095 0.01300615 0.03063772 0.00447055 0.00392632 0.07396538 0.01281875 0.00727205 0.01944739 0.00137215 
0.09133819 0.10660045 0.01059352 0.00359061 0.00192267 0.00255988 0.00955991 0.01304164 0.03041482 0.00450713 0.00395299 0.07195640 0.01261805 0.00724699 0.01932435 0.00137279 
0.09244812 0.10406022 0.01069912 0.00348100 0.00192372 0.00255839 0.00946157 0.01306102 0.03020608 0.00454176 0.00397760 0.07003513 0.01241379 0.00722519 0.01921375 0.00137326 
0.09350793 0.10147929 0.01078922 0.00337326 0.00192523 0.00255792 0.00935665 0.01306438 0.03001484 0.00457435 0.00400017 0.06820774 0.01220684 0.00720642 0.01911614 0.00137355 
0.09451685 0.09886460 0.01086331 0.00326782 0.00192717 0.00255839 0.00924587 0.01305188 0.02984428 0.00460479 0.00402073 0.06647984 0.01199808 0.00719044 0.01903196 0.00137365 
0.09547426 0.09622309 0.01092094 0.00316506 0.00192950 0.00255974 0.00913002 0.01302372 0.02969746 0.00463300 0.00403931 0.06485641 0.01178842 0.00717702 0.01896157 0.00137357 
0.09637967 0.09356172 0.01096181 0.00306538 0.00193219 0.00256190 0.00900991 0.01298019 0.02957723 0.00465890 0.00405597 0.06334184 0.01157875 0.00716595 0.01890519 0.00137329 
0.09723270 0.09088741 0.01098567 0.00296915 0.00193519 0.00256481 0.00888638 0.01292163 0.02948627 0.00468243 0.00407074 0.06193987 0.01137001 0.00715700 0.01886297 0.00137280 
0.09803305 0.08820707 0.01099241 0.00287674 0.00193847 0.00256843 0.00876029 0.01284845 0.02942702 0.00470351 0.00408367 0.06065361 0.01116311 0.00714998 0.01883494 0.00137211 
0.09878057 0.08552750 0.01098203 0.00278848 0.00194197 0.00257270 0.00863252 0.01276110 0.02940170 0.00472211 0.00409481 0.05948548 0.01095897 0.00714471 0.01882103 0.00137120 
0.09947515 0.08285545 0.01095463 0.00270471 0.00194565 0.00257759 0.00850395 0.01266012 0.02941228 0.00473817 0.00410422 0.05843727 0.01075851 0.00714102 0.01882105 0.00137009 
0.10011679 0.08019756 0.01091045 0.00262574 0.00194947 0.00258307 0.00837549 0.01254607 0.02946047 0.00475167 0.00411194 0.05751008 0.01056263 0.00713876 0.01883473 0.00136876 
0.10070556 0.07756033 0.01084982 0.00255185 0.00195336 0.00258911 0.00824801 0.01241958 0.02954769 0.00476259 0.00411804 0.05670438 0.01037224 0.00713780 0.01886169 0.00136722 
0.10124158 0.07495013 0.01077321 0.00248332 0.00195728 0.00259570 0.00812243 0.01228131 0.02967508 0.00477091 0.00412257 0.05601997 0.01018820 0.00713805 0.01890143 0.00136546 
0.10172505 0.07237319 0.01068120 0.00242039 0.00196116 0.00260284 0.00799962 0.01213200 0.02984350 0.00477663 0.00412557 0.05545600 0.01001136 0.00713941 0.01895340 0.00136349 
0.10215621 0.06983555 0.01057451 0.00236329 0.00196497 0.00261052 0.00788044 0.01197239 0.03005348 0.00477975 0.00412711 0.05501102 0.00984254 0.00714184 0.01901692 0.00136132 
0.10253535 0.06734308 0.01045396 0.00231221 0.00196864 0.00261876 0.00776574 0.01180327 0.03030527 0.00478030 0.00412723 0.05468295 0.00968255 0.00714530 0.01909125 0.00135894 
0.10286280 0.06490144 0.01032049 0.00226733 0.00197212 0.00262759 0.00765634 0.01162548 0.03059879 0.00477828 0.00412598 0.05446915 0.00953214 0.00714979 0.01917557 0.00135637 
0.10313893 0.06251611 0.01017516 0.00222880 0.00197536 0.00263701 0.00755302 0.01143987 0.03093367 0.00477375 0.00412340 0.05436639 0.00939201 0.00715532 0.01926898 0.00135361 
0.10336414 0.06019232 0.01001916 0.00219673 0.00197829 0.00264709 0.00745655 0.01124731 0.03130922 0.00476673 0.00411954 0.05437094 0.00926285 0.00716195 0.01937053 0.00135068 
0.10353885 0.05793511 0.00985375 0.00217124 0.00198088 0.00265784 0.00736762 0.01104869 0.03172445 0.00475728 0.00411444 0.05447855 0.00914527 0.00716975 0.01947919 0.00134757 
0.10366350 0.05574926 0.00968034 0.00215238 0.00198306 0.00266933 0.00728691 0.01084493 0.03217807 0.00474544 0.00410812 0.05468452 0.00903985 0.00717882 0.01959390 0.00134431 
0.10373856 0.05363933 0.00950040 0.00214020 0.00198479 0.00268162 0.00721502 0.01063695 0.03266850 0.00473128 0.00410063 0.05498373 0.00894710 0.00718928 0.01971356 0.00134090 
0.10376454 0.05160962 0.00931551 0.00213471 0.00198602 0.00269475 0.00715252 0.01042567 0.03319388 0.00471487 0.00409198 0.05537064 0.00886747 0.00720129 0.01983704 0.00133737 
0.10374192 0.04966418 0.00912735 0.00213591 0.00198671 0.00270879 0.00709990 0.01021201 0.03375208 0.00469629 0.00408220 0.05583941 0.00880137 0.00721501 0.01996318 0.00133372 
0.10367124 0.04780682 0.00893765 0.00214376 0.00198682 0.00272381 0.00705760 0.00999689 0.03434069 0.00467560 0.00407129 0.05638387 0.00874913 0.00723065 0.02009081 0.00132998 
0.10355304 0.04604108 0.00874824 0.00215819 0.00198630 0.00273989 0.00702601 0.00978122 0.03495709 0.00465289 0.00405929 0.05699759 0.00871099 0.00724842 0.02021875 0.00132616 
0.10338788 0.04437025 0.00856099 0.00217911 0.00198512 0.00275708 0.00700542 0.00956588 0.03559842 0.00462825 0.00404618 0.05767396 0.00868717 0.00726855 0.02034584 0.00132229 
0.10317636 0.04279735 0.00837783 0.00220641 0.00198326 0.00277546 0.00699607 0.00935176 0.03626160 0.00460178 0.00403198 0.05840616 0.00867777 0.00729129 0.02047093 0.00131838 
0.10291907 0.04132514 0.00820075 0.00223995 0.00198067 0.00279509 0.00699812 0.00913969 0.03694337 0.00457356 0.00401669 0.05918730 0.00868285 0.00731691 0.02059289 0.00131445 
0.10261666 0.03995612 0.00803174 0.00227957 0.00197734 0.00281605 0.00701167 0.00893051 0.03764028 0.00454369 0.00400029 0.06001038 0.00870238 0.00734568 0.02071062 0.00131053 
0.10226979 0.03869251 0.00787284 0.00232508 0.00197325 0.00283838 0.00703672 0.00872500 0.03834876 0.00451227 0.00398277 0.06086840 0.00873627 0.00737789 0.02082307 0.00130664 
0.10187917 0.03753627 0.00772608 0.00237626 0.00196838 0.00286216 0.00707322 0.00852392 0.03906509 0.00447941 0.00396413 0.06175439 0.00878433 0.00741383 0.02092923 0.00130281 
0.10144553 0.03648912 0.00759351 0.00243289 0.00196272 0.00288742 0.00712103 0.00832796 0.03978543 0.00444520 0.00394435 0.06266144 0.00884631 0.00745380 0.02102817 0.00129906 
0.10096967 0.03555249 0.00747714 0.00249472 0.00195627 0.00291421 0.00717994 0.00813781 0.04050589 0.00440975 0.00392341 0.06358276 0.00892190 0.00749808 0.02111901 0.00129541 
0.10045242 0.03472753 0.00737899 0.00256147 0.00194902 0.00294256 0.00724967 0.00795409 0.04122250 0.00437317 0.00390128 0.06451172 0.00901069 0.00754698 0.02120093 0.00129190 
0.09989468 0.03401517 0.00730100 0.00263287 0.00194098 0.00297250 0.00732984 0.00777736 0.04193126 0.00433556 0.00387795 0.06544190 0.00911221 0.00760079 0.02127323 0.00128854 
0.09929740 0.03341604 0.00724509 0.00270860 0.00193215 0.00300404 0.00742005 0.00760814 0.04262814 0.00429702 0.00385340 0.06636713 0.00922592 0.00765977 0.02133524 0.00128536 
0.09866161 0.03293052 0.00721312 0.00278835 0.00192255 0.00303718 0.00751977 0.00744690 0.04330916 0.00425765 0.00382759 0.06728150 0.00935121 0.00772421 0.02138644 0.00128239 
0.09798840 0.03255874 0.00720684 0.00287178 0.00191219 0.00307191 0.00762846 0.00729406 0.04397034 0.00421757 0.00380050 0.06817946 0.00948741 0.00779435 0.02142637 0.00127965 
0.09727896 0.03230053 0.00722796 0.00295854 0.00190110 0.00310820 0.00774547 0.00714995 0.04460777 0.00417688 0.00377212 0.06905578 0.00963378 0.00787042 0.02145467 0.00127717 
0.09653454 0.03215550 0.00727806 0.00304828 0.00188930 0.00314602 0.00787013 0.00701487 0.04521764 0.00413567 0.00374242 0.06990562 0.00978953 0.00795265 0.02147111 0.00127497 
0.09575652 0.03212297 0.00735862 0.00314064 0.00187682 0.00318532 0.00800168 0.00688905 0.04579623 0.00409405 0.00371138 0.07072458 0.00995379 0.00804121 0.02147552 0.00127308 
0.09494634 0.03220201 0.00747099 0.00323524 0.00186369 0.00322602 0.00813933 0.00677267 0.04633995 0.00405212 0.00367898 0.07150867 0.01012568 0.00813628 0.02146788 0.00127151 
0.09410556 0.03239144 0.00761639 0.00333169 0.00184996 0.00326805 0.00828223 0.00666583 0.04684536 0.00400998 0.00364522 0.07225436 0.01030423 0.00823799 0.02144826 0.00127029 
