0.07197937 0.01476115 0.00443479 0.00335755 0.00154652 0.00114054 0.00764750 0.00336554 0.00635919 0.00186429 0.00117882 0.03644101 0.00497986 0.00394354 0.00351438 0.00138488 
0.07291158 0.01493121 0.00460879 0.00334802 0.00150423 0.00111851 0.00752254 0.00326538 0.00608608 0.00185742 0.00121141 0.03644599 0.00498931 0.00411511 0.00360156 0.00139403 
0.07375476 0.01511732 0.00479692 0.00333646 0.00146308 0.00109812 0.00740325 0.00317114 0.00588228 0.00184990 0.00124298 0.03642339 0.00499616 0.00429136 0.00369005 0.00140287 
0.07450669 0.01531823 0.00499866 0.00332292 0.00142317 0.00107946 0.00729002 0.00308345 0.00574720 0.00184177 0.00127337 0.03637442 0.00500048 0.00447176 0.00377952 0.00141133 
0.07516563 0.01553269 0.00521347 0.00330750 0.00138461 0.00106261 0.00718326 0.00300290 0.00567994 0.00183308 0.00130245 0.03630042 0.00500234 0.00465575 0.00386960 0.00141935 
0.07573032 0.01575934 0.00544072 0.00329027 0.00134751 0.00104764 0.00708334 0.00293003 0.00567932 0.00182385 0.00133012 0.03620282 0.00500184 0.00484273 0.00395992 0.00142687 
0.07620000 0.01599681 0.00567972 0.00327132 0.00131195 0.00103465 0.00699064 0.00286533 0.00574386 0.00181414 0.00135630 0.03608318 0.00499909 0.00503207 0.00405011 0.00143381 
0.07657443 0.01624368 0.00592974 0.00325075 0.00127803 0.00102368 0.00690552 0.00280922 0.00587180 0.00180400 0.00138092 0.03594314 0.00499421 0.00522314 0.00413977 0.00144012 
0.07685387 0.01649852 0.00618999 0.00322865 0.00124581 0.00101481 0.00682833 0.00276210 0.00606111 0.00179347 0.00140392 0.03578442 0.00498735 0.00541526 0.00422850 0.00144573 
0.07703907 0.01675983 0.00645962 0.00320513 0.00121536 0.00100809 0.00675938 0.00272429 0.00630952 0.00178260 0.00142527 0.03560885 0.00497866 0.00560773 0.00431590 0.00145059 
0.07713130 0.01702615 0.00673774 0.00318029 0.00118675 0.00100357 0.00669899 0.00269604 0.00661451 0.00177145 0.00144497 0.03541830 0.00496830 0.00579987 0.00440157 0.00145465 
0.07713233 0.01729596 0.00702342 0.00315423 0.00116003 0.00100130 0.00664741 0.00267754 0.00697334 0.00176005 0.00146301 0.03521473 0.00495647 0.00599094 0.00448509 0.00145784 
0.07704441 0.01756778 0.00731569 0.00312707 0.00113523 0.00100131 0.00660491 0.00266895 0.00738307 0.00174846 0.00147940 0.03500015 0.00494335 0.00618023 0.00456607 0.00146012 
0.07687027 0.01784011 0.00761353 0.00309891 0.00111240 0.00100362 0.00657170 0.00267031 0.00784053 0.00173672 0.00149419 0.03477660 0.00492916 0.00636701 0.00464411 0.00146145 
0.07661311 0.01811148 0.00791591 0.00306987 0.00109156 0.00100826 0.00654795 0.00268163 0.00834243 0.00172489 0.00150742 0.03454617 0.00491410 0.00655055 0.00471881 0.00146177 
0.07627657 0.01838045 0.00822177 0.00304005 0.00107272 0.00101524 0.00653382 0.00270286 0.00888528 0.00171300 0.00151915 0.03431098 0.00489841 0.00673014 0.00478980 0.00146106 
0.07586472 0.01864558 0.00853000 0.00300956 0.00105590 0.00102456 0.00652941 0.00273385 0.00946547 0.00170110 0.00152946 0.03407317 0.00488232 0.00690505 0.00485670 0.00145927 
0.07538205 0.01890552 0.00883951 0.00297852 0.00104110 0.00103620 0.00653478 0.00277441 0.01007926 0.00168923 0.00153842 0.03383488 0.00486607 0.00707458 0.00491916 0.00145639 
0.07483340 0.01915892 0.00914917 0.00294702 0.00102830 0.00105016 0.00654998 0.00282429 0.01072281 0.00167742 0.00154613 0.03359824 0.00484991 0.00723805 0.00497685 0.00145237 
0.07422399 0.01940453 0.00945785 0.00291518 0.00101750 0.00106641 0.00657497 0.00288316 0.01139222 0.00166572 0.00155268 0.03336538 0.00483411 0.00739479 0.00502944 0.00144722 
0.07355936 0.01964113 0.00976443 0.00288310 0.00100866 0.00108491 0.00660971 0.00295064 0.01208349 0.00165415 0.00155820 0.03313840 0.00481891 0.00754416 0.00507663 0.00144091 
0.07284534 0.01986761 0.01006776 0.00285088 0.00100176 0.00110561 0.00665407 0.00302630 0.01279262 0.00164273 0.00156279 0.03291937 0.00480458 0.00768554 0.00511816 0.00143344 
0.07208803 0.02008290 0.01036674 0.00281861 0.00099677 0.00112847 0.00670791 0.00310964 0.01351556 0.00163151 0.00156657 0.03271033 0.00479139 0.00781835 0.00515377 0.00142480 
0.07129373 0.02028605 0.01066025 0.00278640 0.00099363 0.00115341 0.00677102 0.00320012 0.01424826 0.00162050 0.00156966 0.03251323 0.00477959 0.00794203 0.00518325 0.00141501 
0.07046898 0.02047618 0.01094719 0.00275433 0.00099230 0.00118036 0.00684317 0.00329714 0.01498670 0.00160972 0.00157219 0.03232999 0.00476946 0.00805606 0.00520639 0.00140406 
0.06962042 0.02065254 0.01122650 0.00272250 0.00099273 0.00120924 0.00692405 0.00340007 0.01572688 0.00159919 0.00157428 0.03216246 0.00476125 0.00815998 0.00522304 0.00139198 
0.06875484 0.02081445 0.01149713 0.00269098 0.00099485 0.00123996 0.00701332 0.00350824 0.01646487 0.00158892 0.00157605 0.03201238 0.00475523 0.00825334 0.00523307 0.00137879 
0.06787910 0.02096137 0.01175808 0.00265986 0.00099860 0.00127240 0.00711060 0.00362092 0.01719680 0.00157893 0.00157762 0.03188143 0.00475163 0.00833576 0.00523637 0.00136451 
0.06700008 0.02109287 0.01200835 0.00262921 0.00100391 0.00130648 0.00721546 0.00373739 0.01791890 0.00156922 0.00157912 0.03177117 0.00475072 0.00840689 0.00523289 0.00134919 
0.06612468 0.02120863 0.01224703 0.00259911 0.00101070 0.00134206 0.00732742 0.00385686 0.01862750 0.00155980 0.00158067 0.03168307 0.00475272 0.00846643 0.00522259 0.00133285 
0.06525973 0.02130846 0.01247322 0.00256962 0.00101891 0.00137903 0.00744597 0.00397856 0.01931906 0.00155068 0.00158236 0.03161847 0.00475787 0.00851415 0.00520548 0.00131556 
0.06441198 0.02139229 0.01268608 0.00254080 0.00102846 0.00141724 0.00757055 0.00410168 0.01999017 0.00154185 0.00158431 0.03157859 0.00476639 0.00854984 0.00518160 0.00129735 
0.06358808 0.02146019 0.01288483 0.00251272 0.00103926 0.00145657 0.00770057 0.00422539 0.02063758 0.00153333 0.00158662 0.03156455 0.00477848 0.00857337 0.00515103 0.00127829 
0.06279447 0.02151236 0.01306874 0.00248543 0.00105123 0.00149687 0.00783540 0.00434889 0.02125822 0.00152509 0.00158936 0.03157729 0.00479433 0.00858464 0.00511387 0.00125844 
0.06203742 0.02154909 0.01323713 0.00245898 0.00106429 0.00153799 0.00797438 0.00447135 0.02184918 0.00151715 0.00159264 0.03161765 0.00481412 0.00858362 0.00507028 0.00123786 
0.06132295 0.02157085 0.01338941 0.00243342 0.00107836 0.00157978 0.00811683 0.00459197 0.02240776 0.00150949 0.00159651 0.03168631 0.00483802 0.00857033 0.00502044 0.00121663 
0.06065678 0.02157821 0.01352503 0.00240878 0.00109335 0.00162208 0.00826204 0.00470993 0.02293144 0.00150212 0.00160105 0.03178380 0.00486617 0.00854483 0.00496456 0.00119482 
0.06004435 0.02157185 0.01364352 0.00238511 0.00110918 0.00166473 0.00840926 0.00482445 0.02341795 0.00149502 0.00160631 0.03191050 0.00489869 0.00850724 0.00490290 0.00117252 
0.05949072 0.02155260 0.01374449 0.00236245 0.00112578 0.00170757 0.00855775 0.00493477 0.02386519 0.00148819 0.00161232 0.03206664 0.00493570 0.00845774 0.00483573 0.00114979 
0.05900059 0.02152138 0.01382761 0.00234081 0.00114305 0.00175043 0.00870674 0.00504015 0.02427134 0.00148163 0.00161913 0.03225230 0.00497728 0.00839656 0.00476337 0.00112674 
0.05857824 0.02147925 0.01389263 0.00232023 0.00116092 0.00179316 0.00885546 0.00513989 0.02463479 0.00147531 0.00162676 0.03246737 0.00502350 0.00832396 0.00468616 0.00110346 
0.05822752 0.02142734 0.01393937 0.00230073 0.00117932 0.00183558 0.00900313 0.00523332 0.02495416 0.00146925 0.00163522 0.03271162 0.00507440 0.00824027 0.00460448 0.00108002 
0.05795181 0.02136690 0.01396774 0.00228234 0.00119816 0.00187755 0.00914895 0.00531981 0.02522835 0.00146342 0.00164451 0.03298466 0.00513001 0.00814585 0.00451871 0.00105653 
0.05775401 0.02129927 0.01397772 0.00226507 0.00121738 0.00191888 0.00929217 0.00539878 0.02545646 0.00145784 0.00165461 0.03328590 0.00519032 0.00804112 0.00442928 0.00103308 
0.05763654 0.02122587 0.01396935 0.00224893 0.00123691 0.00195944 0.00943199 0.00546970 0.02563787 0.00145248 0.00166552 0.03361466 0.00525530 0.00792653 0.00433662 0.00100977 
0.05760125 0.02114819 0.01394277 0.00223394 0.00125668 0.00199906 0.00956767 0.00553208 0.02577221 0.00144735 0.00167719 0.03397005 0.00532491 0.00780257 0.00424121 0.00098668 
0.05764951 0.02106778 0.01389820 0.00222012 0.00127663 0.00203759 0.00969846 0.00558549 0.02585933 0.00144244 0.00168959 0.03435106 0.00539907 0.00766977 0.00414350 0.00096393 
0.05778211 0.02098627 0.01383592 0.00220745 0.00129670 0.00207489 0.00982364 0.00562958 0.02589935 0.00143776 0.00170267 0.03475653 0.00547768 0.00752869 0.00404401 0.00094159 
0.05799931 0.02090531 0.01375629 0.00219597 0.00131684 0.00211083 0.00994252 0.00566403 0.02589261 0.00143330 0.00171636 0.03518516 0.00556062 0.00737993 0.00394322 0.00091977 
0.05830080 0.02082658 0.01365974 0.00218565 0.00133700 0.00214526 0.01005443 0.00568859 0.02583971 0.00142907 0.00173061 0.03563550 0.00564773 0.00722409 0.00384166 0.00089855 
0.05868573 0.02075180 0.01354678 0.00217652 0.00135712 0.00217807 0.01015874 0.00570309 0.02574146 0.00142506 0.00174532 0.03610600 0.00573885 0.00706184 0.00373983 0.00087803 
0.05915270 0.02068268 0.01341798 0.00216857 0.00137717 0.00220914 0.01025485 0.00570742 0.02559891 0.00142129 0.00176042 0.03659497 0.00583378 0.00689382 0.00363826 0.00085830 
0.05969974 0.02062094 0.01327399 0.00216180 0.00139710 0.00223835 0.01034222 0.00570151 0.02541330 0.00141775 0.00177582 0.03710059 0.00593229 0.00672074 0.00353747 0.00083943 
0.06032437 0.02056828 0.01311551 0.00215621 0.00141688 0.00226561 0.01042033 0.00568540 0.02518612 0.00141447 0.00179142 0.03762095 0.00603414 0.00654328 0.00343797 0.00082151 
0.06102358 0.02052637 0.01294331 0.00215180 0.00143648 0.00229083 0.01048873 0.00565915 0.02491902 0.00141144 0.00180711 0.03815404 0.00613907 0.00636215 0.00334029 0.00080460 
0.06179384 0.02049685 0.01275821 0.00214856 0.00145587 0.00231392 0.01054701 0.00562292 0.02461385 0.00140868 0.00182280 0.03869775 0.00624679 0.00617808 0.00324491 0.00078880 
0.06263115 0.02048130 0.01256109 0.00214648 0.00147503 0.00233482 0.01059482 0.00557692 0.02427264 0.00140620 0.00183836 0.03924990 0.00635698 0.00599177 0.00315234 0.00077415 
0.06353104 0.02048124 0.01235288 0.00214557 0.00149393 0.00235346 0.01063186 0.00552142 0.02389758 0.00140402 0.00185370 0.03980822 0.00646933 0.00580396 0.00306305 0.00076072 
0.06448858 0.02049810 0.01213456 0.00214581 0.00151255 0.00236979 0.01065790 0.00545675 0.02349101 0.00140215 0.00186868 0.04037040 0.00658350 0.00561537 0.00297751 0.00074857 
0.06549845 0.02053325 0.01190713 0.00214719 0.00153089 0.00238378 0.01067276 0.00538332 0.02305540 0.00140060 0.00188321 0.04093405 0.00669912 0.00542670 0.00289614 0.00073774 
0.06655493 0.02058792 0.01167167 0.00214970 0.00154892 0.00239539 0.01067632 0.00530156 0.02259337 0.00139941 0.00189715 0.04149677 0.00681582 0.00523866 0.00281938 0.00072829 
0.06765197 0.02066328 0.01142925 0.00215334 0.00156664 0.00240461 0.01066853 0.00521198 0.02210762 0.00139857 0.00191040 0.04205609 0.00693321 0.00505194 0.00274762 0.00072024 
0.06878319 0.02076035 0.01118100 0.00215808 0.00158405 0.00241142 0.01064942 0.00511512 0.02160096 0.00139813 0.00192284 0.04260955 0.00705090 0.00486723 0.00268122 0.00071362 
0.06994194 0.02088002 0.01092807 0.00216392 0.00160114 0.00241584 0.01061904 0.00501158 0.02107628 0.00139808 0.00193436 0.04315466 0.00716849 0.00468517 0.00262053 0.00070846 
0.07112132 0.02102306 0.01067160 0.00217084 0.00161790 0.00241786 0.01057756 0.00490200 0.02053652 0.00139846 0.00194485 0.04368894 0.00728556 0.00450642 0.00256586 0.00070478 
0.07231425 0.02119008 0.01041278 0.00217881 0.00163433 0.00241753 0.01052516 0.00478705 0.01998469 0.00139928 0.00195420 0.04420993 0.00740170 0.00433158 0.00251748 0.00070258 
0.07351347 0.02138154 0.01015279 0.00218783 0.00165045 0.00241486 0.01046212 0.00466744 0.01942382 0.00140057 0.00196232 0.04471516 0.00751649 0.00416125 0.00247564 0.00070187 
0.07471164 0.02159776 0.00989283 0.00219786 0.00166624 0.00240991 0.01038876 0.00454389 0.01885696 0.00140233 0.00196910 0.04520222 0.00762952 0.00399599 0.00244056 0.00070264 
0.07590132 0.02183887 0.00963408 0.00220888 0.00168171 0.00240271 0.01030549 0.00441716 0.01828717 0.00140460 0.00197447 0.04566874 0.00774037 0.00383633 0.00241239 0.00070488 
0.07707507 0.02210486 0.00937773 0.00222087 0.00169686 0.00239334 0.01021273 0.00428802 0.01771748 0.00140738 0.00197834 0.04611239 0.00784862 0.00368277 0.00239129 0.00070858 
0.07822545 0.02239553 0.00912494 0.00223378 0.00171170 0.00238186 0.01011100 0.00415727 0.01715092 0.00141070 0.00198063 0.04653090 0.00795389 0.00353579 0.00237735 0.00071369 
0.07934509 0.02271052 0.00887688 0.00224760 0.00172624 0.00236835 0.01000085 0.00402569 0.01659045 0.00141458 0.00198128 0.04692209 0.00805578 0.00339581 0.00237064 0.00072020 
0.08042674 0.02304930 0.00863467 0.00226227 0.00174047 0.00235288 0.00988289 0.00389407 0.01603899 0.00141901 0.00198023 0.04728385 0.00815390 0.00326323 0.00237118 0.00072806 
0.08146329 0.02341115 0.00839943 0.00227777 0.00175440 0.00233555 0.00975777 0.00376322 0.01549939 0.00142402 0.00197743 0.04761416 0.00824789 0.00313842 0.00237897 0.00073723 
0.08244785 0.02379520 0.00817223 0.00229404 0.00176804 0.00231646 0.00962618 0.00363391 0.01497441 0.00142963 0.00197284 0.04791110 0.00833741 0.00302168 0.00239394 0.00074766 
0.08337372 0.02420042 0.00795412 0.00231104 0.00178140 0.00229570 0.00948887 0.00350692 0.01446672 0.00143582 0.00196643 0.04817286 0.00842212 0.00291331 0.00241604 0.00075929 
0.08423454 0.02462559 0.00774609 0.00232872 0.00179446 0.00227338 0.00934659 0.00338300 0.01397887 0.00144262 0.00195817 0.04839773 0.00850172 0.00281355 0.00244512 0.00077206 
0.08502422 0.02506936 0.00754911 0.00234702 0.00180724 0.00224961 0.00920015 0.00326287 0.01351330 0.00145003 0.00194805 0.04858416 0.00857592 0.00272259 0.00248105 0.00078591 
0.08573705 0.02553021 0.00736409 0.00236588 0.00181974 0.00222451 0.00905038 0.00314725 0.01307231 0.00145805 0.00193608 0.04873068 0.00864447 0.00264061 0.00252363 0.00080075 
0.08636770 0.02600649 0.00719187 0.00238524 0.00183196 0.00219818 0.00889812 0.00303681 0.01265808 0.00146667 0.00192226 0.04883600 0.00870714 0.00256772 0.00257266 0.00081652 
0.08691127 0.02649639 0.00703326 0.00240503 0.00184389 0.00217075 0.00874424 0.00293217 0.01227261 0.00147590 0.00190660 0.04889894 0.00876372 0.00250400 0.00262788 0.00083313 
0.08736330 0.02699801 0.00688899 0.00242517 0.00185555 0.00214233 0.00858961 0.00283394 0.01191777 0.00148572 0.00188914 0.04891849 0.00881405 0.00244951 0.00268902 0.00085051 
0.08771983 0.02750931 0.00675975 0.00244560 0.00186692 0.00211306 0.00843512 0.00274266 0.01159524 0.00149614 0.00186992 0.04889378 0.00885799 0.00240423 0.00275579 0.00086857 
0.08797738 0.02802815 0.00664613 0.00246622 0.00187800 0.00208305 0.00828165 0.00265885 0.01130653 0.00150713 0.00184898 0.04882410 0.00889544 0.00236815 0.00282787 0.00088722 
0.08813301 0.02855229 0.00654868 0.00248697 0.00188879 0.00205242 0.00813007 0.00258296 0.01105299 0.00151869 0.00182637 0.04870890 0.00892632 0.00234117 0.00290491 0.00090637 
0.08818434 0.02907942 0.00646785 0.00250775 0.00189928 0.00202130 0.00798127 0.00251539 0.01083577 0.00153080 0.00180217 0.04854781 0.00895062 0.00232321 0.00298655 0.00092594 
0.08812952 0.02960717 0.00640405 0.00252846 0.00190946 0.00198980 0.00783609 0.00245649 0.01065584 0.00154344 0.00177646 0.04834061 0.00896834 0.00231411 0.00307243 0.00094582 
0.08796729 0.03013308 0.00635758 0.00254903 0.00191933 0.00195805 0.00769537 0.00240656 0.01051396 0.00155658 0.00174930 0.04808726 0.00897953 0.00231370 0.00316216 0.00096594 
0.08769696 0.03065471 0.00632867 0.00256934 0.00192888 0.00192616 0.00755993 0.00236583 0.01041073 0.00157020 0.00172080 0.04778788 0.00898426 0.00232176 0.00325533 0.00098619 
0.08731842 0.03116953 0.00631749 0.00258931 0.00193810 0.00189426 0.00743055 0.00233448 0.01034653 0.00158429 0.00169105 0.04744278 0.00898266 0.00233806 0.00335156 0.00100650 
0.08683217 0.03167505 0.00632411 0.00260883 0.00194697 0.00186245 0.00730798 0.00231263 0.01032156 0.00159880 0.00166015 0.04705244 0.00897490 0.00236233 0.00345044 0.00102676 
0.08623926 0.03216876 0.00634852 0.00262779 0.00195548 0.00183085 0.00719294 0.00230033 0.01033583 0.00161370 0.00162823 0.04661751 0.00896118 0.00239426 0.00355155 0.00104689 
0.08554134 0.03264819 0.00639063 0.00264611 0.00196363 0.00179956 0.00708610 0.00229759 0.01038913 0.00162897 0.00159539 0.04613884 0.00894172 0.00243354 0.00365450 0.00106682 
0.08474060 0.03311087 0.00645027 0.00266366 0.00197140 0.00176870 0.00698809 0.00230434 0.01048111 0.00164457 0.00156176 0.04561741 0.00891682 0.00247981 0.00375889 0.00108644 
0.08383982 0.03355442 0.00652720 0.00268036 0.00197877 0.00173837 0.00689949 0.00232048 0.01061119 0.00166047 0.00152746 0.04505441 0.00888678 0.00253270 0.00386433 0.00110569 
0.08284228 0.03397650 0.00662107 0.00269609 0.00198573 0.00170866 0.00682081 0.00234582 0.01077865 0.00167662 0.00149262 0.04445120 0.00885195 0.00259184 0.00397044 0.00112449 
0.08175179 0.03437485 0.00673148 0.00271076 0.00199227 0.00167967 0.00675253 0.00238013 0.01098256 0.00169299 0.00145738 0.04380929 0.00881271 0.00265680 0.00407686 0.00114277 
0.08057268 0.03474732 0.00685794 0.00272426 0.00199837 0.00165150 0.00669507 0.00242315 0.01122184 0.00170953 0.00142187 0.04313037 0.00876950 0.00272716 0.00418324 0.00116045 
0.07930971 0.03509186 0.00699989 0.00273649 0.00200401 0.00162423 0.00664876 0.00247453 0.01149525 0.00172622 0.00138623 0.04241631 0.00872274 0.00280249 0.00428924 0.00117748 
0.07796810 0.03540652 0.00715669 0.00274737 0.00200918 0.00159795 0.00661391 0.00253390 0.01180140 0.00174300 0.00135060 0.04166910 0.00867292 0.00288235 0.00439456 0.00119379 
0.07655350 0.03568951 0.00732763 0.00275679 0.00201387 0.00157276 0.00659073 0.00260083 0.01213875 0.00175983 0.00131510 0.04089093 0.00862055 0.00296627 0.00449892 0.00120933 
0.07507189 0.03593916 0.00751194 0.00276468 0.00201805 0.00154871 0.00657939 0.00267487 0.01250561 0.00177668 0.00127988 0.04008410 0.00856615 0.00305378 0.00460205 0.00122405 
0.07352964 0.03615397 0.00770878 0.00277096 0.00202172 0.00152591 0.00657997 0.00275551 0.01290019 0.00179351 0.00124508 0.03925109 0.00851028 0.00314443 0.00470371 0.00123791 
0.07193340 0.03633258 0.00791724 0.00277554 0.00202486 0.00150440 0.00659251 0.00284222 0.01332058 0.00181026 0.00121082 0.03839450 0.00845351 0.00323773 0.00480370 0.00125086 
0.07029008 0.03647383 0.00813638 0.00277835 0.00202745 0.00148428 0.00661696 0.00293442 0.01376475 0.00182691 0.00117723 0.03751707 0.00839643 0.00333322 0.00490185 0.00126288 
0.06860684 0.03657673 0.00836517 0.00277934 0.00202948 0.00146560 0.00665322 0.00303155 0.01423060 0.00184341 0.00114445 0.03662166 0.00833965 0.00343042 0.00499800 0.00127394 
0.06689101 0.03664045 0.00860257 0.00277845 0.00203095 0.00144843 0.00670111 0.00313297 0.01471592 0.00185973 0.00111259 0.03571125 0.00828378 0.00352888 0.00509205 0.00128402 
0.06515007 0.03666439 0.00884747 0.00277563 0.00203182 0.00143284 0.00676041 0.00323806 0.01521846 0.00187582 0.00108176 0.03478892 0.00822945 0.00362812 0.00518390 0.00129310 
0.06339158 0.03664811 0.00909874 0.00277085 0.00203210 0.00141888 0.00683081 0.00334619 0.01573589 0.00189165 0.00105209 0.03385787 0.00817729 0.00372769 0.00527351 0.00130117 
0.06162319 0.03659140 0.00935520 0.00276406 0.00203178 0.00140661 0.00691196 0.00345670 0.01626586 0.00190718 0.00102367 0.03292137 0.00812793 0.00382715 0.00536085 0.00130822 
0.05985255 0.03649423 0.00961565 0.00275526 0.00203084 0.00139609 0.00700345 0.00356893 0.01680597 0.00192239 0.00099661 0.03198279 0.00808199 0.00392606 0.00544594 0.00131427 
0.05808726 0.03635677 0.00987888 0.00274443 0.00202927 0.00138736 0.00710479 0.00368225 0.01735381 0.00193723 0.00097099 0.03104555 0.00804010 0.00402401 0.00552881 0.00131931 
0.05633490 0.03617941 0.01014363 0.00273157 0.00202707 0.00138048 0.00721546 0.00379600 0.01790696 0.00195169 0.00094691 0.03011314 0.00800288 0.00412059 0.00560954 0.00132335 
0.05460290 0.03596271 0.01040868 0.00271669 0.00202423 0.00137549 0.00733489 0.00390955 0.01846300 0.00196572 0.00092443 0.02918909 0.00797092 0.00421541 0.00568824 0.00132642 
0.05289855 0.03570746 0.01067275 0.00269981 0.00202074 0.00137244 0.00746247 0.00402227 0.01901955 0.00197932 0.00090363 0.02827697 0.00794481 0.00430810 0.00576501 0.00132853 
0.05122896 0.03541462 0.01093461 0.00268096 0.00201660 0.00137137 0.00759752 0.00413356 0.01957424 0.00199244 0.00088456 0.02738037 0.00792513 0.00439830 0.00584004 0.00132971 
0.04960100 0.03508534 0.01119300 0.00266018 0.00201181 0.00137232 0.00773934 0.00424284 0.02012475 0.00200508 0.00086729 0.02650290 0.00791241 0.00448568 0.00591347 0.00133000 
0.04802128 0.03472096 0.01144669 0.00263753 0.00200636 0.00137533 0.00788721 0.00434954 0.02066884 0.00201721 0.00085184 0.02564814 0.00790716 0.00456993 0.00598553 0.00132942 
0.04649614 0.03432300 0.01169447 0.00261306 0.00200025 0.00138043 0.00804035 0.00445314 0.02120429 0.00202882 0.00083825 0.02481966 0.00790988 0.00465076 0.00605643 0.00132802 
0.04503156 0.03389314 0.01193515 0.00258686 0.00199349 0.00138764 0.00819797 0.00455315 0.02172899 0.00203989 0.00082655 0.02402102 0.00792102 0.00472789 0.00612641 0.00132583 
0.04363318 0.03343321 0.01216757 0.00255900 0.00198607 0.00139701 0.00835927 0.00464910 0.02224091 0.00205040 0.00081675 0.02325571 0.00794099 0.00480109 0.00619571 0.00132291 
0.04230628 0.03294521 0.01239060 0.00252958 0.00197800 0.00140855 0.00852341 0.00474058 0.02273812 0.00206035 0.00080886 0.02252716 0.00797017 0.00487013 0.00626460 0.00131929 
0.04105570 0.03243127 0.01260317 0.00249871 0.00196928 0.00142229 0.00868956 0.00482718 0.02321878 0.00206973 0.00080287 0.02183872 0.00800890 0.00493482 0.00633336 0.00131504 
0.03988587 0.03189365 0.01280423 0.00246649 0.00195992 0.00143823 0.00885686 0.00490859 0.02368120 0.00207854 0.00079878 0.02119366 0.00805747 0.00499499 0.00640225 0.00131020 
0.03880080 0.03133473 0.01299279 0.00243305 0.00194992 0.00145639 0.00902448 0.00498448 0.02412377 0.00208676 0.00079655 0.02059513 0.00811611 0.00505048 0.00647157 0.00130483 
0.03780401 0.03075699 0.01316793 0.00239852 0.00193930 0.00147679 0.00919156 0.00505463 0.02454505 0.00209441 0.00079617 0.02004618 0.00818502 0.00510118 0.00654160 0.00129899 
0.03689857 0.03016302 0.01332877 0.00236304 0.00192805 0.00149941 0.00935727 0.00511881 0.02494369 0.00210147 0.00079758 0.01954969 0.00826434 0.00514698 0.00661260 0.00129272 
0.03608707 0.02955546 0.01347451 0.00232676 0.00191620 0.00152427 0.00952079 0.00517688 0.02531852 0.00210795 0.00080076 0.01910842 0.00835415 0.00518783 0.00668486 0.00128609 
0.03537161 0.02893704 0.01360440 0.00228982 0.00190375 0.00155134 0.00968129 0.00522871 0.02566850 0.00211386 0.00080563 0.01872494 0.00845449 0.00522365 0.00675863 0.00127915 
0.03475381 0.02831055 0.01371776 0.00225239 0.00189071 0.00158062 0.00983799 0.00527424 0.02599273 0.00211919 0.00081215 0.01840166 0.00856533 0.00525444 0.00683415 0.00127197 
0.03423481 0.02767882 0.01381400 0.00221463 0.00187710 0.00161209 0.00999014 0.00531346 0.02629048 0.00212396 0.00082024 0.01814078 0.00868658 0.00528019 0.00691167 0.00126459 
0.03381526 0.02704468 0.01389261 0.00217670 0.00186294 0.00164571 0.01013698 0.00534639 0.02656114 0.00212817 0.00082983 0.01794430 0.00881811 0.00530092 0.00699139 0.00125708 
0.03349532 0.02641100 0.01395312 0.00213879 0.00184824 0.00168145 0.01027782 0.00537311 0.02680429 0.00213184 0.00084083 0.01781401 0.00895970 0.00531667 0.00707349 0.00124948 
0.03327472 0.02578066 0.01399519 0.00210105 0.00183301 0.00171928 0.01041200 0.00539372 0.02701964 0.00213497 0.00085317 0.01775145 0.00911111 0.00532751 0.00715816 0.00124187 
0.03315269 0.02515650 0.01401851 0.00206367 0.00181727 0.00175913 0.01053888 0.00540839 0.02720706 0.00213757 0.00086675 0.01775794 0.00927201 0.00533352 0.00724551 0.00123427 
0.03312806 0.02454135 0.01402291 0.00202683 0.00180105 0.00180096 0.01065788 0.00541732 0.02736655 0.00213966 0.00088147 0.01783454 0.00944203 0.00533481 0.00733566 0.00122675 
0.03319919 0.02393801 0.01400824 0.00199069 0.00178436 0.00184470 0.01076846 0.00542073 0.02749829 0.00214125 0.00089724 0.01798203 0.00962074 0.00533148 0.00742869 0.00121935 
0.03336407 0.02334922 0.01397449 0.00195544 0.00176721 0.00189027 0.01087012 0.00541891 0.02760257 0.00214235 0.00091396 0.01820094 0.00980764 0.00532369 0.00752464 0.00121211 
0.03362029 0.02277766 0.01392169 0.00192125 0.00174964 0.00193759 0.01096242 0.00541215 0.02767983 0.00214298 0.00093152 0.01849154 0.01000220 0.00531158 0.00762350 0.00120509 
0.03396506 0.02222594 0.01384998 0.00188828 0.00173166 0.00198657 0.01104497 0.00540078 0.02773065 0.00214314 0.00094981 0.01885379 0.01020383 0.00529533 0.00772525 0.00119831 
0.03439526 0.02169657 0.01375956 0.00185671 0.00171330 0.00203710 0.01111744 0.00538516 0.02775573 0.00214286 0.00096872 0.01928737 0.01041187 0.00527511 0.00782982 0.00119182 
0.03490747 0.02119200 0.01365072 0.00182670 0.00169457 0.00208908 0.01117953 0.00536568 0.02775587 0.00214214 0.00098816 0.01979168 0.01062566 0.00525112 0.00793710 0.00118564 
0.03549796 0.02071454 0.01352383 0.00179839 0.00167550 0.00214239 0.01123101 0.00534273 0.02773201 0.00214100 0.00100800 0.02036584 0.01084445 0.00522356 0.00804693 0.00117981 
0.03616275 0.02026641 0.01337933 0.00177195 0.00165611 0.00219690 0.01127172 0.00531672 0.02768518 0.00213946 0.00102815 0.02100864 0.01106747 0.00519265 0.00815914 0.00117435 
0.03689761 0.01984969 0.01321773 0.00174752 0.00163642 0.00225248 0.01130153 0.00528809 0.02761650 0.00213752 0.00104849 0.02171863 0.01129392 0.00515861 0.00827348 0.00116929 
0.03769811 0.01946636 0.01303962 0.00172523 0.00161646 0.00230897 0.01132039 0.00525728 0.02752718 0.00213521 0.00106892 0.02249404 0.01152296 0.00512166 0.00838969 0.00116464 
0.03855967 0.01911822 0.01284565 0.00170520 0.00159625 0.00236624 0.01132828 0.00522472 0.02741850 0.00213252 0.00108933 0.02333283 0.01175373 0.00508204 0.00850747 0.00116042 
0.03947753 0.01880695 0.01263653 0.00168756 0.00157581 0.00242411 0.01132526 0.00519086 0.02729181 0.00212948 0.00110963 0.02423269 0.01198533 0.00504000 0.00862647 0.00115664 
0.04044682 0.01853410 0.01241304 0.00167241 0.00155517 0.00248242 0.01131142 0.00515614 0.02714852 0.00212609 0.00112972 0.02519102 0.01221685 0.00499577 0.00874630 0.00115331 
0.04146258 0.01830102 0.01217600 0.00165985 0.00153435 0.00254099 0.01128693 0.00512100 0.02699007 0.00212237 0.00114950 0.02620500 0.01244739 0.00494959 0.00886655 0.00115043 
0.04251981 0.01810895 0.01192630 0.00164996 0.00151337 0.00259965 0.01125199 0.00508586 0.02681795 0.00211833 0.00116889 0.02727153 0.01267600 0.00490172 0.00898678 0.00114801 
0.04361345 0.01795892 0.01166486 0.00164281 0.00149225 0.00265821 0.01120685 0.00505113 0.02663366 0.00211397 0.00118780 0.02838729 0.01290175 0.00485239 0.00910651 0.00114604 
0.04473845 0.01785183 0.01139265 0.00163848 0.00147103 0.00271647 0.01115183 0.00501721 0.02643872 0.00210930 0.00120615 0.02954874 0.01312372 0.00480186 0.00922522 0.00114451 
0.04588976 0.01778839 0.01111069 0.00163701 0.00144972 0.00277424 0.01108726 0.00498449 0.02623464 0.00210434 0.00122387 0.03075212 0.01334097 0.00475035 0.00934241 0.00114342 
0.04706239 0.01776916 0.01082001 0.00163843 0.00142834 0.00283132 0.01101355 0.00495332 0.02602294 0.00209909 0.00124089 0.03199349 0.01355260 0.00469811 0.00945750 0.00114276 
0.04825141 0.01779451 0.01052168 0.00164278 0.00140691 0.00288750 0.01093112 0.00492402 0.02580512 0.00209356 0.00125715 0.03326877 0.01375771 0.00464538 0.00956994 0.00114251 
0.04945198 0.01786465 0.01021680 0.00165007 0.00138547 0.00294260 0.01084045 0.00489691 0.02558263 0.00208775 0.00127259 0.03457367 0.01395544 0.00459238 0.00967915 0.00114264 
0.05065937 0.01797961 0.00990648 0.00166028 0.00136403 0.00299639 0.01074204 0.00487226 0.02535690 0.00208167 0.00128716 0.03590383 0.01414493 0.00453933 0.00978454 0.00114315 
0.05186897 0.01813926 0.00959184 0.00167342 0.00134260 0.00304867 0.01063643 0.00485032 0.02512932 0.00207533 0.00130082 0.03725475 0.01432538 0.00448645 0.00988552 0.00114401 
0.05307631 0.01834330 0.00927402 0.00168946 0.00132122 0.00309925 0.01052419 0.00483130 0.02490121 0.00206874 0.00131353 0.03862185 0.01449603 0.00443394 0.00998148 0.00114518 
0.05427710 0.01859127 0.00895416 0.00170835 0.00129991 0.00314793 0.01040589 0.00481538 0.02467382 0.00206189 0.00132526 0.04000048 0.01465613 0.00438202 0.01007184 0.00114666 
0.05546719 0.01888253 0.00863339 0.00173005 0.00127868 0.00319449 0.01028216 0.00480269 0.02444836 0.00205481 0.00133599 0.04138599 0.01480501 0.00433087 0.01015602 0.00114840 
0.05664265 0.01921630 0.00831285 0.00175449 0.00125755 0.00323876 0.01015363 0.00479335 0.02422594 0.00204749 0.00134570 0.04277367 0.01494205 0.00428067 0.01023345 0.00115037 
0.05779972 0.01959163 0.00799366 0.00178160 0.00123655 0.00328055 0.01002093 0.00478744 0.02400757 0.00203993 0.00135438 0.04415886 0.01506665 0.00423161 0.01030357 0.00115255 
0.05893483 0.02000743 0.00767692 0.00181129 0.00121570 0.00331967 0.00988474 0.00478497 0.02379422 0.00203216 0.00136203 0.04553692 0.01517832 0.00418384 0.01036585 0.00115489 
0.06004466 0.02046247 0.00736372 0.00184346 0.00119502 0.00335595 0.00974570 0.00478594 0.02358671 0.00202417 0.00136865 0.04690328 0.01527659 0.00413752 0.01041979 0.00115737 
0.06112605 0.02095535 0.00705512 0.00187801 0.00117453 0.00338923 0.00960450 0.00479033 0.02338581 0.00201597 0.00137424 0.04825347 0.01536108 0.00409280 0.01046493 0.00115994 
0.06217609 0.02148457 0.00675216 0.00191482 0.00115424 0.00341936 0.00946179 0.00479805 0.02319216 0.00200757 0.00137883 0.04958310 0.01543146 0.00404981 0.01050082 0.00116257 
0.06319208 0.02204849 0.00645585 0.00195376 0.00113419 0.00344618 0.00931825 0.00480898 0.02300631 0.00199899 0.00138243 0.05088797 0.01548748 0.00400867 0.01052708 0.00116523 
0.06417154 0.02264535 0.00616715 0.00199470 0.00111439 0.00346958 0.00917453 0.00482299 0.02282870 0.00199023 0.00138507 0.05216401 0.01552896 0.00396951 0.01054336 0.00116786 
0.06511218 0.02327327 0.00588699 0.00203749 0.00109486 0.00348943 0.00903129 0.00483990 0.02265967 0.00198131 0.00138678 0.05340733 0.01555579 0.00393243 0.01054936 0.00117045 
0.06601195 0.02393027 0.00561626 0.00208199 0.00107562 0.00350562 0.00888916 0.00485950 0.02249944 0.00197224 0.00138759 0.05461428 0.01556793 0.00389751 0.01054483 0.00117294 
0.06686900 0.02461428 0.00535580 0.00212803 0.00105670 0.00351807 0.00874877 0.00488156 0.02234814 0.00196303 0.00138755 0.05578143 0.01556542 0.00386485 0.01052959 0.00117530 
0.06768168 0.02532313 0.00510641 0.00217545 0.00103813 0.00352670 0.00861073 0.00490580 0.02220581 0.00195371 0.00138669 0.05690557 0.01554835 0.00383451 0.01050350 0.00117749 
0.06844853 0.02605456 0.00486883 0.00222410 0.00101992 0.00353145 0.00847561 0.00493195 0.02207235 0.00194429 0.00138507 0.05798380 0.01551691 0.00380657 0.01046651 0.00117947 
0.06916830 0.02680627 0.00464375 0.00227378 0.00100209 0.00353226 0.00834397 0.00495969 0.02194761 0.00193478 0.00138273 0.05901348 0.01547136 0.00378108 0.01041861 0.00118121 
0.06983991 0.02757586 0.00443180 0.00232434 0.00098468 0.00352913 0.00821636 0.00498870 0.02183130 0.00192522 0.00137973 0.05999228 0.01541199 0.00375807 0.01035988 0.00118267 
0.07046246 0.02836090 0.00423357 0.00237560 0.00096771 0.00352203 0.00809326 0.00501863 0.02172308 0.00191563 0.00137612 0.06091818 0.01533920 0.00373759 0.01029044 0.00118382 
0.07103521 0.02915892 0.00404957 0.00242737 0.00095120 0.00351097 0.00797515 0.00504912 0.02162250 0.00190603 0.00137196 0.06178948 0.01525344 0.00371967 0.01021053 0.00118461 
0.07155760 0.02996740 0.00388027 0.00247948 0.00093518 0.00349597 0.00786248 0.00507981 0.02152904 0.00189645 0.00136730 0.06260483 0.01515521 0.00370431 0.01012040 0.00118502 
0.07202919 0.03078381 0.00372605 0.00253175 0.00091969 0.00347708 0.00775564 0.00511031 0.02144212 0.00188692 0.00136221 0.06336320 0.01504509 0.00369154 0.01002043 0.00118501 
0.07244971 0.03160559 0.00358725 0.00258401 0.00090475 0.00345436 0.00765500 0.00514026 0.02136107 0.00187746 0.00135675 0.06406391 0.01492368 0.00368134 0.00991104 0.00118454 
0.07281901 0.03243018 0.00346415 0.00263608 0.00089039 0.00342788 0.00756090 0.00516926 0.02128518 0.00186812 0.00135097 0.06470664 0.01479166 0.00367372 0.00979274 0.00118360 
0.07313708 0.03325504 0.00335694 0.00268778 0.00087665 0.00339773 0.00747361 0.00519694 0.02121368 0.00185893 0.00134493 0.06529141 0.01464976 0.00366867 0.00966609 0.00118215 
0.07340403 0.03407764 0.00326579 0.00273896 0.00086355 0.00336402 0.00739339 0.00522294 0.02114576 0.00184992 0.00133870 0.06581859 0.01449872 0.00366615 0.00953173 0.00118017 
0.07362005 0.03489546 0.00319075 0.00278944 0.00085113 0.00332688 0.00732045 0.00524687 0.02108057 0.00184114 0.00133233 0.06628887 0.01433934 0.00366614 0.00939039 0.00117762 
0.07378548 0.03570604 0.00313185 0.00283907 0.00083943 0.00328646 0.00725495 0.00526840 0.02101723 0.00183262 0.00132587 0.06670332 0.01417245 0.00366861 0.00924284 0.00117448 
0.07390074 0.03650695 0.00308904 0.00288770 0.00082848 0.00324290 0.00719701 0.00528718 0.02095485 0.00182440 0.00131938 0.06706329 0.01399890 0.00367351 0.00908992 0.00117073 
0.07396635 0.03729582 0.00306221 0.00293518 0.00081832 0.00319639 0.00714672 0.00530288 0.02089253 0.00181652 0.00131291 0.06737047 0.01381956 0.00368080 0.00893254 0.00116634 
0.07398291 0.03807034 0.00305118 0.00298136 0.00080898 0.00314711 0.00710410 0.00531522 0.02082935 0.00180903 0.00130651 0.06762685 0.01363533 0.00369043 0.00877163 0.00116131 
0.07395113 0.03882829 0.00305572 0.00302613 0.00080051 0.00309526 0.00706916 0.00532391 0.02076440 0.00180197 0.00130023 0.06783469 0.01344711 0.00370233 0.00860823 0.00115560 
0.07387178 0.03956751 0.00307553 0.00306936 0.00079295 0.00304104 0.00704184 0.00532870 0.02069681 0.00179538 0.00129410 0.06799655 0.01325581 0.00371645 0.00844337 0.00114921 
0.07374574 0.04028595 0.00311027 0.00311092 0.00078632 0.00298469 0.00702206 0.00532936 0.02062569 0.00178931 0.00128818 0.06811522 0.01306232 0.00373272 0.00827816 0.00114211 
0.07357394 0.04098164 0.00315951 0.00315073 0.00078069 0.00292642 0.00700968 0.00532570 0.02055021 0.00178380 0.00128248 0.06819372 0.01286756 0.00375106 0.00811372 0.00113431 
0.07335742 0.04165274 0.00322279 0.00318868 0.00077607 0.00286649 0.00700453 0.00531754 0.02046956 0.00177889 0.00127706 0.06823528 0.01267242 0.00377140 0.00795122 0.00112578 
0.07309730 0.04229751 0.00329960 0.00322468 0.00077252 0.00280515 0.00700640 0.00530476 0.02038299 0.00177463 0.00127193 0.06824332 0.01247776 0.00379365 0.00779184 0.00111652 
0.07279478 0.04291433 0.00338937 0.00325866 0.00077008 0.00274264 0.00701504 0.00528725 0.02028978 0.00177106 0.00126712 0.06822142 0.01228444 0.00381773 0.00763678 0.00110653 
0.07245113 0.04350171 0.00349147 0.00329056 0.00076878 0.00267922 0.00703016 0.00526494 0.02018929 0.00176821 0.00126266 0.06817328 0.01209330 0.00384356 0.00748726 0.00109580 
0.07206773 0.04405828 0.00360524 0.00332031 0.00076866 0.00261517 0.00705145 0.00523782 0.02008092 0.00176613 0.00125855 0.06810273 0.01190513 0.00387103 0.00734448 0.00108434 
0.07164604 0.04458284 0.00372998 0.00334788 0.00076976 0.00255074 0.00707854 0.00520587 0.01996415 0.00176485 0.00125482 0.06801368 0.01172070 0.00390005 0.00720967 0.00107213 
0.07118762 0.04507428 0.00386493 0.00337322 0.00077212 0.00248620 0.00711106 0.00516915 0.01983853 0.00176440 0.00125148 0.06791007 0.01154074 0.00393053 0.00708401 0.00105920 
0.07069412 0.04553169 0.00400930 0.00339632 0.00077577 0.00242183 0.00714859 0.00512774 0.01970370 0.00176482 0.00124852 0.06779589 0.01136593 0.00396236 0.00696868 0.00104554 
0.07016731 0.04595425 0.00416229 0.00341715 0.00078075 0.00235788 0.00719068 0.00508174 0.01955937 0.00176613 0.00124595 0.06767513 0.01119692 0.00399544 0.00686485 0.00103116 
0.06960906 0.04634133 0.00432302 0.00343571 0.00078708 0.00229462 0.00723687 0.00503130 0.01940532 0.00176835 0.00124376 0.06755173 0.01103431 0.00402965 0.00677362 0.00101608 
0.06902132 0.04669244 0.00449063 0.00345201 0.00079480 0.00223230 0.00728668 0.00497662 0.01924146 0.00177151 0.00124196 0.06742961 0.01087862 0.00406489 0.00669607 0.00100031 
0.06840620 0.04700721 0.00466420 0.00346605 0.00080393 0.00217118 0.00733958 0.00491790 0.01906774 0.00177562 0.00124054 0.06731257 0.01073037 0.00410104 0.00663323 0.00098387 
0.06776590 0.04728546 0.00484281 0.00347787 0.00081449 0.00211151 0.00739506 0.00485539 0.01888423 0.00178070 0.00123947 0.06720434 0.01058997 0.00413799 0.00658607 0.00096679 
0.06710275 0.04752713 0.00502551 0.00348748 0.00082650 0.00205352 0.00745257 0.00478939 0.01869110 0.00178674 0.00123875 0.06710850 0.01045782 0.00417561 0.00655550 0.00094908 
0.06641919 0.04773230 0.00521135 0.00349492 0.00083998 0.00199745 0.00751156 0.00472018 0.01848858 0.00179375 0.00123835 0.06702847 0.01033425 0.00421380 0.00654236 0.00093077 
0.06571780 0.04790122 0.00539937 0.00350025 0.00085492 0.00194350 0.00757147 0.00464811 0.01827701 0.00180172 0.00123826 0.06696753 0.01021951 0.00425242 0.00654740 0.00091189 
0.06500127 0.04803424 0.00558858 0.00350351 0.00087135 0.00189189 0.00763173 0.00457355 0.01805681 0.00181065 0.00123846 0.06692872 0.01011381 0.00429135 0.00657131 0.00089247 
0.06427244 0.04813187 0.00577802 0.00350477 0.00088926 0.00184282 0.00769178 0.00449686 0.01782852 0.00182053 0.00123891 0.06691490 0.01001731 0.00433048 0.00661468 0.00087255 
0.06353425 0.04819472 0.00596671 0.00350408 0.00090865 0.00179647 0.00775104 0.00441845 0.01759272 0.00183132 0.00123960 0.06692868 0.00993011 0.00436966 0.00667800 0.00085218 
0.06278977 0.04822354 0.00615370 0.00350151 0.00092950 0.00175300 0.00780894 0.00433874 0.01735010 0.00184300 0.00124048 0.06697244 0.00985223 0.00440878 0.00676168 0.00083138 
0.06204220 0.04821919 0.00633802 0.00349714 0.00095180 0.00171257 0.00786492 0.00425816 0.01710142 0.00185554 0.00124154 0.06704829 0.00978367 0.00444770 0.00686601 0.00081020 
0.06129483 0.04818262 0.00651875 0.00349104 0.00097552 0.00167531 0.00791845 0.00417715 0.01684752 0.00186891 0.00124274 0.06715807 0.00972435 0.00448629 0.00699119 0.00078870 
0.06055110 0.04811489 0.00669497 0.00348329 0.00100064 0.00164136 0.00796896 0.00409617 0.01658932 0.00188305 0.00124405 0.06730337 0.00967416 0.00452444 0.00713729 0.00076692 
0.05981450 0.04801713 0.00686578 0.00347398 0.00102712 0.00161081 0.00801595 0.00401567 0.01632779 0.00189791 0.00124544 0.06748545 0.00963291 0.00456200 0.00730428 0.00074491 
0.05908865 0.04789057 0.00703032 0.00346318 0.00105492 0.00158377 0.00805892 0.00393611 0.01606396 0.00191345 0.00124688 0.06770533 0.00960040 0.00459885 0.00749203 0.00072273 
0.05837725 0.04773649 0.00718775 0.00345098 0.00108399 0.00156029 0.00809737 0.00385793 0.01579894 0.00192959 0.00124833 0.06796369 0.00957637 0.00463486 0.00770028 0.00070044 
0.05768405 0.04755623 0.00733729 0.00343747 0.00111426 0.00154043 0.00813084 0.00378161 0.01553386 0.00194628 0.00124976 0.06826098 0.00956051 0.00466990 0.00792865 0.00067809 
0.05701288 0.04735118 0.00747817 0.00342273 0.00114569 0.00152425 0.00815892 0.00370758 0.01526991 0.00196344 0.00125115 0.06859730 0.00955248 0.00470385 0.00817666 0.00065575 
0.05636760 0.04712277 0.00760968 0.00340684 0.00117819 0.00151175 0.00818120 0.00363627 0.01500831 0.00198100 0.00125246 0.06897251 0.00955192 0.00473658 0.00844371 0.00063348 
0.05575210 0.04687245 0.00773116 0.00338988 0.00121170 0.00150294 0.00819732 0.00356810 0.01475032 0.00199887 0.00125366 0.06938618 0.00955842 0.00476798 0.00872908 0.00061134 
0.05517029 0.04660168 0.00784199 0.00337194 0.00124612 0.00149781 0.00820693 0.00350348 0.01449722 0.00201697 0.00125474 0.06983761 0.00957156 0.00479792 0.00903194 0.00058941 
0.05462604 0.04631193 0.00794162 0.00335308 0.00128136 0.00149633 0.00820975 0.00344280 0.01425030 0.00203523 0.00125566 0.07032585 0.00959088 0.00482629 0.00935138 0.00056775 
0.05412324 0.04600467 0.00802954 0.00333339 0.00131734 0.00149847 0.00820552 0.00338641 0.01401086 0.00205353 0.00125640 0.07084969 0.00961592 0.00485298 0.00968636 0.00054642 
0.05366568 0.04568134 0.00810532 0.00331293 0.00135393 0.00150415 0.00819403 0.00333466 0.01378021 0.00207181 0.00125694 0.07140771 0.00964620 0.00487788 0.01003573 0.00052549 
0.05325710 0.04534336 0.00816857 0.00329177 0.00139104 0.00151331 0.00817511 0.00328785 0.01355965 0.00208996 0.00125726 0.07199825 0.00968122 0.00490089 0.01039829 0.00050504 
0.05290117 0.04499211 0.00821899 0.00326997 0.00142855 0.00152586 0.00814864 0.00324627 0.01335048 0.00210789 0.00125736 0.07261946 0.00972048 0.00492191 0.01077271 0.00048513 
0.05260139 0.04462893 0.00825633 0.00324759 0.00146634 0.00154169 0.00811453 0.00321017 0.01315396 0.00212551 0.00125721 0.07326931 0.00976350 0.00494086 0.01115760 0.00046584 
0.05236117 0.04425511 0.00828041 0.00322468 0.00150428 0.00156070 0.00807277 0.00317978 0.01297135 0.00214272 0.00125680 0.07394561 0.00980976 0.00495764 0.01155149 0.00044722 
0.05218371 0.04387186 0.00829114 0.00320129 0.00154225 0.00158275 0.00802336 0.00315528 0.01280386 0.00215944 0.00125613 0.07464602 0.00985878 0.00497219 0.01195284 0.00042934 
0.05207205 0.04348034 0.00828847 0.00317747 0.00158011 0.00160772 0.00796638 0.00313683 0.01265267 0.00217558 0.00125520 0.07536807 0.00991008 0.00498444 0.01236005 0.00041227 
0.05202899 0.04308163 0.00827245 0.00315325 0.00161773 0.00163545 0.00790194 0.00312453 0.01251891 0.00219104 0.00125401 0.07610921 0.00996319 0.00499432 0.01277148 0.00039607 
0.05205712 0.04267673 0.00824319 0.00312866 0.00165498 0.00166579 0.00783023 0.00311848 0.01240367 0.00220576 0.00125255 0.07686678 0.01001766 0.00500179 0.01318543 0.00038080 
0.05215873 0.04226656 0.00820088 0.00310375 0.00169171 0.00169858 0.00775145 0.00311872 0.01230798 0.00221964 0.00125084 0.07763806 0.01007305 0.00500680 0.01360019 0.00036652 
0.05233585 0.04185193 0.00814578 0.00307853 0.00172779 0.00173366 0.00766587 0.00312525 0.01223281 0.00223262 0.00124888 0.07842033 0.01012896 0.00500932 0.01401400 0.00035329 
0.05259020 0.04143359 0.00807821 0.00305302 0.00176308 0.00177084 0.00757382 0.00313805 0.01217905 0.00224463 0.00124669 0.07921079 0.01018501 0.00500934 0.01442511 0.00034114 
0.05292314 0.04101218 0.00799857 0.00302724 0.00179745 0.00180995 0.00747566 0.00315706 0.01214755 0.00225562 0.00124428 0.08000669 0.01024082 0.00500683 0.01483174 0.00033015 
0.05333570 0.04058825 0.00790734 0.00300121 0.00183075 0.00185080 0.00737180 0.00318217 0.01213904 0.00226552 0.00124168 0.08080528 0.01029609 0.00500181 0.01523215 0.00032033 
0.05382855 0.04016226 0.00780506 0.00297493 0.00186287 0.00189323 0.00726271 0.00321325 0.01215422 0.00227429 0.00123891 0.08160385 0.01035052 0.00499428 0.01562459 0.00031175 
0.05440195 0.03973457 0.00769231 0.00294842 0.00189367 0.00193703 0.00714888 0.00325013 0.01219367 0.00228190 0.00123599 0.08239974 0.01040385 0.00498427 0.01600734 0.00030442 
0.05505577 0.03930547 0.00756977 0.00292169 0.00192303 0.00198203 0.00703087 0.00329262 0.01225791 0.00228832 0.00123296 0.08319038 0.01045584 0.00497183 0.01637873 0.00029839 
0.05578945 0.03887513 0.00743816 0.00289472 0.00195084 0.00202804 0.00690925 0.00334049 0.01234734 0.00229352 0.00122984 0.08397328 0.01050632 0.00495699 0.01673713 0.00029367 
0.05660201 0.03844369 0.00729824 0.00286753 0.00197698 0.00207488 0.00678466 0.00339348 0.01246230 0.00229751 0.00122668 0.08474605 0.01055512 0.00493983 0.01708095 0.00029030 
0.05749204 0.03801117 0.00715085 0.00284013 0.00200136 0.00212238 0.00665774 0.00345131 0.01260303 0.00230028 0.00122351 0.08550643 0.01060213 0.00492041 0.01740869 0.00028827 
0.05845766 0.03757755 0.00699687 0.00281251 0.00202389 0.00217036 0.00652918 0.00351368 0.01276965 0.00230184 0.00122036 0.08625227 0.01064726 0.00489885 0.01771892 0.00028761 
0.05949656 0.03714273 0.00683720 0.00278467 0.00204448 0.00221865 0.00639969 0.00358026 0.01296221 0.00230221 0.00121730 0.08698159 0.01069048 0.00487522 0.01801028 0.00028831 
0.06060599 0.03670656 0.00667279 0.00275663 0.00206306 0.00226710 0.00627002 0.00365071 0.01318065 0.00230144 0.00121435 0.08769253 0.01073178 0.00484967 0.01828151 0.00029038 
0.06178272 0.03626886 0.00650465 0.00272838 0.00207956 0.00231554 0.00614092 0.00372467 0.01342482 0.00229956 0.00121157 0.08838340 0.01077117 0.00482230 0.01853147 0.00029381 
0.06302309 0.03582939 0.00633377 0.00269995 0.00209395 0.00236383 0.00601316 0.00380177 0.01369446 0.00229664 0.00120900 0.08905266 0.01080871 0.00479328 0.01875910 0.00029858 
0.06432302 0.03538791 0.00616120 0.00267133 0.00210619 0.00241183 0.00588755 0.00388163 0.01398923 0.00229272 0.00120670 0.08969895 0.01084451 0.00476275 0.01896348 0.00030467 
0.06567796 0.03494413 0.00598797 0.00264255 0.00211624 0.00245940 0.00576486 0.00396386 0.01430868 0.00228790 0.00120471 0.09032106 0.01087867 0.00473089 0.01914378 0.00031207 
0.06708297 0.03449779 0.00581516 0.00261362 0.00212411 0.00250642 0.00564590 0.00404808 0.01465226 0.00228226 0.00120309 0.09091797 0.01091136 0.00469788 0.01929932 0.00032073 
0.06853271 0.03404862 0.00564383 0.00258457 0.00212981 0.00255278 0.00553147 0.00413389 0.01501932 0.00227590 0.00120190 0.09148882 0.01094273 0.00466391 0.01942956 0.00033063 
0.07002145 0.03359636 0.00547503 0.00255544 0.00213334 0.00259837 0.00542237 0.00422091 0.01540915 0.00226891 0.00120117 0.09203290 0.01097300 0.00462919 0.01953408 0.00034172 
0.07154309 0.03314079 0.00530983 0.00252625 0.00213475 0.00264310 0.00531938 0.00430875 0.01582090 0.00226143 0.00120097 0.09254970 0.01100238 0.00459393 0.01961260 0.00035396 
0.07309119 0.03268173 0.00514925 0.00249704 0.00213409 0.00268689 0.00522326 0.00439706 0.01625367 0.00225357 0.00120135 0.09303883 0.01103111 0.00455836 0.01966499 0.00036731 
0.07465903 0.03221903 0.00499432 0.00246787 0.00213143 0.00272965 0.00513478 0.00448547 0.01670646 0.00224546 0.00120236 0.09350009 0.01105946 0.00452271 0.01969126 0.00038169 
0.07623956 0.03175262 0.00484603 0.00243879 0.00212684 0.00277133 0.00505465 0.00457363 0.01717818 0.00223724 0.00120405 0.09393341 0.01108767 0.00448724 0.01969156 0.00039707 
0.07782551 0.03128250 0.00470534 0.00240986 0.00212044 0.00281187 0.00498358 0.00466123 0.01766766 0.00222907 0.00120646 0.09433886 0.01111605 0.00445219 0.01966621 0.00041337 
0.07940937 0.03080873 0.00457318 0.00238115 0.00211232 0.00285123 0.00492225 0.00474796 0.01817367 0.00222108 0.00120966 0.09471665 0.01114486 0.00441782 0.01961564 0.00043052 
0.08098347 0.03033149 0.00445041 0.00235273 0.00210263 0.00288936 0.00487128 0.00483354 0.01869490 0.00221343 0.00121368 0.09506711 0.01117441 0.00438439 0.01954045 0.00044847 
0.08253996 0.02985104 0.00433787 0.00232469 0.00209150 0.00292625 0.00483126 0.00491771 0.01922995 0.00220629 0.00121856 0.09539070 0.01120497 0.00435217 0.01944136 0.00046714 
0.08407091 0.02936775 0.00423632 0.00229711 0.00207910 0.00296188 0.00480274 0.00500025 0.01977739 0.00219981 0.00122435 0.09568795 0.01123685 0.00432144 0.01931925 0.00048646 
0.08556831 0.02888209 0.00414650 0.00227010 0.00206558 0.00299623 0.00478623 0.00508096 0.02033570 0.00219415 0.00123108 0.09595953 0.01127033 0.00429247 0.01917512 0.00050635 
0.08702413 0.02839467 0.00406904 0.00224375 0.00205115 0.00302931 0.00478218 0.00515967 0.02090334 0.00218949 0.00123879 0.09620617 0.01130568 0.00426553 0.01901010 0.00052675 
0.08843035 0.02790622 0.00400453 0.00221817 0.00203599 0.00306112 0.00479097 0.00523625 0.02147868 0.00218597 0.00124751 0.09642868 0.01134317 0.00424091 0.01882543 0.00054756 
0.08977900 0.02741759 0.00395348 0.00219348 0.00202031 0.00309168 0.00481295 0.00531059 0.02206009 0.00218376 0.00125727 0.09662794 0.01138306 0.00421886 0.01862249 0.00056873 
0.09106222 0.02692976 0.00391633 0.00216979 0.00200432 0.00312100 0.00484840 0.00538263 0.02264588 0.00218302 0.00126809 0.09680488 0.01142558 0.00419967 0.01840276 0.00059017 
0.09227231 0.02644385 0.00389343 0.00214725 0.00198827 0.00314911 0.00489752 0.00545233 0.02323432 0.00218390 0.00127999 0.09696047 0.01147096 0.00418361 0.01816781 0.00061181 
0.09340174 0.02596111 0.00388507 0.00212596 0.00197236 0.00317603 0.00496048 0.00551970 0.02382367 0.00218655 0.00129299 0.09709574 0.01151940 0.00417092 0.01791933 0.00063358 
0.09444320 0.02548292 0.00389144 0.00210607 0.00195686 0.00320181 0.00503735 0.00558478 0.02441217 0.00219111 0.00130709 0.09721173 0.01157107 0.00416187 0.01765905 0.00065540 
0.09538969 0.02501080 0.00391264 0.00208772 0.00194199 0.00322648 0.00512816 0.00564763 0.02499804 0.00219771 0.00132230 0.09730949 0.01162615 0.00415670 0.01738882 0.00067721 
0.09623449 0.02454639 0.00394870 0.00207103 0.00192801 0.00325007 0.00523285 0.00570837 0.02557952 0.00220647 0.00133862 0.09739011 0.01168474 0.00415564 0.01711052 0.00069895 
0.09697126 0.02409146 0.00399957 0.00205616 0.00191517 0.00327263 0.00535131 0.00576713 0.02615480 0.00221753 0.00135606 0.09745466 0.01174697 0.00415892 0.01682611 0.00072054 
0.09759403 0.02364787 0.00406509 0.00204325 0.00190371 0.00329421 0.00548335 0.00582409 0.02672214 0.00223097 0.00137458 0.09750422 0.01181291 0.00416675 0.01653756 0.00074194 
0.09809729 0.02321763 0.00414503 0.00203243 0.00189389 0.00331484 0.00562872 0.00587945 0.02727978 0.00224689 0.00139420 0.09753986 0.01188261 0.00417932 0.01624691 0.00076308 
0.09847598 0.02280283 0.00423907 0.00202384 0.00188594 0.00333457 0.00578709 0.00593344 0.02782598 0.00226538 0.00141487 0.09756263 0.01195609 0.00419683 0.01595617 0.00078393 
0.09872554 0.02240564 0.00434681 0.00201763 0.00188011 0.00335344 0.00595808 0.00598633 0.02835905 0.00228651 0.00143658 0.09757357 0.01203335 0.00421942 0.01566741 0.00080442 
0.09884193 0.02202833 0.00446777 0.00201392 0.00187663 0.00337150 0.00614123 0.00603839 0.02887734 0.00231032 0.00145930 0.09757370 0.01211433 0.00424724 0.01538265 0.00082452 
0.09882168 0.02167324 0.00460138 0.00201284 0.00187572 0.00338879 0.00633604 0.00608994 0.02937922 0.00233686 0.00148299 0.09756401 0.01219899 0.00428043 0.01510392 0.00084419 
0.09866191 0.02134276 0.00474701 0.00201453 0.00187760 0.00340534 0.00654191 0.00614130 0.02986313 0.00236615 0.00150760 0.09754545 0.01228721 0.00431909 0.01483322 0.00086341 
0.09836033 0.02103932 0.00490394 0.00201909 0.00188247 0.00342118 0.00675823 0.00619282 0.03032757 0.00239820 0.00153310 0.09751898 0.01237889 0.00436329 0.01457249 0.00088214 
0.09791528 0.02076538 0.00507141 0.00202665 0.00189051 0.00343636 0.00698430 0.00624486 0.03077111 0.00243301 0.00155943 0.09748548 0.01247385 0.00441311 0.01432365 0.00090037 
0.09732574 0.02052343 0.00524855 0.00203729 0.00190190 0.00345089 0.00721939 0.00629779 0.03119237 0.00247055 0.00158654 0.09744583 0.01257194 0.00446857 0.01408852 0.00091808 
0.09659135 0.02031593 0.00543447 0.00205112 0.00191680 0.00346480 0.00746270 0.00635199 0.03159009 0.00251079 0.00161435 0.09740088 0.01267294 0.00452969 0.01386888 0.00093526 
0.09571239 0.02014533 0.00562821 0.00206823 0.00193535 0.00347812 0.00771341 0.00640784 0.03196306 0.00255366 0.00164282 0.09735143 0.01277663 0.00459647 0.01366639 0.00095190 
0.09468984 0.02001407 0.00582877 0.00208867 0.00195766 0.00349085 0.00797066 0.00646574 0.03231018 0.00259910 0.00167186 0.09729825 0.01288275 0.00466884 0.01348264 0.00096802 
0.09352533 0.01992449 0.00603509 0.00211252 0.00198382 0.00350301 0.00823352 0.00652605 0.03263045 0.00264702 0.00170141 0.09724210 0.01299104 0.00474676 0.01331910 0.00098361 
0.09222116 0.01987890 0.00624608 0.00213981 0.00201393 0.00351460 0.00850109 0.00658917 0.03292297 0.00269731 0.00173138 0.09718368 0.01310121 0.00483013 0.01317714 0.00099869 
0.09078030 0.01987950 0.00646062 0.00217059 0.00204802 0.00352563 0.00877239 0.00665545 0.03318695 0.00274985 0.00176169 0.09712369 0.01321295 0.00491882 0.01305799 0.00101327 
0.08920638 0.01992839 0.00667758 0.00220488 0.00208612 0.00353609 0.00904645 0.00672527 0.03342172 0.00280450 0.00179226 0.09706277 0.01332595 0.00501269 0.01296275 0.00102736 
0.08750368 0.02002755 0.00689578 0.00224267 0.00212824 0.00354597 0.00932227 0.00679894 0.03362672 0.00286112 0.00182300 0.09700156 0.01343987 0.00511155 0.01289239 0.00104100 
0.08567709 0.02017880 0.00711406 0.00228396 0.00217436 0.00355527 0.00959886 0.00687681 0.03380150 0.00291953 0.00185383 0.09694066 0.01355438 0.00521521 0.01284773 0.00105422 
0.08373213 0.02038384 0.00733124 0.00232873 0.00222442 0.00356395 0.00987521 0.00695916 0.03394578 0.00297956 0.00188464 0.09688065 0.01366912 0.00532343 0.01282945 0.00106703 
0.08167490 0.02064416 0.00754614 0.00237693 0.00227835 0.00357201 0.01015032 0.00704626 0.03405935 0.00304102 0.00191535 0.09682206 0.01378374 0.00543595 0.01283804 0.00107949 
0.07951207 0.02096108 0.00775760 0.00242850 0.00233604 0.00357941 0.01042318 0.00713837 0.03414218 0.00310368 0.00194585 0.09676544 0.01389790 0.00555248 0.01287387 0.00109161 
0.07725086 0.02133571 0.00796447 0.00248337 0.00239737 0.00358614 0.01069281 0.00723568 0.03419433 0.00316735 0.00197606 0.09671127 0.01401122 0.00567270 0.01293712 0.00110345 
0.07489898 0.02176895 0.00816564 0.00254144 0.00246218 0.00359215 0.01095825 0.00733838 0.03421602 0.00323179 0.00200588 0.09666003 0.01412337 0.00579628 0.01302783 0.00111503 
0.07246463 0.02226147 0.00835999 0.00260261 0.00253028 0.00359741 0.01121855 0.00744660 0.03420760 0.00329677 0.00203521 0.09661218 0.01423400 0.00592286 0.01314584 0.00112641 
0.06995643 0.02281370 0.00854649 0.00266675 0.00260147 0.00360189 0.01147278 0.00756044 0.03416953 0.00336203 0.00206395 0.09656813 0.01434277 0.00605204 0.01329086 0.00113762 
0.06738344 0.02342579 0.00872411 0.00273372 0.00267550 0.00360555 0.01172007 0.00767997 0.03410242 0.00342733 0.00209201 0.09652829 0.01444935 0.00618341 0.01346242 0.00114871 
0.06475504 0.02409768 0.00889188 0.00280337 0.00275213 0.00360835 0.01195957 0.00780519 0.03400699 0.00349241 0.00211929 0.09649303 0.01455342 0.00631654 0.01365987 0.00115972 
0.06208096 0.02482900 0.00904891 0.00287551 0.00283106 0.00361024 0.01219045 0.00793607 0.03388410 0.00355700 0.00214570 0.09646269 0.01465469 0.00645097 0.01388243 0.00117068 
0.05937121 0.02561912 0.00919434 0.00294997 0.00291200 0.00361120 0.01241197 0.00807254 0.03373473 0.00362084 0.00217116 0.09643758 0.01475286 0.00658624 0.01412915 0.00118163 
0.05663600 0.02646715 0.00932739 0.00302653 0.00299461 0.00361118 0.01262340 0.00821447 0.03355997 0.00368366 0.00219557 0.09641799 0.01484767 0.00672186 0.01439893 0.00119263 
0.05388578 0.02737188 0.00944734 0.00310498 0.00307855 0.00361015 0.01282408 0.00836170 0.03336101 0.00374520 0.00221884 0.09640417 0.01493888 0.00685733 0.01469052 0.00120369 
0.05113111 0.02833185 0.00955356 0.00318510 0.00316346 0.00360806 0.01301341 0.00851399 0.03313916 0.00380518 0.00224091 0.09639633 0.01502626 0.00699214 0.01500254 0.00121486 
0.04838264 0.02934530 0.00964549 0.00326663 0.00324895 0.00360489 0.01319082 0.00867109 0.03289583 0.00386334 0.00226169 0.09639466 0.01510961 0.00712575 0.01533347 0.00122616 
0.04565110 0.03041020 0.00972264 0.00334933 0.00333463 0.00360060 0.01335582 0.00883268 0.03263253 0.00391941 0.00228111 0.09639930 0.01518874 0.00725765 0.01568169 0.00123762 
0.04294719 0.03152425 0.00978463 0.00343294 0.00342010 0.00359517 0.01350800 0.00899840 0.03235082 0.00397314 0.00229910 0.09641036 0.01526350 0.00738730 0.01604544 0.00124926 
0.04028157 0.03268485 0.00983115 0.00351717 0.00350494 0.00358857 0.01364698 0.00916784 0.03205237 0.00402429 0.00231560 0.09642791 0.01533377 0.00751415 0.01642286 0.00126111 
0.03766483 0.03388918 0.00986198 0.00360176 0.00358872 0.00358079 0.01377245 0.00934055 0.03173891 0.00407259 0.00233055 0.09645197 0.01539943 0.00763767 0.01681203 0.00127317 
0.03510738 0.03513413 0.00987699 0.00368642 0.00367102 0.00357182 0.01388418 0.00951604 0.03141223 0.00411783 0.00234390 0.09648253 0.01546042 0.00775733 0.01721091 0.00128547 
0.03261947 0.03641636 0.00987615 0.00377084 0.00375141 0.00356164 0.01398201 0.00969377 0.03107415 0.00415978 0.00235560 0.09651954 0.01551668 0.00787259 0.01761742 0.00129801 
0.03021112 0.03773232 0.00985950 0.00385475 0.00382945 0.00355026 0.01406581 0.00987317 0.03072654 0.00419822 0.00236562 0.09656290 0.01556819 0.00798293 0.01802940 0.00131078 
0.02789205 0.03907821 0.00982719 0.00393784 0.00390472 0.00353767 0.01413556 0.01005363 0.03037132 0.00423296 0.00237392 0.09661249 0.01561494 0.00808784 0.01844467 0.00132379 
0.02567168 0.04045004 0.00977944 0.00401981 0.00397678 0.00352391 0.01419126 0.01023452 0.03001039 0.00426382 0.00238047 0.09666812 0.01565696 0.00818684 0.01886101 0.00133704 
0.02355907 0.04184366 0.00971659 0.00410037 0.00404523 0.00350897 0.01423301 0.01041518 0.02964569 0.00429061 0.00238526 0.09672958 0.01569430 0.00827944 0.01927619 0.00135050 
0.02156287 0.04325473 0.00963903 0.00417921 0.00410966 0.00349289 0.01426094 0.01059490 0.02927914 0.00431319 0.00238828 0.09679664 0.01572703 0.00836518 0.01968797 0.00136417 
0.01969132 0.04467877 0.00954725 0.00425604 0.00416967 0.00347571 0.01427526 0.01077297 0.02891265 0.00433143 0.00238951 0.09686900 0.01575524 0.00844363 0.02009412 0.00137802 
0.01795216 0.04611118 0.00944182 0.00433058 0.00422489 0.00345746 0.01427624 0.01094867 0.02854810 0.00434520 0.00238896 0.09694637 0.01577903 0.00851439 0.02049244 0.00139203 
0.01635263 0.04754725 0.00932337 0.00440254 0.00427495 0.00343820 0.01426417 0.01112126 0.02818735 0.00435440 0.00238665 0.09702841 0.01579855 0.00857708 0.02088077 0.00140618 
0.01489945 0.04898219 0.00919261 0.00447165 0.00431952 0.00341797 0.01423943 0.01128997 0.02783220 0.00435896 0.00238258 0.09711476 0.01581394 0.00863135 0.02125701 0.00142042 
0.01359877 0.05041117 0.00905034 0.00453764 0.00435827 0.00339686 0.01420243 0.01145407 0.02748440 0.00435881 0.00237678 0.09720506 0.01582535 0.00867689 0.02161912 0.00143472 
0.01245614 0.05182930 0.00889738 0.00460025 0.00439091 0.00337492 0.01415361 0.01161279 0.02714562 0.00435391 0.00236928 0.09729893 0.01583296 0.00871344 0.02196512 0.00144904 
0.01147652 0.05323170 0.00873463 0.00465923 0.00441718 0.00335224 0.01409348 0.01176540 0.02681749 0.00434426 0.00236011 0.09739598 0.01583695 0.00874076 0.02229316 0.00146335 
0.01066422 0.05461350 0.00856305 0.00471436 0.00443684 0.00332891 0.01402256 0.01191115 0.02650152 0.00432984 0.00234934 0.09749583 0.01583750 0.00875867 0.02260146 0.00147759 
0.01002290 0.05596988 0.00838362 0.00476542 0.00444969 0.00330502 0.01394142 0.01204933 0.02619914 0.00431069 0.00233699 0.09759811 0.01583481 0.00876701 0.02288838 0.00149172 
0.00955557 0.05729607 0.00819737 0.00481219 0.00445554 0.00328067 0.01385065 0.01217924 0.02591169 0.00428685 0.00232313 0.09770245 0.01582909 0.00876570 0.02315238 0.00150569 
0.00926455 0.05858740 0.00800536 0.00485450 0.00445427 0.00325597 0.01375087 0.01230021 0.02564038 0.00425840 0.00230783 0.09780853 0.01582051 0.00875468 0.02339208 0.00151945 
0.00915147 0.05983932 0.00780868 0.00489217 0.00444576 0.00323103 0.01364270 0.01241162 0.02538633 0.00422541 0.00229115 0.09791604 0.01580929 0.00873396 0.02360624 0.00153295 
0.00921730 0.06104741 0.00760844 0.00492505 0.00442995 0.00320596 0.01352681 0.01251284 0.02515052 0.00418802 0.00227317 0.09802472 0.01579561 0.00870358 0.02379376 0.00154613 
0.00946229 0.06220741 0.00740574 0.00495299 0.00440681 0.00318090 0.01340386 0.01260333 0.02493381 0.00414634 0.00225397 0.09813435 0.01577965 0.00866367 0.02395371 0.00155895 
0.00988600 0.06331526 0.00720171 0.00497589 0.00437635 0.00315596 0.01327451 0.01268256 0.02473694 0.00410054 0.00223363 0.09824476 0.01576159 0.00861438 0.02408533 0.00157134 
0.01048730 0.06436709 0.00699746 0.00499364 0.00433862 0.00313127 0.01313944 0.01275007 0.02456050 0.00405078 0.00221224 0.09835584 0.01574160 0.00855592 0.02418802 0.00158327 
0.01126438 0.06535927 0.00679409 0.00500617 0.00429369 0.00310698 0.01299932 0.01280546 0.02440497 0.00399727 0.00218990 0.09846757 0.01571983 0.00848856 0.02426137 0.00159468 
0.01221475 0.06628842 0.00659270 0.00501341 0.00424170 0.00308320 0.01285483 0.01284836 0.02427066 0.00394021 0.00216669 0.09857996 0.01569642 0.00841263 0.02430515 0.00160552 
0.01333527 0.06715140 0.00639435 0.00501533 0.00418281 0.00306009 0.01270661 0.01287848 0.02415777 0.00387983 0.00214273 0.09869315 0.01567148 0.00832850 0.02431928 0.00161575 
0.01462212 0.06794539 0.00620006 0.00501192 0.00411723 0.00303776 0.01255533 0.01289560 0.02406634 0.00381639 0.00211810 0.09880732 0.01564513 0.00823660 0.02430391 0.00162531 
0.01607088 0.06866783 0.00601085 0.00500317 0.00404518 0.00301637 0.01240161 0.01289955 0.02399629 0.00375014 0.00209292 0.09892277 0.01561745 0.00813743 0.02425932 0.00163418 
0.01767649 0.06931649 0.00582766 0.00498911 0.00396696 0.00299604 0.01224606 0.01289025 0.02394739 0.00368137 0.00206729 0.09903987 0.01558851 0.00803150 0.02418601 0.00164230 
0.01943332 0.06988946 0.00565140 0.00496979 0.00388288 0.00297690 0.01208930 0.01286767 0.02391929 0.00361036 0.00204131 0.09915911 0.01555835 0.00791940 0.02408463 0.00164965 
0.02133514 0.07038516 0.00548292 0.00494526 0.00379328 0.00295909 0.01193187 0.01283187 0.02391151 0.00353741 0.00201510 0.09928106 0.01552700 0.00780177 0.02395600 0.00165619 
0.02337521 0.07080235 0.00532301 0.00491561 0.00369855 0.00294274 0.01177434 0.01278298 0.02392343 0.00346285 0.00198875 0.09940639 0.01549447 0.00767927 0.02380113 0.00166190 
0.02554627 0.07114014 0.00517240 0.00488094 0.00359910 0.00292796 0.01161722 0.01272120 0.02395433 0.00338699 0.00196237 0.09953588 0.01546075 0.00755261 0.02362115 0.00166675 
0.02784055 0.07139797 0.00503176 0.00484137 0.00349538 0.00291487 0.01146100 0.01264680 0.02400337 0.00331016 0.00193608 0.09967038 0.01542579 0.00742257 0.02341738 0.00167072 
0.03024985 0.07157567 0.00490167 0.00479705 0.00338784 0.00290359 0.01130614 0.01256014 0.02406960 0.00323269 0.00190996 0.09981086 0.01538955 0.00728991 0.02319124 0.00167379 
0.03276556 0.07167338 0.00478263 0.00474812 0.00327700 0.00289421 0.01115307 0.01246165 0.02415197 0.00315494 0.00188412 0.09995837 0.01535195 0.00715546 0.02294433 0.00167596 
0.03537867 0.07169161 0.00467510 0.00469476 0.00316337 0.00288684 0.01100218 0.01235183 0.02424934 0.00307723 0.00185865 0.10011403 0.01531289 0.00702006 0.02267833 0.00167722 
0.03807982 0.07163123 0.00457941 0.00463716 0.00304748 0.00288158 0.01085384 0.01223124 0.02436049 0.00299992 0.00183366 0.10027905 0.01527228 0.00688459 0.02239505 0.00167757 
0.04085935 0.07149342 0.00449585 0.00457552 0.00292990 0.00287849 0.01070836 0.01210053 0.02448411 0.00292335 0.00180923 0.10045471 0.01522998 0.00674994 0.02209638 0.00167700 
0.04370733 0.07127971 0.00442459 0.00451005 0.00281119 0.00287765 0.01056606 0.01196039 0.02461886 0.00284784 0.00178544 0.10064234 0.01518585 0.00661699 0.02178432 0.00167553 
0.04661359 0.07099194 0.00436575 0.00444099 0.00269194 0.00287912 0.01042720 0.01181160 0.02476331 0.00277375 0.00176239 0.10084332 0.01513976 0.00648666 0.02146092 0.00167316 
0.04956777 0.07063227 0.00431933 0.00436857 0.00257273 0.00288297 0.01029200 0.01165496 0.02491599 0.00270140 0.00174014 0.10105906 0.01509153 0.00635987 0.02112828 0.00166993 
0.05255936 0.07020316 0.00428528 0.00429304 0.00245415 0.00288922 0.01016066 0.01149137 0.02507541 0.00263110 0.00171878 0.10129100 0.01504101 0.00623752 0.02078856 0.00166583 
0.05557775 0.06970734 0.00426344 0.00421467 0.00233682 0.00289791 0.01003337 0.01132175 0.02524005 0.00256317 0.00169835 0.10154059 0.01498801 0.00612051 0.02044394 0.00166091 
0.05861224 0.06914780 0.00425357 0.00413371 0.00222131 0.00290907 0.00991025 0.01114706 0.02540836 0.00249792 0.00167893 0.10180927 0.01493237 0.00600974 0.02009659 0.00165518 
0.06165211 0.06852779 0.00425537 0.00405045 0.00210823 0.00292270 0.00979142 0.01096831 0.02557879 0.00243562 0.00166058 0.10209845 0.01487391 0.00590607 0.01974871 0.00164869 
0.06468665 0.06785079 0.00426844 0.00396517 0.00199815 0.00293879 0.00967697 0.01078655 0.02574982 0.00237655 0.00164333 0.10240949 0.01481245 0.00581034 0.01940244 0.00164146 
0.06770521 0.06712046 0.00429232 0.00387814 0.00189164 0.00295733 0.00956697 0.01060284 0.02591990 0.00232097 0.00162722 0.10274373 0.01474782 0.00572337 0.01905993 0.00163354 
0.07069723 0.06634068 0.00432646 0.00378965 0.00178927 0.00297830 0.00946146 0.01041826 0.02608755 0.00226911 0.00161231 0.10310239 0.01467987 0.00564595 0.01872324 0.00162496 
0.07365227 0.06551546 0.00437027 0.00370000 0.00169157 0.00300166 0.00936045 0.01023391 0.02625129 0.00222120 0.00159860 0.10348661 0.01460843 0.00557880 0.01839438 0.00161578 
0.07656006 0.06464898 0.00442306 0.00360948 0.00159905 0.00302735 0.00926396 0.01005090 0.02640970 0.00217744 0.00158613 0.10389743 0.01453337 0.00552262 0.01807529 0.00160603 
0.07941056 0.06374550 0.00448412 0.00351837 0.00151222 0.00305531 0.00917196 0.00987033 0.02656140 0.00213800 0.00157490 0.10433574 0.01445455 0.00547805 0.01776781 0.00159577 
0.08219395 0.06280939 0.00455266 0.00342696 0.00143154 0.00308548 0.00908444 0.00969330 0.02670508 0.00210305 0.00156493 0.10480227 0.01437187 0.00544567 0.01747368 0.00158506 
0.08490069 0.06184511 0.00462784 0.00333554 0.00135745 0.00311775 0.00900134 0.00952089 0.02683949 0.00207273 0.00155622 0.10529760 0.01428523 0.00542600 0.01719450 0.00157393 
0.08752157 0.06085711 0.00470879 0.00324440 0.00129034 0.00315204 0.00892263 0.00935416 0.02696345 0.00204713 0.00154876 0.10582212 0.01419456 0.00541950 0.01693178 0.00156245 
0.09004770 0.05984991 0.00479461 0.00315381 0.00123060 0.00318824 0.00884824 0.00919413 0.02707587 0.00202636 0.00154254 0.10637598 0.01409980 0.00542655 0.01668685 0.00155067 
0.09247058 0.05882798 0.00488433 0.00306404 0.00117856 0.00322624 0.00877810 0.00904180 0.02717573 0.00201047 0.00153755 0.10695916 0.01400094 0.00544747 0.01646093 0.00153864 
0.09478213 0.05779580 0.00497701 0.00297536 0.00113451 0.00326589 0.00871216 0.00889811 0.02726210 0.00199950 0.00153374 0.10757137 0.01389796 0.00548249 0.01625505 0.00152642 
0.09697466 0.05675776 0.00507165 0.00288803 0.00109870 0.00330708 0.00865033 0.00876396 0.02733416 0.00199346 0.00153111 0.10821206 0.01379090 0.00553176 0.01607011 0.00151406 
0.09904097 0.05571822 0.00516725 0.00280230 0.00107134 0.00334964 0.00859255 0.00864021 0.02739117 0.00199234 0.00152961 0.10888045 0.01367979 0.00559537 0.01590681 0.00150161 
0.10097434 0.05468139 0.00526281 0.00271841 0.00105260 0.00339344 0.00853874 0.00852761 0.02743249 0.00199611 0.00152920 0.10957546 0.01356473 0.00567329 0.01576570 0.00148914 
0.10276853 0.05365140 0.00535733 0.00263659 0.00104260 0.00343830 0.00848882 0.00842689 0.02745759 0.00200469 0.00152983 0.11029574 0.01344582 0.00576542 0.01564715 0.00147668 
0.10441785 0.05263224 0.00544982 0.00255706 0.00104142 0.00348407 0.00844274 0.00833868 0.02746604 0.00201800 0.00153146 0.11103963 0.01332319 0.00587160 0.01555133 0.00146430 
0.10591712 0.05162774 0.00553931 0.00248003 0.00104908 0.00353057 0.00840042 0.00826354 0.02745749 0.00203593 0.00153402 0.11180520 0.01319701 0.00599154 0.01547825 0.00145203 
0.10726173 0.05064154 0.00562482 0.00240571 0.00106557 0.00357761 0.00836181 0.00820193 0.02743173 0.00205833 0.00153747 0.11259021 0.01306747 0.00612488 0.01542775 0.00143993 
0.10844764 0.04967713 0.00570545 0.00233427 0.00109080 0.00362503 0.00832685 0.00815425 0.02738860 0.00208506 0.00154174 0.11339214 0.01293480 0.00627119 0.01539947 0.00142804 
0.10947138 0.04873778 0.00578029 0.00226590 0.00112468 0.00367263 0.00829548 0.00812078 0.02732809 0.00211591 0.00154676 0.11420814 0.01279923 0.00642992 0.01539289 0.00141640 
0.11033006 0.04782653 0.00584850 0.00220075 0.00116703 0.00372023 0.00826766 0.00810172 0.02725024 0.00215070 0.00155247 0.11503512 0.01266105 0.00660047 0.01540733 0.00140505 
0.11102139 0.04694623 0.00590926 0.00213898 0.00121766 0.00376764 0.00824335 0.00809718 0.02715522 0.00218919 0.00155880 0.11586968 0.01252056 0.00678214 0.01544193 0.00139402 
0.11154367 0.04609948 0.00596182 0.00208070 0.00127629 0.00381467 0.00822252 0.00810716 0.02704325 0.00223115 0.00156568 0.11670816 0.01237807 0.00697415 0.01549570 0.00138336 
0.11189582 0.04528863 0.00600549 0.00202606 0.00134264 0.00386113 0.00820513 0.00813157 0.02691466 0.00227632 0.00157303 0.11754663 0.01223393 0.00717566 0.01556747 0.00137309 
0.11207731 0.04451579 0.00603963 0.00197515 0.00141637 0.00390683 0.00819116 0.00817019 0.02676985 0.00232441 0.00158079 0.11838096 0.01208852 0.00738575 0.01565597 0.00136324 
0.11208826 0.04378284 0.00606367 0.00192806 0.00149709 0.00395159 0.00818059 0.00822275 0.02660930 0.00237514 0.00158888 0.11920677 0.01194220 0.00760342 0.01575978 0.00135384 
0.11192933 0.04309137 0.00607711 0.00188488 0.00158437 0.00399523 0.00817341 0.00828883 0.02643353 0.00242820 0.00159723 0.12001948 0.01179538 0.00782764 0.01587738 0.00134490 
0.11160179 0.04244274 0.00607953 0.00184567 0.00167778 0.00403757 0.00816958 0.00836795 0.02624317 0.00248328 0.00160577 0.12081438 0.01164848 0.00805729 0.01600714 0.00133644 
0.11110749 0.04183805 0.00607058 0.00181048 0.00177680 0.00407844 0.00816911 0.00845952 0.02603885 0.00254006 0.00161443 0.12158656 0.01150192 0.00829123 0.01614735 0.00132848 
0.11044881 0.04127816 0.00604999 0.00177935 0.00188092 0.00411767 0.00817196 0.00856285 0.02582128 0.00259821 0.00162314 0.12233105 0.01135614 0.00852825 0.01629622 0.00132103 
0.10962871 0.04076367 0.00601759 0.00175231 0.00198958 0.00415510 0.00817814 0.00867717 0.02559122 0.00265738 0.00163183 0.12304275 0.01121157 0.00876712 0.01645190 0.00131410 
0.10865068 0.04029492 0.00597327 0.00172936 0.00210221 0.00419058 0.00818761 0.00880163 0.02534943 0.00271725 0.00164045 0.12371655 0.01106867 0.00900658 0.01661252 0.00130770 
0.10751871 0.03987206 0.00591702 0.00171050 0.00221821 0.00422397 0.00820035 0.00893528 0.02509674 0.00277747 0.00164892 0.12434731 0.01092787 0.00924533 0.01677614 0.00130182 
0.10623731 0.03949497 0.00584891 0.00169572 0.00233696 0.00425513 0.00821634 0.00907712 0.02483396 0.00283769 0.00165720 0.12492990 0.01078964 0.00948208 0.01694085 0.00129648 
0.10481147 0.03916333 0.00576910 0.00168499 0.00245781 0.00428393 0.00823554 0.00922605 0.02456195 0.00289760 0.00166522 0.12545929 0.01065440 0.00971551 0.01710473 0.00129165 
0.10324661 0.03887661 0.00567785 0.00167827 0.00258013 0.00431028 0.00825790 0.00938095 0.02428156 0.00295684 0.00167294 0.12593051 0.01052260 0.00994432 0.01726587 0.00128735 
0.10154863 0.03863407 0.00557548 0.00167550 0.00270327 0.00433405 0.00828338 0.00954060 0.02399364 0.00301510 0.00168032 0.12633876 0.01039467 0.01016720 0.01742240 0.00128355 
0.09972380 0.03843480 0.00546241 0.00167664 0.00282656 0.00435516 0.00831190 0.00970377 0.02369905 0.00307206 0.00168730 0.12667942 0.01027102 0.01038287 0.01757252 0.00128026 
0.09777880 0.03827769 0.00533916 0.00168160 0.00294934 0.00437354 0.00834339 0.00986915 0.02339863 0.00312741 0.00169386 0.12694807 0.01015205 0.01059008 0.01771449 0.00127746 
0.09572067 0.03816150 0.00520629 0.00169030 0.00307096 0.00438911 0.00837776 0.01003543 0.02309321 0.00318087 0.00169996 0.12714059 0.01003816 0.01078760 0.01784664 0.00127512 
0.09355678 0.03808483 0.00506447 0.00170265 0.00319077 0.00440182 0.00841492 0.01020127 0.02278359 0.00323215 0.00170557 0.12725313 0.00992970 0.01097424 0.01796742 0.00127325 
0.09129479 0.03804612 0.00491445 0.00171854 0.00330814 0.00441164 0.00845473 0.01036530 0.02247058 0.00328099 0.00171067 0.12728219 0.00982704 0.01114887 0.01807537 0.00127182 
0.08894264 0.03804373 0.00475702 0.00173788 0.00342243 0.00441852 0.00849706 0.01052615 0.02215491 0.00332716 0.00171524 0.12722465 0.00973051 0.01131041 0.01816918 0.00127080 
0.08650853 0.03807588 0.00459307 0.00176053 0.00353306 0.00442247 0.00854176 0.01068247 0.02183733 0.00337041 0.00171928 0.12707781 0.00964039 0.01145785 0.01824765 0.00127019 
0.08400086 0.03814073 0.00442355 0.00178638 0.00363943 0.00442348 0.00858867 0.01083290 0.02151853 0.00341056 0.00172277 0.12683939 0.00955699 0.01159025 0.01830974 0.00126995 
0.08142820 0.03823633 0.00424944 0.00181529 0.00374100 0.00442156 0.00863759 0.01097611 0.02119916 0.00344742 0.00172571 0.12650762 0.00948054 0.01170674 0.01835457 0.00127008 
0.07879930 0.03836068 0.00407180 0.00184713 0.00383723 0.00441675 0.00868833 0.01111080 0.02087986 0.00348083 0.00172811 0.12608121 0.00941128 0.01180655 0.01838144 0.00127053 
0.07612300 0.03851174 0.00389175 0.00188176 0.00392763 0.00440907 0.00874065 0.01123571 0.02056121 0.00351065 0.00172998 0.12555941 0.00934940 0.01188897 0.01838981 0.00127130 
0.07340825 0.03868742 0.00371042 0.00191901 0.00401175 0.00439860 0.00879433 0.01134964 0.02024375 0.00353679 0.00173132 0.12494201 0.00929509 0.01195342 0.01837930 0.00127235 
0.07066403 0.03888561 0.00352899 0.00195876 0.00408916 0.00438538 0.00884910 0.01145141 0.01992799 0.00355917 0.00173216 0.12422939 0.00924847 0.01199940 0.01834977 0.00127367 
0.06789936 0.03910418 0.00334869 0.00200084 0.00415949 0.00436952 0.00890470 0.01153996 0.01961440 0.00357771 0.00173251 0.12342249 0.00920966 0.01202652 0.01830121 0.00127523 
0.06512326 0.03934101 0.00317075 0.00204509 0.00422238 0.00435108 0.00896083 0.01161425 0.01930342 0.00359241 0.00173241 0.12252287 0.00917874 0.01203450 0.01823386 0.00127700 
0.06234467 0.03959399 0.00299642 0.00209135 0.00427756 0.00433019 0.00901721 0.01167336 0.01899543 0.00360325 0.00173189 0.12153267 0.00915577 0.01202316 0.01814810 0.00127898 
0.05957250 0.03986103 0.00282698 0.00213947 0.00432477 0.00430695 0.00907352 0.01171645 0.01869082 0.00361027 0.00173097 0.12045465 0.00914078 0.01199245 0.01804454 0.00128112 
0.05681553 0.04014006 0.00266370 0.00218929 0.00436382 0.00428149 0.00912943 0.01174276 0.01838991 0.00361352 0.00172971 0.11929215 0.00913375 0.01194242 0.01792396 0.00128342 
0.05408242 0.04042907 0.00250786 0.00224064 0.00439454 0.00425395 0.00918462 0.01175164 0.01809301 0.00361308 0.00172813 0.11804914 0.00913467 0.01187323 0.01778733 0.00128584 
0.05138166 0.04072609 0.00236071 0.00229336 0.00441685 0.00422448 0.00923874 0.01174257 0.01780041 0.00360907 0.00172630 0.11673014 0.00914347 0.01178519 0.01763580 0.00128838 
0.04872154 0.04102919 0.00222350 0.00234729 0.00443069 0.00419322 0.00929145 0.01171510 0.01751236 0.00360161 0.00172424 0.11534025 0.00916009 0.01167868 0.01747071 0.00129102 
0.04611015 0.04133652 0.00209746 0.00240228 0.00443606 0.00416034 0.00934241 0.01166894 0.01722912 0.00359088 0.00172203 0.11388512 0.00918441 0.01155422 0.01729353 0.00129373 
0.04355530 0.04164629 0.00198380 0.00245816 0.00443300 0.00412602 0.00939127 0.01160389 0.01695093 0.00357704 0.00171969 0.11237094 0.00921632 0.01141244 0.01710593 0.00129650 
0.04106455 0.04195678 0.00188367 0.00251479 0.00442162 0.00409042 0.00943768 0.01151989 0.01667801 0.00356032 0.00171730 0.11080436 0.00925567 0.01125407 0.01690969 0.00129931 
0.03864516 0.04226635 0.00179820 0.00257201 0.00440206 0.00405373 0.00948130 0.01141700 0.01641059 0.00354093 0.00171490 0.10919253 0.00930230 0.01107995 0.01670674 0.00130215 
0.03630405 0.04257344 0.00172846 0.00262968 0.00437451 0.00401615 0.00952181 0.01129542 0.01614891 0.00351913 0.00171256 0.10754300 0.00935604 0.01089102 0.01649914 0.00130501 
0.03404780 0.04287657 0.00167549 0.00268765 0.00433922 0.00397785 0.00955888 0.01115544 0.01589319 0.00349520 0.00171032 0.10586372 0.00941670 0.01068832 0.01628903 0.00130788 
0.03188264 0.04317434 0.00164024 0.00274579 0.00429646 0.00393904 0.00959221 0.01099754 0.01564369 0.00346940 0.00170825 0.10416299 0.00948408 0.01047297 0.01607866 0.00131074 
0.02981437 0.04346545 0.00162362 0.00280396 0.00424656 0.00389991 0.00962149 0.01082226 0.01540066 0.00344205 0.00170641 0.10244939 0.00955797 0.01024619 0.01587036 0.00131359 
0.02784842 0.04374867 0.00162646 0.00286202 0.00418989 0.00386067 0.00964648 0.01063033 0.01516440 0.00341345 0.00170484 0.10073176 0.00963815 0.01000927 0.01566650 0.00131642 
0.02598979 0.04402285 0.00164954 0.00291986 0.00412684 0.00382151 0.00966690 0.01042254 0.01493520 0.00338394 0.00170361 0.09901913 0.00972441 0.00976356 0.01546952 0.00131921 
0.02424301 0.04428696 0.00169352 0.00297736 0.00405786 0.00378263 0.00968254 0.01019986 0.01471342 0.00335385 0.00170277 0.09732068 0.00981652 0.00951049 0.01528187 0.00132197 
0.02261218 0.04454003 0.00175903 0.00303440 0.00398341 0.00374424 0.00969320 0.00996333 0.01449941 0.00332351 0.00170238 0.09564565 0.00991426 0.00925154 0.01510598 0.00132469 
0.02110095 0.04478117 0.00184657 0.00309087 0.00390398 0.00370653 0.00969870 0.00971413 0.01429359 0.00329328 0.00170249 0.09400335 0.01001740 0.00898823 0.01494432 0.00132736 
0.01971244 0.04500959 0.00195659 0.00314667 0.00382009 0.00366969 0.00969893 0.00945352 0.01409638 0.00326349 0.00170315 0.09240301 0.01012574 0.00872213 0.01479928 0.00132998 
0.01844934 0.04522458 0.00208942 0.00320170 0.00373229 0.00363391 0.00969376 0.00918288 0.01390828 0.00323450 0.00170441 0.09085382 0.01023905 0.00845481 0.01467324 0.00133255 
0.01731381 0.04542550 0.00224533 0.00325588 0.00364112 0.00359939 0.00968313 0.00890367 0.01372980 0.00320665 0.00170631 0.08936479 0.01035714 0.00818791 0.01456848 0.00133506 
0.01630752 0.04561179 0.00242446 0.00330912 0.00354716 0.00356631 0.00966703 0.00861745 0.01356151 0.00318028 0.00170890 0.08794474 0.01047981 0.00792302 0.01448722 0.00133751 
0.01543165 0.04578298 0.00262688 0.00336133 0.00345098 0.00353484 0.00964545 0.00832583 0.01340402 0.00315572 0.00171222 0.08660220 0.01060687 0.00766177 0.01443157 0.00133990 
0.01468687 0.04593866 0.00285256 0.00341245 0.00335317 0.00350515 0.00961846 0.00803051 0.01325798 0.00313329 0.00171631 0.08534542 0.01073815 0.00740577 0.01440351 0.00134222 
0.01407333 0.04607851 0.00310137 0.00346240 0.00325431 0.00347741 0.00958614 0.00773324 0.01312409 0.00311331 0.00172121 0.08418225 0.01087348 0.00715660 0.01440490 0.00134448 
0.01359071 0.04620225 0.00337309 0.00351113 0.00315499 0.00345178 0.00954864 0.00743582 0.01300307 0.00309607 0.00172695 0.08312010 0.01101272 0.00691583 0.01443743 0.00134667 
0.01323816 0.04630970 0.00366740 0.00355858 0.00305578 0.00342841 0.00950613 0.00714008 0.01289570 0.00308185 0.00173355 0.08216591 0.01115573 0.00668498 0.01450264 0.00134878 
0.01301439 0.04640074 0.00398389 0.00360469 0.00295725 0.00340743 0.00945884 0.00684790 0.01280279 0.00307092 0.00174105 0.08132612 0.01130238 0.00646552 0.01460188 0.00135082 
0.01291758 0.04647530 0.00432204 0.00364942 0.00285994 0.00338899 0.00940702 0.00656116 0.01272517 0.00306351 0.00174947 0.08060655 0.01145257 0.00625887 0.01473632 0.00135277 
0.01294546 0.04653339 0.00468128 0.00369273 0.00276440 0.00337320 0.00935100 0.00628175 0.01266372 0.00305984 0.00175883 0.08001243 0.01160619 0.00606638 0.01490690 0.00135465 
0.01309532 0.04657507 0.00506091 0.00373459 0.00267114 0.00336017 0.00929110 0.00601154 0.01261933 0.00306012 0.00176914 0.07954834 0.01176315 0.00588933 0.01511439 0.00135643 
0.01336396 0.04660047 0.00546016 0.00377495 0.00258064 0.00335002 0.00922772 0.00575242 0.01259291 0.00306451 0.00178042 0.07921816 0.01192339 0.00572891 0.01535929 0.00135811 
0.01374781 0.04660977 0.00587818 0.00381379 0.00249337 0.00334284 0.00916129 0.00550622 0.01258538 0.00307317 0.00179267 0.07902506 0.01208683 0.00558623 0.01564191 0.00135969 
0.01424284 0.04660323 0.00631405 0.00385110 0.00240976 0.00333870 0.00909226 0.00527475 0.01259766 0.00308620 0.00180592 0.07897149 0.01225341 0.00546232 0.01596230 0.00136116 
0.01484466 0.04658114 0.00676675 0.00388684 0.00233020 0.00333769 0.00902112 0.00505976 0.01263069 0.00310370 0.00182015 0.07905909 0.01242309 0.00535807 0.01632029 0.00136251 
0.01554851 0.04654386 0.00723521 0.00392100 0.00225507 0.00333986 0.00894840 0.00486295 0.01268538 0.00312573 0.00183536 0.07928877 0.01259582 0.00527429 0.01671545 0.00136373 
0.01634925 0.04649181 0.00771829 0.00395357 0.00218468 0.00334527 0.00887464 0.00468595 0.01276262 0.00315232 0.00185157 0.07966064 0.01277154 0.00521168 0.01714713 0.00136481 
0.01724147 0.04642545 0.00821479 0.00398454 0.00211932 0.00335396 0.00880042 0.00453028 0.01286329 0.00318348 0.00186875 0.08017400 0.01295023 0.00517081 0.01761441 0.00136574 
0.01821942 0.04634530 0.00872344 0.00401390 0.00205924 0.00336595 0.00872633 0.00439741 0.01298823 0.00321917 0.00188690 0.08082738 0.01313182 0.00515213 0.01811617 0.00136649 
0.01927711 0.04625194 0.00924293 0.00404164 0.00200464 0.00338126 0.00865297 0.00428869 0.01313823 0.00325933 0.00190601 0.08161851 0.01331627 0.00515599 0.01865102 0.00136707 
0.02040829 0.04614600 0.00977190 0.00406777 0.00195570 0.00339989 0.00858098 0.00420535 0.01331404 0.00330389 0.00192606 0.08254433 0.01350352 0.00518257 0.01921737 0.00136745 
0.02160650 0.04602815 0.01030897 0.00409228 0.00191251 0.00342185 0.00851098 0.00414853 0.01351634 0.00335271 0.00194703 0.08360106 0.01369349 0.00523197 0.01981338 0.00136761 
0.02286511 0.04589913 0.01085268 0.00411518 0.00187517 0.00344712 0.00844359 0.00411921 0.01374573 0.00340565 0.00196891 0.08478412 0.01388611 0.00530414 0.02043701 0.00136755 
0.02417734 0.04575969 0.01140160 0.00413647 0.00184371 0.00347565 0.00837946 0.00411826 0.01400275 0.00346253 0.00199167 0.08608826 0.01408127 0.00539891 0.02108603 0.00136723 
0.02553629 0.04561067 0.01195422 0.00415615 0.00181810 0.00350743 0.00831920 0.00414641 0.01428785 0.00352316 0.00201528 0.08750752 0.01427887 0.00551597 0.02175801 0.00136665 
0.02693496 0.04545293 0.01250905 0.00417423 0.00179831 0.00354238 0.00826343 0.00420422 0.01460136 0.00358730 0.00203971 0.08903529 0.01447875 0.00565490 0.02245033 0.00136578 
0.02836631 0.04528738 0.01306458 0.00419073 0.00178423 0.00358046 0.00821275 0.00429214 0.01494354 0.00365470 0.00206495 0.09066434 0.01468077 0.00581516 0.02316021 0.00136459 
0.02982329 0.04511497 0.01361928 0.00420565 0.00177574 0.00362158 0.00816773 0.00441042 0.01531449 0.00372507 0.00209094 0.09238687 0.01488472 0.00599608 0.02388475 0.00136308 
0.03129886 0.04493667 0.01417165 0.00421900 0.00177265 0.00366566 0.00812893 0.00455919 0.01571424 0.00379813 0.00211766 0.09419455 0.01509040 0.00619689 0.02462087 0.00136122 
0.03278602 0.04475351 0.01472016 0.00423080 0.00177477 0.00371260 0.00809687 0.00473839 0.01614266 0.00387355 0.00214507 0.09607859 0.01529756 0.00641669 0.02536541 0.00135898 
0.03427784 0.04456652 0.01526333 0.00424105 0.00178185 0.00376230 0.00807205 0.00494782 0.01659949 0.00395100 0.00217313 0.09802976 0.01550593 0.00665448 0.02611511 0.00135635 
0.03576754 0.04437679 0.01579966 0.00424978 0.00179361 0.00381463 0.00805490 0.00518709 0.01708434 0.00403012 0.00220179 0.10003847 0.01571518 0.00690919 0.02686661 0.00135330 
0.03724846 0.04418541 0.01632770 0.00425701 0.00180976 0.00386946 0.00804585 0.00545569 0.01759667 0.00411055 0.00223102 0.10209480 0.01592498 0.00717961 0.02761651 0.00134982 
0.03871412 0.04399348 0.01684601 0.00426274 0.00182995 0.00392666 0.00804524 0.00575290 0.01813579 0.00419191 0.00226077 0.10418862 0.01613495 0.00746448 0.02836137 0.00134588 
0.04015826 0.04380213 0.01735319 0.00426701 0.00185385 0.00398607 0.00805340 0.00607787 0.01870086 0.00427381 0.00229098 0.10630957 0.01634467 0.00776244 0.02909772 0.00134147 
0.04157484 0.04361248 0.01784788 0.00426983 0.00188106 0.00404754 0.00807058 0.00642959 0.01929090 0.00435586 0.00232162 0.10844721 0.01655369 0.00807208 0.02982209 0.00133656 
0.04295811 0.04342564 0.01832876 0.00427122 0.00191121 0.00411089 0.00809699 0.00680690 0.01990476 0.00443765 0.00235263 0.11059099 0.01676152 0.00839191 0.03053105 0.00133114 
0.04430258 0.04324274 0.01879455 0.00427122 0.00194387 0.00417594 0.00813277 0.00720848 0.02054115 0.00451880 0.00238396 0.11273041 0.01696765 0.00872038 0.03122119 0.00132520 
0.04560312 0.04306488 0.01924402 0.00426984 0.00197865 0.00424251 0.00817800 0.00763288 0.02119860 0.00459890 0.00241555 0.11485502 0.01717152 0.00905593 0.03188918 0.00131872 
0.04685492 0.04289312 0.01967599 0.00426712 0.00201510 0.00431038 0.00823270 0.00807851 0.02187553 0.00467754 0.00244736 0.11695451 0.01737256 0.00939694 0.03253175 0.00131168 
0.04805353 0.04272851 0.02008935 0.00426308 0.00205281 0.00437937 0.00829685 0.00854366 0.02257018 0.00475435 0.00247931 0.11901876 0.01757013 0.00974175 0.03314574 0.00130408 
0.04919490 0.04257207 0.02048303 0.00425776 0.00209135 0.00444925 0.00837032 0.00902649 0.02328067 0.00482893 0.00251136 0.12103792 0.01776362 0.01008870 0.03372812 0.00129592 
0.05027537 0.04242475 0.02085604 0.00425119 0.00213029 0.00451980 0.00845295 0.00952506 0.02400498 0.00490092 0.00254344 0.12300245 0.01795235 0.01043614 0.03427597 0.00128717 
0.05129170 0.04228746 0.02120743 0.00424342 0.00216922 0.00459079 0.00854450 0.01003733 0.02474093 0.00496994 0.00257550 0.12490321 0.01813565 0.01078240 0.03478654 0.00127785 
0.05224110 0.04216105 0.02153634 0.00423448 0.00220772 0.00466199 0.00864468 0.01056116 0.02548627 0.00503565 0.00260747 0.12673147 0.01831281 0.01112581 0.03525725 0.00126796 
0.05312120 0.04204629 0.02184197 0.00422441 0.00224540 0.00473315 0.00875313 0.01109435 0.02623860 0.00509772 0.00263929 0.12847902 0.01848312 0.01146475 0.03568569 0.00125749 
0.05393009 0.04194388 0.02212357 0.00421325 0.00228188 0.00480403 0.00886943 0.01163461 0.02699542 0.00515584 0.00267090 0.13013818 0.01864588 0.01179762 0.03606966 0.00124644 
0.05466631 0.04185443 0.02238049 0.00420107 0.00231680 0.00487438 0.00899309 0.01217963 0.02775416 0.00520971 0.00270222 0.13170184 0.01880035 0.01212284 0.03640716 0.00123484 
0.05532889 0.04177846 0.02261213 0.00418789 0.00234983 0.00494395 0.00912359 0.01272701 0.02851214 0.00525907 0.00273321 0.13316355 0.01894582 0.01243892 0.03669642 0.00122270 
0.05591728 0.04171639 0.02281797 0.00417379 0.00238064 0.00501247 0.00926034 0.01327436 0.02926663 0.00530365 0.00276378 0.13451752 0.01908158 0.01274438 0.03693588 0.00121002 
0.05643142 0.04166854 0.02299755 0.00415880 0.00240897 0.00507970 0.00940271 0.01381926 0.03001485 0.00534326 0.00279388 0.13575867 0.01920694 0.01303783 0.03712424 0.00119683 
0.05687168 0.04163510 0.02315049 0.00414300 0.00243454 0.00514537 0.00955000 0.01435929 0.03075397 0.00537767 0.00282344 0.13688264 0.01932122 0.01331794 0.03726044 0.00118315 
0.05723891 0.04161615 0.02327648 0.00412643 0.00245713 0.00520922 0.00970151 0.01489202 0.03148114 0.00540674 0.00285239 0.13788586 0.01942377 0.01358348 0.03734366 0.00116901 
0.05753435 0.04161166 0.02337528 0.00410916 0.00247655 0.00527101 0.00985648 0.01541507 0.03219348 0.00543031 0.00288067 0.13876553 0.01951396 0.01383327 0.03737335 0.00115444 
0.05775971 0.04162147 0.02344672 0.00409126 0.00249263 0.00533047 0.01001411 0.01592609 0.03288815 0.00544827 0.00290821 0.13951964 0.01959123 0.01406625 0.03734921 0.00113947 
0.05791708 0.04164527 0.02349070 0.00407278 0.00250527 0.00538736 0.01017361 0.01642276 0.03356231 0.00546055 0.00293495 0.14014702 0.01965502 0.01428145 0.03727119 0.00112413 
0.05800895 0.04168265 0.02350718 0.00405379 0.00251436 0.00544143 0.01033414 0.01690285 0.03421315 0.00546709 0.00296082 0.14064729 0.01970485 0.01447798 0.03713950 0.00110848 
0.05803819 0.04173305 0.02349619 0.00403436 0.00251986 0.00549244 0.01049485 0.01736417 0.03483793 0.00546787 0.00298576 0.14102089 0.01974028 0.01465509 0.03695461 0.00109254 
0.05800800 0.04179578 0.02345784 0.00401456 0.00252176 0.00554016 0.01065490 0.01780466 0.03543397 0.00546289 0.00300970 0.14126908 0.01976095 0.01481210 0.03671724 0.00107637 
0.05792191 0.04187003 0.02339227 0.00399446 0.00252008 0.00558438 0.01081342 0.01822232 0.03599868 0.00545220 0.00303258 0.14139391 0.01976654 0.01494848 0.03642836 0.00106001 
0.05778375 0.04195485 0.02329973 0.00397413 0.00251488 0.00562487 0.01096958 0.01861528 0.03652956 0.00543586 0.00305435 0.14139823 0.01975680 0.01506378 0.03608917 0.00104353 
0.05759763 0.04204918 0.02318049 0.00395362 0.00250627 0.00566145 0.01112254 0.01898178 0.03702425 0.00541396 0.00307494 0.14128563 0.01973159 0.01515767 0.03570111 0.00102696 
0.05736789 0.04215183 0.02303489 0.00393302 0.00249437 0.00569391 0.01127147 0.01932019 0.03748049 0.00538664 0.00309431 0.14106046 0.01969081 0.01522996 0.03526583 0.00101037 
0.05709906 0.04226151 0.02286334 0.00391238 0.00247935 0.00572209 0.01141558 0.01962902 0.03789619 0.00535405 0.00311239 0.14072777 0.01963446 0.01528055 0.03478521 0.00099382 
0.05679588 0.04237682 0.02266629 0.00389178 0.00246143 0.00574583 0.01155410 0.01990694 0.03826941 0.00531637 0.00312913 0.14029328 0.01956263 0.01530945 0.03426132 0.00097737 
0.05646321 0.04249625 0.02244427 0.00387127 0.00244084 0.00576498 0.01168630 0.02015275 0.03859838 0.00527379 0.00314448 0.13976334 0.01947548 0.01531681 0.03369644 0.00096108 
0.05610601 0.04261822 0.02219783 0.00385092 0.00241784 0.00577942 0.01181149 0.02036541 0.03888151 0.00522656 0.00315841 0.13914489 0.01937330 0.01530286 0.03309299 0.00094501 
0.05572933 0.04274108 0.02192758 0.00383078 0.00239273 0.00578905 0.01192903 0.02054408 0.03911741 0.00517491 0.00317085 0.13844541 0.01925642 0.01526796 0.03245359 0.00092922 
0.05533825 0.04286310 0.02163421 0.00381091 0.00236584 0.00579377 0.01203833 0.02068805 0.03930488 0.00511914 0.00318178 0.13767288 0.01912530 0.01521256 0.03178100 0.00091379 
0.05493784 0.04298251 0.02131843 0.00379135 0.00233749 0.00579353 0.01213883 0.02079682 0.03944297 0.00505952 0.00319116 0.13683570 0.01898049 0.01513722 0.03107809 0.00089877 
0.05453316 0.04309751 0.02098098 0.00377216 0.00230808 0.00578827 0.01223008 0.02087003 0.03953089 0.00499636 0.00319895 0.13594267 0.01882261 0.01504260 0.03034788 0.00088423 
0.05412918 0.04320626 0.02062270 0.00375338 0.00227798 0.00577796 0.01231165 0.02090752 0.03956814 0.00493001 0.00320513 0.13500287 0.01865240 0.01492943 0.02959348 0.00087024 
0.05373075 0.04330693 0.02024442 0.00373504 0.00224759 0.00576262 0.01238320 0.02090930 0.03955440 0.00486078 0.00320966 0.13402568 0.01847066 0.01479855 0.02881809 0.00085685 
0.05334263 0.04339769 0.01984704 0.00371718 0.00221733 0.00574227 0.01244445 0.02087558 0.03948961 0.00478905 0.00321254 0.13302065 0.01827831 0.01465086 0.02802497 0.00084413 
0.05296937 0.04347676 0.01943151 0.00369982 0.00218763 0.00571694 0.01249521 0.02080671 0.03937393 0.00471516 0.00321373 0.13199746 0.01807633 0.01448736 0.02721744 0.00083213 
0.05261532 0.04354237 0.01899879 0.00368298 0.00215892 0.00568670 0.01253533 0.02070325 0.03920777 0.00463950 0.00321323 0.13096587 0.01786577 0.01430909 0.02639887 0.00082092 
0.05228461 0.04359285 0.01854990 0.00366668 0.00213164 0.00565166 0.01256478 0.02056589 0.03899178 0.00456243 0.00321102 0.12993562 0.01764779 0.01411716 0.02557264 0.00081056 
0.05198111 0.04362659 0.01808590 0.00365094 0.00210622 0.00561193 0.01258356 0.02039552 0.03872682 0.00448434 0.00320711 0.12891640 0.01742358 0.01391273 0.02474213 0.00080108 
0.05170839 0.04364207 0.01760789 0.00363574 0.00208310 0.00556765 0.01259177 0.02019317 0.03841399 0.00440562 0.00320150 0.12791776 0.01719441 0.01369703 0.02391073 0.00079255 
0.05146973 0.04363790 0.01711698 0.00362109 0.00206271 0.00551897 0.01258960 0.01996003 0.03805463 0.00432663 0.00319418 0.12694906 0.01696162 0.01347129 0.02308177 0.00078501 
0.05126805 0.04361282 0.01661435 0.00360698 0.00204548 0.00546610 0.01257728 0.01969744 0.03765028 0.00424776 0.00318518 0.12601940 0.01672657 0.01323679 0.02225859 0.00077850 
0.05110593 0.04356571 0.01610119 0.00359340 0.00203181 0.00540923 0.01255514 0.01940686 0.03720270 0.00416939 0.00317450 0.12513756 0.01649066 0.01299485 0.02144442 0.00077306 
0.05098560 0.04349563 0.01557872 0.00358032 0.00202209 0.00534860 0.01252356 0.01908990 0.03671384 0.00409188 0.00316216 0.12431195 0.01625536 0.01274677 0.02064248 0.00076872 
0.05090887 0.04340181 0.01504822 0.00356772 0.00201670 0.00528445 0.01248301 0.01874826 0.03618586 0.00401559 0.00314819 0.12355055 0.01602212 0.01249389 0.01985585 0.00076552 
0.05087719 0.04328367 0.01451096 0.00355557 0.00201601 0.00521705 0.01243399 0.01838377 0.03562107 0.00394088 0.00313262 0.12286084 0.01579243 0.01223753 0.01908756 0.00076347 
0.05089156 0.04314085 0.01396828 0.00354382 0.00202033 0.00514669 0.01237710 0.01799836 0.03502199 0.00386807 0.00311548 0.12224980 0.01556777 0.01197902 0.01834052 0.00076260 
0.05095262 0.04297320 0.01342150 0.00353245 0.00202998 0.00507366 0.01231296 0.01759403 0.03439125 0.00379750 0.00309681 0.12172378 0.01534962 0.01171966 0.01761751 0.00076293 
0.05106057 0.04278081 0.01287202 0.00352139 0.00204524 0.00499830 0.01224226 0.01717285 0.03373166 0.00372947 0.00307664 0.12128856 0.01513943 0.01146074 0.01692121 0.00076445 
0.05121519 0.04256398 0.01232122 0.00351061 0.00206635 0.00492091 0.01216574 0.01673697 0.03304613 0.00366426 0.00305504 0.12094923 0.01493866 0.01120353 0.01625414 0.00076718 
0.05141587 0.04232329 0.01177052 0.00350005 0.00209354 0.00484186 0.01208415 0.01628857 0.03233769 0.00360216 0.00303204 0.12071018 0.01474870 0.01094925 0.01561869 0.00077111 
0.05166157 0.04205955 0.01122136 0.00348966 0.00212697 0.00476148 0.01199830 0.01582988 0.03160946 0.00354342 0.00300770 0.12057510 0.01457090 0.01069908 0.01501709 0.00077624 
0.05195089 0.04177383 0.01067519 0.00347937 0.00216680 0.00468013 0.01190903 0.01536314 0.03086463 0.00348826 0.00298208 0.12054692 0.01440656 0.01045419 0.01445141 0.00078255 
0.05228200 0.04146745 0.01013348 0.00346913 0.00221314 0.00459817 0.01181718 0.01489061 0.03010647 0.00343690 0.00295524 0.12062781 0.01425693 0.01021565 0.01392356 0.00079003 
0.05265272 0.04114201 0.00959771 0.00345888 0.00226605 0.00451597 0.01172361 0.01441455 0.02933828 0.00338953 0.00292726 0.12081914 0.01412315 0.00998451 0.01343528 0.00079865 
0.05306053 0.04079933 0.00906937 0.00344855 0.00232557 0.00443390 0.01162919 0.01393719 0.02856338 0.00334630 0.00289819 0.12112152 0.01400631 0.00976175 0.01298812 0.00080838 
0.05350255 0.04044149 0.00854997 0.00343810 0.00239168 0.00435231 0.01153481 0.01346074 0.02778510 0.00330736 0.00286811 0.12153473 0.01390738 0.00954829 0.01258347 0.00081918 
0.05397559 0.04007081 0.00804100 0.00342745 0.00246434 0.00427158 0.01144132 0.01298737 0.02700678 0.00327283 0.00283710 0.12205778 0.01382726 0.00934498 0.01222253 0.00083103 
0.05447617 0.03968986 0.00754396 0.00341656 0.00254346 0.00419205 0.01134956 0.01251919 0.02623171 0.00324278 0.00280523 0.12268888 0.01376671 0.00915261 0.01190632 0.00084387 
0.05500055 0.03930140 0.00706034 0.00340537 0.00262890 0.00411408 0.01126039 0.01205827 0.02546314 0.00321729 0.00277259 0.12342547 0.01372639 0.00897188 0.01163566 0.00085765 
0.05554474 0.03890842 0.00659164 0.00339384 0.00272049 0.00403799 0.01117459 0.01160659 0.02470427 0.00319640 0.00273925 0.12426421 0.01370685 0.00880344 0.01141121 0.00087233 
0.05610454 0.03851411 0.00613932 0.00338191 0.00281803 0.00396412 0.01109294 0.01116603 0.02395821 0.00318012 0.00270530 0.12520104 0.01370849 0.00864785 0.01123343 0.00088783 
0.05667556 0.03812180 0.00570484 0.00336954 0.00292126 0.00389277 0.01101618 0.01073840 0.02322799 0.00316843 0.00267083 0.12623116 0.01373161 0.00850561 0.01110260 0.00090412 
0.05725327 0.03773500 0.00528963 0.00335671 0.00302990 0.00382425 0.01094499 0.01032540 0.02251654 0.00316130 0.00263593 0.12734910 0.01377635 0.00837711 0.01101880 0.00092110 
0.05783302 0.03735737 0.00489511 0.00334338 0.00314363 0.00375882 0.01088000 0.00992863 0.02182664 0.00315867 0.00260067 0.12854870 0.01384272 0.00826271 0.01098196 0.00093873 
0.05841005 0.03699266 0.00452264 0.00332953 0.00326209 0.00369675 0.01082181 0.00954953 0.02116097 0.00316046 0.00256517 0.12982324 0.01393060 0.00816266 0.01099180 0.00095693 
0.05897958 0.03664470 0.00417356 0.00331515 0.00338488 0.00363826 0.01077092 0.00918947 0.02052205 0.00316656 0.00252949 0.13116536 0.01403974 0.00807715 0.01104790 0.00097562 
0.05953678 0.03631740 0.00384917 0.00330022 0.00351159 0.00358358 0.01072781 0.00884965 0.01991223 0.00317684 0.00249374 0.13256722 0.01416972 0.00800629 0.01114964 0.00099473 
0.06007683 0.03601471 0.00355070 0.00328475 0.00364177 0.00353289 0.01069287 0.00853115 0.01933372 0.00319115 0.00245801 0.13402047 0.01432001 0.00795013 0.01129625 0.00101419 
0.06059496 0.03574057 0.00327936 0.00326875 0.00377494 0.00348635 0.01066641 0.00823491 0.01878853 0.00320931 0.00242239 0.13551632 0.01448994 0.00790864 0.01148678 0.00103392 
0.06108648 0.03549891 0.00303625 0.00325223 0.00391061 0.00344411 0.01064868 0.00796171 0.01827850 0.00323115 0.00238696 0.13704563 0.01467870 0.00788172 0.01172015 0.00105383 
0.06154678 0.03529361 0.00282246 0.00323522 0.00404824 0.00340627 0.01063986 0.00771221 0.01780528 0.00325646 0.00235183 0.13859891 0.01488536 0.00786923 0.01199511 0.00107385 
0.06197142 0.03512845 0.00263897 0.00321776 0.00418730 0.00337291 0.01064004 0.00748691 0.01737030 0.00328500 0.00231707 0.14016641 0.01510888 0.00787094 0.01231028 0.00109390 
0.06235609 0.03500713 0.00248669 0.00319988 0.00432724 0.00334410 0.01064924 0.00728615 0.01697482 0.00331655 0.00228278 0.14173819 0.01534809 0.00788657 0.01266411 0.00111390 
0.06269669 0.03493317 0.00236646 0.00318165 0.00446749 0.00331986 0.01066740 0.00711014 0.01661987 0.00335086 0.00224904 0.14330414 0.01560170 0.00791580 0.01305497 0.00113378 
0.06298934 0.03490996 0.00227901 0.00316312 0.00460746 0.00330019 0.01069439 0.00695895 0.01630629 0.00338765 0.00221595 0.14485408 0.01586836 0.00795824 0.01348106 0.00115346 
0.06323039 0.03494066 0.00222499 0.00314436 0.00474658 0.00328507 0.01073000 0.00683249 0.01603471 0.00342666 0.00218358 0.14637781 0.01614658 0.00801348 0.01394048 0.00117286 
0.06341647 0.03502820 0.00220494 0.00312545 0.00488426 0.00327443 0.01077394 0.00673053 0.01580554 0.00346761 0.00215201 0.14786515 0.01643483 0.00808103 0.01443123 0.00119192 
0.06354448 0.03517527 0.00221931 0.00310647 0.00501991 0.00326820 0.01082585 0.00665273 0.01561901 0.00351021 0.00212133 0.14930604 0.01673149 0.00816040 0.01495119 0.00121056 
0.06361166 0.03538426 0.00226842 0.00308752 0.00515295 0.00326627 0.01088532 0.00659857 0.01547511 0.00355416 0.00209162 0.15069057 0.01703487 0.00825104 0.01549817 0.00122872 
0.06361552 0.03565726 0.00235250 0.00306869 0.00528281 0.00326851 0.01095184 0.00656745 0.01537367 0.00359917 0.00206294 0.15200907 0.01734325 0.00835238 0.01606988 0.00124634 
0.06355396 0.03599600 0.00247164 0.00305009 0.00540890 0.00327476 0.01102486 0.00655863 0.01531429 0.00364494 0.00203538 0.15325211 0.01765486 0.00846383 0.01666395 0.00126335 
0.06342521 0.03640189 0.00262581 0.00303182 0.00553068 0.00328484 0.01110377 0.00657126 0.01529643 0.00369117 0.00200899 0.15441064 0.01796790 0.00858477 0.01727795 0.00127970 
0.06322784 0.03687594 0.00281487 0.00301401 0.00564762 0.00329856 0.01118790 0.00660436 0.01531931 0.00373757 0.00198386 0.15547598 0.01828057 0.00871457 0.01790940 0.00129535 
0.06296082 0.03741877 0.00303853 0.00299676 0.00575918 0.00331570 0.01127653 0.00665690 0.01538202 0.00378384 0.00196003 0.15643990 0.01859106 0.00885257 0.01855577 0.00131024 
0.06262349 0.03803060 0.00329639 0.00298021 0.00586488 0.00333601 0.01136891 0.00672771 0.01548348 0.00382969 0.00193757 0.15729466 0.01889757 0.00899813 0.01921447 0.00132432 
0.06221555 0.03871120 0.00358791 0.00296446 0.00596423 0.00335925 0.01146422 0.00681557 0.01562244 0.00387484 0.00191653 0.15803305 0.01919833 0.00915058 0.01988289 0.00133757 
0.06173711 0.03945993 0.00391241 0.00294965 0.00605680 0.00338516 0.01156166 0.00691918 0.01579751 0.00391902 0.00189698 0.15864849 0.01949158 0.00930926 0.02055842 0.00134995 
0.06118863 0.04027571 0.00426908 0.00293589 0.00614215 0.00341346 0.01166035 0.00703716 0.01600717 0.00396195 0.00187894 0.15913497 0.01977565 0.00947352 0.02123842 0.00136143 
0.06057097 0.04115701 0.00465698 0.00292330 0.00621991 0.00344385 0.01175942 0.00716810 0.01624979 0.00400339 0.00186247 0.15948718 0.02004888 0.00964269 0.02192024 0.00137199 
0.05988534 0.04210185 0.00507504 0.00291202 0.00628972 0.00347606 0.01185799 0.00731054 0.01652360 0.00404310 0.00184762 0.15970049 0.02030972 0.00981613 0.02260126 0.00138161 
0.05913333 0.04310781 0.00552204 0.00290214 0.00635127 0.00350977 0.01195515 0.00746296 0.01682676 0.00408083 0.00183440 0.15977101 0.02055667 0.00999321 0.02327885 0.00139027 
0.05831688 0.04417203 0.00599666 0.00289379 0.00640428 0.00354468 0.01205001 0.00762386 0.01715734 0.00411638 0.00182286 0.15969559 0.02078834 0.01017331 0.02395045 0.00139797 
0.05743826 0.04529122 0.00649742 0.00288707 0.00644849 0.00358050 0.01214168 0.00779168 0.01751331 0.00414956 0.00181302 0.15947186 0.02100343 0.01035582 0.02461349 0.00140471 
0.05650011 0.04646167 0.00702275 0.00288208 0.00648372 0.00361692 0.01222928 0.00796489 0.01789263 0.00418016 0.00180490 0.15909822 0.02120075 0.01054016 0.02526548 0.00141049 
0.05550535 0.04767926 0.00757093 0.00287892 0.00650980 0.00365364 0.01231195 0.00814193 0.01829316 0.00420803 0.00179852 0.15857390 0.02137921 0.01072577 0.02590397 0.00141531 
0.05445721 0.04893950 0.00814015 0.00287767 0.00652661 0.00369037 0.01238885 0.00832130 0.01871277 0.00423301 0.00179389 0.15789890 0.02153786 0.01091211 0.02652658 0.00141919 
0.05335921 0.05023750 0.00872849 0.00287840 0.00653408 0.00372682 0.01245917 0.00850148 0.01914929 0.00425498 0.00179102 0.15707406 0.02167588 0.01109865 0.02713100 0.00142215 
0.05221515 0.05156806 0.00933391 0.00288119 0.00653216 0.00376271 0.01252215 0.00868099 0.01960054 0.00427382 0.00178991 0.15610102 0.02179256 0.01128491 0.02771502 0.00142420 
0.05102904 0.05292565 0.00995431 0.00288610 0.00652087 0.00379779 0.01257705 0.00885841 0.02006435 0.00428943 0.00179056 0.15498222 0.02188736 0.01147041 0.02827650 0.00142536 
0.04980514 0.05430445 0.01058746 0.00289317 0.00650025 0.00383180 0.01262319 0.00903235 0.02053857 0.00430175 0.00179296 0.15372090 0.02195983 0.01165473 0.02881341 0.00142567 
0.04854793 0.05569841 0.01123109 0.00290244 0.00647040 0.00386450 0.01265995 0.00920148 0.02102106 0.00431070 0.00179709 0.15232105 0.02200971 0.01183743 0.02932383 0.00142517 
0.04726203 0.05710122 0.01188285 0.00291393 0.00643145 0.00389567 0.01268672 0.00936453 0.02150975 0.00431626 0.00180295 0.15078745 0.02203686 0.01201815 0.02980596 0.00142387 
0.04595227 0.05850641 0.01254032 0.00292766 0.00638356 0.00392511 0.01270301 0.00952029 0.02200260 0.00431840 0.00181050 0.14912559 0.02204127 0.01219652 0.03025811 0.00142183 
0.04462357 0.05990737 0.01320103 0.00294362 0.00632696 0.00395263 0.01270835 0.00966765 0.02249763 0.00431713 0.00181973 0.14734168 0.02202309 0.01237220 0.03067874 0.00141909 
0.04328100 0.06129736 0.01386249 0.00296180 0.00626190 0.00397806 0.01270235 0.00980555 0.02299293 0.00431246 0.00183059 0.14544259 0.02198260 0.01254489 0.03106642 0.00141569 
0.04192971 0.06266962 0.01452218 0.00298217 0.00618864 0.00400126 0.01268468 0.00993303 0.02348667 0.00430442 0.00184305 0.14343583 0.02192020 0.01271431 0.03141989 0.00141168 
0.04057490 0.06401731 0.01517754 0.00300471 0.00610753 0.00402210 0.01265509 0.01004921 0.02397711 0.00429308 0.00185706 0.14132953 0.02183644 0.01288020 0.03173804 0.00140710 
0.03922183 0.06533367 0.01582602 0.00302936 0.00601890 0.00404048 0.01261339 0.01015332 0.02446260 0.00427848 0.00187259 0.13913234 0.02173199 0.01304235 0.03201988 0.00140201 
0.03787578 0.06661197 0.01646508 0.00305605 0.00592314 0.00405632 0.01255947 0.01024465 0.02494159 0.00426073 0.00188958 0.13685345 0.02160763 0.01320052 0.03226461 0.00139645 
0.03654201 0.06784561 0.01709220 0.00308471 0.00582066 0.00406955 0.01249329 0.01032263 0.02541262 0.00423991 0.00190797 0.13450249 0.02146426 0.01335455 0.03247158 0.00139049 
0.03522577 0.06902813 0.01770488 0.00311525 0.00571190 0.00408014 0.01241488 0.01038674 0.02587435 0.00421613 0.00192770 0.13208952 0.02130286 0.01350427 0.03264030 0.00138417 
0.03393226 0.07015329 0.01830067 0.00314759 0.00559732 0.00408808 0.01232434 0.01043659 0.02632557 0.00418953 0.00194870 0.12962495 0.02112454 0.01364954 0.03277046 0.00137755 
0.03266658 0.07121507 0.01887717 0.00318160 0.00547739 0.00409337 0.01222186 0.01047188 0.02676515 0.00416024 0.00197092 0.12711950 0.02093048 0.01379023 0.03286191 0.00137068 
0.03143377 0.07220776 0.01943204 0.00321718 0.00535262 0.00409603 0.01210767 0.01049241 0.02719209 0.00412841 0.00199427 0.12458412 0.02072193 0.01392623 0.03291467 0.00136362 
0.03023875 0.07312597 0.01996304 0.00325419 0.00522352 0.00409611 0.01198210 0.01049807 0.02760552 0.00409418 0.00201867 0.12202996 0.02050021 0.01405746 0.03292892 0.00135641 
0.02908629 0.07396466 0.02046799 0.00329251 0.00509062 0.00409368 0.01184552 0.01048884 0.02800467 0.00405773 0.00204405 0.11946831 0.02026670 0.01418383 0.03290502 0.00134912 
0.02798101 0.07471921 0.02094482 0.00333198 0.00495444 0.00408883 0.01169839 0.01046481 0.02838889 0.00401923 0.00207033 0.11691049 0.02002283 0.01430530 0.03284350 0.00134178 
0.02692736 0.07538543 0.02139158 0.00337246 0.00481555 0.00408165 0.01154120 0.01042615 0.02875766 0.00397885 0.00209741 0.11436788 0.01977005 0.01442181 0.03274505 0.00133446 
0.02592961 0.07595961 0.02180643 0.00341380 0.00467447 0.00407227 0.01137452 0.01037310 0.02911055 0.00393678 0.00212520 0.11185176 0.01950985 0.01453332 0.03261052 0.00132720 
0.02499181 0.07643854 0.02218765 0.00345584 0.00453177 0.00406082 0.01119897 0.01030601 0.02944725 0.00389320 0.00215362 0.10937333 0.01924371 0.01463981 0.03244091 0.00132005 
0.02411777 0.07681953 0.02253368 0.00349841 0.00438799 0.00404745 0.01101522 0.01022530 0.02976757 0.00384831 0.00218257 0.10694360 0.01897315 0.01474127 0.03223740 0.00131304 
0.02331111 0.07710045 0.02284309 0.00354134 0.00424366 0.00403231 0.01082399 0.01013144 0.03007138 0.00380230 0.00221196 0.10457335 0.01869964 0.01483769 0.03200129 0.00130623 
0.02257514 0.07727973 0.02311460 0.00358449 0.00409933 0.00401559 0.01062603 0.01002501 0.03035868 0.00375535 0.00224167 0.10227307 0.01842466 0.01492906 0.03173404 0.00129965 
0.02191295 0.07735639 0.02334710 0.00362767 0.00395553 0.00399747 0.01042215 0.00990662 0.03062956 0.00370765 0.00227162 0.10005292 0.01814964 0.01501541 0.03143724 0.00129334 
0.02132732 0.07733008 0.02353963 0.00367072 0.00381275 0.00397812 0.01021316 0.00977695 0.03088417 0.00365941 0.00230170 0.09792263 0.01787599 0.01509675 0.03111260 0.00128733 
0.02082076 0.07720102 0.02369142 0.00371348 0.00367151 0.00395776 0.00999994 0.00963674 0.03112276 0.00361079 0.00233182 0.09589150 0.01760506 0.01517310 0.03076198 0.00128166 
0.02039548 0.07697006 0.02380184 0.00375579 0.00353229 0.00393658 0.00978335 0.00948677 0.03134564 0.00356200 0.00236186 0.09396832 0.01733814 0.01524450 0.03038731 0.00127636 
0.02005338 0.07663867 0.02387048 0.00379749 0.00339555 0.00391478 0.00956431 0.00932785 0.03155317 0.00351320 0.00239173 0.09216133 0.01707646 0.01531097 0.02999064 0.00127144 
0.01979604 0.07620893 0.02389708 0.00383843 0.00326173 0.00389258 0.00934372 0.00916084 0.03174580 0.00346458 0.00242133 0.09047818 0.01682118 0.01537256 0.02957413 0.00126693 
0.01962473 0.07568351 0.02388155 0.00387847 0.00313126 0.00387017 0.00912251 0.00898663 0.03192399 0.00341630 0.00245056 0.08892587 0.01657338 0.01542932 0.02914001 0.00126285 
0.01954039 0.07506569 0.02382400 0.00391746 0.00300453 0.00384776 0.00890160 0.00880613 0.03208826 0.00336853 0.00247931 0.08751074 0.01633403 0.01548131 0.02869056 0.00125922 
0.01954363 0.07435932 0.02372472 0.00395528 0.00288191 0.00382556 0.00868191 0.00862027 0.03223915 0.00332143 0.00250750 0.08623842 0.01610405 0.01552858 0.02822815 0.00125605 
0.01963472 0.07356880 0.02358414 0.00399181 0.00276374 0.00380376 0.00846437 0.00842999 0.03237724 0.00327515 0.00253501 0.08511379 0.01588422 0.01557120 0.02775518 0.00125335 
0.01981361 0.07269908 0.02340292 0.00402693 0.00265034 0.00378255 0.00824989 0.00823623 0.03250311 0.00322983 0.00256177 0.08414099 0.01567525 0.01560924 0.02727411 0.00125113 
0.02007990 0.07175560 0.02318183 0.00406053 0.00254200 0.00376213 0.00803935 0.00803995 0.03261736 0.00318562 0.00258768 0.08332334 0.01547774 0.01564278 0.02678740 0.00124939 
0.02043286 0.07074428 0.02292184 0.00409253 0.00243896 0.00374266 0.00783362 0.00784210 0.03272058 0.00314264 0.00261265 0.08266339 0.01529216 0.01567191 0.02629754 0.00124813 
0.02087143 0.06967149 0.02262407 0.00412284 0.00234147 0.00372432 0.00763356 0.00764360 0.03281336 0.00310103 0.00263660 0.08216286 0.01511892 0.01569672 0.02580700 0.00124734 
0.02139422 0.06854400 0.02228980 0.00415140 0.00224970 0.00370726 0.00743998 0.00744540 0.03289629 0.00306088 0.00265945 0.08182262 0.01495827 0.01571730 0.02531827 0.00124703 
0.02199951 0.06736894 0.02192043 0.00417813 0.00216383 0.00369164 0.00725367 0.00724839 0.03296991 0.00302232 0.00268112 0.08164275 0.01481038 0.01573378 0.02483379 0.00124719 
0.02268526 0.06615376 0.02151752 0.00420300 0.00208397 0.00367758 0.00707538 0.00705347 0.03303476 0.00298545 0.00270155 0.08162247 0.01467532 0.01574626 0.02435598 0.00124780 
0.02344912 0.06490621 0.02108275 0.00422596 0.00201025 0.00366522 0.00690581 0.00686150 0.03309135 0.00295035 0.00272067 0.08176017 0.01455304 0.01575486 0.02388720 0.00124885 
0.02428843 0.06363424 0.02061791 0.00424700 0.00194272 0.00365466 0.00674564 0.00667333 0.03314014 0.00291713 0.00273842 0.08205345 0.01444339 0.01575972 0.02342977 0.00125032 
0.02520023 0.06234602 0.02012493 0.00426609 0.00188142 0.00364601 0.00659549 0.00648976 0.03318156 0.00288586 0.00275474 0.08249909 0.01434611 0.01576098 0.02298593 0.00125221 
0.02618128 0.06104982 0.01960579 0.00428324 0.00182636 0.00363934 0.00645592 0.00631156 0.03321599 0.00285661 0.00276960 0.08309310 0.01426087 0.01575879 0.02255783 0.00125448 
0.02722805 0.05975400 0.01906261 0.00429845 0.00177753 0.00363472 0.00632747 0.00613949 0.03324378 0.00282946 0.00278293 0.08383069 0.01418723 0.01575329 0.02214753 0.00125712 
0.02833676 0.05846698 0.01849755 0.00431174 0.00173487 0.00363222 0.00621059 0.00597424 0.03326520 0.00280447 0.00279472 0.08470639 0.01412467 0.01574466 0.02175701 0.00126011 
0.02950337 0.05719714 0.01791285 0.00432315 0.00169831 0.00363187 0.00610571 0.00581648 0.03328050 0.00278170 0.00280494 0.08571399 0.01407259 0.01573307 0.02138811 0.00126342 
0.03072360 0.05595278 0.01731080 0.00433270 0.00166774 0.00363370 0.00601317 0.00566684 0.03328986 0.00276120 0.00281355 0.08684662 0.01403031 0.01571869 0.02104256 0.00126701 
0.03199297 0.05474211 0.01669375 0.00434045 0.00164305 0.00363772 0.00593329 0.00552591 0.03329342 0.00274302 0.00282056 0.08809679 0.01399709 0.01570171 0.02072198 0.00127088 
0.03330676 0.05357314 0.01606405 0.00434646 0.00162407 0.00364394 0.00586628 0.00539424 0.03329125 0.00272721 0.00282595 0.08945643 0.01397213 0.01568231 0.02042783 0.00127499 
0.03466008 0.05245368 0.01542410 0.00435079 0.00161065 0.00365234 0.00581235 0.00527234 0.03328338 0.00271381 0.00282972 0.09091691 0.01395457 0.01566070 0.02016142 0.00127930 
0.03604789 0.05139129 0.01477629 0.00435350 0.00160258 0.00366289 0.00577160 0.00516067 0.03326979 0.00270286 0.00283188 0.09246912 0.01394350 0.01563706 0.01992394 0.00128380 
0.03746497 0.05039318 0.01412302 0.00435468 0.00159965 0.00367556 0.00574410 0.00505966 0.03325040 0.00269438 0.00283246 0.09410352 0.01393798 0.01561162 0.01971640 0.00128844 
0.03890599 0.04946624 0.01346667 0.00435442 0.00160164 0.00369029 0.00572985 0.00496971 0.03322511 0.00268842 0.00283147 0.09581018 0.01393705 0.01558455 0.01953966 0.00129321 
0.04036550 0.04861695 0.01280959 0.00435279 0.00160831 0.00370702 0.00572878 0.00489115 0.03319375 0.00268499 0.00282894 0.09757882 0.01393970 0.01555608 0.01939441 0.00129806 
0.04183795 0.04785138 0.01215412 0.00434988 0.00161939 0.00372568 0.00574079 0.00482431 0.03315612 0.00268413 0.00282492 0.09939894 0.01394492 0.01552641 0.01928118 0.00130298 
0.04331776 0.04717512 0.01150253 0.00434580 0.00163461 0.00374619 0.00576569 0.00476946 0.03311198 0.00268586 0.00281944 0.10125979 0.01395171 0.01549573 0.01920032 0.00130793 
0.04479928 0.04659325 0.01085705 0.00434064 0.00165370 0.00376844 0.00580326 0.00472684 0.03306107 0.00269020 0.00281257 0.10315049 0.01395904 0.01546424 0.01915203 0.00131288 
0.04627685 0.04611035 0.01021985 0.00433449 0.00167636 0.00379235 0.00585321 0.00469664 0.03300311 0.00269716 0.00280437 0.10506007 0.01396590 0.01543214 0.01913631 0.00131781 
0.04774480 0.04573043 0.00959302 0.00432745 0.00170231 0.00381780 0.00591520 0.00467906 0.03293778 0.00270677 0.00279490 0.10697755 0.01397130 0.01539960 0.01915301 0.00132268 
0.04919750 0.04545695 0.00897858 0.00431962 0.00173124 0.00384467 0.00598884 0.00467421 0.03286476 0.00271903 0.00278423 0.10889198 0.01397428 0.01536682 0.01920182 0.00132747 
0.05062938 0.04529276 0.00837847 0.00431110 0.00176285 0.00387284 0.00607369 0.00468222 0.03278371 0.00273396 0.00277245 0.11079252 0.01397389 0.01533395 0.01928223 0.00133216 
0.05203491 0.04524012 0.00779455 0.00430198 0.00179683 0.00390219 0.00616926 0.00470317 0.03269430 0.00275157 0.00275963 0.11266849 0.01396922 0.01530115 0.01939359 0.00133672 
0.05340869 0.04530067 0.00722856 0.00429235 0.00183288 0.00393257 0.00627503 0.00473711 0.03259620 0.00277185 0.00274588 0.11450944 0.01395942 0.01526856 0.01953509 0.00134112 
0.05474544 0.04547545 0.00668215 0.00428230 0.00187070 0.00396386 0.00639042 0.00478405 0.03248909 0.00279481 0.00273128 0.11630521 0.01394368 0.01523631 0.01970576 0.00134535 
0.05604000 0.04576486 0.00615688 0.00427192 0.00190998 0.00399591 0.00651483 0.00484402 0.03237267 0.00282045 0.00271594 0.11804600 0.01392122 0.01520452 0.01990448 0.00134939 
0.05728741 0.04616871 0.00565418 0.00426128 0.00195044 0.00402857 0.00664761 0.00491697 0.03224665 0.00284876 0.00269995 0.11972239 0.01389135 0.01517326 0.02013000 0.00135321 
0.05848286 0.04668618 0.00517540 0.00425047 0.00199177 0.00406171 0.00678809 0.00500286 0.03211078 0.00287972 0.00268342 0.12132542 0.01385343 0.01514263 0.02038090 0.00135680 
0.05962180 0.04731586 0.00472176 0.00423955 0.00203371 0.00409517 0.00693555 0.00510163 0.03196485 0.00291332 0.00266647 0.12284667 0.01380688 0.01511266 0.02065567 0.00136015 
0.06069986 0.04805576 0.00429436 0.00422861 0.00207598 0.00412882 0.00708928 0.00521317 0.03180867 0.00294955 0.00264920 0.12427823 0.01375120 0.01508341 0.02095268 0.00136324 
0.06171296 0.04890330 0.00389422 0.00421768 0.00211831 0.00416249 0.00724851 0.00533738 0.03164213 0.00298836 0.00263172 0.12561283 0.01368594 0.01505488 0.02127015 0.00136606 
0.06265726 0.04985538 0.00352221 0.00420684 0.00216045 0.00419605 0.00741247 0.00547412 0.03146513 0.00302973 0.00261414 0.12684383 0.01361075 0.01502706 0.02160624 0.00136859 
0.06352924 0.05090836 0.00317912 0.00419614 0.00220217 0.00422936 0.00758038 0.00562322 0.03127765 0.00307361 0.00259659 0.12796527 0.01352535 0.01499992 0.02195902 0.00137085 
0.06432565 0.05205812 0.00286560 0.00418562 0.00224323 0.00426227 0.00775145 0.00578452 0.03107974 0.00311996 0.00257915 0.12897192 0.01342953 0.01497341 0.02232644 0.00137280 
0.06504359 0.05330005 0.00258223 0.00417533 0.00228342 0.00429463 0.00792486 0.00595781 0.03087148 0.00316872 0.00256196 0.12985928 0.01332315 0.01494744 0.02270644 0.00137446 
0.06568045 0.05462912 0.00232946 0.00416530 0.00232254 0.00432632 0.00809981 0.00614286 0.03065304 0.00321981 0.00254511 0.13062365 0.01320617 0.01492194 0.02309686 0.00137582 
0.06623400 0.05603990 0.00210764 0.00415556 0.00236040 0.00435719 0.00827549 0.00633943 0.03042466 0.00327318 0.00252870 0.13126209 0.01307860 0.01489676 0.02349552 0.00137688 
0.06670235 0.05752659 0.00191703 0.00414615 0.00239682 0.00438713 0.00845110 0.00654725 0.03018665 0.00332872 0.00251285 0.13177249 0.01294056 0.01487177 0.02390018 0.00137764 
0.06708395 0.05908307 0.00175779 0.00413708 0.00243166 0.00441599 0.00862582 0.00676603 0.02993938 0.00338635 0.00249763 0.13215357 0.01279220 0.01484682 0.02430863 0.00137810 
0.06737766 0.06070291 0.00162999 0.00412839 0.00246478 0.00444366 0.00879889 0.00699545 0.02968330 0.00344597 0.00248315 0.13240487 0.01263379 0.01482171 0.02471860 0.00137827 
0.06758268 0.06237948 0.00153361 0.00412009 0.00249603 0.00447003 0.00896951 0.00723517 0.02941894 0.00350745 0.00246949 0.13252676 0.01246563 0.01479627 0.02512786 0.00137815 
0.06769858 0.06410589 0.00146855 0.00411218 0.00252532 0.00449497 0.00913694 0.00748482 0.02914690 0.00357067 0.00245672 0.13252044 0.01228812 0.01477026 0.02553418 0.00137776 
0.06772533 0.06587511 0.00143466 0.00410470 0.00255256 0.00451839 0.00930043 0.00774399 0.02886784 0.00363550 0.00244492 0.13238793 0.01210170 0.01474348 0.02593536 0.00137709 
0.06766325 0.06768000 0.00143167 0.00409765 0.00257765 0.00454017 0.00945928 0.00801227 0.02858251 0.00370178 0.00243416 0.13213207 0.01190689 0.01471569 0.02632927 0.00137616 
0.06751304 0.06951331 0.00145928 0.00409105 0.00260054 0.00456023 0.00961278 0.00828919 0.02829170 0.00376936 0.00242448 0.13175649 0.01170425 0.01468663 0.02671380 0.00137498 
0.06727576 0.07136777 0.00151711 0.00408489 0.00262117 0.00457847 0.00976029 0.00857427 0.02799630 0.00383806 0.00241595 0.13126558 0.01149442 0.01465607 0.02708693 0.00137357 
0.06695285 0.07323610 0.00160474 0.00407921 0.00263952 0.00459482 0.00990118 0.00886699 0.02769722 0.00390770 0.00240859 0.13066447 0.01127806 0.01462375 0.02744669 0.00137194 
0.06654606 0.07511107 0.00172168 0.00407401 0.00265556 0.00460918 0.01003486 0.00916679 0.02739546 0.00397810 0.00240244 0.12995903 0.01105588 0.01458941 0.02779123 0.00137009 
0.06605751 0.07698550 0.00186740 0.00406930 0.00266927 0.00462150 0.01016076 0.00947308 0.02709203 0.00404904 0.00239752 0.12915578 0.01082866 0.01455281 0.02811878 0.00136805 
0.06548962 0.07885237 0.00204133 0.00406510 0.00268068 0.00463170 0.01027838 0.00978526 0.02678804 0.00412032 0.00239384 0.12826190 0.01059718 0.01451369 0.02842768 0.00136584 
0.06484515 0.08070476 0.00224286 0.00406143 0.00268979 0.00463973 0.01038723 0.01010265 0.02648458 0.00419171 0.00239140 0.12728514 0.01036228 0.01447183 0.02871640 0.00136347 
0.06412712 0.08253597 0.00247134 0.00405831 0.00269664 0.00464554 0.01048689 0.01042458 0.02618280 0.00426299 0.00239021 0.12623383 0.01012479 0.01442699 0.02898351 0.00136095 
0.06333885 0.08433949 0.00272611 0.00405576 0.00270126 0.00464908 0.01057696 0.01075031 0.02588389 0.00433391 0.00239023 0.12511679 0.00988559 0.01437896 0.02922775 0.00135830 
0.06248391 0.08610907 0.00300645 0.00405380 0.00270370 0.00465031 0.01065711 0.01107909 0.02558903 0.00440423 0.00239144 0.12394327 0.00964557 0.01432756 0.02944798 0.00135555 
0.06156611 0.08783872 0.00331164 0.00405248 0.00270403 0.00464922 0.01072703 0.01141012 0.02529942 0.00447370 0.00239382 0.12272293 0.00940564 0.01427260 0.02964319 0.00135270 
0.06058948 0.08952275 0.00364094 0.00405181 0.00270231 0.00464577 0.01078648 0.01174258 0.02501627 0.00454206 0.00239730 0.12146576 0.00916668 0.01421394 0.02981257 0.00134979 
0.05955822 0.09115577 0.00399358 0.00405184 0.00269861 0.00463996 0.01083526 0.01207560 0.02474077 0.00460905 0.00240185 0.12018202 0.00892962 0.01415145 0.02995542 0.00134681 
0.05847673 0.09273276 0.00436879 0.00405261 0.00269304 0.00463177 0.01087322 0.01240829 0.02447411 0.00467441 0.00240739 0.11888218 0.00869535 0.01408504 0.03007123 0.00134380 
0.05734953 0.09424902 0.00476578 0.00405415 0.00268566 0.00462121 0.01090025 0.01273974 0.02421745 0.00473787 0.00241387 0.11757685 0.00846477 0.01401464 0.03015964 0.00134076 
0.05618127 0.09570021 0.00518374 0.00405651 0.00267658 0.00460829 0.01091631 0.01306900 0.02397192 0.00479917 0.00242119 0.11627675 0.00823875 0.01394023 0.03022046 0.00133773 
0.05497671 0.09708240 0.00562185 0.00405975 0.00266591 0.00459303 0.01092138 0.01339510 0.02373862 0.00485805 0.00242928 0.11499258 0.00801817 0.01386180 0.03025367 0.00133470 
0.05374066 0.09839201 0.00607929 0.00406390 0.00265373 0.00457545 0.01091552 0.01371704 0.02351860 0.00491424 0.00243804 0.11373502 0.00780387 0.01377940 0.03025941 0.00133170 
