0.00352220 0.00255206 0.00254773 0.01138462 0.00092269 0.00401434 0.00358824 0.00546815 0.00320376 0.00269032 0.00395807 0.00563237 0.00372561 0.00225574 0.02618344 0.00091735 
0.00356590 0.00256509 0.00250432 0.01120259 0.00091824 0.00401686 0.00353582 0.00554558 0.00317318 0.00268717 0.00396750 0.00560745 0.00370953 0.00224711 0.02613980 0.00092661 
0.00360594 0.00257480 0.00245860 0.01100542 0.00091264 0.00401486 0.00347867 0.00561549 0.00313851 0.00268139 0.00397257 0.00557222 0.00369016 0.00223654 0.02607630 0.00093502 
0.00364237 0.00258131 0.00241101 0.01079458 0.00090600 0.00400859 0.00341729 0.00567783 0.00310011 0.00267320 0.00397357 0.00552692 0.00366782 0.00222425 0.02599503 0.00094261 
0.00367526 0.00258475 0.00236202 0.01057157 0.00089841 0.00399831 0.00335217 0.00573257 0.00305831 0.00266287 0.00397083 0.00547187 0.00364283 0.00221043 0.02589799 0.00094939 
0.00370465 0.00258528 0.00231207 0.01033790 0.00088997 0.00398429 0.00328382 0.00577970 0.00301345 0.00265066 0.00396467 0.00540739 0.00361552 0.00219528 0.02578704 0.00095537 
0.00373063 0.00258303 0.00226164 0.01009514 0.00088078 0.00396681 0.00321278 0.00581923 0.00296589 0.00263682 0.00395542 0.00533385 0.00358618 0.00217901 0.02566391 0.00096056 
0.00375326 0.00257816 0.00221117 0.00984484 0.00087095 0.00394619 0.00313956 0.00585119 0.00291596 0.00262163 0.00394343 0.00525166 0.00355511 0.00216181 0.02553024 0.00096500 
0.00377260 0.00257083 0.00216113 0.00958856 0.00086059 0.00392272 0.00306470 0.00587565 0.00286401 0.00260534 0.00392905 0.00516124 0.00352261 0.00214385 0.02538748 0.00096868 
0.00378874 0.00256122 0.00211196 0.00932788 0.00084980 0.00389674 0.00298873 0.00589271 0.00281039 0.00258824 0.00391261 0.00506304 0.00348895 0.00212533 0.02523698 0.00097164 
0.00380175 0.00254949 0.00206411 0.00906434 0.00083868 0.00386858 0.00291216 0.00590245 0.00275541 0.00257058 0.00389446 0.00495757 0.00345441 0.00210641 0.02507994 0.00097388 
0.00381170 0.00253581 0.00201800 0.00879948 0.00082735 0.00383856 0.00283554 0.00590502 0.00269942 0.00255263 0.00387494 0.00484533 0.00341923 0.00208726 0.02491744 0.00097542 
0.00381869 0.00252036 0.00197405 0.00853479 0.00081590 0.00380704 0.00275937 0.00590058 0.00264271 0.00253464 0.00385440 0.00472686 0.00338365 0.00206802 0.02475040 0.00097630 
0.00382277 0.00250332 0.00193267 0.00827175 0.00080443 0.00377436 0.00268416 0.00588930 0.00258560 0.00251687 0.00383317 0.00460273 0.00334791 0.00204886 0.02457962 0.00097651 
0.00382405 0.00248486 0.00189422 0.00801178 0.00079305 0.00374086 0.00261040 0.00587138 0.00252839 0.00249954 0.00381158 0.00447352 0.00331222 0.00202989 0.02440579 0.00097608 
0.00382259 0.00246515 0.00185907 0.00775624 0.00078186 0.00370689 0.00253857 0.00584705 0.00247136 0.00248289 0.00378994 0.00433984 0.00327677 0.00201125 0.02422945 0.00097503 
0.00381848 0.00244438 0.00182757 0.00750646 0.00077093 0.00367280 0.00246915 0.00581655 0.00241477 0.00246713 0.00376858 0.00420231 0.00324176 0.00199305 0.02405104 0.00097338 
0.00381181 0.00242271 0.00180002 0.00726367 0.00076037 0.00363892 0.00240256 0.00578014 0.00235888 0.00245248 0.00374779 0.00406157 0.00320734 0.00197538 0.02387089 0.00097115 
0.00380266 0.00240031 0.00177671 0.00702908 0.00075025 0.00360559 0.00233923 0.00573810 0.00230394 0.00243910 0.00372786 0.00391826 0.00317368 0.00195835 0.02368924 0.00096835 
0.00379110 0.00237735 0.00175790 0.00680377 0.00074066 0.00357314 0.00227956 0.00569075 0.00225017 0.00242719 0.00370906 0.00377306 0.00314091 0.00194203 0.02350621 0.00096501 
0.00377723 0.00235398 0.00174383 0.00658878 0.00073168 0.00354189 0.00222392 0.00563839 0.00219777 0.00241690 0.00369167 0.00362664 0.00310916 0.00192649 0.02332187 0.00096114 
0.00376113 0.00233036 0.00173469 0.00638504 0.00072336 0.00351215 0.00217265 0.00558137 0.00214695 0.00240837 0.00367592 0.00347966 0.00307854 0.00191179 0.02313621 0.00095676 
0.00374289 0.00230664 0.00173064 0.00619342 0.00071577 0.00348422 0.00212608 0.00552003 0.00209787 0.00240171 0.00366206 0.00333282 0.00304915 0.00189797 0.02294916 0.00095190 
0.00372258 0.00228295 0.00173183 0.00601467 0.00070898 0.00345838 0.00208448 0.00545474 0.00205070 0.00239704 0.00365030 0.00318678 0.00302107 0.00188506 0.02276058 0.00094657 
0.00370030 0.00225944 0.00173836 0.00584946 0.00070304 0.00343492 0.00204811 0.00538589 0.00200559 0.00239443 0.00364084 0.00304225 0.00299437 0.00187310 0.02257032 0.00094079 
0.00367614 0.00223622 0.00175030 0.00569837 0.00069798 0.00341408 0.00201720 0.00531385 0.00196266 0.00239395 0.00363388 0.00289987 0.00296911 0.00186209 0.02237819 0.00093459 
0.00365017 0.00221342 0.00176767 0.00556187 0.00069384 0.00339613 0.00199193 0.00523903 0.00192201 0.00239566 0.00362957 0.00276034 0.00294534 0.00185204 0.02218398 0.00092798 
0.00362250 0.00219115 0.00179048 0.00544035 0.00069067 0.00338127 0.00197245 0.00516184 0.00188375 0.00239957 0.00362808 0.00262430 0.00292309 0.00184296 0.02198748 0.00092099 
0.00359320 0.00216950 0.00181870 0.00533409 0.00068848 0.00336973 0.00195888 0.00508270 0.00184796 0.00240569 0.00362953 0.00249240 0.00290239 0.00183481 0.02178848 0.00091363 
0.00356238 0.00214857 0.00185225 0.00524328 0.00068729 0.00336169 0.00195131 0.00500201 0.00181469 0.00241401 0.00363405 0.00236527 0.00288325 0.00182760 0.02158678 0.00090594 
0.00353012 0.00212844 0.00189104 0.00516801 0.00068712 0.00335734 0.00194979 0.00492022 0.00178401 0.00242450 0.00364174 0.00224352 0.00286568 0.00182127 0.02138221 0.00089793 
0.00349651 0.00210918 0.00193493 0.00510828 0.00068796 0.00335681 0.00195431 0.00483774 0.00175593 0.00243712 0.00365268 0.00212774 0.00284968 0.00181581 0.02117463 0.00088963 
0.00346166 0.00209086 0.00198375 0.00506400 0.00068982 0.00336026 0.00196487 0.00475500 0.00173050 0.00245179 0.00366693 0.00201851 0.00283525 0.00181118 0.02096396 0.00088107 
0.00342567 0.00207352 0.00203731 0.00503499 0.00069269 0.00336778 0.00198140 0.00467242 0.00170770 0.00246845 0.00368456 0.00191636 0.00282235 0.00180732 0.02075013 0.00087226 
0.00338862 0.00205723 0.00209539 0.00502098 0.00069655 0.00337949 0.00200381 0.00459043 0.00168755 0.00248698 0.00370559 0.00182180 0.00281099 0.00180418 0.02053316 0.00086323 
0.00335063 0.00204199 0.00215773 0.00502163 0.00070139 0.00339544 0.00203197 0.00450944 0.00167002 0.00250728 0.00373005 0.00173533 0.00280113 0.00180173 0.02031311 0.00085402 
0.00331180 0.00202786 0.00222405 0.00503652 0.00070716 0.00341569 0.00206572 0.00442985 0.00165510 0.00252923 0.00375794 0.00165739 0.00279273 0.00179989 0.02009012 0.00084464 
0.00327223 0.00201483 0.00229405 0.00506516 0.00071385 0.00344029 0.00210488 0.00435208 0.00164275 0.00255268 0.00378923 0.00158839 0.00278578 0.00179861 0.01986440 0.00083513 
0.00323203 0.00200292 0.00236741 0.00510698 0.00072141 0.00346922 0.00214922 0.00427650 0.00163293 0.00257748 0.00382392 0.00152872 0.00278023 0.00179783 0.01963623 0.00082551 
0.00319132 0.00199213 0.00244377 0.00516137 0.00072980 0.00350250 0.00219849 0.00420350 0.00162558 0.00260348 0.00386195 0.00147870 0.00277605 0.00179749 0.01940596 0.00081581 
0.00315021 0.00198245 0.00252277 0.00522765 0.00073898 0.00354008 0.00225242 0.00413344 0.00162065 0.00263051 0.00390327 0.00143865 0.00277320 0.00179753 0.01917402 0.00080607 
0.00310880 0.00197386 0.00260404 0.00530509 0.00074887 0.00358193 0.00231070 0.00406667 0.00161808 0.00265840 0.00394781 0.00140880 0.00277164 0.00179789 0.01894092 0.00079631 
0.00306723 0.00196633 0.00268718 0.00539293 0.00075944 0.00362797 0.00237301 0.00400351 0.00161781 0.00268695 0.00399548 0.00138938 0.00277132 0.00179851 0.01870724 0.00078656 
0.00302561 0.00195984 0.00277178 0.00549035 0.00077062 0.00367812 0.00243901 0.00394428 0.00161975 0.00271599 0.00404620 0.00138054 0.00277221 0.00179933 0.01847363 0.00077685 
0.00298406 0.00195435 0.00285743 0.00559653 0.00078234 0.00373226 0.00250833 0.00388927 0.00162383 0.00274532 0.00409986 0.00138241 0.00277426 0.00180030 0.01824083 0.00076722 
0.00294270 0.00194980 0.00294372 0.00571060 0.00079453 0.00379029 0.00258058 0.00383875 0.00162998 0.00277475 0.00415633 0.00139506 0.00277744 0.00180137 0.01800961 0.00075770 
0.00290167 0.00194617 0.00303022 0.00583169 0.00080714 0.00385205 0.00265538 0.00379297 0.00163811 0.00280410 0.00421548 0.00141850 0.00278170 0.00180249 0.01778084 0.00074831 
0.00286107 0.00194338 0.00311650 0.00595890 0.00082007 0.00391739 0.00273231 0.00375215 0.00164814 0.00283317 0.00427719 0.00145272 0.00278701 0.00180362 0.01755541 0.00073909 
0.00282105 0.00194138 0.00320215 0.00609135 0.00083327 0.00398614 0.00281095 0.00371649 0.00166000 0.00286176 0.00434129 0.00149763 0.00279333 0.00180471 0.01733428 0.00073007 
0.00278172 0.00194012 0.00328675 0.00622813 0.00084665 0.00405812 0.00289089 0.00368617 0.00167359 0.00288970 0.00440763 0.00155312 0.00280063 0.00180572 0.01711844 0.00072127 
0.00274322 0.00193951 0.00336988 0.00636836 0.00086014 0.00413312 0.00297169 0.00366133 0.00168883 0.00291681 0.00447604 0.00161901 0.00280886 0.00180663 0.01690891 0.00071274 
0.00270566 0.00193950 0.00345115 0.00651117 0.00087366 0.00421092 0.00305293 0.00364208 0.00170566 0.00294290 0.00454635 0.00169508 0.00281799 0.00180741 0.01670675 0.00070450 
0.00266919 0.00194002 0.00353015 0.00665570 0.00088714 0.00429131 0.00313417 0.00362853 0.00172397 0.00296781 0.00461836 0.00178106 0.00282799 0.00180804 0.01651301 0.00069657 
0.00263391 0.00194100 0.00360652 0.00680113 0.00090049 0.00437404 0.00321499 0.00362073 0.00174371 0.00299138 0.00469190 0.00187664 0.00283882 0.00180849 0.01632876 0.00068898 
0.00259996 0.00194236 0.00367989 0.00694665 0.00091366 0.00445887 0.00329496 0.00361871 0.00176478 0.00301345 0.00476675 0.00198145 0.00285046 0.00180876 0.01615506 0.00068177 
0.00256746 0.00194403 0.00374992 0.00709149 0.00092655 0.00454554 0.00337368 0.00362249 0.00178712 0.00303389 0.00484273 0.00209509 0.00286286 0.00180884 0.01599297 0.00067496 
0.00253652 0.00194595 0.00381628 0.00723493 0.00093911 0.00463379 0.00345075 0.00363204 0.00181065 0.00305256 0.00491961 0.00221711 0.00287600 0.00180872 0.01584350 0.00066856 
0.00250727 0.00194803 0.00387867 0.00737628 0.00095126 0.00472334 0.00352577 0.00364730 0.00183531 0.00306934 0.00499719 0.00234702 0.00288985 0.00180841 0.01570764 0.00066261 
0.00247980 0.00195022 0.00393681 0.00751488 0.00096293 0.00481392 0.00359837 0.00366820 0.00186103 0.00308413 0.00507526 0.00248430 0.00290437 0.00180792 0.01558633 0.00065713 
0.00245424 0.00195245 0.00399044 0.00765016 0.00097406 0.00490524 0.00366819 0.00369462 0.00188774 0.00309682 0.00515358 0.00262837 0.00291953 0.00180725 0.01548046 0.00065213 
0.00243067 0.00195466 0.00403933 0.00778156 0.00098459 0.00499701 0.00373490 0.00372644 0.00191538 0.00310733 0.00523194 0.00277864 0.00293528 0.00180641 0.01539085 0.00064763 
0.00240920 0.00195678 0.00408328 0.00790860 0.00099446 0.00508895 0.00379819 0.00376348 0.00194389 0.00311560 0.00531010 0.00293448 0.00295161 0.00180544 0.01531826 0.00064365 
0.00238992 0.00195876 0.00412211 0.00803083 0.00100361 0.00518077 0.00385775 0.00380557 0.00197322 0.00312156 0.00538785 0.00309521 0.00296845 0.00180435 0.01526334 0.00064020 
0.00237292 0.00196054 0.00415568 0.00814787 0.00101200 0.00527216 0.00391331 0.00385247 0.00200331 0.00312516 0.00546495 0.00326017 0.00298579 0.00180316 0.01522668 0.00063729 
0.00235826 0.00196208 0.00418387 0.00825941 0.00101959 0.00536284 0.00396464 0.00390397 0.00203409 0.00312638 0.00554118 0.00342863 0.00300357 0.00180191 0.01520874 0.00063494 
0.00234601 0.00196334 0.00420659 0.00836517 0.00102632 0.00545252 0.00401150 0.00395980 0.00206553 0.00312520 0.00561631 0.00359987 0.00302175 0.00180063 0.01520991 0.00063314 
0.00233625 0.00196427 0.00422377 0.00846494 0.00103216 0.00554091 0.00405372 0.00401967 0.00209757 0.00312162 0.00569010 0.00377314 0.00304027 0.00179935 0.01523045 0.00063191 
0.00232901 0.00196484 0.00423540 0.00855856 0.00103708 0.00562772 0.00409114 0.00408329 0.00213015 0.00311563 0.00576234 0.00394768 0.00305910 0.00179811 0.01527050 0.00063125 
0.00232434 0.00196502 0.00424146 0.00864594 0.00104105 0.00571267 0.00412360 0.00415034 0.00216323 0.00310727 0.00583280 0.00412272 0.00307816 0.00179694 0.01533009 0.00063115 
0.00232227 0.00196480 0.00424200 0.00872703 0.00104405 0.00579549 0.00415102 0.00422047 0.00219676 0.00309656 0.00590126 0.00429749 0.00309741 0.00179588 0.01540912 0.00063162 
0.00232282 0.00196415 0.00423707 0.00880183 0.00104606 0.00587590 0.00417332 0.00429335 0.00223068 0.00308355 0.00596750 0.00447120 0.00311679 0.00179497 0.01550736 0.00063265 
0.00232601 0.00196306 0.00422675 0.00887039 0.00104707 0.00595365 0.00419045 0.00436861 0.00226494 0.00306829 0.00603132 0.00464309 0.00313622 0.00179425 0.01562446 0.00063423 
0.00233184 0.00196153 0.00421117 0.00893281 0.00104707 0.00602849 0.00420240 0.00444587 0.00229949 0.00305085 0.00609250 0.00481237 0.00315565 0.00179375 0.01575994 0.00063635 
0.00234028 0.00195956 0.00419045 0.00898924 0.00104605 0.00610016 0.00420917 0.00452475 0.00233428 0.00303131 0.00615084 0.00497830 0.00317499 0.00179353 0.01591320 0.00063901 
0.00235133 0.00195715 0.00416477 0.00903986 0.00104402 0.00616843 0.00421082 0.00460486 0.00236924 0.00300975 0.00620615 0.00514011 0.00319418 0.00179361 0.01608348 0.00064218 
0.00236494 0.00195432 0.00413430 0.00908489 0.00104099 0.00623308 0.00420741 0.00468580 0.00240433 0.00298625 0.00625823 0.00529708 0.00321313 0.00179403 0.01626994 0.00064586 
0.00238107 0.00195107 0.00409928 0.00912459 0.00103696 0.00629391 0.00419904 0.00476717 0.00243948 0.00296094 0.00630691 0.00544848 0.00323177 0.00179483 0.01647158 0.00065002 
0.00239966 0.00194744 0.00405991 0.00915924 0.00103195 0.00635070 0.00418583 0.00484858 0.00247462 0.00293391 0.00635201 0.00559364 0.00325001 0.00179603 0.01668731 0.00065464 
0.00242064 0.00194346 0.00401646 0.00918914 0.00102599 0.00640328 0.00416793 0.00492962 0.00250970 0.00290527 0.00639336 0.00573188 0.00326777 0.00179768 0.01691591 0.00065971 
0.00244393 0.00193914 0.00396919 0.00921462 0.00101909 0.00645147 0.00414551 0.00500989 0.00254463 0.00287515 0.00643082 0.00586257 0.00328495 0.00179979 0.01715608 0.00066519 
0.00246943 0.00193453 0.00391838 0.00923604 0.00101128 0.00649512 0.00411876 0.00508900 0.00257936 0.00284368 0.00646422 0.00598510 0.00330148 0.00180240 0.01740639 0.00067107 
0.00249704 0.00192967 0.00386434 0.00925376 0.00100260 0.00653408 0.00408790 0.00516657 0.00261379 0.00281098 0.00649344 0.00609892 0.00331726 0.00180553 0.01766533 0.00067731 
0.00252665 0.00192460 0.00380736 0.00926813 0.00099308 0.00656823 0.00405315 0.00524223 0.00264786 0.00277719 0.00651834 0.00620348 0.00333220 0.00180920 0.01793133 0.00068389 
0.00255812 0.00191937 0.00374776 0.00927954 0.00098276 0.00659746 0.00401477 0.00531559 0.00268148 0.00274243 0.00653881 0.00629830 0.00334622 0.00181342 0.01820270 0.00069077 
0.00259132 0.00191403 0.00368588 0.00928835 0.00097169 0.00662167 0.00397302 0.00538632 0.00271457 0.00270685 0.00655474 0.00638294 0.00335922 0.00181820 0.01847773 0.00069792 
0.00262610 0.00190863 0.00362203 0.00929494 0.00095991 0.00664079 0.00392817 0.00545407 0.00274703 0.00267059 0.00656604 0.00645700 0.00337112 0.00182356 0.01875464 0.00070532 
0.00266230 0.00190323 0.00355656 0.00929966 0.00094747 0.00665476 0.00388052 0.00551851 0.00277877 0.00263377 0.00657262 0.00652012 0.00338184 0.00182951 0.01903159 0.00071293 
0.00269975 0.00189789 0.00348979 0.00930285 0.00093442 0.00666352 0.00383036 0.00557934 0.00280970 0.00259654 0.00657441 0.00657200 0.00339129 0.00183603 0.01930674 0.00072071 
0.00273828 0.00189265 0.00342205 0.00930487 0.00092081 0.00666707 0.00377799 0.00563627 0.00283973 0.00255903 0.00657134 0.00661239 0.00339940 0.00184313 0.01957820 0.00072863 
0.00277771 0.00188760 0.00335369 0.00930600 0.00090670 0.00666539 0.00372372 0.00568902 0.00286874 0.00252138 0.00656338 0.00664107 0.00340610 0.00185081 0.01984409 0.00073666 
0.00281785 0.00188277 0.00328502 0.00930655 0.00089215 0.00665849 0.00366787 0.00573736 0.00289663 0.00248371 0.00655048 0.00665790 0.00341131 0.00185905 0.02010252 0.00074476 
0.00285850 0.00187824 0.00321636 0.00930678 0.00087722 0.00664640 0.00361075 0.00578105 0.00292331 0.00244616 0.00653262 0.00666278 0.00341498 0.00186783 0.02035162 0.00075289 
0.00289946 0.00187406 0.00314802 0.00930694 0.00086195 0.00662917 0.00355267 0.00581989 0.00294867 0.00240885 0.00650979 0.00665566 0.00341705 0.00187714 0.02058954 0.00076102 
0.00294052 0.00187028 0.00308030 0.00930721 0.00084643 0.00660684 0.00349393 0.00585370 0.00297261 0.00237190 0.00648198 0.00663654 0.00341747 0.00188694 0.02081447 0.00076912 
0.00298148 0.00186697 0.00301350 0.00930780 0.00083069 0.00657952 0.00343484 0.00588231 0.00299500 0.00233542 0.00644922 0.00660548 0.00341620 0.00189722 0.02102464 0.00077714 
0.00302212 0.00186419 0.00294787 0.00930882 0.00081482 0.00654727 0.00337570 0.00590561 0.00301576 0.00229953 0.00641152 0.00656259 0.00341322 0.00190795 0.02121834 0.00078506 
0.00306223 0.00186197 0.00288369 0.00931040 0.00079886 0.00651023 0.00331679 0.00592347 0.00303478 0.00226433 0.00636892 0.00650803 0.00340850 0.00191907 0.02139395 0.00079283 
0.00310160 0.00186039 0.00282119 0.00931260 0.00078289 0.00646852 0.00325840 0.00593582 0.00305195 0.00222993 0.00632147 0.00644201 0.00340203 0.00193056 0.02154990 0.00080044 
0.00314002 0.00185947 0.00276060 0.00931545 0.00076695 0.00642227 0.00320078 0.00594261 0.00306718 0.00219641 0.00626924 0.00636477 0.00339380 0.00194236 0.02168471 0.00080784 
0.00317726 0.00185927 0.00270213 0.00931897 0.00075111 0.00637164 0.00314419 0.00594379 0.00308037 0.00216387 0.00621229 0.00627662 0.00338383 0.00195443 0.02179703 0.00081500 
0.00321313 0.00185982 0.00264596 0.00932310 0.00073544 0.00631680 0.00308887 0.00593936 0.00309142 0.00213238 0.00615071 0.00617791 0.00337214 0.00196672 0.02188558 0.00082190 
0.00324742 0.00186117 0.00259226 0.00932778 0.00071998 0.00625793 0.00303503 0.00592933 0.00310025 0.00210204 0.00608461 0.00606903 0.00335875 0.00197917 0.02194922 0.00082851 
0.00327993 0.00186335 0.00254119 0.00933289 0.00070479 0.00619523 0.00298289 0.00591375 0.00310677 0.00207290 0.00601408 0.00595040 0.00334372 0.00199171 0.02198690 0.00083479 
0.00331046 0.00186638 0.00249285 0.00933830 0.00068994 0.00612889 0.00293263 0.00589269 0.00311091 0.00204502 0.00593926 0.00582250 0.00332708 0.00200430 0.02199773 0.00084072 
0.00333883 0.00187029 0.00244736 0.00934383 0.00067546 0.00605915 0.00288442 0.00586622 0.00311259 0.00201847 0.00586027 0.00568581 0.00330892 0.00201685 0.02198094 0.00084629 
0.00336485 0.00187510 0.00240481 0.00934927 0.00066142 0.00598621 0.00283840 0.00583446 0.00311175 0.00199330 0.00577726 0.00554089 0.00328931 0.00202931 0.02193590 0.00085145 
0.00338836 0.00188083 0.00236524 0.00935440 0.00064786 0.00591031 0.00279472 0.00579753 0.00310833 0.00196955 0.00569038 0.00538827 0.00326833 0.00204160 0.02186212 0.00085621 
0.00340919 0.00188747 0.00232870 0.00935896 0.00063484 0.00583170 0.00275346 0.00575559 0.00310228 0.00194725 0.00559980 0.00522857 0.00324609 0.00205365 0.02175925 0.00086053 
0.00342720 0.00189504 0.00229521 0.00936266 0.00062238 0.00575061 0.00271474 0.00570880 0.00309358 0.00192644 0.00550571 0.00506238 0.00322270 0.00206538 0.02162710 0.00086440 
0.00344224 0.00190354 0.00226477 0.00936521 0.00061054 0.00566730 0.00267861 0.00565734 0.00308218 0.00190714 0.00540828 0.00489034 0.00319828 0.00207672 0.02146562 0.00086780 
0.00345419 0.00191296 0.00223735 0.00936630 0.00059935 0.00558203 0.00264512 0.00560143 0.00306807 0.00188938 0.00530772 0.00471310 0.00317296 0.00208758 0.02127492 0.00087073 
0.00346294 0.00192329 0.00221291 0.00936558 0.00058885 0.00549504 0.00261430 0.00554128 0.00305123 0.00187315 0.00520425 0.00453131 0.00314689 0.00209789 0.02105524 0.00087317 
0.00346837 0.00193451 0.00219139 0.00936272 0.00057907 0.00540661 0.00258616 0.00547711 0.00303168 0.00185848 0.00509807 0.00434565 0.00312021 0.00210757 0.02080699 0.00087511 
0.00347042 0.00194660 0.00217271 0.00935738 0.00057003 0.00531699 0.00256069 0.00540917 0.00300942 0.00184536 0.00498943 0.00415680 0.00309308 0.00211654 0.02053071 0.00087655 
0.00346901 0.00195955 0.00215678 0.00934922 0.00056178 0.00522644 0.00253786 0.00533773 0.00298449 0.00183379 0.00487857 0.00396543 0.00306568 0.00212471 0.02022710 0.00087748 
0.00346408 0.00197331 0.00214348 0.00933787 0.00055432 0.00513523 0.00251762 0.00526303 0.00295691 0.00182376 0.00476574 0.00377223 0.00303817 0.00213201 0.01989697 0.00087789 
0.00345559 0.00198785 0.00213270 0.00932301 0.00054768 0.00504360 0.00249991 0.00518536 0.00292674 0.00181526 0.00465121 0.00357787 0.00301072 0.00213836 0.01954130 0.00087780 
0.00344352 0.00200314 0.00212429 0.00930429 0.00054188 0.00495182 0.00248465 0.00510499 0.00289403 0.00180826 0.00453524 0.00338303 0.00298353 0.00214367 0.01916118 0.00087721 
0.00342788 0.00201913 0.00211811 0.00928141 0.00053692 0.00486012 0.00247174 0.00502221 0.00285887 0.00180275 0.00441812 0.00318837 0.00295677 0.00214788 0.01875783 0.00087610 
0.00340865 0.00203577 0.00211399 0.00925405 0.00053282 0.00476876 0.00246107 0.00493730 0.00282134 0.00179870 0.00430014 0.00299454 0.00293064 0.00215091 0.01833258 0.00087451 
0.00338588 0.00205302 0.00211178 0.00922194 0.00052958 0.00467797 0.00245253 0.00485056 0.00278154 0.00179607 0.00418161 0.00280217 0.00290532 0.00215269 0.01788689 0.00087242 
0.00335960 0.00207081 0.00211130 0.00918481 0.00052719 0.00458797 0.00244598 0.00476228 0.00273957 0.00179485 0.00406283 0.00261190 0.00288101 0.00215314 0.01742230 0.00086985 
0.00332988 0.00208909 0.00211237 0.00914243 0.00052567 0.00449900 0.00244128 0.00467276 0.00269557 0.00179498 0.00394411 0.00242430 0.00285788 0.00215221 0.01694046 0.00086683 
0.00329678 0.00210779 0.00211480 0.00909459 0.00052501 0.00441125 0.00243829 0.00458228 0.00264966 0.00179643 0.00382580 0.00223997 0.00283612 0.00214983 0.01644311 0.00086335 
0.00326041 0.00212687 0.00211842 0.00904112 0.00052519 0.00432494 0.00243684 0.00449114 0.00260199 0.00179916 0.00370822 0.00205946 0.00281592 0.00214594 0.01593204 0.00085943 
0.00322087 0.00214624 0.00212304 0.00898188 0.00052621 0.00424025 0.00243677 0.00439961 0.00255273 0.00180313 0.00359171 0.00188329 0.00279744 0.00214049 0.01540913 0.00085510 
0.00317828 0.00216584 0.00212847 0.00891678 0.00052805 0.00415736 0.00243792 0.00430798 0.00250203 0.00180828 0.00347661 0.00171197 0.00278087 0.00213344 0.01487633 0.00085037 
0.00313279 0.00218561 0.00213454 0.00884574 0.00053069 0.00407645 0.00244011 0.00421653 0.00245007 0.00181456 0.00336329 0.00154596 0.00276635 0.00212474 0.01433561 0.00084526 
0.00308453 0.00220547 0.00214107 0.00876875 0.00053410 0.00399766 0.00244319 0.00412552 0.00239704 0.00182194 0.00325210 0.00138572 0.00275405 0.00211435 0.01378898 0.00083980 
0.00303368 0.00222535 0.00214788 0.00868582 0.00053828 0.00392114 0.00244698 0.00403522 0.00234314 0.00183036 0.00314340 0.00123165 0.00274411 0.00210224 0.01323850 0.00083401 
0.00298042 0.00224517 0.00215482 0.00859702 0.00054318 0.00384703 0.00245131 0.00394587 0.00228857 0.00183976 0.00303756 0.00108412 0.00273665 0.00208839 0.01268623 0.00082791 
0.00292493 0.00226488 0.00216172 0.00850247 0.00054878 0.00377543 0.00245603 0.00385773 0.00223355 0.00185010 0.00293495 0.00094348 0.00273181 0.00207278 0.01213423 0.00082153 
0.00286741 0.00228438 0.00216845 0.00840230 0.00055504 0.00370645 0.00246097 0.00377101 0.00217828 0.00186132 0.00283593 0.00081005 0.00272968 0.00205540 0.01158458 0.00081490 
0.00280807 0.00230362 0.00217486 0.00829671 0.00056193 0.00364019 0.00246600 0.00368595 0.00212299 0.00187336 0.00274088 0.00068411 0.00273037 0.00203625 0.01103932 0.00080803 
0.00274713 0.00232252 0.00218083 0.00818595 0.00056941 0.00357671 0.00247095 0.00360276 0.00206791 0.00188618 0.00265017 0.00056589 0.00273395 0.00201532 0.01050047 0.00080097 
0.00268482 0.00234100 0.00218626 0.00807029 0.00057745 0.00351607 0.00247570 0.00352164 0.00201327 0.00189972 0.00256417 0.00045560 0.00274050 0.00199264 0.00997003 0.00079373 
0.00262137 0.00235901 0.00219103 0.00795007 0.00058599 0.00345834 0.00248013 0.00344278 0.00195930 0.00191393 0.00248323 0.00035343 0.00275005 0.00196821 0.00944995 0.00078634 
0.00255701 0.00237647 0.00219507 0.00782565 0.00059500 0.00340353 0.00248412 0.00336635 0.00190625 0.00192875 0.00240773 0.00025951 0.00276265 0.00194206 0.00894210 0.00077884 
0.00249199 0.00239332 0.00219831 0.00769744 0.00060443 0.00335168 0.00248757 0.00329251 0.00185434 0.00194413 0.00233802 0.00017395 0.00277831 0.00191423 0.00844833 0.00077124 
0.00242656 0.00240950 0.00220068 0.00756587 0.00061424 0.00330278 0.00249040 0.00322143 0.00180382 0.00196002 0.00227444 0.00009684 0.00279703 0.00188475 0.00797039 0.00076359 
0.00236095 0.00242495 0.00220216 0.00743144 0.00062437 0.00325684 0.00249251 0.00315324 0.00175491 0.00197637 0.00221733 0.00002822 0.00281880 0.00185369 0.00750996 0.00075589 
0.00229543 0.00243960 0.00220272 0.00729464 0.00063479 0.00321384 0.00249386 0.00308806 0.00170786 0.00199312 0.00216701 0.00003190 0.00284358 0.00182108 0.00706862 0.00074818 
0.00223022 0.00245341 0.00220234 0.00715603 0.00064543 0.00317374 0.00249440 0.00302601 0.00166288 0.00201023 0.00212382 0.00008354 0.00287133 0.00178700 0.00664788 0.00074049 
0.00216559 0.00246632 0.00220104 0.00701618 0.00065625 0.00313652 0.00249409 0.00296719 0.00162021 0.00202764 0.00208803 0.00012672 0.00290198 0.00175152 0.00624911 0.00073284 
0.00210178 0.00247830 0.00219884 0.00687567 0.00066720 0.00310211 0.00249291 0.00291169 0.00158005 0.00204531 0.00205994 0.00016153 0.00293544 0.00171471 0.00587361 0.00072525 
0.00203901 0.00248929 0.00219577 0.00673513 0.00067824 0.00307045 0.00249087 0.00285957 0.00154262 0.00206319 0.00203982 0.00018806 0.00297162 0.00167666 0.00552255 0.00071774 
0.00197753 0.00249926 0.00219189 0.00659518 0.00068931 0.00304148 0.00248797 0.00281091 0.00150811 0.00208122 0.00202791 0.00020644 0.00301040 0.00163745 0.00519698 0.00071034 
0.00191755 0.00250817 0.00218726 0.00645647 0.00070036 0.00301512 0.00248424 0.00276575 0.00147673 0.00209937 0.00202443 0.00021680 0.00305166 0.00159720 0.00489782 0.00070306 
0.00185930 0.00251600 0.00218195 0.00631965 0.00071134 0.00299127 0.00247972 0.00272413 0.00144865 0.00211758 0.00202959 0.00021931 0.00309524 0.00155599 0.00462588 0.00069592 
0.00180298 0.00252272 0.00217607 0.00618540 0.00072221 0.00296984 0.00247446 0.00268607 0.00142404 0.00213580 0.00204356 0.00021416 0.00314100 0.00151393 0.00438184 0.00068895 
0.00174880 0.00252831 0.00216971 0.00605436 0.00073292 0.00295074 0.00246854 0.00265159 0.00140305 0.00215399 0.00206649 0.00020157 0.00318877 0.00147115 0.00416624 0.00068214 
0.00169695 0.00253275 0.00216299 0.00592720 0.00074343 0.00293384 0.00246204 0.00262069 0.00138582 0.00217211 0.00209849 0.00018175 0.00323836 0.00142774 0.00397948 0.00067552 
0.00164759 0.00253604 0.00215603 0.00580458 0.00075370 0.00291905 0.00245504 0.00259335 0.00137250 0.00219010 0.00213967 0.00015494 0.00328958 0.00138385 0.00382184 0.00066910 
0.00160090 0.00253818 0.00214896 0.00568713 0.00076368 0.00290624 0.00244766 0.00256957 0.00136317 0.00220792 0.00219007 0.00012140 0.00334223 0.00133958 0.00369347 0.00066288 
0.00155702 0.00253915 0.00214193 0.00557550 0.00077333 0.00289530 0.00244000 0.00254931 0.00135795 0.00222552 0.00224972 0.00008141 0.00339611 0.00129507 0.00359437 0.00065688 
0.00151610 0.00253898 0.00213507 0.00547029 0.00078262 0.00288610 0.00243219 0.00253252 0.00135690 0.00224286 0.00231860 0.00003524 0.00345098 0.00125044 0.00352442 0.00065109 
0.00147826 0.00253767 0.00212855 0.00537210 0.00079152 0.00287852 0.00242435 0.00251915 0.00136009 0.00225988 0.00239665 0.00001681 0.00350665 0.00120583 0.00348337 0.00064553 
0.00144360 0.00253524 0.00212251 0.00528148 0.00079999 0.00287244 0.00241664 0.00250915 0.00136755 0.00227655 0.00248380 0.00007444 0.00356287 0.00116136 0.00347083 0.00064019 
0.00141221 0.00253171 0.00211712 0.00519899 0.00080800 0.00286772 0.00240919 0.00250244 0.00137931 0.00229280 0.00257991 0.00013733 0.00361941 0.00111717 0.00348630 0.00063507 
0.00138418 0.00252712 0.00211253 0.00512512 0.00081554 0.00286425 0.00240215 0.00249895 0.00139536 0.00230859 0.00268481 0.00020517 0.00367604 0.00107339 0.00352916 0.00063018 
0.00135956 0.00252149 0.00210890 0.00506034 0.00082257 0.00286191 0.00239566 0.00249858 0.00141568 0.00232387 0.00279829 0.00027763 0.00373253 0.00103015 0.00359866 0.00062550 
0.00133839 0.00251486 0.00210640 0.00500510 0.00082907 0.00286058 0.00238989 0.00250123 0.00144024 0.00233860 0.00292010 0.00035437 0.00378865 0.00098758 0.00369396 0.00062105 
0.00132071 0.00250728 0.00210516 0.00495977 0.00083504 0.00286013 0.00238499 0.00250680 0.00146896 0.00235271 0.00304994 0.00043507 0.00384415 0.00094580 0.00381409 0.00061680 
0.00130651 0.00249879 0.00210536 0.00492471 0.00084046 0.00286046 0.00238110 0.00251519 0.00150177 0.00236615 0.00318748 0.00051938 0.00389882 0.00090495 0.00395801 0.00061275 
0.00129580 0.00248946 0.00210712 0.00490021 0.00084532 0.00286146 0.00237837 0.00252626 0.00153855 0.00237888 0.00333234 0.00060697 0.00395242 0.00086514 0.00412456 0.00060890 
0.00128856 0.00247933 0.00211059 0.00488655 0.00084961 0.00286302 0.00237696 0.00253988 0.00157919 0.00239084 0.00348409 0.00069748 0.00400474 0.00082649 0.00431250 0.00060523 
0.00128473 0.00246848 0.00211591 0.00488392 0.00085333 0.00286505 0.00237699 0.00255594 0.00162353 0.00240197 0.00364227 0.00079058 0.00405556 0.00078911 0.00452053 0.00060173 
0.00128427 0.00245696 0.00212319 0.00489247 0.00085649 0.00286744 0.00237861 0.00257428 0.00167140 0.00241221 0.00380638 0.00088593 0.00410468 0.00075311 0.00474726 0.00059840 
0.00128710 0.00244486 0.00213255 0.00491232 0.00085908 0.00287012 0.00238193 0.00259476 0.00172262 0.00242152 0.00397588 0.00098317 0.00415190 0.00071861 0.00499125 0.00059521 
0.00129315 0.00243223 0.00214409 0.00494351 0.00086113 0.00287300 0.00238707 0.00261723 0.00177698 0.00242984 0.00415018 0.00108198 0.00419702 0.00068568 0.00525100 0.00059217 
0.00130230 0.00241917 0.00215791 0.00498604 0.00086263 0.00287600 0.00239414 0.00264153 0.00183425 0.00243710 0.00432867 0.00118202 0.00423986 0.00065444 0.00552496 0.00058925 
0.00131444 0.00240575 0.00217407 0.00503986 0.00086360 0.00287907 0.00240323 0.00266749 0.00189419 0.00244326 0.00451069 0.00128293 0.00428027 0.00062495 0.00581155 0.00058644 
0.00132945 0.00239205 0.00219265 0.00510486 0.00086407 0.00288214 0.00241443 0.00269496 0.00195652 0.00244825 0.00469555 0.00138441 0.00431808 0.00059731 0.00610915 0.00058374 
0.00134717 0.00237817 0.00221371 0.00518087 0.00086406 0.00288515 0.00242780 0.00272377 0.00202098 0.00245203 0.00488255 0.00148611 0.00435314 0.00057158 0.00641614 0.00058112 
0.00136747 0.00236418 0.00223726 0.00526769 0.00086358 0.00288806 0.00244340 0.00275374 0.00208727 0.00245453 0.00507094 0.00158771 0.00438533 0.00054782 0.00673086 0.00057859 
0.00139017 0.00235017 0.00226335 0.00536505 0.00086268 0.00289084 0.00246127 0.00278469 0.00215508 0.00245571 0.00525995 0.00168889 0.00441452 0.00052610 0.00705168 0.00057611 
0.00141510 0.00233624 0.00229198 0.00547264 0.00086137 0.00289345 0.00248144 0.00281645 0.00222409 0.00245551 0.00544879 0.00178934 0.00444060 0.00050646 0.00737694 0.00057370 
0.00144207 0.00232247 0.00232315 0.00559009 0.00085969 0.00289586 0.00250392 0.00284884 0.00229397 0.00245389 0.00563667 0.00188876 0.00446349 0.00048894 0.00770503 0.00057133 
0.00147090 0.00230895 0.00235682 0.00571699 0.00085768 0.00289807 0.00252871 0.00288169 0.00236438 0.00245078 0.00582275 0.00198683 0.00448310 0.00047358 0.00803433 0.00056899 
0.00150138 0.00229578 0.00239298 0.00585288 0.00085537 0.00290005 0.00255578 0.00291480 0.00243497 0.00244616 0.00600622 0.00208327 0.00449937 0.00046040 0.00836327 0.00056669 
0.00153331 0.00228302 0.00243155 0.00599727 0.00085281 0.00290182 0.00258509 0.00294800 0.00250539 0.00243998 0.00618623 0.00217779 0.00451225 0.00044941 0.00869032 0.00056441 
0.00156647 0.00227078 0.00247248 0.00614962 0.00085003 0.00290336 0.00261661 0.00298111 0.00257529 0.00243219 0.00636194 0.00227012 0.00452170 0.00044063 0.00901398 0.00056214 
0.00160066 0.00225913 0.00251569 0.00630936 0.00084708 0.00290469 0.00265024 0.00301395 0.00264429 0.00242276 0.00653254 0.00235996 0.00452769 0.00043406 0.00933281 0.00055990 
0.00163565 0.00224815 0.00256108 0.00647586 0.00084399 0.00290582 0.00268593 0.00304634 0.00271206 0.00241167 0.00669718 0.00244708 0.00453022 0.00042968 0.00964542 0.00055766 
0.00167123 0.00223792 0.00260854 0.00664849 0.00084082 0.00290678 0.00272356 0.00307812 0.00277822 0.00239889 0.00685505 0.00253122 0.00452929 0.00042749 0.00995051 0.00055544 
0.00170717 0.00222851 0.00265795 0.00682657 0.00083761 0.00290758 0.00276303 0.00310912 0.00284244 0.00238439 0.00700536 0.00261212 0.00452491 0.00042746 0.01024683 0.00055323 
0.00174326 0.00221998 0.00270917 0.00700941 0.00083441 0.00290826 0.00280421 0.00313916 0.00290435 0.00236817 0.00714734 0.00268958 0.00451711 0.00042955 0.01053319 0.00055103 
0.00177927 0.00221241 0.00276206 0.00719629 0.00083125 0.00290884 0.00284695 0.00316810 0.00296364 0.00235021 0.00728022 0.00276335 0.00450593 0.00043373 0.01080851 0.00054886 
0.00181500 0.00220584 0.00281646 0.00738646 0.00082819 0.00290937 0.00289112 0.00319577 0.00301997 0.00233051 0.00740331 0.00283324 0.00449143 0.00043996 0.01107179 0.00054671 
0.00185022 0.00220032 0.00287219 0.00757916 0.00082526 0.00290989 0.00293655 0.00322204 0.00307303 0.00230907 0.00751590 0.00289904 0.00447366 0.00044817 0.01132210 0.00054459 
0.00188474 0.00219590 0.00292909 0.00777364 0.00082252 0.00291042 0.00298306 0.00324676 0.00312252 0.00228591 0.00761737 0.00296058 0.00445271 0.00045832 0.01155860 0.00054251 
0.00191835 0.00219261 0.00298696 0.00796912 0.00081999 0.00291102 0.00303048 0.00326980 0.00316817 0.00226105 0.00770712 0.00301769 0.00442865 0.00047034 0.01178057 0.00054048 
0.00195086 0.00219048 0.00304562 0.00816481 0.00081773 0.00291174 0.00307862 0.00329104 0.00320972 0.00223451 0.00778460 0.00307020 0.00440159 0.00048416 0.01198736 0.00053852 
0.00198208 0.00218954 0.00310486 0.00835994 0.00081577 0.00291260 0.00312728 0.00331038 0.00324693 0.00220633 0.00784933 0.00311798 0.00437161 0.00049970 0.01217842 0.00053663 
0.00201183 0.00218978 0.00316447 0.00855373 0.00081414 0.00291367 0.00317627 0.00332770 0.00327959 0.00217656 0.00790086 0.00316091 0.00433884 0.00051687 0.01235329 0.00053484 
0.00203995 0.00219122 0.00322425 0.00874540 0.00081289 0.00291498 0.00322537 0.00334293 0.00330749 0.00214524 0.00793883 0.00319886 0.00430340 0.00053560 0.01251163 0.00053314 
0.00206628 0.00219385 0.00328399 0.00893419 0.00081203 0.00291658 0.00327440 0.00335597 0.00333050 0.00211244 0.00796293 0.00323175 0.00426540 0.00055580 0.01265317 0.00053157 
0.00209068 0.00219765 0.00334346 0.00911935 0.00081161 0.00291852 0.00332313 0.00336678 0.00334846 0.00207823 0.00797292 0.00325950 0.00422499 0.00057736 0.01277774 0.00053014 
0.00211300 0.00220259 0.00340246 0.00930015 0.00081164 0.00292082 0.00337137 0.00337530 0.00336128 0.00204269 0.00796864 0.00328205 0.00418230 0.00060019 0.01288528 0.00052886 
0.00213314 0.00220865 0.00346077 0.00947587 0.00081215 0.00292353 0.00341891 0.00338150 0.00336888 0.00200591 0.00795000 0.00329935 0.00413747 0.00062420 0.01297579 0.00052775 
0.00215097 0.00221577 0.00351817 0.00964583 0.00081315 0.00292669 0.00346555 0.00338534 0.00337123 0.00196799 0.00791697 0.00331139 0.00409067 0.00064926 0.01304938 0.00052684 
0.00216641 0.00222390 0.00357445 0.00980935 0.00081467 0.00293033 0.00351109 0.00338682 0.00336832 0.00192903 0.00786963 0.00331814 0.00404204 0.00067529 0.01310624 0.00052613 
0.00217938 0.00223298 0.00362941 0.00996579 0.00081670 0.00293447 0.00355535 0.00338595 0.00336017 0.00188915 0.00780811 0.00331964 0.00399174 0.00070218 0.01314664 0.00052565 
0.00218980 0.00224292 0.00368284 0.01011456 0.00081927 0.00293915 0.00359815 0.00338276 0.00334685 0.00184849 0.00773263 0.00331589 0.00393994 0.00072980 0.01317092 0.00052541 
0.00219764 0.00225365 0.00373454 0.01025508 0.00082236 0.00294438 0.00363930 0.00337728 0.00332845 0.00180716 0.00764349 0.00330696 0.00388680 0.00075806 0.01317950 0.00052543 
0.00220284 0.00226508 0.00378433 0.01038681 0.00082599 0.00295018 0.00367866 0.00336956 0.00330511 0.00176533 0.00754109 0.00329291 0.00383249 0.00078684 0.01317287 0.00052573 
0.00220540 0.00227709 0.00383202 0.01050924 0.00083015 0.00295656 0.00371606 0.00335968 0.00327701 0.00172313 0.00742587 0.00327382 0.00377718 0.00081604 0.01315157 0.00052633 
0.00220531 0.00228957 0.00387744 0.01062193 0.00083483 0.00296354 0.00375137 0.00334772 0.00324433 0.00168072 0.00729838 0.00324980 0.00372105 0.00084554 0.01311621 0.00052723 
0.00220257 0.00230242 0.00392041 0.01072446 0.00084001 0.00297111 0.00378446 0.00333378 0.00320732 0.00163828 0.00715925 0.00322097 0.00366428 0.00087523 0.01306744 0.00052845 
0.00219722 0.00231549 0.00396079 0.01081644 0.00084569 0.00297927 0.00381523 0.00331799 0.00316625 0.00159596 0.00700916 0.00318748 0.00360704 0.00090500 0.01300598 0.00053001 
0.00218928 0.00232865 0.00399844 0.01089754 0.00085184 0.00298802 0.00384356 0.00330047 0.00312142 0.00155396 0.00684887 0.00314947 0.00354951 0.00093475 0.01293255 0.00053190 
0.00217881 0.00234175 0.00403321 0.01096748 0.00085843 0.00299734 0.00386939 0.00328137 0.00307317 0.00151246 0.00667924 0.00310713 0.00349188 0.00096438 0.01284795 0.00053415 
0.00216589 0.00235466 0.00406500 0.01102603 0.00086545 0.00300721 0.00389265 0.00326084 0.00302187 0.00147163 0.00650116 0.00306065 0.00343432 0.00099376 0.01275298 0.00053676 
0.00215059 0.00236722 0.00409369 0.01107297 0.00087286 0.00301762 0.00391329 0.00323908 0.00296791 0.00143168 0.00631559 0.00301023 0.00337703 0.00102282 0.01264846 0.00053973 
0.00213300 0.00237926 0.00411918 0.01110818 0.00088062 0.00302854 0.00393129 0.00321625 0.00291171 0.00139280 0.00612357 0.00295610 0.00332019 0.00105144 0.01253525 0.00054306 
0.00211324 0.00239063 0.00414141 0.01113153 0.00088872 0.00303993 0.00394662 0.00319257 0.00285371 0.00135519 0.00592616 0.00289849 0.00326398 0.00107953 0.01241420 0.00054676 
0.00209143 0.00240115 0.00416031 0.01114299 0.00089709 0.00305176 0.00395930 0.00316824 0.00279439 0.00131904 0.00572451 0.00283765 0.00320860 0.00110701 0.01228618 0.00055082 
0.00206769 0.00241068 0.00417581 0.01114255 0.00090571 0.00306398 0.00396935 0.00314348 0.00273423 0.00128454 0.00551976 0.00277384 0.00315422 0.00113377 0.01215204 0.00055524 
0.00204216 0.00241903 0.00418790 0.01113023 0.00091454 0.00307656 0.00397681 0.00311852 0.00267373 0.00125191 0.00531314 0.00270734 0.00310105 0.00115974 0.01201265 0.00056001 
0.00201500 0.00242604 0.00419653 0.01110613 0.00092353 0.00308944 0.00398175 0.00309359 0.00261342 0.00122133 0.00510588 0.00263844 0.00304928 0.00118483 0.01186885 0.00056512 
0.00198636 0.00243154 0.00420172 0.01107036 0.00093263 0.00310258 0.00398423 0.00306895 0.00255382 0.00119300 0.00489924 0.00256741 0.00299909 0.00120896 0.01172148 0.00057056 
0.00195641 0.00243539 0.00420345 0.01102311 0.00094181 0.00311590 0.00398436 0.00304483 0.00249546 0.00116710 0.00469449 0.00249456 0.00295068 0.00123208 0.01157134 0.00057632 
0.00192533 0.00243741 0.00420176 0.01096457 0.00095101 0.00312936 0.00398225 0.00302150 0.00243890 0.00114382 0.00449293 0.00242019 0.00290424 0.00125410 0.01141922 0.00058237 
0.00189329 0.00243745 0.00419669 0.01089501 0.00096020 0.00314289 0.00397802 0.00299920 0.00238467 0.00112333 0.00429585 0.00234462 0.00285997 0.00127496 0.01126587 0.00058871 
0.00186048 0.00243537 0.00418827 0.01081469 0.00096934 0.00315643 0.00397182 0.00297818 0.00233330 0.00110581 0.00410454 0.00226815 0.00281806 0.00129461 0.01111203 0.00059530 
0.00182708 0.00243104 0.00417657 0.01072396 0.00097837 0.00316991 0.00396380 0.00295871 0.00228534 0.00109141 0.00392027 0.00219110 0.00277871 0.00131298 0.01095838 0.00060212 
0.00179328 0.00242432 0.00416168 0.01062316 0.00098726 0.00318325 0.00395414 0.00294104 0.00224131 0.00108028 0.00374431 0.00211378 0.00274212 0.00133005 0.01080557 0.00060915 
0.00175928 0.00241509 0.00414368 0.01051269 0.00099598 0.00319640 0.00394302 0.00292541 0.00220172 0.00107257 0.00357788 0.00203650 0.00270848 0.00134575 0.01065421 0.00061636 
0.00172525 0.00240325 0.00412266 0.01039297 0.00100449 0.00320927 0.00393064 0.00291207 0.00216705 0.00106839 0.00342218 0.00195958 0.00267799 0.00136005 0.01050487 0.00062372 
0.00169140 0.00238871 0.00409875 0.01026443 0.00101275 0.00322179 0.00391720 0.00290125 0.00213779 0.00106788 0.00327838 0.00188331 0.00265086 0.00137293 0.01035806 0.00063120 
0.00165791 0.00237138 0.00407207 0.01012755 0.00102075 0.00323389 0.00390293 0.00289318 0.00211438 0.00107112 0.00314758 0.00180800 0.00262727 0.00138434 0.01021426 0.00063875 
0.00162496 0.00235121 0.00404274 0.00998281 0.00102845 0.00324549 0.00388804 0.00288808 0.00209724 0.00107820 0.00303083 0.00173394 0.00260742 0.00139428 0.01007389 0.00064636 
0.00159272 0.00232815 0.00401092 0.00983074 0.00103585 0.00325652 0.00387278 0.00288616 0.00208676 0.00108920 0.00292914 0.00166140 0.00259152 0.00140273 0.00993732 0.00065398 
0.00156138 0.00230217 0.00397675 0.00967185 0.00104293 0.00326690 0.00385737 0.00288760 0.00208329 0.00110416 0.00284342 0.00159066 0.00257975 0.00140967 0.00980488 0.00066157 
0.00153109 0.00227326 0.00394039 0.00950669 0.00104969 0.00327656 0.00384207 0.00289260 0.00208715 0.00112313 0.00277453 0.00152198 0.00257231 0.00141510 0.00967685 0.00066909 
0.00150201 0.00224145 0.00390201 0.00933580 0.00105611 0.00328543 0.00382711 0.00290130 0.00209861 0.00114611 0.00272324 0.00145561 0.00256939 0.00141902 0.00955344 0.00067652 
0.00147429 0.00220675 0.00386178 0.00915974 0.00106223 0.00329343 0.00381275 0.00291386 0.00211791 0.00117311 0.00269024 0.00139177 0.00257117 0.00142144 0.00943484 0.00068380 
0.00144807 0.00216922 0.00381987 0.00897908 0.00106803 0.00330050 0.00379922 0.00293041 0.00214524 0.00120411 0.00267611 0.00133070 0.00257785 0.00142236 0.00932117 0.00069090 
0.00142348 0.00212896 0.00377646 0.00879439 0.00107356 0.00330655 0.00378678 0.00295105 0.00218073 0.00123907 0.00268137 0.00127258 0.00258960 0.00142181 0.00921251 0.00069779 
0.00140062 0.00208605 0.00373173 0.00860622 0.00107883 0.00331154 0.00377567 0.00297588 0.00222446 0.00127792 0.00270641 0.00121760 0.00260660 0.00141980 0.00910890 0.00070441 
0.00137961 0.00204063 0.00368587 0.00841515 0.00108389 0.00331538 0.00376613 0.00300496 0.00227648 0.00132059 0.00275153 0.00116593 0.00262901 0.00141636 0.00901033 0.00071074 
0.00136052 0.00199285 0.00363906 0.00822173 0.00108877 0.00331801 0.00375839 0.00303834 0.00233676 0.00136697 0.00281693 0.00111772 0.00265701 0.00141152 0.00891674 0.00071673 
0.00134345 0.00194289 0.00359147 0.00802651 0.00109355 0.00331939 0.00375268 0.00307604 0.00240524 0.00141694 0.00290269 0.00107309 0.00269074 0.00140532 0.00882805 0.00072235 
0.00132843 0.00189096 0.00354331 0.00783004 0.00109827 0.00331943 0.00374920 0.00311806 0.00248178 0.00147035 0.00300880 0.00103215 0.00273035 0.00139779 0.00874413 0.00072757 
0.00131553 0.00183729 0.00349473 0.00763284 0.00110302 0.00331809 0.00374818 0.00316438 0.00256620 0.00152705 0.00313512 0.00099499 0.00277598 0.00138898 0.00866480 0.00073235 
0.00130477 0.00178214 0.00344592 0.00743542 0.00110787 0.00331532 0.00374981 0.00321495 0.00265827 0.00158686 0.00328141 0.00096167 0.00282776 0.00137895 0.00858989 0.00073666 
0.00129616 0.00172578 0.00339706 0.00723829 0.00111292 0.00331107 0.00375427 0.00326970 0.00275768 0.00164957 0.00344731 0.00093225 0.00288580 0.00136773 0.00851915 0.00074047 
0.00128971 0.00166854 0.00334829 0.00704192 0.00111825 0.00330528 0.00376173 0.00332854 0.00286409 0.00171495 0.00363236 0.00090675 0.00295021 0.00135538 0.00845234 0.00074375 
0.00128539 0.00161076 0.00329980 0.00684677 0.00112399 0.00329791 0.00377235 0.00339133 0.00297710 0.00178278 0.00383599 0.00088517 0.00302106 0.00134197 0.00838918 0.00074648 
0.00128316 0.00155278 0.00325172 0.00665329 0.00113025 0.00328892 0.00378627 0.00345795 0.00309626 0.00185279 0.00405752 0.00086749 0.00309844 0.00132756 0.00832937 0.00074864 
0.00128299 0.00149501 0.00320421 0.00646189 0.00113715 0.00327827 0.00380362 0.00352823 0.00322106 0.00192472 0.00429618 0.00085369 0.00318240 0.00131220 0.00827260 0.00075020 
0.00128480 0.00143785 0.00315740 0.00627296 0.00114482 0.00326594 0.00382450 0.00360196 0.00335095 0.00199828 0.00455108 0.00084371 0.00327297 0.00129597 0.00821852 0.00075116 
0.00128851 0.00138173 0.00311143 0.00608686 0.00115342 0.00325188 0.00384900 0.00367896 0.00348535 0.00207317 0.00482124 0.00083747 0.00337019 0.00127893 0.00816680 0.00075149 
0.00129403 0.00132712 0.00306640 0.00590396 0.00116308 0.00323608 0.00387720 0.00375897 0.00362361 0.00214907 0.00510561 0.00083488 0.00347404 0.00126115 0.00811709 0.00075118 
0.00130125 0.00127449 0.00302243 0.00572454 0.00117396 0.00321851 0.00390915 0.00384175 0.00376508 0.00222566 0.00540302 0.00083584 0.00358450 0.00124270 0.00806902 0.00075023 
0.00131003 0.00122433 0.00297962 0.00554892 0.00118623 0.00319915 0.00394488 0.00392702 0.00390904 0.00230261 0.00571225 0.00084021 0.00370154 0.00122367 0.00802224 0.00074863 
0.00132026 0.00117717 0.00293805 0.00537734 0.00120006 0.00317798 0.00398441 0.00401450 0.00405476 0.00237958 0.00603198 0.00084785 0.00382508 0.00120411 0.00797637 0.00074638 
0.00133177 0.00113353 0.00289781 0.00521005 0.00121562 0.00315501 0.00402773 0.00410387 0.00420149 0.00245623 0.00636085 0.00085861 0.00395504 0.00118410 0.00793106 0.00074349 
0.00134441 0.00109395 0.00285895 0.00504725 0.00123309 0.00313021 0.00407482 0.00419481 0.00434846 0.00253219 0.00669742 0.00087232 0.00409128 0.00116372 0.00788595 0.00073995 
0.00135800 0.00105898 0.00282153 0.00488912 0.00125265 0.00310359 0.00412564 0.00428699 0.00449488 0.00260712 0.00704021 0.00088880 0.00423368 0.00114303 0.00784069 0.00073578 
0.00137238 0.00102921 0.00278559 0.00473582 0.00127450 0.00307516 0.00418011 0.00438004 0.00463996 0.00268067 0.00738768 0.00090784 0.00438207 0.00112211 0.00779494 0.00073099 
0.00138735 0.00100518 0.00275115 0.00458747 0.00129882 0.00304492 0.00423817 0.00447362 0.00478291 0.00275248 0.00773828 0.00092926 0.00453623 0.00110103 0.00774837 0.00072559 
0.00140273 0.00098749 0.00271825 0.00444417 0.00132580 0.00301288 0.00429970 0.00456735 0.00492294 0.00282219 0.00809040 0.00095283 0.00469595 0.00107985 0.00770067 0.00071960 
0.00141832 0.00097671 0.00268688 0.00430600 0.00135565 0.00297907 0.00436461 0.00466085 0.00505926 0.00288948 0.00844243 0.00097834 0.00486098 0.00105865 0.00765153 0.00071304 
0.00143391 0.00097342 0.00265703 0.00417300 0.00138855 0.00294350 0.00443274 0.00475373 0.00519113 0.00295401 0.00879276 0.00100557 0.00503102 0.00103749 0.00760067 0.00070593 
0.00144932 0.00097820 0.00262870 0.00404521 0.00142469 0.00290620 0.00450395 0.00484562 0.00531780 0.00301544 0.00913977 0.00103429 0.00520578 0.00101643 0.00754783 0.00069831 
0.00146434 0.00099161 0.00260185 0.00392264 0.00146428 0.00286721 0.00457808 0.00493613 0.00543858 0.00307346 0.00948183 0.00106426 0.00538489 0.00099552 0.00749276 0.00069019 
0.00147878 0.00101421 0.00257645 0.00380526 0.00150749 0.00282656 0.00465494 0.00502485 0.00555280 0.00312778 0.00981735 0.00109527 0.00556801 0.00097483 0.00743524 0.00068162 
0.00149244 0.00104655 0.00255245 0.00369303 0.00155452 0.00278430 0.00473435 0.00511142 0.00565985 0.00317810 0.01014477 0.00112707 0.00575472 0.00095441 0.00737508 0.00067262 
0.00150513 0.00108916 0.00252979 0.00358591 0.00160555 0.00274048 0.00481611 0.00519544 0.00575914 0.00322416 0.01046255 0.00115943 0.00594460 0.00093430 0.00731208 0.00066323 
0.00151668 0.00114255 0.00250841 0.00348381 0.00166074 0.00269515 0.00490000 0.00527654 0.00585018 0.00326571 0.01076920 0.00119214 0.00613721 0.00091456 0.00724610 0.00065349 
0.00152691 0.00120722 0.00248823 0.00338665 0.00172028 0.00264837 0.00498580 0.00535436 0.00593252 0.00330252 0.01106328 0.00122497 0.00633205 0.00089522 0.00717700 0.00064343 
0.00153567 0.00128363 0.00246917 0.00329432 0.00178433 0.00260021 0.00507328 0.00542853 0.00600577 0.00333439 0.01134342 0.00125771 0.00652864 0.00087631 0.00710469 0.00063309 
0.00154282 0.00137221 0.00245113 0.00320670 0.00185303 0.00255075 0.00516222 0.00549871 0.00606965 0.00336113 0.01160831 0.00129014 0.00672644 0.00085788 0.00702907 0.00062252 
0.00154821 0.00147338 0.00243403 0.00312367 0.00192654 0.00250005 0.00525238 0.00556458 0.00612393 0.00338259 0.01185672 0.00132207 0.00692490 0.00083995 0.00695010 0.00061176 
0.00155173 0.00158749 0.00241777 0.00304507 0.00200498 0.00244820 0.00534351 0.00562581 0.00616847 0.00339865 0.01208751 0.00135331 0.00712346 0.00082254 0.00686773 0.00060084 
0.00155330 0.00171490 0.00240223 0.00297075 0.00208848 0.00239529 0.00543537 0.00568211 0.00620325 0.00340919 0.01229961 0.00138367 0.00732153 0.00080568 0.00678197 0.00058982 
0.00155283 0.00185589 0.00238731 0.00290056 0.00217715 0.00234142 0.00552774 0.00573319 0.00622830 0.00341415 0.01249208 0.00141300 0.00751850 0.00078937 0.00669282 0.00057873 
0.00155028 0.00201071 0.00237289 0.00283432 0.00227108 0.00228668 0.00562038 0.00577881 0.00624378 0.00341348 0.01266405 0.00144112 0.00771377 0.00077362 0.00660032 0.00056762 
0.00154561 0.00217957 0.00235886 0.00277187 0.00237036 0.00223118 0.00571305 0.00581873 0.00624996 0.00340718 0.01281476 0.00146791 0.00790671 0.00075845 0.00650454 0.00055652 
0.00153881 0.00236263 0.00234511 0.00271303 0.00247506 0.00217502 0.00580554 0.00585273 0.00624717 0.00339526 0.01294360 0.00149322 0.00809667 0.00074386 0.00640556 0.00054549 
0.00152992 0.00255998 0.00233152 0.00265761 0.00258522 0.00211834 0.00589762 0.00588063 0.00623590 0.00337777 0.01305001 0.00151696 0.00828303 0.00072983 0.00630347 0.00053455 
0.00151898 0.00277169 0.00231797 0.00260544 0.00270088 0.00206123 0.00598910 0.00590226 0.00621670 0.00335480 0.01313361 0.00153901 0.00846513 0.00071636 0.00619840 0.00052375 
0.00150606 0.00299774 0.00230434 0.00255633 0.00282206 0.00200383 0.00607978 0.00591750 0.00619027 0.00332646 0.01319411 0.00155930 0.00864234 0.00070345 0.00609050 0.00051313 
0.00149127 0.00323809 0.00229053 0.00251011 0.00294875 0.00194627 0.00616947 0.00592623 0.00615737 0.00329289 0.01323134 0.00157775 0.00881402 0.00069107 0.00597990 0.00050273 
0.00147476 0.00349261 0.00227643 0.00246659 0.00308094 0.00188868 0.00625801 0.00592838 0.00611890 0.00325427 0.01324527 0.00159432 0.00897953 0.00067920 0.00586679 0.00049257 
0.00145670 0.00376112 0.00226194 0.00242560 0.00321859 0.00183120 0.00634524 0.00592390 0.00607587 0.00321081 0.01323597 0.00160897 0.00913826 0.00066784 0.00575136 0.00048268 
0.00143727 0.00404339 0.00224694 0.00238697 0.00336163 0.00177396 0.00643103 0.00591276 0.00602935 0.00316275 0.01320366 0.00162168 0.00928959 0.00065694 0.00563379 0.00047311 
0.00141672 0.00433912 0.00223135 0.00235051 0.00351000 0.00171712 0.00651525 0.00589499 0.00598056 0.00311034 0.01314865 0.00163244 0.00943293 0.00064648 0.00551431 0.00046388 
0.00139532 0.00464795 0.00221509 0.00231608 0.00366358 0.00166081 0.00659780 0.00587062 0.00593076 0.00305387 0.01307140 0.00164127 0.00956773 0.00063644 0.00539312 0.00045501 
0.00137335 0.00496946 0.00219806 0.00228352 0.00382226 0.00160518 0.00667861 0.00583972 0.00588133 0.00299367 0.01297248 0.00164820 0.00969342 0.00062678 0.00527047 0.00044653 
0.00135115 0.00530315 0.00218019 0.00225266 0.00398589 0.00155040 0.00675759 0.00580240 0.00583374 0.00293008 0.01285254 0.00165327 0.00980950 0.00061747 0.00514658 0.00043845 
0.00132908 0.00564848 0.00216143 0.00222338 0.00415431 0.00149659 0.00683471 0.00575879 0.00578951 0.00286345 0.01271240 0.00165653 0.00991548 0.00060847 0.00502170 0.00043080 
0.00130753 0.00600486 0.00214172 0.00219553 0.00432734 0.00144393 0.00690994 0.00570903 0.00575023 0.00279418 0.01255292 0.00165807 0.01001090 0.00059975 0.00489608 0.00042359 
0.00128693 0.00637159 0.00212100 0.00216897 0.00450476 0.00139256 0.00698327 0.00565334 0.00571758 0.00272268 0.01237512 0.00165795 0.01009535 0.00059127 0.00476995 0.00041683 
0.00126772 0.00674798 0.00209925 0.00214360 0.00468635 0.00134263 0.00705472 0.00559191 0.00569324 0.00264935 0.01218007 0.00165628 0.01016845 0.00058300 0.00464357 0.00041054 
0.00125038 0.00713322 0.00207643 0.00211930 0.00487186 0.00129430 0.00712431 0.00552500 0.00567897 0.00257464 0.01196894 0.00165317 0.01022987 0.00057490 0.00451718 0.00040471 
0.00123541 0.00752649 0.00205253 0.00209597 0.00506102 0.00124771 0.00719210 0.00545287 0.00567655 0.00249899 0.01174299 0.00164874 0.01027932 0.00056694 0.00439104 0.00039936 
0.00122335 0.00792689 0.00202754 0.00207351 0.00525353 0.00120301 0.00725815 0.00537583 0.00568777 0.00242286 0.01150354 0.00164312 0.01031657 0.00055909 0.00426539 0.00039448 
0.00121474 0.00833350 0.00200148 0.00205183 0.00544909 0.00116035 0.00732255 0.00529418 0.00571444 0.00234673 0.01125200 0.00163644 0.01034142 0.00055130 0.00414047 0.00039008 
0.00121016 0.00874532 0.00197435 0.00203085 0.00564735 0.00111987 0.00738539 0.00520827 0.00575836 0.00227104 0.01098981 0.00162885 0.01035374 0.00054356 0.00401651 0.00038615 
0.00121019 0.00916134 0.00194619 0.00201051 0.00584798 0.00108170 0.00744680 0.00511846 0.00582132 0.00219629 0.01071847 0.00162051 0.01035345 0.00053583 0.00389375 0.00038268 
0.00121545 0.00958048 0.00191703 0.00199075 0.00605059 0.00104599 0.00750690 0.00502514 0.00590506 0.00212294 0.01043954 0.00161156 0.01034051 0.00052809 0.00377241 0.00037966 
0.00122653 0.01000165 0.00188692 0.00197151 0.00625480 0.00101286 0.00756583 0.00492870 0.00601132 0.00205146 0.01015458 0.00160219 0.01031495 0.00052032 0.00365270 0.00037709 
0.00124408 0.01042371 0.00185593 0.00195275 0.00646020 0.00098242 0.00762375 0.00482955 0.00614173 0.00198231 0.00986520 0.00159254 0.01027687 0.00051250 0.00353483 0.00037495 
0.00126872 0.01084551 0.00182412 0.00193443 0.00666637 0.00095480 0.00768080 0.00472813 0.00629791 0.00191594 0.00957302 0.00158279 0.01022640 0.00050461 0.00341899 0.00037322 
0.00130108 0.01126586 0.00179158 0.00191652 0.00687287 0.00093011 0.00773717 0.00462487 0.00648137 0.00185280 0.00927967 0.00157310 0.01016373 0.00049664 0.00330538 0.00037190 
0.00134182 0.01168357 0.00175838 0.00189900 0.00707926 0.00090844 0.00779301 0.00452023 0.00669353 0.00179332 0.00898677 0.00156365 0.01008914 0.00048859 0.00319416 0.00037095 
0.00139155 0.01209742 0.00172464 0.00188185 0.00728506 0.00088988 0.00784851 0.00441466 0.00693570 0.00173790 0.00869594 0.00155460 0.01000294 0.00048044 0.00308552 0.00037036 
0.00145090 0.01250621 0.00169046 0.00186507 0.00748980 0.00087453 0.00790383 0.00430864 0.00720909 0.00168695 0.00840878 0.00154612 0.00990548 0.00047221 0.00297959 0.00037010 
0.00152048 0.01290871 0.00165595 0.00184864 0.00769299 0.00086245 0.00795916 0.00420262 0.00751477 0.00164083 0.00812686 0.00153835 0.00979720 0.00046389 0.00287653 0.00037016 
0.00160090 0.01330371 0.00162124 0.00183257 0.00789413 0.00085370 0.00801465 0.00409707 0.00785366 0.00159990 0.00785172 0.00153146 0.00967858 0.00045550 0.00277646 0.00037051 
0.00169274 0.01368999 0.00158645 0.00181686 0.00809273 0.00084834 0.00807048 0.00399248 0.00822657 0.00156448 0.00758486 0.00152560 0.00955013 0.00044704 0.00267951 0.00037113 
0.00179655 0.01406638 0.00155171 0.00180153 0.00828827 0.00084642 0.00812679 0.00388930 0.00863409 0.00153487 0.00732773 0.00152090 0.00941245 0.00043853 0.00258578 0.00037199 
0.00191287 0.01443169 0.00151716 0.00178658 0.00848023 0.00084795 0.00818373 0.00378801 0.00907669 0.00151133 0.00708173 0.00151750 0.00926614 0.00043000 0.00249537 0.00037306 
0.00204219 0.01478479 0.00148295 0.00177203 0.00866811 0.00085297 0.00824143 0.00368905 0.00955464 0.00149411 0.00684820 0.00151552 0.00911188 0.00042147 0.00240836 0.00037432 
0.00218499 0.01512455 0.00144921 0.00175791 0.00885137 0.00086147 0.00830002 0.00359287 0.01006803 0.00148341 0.00662840 0.00151507 0.00895038 0.00041297 0.00232483 0.00037574 
0.00234170 0.01544989 0.00141609 0.00174424 0.00902951 0.00087345 0.00835958 0.00349992 0.01061675 0.00147940 0.00642353 0.00151626 0.00878237 0.00040453 0.00224485 0.00037730 
0.00251271 0.01575979 0.00138374 0.00173103 0.00920200 0.00088888 0.00842022 0.00341061 0.01120051 0.00148221 0.00623472 0.00151919 0.00860862 0.00039620 0.00216845 0.00037897 
0.00269836 0.01605325 0.00135231 0.00171831 0.00936834 0.00090775 0.00848198 0.00332536 0.01181880 0.00149197 0.00606302 0.00152392 0.00842996 0.00038800 0.00209569 0.00038072 
0.00289894 0.01632932 0.00132192 0.00170612 0.00952803 0.00093000 0.00854491 0.00324456 0.01247092 0.00150872 0.00590937 0.00153052 0.00824719 0.00037999 0.00202660 0.00038254 
0.00311471 0.01658714 0.00129274 0.00169446 0.00968056 0.00095557 0.00860903 0.00316859 0.01315595 0.00153250 0.00577466 0.00153906 0.00806118 0.00037220 0.00196119 0.00038439 
0.00334585 0.01682587 0.00126489 0.00168338 0.00982545 0.00098439 0.00867433 0.00309780 0.01387279 0.00156330 0.00565967 0.00154956 0.00787278 0.00036470 0.00189948 0.00038625 
0.00359249 0.01704477 0.00123851 0.00167290 0.00996223 0.00101637 0.00874079 0.00303253 0.01462011 0.00160109 0.00556509 0.00156206 0.00768288 0.00035752 0.00184147 0.00038811 
0.00385471 0.01724313 0.00121373 0.00166304 0.01009043 0.00105143 0.00880834 0.00297309 0.01539638 0.00164577 0.00549153 0.00157657 0.00749236 0.00035071 0.00178716 0.00038993 
0.00413252 0.01742036 0.00119066 0.00165382 0.01020963 0.00108944 0.00887690 0.00291978 0.01619989 0.00169725 0.00543950 0.00159308 0.00730210 0.00034433 0.00173654 0.00039171 
0.00442585 0.01757591 0.00116943 0.00164526 0.01031938 0.00113029 0.00894636 0.00287284 0.01702871 0.00175536 0.00540942 0.00161159 0.00711298 0.00033844 0.00168958 0.00039341 
0.00473460 0.01770931 0.00115015 0.00163740 0.01041930 0.00117383 0.00901658 0.00283253 0.01788075 0.00181992 0.00540162 0.00163205 0.00692589 0.00033308 0.00164627 0.00039503 
0.00505855 0.01782020 0.00113290 0.00163024 0.01050899 0.00121992 0.00908739 0.00279904 0.01875370 0.00189072 0.00541634 0.00165443 0.00674168 0.00032831 0.00160656 0.00039655 
0.00539747 0.01790828 0.00111778 0.00162380 0.01058809 0.00126841 0.00915861 0.00277256 0.01964513 0.00196750 0.00545372 0.00167867 0.00656119 0.00032417 0.00157043 0.00039795 
0.00575101 0.01797333 0.00110487 0.00161810 0.01065629 0.00131911 0.00923001 0.00275325 0.02055241 0.00204999 0.00551384 0.00170470 0.00638526 0.00032072 0.00153781 0.00039922 
0.00611877 0.01801524 0.00109423 0.00161314 0.01071327 0.00137185 0.00930135 0.00274122 0.02147277 0.00213786 0.00559668 0.00173244 0.00621468 0.00031800 0.00150868 0.00040035 
0.00650029 0.01803396 0.00108591 0.00160893 0.01075876 0.00142644 0.00937235 0.00273656 0.02240330 0.00223079 0.00570213 0.00176178 0.00605021 0.00031607 0.00148298 0.00040133 
0.00689500 0.01802957 0.00107998 0.00160548 0.01079252 0.00148267 0.00944274 0.00273934 0.02334098 0.00232840 0.00583003 0.00179262 0.00589259 0.00031496 0.00146064 0.00040214 
0.00730230 0.01800218 0.00107644 0.00160280 0.01081434 0.00154035 0.00951218 0.00274959 0.02428267 0.00243032 0.00598012 0.00182485 0.00574251 0.00031471 0.00144162 0.00040279 
0.00772151 0.01795204 0.00107533 0.00160087 0.01082404 0.00159925 0.00958035 0.00276731 0.02522514 0.00253613 0.00615209 0.00185833 0.00560061 0.00031535 0.00142583 0.00040326 
0.00815186 0.01787945 0.00107665 0.00159969 0.01082149 0.00165914 0.00964690 0.00279247 0.02616507 0.00264541 0.00634556 0.00189292 0.00546750 0.00031692 0.00141323 0.00040356 
0.00859253 0.01778483 0.00108038 0.00159926 0.01080659 0.00171981 0.00971146 0.00282499 0.02709909 0.00275770 0.00656010 0.00192847 0.00534372 0.00031945 0.00140374 0.00040367 
0.00904265 0.01766864 0.00108652 0.00159956 0.01077927 0.00178102 0.00977365 0.00286480 0.02802379 0.00287257 0.00679519 0.00196483 0.00522979 0.00032295 0.00139729 0.00040360 
0.00950125 0.01753146 0.00109502 0.00160058 0.01073950 0.00184253 0.00983308 0.00291177 0.02893573 0.00298952 0.00705030 0.00200184 0.00512613 0.00032743 0.00139380 0.00040335 
0.00996733 0.01737393 0.00110585 0.00160231 0.01068731 0.00190411 0.00988936 0.00296575 0.02983147 0.00310809 0.00732485 0.00203932 0.00503314 0.00033292 0.00139320 0.00040292 
0.01043983 0.01719676 0.00111894 0.00160472 0.01062275 0.00196550 0.00994207 0.00302655 0.03070757 0.00322779 0.00761819 0.00207711 0.00495114 0.00033941 0.00139541 0.00040230 
0.01091763 0.01700075 0.00113421 0.00160779 0.01054591 0.00202646 0.00999083 0.00309397 0.03156064 0.00334814 0.00792966 0.00211501 0.00488039 0.00034690 0.00140036 0.00040151 
0.01139955 0.01678675 0.00115159 0.00161149 0.01045695 0.00208677 0.01003523 0.00316778 0.03238731 0.00346863 0.00825858 0.00215286 0.00482109 0.00035538 0.00140795 0.00040055 
0.01188439 0.01655569 0.00117098 0.00161579 0.01035604 0.00214616 0.01007487 0.00324770 0.03318431 0.00358879 0.00860421 0.00219046 0.00477337 0.00036484 0.00141811 0.00039942 
0.01237090 0.01630853 0.00119227 0.00162067 0.01024340 0.00220441 0.01010936 0.00333346 0.03394845 0.00370814 0.00896582 0.00222764 0.00473730 0.00037525 0.00143074 0.00039813 
0.01285778 0.01604633 0.00121535 0.00162609 0.01011930 0.00226129 0.01013835 0.00342473 0.03467663 0.00382619 0.00934264 0.00226421 0.00471289 0.00038658 0.00144577 0.00039668 
0.01334373 0.01577016 0.00124009 0.00163202 0.00998404 0.00231655 0.01016145 0.00352120 0.03536590 0.00394248 0.00973392 0.00229999 0.00470007 0.00039880 0.00146311 0.00039509 
0.01382739 0.01548114 0.00126635 0.00163841 0.00983798 0.00236999 0.01017835 0.00362250 0.03601343 0.00405656 0.01013886 0.00233479 0.00469872 0.00041186 0.00148266 0.00039336 
0.01430740 0.01518044 0.00129398 0.00164522 0.00968150 0.00242137 0.01018871 0.00372826 0.03661656 0.00416799 0.01055670 0.00236845 0.00470864 0.00042573 0.00150433 0.00039151 
0.01478239 0.01486926 0.00132285 0.00165243 0.00951502 0.00247051 0.01019225 0.00383808 0.03717279 0.00427634 0.01098664 0.00240079 0.00472959 0.00044033 0.00152802 0.00038953 
0.01525098 0.01454882 0.00135277 0.00165998 0.00933901 0.00251719 0.01018871 0.00395155 0.03767983 0.00438121 0.01142791 0.00243164 0.00476124 0.00045561 0.00155365 0.00038744 
0.01571178 0.01422036 0.00138361 0.00166783 0.00915396 0.00256123 0.01017785 0.00406826 0.03813557 0.00448222 0.01187972 0.00246084 0.00480323 0.00047151 0.00158111 0.00038525 
0.01616341 0.01388513 0.00141517 0.00167594 0.00896041 0.00260245 0.01015948 0.00418775 0.03853812 0.00457900 0.01234132 0.00248825 0.00485512 0.00048795 0.00161030 0.00038297 
0.01660451 0.01354441 0.00144730 0.00168426 0.00875892 0.00264069 0.01013345 0.00430959 0.03888583 0.00467123 0.01281193 0.00251371 0.00491643 0.00050485 0.00164112 0.00038062 
0.01703372 0.01319945 0.00147982 0.00169274 0.00855010 0.00267580 0.01009964 0.00443330 0.03917728 0.00475858 0.01329081 0.00253710 0.00498663 0.00052213 0.00167346 0.00037819 
0.01744971 0.01285152 0.00151255 0.00170135 0.00833456 0.00270763 0.01005796 0.00455842 0.03941128 0.00484079 0.01377723 0.00255829 0.00506513 0.00053971 0.00170722 0.00037571 
0.01785120 0.01250186 0.00154531 0.00171003 0.00811296 0.00273607 0.01000840 0.00468447 0.03958692 0.00491759 0.01427045 0.00257716 0.00515130 0.00055749 0.00174228 0.00037318 
0.01823691 0.01215172 0.00157794 0.00171875 0.00788597 0.00276101 0.00995097 0.00481098 0.03970353 0.00498875 0.01476977 0.00259361 0.00524448 0.00057539 0.00177854 0.00037062 
0.01860564 0.01180230 0.00161025 0.00172745 0.00765429 0.00278236 0.00988572 0.00493745 0.03976071 0.00505409 0.01527448 0.00260755 0.00534395 0.00059331 0.00181588 0.00036803 
0.01895621 0.01145479 0.00164207 0.00173609 0.00741864 0.00280004 0.00981279 0.00506341 0.03975833 0.00511345 0.01578390 0.00261889 0.00544900 0.00061116 0.00185419 0.00036543 
0.01928750 0.01111034 0.00167324 0.00174463 0.00717974 0.00281400 0.00973231 0.00518837 0.03969653 0.00516668 0.01629735 0.00262758 0.00555883 0.00062883 0.00189334 0.00036282 
0.01959847 0.01077006 0.00170360 0.00175303 0.00693835 0.00282418 0.00964452 0.00531186 0.03957571 0.00521370 0.01681417 0.00263356 0.00567268 0.00064623 0.00193322 0.00036023 
0.01988813 0.01043502 0.00173298 0.00176124 0.00669521 0.00283058 0.00954966 0.00543338 0.03939655 0.00525442 0.01733371 0.00263679 0.00578973 0.00066327 0.00197371 0.00035765 
0.02015556 0.01010625 0.00176124 0.00176923 0.00645109 0.00283318 0.00944806 0.00555248 0.03916000 0.00528883 0.01785532 0.00263723 0.00590916 0.00067985 0.00201467 0.00035509 
0.02039992 0.00978473 0.00178823 0.00177694 0.00620676 0.00283199 0.00934007 0.00566869 0.03886725 0.00531691 0.01837836 0.00263488 0.00603013 0.00069587 0.00205599 0.00035258 
0.02062044 0.00947135 0.00181382 0.00178436 0.00596297 0.00282705 0.00922611 0.00578155 0.03851977 0.00533869 0.01890221 0.00262973 0.00615182 0.00071126 0.00209754 0.00035011 
0.02081645 0.00916699 0.00183789 0.00179144 0.00572050 0.00281840 0.00910663 0.00589064 0.03811927 0.00535422 0.01942622 0.00262179 0.00627339 0.00072591 0.00213920 0.00034769 
0.02098736 0.00887244 0.00186031 0.00179815 0.00548010 0.00280610 0.00898213 0.00599551 0.03766771 0.00536359 0.01994977 0.00261110 0.00639400 0.00073974 0.00218083 0.00034534 
0.02113267 0.00858844 0.00188099 0.00180446 0.00524253 0.00279024 0.00885316 0.00609576 0.03716727 0.00536693 0.02047224 0.00259768 0.00651284 0.00075269 0.00222230 0.00034306 
0.02125199 0.00831564 0.00189982 0.00181034 0.00500853 0.00277091 0.00872030 0.00619098 0.03662035 0.00536436 0.02099298 0.00258159 0.00662910 0.00076468 0.00226349 0.00034087 
0.02134500 0.00805464 0.00191673 0.00181575 0.00477882 0.00274822 0.00858419 0.00628080 0.03602959 0.00535607 0.02151137 0.00256289 0.00674199 0.00077563 0.00230428 0.00033876 
0.02141149 0.00780598 0.00193164 0.00182069 0.00455411 0.00272231 0.00844547 0.00636486 0.03539779 0.00534223 0.02202675 0.00254165 0.00685076 0.00078550 0.00234452 0.00033675 
0.02145138 0.00757012 0.00194449 0.00182511 0.00433510 0.00269331 0.00830484 0.00644282 0.03472796 0.00532308 0.02253848 0.00251797 0.00695465 0.00079423 0.00238411 0.00033484 
0.02146464 0.00734743 0.00195523 0.00182902 0.00412245 0.00266139 0.00816301 0.00651435 0.03402328 0.00529885 0.02304589 0.00249193 0.00705298 0.00080178 0.00242290 0.00033304 
0.02145139 0.00713824 0.00196383 0.00183237 0.00391680 0.00262670 0.00802072 0.00657918 0.03328707 0.00526979 0.02354830 0.00246363 0.00714507 0.00080812 0.00246079 0.00033135 
0.02141183 0.00694279 0.00197027 0.00183517 0.00371879 0.00258944 0.00787874 0.00663701 0.03252280 0.00523620 0.02404502 0.00243320 0.00723029 0.00081320 0.00249764 0.00032978 
0.02134625 0.00676127 0.00197454 0.00183740 0.00352898 0.00254979 0.00773784 0.00668762 0.03173406 0.00519835 0.02453535 0.00240077 0.00730806 0.00081703 0.00253335 0.00032834 
0.02125508 0.00659378 0.00197663 0.00183904 0.00334795 0.00250796 0.00759881 0.00673078 0.03092455 0.00515657 0.02501856 0.00236644 0.00737784 0.00081959 0.00256780 0.00032703 
0.02113882 0.00644036 0.00197656 0.00184010 0.00317622 0.00246416 0.00746242 0.00676630 0.03009806 0.00511116 0.02549393 0.00233038 0.00743913 0.00082088 0.00260088 0.00032586 
0.02099808 0.00630100 0.00197436 0.00184056 0.00301428 0.00241860 0.00732948 0.00679402 0.02925845 0.00506247 0.02596070 0.00229272 0.00749149 0.00082091 0.00263248 0.00032481 
0.02083356 0.00617560 0.00197007 0.00184043 0.00286258 0.00237150 0.00720077 0.00681380 0.02840963 0.00501084 0.02641810 0.00225361 0.00753454 0.00081971 0.00266251 0.00032391 
0.02064607 0.00606404 0.00196372 0.00183970 0.00272156 0.00232310 0.00707705 0.00682554 0.02755556 0.00495661 0.02686534 0.00221321 0.00756794 0.00081730 0.00269086 0.00032315 
0.02043649 0.00596611 0.00195539 0.00183839 0.00259159 0.00227363 0.00695910 0.00682916 0.02670020 0.00490014 0.02730164 0.00217167 0.00759140 0.00081372 0.00271745 0.00032254 
0.02020581 0.00588157 0.00194514 0.00183649 0.00247301 0.00222332 0.00684764 0.00682462 0.02584752 0.00484178 0.02772618 0.00212915 0.00760472 0.00080902 0.00274219 0.00032206 
0.01995509 0.00581010 0.00193305 0.00183402 0.00236613 0.00217241 0.00674340 0.00681191 0.02500147 0.00478189 0.02813813 0.00208581 0.00760774 0.00080326 0.00276500 0.00032173 
0.01968547 0.00575138 0.00191921 0.00183099 0.00227123 0.00212114 0.00664705 0.00679104 0.02416598 0.00472083 0.02853668 0.00204183 0.00760033 0.00079650 0.00278581 0.00032154 
0.01939816 0.00570501 0.00190372 0.00182741 0.00218852 0.00206973 0.00655923 0.00676206 0.02334491 0.00465895 0.02892098 0.00199736 0.00758248 0.00078883 0.00280456 0.00032149 
0.01909447 0.00567058 0.00188666 0.00182330 0.00211819 0.00201841 0.00648056 0.00672505 0.02254206 0.00459659 0.02929019 0.00195256 0.00755417 0.00078031 0.00282118 0.00032158 
0.01877573 0.00564763 0.00186817 0.00181869 0.00206039 0.00196742 0.00641160 0.00668011 0.02176116 0.00453410 0.02964347 0.00190760 0.00751550 0.00077104 0.00283562 0.00032181 
0.01844336 0.00563567 0.00184835 0.00181359 0.00201524 0.00191697 0.00635285 0.00662740 0.02100581 0.00447181 0.02997998 0.00186263 0.00746658 0.00076111 0.00284784 0.00032216 
0.01809883 0.00563420 0.00182733 0.00180803 0.00198280 0.00186728 0.00630477 0.00656707 0.02027953 0.00441005 0.03029889 0.00181782 0.00740761 0.00075062 0.00285780 0.00032264 
0.01774365 0.00564270 0.00180523 0.00180205 0.00196311 0.00181855 0.00626776 0.00649932 0.01958568 0.00434912 0.03059939 0.00177331 0.00733881 0.00073968 0.00286547 0.00032324 
0.01737937 0.00566062 0.00178219 0.00179566 0.00195617 0.00177098 0.00624216 0.00642439 0.01892750 0.00428934 0.03088066 0.00172924 0.00726048 0.00072838 0.00287082 0.00032396 
0.01700759 0.00568742 0.00175832 0.00178892 0.00196193 0.00172475 0.00622825 0.00634252 0.01830807 0.00423097 0.03114193 0.00168577 0.00717296 0.00071685 0.00287385 0.00032477 
0.01662993 0.00572254 0.00173378 0.00178184 0.00198033 0.00168006 0.00622623 0.00625400 0.01773030 0.00417430 0.03138242 0.00164302 0.00707663 0.00070520 0.00287454 0.00032569 
0.01624801 0.00576542 0.00170869 0.00177447 0.00201126 0.00163704 0.00623624 0.00615913 0.01719692 0.00411958 0.03160142 0.00160114 0.00697193 0.00069353 0.00287290 0.00032668 
0.01586351 0.00581551 0.00168319 0.00176686 0.00205458 0.00159587 0.00625835 0.00605825 0.01671047 0.00406704 0.03179823 0.00156023 0.00685932 0.00068197 0.00286893 0.00032776 
0.01547807 0.00587227 0.00165741 0.00175904 0.00211012 0.00155668 0.00629256 0.00595170 0.01627330 0.00401690 0.03197219 0.00152042 0.00673933 0.00067061 0.00286263 0.00032889 
0.01509338 0.00593516 0.00163149 0.00175107 0.00217769 0.00151959 0.00633879 0.00583987 0.01588754 0.00396936 0.03212268 0.00148182 0.00661250 0.00065958 0.00285404 0.00033008 
0.01471109 0.00600365 0.00160556 0.00174298 0.00225707 0.00148471 0.00639690 0.00572316 0.01555512 0.00392459 0.03224915 0.00144453 0.00647940 0.00064897 0.00284318 0.00033130 
0.01433285 0.00607725 0.00157975 0.00173483 0.00234799 0.00145214 0.00646665 0.00560197 0.01527773 0.00388277 0.03235108 0.00140863 0.00634064 0.00063890 0.00283008 0.00033255 
0.01396029 0.00615547 0.00155419 0.00172667 0.00245019 0.00142197 0.00654775 0.00547674 0.01505686 0.00384402 0.03242802 0.00137421 0.00619686 0.00062944 0.00281478 0.00033380 
0.01359503 0.00623786 0.00152899 0.00171856 0.00256337 0.00139424 0.00663985 0.00534792 0.01489374 0.00380845 0.03247960 0.00134135 0.00604870 0.00062070 0.00279732 0.00033504 
0.01323864 0.00632399 0.00150427 0.00171054 0.00268720 0.00136902 0.00674249 0.00521596 0.01478939 0.00377617 0.03250547 0.00131011 0.00589683 0.00061275 0.00277775 0.00033625 
0.01289266 0.00641345 0.00148014 0.00170268 0.00282135 0.00134634 0.00685517 0.00508134 0.01474457 0.00374725 0.03250541 0.00128054 0.00574193 0.00060568 0.00275613 0.00033741 
0.01255860 0.00650588 0.00145671 0.00169503 0.00296547 0.00132621 0.00697734 0.00494454 0.01475980 0.00372174 0.03247922 0.00125271 0.00558470 0.00059954 0.00273251 0.00033852 
0.01223789 0.00660093 0.00143408 0.00168765 0.00311917 0.00130864 0.00710835 0.00480604 0.01483539 0.00369966 0.03242682 0.00122663 0.00542582 0.00059439 0.00270695 0.00033953 
0.01193194 0.00669832 0.00141235 0.00168060 0.00328208 0.00129362 0.00724752 0.00466633 0.01497136 0.00368102 0.03234818 0.00120235 0.00526600 0.00059027 0.00267953 0.00034045 
0.01164209 0.00679777 0.00139158 0.00167393 0.00345378 0.00128112 0.00739410 0.00452592 0.01516755 0.00366582 0.03224337 0.00117989 0.00510591 0.00058722 0.00265030 0.00034124 
0.01136961 0.00689904 0.00137187 0.00166772 0.00363386 0.00127110 0.00754731 0.00438529 0.01542350 0.00365401 0.03211254 0.00115925 0.00494625 0.00058527 0.00261935 0.00034188 
0.01111570 0.00700196 0.00135329 0.00166202 0.00382191 0.00126350 0.00770631 0.00424494 0.01573857 0.00364555 0.03195592 0.00114044 0.00478769 0.00058442 0.00258674 0.00034236 
0.01088149 0.00710635 0.00133589 0.00165688 0.00401747 0.00125826 0.00787022 0.00410536 0.01611186 0.00364035 0.03177383 0.00112346 0.00463089 0.00058466 0.00255255 0.00034265 
0.01066803 0.00721210 0.00131974 0.00165237 0.00422011 0.00125530 0.00803813 0.00396704 0.01654224 0.00363834 0.03156669 0.00110830 0.00447649 0.00058599 0.00251686 0.00034274 
0.01047629 0.00731911 0.00130488 0.00164855 0.00442938 0.00125452 0.00820912 0.00383044 0.01702839 0.00363939 0.03133499 0.00109493 0.00432512 0.00058838 0.00247974 0.00034260 
0.01030717 0.00742735 0.00129134 0.00164548 0.00464482 0.00125581 0.00838223 0.00369603 0.01756874 0.00364338 0.03107929 0.00108333 0.00417737 0.00059180 0.00244128 0.00034222 
0.01016144 0.00753679 0.00127917 0.00164321 0.00486596 0.00125908 0.00855649 0.00356427 0.01816154 0.00365017 0.03080028 0.00107347 0.00403382 0.00059618 0.00240156 0.00034157 
0.01003982 0.00764744 0.00126839 0.00164179 0.00509234 0.00126419 0.00873091 0.00343560 0.01880483 0.00365960 0.03049869 0.00106531 0.00389500 0.00060147 0.00236065 0.00034063 
0.00994292 0.00775935 0.00125901 0.00164129 0.00532349 0.00127102 0.00890453 0.00331043 0.01949647 0.00367149 0.03017535 0.00105879 0.00376142 0.00060759 0.00231864 0.00033939 
0.00987124 0.00787259 0.00125104 0.00164174 0.00555892 0.00127942 0.00907636 0.00318916 0.02023413 0.00368566 0.02983116 0.00105388 0.00363357 0.00061447 0.00227561 0.00033783 
0.00982520 0.00798725 0.00124449 0.00164321 0.00579817 0.00128925 0.00924546 0.00307219 0.02101532 0.00370192 0.02946709 0.00105050 0.00351188 0.00062200 0.00223164 0.00033594 
0.00980512 0.00810346 0.00123934 0.00164572 0.00604075 0.00130037 0.00941089 0.00295987 0.02183738 0.00372004 0.02908419 0.00104862 0.00339676 0.00063008 0.00218681 0.00033369 
0.00981120 0.00822134 0.00123559 0.00164934 0.00628617 0.00131261 0.00957172 0.00285254 0.02269751 0.00373983 0.02868356 0.00104815 0.00328857 0.00063860 0.00214119 0.00033109 
0.00984355 0.00834106 0.00123321 0.00165409 0.00653396 0.00132583 0.00972710 0.00275052 0.02359276 0.00376104 0.02826638 0.00104903 0.00318762 0.00064745 0.00209488 0.00032811 
0.00990218 0.00846279 0.00123219 0.00166000 0.00678364 0.00133987 0.00987617 0.00265409 0.02452007 0.00378346 0.02783386 0.00105119 0.00309421 0.00065649 0.00204794 0.00032475 
0.00998699 0.00858671 0.00123249 0.00166712 0.00703472 0.00135456 0.01001816 0.00256350 0.02547627 0.00380683 0.02738726 0.00105456 0.00300858 0.00066561 0.00200045 0.00032101 
0.01009778 0.00871301 0.00123408 0.00167546 0.00728672 0.00136974 0.01015232 0.00247900 0.02645807 0.00383093 0.02692791 0.00105905 0.00293091 0.00067467 0.00195249 0.00031687 
0.01023424 0.00884188 0.00123691 0.00168505 0.00753916 0.00138526 0.01027798 0.00240078 0.02746212 0.00385551 0.02645715 0.00106460 0.00286136 0.00068353 0.00190415 0.00031233 
0.01039596 0.00897352 0.00124095 0.00169590 0.00779157 0.00140097 0.01039452 0.00232902 0.02848498 0.00388033 0.02597636 0.00107112 0.00280005 0.00069208 0.00185548 0.00030741 
0.01058244 0.00910811 0.00124615 0.00170803 0.00804345 0.00141670 0.01050141 0.00226385 0.02952315 0.00390514 0.02548694 0.00107854 0.00274705 0.00070018 0.00180658 0.00030209 
0.01079308 0.00924585 0.00125244 0.00172143 0.00829436 0.00143231 0.01059816 0.00220539 0.03057308 0.00392969 0.02499030 0.00108677 0.00270237 0.00070770 0.00175751 0.00029639 
0.01102716 0.00938691 0.00125979 0.00173611 0.00854380 0.00144765 0.01068440 0.00215372 0.03163120 0.00395376 0.02448786 0.00109573 0.00266600 0.00071452 0.00170836 0.00029031 
0.01128388 0.00953146 0.00126812 0.00175207 0.00879132 0.00146259 0.01075979 0.00210888 0.03269391 0.00397710 0.02398106 0.00110535 0.00263789 0.00072054 0.00165921 0.00028387 
0.01156236 0.00967965 0.00127739 0.00176928 0.00903645 0.00147699 0.01082413 0.00207089 0.03375762 0.00399949 0.02347132 0.00111554 0.00261795 0.00072565 0.00161012 0.00027708 
0.01186162 0.00983162 0.00128753 0.00178774 0.00927874 0.00149072 0.01087728 0.00203973 0.03481872 0.00402070 0.02296005 0.00112624 0.00260604 0.00072977 0.00156118 0.00026997 
0.01218058 0.00998747 0.00129847 0.00180740 0.00951775 0.00150367 0.01091917 0.00201537 0.03587365 0.00404052 0.02244864 0.00113735 0.00260200 0.00073282 0.00151248 0.00026254 
0.01251810 0.01014729 0.00131016 0.00182826 0.00975302 0.00151573 0.01094984 0.00199772 0.03691885 0.00405875 0.02193845 0.00114882 0.00260561 0.00073473 0.00146409 0.00025484 
0.01287294 0.01031116 0.00132253 0.00185026 0.00998413 0.00152680 0.01096944 0.00198668 0.03795085 0.00407518 0.02143083 0.00116056 0.00261665 0.00073547 0.00141610 0.00024688 
0.01324381 0.01047910 0.00133552 0.00187336 0.01021066 0.00153677 0.01097816 0.00198212 0.03896620 0.00408964 0.02092706 0.00117250 0.00263486 0.00073502 0.00136860 0.00023870 
0.01362932 0.01065111 0.00134906 0.00189751 0.01043218 0.00154558 0.01097632 0.00198388 0.03996153 0.00410195 0.02042841 0.00118459 0.00265992 0.00073337 0.00132167 0.00023033 
0.01402805 0.01082719 0.00136309 0.00192265 0.01064831 0.00155315 0.01096432 0.00199176 0.04093358 0.00411195 0.01993607 0.00119674 0.00269154 0.00073055 0.00127542 0.00022182 
0.01443849 0.01100726 0.00137755 0.00194872 0.01085866 0.00155940 0.01094262 0.00200555 0.04187914 0.00411950 0.01945120 0.00120891 0.00272935 0.00072660 0.00122994 0.00021319 
0.01485910 0.01119123 0.00139239 0.00197565 0.01106284 0.00156431 0.01091179 0.00202502 0.04279514 0.00412446 0.01897488 0.00122102 0.00277301 0.00072159 0.00118533 0.00020450 
0.01528826 0.01137898 0.00140753 0.00200337 0.01126051 0.00156780 0.01087246 0.00204991 0.04367862 0.00412672 0.01850814 0.00123303 0.00282211 0.00071563 0.00114170 0.00019580 
0.01572435 0.01157035 0.00142293 0.00203179 0.01145133 0.00156987 0.01082534 0.00207994 0.04452672 0.00412618 0.01805194 0.00124488 0.00287627 0.00070885 0.00109915 0.00018712 
0.01616567 0.01176513 0.00143852 0.00206083 0.01163498 0.00157048 0.01077122 0.00211480 0.04533675 0.00412274 0.01760717 0.00125651 0.00293507 0.00070140 0.00105781 0.00017853 
0.01661053 0.01196309 0.00145427 0.00209039 0.01181116 0.00156962 0.01071093 0.00215419 0.04610614 0.00411634 0.01717465 0.00126789 0.00299808 0.00069349 0.00101778 0.00017008 
0.01705719 0.01216397 0.00147011 0.00212039 0.01197959 0.00156729 0.01064539 0.00219776 0.04683248 0.00410692 0.01675510 0.00127896 0.00306488 0.00068532 0.00097920 0.00016181 
0.01750390 0.01236746 0.00148601 0.00215071 0.01214001 0.00156349 0.01057552 0.00224517 0.04751351 0.00409445 0.01634918 0.00128969 0.00313503 0.00067716 0.00094219 0.00015380 
0.01794892 0.01257321 0.00150191 0.00218127 0.01229221 0.00155825 0.01050235 0.00229606 0.04814716 0.00407890 0.01595748 0.00130003 0.00320809 0.00066929 0.00090690 0.00014609 
0.01839048 0.01278087 0.00151777 0.00221194 0.01243597 0.00155159 0.01042688 0.00235006 0.04873150 0.00406026 0.01558049 0.00130995 0.00328362 0.00066204 0.00087345 0.00013875 
0.01882683 0.01299003 0.00153356 0.00224261 0.01257112 0.00154354 0.01035019 0.00240679 0.04926480 0.00403854 0.01521862 0.00131941 0.00336118 0.00065576 0.00084199 0.00013183 
0.01925624 0.01320025 0.00154925 0.00227319 0.01269752 0.00153414 0.01027336 0.00246587 0.04974551 0.00401377 0.01487222 0.00132839 0.00344034 0.00065083 0.00081267 0.00012540 
0.01967699 0.01341108 0.00156478 0.00230355 0.01281505 0.00152345 0.01019748 0.00252692 0.05017227 0.00398599 0.01454154 0.00133686 0.00352069 0.00064767 0.00078565 0.00011951 
0.02008740 0.01362204 0.00158015 0.00233358 0.01292363 0.00151151 0.01012366 0.00258954 0.05054389 0.00395525 0.01422674 0.00134479 0.00360180 0.00064672 0.00076109 0.00011423 
0.02048581 0.01383261 0.00159531 0.00236315 0.01302320 0.00149840 0.01005298 0.00265334 0.05085941 0.00392161 0.01392794 0.00135216 0.00368328 0.00064847 0.00073914 0.00010961 
0.02087061 0.01404227 0.00161025 0.00239217 0.01311376 0.00148419 0.00998652 0.00271793 0.05111803 0.00388515 0.01364515 0.00135895 0.00376474 0.00065343 0.00071998 0.00010570 
0.02124026 0.01425046 0.00162494 0.00242050 0.01319530 0.00146894 0.00992536 0.00278293 0.05131919 0.00384598 0.01337832 0.00136515 0.00384582 0.00066211 0.00070378 0.00010257 
0.02159325 0.01445664 0.00163937 0.00244805 0.01326788 0.00145274 0.00987052 0.00284796 0.05146248 0.00380418 0.01312734 0.00137073 0.00392616 0.00067508 0.00069069 0.00010026 
0.02192815 0.01466022 0.00165351 0.00247469 0.01333159 0.00143566 0.00982299 0.00291264 0.05154773 0.00375989 0.01289202 0.00137569 0.00400543 0.00069292 0.00068092 0.00009882 
0.02224359 0.01486062 0.00166735 0.00250031 0.01338654 0.00141781 0.00978372 0.00297662 0.05157496 0.00371322 0.01267210 0.00138001 0.00408333 0.00071623 0.00067461 0.00009830 
0.02253831 0.01505726 0.00168088 0.00252482 0.01343289 0.00139926 0.00975360 0.00303954 0.05154437 0.00366430 0.01246729 0.00138368 0.00415957 0.00074562 0.00067197 0.00009874 
0.02281111 0.01524954 0.00169409 0.00254811 0.01347081 0.00138012 0.00973346 0.00310105 0.05145639 0.00361329 0.01227723 0.00138670 0.00423390 0.00078172 0.00067315 0.00010018 
0.02306088 0.01543688 0.00170696 0.00257008 0.01350053 0.00136046 0.00972406 0.00316084 0.05131162 0.00356032 0.01210150 0.00138907 0.00430609 0.00082518 0.00067834 0.00010265 
0.02328662 0.01561868 0.00171950 0.00259064 0.01352231 0.00134040 0.00972610 0.00321858 0.05111086 0.00350556 0.01193965 0.00139077 0.00437593 0.00087665 0.00068772 0.00010618 
0.02348742 0.01579437 0.00173169 0.00260970 0.01353641 0.00132001 0.00974016 0.00327399 0.05085512 0.00344916 0.01179119 0.00139180 0.00444325 0.00093677 0.00070144 0.00011079 
0.02366250 0.01596337 0.00174353 0.00262718 0.01354316 0.00129941 0.00976677 0.00332678 0.05054555 0.00339129 0.01165560 0.00139217 0.00450789 0.00100621 0.00071969 0.00011650 
0.02381117 0.01612515 0.00175501 0.00264301 0.01354289 0.00127867 0.00980636 0.00337669 0.05018353 0.00333211 0.01153231 0.00139187 0.00456975 0.00108561 0.00074262 0.00012332 
0.02393287 0.01627914 0.00176613 0.00265712 0.01353597 0.00125790 0.00985923 0.00342349 0.04977060 0.00327180 0.01142076 0.00139091 0.00462874 0.00117563 0.00077040 0.00013125 
0.02402714 0.01642484 0.00177689 0.00266945 0.01352279 0.00123718 0.00992563 0.00346695 0.04930846 0.00321052 0.01132035 0.00138929 0.00468479 0.00127689 0.00080316 0.00014030 
0.02409367 0.01656176 0.00178729 0.00267994 0.01350377 0.00121660 0.01000567 0.00350687 0.04879898 0.00314844 0.01123047 0.00138701 0.00473789 0.00139001 0.00084107 0.00015045 
0.02413226 0.01668941 0.00179731 0.00268856 0.01347933 0.00119625 0.01009936 0.00354307 0.04824420 0.00308573 0.01115051 0.00138409 0.00478802 0.00151559 0.00088424 0.00016168 
0.02414284 0.01680735 0.00180696 0.00269527 0.01344992 0.00117621 0.01020661 0.00357541 0.04764631 0.00302256 0.01107985 0.00138053 0.00483523 0.00165420 0.00093280 0.00017399 
0.02412545 0.01691517 0.00181624 0.00270004 0.01341601 0.00115655 0.01032721 0.00360374 0.04700762 0.00295909 0.01101787 0.00137633 0.00487957 0.00180640 0.00098686 0.00018732 
0.02408029 0.01701249 0.00182514 0.00270285 0.01337807 0.00113736 0.01046086 0.00362797 0.04633062 0.00289548 0.01096398 0.00137152 0.00492113 0.00197268 0.00104653 0.00020165 
0.02400766 0.01709896 0.00183365 0.00270370 0.01333658 0.00111870 0.01060712 0.00364799 0.04561788 0.00283188 0.01091759 0.00136610 0.00496001 0.00215353 0.00111188 0.00021693 
0.02390801 0.01717426 0.00184176 0.00270259 0.01329203 0.00110063 0.01076546 0.00366375 0.04487213 0.00276845 0.01087811 0.00136009 0.00499636 0.00234938 0.00118299 0.00023311 
0.02378187 0.01723813 0.00184948 0.00269952 0.01324490 0.00108322 0.01093527 0.00367521 0.04409618 0.00270534 0.01084501 0.00135350 0.00503034 0.00256063 0.00125992 0.00025013 
0.02362995 0.01729031 0.00185680 0.00269450 0.01319568 0.00106652 0.01111579 0.00368236 0.04329294 0.00264267 0.01081774 0.00134635 0.00506213 0.00278760 0.00134271 0.00026791 
0.02345304 0.01733063 0.00186369 0.00268758 0.01314484 0.00105059 0.01130619 0.00368519 0.04246543 0.00258059 0.01079582 0.00133865 0.00509194 0.00303060 0.00143137 0.00028640 
0.02325206 0.01735891 0.00187016 0.00267879 0.01309286 0.00103546 0.01150554 0.00368373 0.04161674 0.00251922 0.01077877 0.00133043 0.00511998 0.00328984 0.00152590 0.00030550 
0.02302802 0.01737505 0.00187618 0.00266816 0.01304020 0.00102118 0.01171284 0.00367804 0.04075001 0.00245867 0.01076618 0.00132170 0.00514649 0.00356550 0.00162631 0.00032513 
0.02278207 0.01737897 0.00188175 0.00265575 0.01298730 0.00100778 0.01192698 0.00366818 0.03986844 0.00239907 0.01075763 0.00131250 0.00517174 0.00385770 0.00173254 0.00034520 
0.02251543 0.01737064 0.00188685 0.00264161 0.01293457 0.00099528 0.01214677 0.00365426 0.03897530 0.00234051 0.01075278 0.00130284 0.00519598 0.00416646 0.00184454 0.00036561 
0.02222943 0.01735006 0.00189146 0.00262583 0.01288243 0.00098372 0.01237099 0.00363637 0.03807386 0.00228309 0.01075132 0.00129274 0.00521949 0.00449178 0.00196224 0.00038627 
0.02192547 0.01731729 0.00189556 0.00260847 0.01283124 0.00097311 0.01259833 0.00361465 0.03716742 0.00222689 0.01075297 0.00128225 0.00524255 0.00483355 0.00208555 0.00040705 
0.02160505 0.01727242 0.00189913 0.00258961 0.01278136 0.00096345 0.01282741 0.00358925 0.03625930 0.00217201 0.01075750 0.00127137 0.00526546 0.00519161 0.00221433 0.00042787 
0.02126972 0.01721557 0.00190216 0.00256934 0.01273310 0.00095477 0.01305685 0.00356033 0.03535278 0.00211851 0.01076472 0.00126015 0.00528851 0.00556572 0.00234845 0.00044860 
0.02092111 0.01714691 0.00190460 0.00254775 0.01268675 0.00094705 0.01328519 0.00352808 0.03445116 0.00206646 0.01077450 0.00124862 0.00531198 0.00595556 0.00248776 0.00046912 
0.02056089 0.01706666 0.00190645 0.00252494 0.01264256 0.00094031 0.01351098 0.00349269 0.03355768 0.00201592 0.01078673 0.00123681 0.00533618 0.00636077 0.00263206 0.00048934 
0.02019079 0.01697505 0.00190768 0.00250101 0.01260073 0.00093452 0.01373272 0.00345438 0.03267554 0.00196695 0.01080134 0.00122474 0.00536137 0.00678087 0.00278115 0.00050912 
0.01981257 0.01687237 0.00190825 0.00247606 0.01256145 0.00092968 0.01394892 0.00341337 0.03180790 0.00191959 0.01081833 0.00121247 0.00538785 0.00721533 0.00293481 0.00052836 
0.01942800 0.01675892 0.00190814 0.00245021 0.01252485 0.00092577 0.01415808 0.00336989 0.03095783 0.00187389 0.01083770 0.00120001 0.00541589 0.00766355 0.00309279 0.00054695 
0.01903889 0.01663505 0.00190733 0.00242356 0.01249101 0.00092278 0.01435874 0.00332419 0.03012832 0.00182989 0.01085951 0.00118742 0.00544573 0.00812485 0.00325483 0.00056476 
0.01864705 0.01650112 0.00190577 0.00239623 0.01246001 0.00092067 0.01454941 0.00327652 0.02932227 0.00178761 0.01088385 0.00117473 0.00547763 0.00859851 0.00342064 0.00058170 
0.01825427 0.01635755 0.00190346 0.00236832 0.01243183 0.00091943 0.01472868 0.00322715 0.02854247 0.00174710 0.01091082 0.00116198 0.00551181 0.00908369 0.00358992 0.00059766 
0.01786236 0.01620475 0.00190034 0.00233996 0.01240646 0.00091902 0.01489515 0.00317634 0.02779157 0.00170836 0.01094059 0.00114920 0.00554848 0.00957955 0.00376236 0.00061255 
0.01747309 0.01604317 0.00189641 0.00231126 0.01238382 0.00091941 0.01504747 0.00312437 0.02707212 0.00167144 0.01097330 0.00113644 0.00558783 0.01008514 0.00393762 0.00062628 
0.01708818 0.01587330 0.00189162 0.00228232 0.01236380 0.00092056 0.01518437 0.00307152 0.02638651 0.00163634 0.01100917 0.00112374 0.00563003 0.01059949 0.00411534 0.00063875 
0.01670934 0.01569560 0.00188596 0.00225325 0.01234624 0.00092244 0.01530463 0.00301806 0.02573696 0.00160309 0.01104837 0.00111114 0.00567522 0.01112157 0.00429518 0.00064991 
0.01633821 0.01551061 0.00187939 0.00222418 0.01233095 0.00092501 0.01540709 0.00296428 0.02512556 0.00157170 0.01109115 0.00109869 0.00572353 0.01165029 0.00447676 0.00065967 
0.01597639 0.01531882 0.00187190 0.00219519 0.01231771 0.00092823 0.01549070 0.00291045 0.02455418 0.00154220 0.01113772 0.00108641 0.00577503 0.01218454 0.00465969 0.00066799 
0.01562538 0.01512079 0.00186347 0.00216640 0.01230625 0.00093206 0.01555447 0.00285685 0.02402456 0.00151460 0.01118830 0.00107435 0.00582981 0.01272317 0.00484359 0.00067482 
0.01528664 0.01491706 0.00185406 0.00213791 0.01229629 0.00093646 0.01559754 0.00280376 0.02353820 0.00148891 0.01124314 0.00106255 0.00588790 0.01326501 0.00502806 0.00068014 
0.01496152 0.01470817 0.00184367 0.00210979 0.01228750 0.00094137 0.01561913 0.00275145 0.02309642 0.00146515 0.01130245 0.00105105 0.00594930 0.01380886 0.00521270 0.00068391 
0.01465129 0.01449470 0.00183229 0.00208215 0.01227952 0.00094677 0.01561856 0.00270018 0.02270033 0.00144335 0.01136645 0.00103989 0.00601399 0.01435350 0.00539710 0.00068614 
0.01435714 0.01427720 0.00181990 0.00205507 0.01227199 0.00095261 0.01559528 0.00265022 0.02235084 0.00142351 0.01143534 0.00102911 0.00608194 0.01489773 0.00558087 0.00068683 
0.01408013 0.01405625 0.00180650 0.00202863 0.01226452 0.00095885 0.01554884 0.00260182 0.02204862 0.00140567 0.01150930 0.00101873 0.00615306 0.01544033 0.00576361 0.00068601 
0.01382123 0.01383240 0.00179208 0.00200289 0.01225669 0.00096543 0.01547892 0.00255521 0.02179412 0.00138984 0.01158848 0.00100879 0.00622724 0.01598010 0.00594491 0.00068371 
0.01358130 0.01360623 0.00177664 0.00197793 0.01224809 0.00097234 0.01538531 0.00251063 0.02158758 0.00137604 0.01167303 0.00099933 0.00630434 0.01651585 0.00612440 0.00068000 
0.01336107 0.01337831 0.00176020 0.00195381 0.01223828 0.00097951 0.01526794 0.00246831 0.02142900 0.00136430 0.01176304 0.00099038 0.00638421 0.01704641 0.00630168 0.00067493 
0.01316117 0.01314919 0.00174276 0.00193058 0.01222683 0.00098692 0.01512685 0.00242844 0.02131815 0.00135465 0.01185858 0.00098195 0.00646666 0.01757067 0.00647639 0.00066860 
0.01298210 0.01291943 0.00172433 0.00190828 0.01221330 0.00099453 0.01496220 0.00239124 0.02125458 0.00134711 0.01195968 0.00097408 0.00655146 0.01808753 0.00664817 0.00066111 
0.01282423 0.01268958 0.00170495 0.00188696 0.01219727 0.00100230 0.01477430 0.00235687 0.02123760 0.00134171 0.01206632 0.00096680 0.00663839 0.01859595 0.00681667 0.00065258 
0.01268783 0.01246019 0.00168463 0.00186665 0.01217829 0.00101020 0.01456354 0.00232552 0.02126629 0.00133848 0.01217844 0.00096011 0.00672718 0.01909496 0.00698157 0.00064314 
0.01257303 0.01223178 0.00166342 0.00184737 0.01215597 0.00101820 0.01433047 0.00229733 0.02133953 0.00133745 0.01229594 0.00095403 0.00681755 0.01958363 0.00714256 0.00063295 
0.01247985 0.01200489 0.00164134 0.00182916 0.01212989 0.00102626 0.01407574 0.00227244 0.02145595 0.00133865 0.01241867 0.00094859 0.00690919 0.02006112 0.00729935 0.00062217 
0.01240817 0.01178004 0.00161844 0.00181202 0.01209968 0.00103436 0.01380011 0.00225096 0.02161399 0.00134211 0.01254642 0.00094379 0.00700180 0.02052666 0.00745167 0.00061099 
0.01235777 0.01155773 0.00159477 0.00179597 0.01206497 0.00104247 0.01350447 0.00223302 0.02181186 0.00134785 0.01267892 0.00093964 0.00709505 0.02097955 0.00759929 0.00059959 
0.01232832 0.01133846 0.00157039 0.00178099 0.01202544 0.00105057 0.01318979 0.00221868 0.02204759 0.00135591 0.01281587 0.00093614 0.00718858 0.02141922 0.00774198 0.00058820 
0.01231937 0.01112273 0.00154536 0.00176711 0.01198078 0.00105863 0.01285716 0.00220802 0.02231901 0.00136630 0.01295690 0.00093330 0.00728205 0.02184514 0.00787956 0.00057703 
0.01233036 0.01091101 0.00151975 0.00175429 0.01193071 0.00106663 0.01250776 0.00220109 0.02262377 0.00137905 0.01310158 0.00093111 0.00737510 0.02225694 0.00801186 0.00056632 
0.01236064 0.01070377 0.00149364 0.00174254 0.01187501 0.00107456 0.01214285 0.00219793 0.02295933 0.00139418 0.01324943 0.00092956 0.00746738 0.02265430 0.00813875 0.00055631 
0.01240945 0.01050148 0.00146710 0.00173183 0.01181346 0.00108240 0.01176378 0.00219853 0.02332303 0.00141169 0.01339992 0.00092865 0.00755851 0.02303704 0.00826011 0.00054726 
0.01247596 0.01030459 0.00144022 0.00172214 0.01174592 0.00109013 0.01137197 0.00220290 0.02371201 0.00143161 0.01355247 0.00092837 0.00764815 0.02340509 0.00837588 0.00053943 
0.01255925 0.01011355 0.00141310 0.00171345 0.01167225 0.00109775 0.01096891 0.00221101 0.02412333 0.00145391 0.01370643 0.00092869 0.00773592 0.02375847 0.00848601 0.00053309 
0.01265831 0.00992879 0.00138583 0.00170572 0.01159238 0.00110523 0.01055614 0.00222282 0.02455388 0.00147862 0.01386113 0.00092960 0.00782149 0.02409733 0.00859049 0.00052851 
0.01277208 0.00975075 0.00135851 0.00169892 0.01150629 0.00111256 0.01013527 0.00223827 0.02500049 0.00150571 0.01401583 0.00093107 0.00790452 0.02442194 0.00868932 0.00052597 
0.01289945 0.00957985 0.00133126 0.00169302 0.01141399 0.00111975 0.00970794 0.00225728 0.02545987 0.00153516 0.01416975 0.00093308 0.00798469 0.02473267 0.00878256 0.00052575 
0.01303922 0.00941651 0.00130419 0.00168798 0.01131553 0.00112678 0.00927581 0.00227974 0.02592866 0.00156694 0.01432208 0.00093561 0.00806168 0.02502999 0.00887029 0.00052813 
0.01319019 0.00926115 0.00127741 0.00168376 0.01121102 0.00113365 0.00884060 0.00230554 0.02640346 0.00160102 0.01447197 0.00093861 0.00813521 0.02531451 0.00895259 0.00053338 
0.01335111 0.00911419 0.00125106 0.00168031 0.01110061 0.00114035 0.00840400 0.00233456 0.02688083 0.00163735 0.01461853 0.00094206 0.00820501 0.02558693 0.00902962 0.00054177 
0.01352069 0.00897602 0.00122524 0.00167760 0.01098450 0.00114687 0.00796776 0.00236663 0.02735729 0.00167587 0.01476086 0.00094591 0.00827083 0.02584804 0.00910153 0.00055358 
0.01369765 0.00884707 0.00120010 0.00167558 0.01086292 0.00115321 0.00753358 0.00240160 0.02782937 0.00171652 0.01489802 0.00095013 0.00833245 0.02609873 0.00916850 0.00056905 
0.01388068 0.00872773 0.00117576 0.00167421 0.01073615 0.00115937 0.00710318 0.00243928 0.02829362 0.00175920 0.01502906 0.00095468 0.00838968 0.02634000 0.00923074 0.00058843 
0.01406848 0.00861841 0.00115237 0.00167344 0.01060453 0.00116534 0.00667826 0.00247947 0.02874662 0.00180383 0.01515304 0.00095951 0.00844236 0.02657292 0.00928850 0.00061196 
0.01425977 0.00851952 0.00113004 0.00167323 0.01046840 0.00117112 0.00626047 0.00252198 0.02918501 0.00185031 0.01526898 0.00096458 0.00849036 0.02679861 0.00934202 0.00063986 
0.01445328 0.00843145 0.00110894 0.00167354 0.01032817 0.00117671 0.00585146 0.00256658 0.02960548 0.00189851 0.01537593 0.00096984 0.00853357 0.02701830 0.00939158 0.00067233 
0.01464775 0.00835462 0.00108918 0.00167433 0.01018427 0.00118209 0.00545281 0.00261302 0.03000485 0.00194832 0.01547293 0.00097525 0.00857193 0.02723325 0.00943747 0.00070955 
0.01484199 0.00828943 0.00107091 0.00167555 0.01003716 0.00118728 0.00506607 0.00266109 0.03038000 0.00199958 0.01555906 0.00098075 0.00860540 0.02744477 0.00947998 0.00075170 
0.01503482 0.00823627 0.00105426 0.00167716 0.00988732 0.00119225 0.00469271 0.00271051 0.03072797 0.00205215 0.01563338 0.00098631 0.00863400 0.02765420 0.00951945 0.00079891 
0.01522513 0.00819557 0.00103939 0.00167913 0.00973528 0.00119702 0.00433415 0.00276103 0.03104593 0.00210586 0.01569503 0.00099187 0.00865775 0.02786293 0.00955619 0.00085130 
0.01541185 0.00816771 0.00102641 0.00168141 0.00958157 0.00120156 0.00399174 0.00281238 0.03133121 0.00216054 0.01574315 0.00099738 0.00867674 0.02807232 0.00959054 0.00090897 
0.01559399 0.00815310 0.00101546 0.00168399 0.00942674 0.00120588 0.00366676 0.00286429 0.03158133 0.00221600 0.01577694 0.00100280 0.00869107 0.02828376 0.00962283 0.00097198 
0.01577062 0.00815215 0.00100667 0.00168681 0.00927134 0.00120997 0.00336038 0.00291648 0.03179398 0.00227204 0.01579563 0.00100808 0.00870089 0.02849863 0.00965340 0.00104037 
0.01594087 0.00816524 0.00100017 0.00168985 0.00911597 0.00121381 0.00307372 0.00296868 0.03196706 0.00232847 0.01579853 0.00101317 0.00870638 0.02871826 0.00968258 0.00111415 
0.01610397 0.00819277 0.00099608 0.00169309 0.00896119 0.00121741 0.00280778 0.00302060 0.03209871 0.00238507 0.01578500 0.00101804 0.00870776 0.02894396 0.00971071 0.00119330 
0.01625921 0.00823513 0.00099451 0.00169649 0.00880759 0.00122074 0.00256347 0.00307196 0.03218726 0.00244161 0.01575446 0.00102263 0.00870526 0.02917698 0.00973811 0.00127776 
0.01640598 0.00829269 0.00099558 0.00170004 0.00865574 0.00122380 0.00234161 0.00312249 0.03223133 0.00249788 0.01570643 0.00102692 0.00869917 0.02941851 0.00976510 0.00136744 
0.01654375 0.00836583 0.00099940 0.00170370 0.00850621 0.00122658 0.00214291 0.00317190 0.03222975 0.00255363 0.01564050 0.00103085 0.00868979 0.02966964 0.00979196 0.00146223 
0.01667208 0.00845489 0.00100605 0.00170746 0.00835956 0.00122907 0.00196798 0.00321993 0.03218164 0.00260864 0.01555632 0.00103441 0.00867746 0.02993141 0.00981899 0.00156198 
0.01679062 0.00856022 0.00101563 0.00171130 0.00821633 0.00123124 0.00181730 0.00326632 0.03208637 0.00266267 0.01545368 0.00103754 0.00866253 0.03020471 0.00984645 0.00166650 
0.01689911 0.00868214 0.00102822 0.00171521 0.00807705 0.00123310 0.00169127 0.00331081 0.03194361 0.00271547 0.01533243 0.00104024 0.00864539 0.03049034 0.00987458 0.00177556 
0.01699739 0.00882095 0.00104390 0.00171917 0.00794221 0.00123461 0.00159017 0.00335315 0.03175327 0.00276682 0.01519253 0.00104246 0.00862644 0.03078897 0.00990361 0.00188893 
0.01708536 0.00897695 0.00106272 0.00172316 0.00781229 0.00123578 0.00151417 0.00339311 0.03151557 0.00281646 0.01503405 0.00104419 0.00860611 0.03110113 0.00993372 0.00200631 
0.01716303 0.00915037 0.00108475 0.00172719 0.00768773 0.00123658 0.00146332 0.00343046 0.03123100 0.00286418 0.01485716 0.00104541 0.00858481 0.03142720 0.00996509 0.00212738 
0.01723050 0.00934144 0.00111003 0.00173123 0.00756895 0.00123700 0.00143757 0.00346499 0.03090034 0.00290975 0.01466214 0.00104610 0.00856301 0.03176741 0.00999784 0.00225181 
0.01728794 0.00955036 0.00113858 0.00173529 0.00745632 0.00123703 0.00143676 0.00349651 0.03052466 0.00295294 0.01444938 0.00104626 0.00854114 0.03212180 0.01003207 0.00237920 
0.01733560 0.00977727 0.00117044 0.00173936 0.00735019 0.00123665 0.00146062 0.00352483 0.03010528 0.00299354 0.01421939 0.00104587 0.00851968 0.03249028 0.01006787 0.00250917 
0.01737381 0.01002229 0.00120561 0.00174343 0.00725085 0.00123586 0.00150878 0.00354980 0.02964381 0.00303136 0.01397279 0.00104493 0.00849907 0.03287255 0.01010527 0.00264128 
0.01740296 0.01028548 0.00124410 0.00174750 0.00715856 0.00123462 0.00158077 0.00357127 0.02914212 0.00306620 0.01371031 0.00104345 0.00847979 0.03326814 0.01014425 0.00277506 
0.01742350 0.01056687 0.00128588 0.00175158 0.00707353 0.00123295 0.00167601 0.00358912 0.02860236 0.00309790 0.01343280 0.00104143 0.00846227 0.03367640 0.01018479 0.00291005 
0.01743597 0.01086641 0.00133093 0.00175565 0.00699594 0.00123082 0.00179383 0.00360323 0.02802689 0.00312628 0.01314121 0.00103888 0.00844696 0.03409650 0.01022682 0.00304574 
0.01744093 0.01118403 0.00137922 0.00175973 0.00692590 0.00122823 0.00193346 0.00361352 0.02741834 0.00315122 0.01283661 0.00103582 0.00843429 0.03452739 0.01027021 0.00318161 
0.01743899 0.01151956 0.00143068 0.00176381 0.00686351 0.00122517 0.00209406 0.00361994 0.02677954 0.00317258 0.01252017 0.00103225 0.00842467 0.03496788 0.01031483 0.00331714 
0.01743083 0.01187281 0.00148527 0.00176790 0.00680878 0.00122163 0.00227470 0.00362243 0.02611355 0.00319027 0.01219316 0.00102821 0.00841850 0.03541658 0.01036048 0.00345176 
0.01741711 0.01224349 0.00154290 0.00177200 0.00676171 0.00121762 0.00247435 0.00362097 0.02542361 0.00320419 0.01185696 0.00102371 0.00841615 0.03587191 0.01040695 0.00358494 
0.01739856 0.01263124 0.00160347 0.00177611 0.00672224 0.00121313 0.00269194 0.00361558 0.02471315 0.00321429 0.01151302 0.00101879 0.00841796 0.03633215 0.01045397 0.00371609 
0.01737591 0.01303566 0.00166690 0.00178024 0.00669027 0.00120817 0.00292632 0.00360627 0.02398574 0.00322053 0.01116291 0.00101348 0.00842425 0.03679539 0.01050127 0.00384466 
0.01734990 0.01345625 0.00173306 0.00178441 0.00666564 0.00120274 0.00317625 0.00359308 0.02324512 0.00322289 0.01080825 0.00100781 0.00843531 0.03725959 0.01054851 0.00397008 
0.01732128 0.01389242 0.00180182 0.00178861 0.00664819 0.00119685 0.00344049 0.00357610 0.02249514 0.00322139 0.01045076 0.00100181 0.00845138 0.03772254 0.01059535 0.00409177 
0.01729079 0.01434353 0.00187305 0.00179285 0.00663767 0.00119051 0.00371770 0.00355540 0.02173975 0.00321605 0.01009220 0.00099554 0.00847268 0.03818193 0.01064140 0.00420917 
0.01725914 0.01480885 0.00194660 0.00179714 0.00663383 0.00118373 0.00400652 0.00353111 0.02098297 0.00320695 0.00973441 0.00098904 0.00849939 0.03863532 0.01068627 0.00432174 
0.01722707 0.01528755 0.00202230 0.00180149 0.00663637 0.00117654 0.00430556 0.00350335 0.02022890 0.00319417 0.00937927 0.00098234 0.00853163 0.03908017 0.01072951 0.00442892 
0.01719523 0.01577874 0.00209998 0.00180591 0.00664496 0.00116895 0.00461338 0.00347229 0.01948166 0.00317782 0.00902870 0.00097549 0.00856950 0.03951386 0.01077069 0.00453019 
0.01716429 0.01628143 0.00217946 0.00181041 0.00665925 0.00116100 0.00492853 0.00343808 0.01874540 0.00315804 0.00868466 0.00096855 0.00861305 0.03993370 0.01080935 0.00462504 
0.01713485 0.01679456 0.00226054 0.00181500 0.00667885 0.00115270 0.00524954 0.00340093 0.01802424 0.00313499 0.00834911 0.00096155 0.00866228 0.04033696 0.01084499 0.00471297 
0.01710748 0.01731699 0.00234303 0.00181970 0.00670335 0.00114410 0.00557493 0.00336104 0.01732227 0.00310887 0.00802405 0.00095456 0.00871716 0.04072086 0.01087714 0.00479354 
0.01708268 0.01784747 0.00242671 0.00182451 0.00673233 0.00113522 0.00590323 0.00331863 0.01664356 0.00307990 0.00771145 0.00094761 0.00877759 0.04108265 0.01090531 0.00486629 
0.01706091 0.01838472 0.00251136 0.00182945 0.00676535 0.00112611 0.00623295 0.00327396 0.01599204 0.00304829 0.00741329 0.00094077 0.00884345 0.04141956 0.01092899 0.00493083 
0.01704257 0.01892734 0.00259677 0.00183454 0.00680197 0.00111681 0.00656264 0.00322727 0.01537160 0.00301433 0.00713152 0.00093407 0.00891456 0.04172886 0.01094771 0.00498677 
0.01702798 0.01947389 0.00268270 0.00183979 0.00684172 0.00110736 0.00689084 0.00317883 0.01478596 0.00297828 0.00686805 0.00092756 0.00899070 0.04200790 0.01096097 0.00503377 
0.01701739 0.02002283 0.00276892 0.00184521 0.00688414 0.00109782 0.00721613 0.00312892 0.01423872 0.00294045 0.00662474 0.00092129 0.00907161 0.04225407 0.01096830 0.00507154 
0.01701100 0.02057259 0.00285519 0.00185082 0.00692877 0.00108825 0.00753713 0.00307782 0.01373332 0.00290116 0.00640343 0.00091532 0.00915699 0.04246490 0.01096924 0.00509981 
0.01700892 0.02112152 0.00294126 0.00185665 0.00697516 0.00107868 0.00785247 0.00302583 0.01327299 0.00286074 0.00620585 0.00090967 0.00924649 0.04263801 0.01096335 0.00511836 
0.01701118 0.02166792 0.00302691 0.00186269 0.00702286 0.00106919 0.00816085 0.00297325 0.01286077 0.00281954 0.00603367 0.00090439 0.00933973 0.04277118 0.01095021 0.00512700 
0.01701774 0.02221004 0.00311187 0.00186899 0.00707142 0.00105983 0.00846101 0.00292038 0.01249948 0.00277793 0.00588849 0.00089951 0.00943631 0.04286235 0.01092943 0.00512561 
0.01702847 0.02274610 0.00319591 0.00187555 0.00712043 0.00105067 0.00875175 0.00286754 0.01219169 0.00273627 0.00577176 0.00089509 0.00953576 0.04290964 0.01090066 0.00511409 
0.01704320 0.02327428 0.00327879 0.00188239 0.00716948 0.00104177 0.00903191 0.00281502 0.01193973 0.00269496 0.00568489 0.00089113 0.00963762 0.04291138 0.01086357 0.00509240 
0.01706163 0.02379275 0.00336026 0.00188954 0.00721820 0.00103320 0.00930041 0.00276314 0.01174564 0.00265437 0.00562910 0.00088768 0.00974139 0.04286612 0.01081787 0.00506055 
0.01708343 0.02429963 0.00344009 0.00189701 0.00726621 0.00102502 0.00955625 0.00271221 0.01161120 0.00261489 0.00560555 0.00088476 0.00984655 0.04277263 0.01076332 0.00501859 
0.01710818 0.02479307 0.00351804 0.00190483 0.00731319 0.00101729 0.00979850 0.00266252 0.01153787 0.00257692 0.00561522 0.00088239 0.00995255 0.04262995 0.01069973 0.00496661 
0.01713539 0.02527119 0.00359390 0.00191302 0.00735885 0.00101010 0.01002629 0.00261436 0.01152683 0.00254084 0.00565895 0.00088059 0.01005884 0.04243738 0.01062695 0.00490478 
0.01716451 0.02573215 0.00366744 0.00192159 0.00740290 0.00100350 0.01023885 0.00256803 0.01157893 0.00250705 0.00573746 0.00087937 0.01016486 0.04219450 0.01054486 0.00483327 
0.01719494 0.02617411 0.00373844 0.00193058 0.00744512 0.00099755 0.01043550 0.00252381 0.01169472 0.00247591 0.00585128 0.00087873 0.01027004 0.04190118 0.01045344 0.00475234 
0.01722600 0.02659527 0.00380671 0.00193999 0.00748531 0.00099234 0.01061562 0.00248195 0.01187441 0.00244779 0.00600079 0.00087869 0.01037381 0.04155758 0.01035269 0.00466226 
0.01725699 0.02699387 0.00387206 0.00194985 0.00752330 0.00098791 0.01077871 0.00244272 0.01211789 0.00242305 0.00618621 0.00087923 0.01047561 0.04116415 0.01024267 0.00456338 
0.01728714 0.02736819 0.00393429 0.00196017 0.00755897 0.00098433 0.01092434 0.00240636 0.01242472 0.00240203 0.00640759 0.00088037 0.01057488 0.04072168 0.01012351 0.00445607 
0.01731566 0.02771660 0.00399324 0.00197098 0.00759224 0.00098166 0.01105221 0.00237309 0.01279414 0.00238506 0.00666480 0.00088208 0.01067108 0.04023123 0.00999539 0.00434074 
0.01734174 0.02803750 0.00404875 0.00198229 0.00762305 0.00097995 0.01116206 0.00234313 0.01322506 0.00237243 0.00695753 0.00088436 0.01076368 0.03969419 0.00985855 0.00421784 
0.01736451 0.02832940 0.00410068 0.00199412 0.00765141 0.00097926 0.01125377 0.00231667 0.01371607 0.00236443 0.00728530 0.00088718 0.01085219 0.03911224 0.00971329 0.00408788 
0.01738312 0.02859089 0.00414890 0.00200647 0.00767734 0.00097962 0.01132730 0.00229388 0.01426545 0.00236132 0.00764747 0.00089052 0.01093612 0.03848738 0.00955997 0.00395138 
0.01739670 0.02882067 0.00419328 0.00201937 0.00770092 0.00098110 0.01138269 0.00227493 0.01487118 0.00236333 0.00804321 0.00089436 0.01101503 0.03782187 0.00939901 0.00380889 
0.01740439 0.02901754 0.00423373 0.00203281 0.00772225 0.00098371 0.01142010 0.00225994 0.01553092 0.00237067 0.00847151 0.00089866 0.01108852 0.03711828 0.00923088 0.00366101 
0.01740533 0.02918043 0.00427016 0.00204681 0.00774147 0.00098749 0.01143977 0.00224904 0.01624208 0.00238350 0.00893120 0.00090340 0.01115621 0.03637943 0.00905610 0.00350835 
0.01739868 0.02930837 0.00430251 0.00206136 0.00775877 0.00099248 0.01144203 0.00224233 0.01700177 0.00240197 0.00942095 0.00090853 0.01121779 0.03560842 0.00887527 0.00335156 
0.01738362 0.02940055 0.00433072 0.00207647 0.00777437 0.00099869 0.01142729 0.00223987 0.01780684 0.00242619 0.00993927 0.00091402 0.01127297 0.03480857 0.00868899 0.00319129 
0.01735937 0.02945629 0.00435475 0.00209214 0.00778850 0.00100613 0.01139606 0.00224172 0.01865392 0.00245623 0.01048450 0.00091982 0.01132153 0.03398342 0.00849797 0.00302821 
0.01732520 0.02947506 0.00437460 0.00210836 0.00780143 0.00101481 0.01134892 0.00224791 0.01953939 0.00249214 0.01105486 0.00092588 0.01136329 0.03313674 0.00830290 0.00286303 
0.01728041 0.02945648 0.00439025 0.00212512 0.00781347 0.00102472 0.01128654 0.00225845 0.02045946 0.00253393 0.01164842 0.00093215 0.01139813 0.03227245 0.00810456 0.00269643 
0.01722437 0.02940032 0.00440172 0.00214240 0.00782495 0.00103588 0.01120966 0.00227332 0.02141010 0.00258155 0.01226310 0.00093860 0.01142599 0.03139465 0.00790374 0.00252913 
0.01715652 0.02930652 0.00440906 0.00216019 0.00783620 0.00104825 0.01111908 0.00229250 0.02238716 0.00263495 0.01289673 0.00094515 0.01144686 0.03050757 0.00770126 0.00236184 
0.01707635 0.02917520 0.00441231 0.00217847 0.00784759 0.00106181 0.01101568 0.00231592 0.02338633 0.00269402 0.01354701 0.00095177 0.01146081 0.02961554 0.00749799 0.00219527 
0.01698343 0.02900660 0.00441153 0.00219720 0.00785951 0.00107653 0.01090039 0.00234351 0.02440316 0.00275863 0.01421155 0.00095839 0.01146796 0.02872298 0.00729480 0.00203011 
0.01687744 0.02880118 0.00440681 0.00221635 0.00787233 0.00109239 0.01077420 0.00237518 0.02543312 0.00282859 0.01488788 0.00096497 0.01146849 0.02783437 0.00709258 0.00186708 
0.01675810 0.02855952 0.00439826 0.00223590 0.00788645 0.00110932 0.01063815 0.00241079 0.02647161 0.00290370 0.01557344 0.00097145 0.01146264 0.02695421 0.00689225 0.00170686 
0.01662526 0.02828241 0.00438599 0.00225580 0.00790230 0.00112728 0.01049333 0.00245023 0.02751397 0.00298370 0.01626562 0.00097777 0.01145072 0.02608701 0.00669471 0.00155012 
0.01647885 0.02797076 0.00437012 0.00227600 0.00792026 0.00114620 0.01034085 0.00249334 0.02855549 0.00306834 0.01696175 0.00098388 0.01143310 0.02523724 0.00650087 0.00139751 
0.01631889 0.02762568 0.00435081 0.00229646 0.00794074 0.00116602 0.01018187 0.00253993 0.02959151 0.00315728 0.01765913 0.00098974 0.01141020 0.02440932 0.00631166 0.00124968 
0.01614552 0.02724842 0.00432821 0.00231711 0.00796415 0.00118667 0.01001756 0.00258984 0.03061734 0.00325021 0.01835506 0.00099529 0.01138250 0.02360758 0.00612797 0.00110723 
0.01595896 0.02684037 0.00430249 0.00233791 0.00799087 0.00120806 0.00984912 0.00264285 0.03162837 0.00334674 0.01904680 0.00100048 0.01135056 0.02283625 0.00595069 0.00097074 
0.01575954 0.02640310 0.00427383 0.00235879 0.00802128 0.00123010 0.00967775 0.00269875 0.03262005 0.00344650 0.01973163 0.00100527 0.01131495 0.02209940 0.00578067 0.00084077 
0.01554770 0.02593829 0.00424244 0.00237969 0.00805576 0.00125271 0.00950468 0.00275731 0.03358792 0.00354905 0.02040685 0.00100962 0.01127632 0.02140095 0.00561877 0.00071784 
0.01532397 0.02544776 0.00420850 0.00240053 0.00809465 0.00127578 0.00933111 0.00281829 0.03452765 0.00365396 0.02106981 0.00101349 0.01123536 0.02074462 0.00546579 0.00060243 
0.01508898 0.02493346 0.00417224 0.00242123 0.00813827 0.00129921 0.00915824 0.00288145 0.03543503 0.00376078 0.02171789 0.00101684 0.01119279 0.02013393 0.00532250 0.00049500 
0.01484347 0.02439746 0.00413387 0.00244173 0.00818693 0.00132289 0.00898728 0.00294652 0.03630604 0.00386903 0.02234854 0.00101964 0.01114938 0.01957213 0.00518963 0.00039595 
0.01458825 0.02384193 0.00409362 0.00246195 0.00824091 0.00134672 0.00881938 0.00301324 0.03713682 0.00397822 0.02295929 0.00102186 0.01110593 0.01906226 0.00506788 0.00030565 
0.01432424 0.02326912 0.00405171 0.00248179 0.00830046 0.00137058 0.00865571 0.00308135 0.03792373 0.00408787 0.02354775 0.00102348 0.01106326 0.01860704 0.00495786 0.00022443 
0.01405244 0.02268138 0.00400839 0.00250119 0.00836579 0.00139435 0.00849736 0.00315056 0.03866334 0.00419745 0.02411164 0.00102448 0.01102221 0.01820891 0.00486018 0.00015256 
0.01377392 0.02208113 0.00396389 0.00252004 0.00843710 0.00141793 0.00834542 0.00322060 0.03935246 0.00430647 0.02464879 0.00102484 0.01098365 0.01787001 0.00477535 0.00009028 
0.01348984 0.02147085 0.00391844 0.00253827 0.00851453 0.00144118 0.00820092 0.00329119 0.03998816 0.00441442 0.02515716 0.00102456 0.01094846 0.01759214 0.00470384 0.00003779 
0.01320140 0.02085305 0.00387229 0.00255579 0.00859820 0.00146399 0.00806484 0.00336207 0.04056777 0.00452079 0.02563482 0.00102363 0.01091750 0.01737678 0.00464605 0.00000479 
0.01290988 0.02023029 0.00382568 0.00257251 0.00868818 0.00148626 0.00793811 0.00343295 0.04108890 0.00462507 0.02608003 0.00102205 0.01089165 0.01722506 0.00460231 0.00003736 
0.01261662 0.01960515 0.00377883 0.00258835 0.00878452 0.00150785 0.00782160 0.00350357 0.04154947 0.00472677 0.02649116 0.00101983 0.01087177 0.01713777 0.00457290 0.00005987 
0.01232297 0.01898020 0.00373199 0.00260322 0.00888721 0.00152867 0.00771613 0.00357365 0.04194770 0.00482541 0.02686677 0.00101698 0.01085871 0.01711533 0.00455802 0.00007232 
0.01203034 0.01835804 0.00368539 0.00261703 0.00899622 0.00154860 0.00762242 0.00364296 0.04228208 0.00492052 0.02720556 0.00101350 0.01085331 0.01715781 0.00455779 0.00007478 
0.01174016 0.01774120 0.00363923 0.00262972 0.00911145 0.00156754 0.00754116 0.00371122 0.04255148 0.00501165 0.02750643 0.00100943 0.01085636 0.01726495 0.00457226 0.00006734 
0.01145388 0.01713222 0.00359374 0.00264119 0.00923279 0.00158540 0.00747295 0.00377821 0.04275504 0.00509837 0.02776845 0.00100479 0.01086862 0.01743611 0.00460143 0.00005014 
0.01117294 0.01653357 0.00354913 0.00265138 0.00936008 0.00160207 0.00741830 0.00384369 0.04289223 0.00518027 0.02799086 0.00099960 0.01089082 0.01767031 0.00464521 0.00002338 
0.01089880 0.01594766 0.00350560 0.00266022 0.00949310 0.00161747 0.00737766 0.00390745 0.04296287 0.00525697 0.02817311 0.00099391 0.01092363 0.01796625 0.00470345 0.00001269 
0.01063289 0.01537683 0.00346333 0.00266763 0.00963162 0.00163152 0.00735139 0.00396928 0.04296707 0.00532811 0.02831481 0.00098775 0.01096768 0.01832229 0.00477592 0.00005781 
0.01037661 0.01482336 0.00342251 0.00267357 0.00977535 0.00164416 0.00733979 0.00402900 0.04290528 0.00539337 0.02841577 0.00098116 0.01102354 0.01873648 0.00486232 0.00011165 
0.01013137 0.01428939 0.00338330 0.00267797 0.00992397 0.00165532 0.00734304 0.00408642 0.04277824 0.00545246 0.02847600 0.00097420 0.01109170 0.01920657 0.00496231 0.00017383 
0.00989848 0.01377699 0.00334585 0.00268080 0.01007712 0.00166494 0.00736126 0.00414139 0.04258703 0.00550513 0.02849566 0.00096690 0.01117260 0.01973001 0.00507546 0.00024396 
0.00967925 0.01328809 0.00331032 0.00268200 0.01023440 0.00167299 0.00739450 0.00419377 0.04233299 0.00555114 0.02847514 0.00095933 0.01126660 0.02030400 0.00520129 0.00032160 
0.00947489 0.01282450 0.00327684 0.00268155 0.01039540 0.00167943 0.00744270 0.00424342 0.04201778 0.00559031 0.02841496 0.00095154 0.01137398 0.02092551 0.00533926 0.00040627 
0.00928658 0.01238789 0.00324551 0.00267942 0.01055964 0.00168423 0.00750573 0.00429026 0.04164331 0.00562250 0.02831584 0.00094359 0.01149493 0.02159124 0.00548879 0.00049748 
0.00911539 0.01197980 0.00321644 0.00267559 0.01072665 0.00168740 0.00758339 0.00433417 0.04121179 0.00564760 0.02817868 0.00093553 0.01162958 0.02229772 0.00564922 0.00059467 
0.00896232 0.01160160 0.00318972 0.00267005 0.01089590 0.00168892 0.00767538 0.00437511 0.04072564 0.00566554 0.02800451 0.00092744 0.01177795 0.02304130 0.00581989 0.00069731 
0.00882828 0.01125450 0.00316544 0.00266281 0.01106686 0.00168881 0.00778135 0.00441301 0.04018754 0.00567629 0.02779454 0.00091937 0.01193999 0.02381816 0.00600005 0.00080479 
0.00871408 0.01093956 0.00314363 0.00265387 0.01123895 0.00168708 0.00790085 0.00444784 0.03960037 0.00567987 0.02755011 0.00091139 0.01211553 0.02462436 0.00618895 0.00091652 
0.00862042 0.01065766 0.00312436 0.00264325 0.01141159 0.00168379 0.00803338 0.00447959 0.03896724 0.00567631 0.02727271 0.00090356 0.01230433 0.02545586 0.00638580 0.00103188 
0.00854790 0.01040951 0.00310765 0.00263098 0.01158418 0.00167896 0.00817836 0.00450828 0.03829141 0.00566572 0.02696395 0.00089595 0.01250605 0.02630852 0.00658978 0.00115023 
0.00849700 0.01019563 0.00309353 0.00261708 0.01175610 0.00167266 0.00833516 0.00453391 0.03757631 0.00564822 0.02662555 0.00088861 0.01272027 0.02717818 0.00680004 0.00127092 
0.00846807 0.01001639 0.00308198 0.00260161 0.01192673 0.00166495 0.00850308 0.00455654 0.03682552 0.00562397 0.02625935 0.00088161 0.01294646 0.02806064 0.00701572 0.00139331 
0.00846136 0.00987195 0.00307301 0.00258463 0.01209542 0.00165592 0.00868136 0.00457623 0.03604274 0.00559319 0.02586727 0.00087501 0.01318402 0.02895171 0.00723596 0.00151673 
0.00847698 0.00976231 0.00306660 0.00256618 0.01226154 0.00164565 0.00886921 0.00459306 0.03523177 0.00555610 0.02545132 0.00086886 0.01343223 0.02984720 0.00745989 0.00164054 
0.00851492 0.00968730 0.00306269 0.00254635 0.01242443 0.00163424 0.00906578 0.00460711 0.03439647 0.00551298 0.02501359 0.00086322 0.01369032 0.03074302 0.00768662 0.00176407 
0.00857503 0.00964655 0.00306126 0.00252521 0.01258346 0.00162180 0.00927018 0.00461850 0.03354080 0.00546412 0.02455621 0.00085814 0.01395743 0.03163511 0.00791530 0.00188669 
0.00865706 0.00963954 0.00306223 0.00250285 0.01273799 0.00160845 0.00948148 0.00462736 0.03266870 0.00540987 0.02408136 0.00085366 0.01423261 0.03251954 0.00814505 0.00200774 
0.00876061 0.00966557 0.00306553 0.00247937 0.01288737 0.00159430 0.00969874 0.00463383 0.03178418 0.00535057 0.02359126 0.00084984 0.01451484 0.03339250 0.00837504 0.00212662 
0.00888516 0.00972378 0.00307110 0.00245487 0.01303099 0.00157950 0.00992098 0.00463804 0.03089120 0.00528661 0.02308815 0.00084671 0.01480305 0.03425032 0.00860442 0.00224272 
0.00903007 0.00981314 0.00307882 0.00242946 0.01316824 0.00156418 0.01014720 0.00464017 0.02999372 0.00521839 0.02257428 0.00084431 0.01509608 0.03508950 0.00883241 0.00235545 
0.00919457 0.00993249 0.00308862 0.00240325 0.01329852 0.00154847 0.01037639 0.00464040 0.02909563 0.00514633 0.02205188 0.00084266 0.01539275 0.03590672 0.00905821 0.00246424 
0.00937780 0.01008052 0.00310037 0.00237636 0.01342126 0.00153254 0.01060755 0.00463889 0.02820077 0.00507087 0.02152318 0.00084180 0.01569180 0.03669885 0.00928109 0.00256857 
0.00957875 0.01025578 0.00311398 0.00234892 0.01353591 0.00151653 0.01083965 0.00463584 0.02731289 0.00499246 0.02099038 0.00084173 0.01599195 0.03746300 0.00950033 0.00266793 
0.00979635 0.01045668 0.00312931 0.00232106 0.01364193 0.00150059 0.01107168 0.00463144 0.02643562 0.00491157 0.02045563 0.00084247 0.01629188 0.03819649 0.00971525 0.00276184 
0.01002939 0.01068155 0.00314625 0.00229291 0.01373883 0.00148489 0.01130264 0.00462588 0.02557247 0.00482865 0.01992104 0.00084404 0.01659024 0.03889688 0.00992523 0.00284988 
0.01027658 0.01092857 0.00316466 0.00226460 0.01382614 0.00146957 0.01153154 0.00461939 0.02472683 0.00474419 0.01938866 0.00084643 0.01688567 0.03956200 0.01012966 0.00293165 
0.01053655 0.01119586 0.00318441 0.00223628 0.01390341 0.00145478 0.01175742 0.00461214 0.02390191 0.00465865 0.01886046 0.00084964 0.01717681 0.04018991 0.01032802 0.00300678 
0.01080784 0.01148142 0.00320538 0.00220808 0.01397025 0.00144069 0.01197932 0.00460435 0.02310077 0.00457250 0.01833835 0.00085365 0.01746229 0.04077895 0.01051979 0.00307497 
0.01108893 0.01178320 0.00322742 0.00218014 0.01402628 0.00142744 0.01219634 0.00459621 0.02232625 0.00448622 0.01782412 0.00085846 0.01774076 0.04132773 0.01070453 0.00313595 
0.01137823 0.01209909 0.00325041 0.00215260 0.01407119 0.00141517 0.01240759 0.00458793 0.02158104 0.00440025 0.01731949 0.00086404 0.01801087 0.04183511 0.01088184 0.00318950 
0.01167409 0.01242690 0.00327420 0.00212558 0.01410467 0.00140402 0.01261224 0.00457969 0.02086760 0.00431504 0.01682608 0.00087035 0.01827134 0.04230024 0.01105137 0.00323545 
0.01197484 0.01276443 0.00329866 0.00209924 0.01412649 0.00139414 0.01280949 0.00457167 0.02018816 0.00423103 0.01634537 0.00087738 0.01852088 0.04272253 0.01121283 0.00327368 
0.01227874 0.01310944 0.00332365 0.00207369 0.01413644 0.00138564 0.01299858 0.00456407 0.01954474 0.00414863 0.01587876 0.00088507 0.01875829 0.04310166 0.01136596 0.00330413 
0.01258406 0.01345968 0.00334906 0.00204907 0.01413436 0.00137864 0.01317882 0.00455704 0.01893913 0.00406822 0.01542751 0.00089338 0.01898241 0.04343754 0.01151057 0.00332679 
