0.01197814 0.00854789 0.00238660 0.00192013 0.00467784 0.00132828 0.00756114 0.00584622 0.02231451 0.00361173 0.01217908 0.00206750 0.01715176 0.03983037 0.01262605 0.00073370 
0.01205224 0.00863293 0.00243769 0.00192382 0.00471261 0.00132618 0.00753011 0.00583529 0.02315264 0.00363900 0.01192809 0.00208897 0.01732136 0.04028066 0.01279075 0.00074793 
0.01215671 0.00872603 0.00249299 0.00192820 0.00474475 0.00132438 0.00748953 0.00581912 0.02398788 0.00366313 0.01167506 0.00210804 0.01747013 0.04070952 0.01294660 0.00076192 
0.01229119 0.00882620 0.00255221 0.00193340 0.00477433 0.00132294 0.00743956 0.00579773 0.02481705 0.00368402 0.01142147 0.00212462 0.01759730 0.04111607 0.01309308 0.00077560 
0.01245512 0.00893243 0.00261506 0.00193951 0.00480147 0.00132192 0.00738035 0.00577117 0.02563692 0.00370160 0.01116878 0.00213867 0.01770214 0.04149955 0.01322969 0.00078891 
0.01264775 0.00904369 0.00268120 0.00194666 0.00482628 0.00132138 0.00731211 0.00573950 0.02644427 0.00371580 0.01091848 0.00215015 0.01778403 0.04185930 0.01335598 0.00080180 
0.01286817 0.00915896 0.00275032 0.00195492 0.00484886 0.00132137 0.00723506 0.00570283 0.02723587 0.00372660 0.01067208 0.00215902 0.01784240 0.04219477 0.01347155 0.00081422 
0.01311528 0.00927722 0.00282205 0.00196440 0.00486935 0.00132195 0.00714947 0.00566125 0.02800853 0.00373396 0.01043107 0.00216526 0.01787679 0.04250552 0.01357603 0.00082611 
0.01338781 0.00939747 0.00289604 0.00197516 0.00488789 0.00132316 0.00705563 0.00561491 0.02875908 0.00373789 0.01019695 0.00216887 0.01788683 0.04279118 0.01366912 0.00083743 
0.01368433 0.00951872 0.00297192 0.00198728 0.00490461 0.00132505 0.00695384 0.00556397 0.02948443 0.00373842 0.00997117 0.00216985 0.01787223 0.04305152 0.01375055 0.00084814 
0.01400325 0.00964001 0.00304929 0.00200079 0.00491966 0.00132765 0.00684446 0.00550861 0.03018154 0.00373558 0.00975519 0.00216822 0.01783279 0.04328638 0.01382012 0.00085820 
0.01434285 0.00976040 0.00312777 0.00201574 0.00493318 0.00133100 0.00672785 0.00544903 0.03084746 0.00372943 0.00955042 0.00216400 0.01776844 0.04349567 0.01387767 0.00086757 
0.01470126 0.00987900 0.00320697 0.00203215 0.00494534 0.00133514 0.00660438 0.00538545 0.03147934 0.00372006 0.00935823 0.00215723 0.01767918 0.04367941 0.01392310 0.00087622 
0.01507648 0.00999496 0.00328649 0.00205004 0.00495627 0.00134007 0.00647448 0.00531811 0.03207445 0.00370755 0.00917992 0.00214796 0.01756514 0.04383769 0.01395633 0.00088413 
0.01546641 0.01010747 0.00336593 0.00206940 0.00496614 0.00134583 0.00633858 0.00524726 0.03263018 0.00369202 0.00901677 0.00213626 0.01742651 0.04397066 0.01397739 0.00089126 
0.01586884 0.01021577 0.00344489 0.00209022 0.00497508 0.00135243 0.00619710 0.00517317 0.03314408 0.00367361 0.00886996 0.00212219 0.01726364 0.04407855 0.01398630 0.00089760 
0.01628148 0.01031916 0.00352298 0.00211247 0.00498325 0.00135986 0.00605053 0.00509613 0.03361385 0.00365246 0.00874061 0.00210584 0.01707694 0.04416164 0.01398317 0.00090313 
0.01670196 0.01041702 0.00359980 0.00213609 0.00499079 0.00136814 0.00589933 0.00501644 0.03403735 0.00362874 0.00862975 0.00208728 0.01686694 0.04422024 0.01396815 0.00090785 
0.01712785 0.01050877 0.00367496 0.00216103 0.00499783 0.00137724 0.00574401 0.00493439 0.03441262 0.00360261 0.00853832 0.00206662 0.01663428 0.04425475 0.01394143 0.00091174 
0.01755667 0.01059391 0.00374811 0.00218722 0.00500450 0.00138717 0.00558505 0.00485030 0.03473792 0.00357426 0.00846718 0.00204397 0.01637968 0.04426558 0.01390326 0.00091480 
0.01798591 0.01067200 0.00381885 0.00221458 0.00501093 0.00139790 0.00542297 0.00476449 0.03501166 0.00354390 0.00841706 0.00201943 0.01610397 0.04425316 0.01385393 0.00091702 
0.01841305 0.01074271 0.00388685 0.00224299 0.00501722 0.00140939 0.00525829 0.00467730 0.03523251 0.00351173 0.00838861 0.00199313 0.01580809 0.04421798 0.01379376 0.00091842 
0.01883555 0.01080575 0.00395175 0.00227235 0.00502348 0.00142163 0.00509153 0.00458904 0.03539932 0.00347797 0.00838236 0.00196519 0.01549303 0.04416051 0.01372314 0.00091900 
0.01925091 0.01086092 0.00401324 0.00230253 0.00502981 0.00143457 0.00492324 0.00450004 0.03551119 0.00344285 0.00839870 0.00193574 0.01515993 0.04408126 0.01364247 0.00091876 
0.01965662 0.01090811 0.00407100 0.00233341 0.00503628 0.00144816 0.00475393 0.00441065 0.03556743 0.00340659 0.00843791 0.00190492 0.01480995 0.04398074 0.01355221 0.00091773 
0.02005024 0.01094729 0.00412474 0.00236484 0.00504297 0.00146235 0.00458415 0.00432118 0.03556758 0.00336943 0.00850017 0.00187285 0.01444438 0.04385947 0.01345284 0.00091592 
0.02042938 0.01097850 0.00417420 0.00239666 0.00504993 0.00147709 0.00441444 0.00423195 0.03551142 0.00333160 0.00858549 0.00183970 0.01406456 0.04371794 0.01334487 0.00091335 
0.02079172 0.01100189 0.00421911 0.00242871 0.00505720 0.00149231 0.00424531 0.00414328 0.03539899 0.00329334 0.00869378 0.00180559 0.01367192 0.04355666 0.01322885 0.00091005 
0.02113501 0.01101765 0.00425926 0.00246084 0.00506482 0.00150795 0.00407731 0.00405549 0.03523052 0.00325490 0.00882479 0.00177067 0.01326794 0.04337612 0.01310534 0.00090602 
0.02145711 0.01102610 0.00429443 0.00249286 0.00507279 0.00152392 0.00391095 0.00396887 0.03500653 0.00321650 0.00897818 0.00173508 0.01285417 0.04317680 0.01297495 0.00090132 
0.02175598 0.01102760 0.00432445 0.00252460 0.00508114 0.00154016 0.00374676 0.00388371 0.03472773 0.00317839 0.00915342 0.00169898 0.01243220 0.04295916 0.01283829 0.00089596 
0.02202971 0.01102262 0.00434916 0.00255588 0.00508983 0.00155657 0.00358525 0.00380029 0.03439509 0.00314077 0.00934991 0.00166249 0.01200369 0.04272365 0.01269598 0.00088998 
0.02227650 0.01101167 0.00436843 0.00258651 0.00509886 0.00157308 0.00342691 0.00371888 0.03400980 0.00310389 0.00956688 0.00162578 0.01157032 0.04247068 0.01254867 0.00088340 
0.02249472 0.01099537 0.00438216 0.00261633 0.00510819 0.00158960 0.00327224 0.00363971 0.03357326 0.00306796 0.00980344 0.00158896 0.01113382 0.04220067 0.01239702 0.00087627 
0.02268286 0.01097439 0.00439029 0.00264514 0.00511775 0.00160603 0.00312172 0.00356303 0.03308710 0.00303317 0.01005859 0.00155219 0.01069595 0.04191400 0.01224168 0.00086862 
0.02283958 0.01094946 0.00439275 0.00267277 0.00512751 0.00162228 0.00297580 0.00348906 0.03255315 0.00299973 0.01033120 0.00151559 0.01025849 0.04161103 0.01208334 0.00086050 
0.02296371 0.01092140 0.00438954 0.00269905 0.00513737 0.00163826 0.00283495 0.00341799 0.03197346 0.00296782 0.01062003 0.00147929 0.00982323 0.04129212 0.01192265 0.00085192 
0.02305425 0.01089106 0.00438066 0.00272381 0.00514726 0.00165386 0.00269958 0.00335000 0.03135024 0.00293762 0.01092374 0.00144342 0.00939198 0.04095760 0.01176029 0.00084295 
0.02311036 0.01085936 0.00436615 0.00274688 0.00515709 0.00166900 0.00257013 0.00328526 0.03068591 0.00290929 0.01124087 0.00140809 0.00896654 0.04060779 0.01159693 0.00083361 
0.02313139 0.01082726 0.00434608 0.00276810 0.00516675 0.00168356 0.00244699 0.00322392 0.02998304 0.00288297 0.01156988 0.00137341 0.00854873 0.04024301 0.01143323 0.00082395 
0.02311689 0.01079576 0.00432055 0.00278734 0.00517614 0.00169746 0.00233054 0.00316610 0.02924436 0.00285881 0.01190915 0.00133950 0.00814034 0.03986356 0.01126985 0.00081400 
0.02306657 0.01076590 0.00428968 0.00280446 0.00518513 0.00171060 0.00222114 0.00311190 0.02847276 0.00283692 0.01225697 0.00130644 0.00774314 0.03946975 0.01110743 0.00080381 
0.02298034 0.01073877 0.00425362 0.00281933 0.00519361 0.00172289 0.00211913 0.00306141 0.02767124 0.00281740 0.01261157 0.00127434 0.00735890 0.03906190 0.01094660 0.00079342 
0.02285829 0.01071545 0.00421255 0.00283183 0.00520146 0.00173423 0.00202482 0.00301471 0.02684294 0.00280035 0.01297112 0.00124328 0.00698935 0.03864031 0.01078799 0.00078286 
0.02270069 0.01069706 0.00416667 0.00284186 0.00520855 0.00174453 0.00193852 0.00297183 0.02599109 0.00278583 0.01333373 0.00121334 0.00663618 0.03820534 0.01063219 0.00077218 
0.02250801 0.01068473 0.00411622 0.00284934 0.00521475 0.00175370 0.00186049 0.00293281 0.02511903 0.00277391 0.01369751 0.00118458 0.00630105 0.03775733 0.01047979 0.00076142 
0.02228087 0.01067959 0.00406144 0.00285420 0.00521993 0.00176167 0.00179098 0.00289766 0.02423015 0.00276463 0.01406051 0.00115708 0.00598557 0.03729666 0.01033136 0.00075062 
0.02202010 0.01068276 0.00400263 0.00285637 0.00522398 0.00176836 0.00173021 0.00286637 0.02332792 0.00275801 0.01442078 0.00113089 0.00569129 0.03682375 0.01018744 0.00073980 
0.02172666 0.01069538 0.00394007 0.00285581 0.00522677 0.00177369 0.00167839 0.00283893 0.02241584 0.00275406 0.01477636 0.00110605 0.00541972 0.03633905 0.01004856 0.00072902 
0.02140171 0.01071853 0.00387409 0.00285250 0.00522818 0.00177760 0.00163567 0.00281530 0.02149747 0.00275278 0.01512531 0.00108261 0.00517231 0.03584305 0.00991522 0.00071831 
0.02104653 0.01075330 0.00380503 0.00284641 0.00522811 0.00178002 0.00160220 0.00279542 0.02057635 0.00275416 0.01546572 0.00106060 0.00495043 0.03533631 0.00978790 0.00070770 
0.02066258 0.01080074 0.00373326 0.00283757 0.00522646 0.00178091 0.00157811 0.00277923 0.01965605 0.00275815 0.01579569 0.00104004 0.00475538 0.03481941 0.00966706 0.00069723 
0.02025144 0.01086185 0.00365914 0.00282598 0.00522314 0.00178021 0.00156348 0.00276666 0.01874011 0.00276471 0.01611338 0.00102096 0.00458841 0.03429302 0.00955311 0.00068693 
0.01981483 0.01093761 0.00358308 0.00281169 0.00521807 0.00177788 0.00155838 0.00275760 0.01783204 0.00277378 0.01641701 0.00100337 0.00445065 0.03375787 0.00944648 0.00067685 
0.01935457 0.01102892 0.00350546 0.00279475 0.00521118 0.00177389 0.00156285 0.00275196 0.01693531 0.00278529 0.01670488 0.00098727 0.00434320 0.03321475 0.00934753 0.00066701 
0.01887261 0.01113665 0.00342672 0.00277523 0.00520241 0.00176822 0.00157688 0.00274964 0.01605334 0.00279915 0.01697534 0.00097267 0.00426703 0.03266453 0.00925662 0.00065744 
0.01837099 0.01126158 0.00334728 0.00275321 0.00519173 0.00176085 0.00160047 0.00275051 0.01518946 0.00281527 0.01722687 0.00095955 0.00422305 0.03210815 0.00917408 0.00064818 
0.01785184 0.01140444 0.00326756 0.00272880 0.00517911 0.00175177 0.00163356 0.00275445 0.01434692 0.00283355 0.01745802 0.00094790 0.00421207 0.03154664 0.00910021 0.00063926 
0.01731736 0.01156586 0.00318802 0.00270211 0.00516455 0.00174099 0.00167609 0.00276133 0.01352889 0.00285388 0.01766748 0.00093770 0.00423479 0.03098111 0.00903527 0.00063071 
0.01676981 0.01174641 0.00310909 0.00267328 0.00514804 0.00172851 0.00172794 0.00277102 0.01273840 0.00287613 0.01785404 0.00092894 0.00429184 0.03041274 0.00897953 0.00062256 
0.01621151 0.01194657 0.00303122 0.00264244 0.00512962 0.00171436 0.00178899 0.00278338 0.01197839 0.00290019 0.01801664 0.00092159 0.00438374 0.02984280 0.00893319 0.00061485 
0.01564481 0.01216671 0.00295485 0.00260974 0.00510933 0.00169856 0.00185908 0.00279828 0.01125162 0.00292591 0.01815434 0.00091561 0.00451090 0.02927264 0.00889646 0.00060760 
0.01507209 0.01240713 0.00288043 0.00257536 0.00508723 0.00168117 0.00193803 0.00281559 0.01056076 0.00295317 0.01826636 0.00091098 0.00467366 0.02870369 0.00886951 0.00060084 
0.01449574 0.01266801 0.00280839 0.00253948 0.00506339 0.00166222 0.00202562 0.00283515 0.00990827 0.00298183 0.01835208 0.00090764 0.00487222 0.02813746 0.00885247 0.00059461 
0.01391815 0.01294943 0.00273917 0.00250228 0.00503791 0.00164177 0.00212163 0.00285684 0.00929649 0.00301174 0.01841100 0.00090557 0.00510669 0.02757552 0.00884546 0.00058894 
0.01334171 0.01325137 0.00267318 0.00246395 0.00501091 0.00161990 0.00222580 0.00288054 0.00872755 0.00304276 0.01844283 0.00090473 0.00537709 0.02701954 0.00884856 0.00058385 
0.01276875 0.01357370 0.00261085 0.00242471 0.00498251 0.00159667 0.00233783 0.00290610 0.00820344 0.00307475 0.01844742 0.00090506 0.00568332 0.02647122 0.00886186 0.00057938 
0.01220162 0.01391616 0.00255256 0.00238475 0.00495287 0.00157219 0.00245742 0.00293342 0.00772591 0.00310757 0.01842478 0.00090652 0.00602518 0.02593232 0.00888537 0.00057556 
0.01164258 0.01427841 0.00249870 0.00234431 0.00492213 0.00154654 0.00258423 0.00296237 0.00729657 0.00314107 0.01837511 0.00090907 0.00640235 0.02540468 0.00891912 0.00057242 
0.01109384 0.01465998 0.00244964 0.00230358 0.00489047 0.00151983 0.00271793 0.00299284 0.00691678 0.00317513 0.01829876 0.00091266 0.00681443 0.02489016 0.00896308 0.00057000 
0.01055756 0.01506028 0.00240572 0.00226280 0.00485809 0.00149217 0.00285812 0.00302474 0.00658772 0.00320959 0.01819627 0.00091724 0.00726089 0.02439064 0.00901721 0.00056832 
0.01003580 0.01547862 0.00236729 0.00222219 0.00482519 0.00146368 0.00300442 0.00305797 0.00631037 0.00324434 0.01806831 0.00092276 0.00774113 0.02390805 0.00908145 0.00056743 
0.00953054 0.01591421 0.00233463 0.00218197 0.00479196 0.00143449 0.00315641 0.00309244 0.00608548 0.00327925 0.01791575 0.00092919 0.00825440 0.02344432 0.00915569 0.00056735 
0.00904367 0.01636612 0.00230804 0.00214236 0.00475864 0.00140474 0.00331367 0.00312807 0.00591360 0.00331418 0.01773960 0.00093647 0.00879990 0.02300138 0.00923982 0.00056812 
0.00857698 0.01683335 0.00228776 0.00210358 0.00472545 0.00137456 0.00347575 0.00316480 0.00579503 0.00334903 0.01754102 0.00094455 0.00937668 0.02258115 0.00933368 0.00056978 
0.00813212 0.01731476 0.00227404 0.00206584 0.00469261 0.00134411 0.00364218 0.00320256 0.00572991 0.00338368 0.01732133 0.00095340 0.00998374 0.02218553 0.00943709 0.00057237 
0.00771064 0.01780914 0.00226706 0.00202937 0.00466038 0.00131353 0.00381250 0.00324131 0.00571811 0.00341804 0.01708198 0.00096298 0.01061994 0.02181638 0.00954986 0.00057591 
0.00731398 0.01831517 0.00226701 0.00199435 0.00462897 0.00128299 0.00398621 0.00328100 0.00575932 0.00345199 0.01682454 0.00097324 0.01128408 0.02147552 0.00967173 0.00058045 
0.00694341 0.01883145 0.00227402 0.00196099 0.00459863 0.00125264 0.00416283 0.00332160 0.00585300 0.00348546 0.01655071 0.00098414 0.01197485 0.02116470 0.00980246 0.00058603 
0.00660010 0.01935649 0.00228820 0.00192948 0.00456959 0.00122264 0.00434185 0.00336309 0.00599840 0.00351835 0.01626232 0.00099565 0.01269085 0.02088560 0.00994175 0.00059269 
0.00628506 0.01988871 0.00230963 0.00189999 0.00454208 0.00119317 0.00452276 0.00340543 0.00619458 0.00355059 0.01596126 0.00100773 0.01343061 0.02063981 0.01008928 0.00060045 
0.00599918 0.02042649 0.00233835 0.00187269 0.00451632 0.00116437 0.00470503 0.00344864 0.00644037 0.00358210 0.01564954 0.00102036 0.01419256 0.02042882 0.01024469 0.00060937 
0.00574317 0.02096812 0.00237438 0.00184774 0.00449252 0.00113643 0.00488816 0.00349270 0.00673443 0.00361282 0.01532923 0.00103349 0.01497506 0.02025401 0.01040761 0.00061948 
0.00551763 0.02151184 0.00241768 0.00182529 0.00447088 0.00110951 0.00507162 0.00353762 0.00707521 0.00364268 0.01500247 0.00104711 0.01577639 0.02011662 0.01057764 0.00063082 
0.00532299 0.02205585 0.00246820 0.00180546 0.00445159 0.00108376 0.00525490 0.00358341 0.00746098 0.00367165 0.01467143 0.00106119 0.01659476 0.02001776 0.01075433 0.00064342 
0.00515954 0.02259829 0.00252585 0.00178837 0.00443483 0.00105935 0.00543746 0.00363008 0.00788983 0.00369966 0.01433834 0.00107569 0.01742832 0.01995840 0.01093721 0.00065733 
0.00502742 0.02313728 0.00259049 0.00177413 0.00442075 0.00103644 0.00561881 0.00367765 0.00835968 0.00372667 0.01400544 0.00109061 0.01827515 0.01993933 0.01112580 0.00067257 
0.00492664 0.02367094 0.00266198 0.00176282 0.00440948 0.00101518 0.00579843 0.00372614 0.00886830 0.00375265 0.01367496 0.00110591 0.01913328 0.01996118 0.01131957 0.00068919 
0.00485706 0.02419735 0.00274010 0.00175451 0.00440115 0.00099571 0.00597583 0.00377559 0.00941330 0.00377756 0.01334914 0.00112158 0.02000066 0.02002440 0.01151797 0.00070722 
0.00481838 0.02471460 0.00282464 0.00174926 0.00439585 0.00097818 0.00615050 0.00382601 0.00999214 0.00380137 0.01303019 0.00113760 0.02087523 0.02012925 0.01172042 0.00072669 
0.00481020 0.02522077 0.00291533 0.00174711 0.00439364 0.00096271 0.00632198 0.00387743 0.01060216 0.00382406 0.01272028 0.00115396 0.02175486 0.02027579 0.01192632 0.00074763 
0.00483196 0.02571399 0.00301188 0.00174808 0.00439459 0.00094944 0.00648979 0.00392987 0.01124057 0.00384559 0.01242153 0.00117063 0.02263739 0.02046390 0.01213504 0.00077007 
0.00488298 0.02619240 0.00311397 0.00175217 0.00439870 0.00093847 0.00665349 0.00398337 0.01190449 0.00386595 0.01213598 0.00118761 0.02352065 0.02069323 0.01234592 0.00079402 
0.00496247 0.02665416 0.00322124 0.00175937 0.00440598 0.00092991 0.00681265 0.00403795 0.01259092 0.00388511 0.01186562 0.00120487 0.02440241 0.02096324 0.01255830 0.00081952 
0.00506950 0.02709752 0.00333332 0.00176966 0.00441639 0.00092386 0.00696684 0.00409362 0.01329679 0.00390306 0.01161230 0.00122241 0.02528044 0.02127317 0.01277149 0.00084657 
0.00520305 0.02752074 0.00344980 0.00178299 0.00442987 0.00092039 0.00711566 0.00415041 0.01401895 0.00391976 0.01137781 0.00124021 0.02615249 0.02162206 0.01298476 0.00087520 
0.00536201 0.02792219 0.00357025 0.00179929 0.00444634 0.00091959 0.00725876 0.00420831 0.01475421 0.00393521 0.01116380 0.00125825 0.02701633 0.02200874 0.01319739 0.00090541 
0.00554513 0.02830028 0.00369422 0.00181849 0.00446568 0.00092149 0.00739576 0.00426734 0.01549932 0.00394937 0.01097178 0.00127653 0.02786969 0.02243182 0.01340865 0.00093721 
0.00575111 0.02865354 0.00382124 0.00184050 0.00448776 0.00092616 0.00752634 0.00432749 0.01625100 0.00396223 0.01080313 0.00129502 0.02871034 0.02288974 0.01361777 0.00097059 
0.00597855 0.02898055 0.00395082 0.00186519 0.00451239 0.00093361 0.00765020 0.00438876 0.01700596 0.00397375 0.01065909 0.00131371 0.02953606 0.02338073 0.01382400 0.00100555 
0.00622599 0.02928004 0.00408245 0.00189246 0.00453939 0.00094386 0.00776706 0.00445112 0.01776091 0.00398392 0.01054072 0.00133258 0.03034463 0.02390282 0.01402657 0.00104208 
0.00649190 0.02955081 0.00421561 0.00192216 0.00456854 0.00095692 0.00787667 0.00451455 0.01851257 0.00399270 0.01044894 0.00135162 0.03113388 0.02445389 0.01422471 0.00108016 
0.00677469 0.02979181 0.00434976 0.00195413 0.00459959 0.00097276 0.00797879 0.00457901 0.01925769 0.00400006 0.01038448 0.00137080 0.03190168 0.02503164 0.01441766 0.00111978 
0.00707274 0.03000209 0.00448438 0.00198822 0.00463227 0.00099136 0.00807325 0.00464446 0.01999305 0.00400597 0.01034790 0.00139011 0.03264594 0.02563361 0.01460465 0.00116088 
0.00738436 0.03018083 0.00461892 0.00202425 0.00466630 0.00101268 0.00815986 0.00471084 0.02071552 0.00401039 0.01033957 0.00140952 0.03336461 0.02625722 0.01478494 0.00120345 
0.00770785 0.03032736 0.00475282 0.00206202 0.00470137 0.00103666 0.00823849 0.00477809 0.02142202 0.00401327 0.01035970 0.00142900 0.03405571 0.02689973 0.01495778 0.00124744 
0.00804150 0.03044113 0.00488553 0.00210134 0.00473715 0.00106321 0.00830902 0.00484613 0.02210954 0.00401458 0.01040828 0.00144853 0.03471734 0.02755832 0.01512245 0.00129279 
0.00838357 0.03052175 0.00501652 0.00214201 0.00477331 0.00109226 0.00837139 0.00491487 0.02277520 0.00401426 0.01048515 0.00146808 0.03534763 0.02823008 0.01527825 0.00133945 
0.00873231 0.03056895 0.00514523 0.00218382 0.00480948 0.00112369 0.00842554 0.00498423 0.02341623 0.00401227 0.01058994 0.00148763 0.03594485 0.02891199 0.01542449 0.00138735 
0.00908600 0.03058263 0.00527113 0.00222653 0.00484531 0.00115740 0.00847145 0.00505409 0.02402998 0.00400857 0.01072212 0.00150713 0.03650731 0.02960102 0.01556053 0.00143641 
0.00944290 0.03056282 0.00539371 0.00226993 0.00488043 0.00119325 0.00850912 0.00512434 0.02461393 0.00400308 0.01088096 0.00152655 0.03703345 0.03029407 0.01568574 0.00148656 
0.00980132 0.03050972 0.00551244 0.00231379 0.00491445 0.00123110 0.00853860 0.00519485 0.02516576 0.00399577 0.01106557 0.00154586 0.03752178 0.03098803 0.01579956 0.00153770 
0.01015958 0.03042365 0.00562683 0.00235788 0.00494699 0.00127079 0.00855995 0.00526548 0.02568326 0.00398658 0.01127490 0.00156502 0.03797094 0.03167981 0.01590144 0.00158974 
0.01051604 0.03030509 0.00573642 0.00240195 0.00497769 0.00131216 0.00857326 0.00533611 0.02616443 0.00397546 0.01150771 0.00158398 0.03837968 0.03236634 0.01599089 0.00164256 
0.01086910 0.03015466 0.00584073 0.00244579 0.00500616 0.00135503 0.00857864 0.00540657 0.02660747 0.00396234 0.01176265 0.00160270 0.03874688 0.03304457 0.01606747 0.00169607 
0.01121721 0.02997311 0.00593935 0.00248916 0.00503204 0.00139922 0.00857626 0.00547672 0.02701076 0.00394719 0.01203821 0.00162115 0.03907153 0.03371156 0.01613077 0.00175013 
0.01155889 0.02976135 0.00603186 0.00253183 0.00505496 0.00144453 0.00856627 0.00554638 0.02737289 0.00392994 0.01233272 0.00163927 0.03935275 0.03436443 0.01618047 0.00180462 
0.01189269 0.02952040 0.00611789 0.00257356 0.00507458 0.00149077 0.00854887 0.00561540 0.02769268 0.00391057 0.01264444 0.00165701 0.03958983 0.03500042 0.01621629 0.00185941 
0.01221726 0.02925140 0.00619710 0.00261416 0.00509057 0.00153772 0.00852428 0.00568360 0.02796916 0.00388901 0.01297149 0.00167433 0.03978215 0.03561690 0.01623801 0.00191435 
0.01253130 0.02895562 0.00626916 0.00265339 0.00510261 0.00158518 0.00849274 0.00575081 0.02820162 0.00386525 0.01331190 0.00169119 0.03992928 0.03621137 0.01624549 0.00196930 
0.01283361 0.02863443 0.00633379 0.00269105 0.00511041 0.00163294 0.00845450 0.00581686 0.02838955 0.00383924 0.01366363 0.00170752 0.04003091 0.03678152 0.01623865 0.00202411 
0.01312303 0.02828931 0.00639076 0.00272695 0.00511370 0.00168078 0.00840985 0.00588157 0.02853272 0.00381097 0.01402454 0.00172328 0.04008689 0.03732521 0.01621747 0.00207861 
0.01339853 0.02792182 0.00643985 0.00276090 0.00511225 0.00172848 0.00835908 0.00594477 0.02863113 0.00378043 0.01439248 0.00173842 0.04009723 0.03784051 0.01618202 0.00213265 
0.01365914 0.02753363 0.00648089 0.00279272 0.00510583 0.00177583 0.00830251 0.00600629 0.02868501 0.00374760 0.01476523 0.00175289 0.04006208 0.03832568 0.01613242 0.00218606 
0.01390399 0.02712647 0.00651376 0.00282225 0.00509427 0.00182261 0.00824047 0.00606597 0.02869488 0.00371250 0.01514056 0.00176665 0.03998175 0.03877923 0.01606889 0.00223866 
0.01413230 0.02670211 0.00653835 0.00284933 0.00507741 0.00186862 0.00817329 0.00612363 0.02866148 0.00367515 0.01551622 0.00177963 0.03985672 0.03919990 0.01599170 0.00229029 
0.01434339 0.02626242 0.00655463 0.00287383 0.00505514 0.00191365 0.00810133 0.00617913 0.02858579 0.00363556 0.01588999 0.00179180 0.03968760 0.03958669 0.01590122 0.00234077 
0.01453665 0.02580928 0.00656257 0.00289562 0.00502738 0.00195750 0.00802496 0.00623231 0.02846906 0.00359380 0.01625965 0.00180311 0.03947517 0.03993884 0.01579787 0.00238992 
0.01471161 0.02534462 0.00656222 0.00291461 0.00499409 0.00199998 0.00794456 0.00628305 0.02831277 0.00354991 0.01662303 0.00181351 0.03922036 0.04025587 0.01568217 0.00243757 
0.01486786 0.02487037 0.00655365 0.00293069 0.00495528 0.00204090 0.00786050 0.00633120 0.02811863 0.00350396 0.01697800 0.00182296 0.03892425 0.04053755 0.01555467 0.00248355 
0.01500509 0.02438850 0.00653696 0.00294379 0.00491098 0.00208011 0.00777317 0.00637665 0.02788857 0.00345605 0.01732251 0.00183143 0.03858805 0.04078395 0.01541603 0.00252766 
0.01512310 0.02390096 0.00651232 0.00295385 0.00486126 0.00211742 0.00768297 0.00641929 0.02762475 0.00340629 0.01765458 0.00183888 0.03821314 0.04099538 0.01526697 0.00256975 
0.01522177 0.02340969 0.00647991 0.00296083 0.00480626 0.00215270 0.00759029 0.00645904 0.02732953 0.00335478 0.01797233 0.00184526 0.03780100 0.04117244 0.01510826 0.00260965 
0.01530108 0.02291660 0.00643997 0.00296471 0.00474614 0.00218581 0.00749554 0.00649581 0.02700548 0.00330167 0.01827396 0.00185056 0.03735327 0.04131599 0.01494075 0.00264718 
0.01536109 0.02242358 0.00639276 0.00296548 0.00468109 0.00221662 0.00739911 0.00652953 0.02665535 0.00324712 0.01855784 0.00185474 0.03687171 0.04142715 0.01476533 0.00268218 
0.01540195 0.02193248 0.00633858 0.00296315 0.00461137 0.00224503 0.00730141 0.00656016 0.02628203 0.00319130 0.01882241 0.00185778 0.03635817 0.04150729 0.01458295 0.00271450 
0.01542390 0.02144508 0.00627778 0.00295775 0.00453726 0.00227094 0.00720282 0.00658767 0.02588862 0.00313439 0.01906628 0.00185967 0.03581465 0.04155803 0.01439463 0.00274400 
0.01542725 0.02096311 0.00621071 0.00294933 0.00445908 0.00229428 0.00710376 0.00661203 0.02547831 0.00307661 0.01928820 0.00186038 0.03524322 0.04158123 0.01420140 0.00277052 
0.01541239 0.02048822 0.00613778 0.00293793 0.00437719 0.00231498 0.00700460 0.00663326 0.02505445 0.00301817 0.01948706 0.00185991 0.03464605 0.04157896 0.01400436 0.00279394 
0.01537979 0.02002198 0.00605942 0.00292366 0.00429200 0.00233300 0.00690573 0.00665135 0.02462045 0.00295932 0.01966194 0.00185824 0.03402540 0.04155348 0.01380463 0.00281412 
0.01532997 0.01956587 0.00597606 0.00290658 0.00420392 0.00234832 0.00680753 0.00666636 0.02417985 0.00290031 0.01981204 0.00185539 0.03338360 0.04150727 0.01360334 0.00283097 
0.01526353 0.01912129 0.00588819 0.00288683 0.00411343 0.00236092 0.00671036 0.00667832 0.02373622 0.00284142 0.01993678 0.00185135 0.03272303 0.04144295 0.01340169 0.00284437 
0.01518112 0.01868953 0.00579629 0.00286450 0.00402101 0.00237081 0.00661460 0.00668730 0.02329319 0.00278292 0.02003570 0.00184612 0.03204612 0.04136331 0.01320084 0.00285423 
0.01508346 0.01827175 0.00570088 0.00283976 0.00392719 0.00237801 0.00652058 0.00669338 0.02285441 0.00272511 0.02010857 0.00183973 0.03135537 0.04127126 0.01300199 0.00286047 
0.01497128 0.01786904 0.00560246 0.00281273 0.00383250 0.00238257 0.00642864 0.00669667 0.02242352 0.00266830 0.02015527 0.00183219 0.03065327 0.04116981 0.01280633 0.00286303 
0.01484540 0.01748233 0.00550159 0.00278358 0.00373752 0.00238454 0.00633912 0.00669727 0.02200415 0.00261281 0.02017591 0.00182353 0.02994235 0.04106207 0.01261506 0.00286186 
0.01470665 0.01711246 0.00539879 0.00275248 0.00364282 0.00238400 0.00625232 0.00669530 0.02159989 0.00255897 0.02017074 0.00181376 0.02922513 0.04095120 0.01242934 0.00285692 
0.01455588 0.01676015 0.00529460 0.00271961 0.00354900 0.00238102 0.00616855 0.00669090 0.02121423 0.00250709 0.02014017 0.00180293 0.02850414 0.04084041 0.01225033 0.00284818 
0.01439401 0.01642596 0.00518958 0.00268516 0.00345667 0.00237571 0.00608809 0.00668422 0.02085060 0.00245754 0.02008480 0.00179106 0.02778186 0.04073291 0.01207917 0.00283563 
0.01422193 0.01611037 0.00508427 0.00264931 0.00336644 0.00236819 0.00601121 0.00667542 0.02051232 0.00241063 0.02000537 0.00177821 0.02706077 0.04063190 0.01191693 0.00281929 
0.01404059 0.01581371 0.00497919 0.00261227 0.00327894 0.00235858 0.00593816 0.00666467 0.02020256 0.00236673 0.01990277 0.00176441 0.02634329 0.04054054 0.01176468 0.00279918 
0.01385092 0.01553618 0.00487488 0.00257424 0.00319477 0.00234702 0.00586917 0.00665214 0.01992434 0.00232616 0.01977803 0.00174972 0.02563179 0.04046194 0.01162341 0.00277533 
0.01365387 0.01527788 0.00477186 0.00253543 0.00311455 0.00233365 0.00580447 0.00663801 0.01968049 0.00228927 0.01963233 0.00173419 0.02492857 0.04039910 0.01149408 0.00274780 
0.01345038 0.01503877 0.00467063 0.00249603 0.00303889 0.00231865 0.00574426 0.00662246 0.01947368 0.00225638 0.01946695 0.00171787 0.02423585 0.04035493 0.01137758 0.00271667 
0.01324140 0.01481871 0.00457166 0.00245626 0.00296838 0.00230217 0.00568870 0.00660569 0.01930633 0.00222783 0.01928330 0.00170083 0.02355577 0.04033220 0.01127471 0.00268202 
0.01302785 0.01461743 0.00447542 0.00241633 0.00290359 0.00228438 0.00563797 0.00658787 0.01918065 0.00220392 0.01908288 0.00168313 0.02289037 0.04033351 0.01118623 0.00264395 
0.01281064 0.01443457 0.00438236 0.00237643 0.00284509 0.00226546 0.00559220 0.00656921 0.01909857 0.00218497 0.01886730 0.00166483 0.02224157 0.04036131 0.01111281 0.00260259 
0.01259067 0.01426965 0.00429288 0.00233676 0.00279342 0.00224559 0.00555151 0.00654988 0.01906180 0.00217125 0.01863824 0.00164600 0.02161120 0.04041782 0.01105503 0.00255806 
0.01236882 0.01412209 0.00420737 0.00229752 0.00274907 0.00222496 0.00551600 0.00653006 0.01907173 0.00216305 0.01839743 0.00162671 0.02100093 0.04050505 0.01101339 0.00251053 
0.01214592 0.01399124 0.00412619 0.00225889 0.00271252 0.00220375 0.00548575 0.00650993 0.01912950 0.00216061 0.01814667 0.00160704 0.02041233 0.04062479 0.01098829 0.00246015 
0.01192279 0.01387635 0.00404965 0.00222104 0.00268422 0.00218214 0.00546081 0.00648966 0.01923590 0.00216416 0.01788780 0.00158705 0.01984681 0.04077857 0.01098005 0.00240711 
0.01170021 0.01377659 0.00397804 0.00218416 0.00266458 0.00216032 0.00544121 0.00646940 0.01939146 0.00217392 0.01762268 0.00156682 0.01930565 0.04096764 0.01098886 0.00235159 
0.01147891 0.01369107 0.00391162 0.00214839 0.00265396 0.00213846 0.00542698 0.00644930 0.01959637 0.00219008 0.01735319 0.00154643 0.01878996 0.04119299 0.01101485 0.00229381 
0.01125960 0.01361884 0.00385061 0.00211389 0.00265269 0.00211673 0.00541808 0.00642949 0.01985051 0.00221278 0.01708120 0.00152594 0.01830071 0.04145530 0.01105801 0.00223397 
0.01104293 0.01355888 0.00379517 0.00208080 0.00266104 0.00209531 0.00541451 0.00641011 0.02015342 0.00224215 0.01680857 0.00150542 0.01783872 0.04175498 0.01111825 0.00217232 
0.01082952 0.01351015 0.00374544 0.00204922 0.00267926 0.00207435 0.00541618 0.00639125 0.02050435 0.00227831 0.01653714 0.00148496 0.01740462 0.04209211 0.01119536 0.00210908 
0.01061994 0.01347155 0.00370153 0.00201929 0.00270751 0.00205401 0.00542304 0.00637301 0.02090219 0.00232131 0.01626871 0.00146463 0.01699891 0.04246648 0.01128904 0.00204452 
0.01041471 0.01344198 0.00366349 0.00199108 0.00274594 0.00203442 0.00543499 0.00635546 0.02134556 0.00237119 0.01600504 0.00144448 0.01662190 0.04287756 0.01139888 0.00197888 
0.01021430 0.01342028 0.00363134 0.00196469 0.00279463 0.00201572 0.00545189 0.00633867 0.02183274 0.00242795 0.01574780 0.00142460 0.01627377 0.04332450 0.01152436 0.00191242 
0.01001914 0.01340533 0.00360505 0.00194019 0.00285360 0.00199803 0.00547362 0.00632266 0.02236170 0.00249156 0.01549862 0.00140504 0.01595451 0.04380616 0.01166486 0.00184543 
0.00982960 0.01339598 0.00358457 0.00191761 0.00292283 0.00198145 0.00550000 0.00630746 0.02293016 0.00256195 0.01525902 0.00138588 0.01566396 0.04432109 0.01181968 0.00177817 
0.00964601 0.01339109 0.00356980 0.00189701 0.00300224 0.00196607 0.00553086 0.00629307 0.02353553 0.00263903 0.01503045 0.00136716 0.01540182 0.04486754 0.01198800 0.00171093 
0.00946867 0.01338955 0.00356059 0.00187840 0.00309170 0.00195199 0.00556600 0.00627948 0.02417497 0.00272264 0.01481425 0.00134894 0.01516762 0.04544346 0.01216892 0.00164399 
0.00929780 0.01339025 0.00355678 0.00186179 0.00319102 0.00193925 0.00560519 0.00626665 0.02484538 0.00281263 0.01461166 0.00133129 0.01496075 0.04604655 0.01236146 0.00157762 
0.00913359 0.01339214 0.00355815 0.00184717 0.00329995 0.00192792 0.00564820 0.00625452 0.02554344 0.00290877 0.01442379 0.00131425 0.01478047 0.04667423 0.01256456 0.00151211 
0.00897620 0.01339420 0.00356447 0.00183451 0.00341822 0.00191802 0.00569478 0.00624303 0.02626565 0.00301083 0.01425165 0.00129787 0.01462588 0.04732366 0.01277706 0.00144775 
0.00882574 0.01339545 0.00357545 0.00182378 0.00354546 0.00190958 0.00574464 0.00623208 0.02700827 0.00311853 0.01409611 0.00128218 0.01449599 0.04799179 0.01299775 0.00138481 
0.00868228 0.01339498 0.00359081 0.00181493 0.00368131 0.00190260 0.00579751 0.00622157 0.02776745 0.00323155 0.01395793 0.00126723 0.01438966 0.04867535 0.01322536 0.00132357 
0.00854585 0.01339194 0.00361020 0.00180789 0.00382530 0.00189706 0.00585308 0.00621136 0.02853918 0.00334956 0.01383770 0.00125304 0.01430566 0.04937086 0.01345855 0.00126430 
0.00841646 0.01338552 0.00363327 0.00180258 0.00397697 0.00189295 0.00591105 0.00620134 0.02931933 0.00347218 0.01373592 0.00123966 0.01424265 0.05007468 0.01369595 0.00120725 
0.00829408 0.01337503 0.00365965 0.00179891 0.00413579 0.00189022 0.00597108 0.00619134 0.03010371 0.00359901 0.01365293 0.00122710 0.01419921 0.05078304 0.01393612 0.00115269 
0.00817866 0.01335981 0.00368894 0.00179679 0.00430119 0.00188881 0.00603285 0.00618120 0.03088806 0.00372961 0.01358895 0.00121538 0.01417382 0.05149200 0.01417761 0.00110086 
0.00807012 0.01333931 0.00372074 0.00179610 0.00447257 0.00188866 0.00609602 0.00617075 0.03166808 0.00386355 0.01354406 0.00120451 0.01416492 0.05219758 0.01441895 0.00105199 
0.00796836 0.01331306 0.00375461 0.00179672 0.00464930 0.00188968 0.00616023 0.00615981 0.03243950 0.00400033 0.01351821 0.00119452 0.01417086 0.05289567 0.01465863 0.00100632 
0.00787327 0.01328068 0.00379013 0.00179853 0.00483071 0.00189179 0.00622514 0.00614819 0.03319805 0.00413946 0.01351122 0.00118540 0.01418996 0.05358216 0.01489515 0.00096405 
0.00778473 0.01324188 0.00382685 0.00180140 0.00501612 0.00189487 0.00629038 0.00613569 0.03393955 0.00428044 0.01352280 0.00117715 0.01422052 0.05425289 0.01512701 0.00092538 
0.00770261 0.01319646 0.00386432 0.00180518 0.00520482 0.00189881 0.00635561 0.00612213 0.03465989 0.00442272 0.01355251 0.00116978 0.01426077 0.05490373 0.01535271 0.00089049 
0.00762676 0.01314432 0.00390211 0.00180973 0.00539608 0.00190348 0.00642046 0.00610731 0.03535508 0.00456576 0.01359984 0.00116327 0.01430897 0.05553057 0.01557078 0.00085956 
0.00755705 0.01308545 0.00393976 0.00181490 0.00558915 0.00190876 0.00648458 0.00609102 0.03602128 0.00470902 0.01366413 0.00115762 0.01436335 0.05612938 0.01577979 0.00083273 
0.00749335 0.01301993 0.00397684 0.00182056 0.00578328 0.00191450 0.00654761 0.00607309 0.03665482 0.00485193 0.01374466 0.00115281 0.01442218 0.05669622 0.01597832 0.00081013 
0.00743551 0.01294794 0.00401291 0.00182654 0.00597773 0.00192055 0.00660921 0.00605332 0.03725222 0.00499394 0.01384059 0.00114882 0.01448371 0.05722725 0.01616500 0.00079189 
0.00738341 0.01286976 0.00404757 0.00183271 0.00617172 0.00192678 0.00666905 0.00603154 0.03781025 0.00513447 0.01395100 0.00114563 0.01454625 0.05771880 0.01633855 0.00077811 
0.00733695 0.01278575 0.00408041 0.00183891 0.00636451 0.00193302 0.00672679 0.00600758 0.03832590 0.00527297 0.01407490 0.00114321 0.01460814 0.05816736 0.01649770 0.00076885 
0.00729602 0.01269636 0.00411103 0.00184502 0.00655535 0.00193913 0.00678211 0.00598129 0.03879645 0.00540889 0.01421124 0.00114155 0.01466779 0.05856961 0.01664129 0.00076418 
0.00726055 0.01260211 0.00413908 0.00185088 0.00674350 0.00194495 0.00683471 0.00595252 0.03921946 0.00554168 0.01435890 0.00114060 0.01472364 0.05892247 0.01676821 0.00076415 
0.00723047 0.01250364 0.00416421 0.00185637 0.00692825 0.00195033 0.00688429 0.00592116 0.03959280 0.00567080 0.01451670 0.00114034 0.01477422 0.05922306 0.01687746 0.00076876 
0.00720575 0.01240161 0.00418610 0.00186137 0.00710889 0.00195512 0.00693059 0.00588709 0.03991469 0.00579573 0.01468346 0.00114072 0.01481813 0.05946882 0.01696811 0.00077802 
0.00718636 0.01229681 0.00420446 0.00186576 0.00728476 0.00195917 0.00697334 0.00585023 0.04018365 0.00591599 0.01485794 0.00114172 0.01485407 0.05965740 0.01703933 0.00079190 
0.00717232 0.01219005 0.00421902 0.00186944 0.00745520 0.00196235 0.00701231 0.00581051 0.04039859 0.00603108 0.01503890 0.00114330 0.01488082 0.05978681 0.01709041 0.00081037 
0.00716365 0.01208222 0.00422954 0.00187230 0.00761959 0.00196452 0.00704727 0.00576790 0.04055875 0.00614055 0.01522506 0.00114542 0.01489726 0.05985534 0.01712072 0.00083336 
0.00716041 0.01197425 0.00423584 0.00187426 0.00777736 0.00196557 0.00707802 0.00572237 0.04066378 0.00624396 0.01541518 0.00114804 0.01490237 0.05986161 0.01712976 0.00086079 
0.00716269 0.01186715 0.00423774 0.00187525 0.00792796 0.00196537 0.00710440 0.00567394 0.04071367 0.00634092 0.01560801 0.00115111 0.01489527 0.05980457 0.01711715 0.00089255 
0.00717060 0.01176193 0.00423511 0.00187521 0.00807088 0.00196382 0.00712624 0.00562264 0.04070880 0.00643105 0.01580233 0.00115461 0.01487515 0.05968354 0.01708260 0.00092853 
0.00718427 0.01165965 0.00422784 0.00187408 0.00820566 0.00196083 0.00714343 0.00556854 0.04064993 0.00651402 0.01599692 0.00115848 0.01484136 0.05949816 0.01702597 0.00096858 
0.00720386 0.01156141 0.00421589 0.00187183 0.00833189 0.00195632 0.00715584 0.00551171 0.04053820 0.00658951 0.01619063 0.00116270 0.01479333 0.05924846 0.01694722 0.00101255 
0.00722955 0.01146829 0.00419922 0.00186844 0.00844919 0.00195021 0.00716341 0.00545228 0.04037509 0.00665726 0.01638233 0.00116723 0.01473066 0.05893481 0.01684646 0.00106026 
0.00726155 0.01138141 0.00417784 0.00186390 0.00855724 0.00194246 0.00716609 0.00539039 0.04016247 0.00671704 0.01657097 0.00117202 0.01465302 0.05855795 0.01672389 0.00111152 
0.00730006 0.01130190 0.00415180 0.00185822 0.00865576 0.00193302 0.00716383 0.00532623 0.03990254 0.00676865 0.01675553 0.00117704 0.01456024 0.05811898 0.01657984 0.00116612 
0.00734535 0.01123084 0.00412118 0.00185141 0.00874455 0.00192188 0.00715664 0.00525998 0.03959785 0.00681194 0.01693506 0.00118226 0.01445226 0.05761934 0.01641479 0.00122384 
0.00739764 0.01116935 0.00408611 0.00184351 0.00882342 0.00190901 0.00714454 0.00519188 0.03925126 0.00684680 0.01710869 0.00118765 0.01432914 0.05706085 0.01622929 0.00128445 
0.00745721 0.01111848 0.00404672 0.00183456 0.00889226 0.00189443 0.00712757 0.00512218 0.03886593 0.00687316 0.01727562 0.00119317 0.01419106 0.05644564 0.01602406 0.00134768 
0.00752433 0.01107929 0.00400322 0.00182462 0.00895101 0.00187815 0.00710580 0.00505116 0.03844531 0.00689099 0.01743512 0.00119881 0.01403833 0.05577619 0.01579988 0.00141330 
0.00759926 0.01105278 0.00395582 0.00181377 0.00899964 0.00186022 0.00707932 0.00497913 0.03799308 0.00690029 0.01758657 0.00120453 0.01387134 0.05505528 0.01555768 0.00148102 
0.00768229 0.01103991 0.00390477 0.00180209 0.00903819 0.00184069 0.00704826 0.00490641 0.03751320 0.00690113 0.01772940 0.00121031 0.01369062 0.05428602 0.01529847 0.00155056 
0.00777367 0.01104159 0.00385034 0.00178968 0.00906675 0.00181962 0.00701273 0.00483335 0.03700980 0.00689359 0.01786315 0.00121613 0.01349680 0.05347178 0.01502337 0.00162165 
0.00787367 0.01105867 0.00379284 0.00177664 0.00908546 0.00179709 0.00697291 0.00476032 0.03648720 0.00687781 0.01798744 0.00122198 0.01329058 0.05261623 0.01473359 0.00169399 
0.00798254 0.01109194 0.00373260 0.00176310 0.00909448 0.00177321 0.00692895 0.00468770 0.03594987 0.00685396 0.01810198 0.00122783 0.01307278 0.05172327 0.01443042 0.00176729 
0.00810051 0.01114211 0.00366997 0.00174917 0.00909406 0.00174807 0.00688105 0.00461588 0.03540240 0.00682225 0.01820658 0.00123369 0.01284431 0.05079703 0.01411525 0.00184125 
0.00822778 0.01120983 0.00360533 0.00173499 0.00908445 0.00172181 0.00682942 0.00454527 0.03484948 0.00678293 0.01830110 0.00123953 0.01260613 0.04984186 0.01378952 0.00191556 
0.00836454 0.01129565 0.00353906 0.00172071 0.00906596 0.00169455 0.00677427 0.00447630 0.03429583 0.00673628 0.01838554 0.00124536 0.01235930 0.04886230 0.01345475 0.00198994 
0.00851094 0.01140005 0.00347158 0.00170646 0.00903895 0.00166645 0.00671583 0.00440939 0.03374621 0.00668261 0.01845993 0.00125117 0.01210493 0.04786302 0.01311250 0.00206407 
0.00866711 0.01152341 0.00340330 0.00169240 0.00900379 0.00163765 0.00665434 0.00434497 0.03320537 0.00662229 0.01852442 0.00125695 0.01184419 0.04684887 0.01276441 0.00213768 
0.00883312 0.01166602 0.00333466 0.00167869 0.00896090 0.00160831 0.00659005 0.00428348 0.03267801 0.00655567 0.01857922 0.00126271 0.01157831 0.04582478 0.01241213 0.00221046 
0.00900902 0.01182807 0.00326608 0.00166548 0.00891072 0.00157861 0.00652321 0.00422534 0.03216875 0.00648317 0.01862460 0.00126846 0.01130854 0.04479576 0.01205735 0.00228213 
0.00919480 0.01200965 0.00319802 0.00165293 0.00885371 0.00154873 0.00645408 0.00417097 0.03168212 0.00640522 0.01866093 0.00127420 0.01103619 0.04376689 0.01170178 0.00235242 
0.00939040 0.01221076 0.00313091 0.00164119 0.00879037 0.00151884 0.00638292 0.00412080 0.03122247 0.00632226 0.01868860 0.00127993 0.01076256 0.04274328 0.01134716 0.00242106 
0.00959573 0.01243129 0.00306520 0.00163042 0.00872121 0.00148913 0.00630999 0.00407523 0.03079401 0.00623478 0.01870809 0.00128567 0.01048900 0.04173004 0.01099520 0.00248780 
0.00981062 0.01267102 0.00300134 0.00162078 0.00864674 0.00145979 0.00623554 0.00403466 0.03040073 0.00614326 0.01871993 0.00129142 0.01021686 0.04073224 0.01064765 0.00255238 
0.01003485 0.01292966 0.00293975 0.00161240 0.00856750 0.00143100 0.00615984 0.00399946 0.03004640 0.00604821 0.01872467 0.00129721 0.00994746 0.03975490 0.01030620 0.00261458 
0.01026816 0.01320677 0.00288085 0.00160544 0.00848403 0.00140294 0.00608312 0.00396998 0.02973452 0.00595015 0.01872291 0.00130303 0.00968215 0.03880297 0.00997254 0.00267417 
0.01051021 0.01350184 0.00282507 0.00160003 0.00839688 0.00137581 0.00600564 0.00394656 0.02946830 0.00584960 0.01871530 0.00130892 0.00942225 0.03788129 0.00964832 0.00273096 
0.01076061 0.01381427 0.00277280 0.00159629 0.00830659 0.00134977 0.00592762 0.00392951 0.02925065 0.00574711 0.01870249 0.00131487 0.00916906 0.03699454 0.00933516 0.00278475 
0.01101891 0.01414335 0.00272442 0.00159434 0.00821371 0.00132500 0.00584930 0.00391911 0.02908413 0.00564320 0.01868515 0.00132091 0.00892383 0.03614728 0.00903461 0.00283537 
0.01128459 0.01448827 0.00268030 0.00159430 0.00811876 0.00130168 0.00577087 0.00391560 0.02897097 0.00553844 0.01866398 0.00132704 0.00868780 0.03534384 0.00874818 0.00288267 
0.01155707 0.01484816 0.00264079 0.00159625 0.00802228 0.00127995 0.00569256 0.00391920 0.02891302 0.00543334 0.01863967 0.00133329 0.00846216 0.03458839 0.00847729 0.00292651 
0.01183573 0.01522203 0.00260619 0.00160029 0.00792479 0.00125997 0.00561454 0.00393011 0.02891174 0.00532846 0.01861291 0.00133967 0.00824803 0.03388481 0.00822331 0.00296678 
0.01211988 0.01560884 0.00257681 0.00160648 0.00782676 0.00124187 0.00553699 0.00394845 0.02896820 0.00522433 0.01858438 0.00134618 0.00804649 0.03323678 0.00798750 0.00300337 
0.01240878 0.01600747 0.00255291 0.00161489 0.00772870 0.00122578 0.00546008 0.00397433 0.02908307 0.00512146 0.01855474 0.00135285 0.00785855 0.03264767 0.00777105 0.00303620 
0.01270162 0.01641673 0.00253474 0.00162556 0.00763104 0.00121182 0.00538395 0.00400783 0.02925660 0.00502038 0.01852465 0.00135967 0.00768516 0.03212056 0.00757506 0.00306522 
0.01299756 0.01683535 0.00252251 0.00163852 0.00753423 0.00120008 0.00530873 0.00404896 0.02948862 0.00492158 0.01849472 0.00136666 0.00752719 0.03165825 0.00740050 0.00309039 
0.01329573 0.01726204 0.00251639 0.00165379 0.00743866 0.00119066 0.00523456 0.00409771 0.02977854 0.00482555 0.01846555 0.00137383 0.00738544 0.03126316 0.00724827 0.00311167 
0.01359517 0.01769543 0.00251655 0.00167137 0.00734473 0.00118362 0.00516152 0.00415403 0.03012538 0.00473276 0.01843769 0.00138116 0.00726063 0.03093741 0.00711912 0.00312908 
0.01389494 0.01813413 0.00252308 0.00169124 0.00725279 0.00117901 0.00508973 0.00421779 0.03052771 0.00464366 0.01841164 0.00138868 0.00715339 0.03068276 0.00701371 0.00314262 
0.01419404 0.01857670 0.00253609 0.00171338 0.00716314 0.00117687 0.00501925 0.00428887 0.03098374 0.00455867 0.01838789 0.00139637 0.00706428 0.03050058 0.00693256 0.00315234 
0.01449143 0.01902168 0.00255562 0.00173774 0.00707608 0.00117723 0.00495015 0.00436707 0.03149125 0.00447821 0.01836684 0.00140423 0.00699374 0.03039189 0.00687609 0.00315828 
0.01478609 0.01946759 0.00258168 0.00176425 0.00699186 0.00118009 0.00488250 0.00445215 0.03204765 0.00440266 0.01834888 0.00141225 0.00694217 0.03035731 0.00684457 0.00316052 
0.01507695 0.01991295 0.00261425 0.00179285 0.00691071 0.00118542 0.00481634 0.00454385 0.03265001 0.00433237 0.01833431 0.00142042 0.00690982 0.03039711 0.00683816 0.00315915 
0.01536296 0.02035625 0.00265329 0.00182344 0.00683282 0.00119321 0.00475171 0.00464184 0.03329503 0.00426768 0.01832340 0.00142873 0.00689690 0.03051111 0.00685688 0.00315425 
0.01564305 0.02079601 0.00269871 0.00185593 0.00675834 0.00120341 0.00468864 0.00474578 0.03397910 0.00420889 0.01831636 0.00143716 0.00690351 0.03069880 0.00690063 0.00314597 
0.01591617 0.02123074 0.00275040 0.00189019 0.00668739 0.00121594 0.00462716 0.00485527 0.03469829 0.00415628 0.01831333 0.00144569 0.00692965 0.03095924 0.00696917 0.00313441 
0.01618126 0.02165898 0.00280819 0.00192611 0.00662007 0.00123073 0.00456731 0.00496988 0.03544842 0.00411010 0.01831440 0.00145430 0.00697524 0.03129111 0.00706214 0.00311974 
0.01643732 0.02207929 0.00287192 0.00196352 0.00655643 0.00124768 0.00450908 0.00508915 0.03622505 0.00407056 0.01831962 0.00146296 0.00704011 0.03169273 0.00717906 0.00310210 
0.01668333 0.02249028 0.00294136 0.00200230 0.00649650 0.00126668 0.00445252 0.00521259 0.03702352 0.00403785 0.01832895 0.00147163 0.00712401 0.03216201 0.00731931 0.00308167 
0.01691834 0.02289057 0.00301628 0.00204227 0.00644028 0.00128760 0.00439764 0.00533967 0.03783900 0.00401212 0.01834231 0.00148029 0.00722660 0.03269653 0.00748216 0.00305862 
0.01714142 0.02327885 0.00309640 0.00208326 0.00638775 0.00131029 0.00434447 0.00546986 0.03866647 0.00399350 0.01835959 0.00148889 0.00734744 0.03329348 0.00766677 0.00303314 
0.01735170 0.02365385 0.00318143 0.00212510 0.00633885 0.00133461 0.00429304 0.00560257 0.03950081 0.00398209 0.01838058 0.00149741 0.00748605 0.03394974 0.00787217 0.00300541 
0.01754835 0.02401436 0.00327104 0.00216760 0.00629349 0.00136039 0.00424339 0.00573722 0.04033683 0.00397794 0.01840507 0.00150579 0.00764184 0.03466183 0.00809728 0.00297564 
0.01773060 0.02435923 0.00336490 0.00221057 0.00625159 0.00138746 0.00419557 0.00587321 0.04116924 0.00398108 0.01843277 0.00151399 0.00781417 0.03542599 0.00834095 0.00294403 
0.01789776 0.02468739 0.00346263 0.00225382 0.00621303 0.00141562 0.00414962 0.00600992 0.04199277 0.00399152 0.01846335 0.00152198 0.00800232 0.03623814 0.00860189 0.00291078 
0.01804920 0.02499782 0.00356384 0.00229715 0.00617765 0.00144469 0.00410562 0.00614671 0.04280216 0.00400922 0.01849646 0.00152968 0.00820552 0.03709394 0.00887874 0.00287610 
0.01818435 0.02528961 0.00366814 0.00234036 0.00614533 0.00147446 0.00406366 0.00628297 0.04359220 0.00403412 0.01853169 0.00153707 0.00842293 0.03798879 0.00917008 0.00284020 
0.01830274 0.02556189 0.00377510 0.00238325 0.00611588 0.00150473 0.00402381 0.00641806 0.04435775 0.00406613 0.01856861 0.00154408 0.00865366 0.03891788 0.00947436 0.00280329 
0.01840397 0.02581390 0.00388429 0.00242562 0.00608914 0.00153530 0.00398619 0.00655134 0.04509381 0.00410513 0.01860676 0.00155066 0.00889679 0.03987618 0.00979002 0.00276557 
0.01848775 0.02604496 0.00399526 0.00246727 0.00606493 0.00156594 0.00395092 0.00668220 0.04579555 0.00415097 0.01864566 0.00155676 0.00915132 0.04085847 0.01011540 0.00272726 
0.01855384 0.02625448 0.00410755 0.00250801 0.00604306 0.00159646 0.00391814 0.00681002 0.04645830 0.00420348 0.01868479 0.00156233 0.00941624 0.04185939 0.01044881 0.00268854 
0.01860212 0.02644195 0.00422071 0.00254764 0.00602334 0.00162663 0.00388801 0.00693421 0.04707761 0.00426244 0.01872364 0.00156731 0.00969051 0.04287347 0.01078851 0.00264962 
0.01863256 0.02660696 0.00433427 0.00258599 0.00600558 0.00165625 0.00386070 0.00705418 0.04764931 0.00432764 0.01876167 0.00157165 0.00997304 0.04389511 0.01113273 0.00261069 
0.01864520 0.02674917 0.00444775 0.00262286 0.00598961 0.00168511 0.00383639 0.00716938 0.04816947 0.00439881 0.01879833 0.00157530 0.01026276 0.04491866 0.01147967 0.00257193 
0.01864021 0.02686837 0.00456070 0.00265810 0.00597524 0.00171301 0.00381529 0.00727927 0.04863449 0.00447567 0.01883309 0.00157820 0.01055853 0.04593844 0.01182752 0.00253353 
0.01861783 0.02696439 0.00467264 0.00269154 0.00596230 0.00173976 0.00379762 0.00738334 0.04904108 0.00455793 0.01886540 0.00158031 0.01085925 0.04694873 0.01217447 0.00249564 
0.01857839 0.02703719 0.00478311 0.00272302 0.00595062 0.00176517 0.00378360 0.00748113 0.04938630 0.00464527 0.01889471 0.00158158 0.01116379 0.04794387 0.01251872 0.00245843 
0.01852231 0.02708680 0.00489166 0.00275240 0.00594006 0.00178907 0.00377348 0.00757219 0.04966760 0.00473733 0.01892051 0.00158196 0.01147102 0.04891823 0.01285845 0.00242206 
0.01845011 0.02711334 0.00499783 0.00277955 0.00593048 0.00181129 0.00376752 0.00765612 0.04988280 0.00483376 0.01894227 0.00158141 0.01177984 0.04986627 0.01319192 0.00238667 
0.01836239 0.02711700 0.00510120 0.00280435 0.00592176 0.00183166 0.00376598 0.00773255 0.05003010 0.00493418 0.01895949 0.00157990 0.01208913 0.05078255 0.01351737 0.00235239 
0.01825982 0.02709807 0.00520133 0.00282668 0.00591379 0.00185006 0.00376914 0.00780117 0.05010814 0.00503819 0.01897170 0.00157739 0.01239781 0.05166178 0.01383311 0.00231935 
0.01814315 0.02705691 0.00529782 0.00284646 0.00590647 0.00186634 0.00377727 0.00786169 0.05011598 0.00514539 0.01897843 0.00157385 0.01270481 0.05249885 0.01413750 0.00228765 
0.01801322 0.02699395 0.00539028 0.00286360 0.00589974 0.00188040 0.00379067 0.00791390 0.05005309 0.00525535 0.01897925 0.00156925 0.01300909 0.05328883 0.01442896 0.00225742 
0.01787090 0.02690970 0.00547833 0.00287802 0.00589356 0.00189213 0.00380960 0.00795758 0.04991936 0.00536764 0.01897377 0.00156357 0.01330964 0.05402703 0.01470596 0.00222872 
0.01771715 0.02680472 0.00556161 0.00288967 0.00588787 0.00190145 0.00383436 0.00799263 0.04971515 0.00548182 0.01896162 0.00155680 0.01360548 0.05470901 0.01496708 0.00220166 
0.01755298 0.02667967 0.00563981 0.00289851 0.00588269 0.00190829 0.00386522 0.00801893 0.04944120 0.00559742 0.01894245 0.00154892 0.01389569 0.05533059 0.01521096 0.00217630 
0.01737943 0.02653522 0.00571260 0.00290452 0.00587800 0.00191259 0.00390244 0.00803645 0.04909870 0.00571401 0.01891598 0.00153992 0.01417935 0.05588793 0.01543633 0.00215270 
0.01719759 0.02637212 0.00577971 0.00290766 0.00587385 0.00191432 0.00394629 0.00804520 0.04868924 0.00583111 0.01888195 0.00152982 0.01445563 0.05637747 0.01564203 0.00213092 
0.01700858 0.02619118 0.00584087 0.00290795 0.00587027 0.00191347 0.00399701 0.00804524 0.04821482 0.00594826 0.01884013 0.00151860 0.01472371 0.05679602 0.01582700 0.00211099 
0.01681355 0.02599324 0.00589586 0.00290538 0.00586734 0.00191003 0.00405482 0.00803667 0.04767782 0.00606499 0.01879036 0.00150629 0.01498285 0.05714074 0.01599030 0.00209296 
0.01661367 0.02577918 0.00594446 0.00290000 0.00586515 0.00190401 0.00411993 0.00801964 0.04708100 0.00618085 0.01873250 0.00149291 0.01523233 0.05740919 0.01613108 0.00207684 
0.01641009 0.02554993 0.00598651 0.00289182 0.00586378 0.00189545 0.00419253 0.00799435 0.04642747 0.00629536 0.01866645 0.00147847 0.01547152 0.05759929 0.01624862 0.00206264 
0.01620401 0.02530643 0.00602186 0.00288091 0.00586337 0.00188439 0.00427277 0.00796104 0.04572068 0.00640807 0.01859219 0.00146301 0.01569983 0.05770941 0.01634235 0.00205038 
0.01599657 0.02504966 0.00605039 0.00286732 0.00586405 0.00187090 0.00436076 0.00791999 0.04496437 0.00651854 0.01850972 0.00144657 0.01591671 0.05773830 0.01641179 0.00204005 
0.01578893 0.02478063 0.00607202 0.00285112 0.00586595 0.00185505 0.00445662 0.00787153 0.04416260 0.00662631 0.01841907 0.00142919 0.01612169 0.05768517 0.01645662 0.00203163 
0.01558223 0.02450036 0.00608669 0.00283239 0.00586924 0.00183695 0.00456038 0.00781603 0.04331967 0.00673096 0.01832037 0.00141092 0.01631434 0.05754963 0.01647661 0.00202512 
0.01537756 0.02420989 0.00609437 0.00281123 0.00587409 0.00181669 0.00467208 0.00775386 0.04244011 0.00683206 0.01821374 0.00139181 0.01649432 0.05733176 0.01647171 0.00202048 
0.01517598 0.02391026 0.00609507 0.00278774 0.00588066 0.00179440 0.00479168 0.00768547 0.04152867 0.00692921 0.01809938 0.00137193 0.01666131 0.05703207 0.01644198 0.00201769 
0.01497851 0.02360252 0.00608883 0.00276202 0.00588913 0.00177021 0.00491912 0.00761132 0.04059027 0.00702202 0.01797754 0.00135135 0.01681506 0.05665149 0.01638761 0.00201670 
0.01478611 0.02328773 0.00607571 0.00273419 0.00589969 0.00174427 0.00505430 0.00753188 0.03962996 0.00711011 0.01784849 0.00133013 0.01695540 0.05619141 0.01630893 0.00201748 
0.01459970 0.02296695 0.00605581 0.00270437 0.00591251 0.00171671 0.00519705 0.00744766 0.03865292 0.00719313 0.01771257 0.00130836 0.01708217 0.05565365 0.01620640 0.00201998 
0.01442012 0.02264124 0.00602924 0.00267270 0.00592778 0.00168772 0.00534717 0.00735919 0.03766441 0.00727074 0.01757016 0.00128613 0.01719530 0.05504045 0.01608060 0.00202414 
0.01424815 0.02231164 0.00599617 0.00263930 0.00594568 0.00165745 0.00550441 0.00726700 0.03666973 0.00734263 0.01742168 0.00126350 0.01729476 0.05435445 0.01593225 0.00202990 
0.01408450 0.02197921 0.00595677 0.00260431 0.00596636 0.00162609 0.00566846 0.00717165 0.03567421 0.00740852 0.01726760 0.00124059 0.01738057 0.05359872 0.01576218 0.00203721 
0.01392979 0.02164497 0.00591124 0.00256788 0.00599000 0.00159381 0.00583896 0.00707370 0.03468315 0.00746813 0.01710841 0.00121748 0.01745280 0.05277669 0.01557136 0.00204600 
0.01378459 0.02130996 0.00585982 0.00253015 0.00601674 0.00156080 0.00601553 0.00697370 0.03370182 0.00752122 0.01694468 0.00119428 0.01751157 0.05189220 0.01536085 0.00205620 
0.01364934 0.02097518 0.00580276 0.00249127 0.00604673 0.00152724 0.00619770 0.00687223 0.03273542 0.00756760 0.01677699 0.00117108 0.01755703 0.05094940 0.01513182 0.00206775 
0.01352444 0.02064163 0.00574034 0.00245138 0.00608007 0.00149333 0.00638498 0.00676983 0.03178902 0.00760707 0.01660596 0.00114799 0.01758938 0.04995282 0.01488556 0.00208057 
0.01341017 0.02031031 0.00567286 0.00241063 0.00611689 0.00145926 0.00657682 0.00666706 0.03086757 0.00763948 0.01643225 0.00112512 0.01760886 0.04890726 0.01462345 0.00209459 
0.01330675 0.01998218 0.00560063 0.00236916 0.00615726 0.00142520 0.00677263 0.00656446 0.02997587 0.00766472 0.01625656 0.00110257 0.01761575 0.04781785 0.01434696 0.00210972 
0.01321428 0.01965821 0.00552400 0.00232713 0.00620125 0.00139135 0.00697178 0.00646255 0.02911851 0.00768268 0.01607961 0.00108046 0.01761034 0.04668996 0.01405764 0.00212591 
0.01313280 0.01933933 0.00544331 0.00228468 0.00624890 0.00135789 0.00717359 0.00636184 0.02829989 0.00769331 0.01590216 0.00105888 0.01759298 0.04552920 0.01375712 0.00214306 
0.01306224 0.01902649 0.00535894 0.00224195 0.00630023 0.00132500 0.00737735 0.00626282 0.02752416 0.00769658 0.01572498 0.00103796 0.01756402 0.04434141 0.01344709 0.00216110 
0.01300246 0.01872060 0.00527126 0.00219908 0.00635524 0.00129284 0.00758232 0.00616595 0.02679521 0.00769251 0.01554889 0.00101778 0.01752384 0.04313260 0.01312932 0.00217994 
0.01295322 0.01842258 0.00518067 0.00215620 0.00641389 0.00126158 0.00778772 0.00607166 0.02611667 0.00768112 0.01537471 0.00099847 0.01747286 0.04190894 0.01280561 0.00219952 
0.01291423 0.01813331 0.00508758 0.00211346 0.00647612 0.00123138 0.00799276 0.00598035 0.02549187 0.00766248 0.01520327 0.00098012 0.01741149 0.04067671 0.01247781 0.00221975 
0.01288508 0.01785369 0.00499238 0.00207097 0.00654185 0.00120239 0.00819660 0.00589240 0.02492382 0.00763671 0.01503544 0.00096283 0.01734016 0.03944230 0.01214781 0.00224055 
0.01286533 0.01758460 0.00489550 0.00202887 0.00661097 0.00117473 0.00839841 0.00580815 0.02441522 0.00760393 0.01487208 0.00094670 0.01725934 0.03821215 0.01181752 0.00226184 
0.01285443 0.01732692 0.00479736 0.00198726 0.00668332 0.00114855 0.00859733 0.00572791 0.02396842 0.00756432 0.01471406 0.00093183 0.01716946 0.03699274 0.01148887 0.00228355 
0.01285179 0.01708151 0.00469839 0.00194627 0.00675875 0.00112396 0.00879251 0.00565193 0.02358544 0.00751806 0.01456227 0.00091830 0.01707101 0.03579055 0.01116377 0.00230559 
0.01285675 0.01684925 0.00459899 0.00190601 0.00683704 0.00110106 0.00898308 0.00558044 0.02326796 0.00746541 0.01441758 0.00090619 0.01696443 0.03461200 0.01084418 0.00232790 
0.01286862 0.01663100 0.00449959 0.00186657 0.00691798 0.00107996 0.00916818 0.00551364 0.02301728 0.00740660 0.01428086 0.00089558 0.01685021 0.03346348 0.01053199 0.00235040 
0.01288662 0.01642762 0.00440062 0.00182806 0.00700131 0.00106073 0.00934696 0.00545167 0.02283434 0.00734194 0.01415298 0.00088655 0.01672881 0.03235125 0.01022911 0.00237301 
0.01290998 0.01623999 0.00430248 0.00179057 0.00708675 0.00104344 0.00951859 0.00539464 0.02271974 0.00727173 0.01403479 0.00087917 0.01660069 0.03128148 0.00993740 0.00239566 
0.01293785 0.01606898 0.00420558 0.00175417 0.00717399 0.00102816 0.00968225 0.00534263 0.02267372 0.00719631 0.01392711 0.00087348 0.01646631 0.03026014 0.00965869 0.00241828 
0.01296937 0.01591545 0.00411031 0.00171896 0.00726272 0.00101493 0.00983715 0.00529565 0.02269614 0.00711606 0.01383077 0.00086953 0.01632613 0.02929304 0.00939474 0.00244080 
0.01300367 0.01578029 0.00401707 0.00168501 0.00735257 0.00100378 0.00998252 0.00525370 0.02278653 0.00703136 0.01374654 0.00086739 0.01618059 0.02838576 0.00914729 0.00246315 
0.01303986 0.01566439 0.00392622 0.00165238 0.00744319 0.00099473 0.01011764 0.00521673 0.02294409 0.00694261 0.01367518 0.00086707 0.01603014 0.02754365 0.00891798 0.00248527 
0.01307704 0.01556864 0.00383813 0.00162114 0.00753417 0.00098780 0.01024182 0.00518465 0.02316765 0.00685026 0.01361740 0.00086861 0.01587519 0.02677177 0.00870838 0.00250709 
0.01311431 0.01549394 0.00375314 0.00159135 0.00762512 0.00098298 0.01035443 0.00515735 0.02345575 0.00675473 0.01357387 0.00087203 0.01571616 0.02607490 0.00852001 0.00252856 
0.01315079 0.01544119 0.00367160 0.00156306 0.00771562 0.00098026 0.01045488 0.00513467 0.02380660 0.00665650 0.01354524 0.00087733 0.01555346 0.02545750 0.00835426 0.00254961 
0.01318559 0.01541131 0.00359380 0.00153631 0.00780524 0.00097962 0.01054263 0.00511642 0.02421811 0.00655604 0.01353209 0.00088451 0.01538747 0.02492367 0.00821245 0.00257018 
0.01321787 0.01540521 0.00352006 0.00151115 0.00789353 0.00098102 0.01061721 0.00510239 0.02468792 0.00645382 0.01353493 0.00089358 0.01521858 0.02447717 0.00809578 0.00259023 
0.01324680 0.01542383 0.00345065 0.00148762 0.00798005 0.00098442 0.01067821 0.00509234 0.02521341 0.00635034 0.01355424 0.00090450 0.01504714 0.02412136 0.00800536 0.00260968 
0.01327161 0.01546808 0.00338582 0.00146574 0.00806436 0.00098977 0.01072528 0.00508600 0.02579170 0.00624610 0.01359042 0.00091726 0.01487350 0.02385921 0.00794216 0.00262851 
0.01329153 0.01553889 0.00332582 0.00144554 0.00814598 0.00099700 0.01075814 0.00508309 0.02641967 0.00614160 0.01364382 0.00093182 0.01469801 0.02369328 0.00790705 0.00264665 
0.01330588 0.01563719 0.00327086 0.00142705 0.00822449 0.00100605 0.01077659 0.00508328 0.02709401 0.00603733 0.01371470 0.00094813 0.01452098 0.02362570 0.00790076 0.00266406 
0.01331401 0.01576390 0.00322114 0.00141029 0.00829942 0.00101685 0.01078050 0.00508628 0.02781122 0.00593380 0.01380327 0.00096614 0.01434272 0.02365817 0.00792391 0.00268069 
0.01331534 0.01591993 0.00317684 0.00139527 0.00837034 0.00102932 0.01076981 0.00509173 0.02856762 0.00583151 0.01390963 0.00098579 0.01416353 0.02379191 0.00797697 0.00269652 
0.01330933 0.01610618 0.00313810 0.00138200 0.00843681 0.00104336 0.01074454 0.00509929 0.02935939 0.00573094 0.01403384 0.00100700 0.01398368 0.02402774 0.00806028 0.00271148 
0.01329555 0.01632354 0.00310505 0.00137049 0.00849843 0.00105890 0.01070478 0.00510862 0.03018259 0.00563256 0.01417585 0.00102970 0.01380346 0.02436596 0.00817403 0.00272556 
0.01327359 0.01657288 0.00307781 0.00136075 0.00855477 0.00107583 0.01065071 0.00511935 0.03103317 0.00553686 0.01433552 0.00105381 0.01362312 0.02480647 0.00831829 0.00273871 
0.01324316 0.01685503 0.00305645 0.00135277 0.00860547 0.00109407 0.01058257 0.00513114 0.03190701 0.00544428 0.01451266 0.00107921 0.01344290 0.02534866 0.00849297 0.00275090 
0.01320403 0.01717081 0.00304104 0.00134656 0.00865015 0.00111352 0.01050068 0.00514364 0.03279993 0.00535526 0.01470695 0.00110582 0.01326304 0.02599149 0.00869786 0.00276211 
0.01315604 0.01752099 0.00303163 0.00134211 0.00868846 0.00113408 0.01040544 0.00515650 0.03370771 0.00527022 0.01491802 0.00113353 0.01308377 0.02673345 0.00893257 0.00277230 
0.01309913 0.01790630 0.00302822 0.00133942 0.00872011 0.00115565 0.01029732 0.00516939 0.03462613 0.00518957 0.01514538 0.00116221 0.01290531 0.02757258 0.00919661 0.00278145 
0.01303331 0.01832741 0.00303083 0.00133847 0.00874478 0.00117814 0.01017684 0.00518199 0.03555097 0.00511368 0.01538847 0.00119174 0.01272786 0.02850650 0.00948932 0.00278954 
0.01295868 0.01878496 0.00303942 0.00133925 0.00876223 0.00120146 0.01004462 0.00519400 0.03647805 0.00504291 0.01564663 0.00122201 0.01255162 0.02953238 0.00980992 0.00279654 
0.01287542 0.01927951 0.00305397 0.00134176 0.00877221 0.00122551 0.00990130 0.00520512 0.03740324 0.00497758 0.01591912 0.00125288 0.01237678 0.03064698 0.01015749 0.00280243 
0.01278382 0.01981154 0.00307441 0.00134597 0.00877455 0.00125020 0.00974762 0.00521509 0.03832248 0.00491801 0.01620512 0.00128421 0.01220353 0.03184666 0.01053097 0.00280721 
0.01268421 0.02038147 0.00310066 0.00135186 0.00876907 0.00127544 0.00958433 0.00522366 0.03923182 0.00486446 0.01650372 0.00131587 0.01203204 0.03312740 0.01092919 0.00281084 
0.01257704 0.02098964 0.00313262 0.00135943 0.00875566 0.00130116 0.00941228 0.00523063 0.04012741 0.00481718 0.01681393 0.00134772 0.01186249 0.03448481 0.01135084 0.00281333 
0.01246281 0.02163627 0.00317020 0.00136863 0.00873422 0.00132728 0.00923231 0.00523579 0.04100553 0.00477639 0.01713467 0.00137961 0.01169505 0.03591415 0.01179449 0.00281465 
0.01234213 0.02232150 0.00321326 0.00137946 0.00870471 0.00135372 0.00904534 0.00523898 0.04186261 0.00474227 0.01746481 0.00141139 0.01152986 0.03741037 0.01225862 0.00281479 
0.01221565 0.02304537 0.00326165 0.00139188 0.00866712 0.00138041 0.00885230 0.00524008 0.04269525 0.00471497 0.01780315 0.00144293 0.01136709 0.03896811 0.01274159 0.00281375 
0.01208411 0.02380779 0.00331524 0.00140586 0.00862147 0.00140730 0.00865417 0.00523897 0.04350023 0.00469461 0.01814839 0.00147408 0.01120689 0.04058176 0.01324166 0.00281152 
0.01194832 0.02460855 0.00337385 0.00142139 0.00856785 0.00143432 0.00845191 0.00523560 0.04427450 0.00468129 0.01849921 0.00150469 0.01104940 0.04224545 0.01375702 0.00280809 
0.01180915 0.02544732 0.00343730 0.00143842 0.00850636 0.00146142 0.00824654 0.00522991 0.04501525 0.00467505 0.01885422 0.00153463 0.01089475 0.04395309 0.01428574 0.00280345 
0.01166752 0.02632364 0.00350542 0.00145692 0.00843716 0.00148857 0.00803906 0.00522191 0.04571986 0.00467592 0.01921198 0.00156375 0.01074309 0.04569842 0.01482585 0.00279760 
0.01152442 0.02723689 0.00357800 0.00147685 0.00836043 0.00151571 0.00783049 0.00521163 0.04638595 0.00468389 0.01957102 0.00159191 0.01059454 0.04747501 0.01537531 0.00279054 
0.01138086 0.02818634 0.00365483 0.00149819 0.00827641 0.00154281 0.00762183 0.00519913 0.04701136 0.00469892 0.01992981 0.00161899 0.01044923 0.04927633 0.01593202 0.00278226 
0.01123791 0.02917107 0.00373572 0.00152088 0.00818538 0.00156985 0.00741409 0.00518450 0.04759420 0.00472093 0.02028683 0.00164486 0.01030727 0.05109572 0.01649383 0.00277276 
0.01109669 0.03019005 0.00382044 0.00154489 0.00808763 0.00159680 0.00720824 0.00516786 0.04813280 0.00474982 0.02064050 0.00166940 0.01016878 0.05292649 0.01705856 0.00276205 
0.01095831 0.03124205 0.00390878 0.00157018 0.00798352 0.00162364 0.00700526 0.00514938 0.04862575 0.00478545 0.02098926 0.00169248 0.01003386 0.05476193 0.01762400 0.00275012 
0.01082394 0.03232570 0.00400051 0.00159669 0.00787343 0.00165036 0.00680608 0.00512924 0.04907189 0.00482768 0.02133152 0.00171400 0.00990262 0.05659531 0.01818796 0.00273697 
0.01069474 0.03343949 0.00409540 0.00162439 0.00775776 0.00167695 0.00661159 0.00510765 0.04947032 0.00487629 0.02166573 0.00173386 0.00977515 0.05841997 0.01874819 0.00272261 
0.01057189 0.03458170 0.00419322 0.00165321 0.00763696 0.00170340 0.00642267 0.00508486 0.04982041 0.00493109 0.02199030 0.00175196 0.00965153 0.06022932 0.01930249 0.00270704 
0.01045657 0.03575050 0.00429375 0.00168311 0.00751152 0.00172972 0.00624013 0.00506112 0.05012175 0.00499182 0.02230371 0.00176821 0.00953185 0.06201684 0.01984867 0.00269027 
0.01034994 0.03694386 0.00439675 0.00171404 0.00738192 0.00175589 0.00606475 0.00503672 0.05037420 0.00505823 0.02260444 0.00178255 0.00941618 0.06377620 0.02038456 0.00267230 
0.01025318 0.03815961 0.00450201 0.00174593 0.00724871 0.00178193 0.00589725 0.00501196 0.05057786 0.00513003 0.02289102 0.00179489 0.00930459 0.06550122 0.02090804 0.00265315 
0.01016740 0.03939540 0.00460928 0.00177872 0.00711242 0.00180784 0.00573830 0.00498718 0.05073309 0.00520691 0.02316201 0.00180518 0.00919713 0.06718590 0.02141703 0.00263282 
0.01009373 0.04064876 0.00471834 0.00181236 0.00697363 0.00183363 0.00558851 0.00496271 0.05084045 0.00528854 0.02341605 0.00181338 0.00909385 0.06882450 0.02190953 0.00261133 
0.01003324 0.04191705 0.00482897 0.00184679 0.00683293 0.00185931 0.00544842 0.00493889 0.05090075 0.00537459 0.02365180 0.00181944 0.00899480 0.07041152 0.02238358 0.00258869 
0.00998696 0.04319748 0.00494096 0.00188192 0.00669090 0.00188488 0.00531851 0.00491608 0.05091500 0.00546470 0.02386804 0.00182334 0.00890000 0.07194175 0.02283735 0.00256491 
0.00995586 0.04448715 0.00505407 0.00191771 0.00654818 0.00191035 0.00519921 0.00489465 0.05088444 0.00555850 0.02406359 0.00182507 0.00880948 0.07341029 0.02326905 0.00254002 
0.00994089 0.04578301 0.00516811 0.00195408 0.00640537 0.00193574 0.00509085 0.00487497 0.05081046 0.00565561 0.02423737 0.00182461 0.00872326 0.07481257 0.02367702 0.00251404 
0.00994289 0.04708190 0.00528286 0.00199095 0.00626309 0.00196105 0.00499372 0.00485740 0.05069468 0.00575564 0.02438838 0.00182197 0.00864133 0.07614437 0.02405970 0.00248700 
0.00996266 0.04838055 0.00539812 0.00202826 0.00612199 0.00198627 0.00490802 0.00484230 0.05053885 0.00585819 0.02451574 0.00181717 0.00856370 0.07740186 0.02441565 0.00245892 
0.01000093 0.04967558 0.00551369 0.00206592 0.00598267 0.00201143 0.00483389 0.00483003 0.05034490 0.00596285 0.02461863 0.00181023 0.00849035 0.07858157 0.02474355 0.00242983 
0.01005832 0.05096354 0.00562937 0.00210387 0.00584575 0.00203651 0.00477140 0.00482094 0.05011489 0.00606923 0.02469639 0.00180120 0.00842128 0.07968048 0.02504221 0.00239979 
0.01013540 0.05224090 0.00574499 0.00214203 0.00571186 0.00206152 0.00472054 0.00481537 0.04985100 0.00617690 0.02474845 0.00179012 0.00835644 0.08069594 0.02531058 0.00236881 
0.01023263 0.05350406 0.00586034 0.00218031 0.00558157 0.00208646 0.00468124 0.00481364 0.04955553 0.00628547 0.02477435 0.00177706 0.00829580 0.08162576 0.02554776 0.00233696 
0.01035037 0.05474938 0.00597526 0.00221864 0.00545549 0.00211130 0.00465338 0.00481605 0.04923086 0.00639452 0.02477377 0.00176207 0.00823933 0.08246818 0.02575298 0.00230428 
0.01048889 0.05597319 0.00608957 0.00225694 0.00533417 0.00213604 0.00463674 0.00482288 0.04887947 0.00650364 0.02474650 0.00174525 0.00818697 0.08322188 0.02592563 0.00227082 
0.01064836 0.05717179 0.00620310 0.00229512 0.00521816 0.00216067 0.00463107 0.00483439 0.04850388 0.00661244 0.02469247 0.00172667 0.00813867 0.08388599 0.02606526 0.00223665 
0.01082884 0.05834150 0.00631568 0.00233311 0.00510798 0.00218516 0.00463604 0.00485082 0.04810666 0.00672051 0.02461173 0.00170645 0.00809438 0.08446009 0.02617157 0.00220184 
0.01103028 0.05947865 0.00642716 0.00237083 0.00500412 0.00220949 0.00465128 0.00487237 0.04769041 0.00682747 0.02450449 0.00168467 0.00805402 0.08494421 0.02624442 0.00216645 
0.01125253 0.06057957 0.00653738 0.00240819 0.00490705 0.00223363 0.00467636 0.00489922 0.04725776 0.00693294 0.02437105 0.00166146 0.00801754 0.08533879 0.02628382 0.00213057 
0.01149532 0.06164069 0.00664619 0.00244512 0.00481719 0.00225755 0.00471079 0.00493152 0.04681132 0.00703654 0.02421187 0.00163694 0.00798487 0.08564475 0.02628997 0.00209427 
0.01175828 0.06265847 0.00675343 0.00248154 0.00473495 0.00228121 0.00475406 0.00496938 0.04635369 0.00713792 0.02402755 0.00161123 0.00795593 0.08586341 0.02626318 0.00205766 
0.01204091 0.06362946 0.00685897 0.00251736 0.00466069 0.00230456 0.00480559 0.00501288 0.04588744 0.00723673 0.02381878 0.00158448 0.00793065 0.08599652 0.02620396 0.00202082 
0.01234261 0.06455033 0.00696266 0.00255252 0.00459473 0.00232756 0.00486480 0.00506205 0.04541510 0.00733263 0.02358643 0.00155680 0.00790897 0.08604621 0.02611295 0.00198385 
0.01266268 0.06541784 0.00706437 0.00258693 0.00453734 0.00235017 0.00493104 0.00511692 0.04493912 0.00742530 0.02333145 0.00152836 0.00789082 0.08601502 0.02599095 0.00194687 
0.01300030 0.06622890 0.00716395 0.00262053 0.00448877 0.00237232 0.00500365 0.00517744 0.04446191 0.00751443 0.02305494 0.00149930 0.00787612 0.08590585 0.02583889 0.00190999 
0.01335455 0.06698058 0.00726127 0.00265324 0.00444921 0.00239396 0.00508196 0.00524356 0.04398579 0.00759974 0.02275811 0.00146976 0.00786483 0.08572197 0.02565786 0.00187334 
0.01372440 0.06767011 0.00735620 0.00268499 0.00441881 0.00241504 0.00516526 0.00531517 0.04351296 0.00768094 0.02244228 0.00143991 0.00785688 0.08546694 0.02544908 0.00183702 
0.01410874 0.06829488 0.00744860 0.00271573 0.00439768 0.00243549 0.00525284 0.00539213 0.04304557 0.00775779 0.02210887 0.00140988 0.00785221 0.08514467 0.02521390 0.00180118 
0.01450634 0.06885252 0.00753834 0.00274538 0.00438587 0.00245525 0.00534398 0.00547426 0.04258562 0.00783003 0.02175942 0.00137984 0.00785079 0.08475935 0.02495378 0.00176596 
0.01491590 0.06934084 0.00762530 0.00277388 0.00438340 0.00247425 0.00543796 0.00556135 0.04213500 0.00789744 0.02139555 0.00134995 0.00785259 0.08431540 0.02467031 0.00173149 
0.01533603 0.06975790 0.00770934 0.00280118 0.00439022 0.00249243 0.00553406 0.00565315 0.04169548 0.00795983 0.02101897 0.00132034 0.00785756 0.08381750 0.02436518 0.00169791 
0.01576525 0.07010197 0.00779033 0.00282722 0.00440626 0.00250971 0.00563155 0.00574939 0.04126871 0.00801700 0.02063147 0.00129118 0.00786569 0.08327055 0.02404017 0.00166539 
0.01620204 0.07037161 0.00786814 0.00285196 0.00443139 0.00252604 0.00572972 0.00584975 0.04085620 0.00806878 0.02023490 0.00126262 0.00787697 0.08267960 0.02369716 0.00163406 
0.01664479 0.07056559 0.00794264 0.00287534 0.00446542 0.00254134 0.00582789 0.00595390 0.04045930 0.00811503 0.01983118 0.00123479 0.00789140 0.08204986 0.02333811 0.00160408 
0.01709183 0.07068300 0.00801370 0.00289732 0.00450816 0.00255554 0.00592538 0.00606145 0.04007926 0.00815562 0.01942229 0.00120783 0.00790900 0.08138669 0.02296504 0.00157560 
0.01754145 0.07072318 0.00808118 0.00291786 0.00455932 0.00256859 0.00602154 0.00617202 0.03971717 0.00819045 0.01901024 0.00118190 0.00792978 0.08069551 0.02258002 0.00154880 
0.01799190 0.07068575 0.00814495 0.00293692 0.00461860 0.00258042 0.00611572 0.00628519 0.03937398 0.00821941 0.01859706 0.00115710 0.00795379 0.07998182 0.02218519 0.00152381 
0.01844139 0.07057064 0.00820487 0.00295448 0.00468567 0.00259096 0.00620734 0.00640051 0.03905051 0.00824244 0.01818484 0.00113358 0.00798108 0.07925118 0.02178272 0.00150079 
0.01888811 0.07037806 0.00826082 0.00297049 0.00476014 0.00260017 0.00629582 0.00651754 0.03874744 0.00825950 0.01777565 0.00111145 0.00801169 0.07850911 0.02137480 0.00147991 
0.01933024 0.07010852 0.00831264 0.00298494 0.00484158 0.00260799 0.00638063 0.00663578 0.03846532 0.00827056 0.01737156 0.00109081 0.00804570 0.07776116 0.02096363 0.00146132 
0.01976594 0.06976283 0.00836022 0.00299780 0.00492954 0.00261437 0.00646126 0.00675476 0.03820457 0.00827560 0.01697465 0.00107178 0.00808321 0.07701281 0.02055143 0.00144515 
0.02019338 0.06934208 0.00840340 0.00300905 0.00502354 0.00261925 0.00653724 0.00687398 0.03796549 0.00827464 0.01658695 0.00105444 0.00812429 0.07626947 0.02014041 0.00143157 
0.02061076 0.06884769 0.00844205 0.00301869 0.00512307 0.00262261 0.00660816 0.00699294 0.03774825 0.00826772 0.01621049 0.00103888 0.00816905 0.07553645 0.01973275 0.00142070 
0.02101626 0.06828134 0.00847603 0.00302668 0.00522757 0.00262441 0.00667364 0.00711113 0.03755292 0.00825488 0.01584723 0.00102519 0.00821762 0.07481894 0.01933062 0.00141269 
0.02140814 0.06764500 0.00850522 0.00303303 0.00533650 0.00262462 0.00673332 0.00722804 0.03737948 0.00823620 0.01549908 0.00101342 0.00827011 0.07412198 0.01893615 0.00140765 
0.02178466 0.06694095 0.00852946 0.00303773 0.00544926 0.00262320 0.00678691 0.00734317 0.03722779 0.00821177 0.01516790 0.00100363 0.00832665 0.07345043 0.01855140 0.00140572 
0.02214416 0.06617170 0.00854862 0.00304078 0.00556525 0.00262016 0.00683416 0.00745602 0.03709762 0.00818172 0.01485546 0.00099588 0.00838738 0.07280899 0.01817839 0.00140699 
0.02248503 0.06534005 0.00856258 0.00304217 0.00568387 0.00261546 0.00687484 0.00756610 0.03698868 0.00814616 0.01456345 0.00099020 0.00845245 0.07220210 0.01781908 0.00141157 
0.02280572 0.06444904 0.00857121 0.00304190 0.00580448 0.00260912 0.00690880 0.00767293 0.03690059 0.00810526 0.01429346 0.00098662 0.00852201 0.07163401 0.01747534 0.00141955 
0.02310476 0.06350196 0.00857437 0.00303999 0.00592645 0.00260113 0.00693589 0.00777605 0.03683292 0.00805919 0.01404698 0.00098516 0.00859620 0.07110870 0.01714894 0.00143101 
0.02338078 0.06250233 0.00857195 0.00303643 0.00604916 0.00259150 0.00695604 0.00787502 0.03678518 0.00800814 0.01382539 0.00098582 0.00867517 0.07062988 0.01684159 0.00144600 
0.02363248 0.06145386 0.00856384 0.00303123 0.00617196 0.00258024 0.00696920 0.00796941 0.03675683 0.00795233 0.01362994 0.00098861 0.00875909 0.07020101 0.01655487 0.00146460 
0.02385869 0.06036047 0.00854992 0.00302441 0.00629423 0.00256739 0.00697535 0.00805882 0.03674729 0.00789199 0.01346175 0.00099351 0.00884808 0.06982521 0.01629027 0.00148682 
0.02405831 0.05922626 0.00853010 0.00301597 0.00641534 0.00255297 0.00697454 0.00814288 0.03675596 0.00782738 0.01332181 0.00100051 0.00894230 0.06950535 0.01604914 0.00151269 
0.02423040 0.05805549 0.00850428 0.00300594 0.00653467 0.00253701 0.00696683 0.00822124 0.03678222 0.00775875 0.01321097 0.00100956 0.00904189 0.06924393 0.01583273 0.00154223 
0.02437409 0.05685258 0.00847239 0.00299431 0.00665163 0.00251956 0.00695231 0.00829358 0.03682542 0.00768640 0.01312992 0.00102063 0.00914696 0.06904318 0.01564215 0.00157543 
0.02448867 0.05562203 0.00843434 0.00298112 0.00676562 0.00250068 0.00693113 0.00835962 0.03688493 0.00761064 0.01307920 0.00103367 0.00925763 0.06890496 0.01547839 0.00161226 
0.02457357 0.05436849 0.00839008 0.00296639 0.00687608 0.00248041 0.00690345 0.00841910 0.03696010 0.00753178 0.01305919 0.00104862 0.00937401 0.06883080 0.01534228 0.00165267 
0.02462831 0.05309666 0.00833956 0.00295012 0.00698247 0.00245881 0.00686947 0.00847182 0.03705029 0.00745016 0.01307012 0.00106542 0.00949619 0.06882192 0.01523453 0.00169662 
0.02465260 0.05181131 0.00828275 0.00293235 0.00708425 0.00243597 0.00682939 0.00851757 0.03715487 0.00736614 0.01311205 0.00108398 0.00962422 0.06887915 0.01515570 0.00174404 
0.02464626 0.05051727 0.00821965 0.00291309 0.00718094 0.00241194 0.00678347 0.00855623 0.03727325 0.00728009 0.01318488 0.00110424 0.00975816 0.06900302 0.01510618 0.00179482 
0.02460926 0.04921937 0.00815024 0.00289237 0.00727207 0.00238682 0.00673196 0.00858769 0.03740483 0.00719239 0.01328833 0.00112610 0.00989804 0.06919368 0.01508626 0.00184886 
0.02454171 0.04792242 0.00807454 0.00287022 0.00735720 0.00236067 0.00667516 0.00861187 0.03754905 0.00710344 0.01342198 0.00114946 0.01004385 0.06945095 0.01509603 0.00190603 
0.02444389 0.04663124 0.00799261 0.00284667 0.00743593 0.00233360 0.00661336 0.00862875 0.03770538 0.00701364 0.01358523 0.00117423 0.01019558 0.06977432 0.01513545 0.00196620 
0.02431620 0.04535057 0.00790449 0.00282175 0.00750789 0.00230569 0.00654687 0.00863833 0.03787331 0.00692341 0.01377731 0.00120030 0.01035316 0.07016292 0.01520434 0.00202921 
0.02415919 0.04408510 0.00781027 0.00279549 0.00757274 0.00227704 0.00647601 0.00864067 0.03805238 0.00683318 0.01399733 0.00122755 0.01051651 0.07061556 0.01530235 0.00209488 
0.02397356 0.04283942 0.00771005 0.00276793 0.00763019 0.00224775 0.00640113 0.00863583 0.03824215 0.00674339 0.01424422 0.00125588 0.01068552 0.07113071 0.01542900 0.00216303 
0.02376016 0.04161803 0.00760396 0.00273911 0.00767998 0.00221792 0.00632255 0.00862395 0.03844219 0.00665448 0.01451676 0.00128516 0.01086004 0.07170653 0.01558365 0.00223344 
0.02351995 0.04042526 0.00749215 0.00270906 0.00772188 0.00218765 0.00624063 0.00860517 0.03865214 0.00656690 0.01481361 0.00131528 0.01103988 0.07234086 0.01576552 0.00230591 
0.02325406 0.03926533 0.00737481 0.00267784 0.00775572 0.00215705 0.00615571 0.00857970 0.03887165 0.00648110 0.01513327 0.00134610 0.01122483 0.07303125 0.01597369 0.00238021 
0.02296373 0.03814225 0.00725213 0.00264549 0.00778134 0.00212623 0.00606814 0.00854773 0.03910038 0.00639754 0.01547414 0.00137751 0.01141462 0.07377492 0.01620711 0.00245608 
0.02265033 0.03705989 0.00712434 0.00261206 0.00779864 0.00209529 0.00597826 0.00850955 0.03933806 0.00631668 0.01583450 0.00140938 0.01160896 0.07456883 0.01646459 0.00253328 
0.02231535 0.03602187 0.00699171 0.00257761 0.00780755 0.00206434 0.00588642 0.00846541 0.03958439 0.00623898 0.01621251 0.00144158 0.01180751 0.07540968 0.01674481 0.00261154 
0.02196039 0.03503162 0.00685451 0.00254220 0.00780805 0.00203350 0.00579295 0.00841564 0.03983911 0.00616487 0.01660624 0.00147399 0.01200991 0.07629389 0.01704634 0.00269059 
0.02158716 0.03409233 0.00671306 0.00250590 0.00780013 0.00200286 0.00569817 0.00836057 0.04010199 0.00609482 0.01701368 0.00150647 0.01221573 0.07721762 0.01736762 0.00277016 
0.02119748 0.03320692 0.00656769 0.00246877 0.00778384 0.00197254 0.00560242 0.00830057 0.04037277 0.00602925 0.01743274 0.00153891 0.01242452 0.07817684 0.01770700 0.00284994 
0.02079326 0.03237808 0.00641877 0.00243089 0.00775927 0.00194265 0.00550599 0.00823599 0.04065123 0.00596862 0.01786128 0.00157118 0.01263579 0.07916726 0.01806272 0.00292966 
0.02037647 0.03160821 0.00626670 0.00239234 0.00772651 0.00191327 0.00540920 0.00816726 0.04093713 0.00591333 0.01829709 0.00160316 0.01284902 0.08018441 0.01843293 0.00300902 
0.01994918 0.03089943 0.00611188 0.00235321 0.00768573 0.00188453 0.00531233 0.00809477 0.04123023 0.00586379 0.01873796 0.00163474 0.01306365 0.08122363 0.01881569 0.00308772 
0.01951353 0.03025358 0.00595475 0.00231359 0.00763708 0.00185652 0.00521566 0.00801896 0.04153026 0.00582040 0.01918161 0.00166580 0.01327906 0.08228012 0.01920899 0.00316545 
0.01907168 0.02967220 0.00579579 0.00227357 0.00758077 0.00182933 0.00511944 0.00794026 0.04183697 0.00578355 0.01962580 0.00169623 0.01349462 0.08334889 0.01961074 0.00324194 
0.01862588 0.02915652 0.00563549 0.00223327 0.00751704 0.00180306 0.00502393 0.00785912 0.04215006 0.00575357 0.02006827 0.00172593 0.01370968 0.08442485 0.02001882 0.00331687 
0.01817839 0.02870747 0.00547434 0.00219278 0.00744614 0.00177780 0.00492936 0.00777599 0.04246920 0.00573083 0.02050678 0.00175479 0.01392353 0.08550281 0.02043104 0.00338995 
0.01773150 0.02832569 0.00531288 0.00215223 0.00736834 0.00175363 0.00483595 0.00769131 0.04279406 0.00571562 0.02093914 0.00178273 0.01413546 0.08657747 0.02084519 0.00346091 
0.01728751 0.02801149 0.00515165 0.00211173 0.00728395 0.00173065 0.00474391 0.00760554 0.04312425 0.00570825 0.02136318 0.00180965 0.01434471 0.08764349 0.02125901 0.00352945 
0.01684875 0.02776488 0.00499122 0.00207141 0.00719329 0.00170893 0.00465341 0.00751914 0.04345935 0.00570898 0.02177681 0.00183547 0.01455052 0.08869547 0.02167026 0.00359531 
0.01641750 0.02758558 0.00483216 0.00203141 0.00709668 0.00168854 0.00456465 0.00743254 0.04379889 0.00571805 0.02217802 0.00186012 0.01475211 0.08972802 0.02207666 0.00365822 
0.01599607 0.02747299 0.00467505 0.00199186 0.00699448 0.00166955 0.00447778 0.00734618 0.04414237 0.00573566 0.02256486 0.00188352 0.01494868 0.09073574 0.02247596 0.00371794 
0.01558669 0.02742622 0.00452049 0.00195291 0.00688705 0.00165203 0.00439293 0.00726049 0.04448923 0.00576201 0.02293551 0.00190561 0.01513942 0.09171326 0.02286593 0.00377421 
0.01519161 0.02744411 0.00436907 0.00191470 0.00677476 0.00163604 0.00431026 0.00717589 0.04483888 0.00579722 0.02328824 0.00192633 0.01532351 0.09265528 0.02324436 0.00382681 
0.01481297 0.02752521 0.00422140 0.00187739 0.00665798 0.00162163 0.00422987 0.00709277 0.04519065 0.00584142 0.02362144 0.00194565 0.01550014 0.09355657 0.02360908 0.00387553 
0.01445289 0.02766778 0.00407808 0.00184113 0.00653710 0.00160886 0.00415186 0.00701153 0.04554385 0.00589469 0.02393365 0.00196351 0.01566850 0.09441203 0.02395799 0.00392017 
0.01411341 0.02786987 0.00393971 0.00180607 0.00641251 0.00159777 0.00407634 0.00693253 0.04589773 0.00595706 0.02422353 0.00197988 0.01582778 0.09521667 0.02428903 0.00396054 
0.01379648 0.02812924 0.00380687 0.00177238 0.00628460 0.00158839 0.00400338 0.00685612 0.04625148 0.00602855 0.02448991 0.00199474 0.01597718 0.09596569 0.02460024 0.00399648 
0.01350396 0.02844344 0.00368016 0.00174023 0.00615374 0.00158077 0.00393306 0.00678263 0.04660427 0.00610913 0.02473176 0.00200807 0.01611594 0.09665447 0.02488974 0.00402784 
0.01323762 0.02880981 0.00356014 0.00170976 0.00602034 0.00157493 0.00386543 0.00671237 0.04695519 0.00619874 0.02494821 0.00201986 0.01624330 0.09727858 0.02515573 0.00405449 
0.01299912 0.02922546 0.00344736 0.00168115 0.00588476 0.00157089 0.00380055 0.00664562 0.04730333 0.00629727 0.02513858 0.00203011 0.01635852 0.09783387 0.02539653 0.00407632 
0.01278998 0.02968735 0.00334235 0.00165456 0.00574740 0.00156867 0.00373847 0.00658265 0.04764770 0.00640459 0.02530235 0.00203882 0.01646091 0.09831644 0.02561060 0.00409325 
0.01261163 0.03019226 0.00324563 0.00163015 0.00560862 0.00156829 0.00367920 0.00652369 0.04798730 0.00652051 0.02543918 0.00204600 0.01654981 0.09872266 0.02579648 0.00410519 
0.01246532 0.03073680 0.00315767 0.00160808 0.00546878 0.00156974 0.00362280 0.00646896 0.04832110 0.00664484 0.02554890 0.00205167 0.01662460 0.09904926 0.02595288 0.00411210 
0.01235220 0.03131750 0.00307894 0.00158849 0.00532825 0.00157303 0.00356927 0.00641865 0.04864805 0.00677731 0.02563153 0.00205587 0.01668471 0.09929326 0.02607865 0.00411396 
0.01227326 0.03193073 0.00300984 0.00157155 0.00518736 0.00157816 0.00351864 0.00637291 0.04896706 0.00691766 0.02568727 0.00205862 0.01672960 0.09945207 0.02617278 0.00411074 
0.01222932 0.03257282 0.00295077 0.00155738 0.00504646 0.00158511 0.00347092 0.00633189 0.04927704 0.00706556 0.02571647 0.00205996 0.01675881 0.09952348 0.02623442 0.00410246 
0.01222105 0.03323998 0.00290207 0.00154614 0.00490587 0.00159386 0.00342613 0.00629570 0.04957690 0.00722067 0.02571969 0.00205995 0.01677193 0.09950565 0.02626290 0.00408916 
0.01224897 0.03392843 0.00286405 0.00153794 0.00476590 0.00160439 0.00338426 0.00626442 0.04986555 0.00738261 0.02569764 0.00205863 0.01676860 0.09939719 0.02625771 0.00407088 
0.01231341 0.03463432 0.00283695 0.00153291 0.00462685 0.00161669 0.00334533 0.00623813 0.05014189 0.00755098 0.02565119 0.00205606 0.01674854 0.09919711 0.02621851 0.00404770 
0.01241456 0.03535381 0.00282101 0.00153116 0.00448903 0.00163070 0.00330934 0.00621687 0.05040486 0.00772533 0.02558138 0.00205231 0.01671154 0.09890490 0.02614513 0.00401971 
0.01255239 0.03608310 0.00281637 0.00153278 0.00435271 0.00164640 0.00327629 0.00620066 0.05065339 0.00790520 0.02548940 0.00204745 0.01665743 0.09852047 0.02603760 0.00398701 
0.01272674 0.03681839 0.00282316 0.00153787 0.00421817 0.00166374 0.00324619 0.00618948 0.05088647 0.00809011 0.02537655 0.00204155 0.01658616 0.09804421 0.02589613 0.00394974 
0.01293726 0.03755596 0.00284143 0.00154649 0.00408566 0.00168267 0.00321904 0.00618333 0.05110311 0.00827956 0.02524431 0.00203469 0.01649772 0.09747699 0.02572109 0.00390804 
0.01318341 0.03829218 0.00287119 0.00155871 0.00395543 0.00170315 0.00319483 0.00618215 0.05130236 0.00847301 0.02509425 0.00202695 0.01639219 0.09682012 0.02551306 0.00386208 
0.01346449 0.03902349 0.00291240 0.00157457 0.00382773 0.00172510 0.00317359 0.00618590 0.05148331 0.00866992 0.02492804 0.00201842 0.01626973 0.09607541 0.02527278 0.00381203 
0.01377962 0.03974648 0.00296495 0.00159411 0.00370279 0.00174847 0.00315531 0.00619448 0.05164514 0.00886974 0.02474747 0.00200918 0.01613058 0.09524515 0.02500116 0.00375809 
0.01412776 0.04045786 0.00302868 0.00161733 0.00358084 0.00177318 0.00313999 0.00620780 0.05178705 0.00907190 0.02455440 0.00199933 0.01597505 0.09433207 0.02469932 0.00370047 
0.01450770 0.04115449 0.00310338 0.00164424 0.00346209 0.00179918 0.00312765 0.00622577 0.05190834 0.00927581 0.02435076 0.00198896 0.01580354 0.09333937 0.02436851 0.00363938 
0.01491806 0.04183342 0.00318876 0.00167482 0.00334676 0.00182638 0.00311828 0.00624825 0.05200837 0.00948090 0.02413853 0.00197816 0.01561652 0.09227071 0.02401017 0.00357506 
0.01535731 0.04249188 0.00328452 0.00170903 0.00323506 0.00185469 0.00311191 0.00627511 0.05208656 0.00968657 0.02391975 0.00196703 0.01541453 0.09113018 0.02362587 0.00350776 
0.01582377 0.04312729 0.00339025 0.00174681 0.00312719 0.00188405 0.00310854 0.00630620 0.05214246 0.00989223 0.02369646 0.00195566 0.01519820 0.08992228 0.02321735 0.00343773 
0.01631560 0.04373730 0.00350554 0.00178810 0.00302336 0.00191435 0.00310818 0.00634138 0.05217565 0.01009730 0.02347073 0.00194414 0.01496823 0.08865192 0.02278648 0.00336522 
0.01683084 0.04431979 0.00362988 0.00183281 0.00292376 0.00194552 0.00311084 0.00638047 0.05218584 0.01030119 0.02324460 0.00193257 0.01472539 0.08732437 0.02233527 0.00329052 
0.01736739 0.04487286 0.00376275 0.00188083 0.00282860 0.00197744 0.00311654 0.00642332 0.05217283 0.01050333 0.02302013 0.00192105 0.01447050 0.08594527 0.02186583 0.00321389 
0.01792304 0.04539487 0.00390355 0.00193203 0.00273808 0.00201004 0.00312528 0.00646974 0.05213649 0.01070314 0.02279930 0.00190965 0.01420447 0.08452059 0.02138040 0.00313562 
0.01849546 0.04588445 0.00405166 0.00198627 0.00265240 0.00204320 0.00313707 0.00651956 0.05207682 0.01090008 0.02258407 0.00189848 0.01392825 0.08305657 0.02088129 0.00305599 
0.01908223 0.04634047 0.00420640 0.00204339 0.00257177 0.00207683 0.00315193 0.00657259 0.05199389 0.01109359 0.02237633 0.00188761 0.01364285 0.08155974 0.02037092 0.00297529 
0.01968084 0.04676207 0.00436707 0.00210322 0.00249639 0.00211083 0.00316986 0.00662864 0.05188790 0.01128317 0.02217788 0.00187712 0.01334934 0.08003683 0.01985176 0.00289380 
0.02028868 0.04714867 0.00453291 0.00216557 0.00242647 0.00214509 0.00319087 0.00668753 0.05175913 0.01146829 0.02199044 0.00186710 0.01304881 0.07849479 0.01932634 0.00281181 
0.02090312 0.04749996 0.00470315 0.00223022 0.00236224 0.00217950 0.00321496 0.00674908 0.05160797 0.01164847 0.02181563 0.00185762 0.01274242 0.07694072 0.01879724 0.00272961 
0.02152142 0.04781589 0.00487697 0.00229695 0.00230390 0.00221397 0.00324214 0.00681309 0.05143489 0.01182326 0.02165494 0.00184874 0.01243135 0.07538180 0.01826705 0.00264748 
0.02214085 0.04809670 0.00505356 0.00236554 0.00225169 0.00224837 0.00327239 0.00687937 0.05124049 0.01199220 0.02150974 0.00184053 0.01211680 0.07382534 0.01773840 0.00256570 
0.02275864 0.04834287 0.00523206 0.00243573 0.00220584 0.00228262 0.00330571 0.00694774 0.05102543 0.01215490 0.02138128 0.00183305 0.01180001 0.07227864 0.01721388 0.00248455 
0.02337198 0.04855515 0.00541160 0.00250727 0.00216658 0.00231659 0.00334210 0.00701801 0.05079050 0.01231095 0.02127063 0.00182635 0.01148221 0.07074900 0.01669609 0.00240429 
0.02397809 0.04873457 0.00559131 0.00257989 0.00213416 0.00235019 0.00338152 0.00709001 0.05053654 0.01246001 0.02117874 0.00182048 0.01116467 0.06924367 0.01618759 0.00232518 
0.02457420 0.04888237 0.00577031 0.00265330 0.00210881 0.00238331 0.00342397 0.00716355 0.05026452 0.01260174 0.02110637 0.00181547 0.01084863 0.06776982 0.01569089 0.00224748 
0.02515755 0.04900004 0.00594772 0.00272724 0.00209078 0.00241585 0.00346940 0.00723845 0.04997547 0.01273585 0.02105415 0.00181137 0.01053536 0.06633444 0.01520842 0.00217144 
0.02572546 0.04908929 0.00612267 0.00280140 0.00208034 0.00244771 0.00351780 0.00731454 0.04967049 0.01286206 0.02102251 0.00180818 0.01022609 0.06494437 0.01474257 0.00209729 
0.02627527 0.04915205 0.00629429 0.00287551 0.00207772 0.00247878 0.00356911 0.00739165 0.04935078 0.01298014 0.02101172 0.00180594 0.00992205 0.06360623 0.01429560 0.00202524 
0.02680440 0.04919044 0.00646172 0.00294925 0.00208319 0.00250898 0.00362328 0.00746961 0.04901760 0.01308988 0.02102188 0.00180466 0.00962444 0.06232634 0.01386969 0.00195553 
0.02731037 0.04920677 0.00662413 0.00302233 0.00209699 0.00253822 0.00368027 0.00754826 0.04867227 0.01319111 0.02105291 0.00180433 0.00933443 0.06111075 0.01346690 0.00188833 
0.02779077 0.04920350 0.00678071 0.00309446 0.00211939 0.00256640 0.00374000 0.00762744 0.04831617 0.01328368 0.02110455 0.00180496 0.00905315 0.05996516 0.01308914 0.00182386 
0.02824332 0.04918324 0.00693069 0.00316534 0.00215063 0.00259343 0.00380240 0.00770698 0.04795074 0.01336748 0.02117638 0.00180654 0.00878170 0.05889487 0.01273821 0.00176226 
0.02866585 0.04914874 0.00707332 0.00323468 0.00219096 0.00261924 0.00386741 0.00778674 0.04757748 0.01344242 0.02126781 0.00180905 0.00852112 0.05790478 0.01241572 0.00170372 
0.02905634 0.04910285 0.00720787 0.00330220 0.00224061 0.00264376 0.00393492 0.00786655 0.04719790 0.01350845 0.02137809 0.00181246 0.00827240 0.05699934 0.01212315 0.00164837 
0.02941291 0.04904850 0.00733370 0.00336761 0.00229981 0.00266690 0.00400484 0.00794627 0.04681359 0.01356555 0.02150629 0.00181674 0.00803649 0.05618253 0.01186180 0.00159635 
0.02973380 0.04898870 0.00745016 0.00343065 0.00236877 0.00268861 0.00407708 0.00802576 0.04642612 0.01361373 0.02165137 0.00182186 0.00781425 0.05545783 0.01163278 0.00154776 
0.03001748 0.04892650 0.00755669 0.00349106 0.00244771 0.00270881 0.00415151 0.00810486 0.04603713 0.01365300 0.02181211 0.00182776 0.00760648 0.05482816 0.01143702 0.00150273 
0.03026253 0.04886497 0.00765276 0.00354858 0.00253681 0.00272747 0.00422804 0.00818344 0.04564825 0.01368344 0.02198717 0.00183440 0.00741392 0.05429592 0.01127528 0.00146132 
0.03046776 0.04880717 0.00773790 0.00360299 0.00263623 0.00274451 0.00430652 0.00826135 0.04526113 0.01370512 0.02217511 0.00184173 0.00723723 0.05386295 0.01114808 0.00142361 
0.03063214 0.04875617 0.00781171 0.00365406 0.00274612 0.00275991 0.00438683 0.00833846 0.04487743 0.01371815 0.02237433 0.00184966 0.00707699 0.05353048 0.01105579 0.00138966 
0.03075484 0.04871495 0.00787383 0.00370158 0.00286661 0.00277363 0.00446884 0.00841463 0.04449878 0.01372266 0.02258318 0.00185815 0.00693371 0.05329916 0.01099854 0.00135951 
0.03083525 0.04868646 0.00792397 0.00374537 0.00299780 0.00278562 0.00455240 0.00848973 0.04412683 0.01371881 0.02279988 0.00186711 0.00680779 0.05316906 0.01097629 0.00133317 
0.03087294 0.04867355 0.00796191 0.00378524 0.00313975 0.00279587 0.00463736 0.00856362 0.04376321 0.01370675 0.02302261 0.00187646 0.00669958 0.05313961 0.01098876 0.00131068 
0.03086770 0.04867896 0.00798748 0.00382105 0.00329250 0.00280436 0.00472358 0.00863617 0.04340950 0.01368668 0.02324946 0.00188613 0.00660933 0.05320967 0.01103551 0.00129201 
0.03081952 0.04870529 0.00800058 0.00385266 0.00345606 0.00281107 0.00481089 0.00870726 0.04306728 0.01365882 0.02347850 0.00189602 0.00653721 0.05337749 0.01111587 0.00127716 
0.03072860 0.04875501 0.00800119 0.00387995 0.00363039 0.00281600 0.00489914 0.00877676 0.04273807 0.01362337 0.02370772 0.00190606 0.00648330 0.05364071 0.01122899 0.00126609 
0.03059537 0.04883039 0.00798934 0.00390282 0.00381543 0.00281915 0.00498816 0.00884454 0.04242337 0.01358058 0.02393515 0.00191615 0.00644758 0.05399643 0.01137385 0.00125876 
0.03042043 0.04893355 0.00796512 0.00392120 0.00401106 0.00282051 0.00507780 0.00891048 0.04212460 0.01353070 0.02415877 0.00192620 0.00642999 0.05444114 0.01154921 0.00125511 
0.03020462 0.04906637 0.00792869 0.00393504 0.00421713 0.00282011 0.00516789 0.00897445 0.04184316 0.01347399 0.02437658 0.00193611 0.00643033 0.05497082 0.01175367 0.00125508 
0.02994896 0.04923054 0.00788028 0.00394429 0.00443346 0.00281797 0.00525826 0.00903635 0.04158034 0.01341072 0.02458662 0.00194580 0.00644837 0.05558092 0.01198569 0.00125857 
0.02965466 0.04942749 0.00782017 0.00394895 0.00465978 0.00281409 0.00534875 0.00909606 0.04133740 0.01334118 0.02478694 0.00195517 0.00648378 0.05626639 0.01224352 0.00126552 
0.02932314 0.04965842 0.00774870 0.00394902 0.00489583 0.00280853 0.00543920 0.00915345 0.04111551 0.01326565 0.02497567 0.00196413 0.00653614 0.05702170 0.01252531 0.00127580 
0.02895599 0.04992426 0.00766627 0.00394454 0.00514125 0.00280130 0.00552944 0.00920843 0.04091576 0.01318445 0.02515097 0.00197258 0.00660499 0.05784090 0.01282905 0.00128932 
0.02855497 0.05022568 0.00757333 0.00393554 0.00539568 0.00279245 0.00561932 0.00926089 0.04073914 0.01309786 0.02531110 0.00198045 0.00668977 0.05871765 0.01315262 0.00130596 
0.02812199 0.05056309 0.00747037 0.00392210 0.00565866 0.00278202 0.00570867 0.00931073 0.04058657 0.01300621 0.02545440 0.00198765 0.00678987 0.05964523 0.01349377 0.00132559 
0.02765915 0.05093658 0.00735795 0.00390430 0.00592972 0.00277007 0.00579735 0.00935784 0.04045887 0.01290980 0.02557932 0.00199408 0.00690462 0.06061660 0.01385017 0.00134808 
0.02716866 0.05134598 0.00723665 0.00388225 0.00620833 0.00275664 0.00588522 0.00940214 0.04035673 0.01280897 0.02568441 0.00199969 0.00703329 0.06162446 0.01421940 0.00137330 
0.02665286 0.05179083 0.00710710 0.00385606 0.00649391 0.00274180 0.00597211 0.00944353 0.04028077 0.01270403 0.02576833 0.00200439 0.00717510 0.06266126 0.01459897 0.00140110 
0.02611422 0.05227039 0.00696996 0.00382588 0.00678581 0.00272560 0.00605791 0.00948194 0.04023149 0.01259531 0.02582989 0.00200812 0.00732922 0.06371927 0.01498633 0.00143134 
0.02555531 0.05278361 0.00682592 0.00379187 0.00708338 0.00270810 0.00614247 0.00951728 0.04020926 0.01248314 0.02586803 0.00201081 0.00749477 0.06479062 0.01537891 0.00146386 
0.02497878 0.05332918 0.00667570 0.00375419 0.00738587 0.00268938 0.00622567 0.00954948 0.04021437 0.01236785 0.02588183 0.00201242 0.00767086 0.06586736 0.01577411 0.00149853 
0.02438736 0.05390549 0.00652005 0.00371302 0.00769254 0.00266951 0.00630739 0.00957849 0.04024695 0.01224979 0.02587052 0.00201289 0.00785654 0.06694149 0.01616930 0.00153518 
0.02378384 0.05451069 0.00635970 0.00366855 0.00800256 0.00264855 0.00638752 0.00960423 0.04030705 0.01212928 0.02583348 0.00201219 0.00805085 0.06800503 0.01656188 0.00157367 
0.02317105 0.05514264 0.00619543 0.00362100 0.00831509 0.00262659 0.00646595 0.00962665 0.04039458 0.01200667 0.02577026 0.00201028 0.00825280 0.06905005 0.01694928 0.00161383 
0.02255185 0.05579896 0.00602802 0.00357057 0.00862924 0.00260368 0.00654258 0.00964572 0.04050932 0.01188230 0.02568056 0.00200713 0.00846140 0.07006874 0.01732896 0.00165553 
0.02192910 0.05647703 0.00585823 0.00351749 0.00894409 0.00257992 0.00661733 0.00966139 0.04065096 0.01175650 0.02556426 0.00200274 0.00867563 0.07105345 0.01769842 0.00169860 
0.02130567 0.05717402 0.00568684 0.00346198 0.00925870 0.00255538 0.00669010 0.00967362 0.04081905 0.01162964 0.02542139 0.00199709 0.00889449 0.07199676 0.01805524 0.00174291 
0.02068441 0.05788687 0.00551462 0.00340429 0.00957209 0.00253013 0.00676081 0.00968241 0.04101302 0.01150204 0.02525214 0.00199019 0.00911695 0.07289146 0.01839710 0.00178830 
0.02006812 0.05861235 0.00534231 0.00334464 0.00988325 0.00250426 0.00682940 0.00968772 0.04123219 0.01137408 0.02505687 0.00198205 0.00934202 0.07373070 0.01872175 0.00183463 
0.01945956 0.05934704 0.00517066 0.00328329 0.01019118 0.00247784 0.00689580 0.00968955 0.04147577 0.01124609 0.02483610 0.00197269 0.00956870 0.07450794 0.01902707 0.00188177 
0.01886142 0.06008738 0.00500038 0.00322046 0.01049483 0.00245094 0.00695996 0.00968790 0.04174285 0.01111843 0.02459050 0.00196213 0.00979600 0.07521704 0.01931105 0.00192959 
0.01827631 0.06082967 0.00483217 0.00315641 0.01079317 0.00242365 0.00702181 0.00968277 0.04203244 0.01099147 0.02432089 0.00195043 0.01002299 0.07585230 0.01957182 0.00197794 
0.01770673 0.06157012 0.00466668 0.00309137 0.01108516 0.00239604 0.00708131 0.00967418 0.04234342 0.01086556 0.02402824 0.00193762 0.01024871 0.07640847 0.01980767 0.00202673 
0.01715511 0.06230481 0.00450456 0.00302559 0.01136974 0.00236817 0.00713842 0.00966215 0.04267458 0.01074106 0.02371367 0.00192376 0.01047226 0.07688082 0.02001700 0.00207581 
0.01662371 0.06302981 0.00434640 0.00295930 0.01164588 0.00234013 0.00719309 0.00964671 0.04302465 0.01061836 0.02337840 0.00190893 0.01069279 0.07726511 0.02019843 0.00212509 
0.01611468 0.06374111 0.00419276 0.00289272 0.01191254 0.00231199 0.00724531 0.00962789 0.04339225 0.01049781 0.02302382 0.00189319 0.01090944 0.07755772 0.02035072 0.00217445 
0.01563003 0.06443470 0.00404416 0.00282608 0.01216873 0.00228380 0.00729503 0.00960574 0.04377592 0.01037978 0.02265139 0.00187664 0.01112142 0.07775554 0.02047281 0.00222380 
0.01517161 0.06510657 0.00390109 0.00275961 0.01241343 0.00225564 0.00734223 0.00958030 0.04417417 0.01026467 0.02226271 0.00185935 0.01132799 0.07785611 0.02056383 0.00227304 
0.01474110 0.06575275 0.00376398 0.00269350 0.01264569 0.00222757 0.00738689 0.00955163 0.04458541 0.01015284 0.02185946 0.00184144 0.01152843 0.07785757 0.02062309 0.00232208 
0.01434000 0.06636933 0.00363321 0.00262797 0.01286457 0.00219965 0.00742899 0.00951979 0.04500803 0.01004469 0.02144340 0.00182300 0.01172208 0.07775867 0.02065012 0.00237083 
0.01396966 0.06695246 0.00350913 0.00256319 0.01306918 0.00217193 0.00746851 0.00948486 0.04544037 0.00994058 0.02101638 0.00180416 0.01190833 0.07755882 0.02064460 0.00241923 
0.01363121 0.06749840 0.00339203 0.00249936 0.01325867 0.00214448 0.00750542 0.00944691 0.04588074 0.00984092 0.02058032 0.00178502 0.01208661 0.07725804 0.02060645 0.00246720 
0.01332561 0.06800356 0.00328216 0.00243665 0.01343221 0.00211735 0.00753972 0.00940601 0.04632743 0.00974608 0.02013717 0.00176573 0.01225642 0.07685700 0.02053575 0.00251466 
0.01305361 0.06846446 0.00317971 0.00237522 0.01358906 0.00209057 0.00757140 0.00936227 0.04677872 0.00965646 0.01968894 0.00174640 0.01241731 0.07635698 0.02043278 0.00256156 
0.01281578 0.06887782 0.00308483 0.00231521 0.01372851 0.00206421 0.00760043 0.00931576 0.04723288 0.00957243 0.01923765 0.00172717 0.01256885 0.07575990 0.02029803 0.00260784 
0.01261247 0.06924052 0.00299762 0.00225677 0.01384992 0.00203830 0.00762681 0.00926659 0.04768821 0.00949439 0.01878537 0.00170818 0.01271071 0.07506828 0.02013216 0.00265345 
0.01244387 0.06954966 0.00291814 0.00220003 0.01395272 0.00201288 0.00765053 0.00921485 0.04814302 0.00942271 0.01833413 0.00168957 0.01284259 0.07428520 0.01993601 0.00269833 
0.01230992 0.06980258 0.00284638 0.00214509 0.01403639 0.00198798 0.00767157 0.00916066 0.04859565 0.00935777 0.01788600 0.00167147 0.01296424 0.07341433 0.01971060 0.00274243 
0.01221040 0.06999683 0.00278231 0.00209206 0.01410050 0.00196365 0.00768992 0.00910413 0.04904448 0.00929995 0.01744301 0.00165404 0.01307547 0.07245987 0.01945712 0.00278571 
0.01214490 0.07013023 0.00272586 0.00204104 0.01414467 0.00193992 0.00770558 0.00904538 0.04948794 0.00924960 0.01700716 0.00163742 0.01317613 0.07142652 0.01917691 0.00282813 
0.01211281 0.07020086 0.00267690 0.00199211 0.01416863 0.00191680 0.00771854 0.00898452 0.04992452 0.00920708 0.01658041 0.00162174 0.01326615 0.07031947 0.01887148 0.00286964 
0.01211335 0.07020708 0.00263527 0.00194533 0.01417216 0.00189433 0.00772879 0.00892169 0.05035279 0.00917273 0.01616468 0.00160716 0.01334547 0.06914433 0.01854245 0.00291020 
0.01214555 0.07014755 0.00260077 0.00190077 0.01415514 0.00187253 0.00773632 0.00885701 0.05077138 0.00914689 0.01576182 0.00159379 0.01341410 0.06790712 0.01819160 0.00294977 
0.01220829 0.07002120 0.00257318 0.00185847 0.01411750 0.00185141 0.00774114 0.00879061 0.05117902 0.00912988 0.01537361 0.00158179 0.01347209 0.06661422 0.01782081 0.00298831 
0.01230029 0.06982728 0.00255223 0.00181847 0.01405928 0.00183099 0.00774325 0.00872264 0.05157453 0.00912198 0.01500176 0.00157129 0.01351955 0.06527233 0.01743208 0.00302578 
0.01242012 0.06956534 0.00253764 0.00178081 0.01398061 0.00181129 0.00774265 0.00865324 0.05195683 0.00912349 0.01464789 0.00156239 0.01355659 0.06388839 0.01702748 0.00306214 
0.01256623 0.06923523 0.00252910 0.00174549 0.01388167 0.00179231 0.00773936 0.00858255 0.05232495 0.00913465 0.01431351 0.00155524 0.01358341 0.06246961 0.01660920 0.00309735 
0.01273691 0.06883711 0.00252627 0.00171253 0.01376275 0.00177407 0.00773337 0.00851072 0.05267802 0.00915572 0.01400004 0.00154993 0.01360021 0.06102333 0.01617945 0.00313135 
0.01293037 0.06837144 0.00252881 0.00168194 0.01362421 0.00175657 0.00772473 0.00843790 0.05301531 0.00918689 0.01370879 0.00154658 0.01360723 0.05955704 0.01574052 0.00316411 
0.01314472 0.06783899 0.00253634 0.00165371 0.01346648 0.00173981 0.00771344 0.00836426 0.05333619 0.00922834 0.01344094 0.00154527 0.01360477 0.05807829 0.01529473 0.00319558 
0.01337796 0.06724083 0.00254849 0.00162784 0.01329010 0.00172380 0.00769955 0.00828996 0.05364017 0.00928024 0.01319758 0.00154610 0.01359312 0.05659465 0.01484444 0.00322569 
0.01362804 0.06657830 0.00256488 0.00160430 0.01309564 0.00170854 0.00768311 0.00821516 0.05392688 0.00934270 0.01297964 0.00154915 0.01357263 0.05511369 0.01439200 0.00325441 
0.01389284 0.06585305 0.00258512 0.00158307 0.01288378 0.00169402 0.00766415 0.00814002 0.05419608 0.00941579 0.01278795 0.00155447 0.01354365 0.05364288 0.01393975 0.00328166 
0.01417021 0.06506697 0.00260881 0.00156414 0.01265525 0.00168024 0.00764275 0.00806472 0.05444767 0.00949957 0.01262318 0.00156213 0.01350656 0.05218957 0.01349005 0.00330740 
0.01445796 0.06422223 0.00263556 0.00154746 0.01241086 0.00166720 0.00761899 0.00798943 0.05468165 0.00959405 0.01248590 0.00157217 0.01346176 0.05076095 0.01304517 0.00333156 
0.01475390 0.06332124 0.00266500 0.00153301 0.01215146 0.00165489 0.00759293 0.00791434 0.05489818 0.00969919 0.01237651 0.00158462 0.01340967 0.04936396 0.01260740 0.00335408 
0.01505581 0.06236664 0.00269675 0.00152074 0.01187798 0.00164330 0.00756469 0.00783961 0.05509753 0.00981490 0.01229532 0.00159950 0.01335072 0.04800532 0.01217891 0.00337488 
0.01536151 0.06136130 0.00273044 0.00151064 0.01159140 0.00163243 0.00753438 0.00776544 0.05528009 0.00994108 0.01224245 0.00161681 0.01328536 0.04669141 0.01176184 0.00339391 
0.01566886 0.06030828 0.00276571 0.00150264 0.01129273 0.00162227 0.00750211 0.00769200 0.05544639 0.01007756 0.01221795 0.00163654 0.01321403 0.04542829 0.01135823 0.00341108 
0.01597574 0.05921084 0.00280222 0.00149672 0.01098304 0.00161279 0.00746804 0.00761949 0.05559704 0.01022411 0.01222168 0.00165868 0.01313718 0.04422163 0.01097003 0.00342632 
0.01628010 0.05807237 0.00283967 0.00149283 0.01066345 0.00160400 0.00743232 0.00754808 0.05573279 0.01038049 0.01225341 0.00168318 0.01305529 0.04307667 0.01059908 0.00343957 
0.01657995 0.05689645 0.00287774 0.00149093 0.01033509 0.00159589 0.00739511 0.00747797 0.05585448 0.01054636 0.01231277 0.00171001 0.01296882 0.04199824 0.01024710 0.00345074 
0.01687339 0.05568677 0.00291615 0.00149098 0.00999912 0.00158843 0.00735661 0.00740934 0.05596305 0.01072139 0.01239929 0.00173909 0.01287823 0.04099065 0.00991572 0.00345976 
0.01715863 0.05444712 0.00295466 0.00149295 0.00965675 0.00158162 0.00731701 0.00734238 0.05605953 0.01090515 0.01251234 0.00177035 0.01278398 0.04005775 0.00960638 0.00346657 
0.01743395 0.05318141 0.00299301 0.00149679 0.00930916 0.00157545 0.00727654 0.00727728 0.05614504 0.01109718 0.01265124 0.00180369 0.01268653 0.03920286 0.00932043 0.00347108 
0.01769779 0.05189358 0.00303101 0.00150246 0.00895758 0.00156989 0.00723542 0.00721422 0.05622075 0.01129699 0.01281515 0.00183902 0.01258634 0.03842875 0.00905905 0.00347322 
0.01794868 0.05058766 0.00306847 0.00150994 0.00860322 0.00156495 0.00719391 0.00715338 0.05628791 0.01150400 0.01300316 0.00187622 0.01248386 0.03773767 0.00882327 0.00347294 
0.01818530 0.04926767 0.00310523 0.00151918 0.00824731 0.00156060 0.00715225 0.00709493 0.05634783 0.01171763 0.01321428 0.00191516 0.01237952 0.03713128 0.00861397 0.00347017 
0.01840648 0.04793769 0.00314117 0.00153015 0.00789105 0.00155683 0.00711073 0.00703906 0.05640186 0.01193721 0.01344740 0.00195569 0.01227376 0.03661072 0.00843187 0.00346484 
0.01861119 0.04660174 0.00317617 0.00154283 0.00753566 0.00155363 0.00706963 0.00698592 0.05645140 0.01216205 0.01370136 0.00199766 0.01216699 0.03617652 0.00827751 0.00345691 
0.01879854 0.04526385 0.00321016 0.00155718 0.00718229 0.00155099 0.00702924 0.00693568 0.05649784 0.01239142 0.01397493 0.00204091 0.01205962 0.03582869 0.00815130 0.00344633 
0.01896783 0.04392799 0.00324309 0.00157318 0.00683213 0.00154889 0.00698988 0.00688848 0.05654263 0.01262454 0.01426681 0.00208527 0.01195205 0.03556666 0.00805345 0.00343306 
0.01911850 0.04259808 0.00327493 0.00159079 0.00648629 0.00154732 0.00695185 0.00684448 0.05658720 0.01286061 0.01457565 0.00213055 0.01184466 0.03538934 0.00798403 0.00341707 
0.01925015 0.04127793 0.00330567 0.00161000 0.00614587 0.00154626 0.00691548 0.00680381 0.05663299 0.01309876 0.01490006 0.00217655 0.01173781 0.03529509 0.00794295 0.00339834 
0.01936257 0.03997130 0.00333534 0.00163078 0.00581193 0.00154571 0.00688109 0.00676659 0.05668140 0.01333812 0.01523862 0.00222309 0.01163186 0.03528178 0.00792994 0.00337687 
0.01945569 0.03868181 0.00336397 0.00165311 0.00548548 0.00154566 0.00684900 0.00673294 0.05673384 0.01357780 0.01558985 0.00226995 0.01152714 0.03534678 0.00794459 0.00335264 
0.01952962 0.03741296 0.00339163 0.00167695 0.00516750 0.00154609 0.00681956 0.00670295 0.05679165 0.01381684 0.01595230 0.00231693 0.01142398 0.03548698 0.00798634 0.00332568 
0.01958461 0.03616813 0.00341839 0.00170230 0.00485889 0.00154698 0.00679308 0.00667671 0.05685617 0.01405432 0.01632447 0.00236380 0.01132268 0.03569886 0.00805448 0.00329600 
0.01962109 0.03495053 0.00344435 0.00172913 0.00456052 0.00154833 0.00676989 0.00665429 0.05692864 0.01428926 0.01670487 0.00241035 0.01122353 0.03597848 0.00814815 0.00326365 
0.01963962 0.03376323 0.00346962 0.00175741 0.00427319 0.00155013 0.00675031 0.00663575 0.05701027 0.01452069 0.01709202 0.00245636 0.01112680 0.03632151 0.00826638 0.00322867 
0.01964093 0.03260912 0.00349433 0.00178712 0.00399765 0.00155236 0.00673463 0.00662111 0.05710217 0.01474762 0.01748444 0.00250160 0.01103275 0.03672332 0.00840804 0.00319115 
0.01962588 0.03149092 0.00351861 0.00181823 0.00373457 0.00155501 0.00672318 0.00661041 0.05720538 0.01496908 0.01788068 0.00254586 0.01094161 0.03717893 0.00857192 0.00315114 
0.01959544 0.03041116 0.00354261 0.00185072 0.00348458 0.00155807 0.00671621 0.00660364 0.05732087 0.01518408 0.01827932 0.00258892 0.01085360 0.03768313 0.00875668 0.00310876 
0.01955073 0.02937219 0.00356646 0.00188455 0.00324820 0.00156153 0.00671401 0.00660079 0.05744949 0.01539165 0.01867895 0.00263055 0.01076894 0.03823047 0.00896089 0.00306411 
0.01949298 0.02837615 0.00359034 0.00191968 0.00302593 0.00156538 0.00671683 0.00660182 0.05759198 0.01559082 0.01907822 0.00267055 0.01068780 0.03881532 0.00918302 0.00301733 
0.01942351 0.02742499 0.00361439 0.00195609 0.00281816 0.00156959 0.00672489 0.00660666 0.05774898 0.01578067 0.01947581 0.00270870 0.01061036 0.03943190 0.00942147 0.00296856 
0.01934373 0.02652048 0.00363878 0.00199372 0.00262523 0.00157417 0.00673841 0.00661525 0.05792102 0.01596028 0.01987047 0.00274482 0.01053677 0.04007436 0.00967457 0.00291796 
0.01925515 0.02566414 0.00366365 0.00203254 0.00244740 0.00157909 0.00675756 0.00662747 0.05810848 0.01612875 0.02026098 0.00277869 0.01046718 0.04073677 0.00994059 0.00286570 
0.01915932 0.02485733 0.00368915 0.00207250 0.00228486 0.00158434 0.00678250 0.00664322 0.05831164 0.01628522 0.02064618 0.00281015 0.01040170 0.04141320 0.01021776 0.00281198 
0.01905787 0.02410118 0.00371544 0.00211353 0.00213773 0.00158991 0.00681335 0.00666234 0.05853062 0.01642889 0.02102500 0.00283902 0.01034044 0.04209775 0.01050428 0.00275701 
0.01895246 0.02339664 0.00374264 0.00215559 0.00200605 0.00159578 0.00685022 0.00668467 0.05876541 0.01655898 0.02139639 0.00286513 0.01028350 0.04278458 0.01079831 0.00270100 
0.01884477 0.02274445 0.00377088 0.00219860 0.00188981 0.00160194 0.00689316 0.00671004 0.05901588 0.01667476 0.02175939 0.00288833 0.01023094 0.04346800 0.01109801 0.00264419 
0.01873650 0.02214515 0.00380027 0.00224249 0.00178891 0.00160836 0.00694220 0.00673822 0.05928173 0.01677555 0.02211312 0.00290849 0.01018282 0.04414245 0.01140154 0.00258683 
0.01862936 0.02159909 0.00383092 0.00228719 0.00170319 0.00161504 0.00699734 0.00676901 0.05956252 0.01686073 0.02245676 0.00292548 0.01013920 0.04480255 0.01170708 0.00252919 
0.01852504 0.02110644 0.00386292 0.00233262 0.00163242 0.00162194 0.00705853 0.00680215 0.05985767 0.01692974 0.02278954 0.00293920 0.01010009 0.04544320 0.01201282 0.00247152 
0.01842520 0.02066719 0.00389632 0.00237869 0.00157633 0.00162906 0.00712570 0.00683738 0.06016645 0.01698208 0.02311079 0.00294954 0.01006552 0.04605951 0.01231698 0.00241412 
0.01833146 0.02028115 0.00393118 0.00242530 0.00153456 0.00163638 0.00719873 0.00687442 0.06048799 0.01701732 0.02341990 0.00295644 0.01003549 0.04664694 0.01261784 0.00235728 
0.01824541 0.01994796 0.00396754 0.00247235 0.00150670 0.00164386 0.00727747 0.00691299 0.06082126 0.01703509 0.02371633 0.00295983 0.01000997 0.04720124 0.01291372 0.00230129 
0.01816854 0.01966710 0.00400542 0.00251974 0.00149229 0.00165150 0.00736172 0.00695275 0.06116511 0.01703510 0.02399961 0.00295967 0.00998895 0.04771855 0.01320302 0.00224646 
0.01810229 0.01943789 0.00404481 0.00256736 0.00149082 0.00165926 0.00745127 0.00699341 0.06151823 0.01701713 0.02426935 0.00295594 0.00997238 0.04819537 0.01348419 0.00219310 
0.01804801 0.01925953 0.00408568 0.00261508 0.00150173 0.00166713 0.00754585 0.00703461 0.06187920 0.01698103 0.02452520 0.00294863 0.00996021 0.04862864 0.01375579 0.00214151 
0.01800693 0.01913104 0.00412801 0.00266279 0.00152442 0.00167508 0.00764515 0.00707601 0.06224644 0.01692673 0.02476692 0.00293774 0.00995236 0.04901569 0.01401645 0.00209201 
0.01798020 0.01905134 0.00417171 0.00271037 0.00155823 0.00168309 0.00774885 0.00711727 0.06261827 0.01685424 0.02499428 0.00292332 0.00994877 0.04935432 0.01426491 0.00204492 
0.01796883 0.01901924 0.00421673 0.00275767 0.00160248 0.00169113 0.00785658 0.00715803 0.06299289 0.01676364 0.02520715 0.00290540 0.00994932 0.04964278 0.01450001 0.00200054 
0.01797372 0.01903340 0.00426294 0.00280457 0.00165645 0.00169918 0.00796795 0.00719793 0.06336839 0.01665509 0.02540545 0.00288405 0.00995392 0.04987978 0.01472071 0.00195917 
0.01799562 0.01909240 0.00431024 0.00285092 0.00171941 0.00170721 0.00808253 0.00723660 0.06374276 0.01652885 0.02558915 0.00285936 0.00996245 0.05006452 0.01492606 0.00192112 
0.01803516 0.01919473 0.00435849 0.00289660 0.00179057 0.00171520 0.00819986 0.00727369 0.06411389 0.01638521 0.02575827 0.00283141 0.00997479 0.05019667 0.01511528 0.00188667 
0.01809281 0.01933879 0.00440753 0.00294145 0.00186915 0.00172313 0.00831947 0.00730883 0.06447961 0.01622458 0.02591289 0.00280035 0.00999078 0.05027639 0.01528766 0.00185612 
0.01816890 0.01952290 0.00445720 0.00298534 0.00195434 0.00173096 0.00844087 0.00734169 0.06483767 0.01604742 0.02605314 0.00276628 0.01001029 0.05030430 0.01544267 0.00182971 
0.01826361 0.01974531 0.00450732 0.00302812 0.00204533 0.00173867 0.00856352 0.00737192 0.06518577 0.01585426 0.02617918 0.00272937 0.01003314 0.05028150 0.01557987 0.00180772 
0.01837697 0.02000421 0.00455770 0.00306966 0.00214129 0.00174625 0.00868691 0.00739918 0.06552155 0.01564572 0.02629122 0.00268978 0.01005919 0.05020955 0.01569898 0.00179037 
0.01850884 0.02029776 0.00460812 0.00310980 0.00224139 0.00175367 0.00881048 0.00742317 0.06584264 0.01542247 0.02638951 0.00264769 0.01008824 0.05009047 0.01579985 0.00177790 
0.01865894 0.02062404 0.00465837 0.00314841 0.00234481 0.00176090 0.00893368 0.00744359 0.06614666 0.01518524 0.02647433 0.00260329 0.01012011 0.04992670 0.01588244 0.00177050 
0.01882684 0.02098114 0.00470823 0.00318536 0.00245073 0.00176793 0.00905595 0.00746015 0.06643120 0.01493484 0.02654602 0.00255679 0.01015461 0.04972110 0.01594688 0.00176836 
0.01901196 0.02136708 0.00475748 0.00322052 0.00255833 0.00177475 0.00917671 0.00747259 0.06669389 0.01467212 0.02660491 0.00250840 0.01019155 0.04947693 0.01599341 0.00177163 
0.01921358 0.02177990 0.00480588 0.00325375 0.00266682 0.00178132 0.00929541 0.00748069 0.06693240 0.01439799 0.02665139 0.00245834 0.01023072 0.04919781 0.01602238 0.00178046 
0.01943082 0.02221760 0.00485320 0.00328493 0.00277542 0.00178765 0.00941149 0.00748423 0.06714440 0.01411340 0.02668586 0.00240685 0.01027192 0.04888772 0.01603431 0.00179496 
0.01966269 0.02267818 0.00489920 0.00331396 0.00288338 0.00179372 0.00952439 0.00748303 0.06732767 0.01381937 0.02670877 0.00235418 0.01031493 0.04855094 0.01602979 0.00181520 
0.01990809 0.02315967 0.00494366 0.00334072 0.00298997 0.00179952 0.00963358 0.00747694 0.06748006 0.01351692 0.02672056 0.00230056 0.01035955 0.04819205 0.01600957 0.00184126 
0.02016575 0.02366007 0.00498635 0.00336511 0.00309447 0.00180504 0.00973852 0.00746584 0.06759948 0.01320714 0.02672172 0.00224626 0.01040555 0.04781588 0.01597448 0.00187316 
0.02043436 0.02417741 0.00502706 0.00338705 0.00319623 0.00181028 0.00983872 0.00744965 0.06768401 0.01289113 0.02671274 0.00219154 0.01045274 0.04742747 0.01592548 0.00191090 
0.02071245 0.02470977 0.00506556 0.00340646 0.00329460 0.00181524 0.00993368 0.00742831 0.06773180 0.01257002 0.02669415 0.00213664 0.01050089 0.04703206 0.01586359 0.00195447 
0.02099852 0.02525521 0.00510167 0.00342326 0.00338898 0.00181992 0.01002294 0.00740182 0.06774117 0.01224496 0.02666648 0.00208184 0.01054979 0.04663502 0.01578995 0.00200379 
0.02129095 0.02581186 0.00513519 0.00343739 0.00347883 0.00182433 0.01010608 0.00737020 0.06771061 0.01191711 0.02663029 0.00202739 0.01059925 0.04624184 0.01570577 0.00205879 
0.02158809 0.02637787 0.00516595 0.00344882 0.00356362 0.00182848 0.01018268 0.00733351 0.06763876 0.01158764 0.02658615 0.00197354 0.01064906 0.04585807 0.01561234 0.00211935 
0.02188823 0.02695144 0.00519380 0.00345750 0.00364289 0.00183238 0.01025238 0.00729185 0.06752444 0.01125773 0.02653465 0.00192056 0.01069902 0.04548931 0.01551100 0.00218532 
0.02218962 0.02753081 0.00521859 0.00346341 0.00371621 0.00183605 0.01031484 0.00724536 0.06736670 0.01092855 0.02647640 0.00186869 0.01074894 0.04514114 0.01540316 0.00225653 
0.02249049 0.02811428 0.00524021 0.00346655 0.00378321 0.00183951 0.01036976 0.00719422 0.06716477 0.01060126 0.02641202 0.00181818 0.01079865 0.04481908 0.01529027 0.00233278 
0.02278907 0.02870021 0.00525855 0.00346692 0.00384356 0.00184279 0.01041689 0.00713866 0.06691811 0.01027702 0.02634214 0.00176926 0.01084797 0.04452859 0.01517381 0.00241383 
0.02308358 0.02928702 0.00527354 0.00346453 0.00389699 0.00184591 0.01045600 0.00707893 0.06662641 0.00995695 0.02626741 0.00172215 0.01089675 0.04427498 0.01505528 0.00249943 
0.02337229 0.02987317 0.00528511 0.00345942 0.00394328 0.00184890 0.01048693 0.00701532 0.06628960 0.00964217 0.02618850 0.00167709 0.01094483 0.04406341 0.01493621 0.00258929 
0.02365347 0.03045723 0.00529325 0.00345163 0.00398225 0.00185180 0.01050953 0.00694816 0.06590786 0.00933375 0.02610609 0.00163426 0.01099207 0.04389884 0.01481812 0.00268310 
0.02392545 0.03103780 0.00529792 0.00344123 0.00401379 0.00185465 0.01052371 0.00687783 0.06548160 0.00903275 0.02602087 0.00159388 0.01103836 0.04378598 0.01470253 0.00278052 
0.02418664 0.03161358 0.00529916 0.00342828 0.00403782 0.00185750 0.01052944 0.00680472 0.06501150 0.00874016 0.02593353 0.00155611 0.01108358 0.04372928 0.01459094 0.00288121 
0.02443549 0.03218333 0.00529700 0.00341287 0.00405433 0.00186038 0.01052671 0.00672927 0.06449849 0.00845696 0.02584481 0.00152113 0.01112764 0.04373289 0.01448482 0.00298478 
0.02467056 0.03274589 0.00529151 0.00339509 0.00406337 0.00186334 0.01051556 0.00665193 0.06394376 0.00818406 0.02575542 0.00148908 0.01117047 0.04380063 0.01438562 0.00309084 
0.02489050 0.03330019 0.00528276 0.00337507 0.00406500 0.00186644 0.01049608 0.00657320 0.06334875 0.00792233 0.02566610 0.00146011 0.01121199 0.04393593 0.01429472 0.00319898 
0.02509408 0.03384522 0.00527088 0.00335291 0.00405936 0.00186973 0.01046839 0.00649359 0.06271514 0.00767259 0.02557759 0.00143433 0.01125218 0.04414185 0.01421346 0.00330877 
0.02528016 0.03438009 0.00525600 0.00332877 0.00404665 0.00187326 0.01043267 0.00641363 0.06204487 0.00743560 0.02549065 0.00141185 0.01129099 0.04442104 0.01414310 0.00341979 
0.02544777 0.03490395 0.00523827 0.00330277 0.00402707 0.00187709 0.01038912 0.00633387 0.06134011 0.00721203 0.02540604 0.00139276 0.01132842 0.04477571 0.01408483 0.00353157 
0.02559605 0.03541606 0.00521787 0.00327507 0.00400090 0.00188127 0.01033799 0.00625489 0.06060328 0.00700253 0.02532450 0.00137711 0.01136448 0.04520762 0.01403976 0.00364367 
0.02572429 0.03591576 0.00519500 0.00324584 0.00396845 0.00188587 0.01027956 0.00617725 0.05983699 0.00680766 0.02524681 0.00136497 0.01139921 0.04571803 0.01400891 0.00375563 
0.02583193 0.03640247 0.00516988 0.00321525 0.00393008 0.00189095 0.01021414 0.00610156 0.05904408 0.00662791 0.02517372 0.00135635 0.01143264 0.04630776 0.01399321 0.00386698 
0.02591856 0.03687569 0.00514274 0.00318348 0.00388616 0.00189656 0.01014210 0.00602839 0.05822757 0.00646370 0.02510598 0.00135129 0.01146483 0.04697710 0.01399347 0.00397726 
0.02598394 0.03733502 0.00511383 0.00315071 0.00383712 0.00190277 0.01006379 0.00595833 0.05739068 0.00631538 0.02504434 0.00134977 0.01149588 0.04772587 0.01401038 0.00408602 
0.02602800 0.03778013 0.00508342 0.00311713 0.00378341 0.00190962 0.00997963 0.00589199 0.05653677 0.00618323 0.02498953 0.00135176 0.01152589 0.04855336 0.01404455 0.00419279 
0.02605079 0.03821078 0.00505177 0.00308293 0.00372551 0.00191717 0.00989004 0.00582992 0.05566937 0.00606745 0.02494226 0.00135724 0.01155495 0.04945836 0.01409644 0.00429714 
0.02605258 0.03862679 0.00501918 0.00304832 0.00366393 0.00192549 0.00979546 0.00577270 0.05479212 0.00596817 0.02490324 0.00136613 0.01158322 0.05043917 0.01416639 0.00439862 
0.02603376 0.03902809 0.00498593 0.00301349 0.00359918 0.00193462 0.00969636 0.00572088 0.05390878 0.00588543 0.02487314 0.00137838 0.01161084 0.05149357 0.01425463 0.00449681 
0.02599489 0.03941466 0.00495233 0.00297863 0.00353182 0.00194460 0.00959322 0.00567499 0.05302319 0.00581921 0.02485261 0.00139387 0.01163797 0.05261885 0.01436124 0.00459131 
0.02593668 0.03978655 0.00491866 0.00294395 0.00346241 0.00195549 0.00948652 0.00563554 0.05213926 0.00576941 0.02484226 0.00141252 0.01166479 0.05381185 0.01448617 0.00468172 
0.02586000 0.04014392 0.00488524 0.00290965 0.00339151 0.00196733 0.00937675 0.00560300 0.05126095 0.00573585 0.02484267 0.00143419 0.01169148 0.05506892 0.01462926 0.00476766 
0.02576584 0.04048694 0.00485235 0.00287591 0.00331972 0.00198015 0.00926442 0.00557782 0.05039223 0.00571828 0.02485437 0.00145876 0.01171825 0.05638597 0.01479021 0.00484880 
0.02565536 0.04081589 0.00482030 0.00284293 0.00324761 0.00199398 0.00915002 0.00556041 0.04953709 0.00571639 0.02487784 0.00148606 0.01174530 0.05775848 0.01496857 0.00492480 
0.02552980 0.04113110 0.00478936 0.00281088 0.00317576 0.00200886 0.00903405 0.00555115 0.04869946 0.00572977 0.02491352 0.00151595 0.01177285 0.05918153 0.01516378 0.00499536 
0.02539056 0.04143294 0.00475983 0.00277995 0.00310478 0.00202480 0.00891701 0.00555036 0.04788326 0.00575798 0.02496179 0.00154824 0.01180111 0.06064982 0.01537515 0.00506020 
