0.00938184 0.07583990 0.00768011 0.00578163 0.00095466 0.00225692 0.00531779 0.00278186 0.00934926 0.00121352 0.00151486 0.03609773 0.00649884 0.00297409 0.01032115 0.00135291 
0.00960018 0.07581917 0.00806194 0.00573260 0.00098689 0.00225178 0.00535810 0.00278755 0.00910501 0.00124733 0.00154295 0.03636659 0.00650854 0.00287885 0.01022124 0.00135460 
0.00984295 0.07570482 0.00844706 0.00567922 0.00102229 0.00224633 0.00539835 0.00279789 0.00887159 0.00128259 0.00157075 0.03668338 0.00652232 0.00279156 0.01011688 0.00135624 
0.01010846 0.07549958 0.00883471 0.00562180 0.00106071 0.00224066 0.00543864 0.00281293 0.00865057 0.00131918 0.00159815 0.03704938 0.00654081 0.00271255 0.01000831 0.00135781 
0.01039496 0.07520665 0.00922417 0.00556064 0.00110200 0.00223484 0.00547902 0.00283271 0.00844350 0.00135695 0.00162508 0.03746565 0.00656464 0.00264212 0.00989575 0.00135932 
0.01070064 0.07482976 0.00961470 0.00549607 0.00114599 0.00222898 0.00551956 0.00285723 0.00825189 0.00139578 0.00165143 0.03793306 0.00659443 0.00258052 0.00977945 0.00136075 
0.01102361 0.07437313 0.01000562 0.00542841 0.00119250 0.00222315 0.00556032 0.00288644 0.00807718 0.00143553 0.00167713 0.03845222 0.00663083 0.00252793 0.00965966 0.00136211 
0.01136194 0.07384140 0.01039623 0.00535800 0.00124132 0.00221745 0.00560135 0.00292029 0.00792078 0.00147605 0.00170208 0.03902350 0.00667445 0.00248452 0.00953668 0.00136338 
0.01171366 0.07323963 0.01078590 0.00528517 0.00129226 0.00221198 0.00564271 0.00295869 0.00778402 0.00151720 0.00172620 0.03964700 0.00672589 0.00245037 0.00941079 0.00136456 
0.01207678 0.07257324 0.01117397 0.00521025 0.00134508 0.00220681 0.00568442 0.00300151 0.00766816 0.00155883 0.00174942 0.04032255 0.00678574 0.00242555 0.00928231 0.00136564 
0.01244928 0.07184800 0.01155982 0.00513358 0.00139956 0.00220205 0.00572654 0.00304861 0.00757438 0.00160077 0.00177165 0.04104968 0.00685452 0.00241004 0.00915155 0.00136662 
0.01282916 0.07106995 0.01194284 0.00505548 0.00145547 0.00219779 0.00576906 0.00309982 0.00750380 0.00164288 0.00179282 0.04182764 0.00693276 0.00240381 0.00901887 0.00136749 
0.01321441 0.07024538 0.01232244 0.00497627 0.00151255 0.00219412 0.00581201 0.00315492 0.00745743 0.00168499 0.00181287 0.04265536 0.00702091 0.00240675 0.00888461 0.00136825 
0.01360306 0.06938078 0.01269804 0.00489626 0.00157056 0.00219112 0.00585539 0.00321370 0.00743617 0.00172696 0.00183172 0.04353148 0.00711940 0.00241872 0.00874913 0.00136890 
0.01399314 0.06848281 0.01306906 0.00481577 0.00162924 0.00218888 0.00589918 0.00327591 0.00744084 0.00176862 0.00184933 0.04445428 0.00722858 0.00243952 0.00861280 0.00136942 
0.01438275 0.06755820 0.01343494 0.00473508 0.00168833 0.00218749 0.00594336 0.00334128 0.00747214 0.00180982 0.00186563 0.04542175 0.00734875 0.00246893 0.00847603 0.00136983 
0.01477004 0.06661379 0.01379514 0.00465448 0.00174756 0.00218701 0.00598789 0.00340951 0.00753067 0.00185040 0.00188059 0.04643155 0.00748016 0.00250666 0.00833919 0.00137011 
0.01515321 0.06565638 0.01414912 0.00457424 0.00180667 0.00218752 0.00603272 0.00348030 0.00761692 0.00189021 0.00189414 0.04748101 0.00762295 0.00255239 0.00820270 0.00137026 
0.01553054 0.06469278 0.01449635 0.00449462 0.00186539 0.00218909 0.00607780 0.00355334 0.00773122 0.00192911 0.00190627 0.04856714 0.00777724 0.00260575 0.00806696 0.00137029 
0.01590041 0.06372969 0.01483631 0.00441586 0.00192347 0.00219179 0.00612303 0.00362828 0.00787383 0.00196695 0.00191694 0.04968664 0.00794302 0.00266636 0.00793238 0.00137018 
0.01626128 0.06277370 0.01516849 0.00433817 0.00198063 0.00219565 0.00616835 0.00370478 0.00804485 0.00200360 0.00192613 0.05083590 0.00812025 0.00273378 0.00779938 0.00136995 
0.01661170 0.06183121 0.01549237 0.00426178 0.00203664 0.00220074 0.00621364 0.00378249 0.00824426 0.00203891 0.00193382 0.05201100 0.00830877 0.00280754 0.00766838 0.00136959 
0.01695035 0.06090844 0.01580748 0.00418687 0.00209122 0.00220709 0.00625879 0.00386105 0.00847192 0.00207277 0.00194000 0.05320774 0.00850835 0.00288716 0.00753980 0.00136910 
0.01727603 0.06001132 0.01611333 0.00411362 0.00214415 0.00221474 0.00630369 0.00394010 0.00872754 0.00210506 0.00194467 0.05442163 0.00871869 0.00297213 0.00741405 0.00136848 
0.01758765 0.05914549 0.01640944 0.00404218 0.00219518 0.00222371 0.00634819 0.00401927 0.00901072 0.00213566 0.00194783 0.05564794 0.00893938 0.00306189 0.00729154 0.00136773 
0.01788425 0.05831629 0.01669536 0.00397270 0.00224408 0.00223401 0.00639214 0.00409822 0.00932092 0.00216447 0.00194950 0.05688169 0.00916994 0.00315589 0.00717269 0.00136687 
0.01816502 0.05752867 0.01697062 0.00390531 0.00229065 0.00224565 0.00643540 0.00417657 0.00965748 0.00219139 0.00194969 0.05811769 0.00940980 0.00325357 0.00705790 0.00136588 
0.01842929 0.05678718 0.01723480 0.00384010 0.00233466 0.00225862 0.00647780 0.00425399 0.01001959 0.00221635 0.00194843 0.05935053 0.00965832 0.00335433 0.00694755 0.00136477 
0.01867652 0.05609596 0.01748747 0.00377717 0.00237594 0.00227292 0.00651917 0.00433014 0.01040634 0.00223925 0.00194575 0.06057465 0.00991476 0.00345759 0.00684202 0.00136356 
0.01890633 0.05545870 0.01772822 0.00371659 0.00241431 0.00228852 0.00655932 0.00440468 0.01081669 0.00226005 0.00194170 0.06178433 0.01017832 0.00356274 0.00674169 0.00136223 
0.01911847 0.05487862 0.01795667 0.00365842 0.00244958 0.00230539 0.00659807 0.00447731 0.01124947 0.00227867 0.00193631 0.06297374 0.01044812 0.00366919 0.00664690 0.00136080 
0.01931288 0.05435845 0.01817245 0.00360271 0.00248163 0.00232348 0.00663524 0.00454773 0.01170341 0.00229508 0.00192963 0.06413697 0.01072321 0.00377635 0.00655800 0.00135928 
0.01948961 0.05390041 0.01837520 0.00354948 0.00251032 0.00234274 0.00667063 0.00461565 0.01217711 0.00230924 0.00192173 0.06526804 0.01100257 0.00388361 0.00647529 0.00135766 
0.01964887 0.05350622 0.01856461 0.00349876 0.00253552 0.00236311 0.00670405 0.00468082 0.01266909 0.00232112 0.00191267 0.06636098 0.01128512 0.00399041 0.00639908 0.00135596 
0.01979103 0.05317708 0.01874036 0.00345054 0.00255715 0.00238452 0.00673531 0.00474301 0.01317776 0.00233072 0.00190251 0.06740979 0.01156974 0.00409617 0.00632964 0.00135417 
0.01991660 0.05291367 0.01890219 0.00340483 0.00257512 0.00240689 0.00676420 0.00480199 0.01370143 0.00233803 0.00189133 0.06840855 0.01185525 0.00420034 0.00626722 0.00135232 
0.02002622 0.05271614 0.01904984 0.00336160 0.00258936 0.00243013 0.00679053 0.00485757 0.01423834 0.00234306 0.00187921 0.06935142 0.01214041 0.00430239 0.00621206 0.00135040 
0.02012069 0.05258414 0.01918311 0.00332084 0.00259985 0.00245414 0.00681413 0.00490960 0.01478664 0.00234583 0.00186623 0.07023269 0.01242398 0.00440180 0.00616435 0.00134842 
0.02020091 0.05251680 0.01930180 0.00328251 0.00260654 0.00247881 0.00683480 0.00495792 0.01534441 0.00234638 0.00185247 0.07104679 0.01270466 0.00449810 0.00612428 0.00134640 
0.02026794 0.05251275 0.01940576 0.00324657 0.00260944 0.00250403 0.00685236 0.00500243 0.01590969 0.00234474 0.00183802 0.07178837 0.01298116 0.00459081 0.00609197 0.00134433 
0.02032294 0.05257017 0.01949488 0.00321298 0.00260856 0.00252968 0.00686665 0.00504304 0.01648044 0.00234097 0.00182298 0.07245231 0.01325214 0.00467952 0.00606756 0.00134223 
0.02036718 0.05268676 0.01956908 0.00318169 0.00260392 0.00255563 0.00687750 0.00507970 0.01705458 0.00233512 0.00180743 0.07303375 0.01351628 0.00476382 0.00605112 0.00134010 
0.02040204 0.05285977 0.01962831 0.00315265 0.00259559 0.00258175 0.00688476 0.00511237 0.01763003 0.00232727 0.00179147 0.07352815 0.01377227 0.00484334 0.00604271 0.00133795 
0.02042900 0.05308607 0.01967257 0.00312581 0.00258363 0.00260791 0.00688830 0.00514106 0.01820465 0.00231750 0.00177520 0.07393131 0.01401877 0.00491777 0.00604234 0.00133579 
0.02044960 0.05336213 0.01970189 0.00310111 0.00256812 0.00263396 0.00688798 0.00516578 0.01877631 0.00230590 0.00175872 0.07423939 0.01425450 0.00498679 0.00605001 0.00133363 
0.02046549 0.05368407 0.01971635 0.00307850 0.00254917 0.00265976 0.00688368 0.00518659 0.01934286 0.00229256 0.00174211 0.07444898 0.01447820 0.00505017 0.00606567 0.00133148 
0.02047835 0.05404769 0.01971607 0.00305793 0.00252689 0.00268516 0.00687532 0.00520357 0.01990217 0.00227759 0.00172548 0.07455711 0.01468862 0.00510769 0.00608923 0.00132934 
0.02048993 0.05444853 0.01970120 0.00303934 0.00250143 0.00271001 0.00686280 0.00521681 0.02045213 0.00226109 0.00170891 0.07456126 0.01488457 0.00515915 0.00612059 0.00132722 
0.02050202 0.05488185 0.01967194 0.00302269 0.00247293 0.00273417 0.00684605 0.00522645 0.02099065 0.00224319 0.00169251 0.07445941 0.01506492 0.00520444 0.00615959 0.00132512 
0.02051642 0.05534273 0.01962851 0.00300793 0.00244155 0.00275749 0.00682503 0.00523263 0.02151569 0.00222401 0.00167636 0.07425007 0.01522857 0.00524344 0.00620606 0.00132307 
0.02053497 0.05582608 0.01957121 0.00299502 0.00240747 0.00277982 0.00679971 0.00523552 0.02202526 0.00220366 0.00166054 0.07393226 0.01537450 0.00527611 0.00625977 0.00132105 
0.02055951 0.05632667 0.01950034 0.00298393 0.00237087 0.00280103 0.00677006 0.00523530 0.02251741 0.00218230 0.00164515 0.07350559 0.01550177 0.00530241 0.00632048 0.00131908 
0.02059186 0.05683923 0.01941625 0.00297461 0.00233196 0.00282096 0.00673609 0.00523218 0.02299030 0.00216003 0.00163026 0.07297022 0.01560949 0.00532237 0.00638791 0.00131716 
0.02063381 0.05735840 0.01931932 0.00296706 0.00229094 0.00283949 0.00669783 0.00522639 0.02344214 0.00213701 0.00161594 0.07232691 0.01569688 0.00533604 0.00646174 0.00131530 
0.02068715 0.05787885 0.01920998 0.00296124 0.00224803 0.00285648 0.00665532 0.00521815 0.02387122 0.00211337 0.00160227 0.07157700 0.01576323 0.00534352 0.00654164 0.00131351 
0.02075359 0.05839531 0.01908869 0.00295714 0.00220344 0.00287181 0.00660862 0.00520770 0.02427597 0.00208925 0.00158931 0.07072243 0.01580794 0.00534493 0.00662722 0.00131178 
0.02083481 0.05890256 0.01895590 0.00295475 0.00215741 0.00288536 0.00655782 0.00519530 0.02465489 0.00206478 0.00157713 0.06976575 0.01583047 0.00534042 0.00671809 0.00131013 
0.02093238 0.05939553 0.01881214 0.00295406 0.00211016 0.00289703 0.00650302 0.00518121 0.02500661 0.00204011 0.00156577 0.06871010 0.01583043 0.00533018 0.00681382 0.00130855 
0.02104783 0.05986931 0.01865794 0.00295508 0.00206193 0.00290672 0.00644434 0.00516568 0.02532989 0.00201536 0.00155528 0.06755922 0.01580750 0.00531444 0.00691396 0.00130706 
0.02118258 0.06031920 0.01849384 0.00295782 0.00201295 0.00291432 0.00638192 0.00514900 0.02562359 0.00199067 0.00154571 0.06631744 0.01576149 0.00529344 0.00701803 0.00130564 
0.02133795 0.06074073 0.01832041 0.00296227 0.00196345 0.00291977 0.00631592 0.00513141 0.02588674 0.00196617 0.00153709 0.06498966 0.01569228 0.00526744 0.00712553 0.00130431 
0.02151513 0.06112972 0.01813825 0.00296846 0.00191366 0.00292300 0.00624653 0.00511318 0.02611849 0.00194199 0.00152945 0.06358132 0.01559990 0.00523674 0.00723595 0.00130306 
0.02171520 0.06148227 0.01794793 0.00297640 0.00186382 0.00292393 0.00617393 0.00509458 0.02631814 0.00191825 0.00152280 0.06209843 0.01548448 0.00520165 0.00734874 0.00130190 
0.02193912 0.06179484 0.01775007 0.00298611 0.00181415 0.00292254 0.00609834 0.00507584 0.02648514 0.00189506 0.00151717 0.06054748 0.01534624 0.00516248 0.00746337 0.00130082 
0.02218770 0.06206423 0.01754527 0.00299761 0.00176487 0.00291878 0.00602000 0.00505720 0.02661909 0.00187253 0.00151255 0.05893548 0.01518554 0.00511959 0.00757926 0.00129983 
0.02246159 0.06228764 0.01733414 0.00301094 0.00171619 0.00291263 0.00593914 0.00503891 0.02671974 0.00185078 0.00150895 0.05726988 0.01500283 0.00507333 0.00769585 0.00129893 
0.02276132 0.06246268 0.01711728 0.00302610 0.00166831 0.00290408 0.00585602 0.00502117 0.02678700 0.00182989 0.00150637 0.05555855 0.01479867 0.00502404 0.00781254 0.00129811 
0.02308723 0.06258737 0.01689529 0.00304313 0.00162144 0.00289314 0.00577092 0.00500418 0.02682093 0.00180996 0.00150478 0.05380977 0.01457372 0.00497211 0.00792875 0.00129737 
0.02343951 0.06266016 0.01666876 0.00306205 0.00157574 0.00287982 0.00568412 0.00498813 0.02682175 0.00179107 0.00150416 0.05203215 0.01432876 0.00491789 0.00804390 0.00129672 
0.02381819 0.06267997 0.01643827 0.00308287 0.00153141 0.00286416 0.00559591 0.00497319 0.02678984 0.00177329 0.00150449 0.05023463 0.01406465 0.00486176 0.00815739 0.00129614 
0.02422313 0.06264616 0.01620438 0.00310561 0.00148860 0.00284620 0.00550661 0.00495949 0.02672571 0.00175670 0.00150574 0.04842639 0.01378235 0.00480408 0.00826863 0.00129564 
0.02465401 0.06255856 0.01596761 0.00313029 0.00144746 0.00282598 0.00541651 0.00494718 0.02663002 0.00174135 0.00150786 0.04661684 0.01348291 0.00474521 0.00837704 0.00129522 
0.02511037 0.06241745 0.01572851 0.00315690 0.00140813 0.00280360 0.00532594 0.00493635 0.02650359 0.00172728 0.00151081 0.04481558 0.01316747 0.00468551 0.00848205 0.00129486 
0.02559154 0.06222359 0.01548755 0.00318545 0.00137073 0.00277911 0.00523522 0.00492708 0.02634736 0.00171455 0.00151454 0.04303231 0.01283725 0.00462531 0.00858309 0.00129457 
0.02609672 0.06197816 0.01524521 0.00321593 0.00133537 0.00275262 0.00514468 0.00491944 0.02616241 0.00170318 0.00151900 0.04127681 0.01249353 0.00456496 0.00867962 0.00129434 
0.02662492 0.06168281 0.01500192 0.00324832 0.00130214 0.00272423 0.00505464 0.00491345 0.02594995 0.00169319 0.00152411 0.03955887 0.01213767 0.00450477 0.00877109 0.00129417 
0.02717500 0.06133961 0.01475811 0.00328260 0.00127113 0.00269406 0.00496544 0.00490914 0.02571128 0.00168460 0.00152983 0.03788826 0.01177110 0.00444504 0.00885701 0.00129405 
0.02774568 0.06095104 0.01451413 0.00331874 0.00124239 0.00266223 0.00487740 0.00490650 0.02544786 0.00167741 0.00153607 0.03627465 0.01139529 0.00438606 0.00893688 0.00129397 
0.02833551 0.06051998 0.01427035 0.00335670 0.00121598 0.00262888 0.00479085 0.00490548 0.02516119 0.00167161 0.00154278 0.03472757 0.01101176 0.00432809 0.00901023 0.00129395 
0.02894291 0.06004971 0.01402707 0.00339640 0.00119192 0.00259415 0.00470611 0.00490603 0.02485290 0.00166721 0.00154988 0.03325637 0.01062208 0.00427139 0.00907662 0.00129396 
0.02956615 0.05954382 0.01378458 0.00343780 0.00117025 0.00255819 0.00462349 0.00490808 0.02452470 0.00166416 0.00155728 0.03187014 0.01022784 0.00421617 0.00913564 0.00129400 
0.03020339 0.05900626 0.01354311 0.00348081 0.00115096 0.00252117 0.00454330 0.00491152 0.02417834 0.00166246 0.00156493 0.03057765 0.00983068 0.00416264 0.00918692 0.00129407 
0.03085267 0.05844126 0.01330289 0.00352533 0.00113405 0.00248325 0.00446583 0.00491623 0.02381567 0.00166205 0.00157274 0.02938736 0.00943224 0.00411099 0.00923012 0.00129417 
0.03151191 0.05785333 0.01306409 0.00357128 0.00111948 0.00244460 0.00439138 0.00492207 0.02343856 0.00166289 0.00158063 0.02830730 0.00903418 0.00406137 0.00926491 0.00129429 
0.03217896 0.05724720 0.01282686 0.00361852 0.00110723 0.00240540 0.00432022 0.00492888 0.02304891 0.00166495 0.00158852 0.02734506 0.00863815 0.00401392 0.00929105 0.00129442 
0.03285155 0.05662783 0.01259134 0.00366693 0.00109725 0.00236583 0.00425260 0.00493648 0.02264868 0.00166815 0.00159635 0.02650772 0.00824582 0.00396875 0.00930829 0.00129456 
0.03352738 0.05600031 0.01235760 0.00371637 0.00108946 0.00232606 0.00418879 0.00494470 0.02223982 0.00167243 0.00160404 0.02580182 0.00785883 0.00392594 0.00931646 0.00129470 
0.03420403 0.05536989 0.01212573 0.00376669 0.00108381 0.00228629 0.00412900 0.00495331 0.02182426 0.00167773 0.00161150 0.02523334 0.00747883 0.00388558 0.00931540 0.00129485 
0.03487910 0.05474191 0.01189577 0.00381772 0.00108021 0.00224670 0.00407345 0.00496211 0.02140397 0.00168397 0.00161869 0.02480762 0.00710740 0.00384770 0.00930502 0.00129500 
0.03555009 0.05412176 0.01166774 0.00386928 0.00107857 0.00220747 0.00402234 0.00497088 0.02098085 0.00169108 0.00162552 0.02452933 0.00674613 0.00381233 0.00928526 0.00129514 
0.03621452 0.05351487 0.01144166 0.00392118 0.00107879 0.00216878 0.00397585 0.00497937 0.02055680 0.00169897 0.00163194 0.02440248 0.00639656 0.00377947 0.00925612 0.00129527 
0.03686989 0.05292664 0.01121753 0.00397323 0.00108075 0.00213082 0.00393412 0.00498736 0.02013366 0.00170756 0.00163789 0.02443032 0.00606018 0.00374911 0.00921763 0.00129538 
0.03751369 0.05236242 0.01099532 0.00402523 0.00108435 0.00209375 0.00389730 0.00499460 0.01971320 0.00171676 0.00164331 0.02461539 0.00573842 0.00372122 0.00916987 0.00129548 
0.03814343 0.05182747 0.01077503 0.00407694 0.00108947 0.00205776 0.00386550 0.00500085 0.01929717 0.00172648 0.00164816 0.02495945 0.00543267 0.00369574 0.00911299 0.00129557 
0.03875666 0.05132693 0.01055663 0.00412816 0.00109598 0.00202300 0.00383881 0.00500586 0.01888719 0.00173664 0.00165238 0.02546347 0.00514426 0.00367262 0.00904716 0.00129563 
0.03935097 0.05086578 0.01034011 0.00417866 0.00110375 0.00198965 0.00381729 0.00500941 0.01848483 0.00174714 0.00165594 0.02612762 0.00487443 0.00365177 0.00897261 0.00129567 
0.03992399 0.05044881 0.01012543 0.00422819 0.00111266 0.00195784 0.00380100 0.00501125 0.01809155 0.00175788 0.00165881 0.02695127 0.00462437 0.00363311 0.00888961 0.00129568 
0.04047343 0.05008058 0.00991261 0.00427653 0.00112257 0.00192773 0.00378995 0.00501115 0.01770874 0.00176878 0.00166097 0.02793299 0.00439517 0.00361654 0.00879847 0.00129567 
0.04099707 0.04976539 0.00970164 0.00432343 0.00113336 0.00189945 0.00378414 0.00500891 0.01733763 0.00177974 0.00166238 0.02907050 0.00418787 0.00360196 0.00869958 0.00129563 
0.04149279 0.04950727 0.00949255 0.00436865 0.00114489 0.00187313 0.00378355 0.00500432 0.01697938 0.00179069 0.00166303 0.03036075 0.00400338 0.00358924 0.00859332 0.00129557 
0.04195855 0.04930992 0.00928537 0.00441197 0.00115703 0.00184889 0.00378812 0.00499718 0.01663502 0.00180152 0.00166292 0.03179988 0.00384255 0.00357828 0.00848016 0.00129547 
0.04239243 0.04917674 0.00908019 0.00445313 0.00116967 0.00182683 0.00379779 0.00498731 0.01630545 0.00181215 0.00166205 0.03338323 0.00370614 0.00356894 0.00836058 0.00129535 
0.04279264 0.04911073 0.00887708 0.00449190 0.00118268 0.00180704 0.00381245 0.00497456 0.01599143 0.00182251 0.00166041 0.03510539 0.00359480 0.00356111 0.00823510 0.00129520 
0.04315749 0.04911452 0.00867618 0.00452807 0.00119593 0.00178961 0.00383200 0.00495877 0.01569362 0.00183251 0.00165802 0.03696021 0.00350908 0.00355466 0.00810430 0.00129502 
0.04348545 0.04919037 0.00847763 0.00456141 0.00120933 0.00177462 0.00385629 0.00493984 0.01541253 0.00184208 0.00165490 0.03894079 0.00344945 0.00354947 0.00796878 0.00129482 
0.04377513 0.04934010 0.00828163 0.00459171 0.00122276 0.00176210 0.00388516 0.00491765 0.01514854 0.00185114 0.00165106 0.04103959 0.00341625 0.00354543 0.00782916 0.00129459 
0.04402527 0.04956510 0.00808841 0.00461877 0.00123613 0.00175212 0.00391844 0.00489212 0.01490190 0.00185963 0.00164654 0.04324838 0.00340975 0.00354242 0.00768610 0.00129433 
0.04423477 0.04986635 0.00789823 0.00464241 0.00124934 0.00174471 0.00395591 0.00486320 0.01467273 0.00186749 0.00164137 0.04555834 0.00343008 0.00354034 0.00754030 0.00129404 
0.04440270 0.05024436 0.00771139 0.00466245 0.00126231 0.00173987 0.00399736 0.00483084 0.01446101 0.00187466 0.00163559 0.04796008 0.00347729 0.00353908 0.00739246 0.00129374 
0.04452829 0.05069921 0.00752824 0.00467873 0.00127496 0.00173763 0.00404255 0.00479505 0.01426662 0.00188108 0.00162923 0.05044367 0.00355133 0.00353856 0.00724331 0.00129341 
0.04461091 0.05123050 0.00734918 0.00469111 0.00128723 0.00173796 0.00409124 0.00475583 0.01408929 0.00188671 0.00162235 0.05299874 0.00365203 0.00353870 0.00709361 0.00129305 
0.04465013 0.05183740 0.00717462 0.00469947 0.00129906 0.00174085 0.00414315 0.00471322 0.01392866 0.00189151 0.00161501 0.05561447 0.00377912 0.00353942 0.00694410 0.00129268 
0.04464567 0.05251862 0.00700505 0.00470369 0.00131041 0.00174627 0.00419801 0.00466728 0.01378424 0.00189544 0.00160724 0.05827970 0.00393225 0.00354066 0.00679557 0.00129229 
0.04459742 0.05327244 0.00684096 0.00470371 0.00132122 0.00175416 0.00425552 0.00461811 0.01365544 0.00189847 0.00159911 0.06098296 0.00411094 0.00354238 0.00664879 0.00129188 
0.04450544 0.05409667 0.00668290 0.00469944 0.00133147 0.00176448 0.00431537 0.00456580 0.01354158 0.00190057 0.00159068 0.06371253 0.00431464 0.00354453 0.00650455 0.00129145 
0.04436995 0.05498872 0.00653146 0.00469086 0.00134114 0.00177714 0.00437726 0.00451051 0.01344189 0.00190173 0.00158202 0.06645651 0.00454269 0.00354711 0.00636362 0.00129101 
0.04419134 0.05594556 0.00638726 0.00467794 0.00135022 0.00179206 0.00444087 0.00445239 0.01335552 0.00190193 0.00157317 0.06920291 0.00479434 0.00355008 0.00622678 0.00129055 
0.04397017 0.05696379 0.00625093 0.00466070 0.00135870 0.00180915 0.00450587 0.00439161 0.01328153 0.00190116 0.00156421 0.07193964 0.00506875 0.00355345 0.00609481 0.00129007 
0.04370712 0.05803959 0.00612317 0.00463914 0.00136659 0.00182831 0.00457193 0.00432838 0.01321894 0.00189941 0.00155519 0.07465468 0.00536500 0.00355723 0.00596846 0.00128958 
0.04340308 0.05916880 0.00600465 0.00461334 0.00137390 0.00184941 0.00463871 0.00426292 0.01316671 0.00189669 0.00154619 0.07733604 0.00568209 0.00356144 0.00584848 0.00128908 
0.04305905 0.06034689 0.00589611 0.00458337 0.00138066 0.00187234 0.00470589 0.00419546 0.01312376 0.00189301 0.00153725 0.07997190 0.00601894 0.00356611 0.00573558 0.00128856 
0.04267618 0.06156902 0.00579827 0.00454933 0.00138689 0.00189695 0.00477314 0.00412628 0.01308898 0.00188837 0.00152843 0.08255067 0.00637439 0.00357129 0.00563048 0.00128803 
0.04225576 0.06283006 0.00571188 0.00451135 0.00139262 0.00192311 0.00484011 0.00405563 0.01306122 0.00188279 0.00151980 0.08506100 0.00674723 0.00357703 0.00553384 0.00128748 
0.04179922 0.06412458 0.00563767 0.00446958 0.00139791 0.00195066 0.00490648 0.00398380 0.01303936 0.00187629 0.00151141 0.08749190 0.00713616 0.00358338 0.00544632 0.00128692 
0.04130810 0.06544692 0.00557640 0.00442419 0.00140280 0.00197946 0.00497194 0.00391109 0.01302223 0.00186889 0.00150330 0.08983279 0.00753985 0.00359041 0.00536852 0.00128634 
0.04078406 0.06679120 0.00552880 0.00437538 0.00140734 0.00200934 0.00503616 0.00383780 0.01300870 0.00186063 0.00149552 0.09207354 0.00795691 0.00359819 0.00530103 0.00128575 
0.04022888 0.06815134 0.00549559 0.00432336 0.00141159 0.00204013 0.00509884 0.00376425 0.01299766 0.00185153 0.00148811 0.09420454 0.00838589 0.00360681 0.00524438 0.00128514 
0.03964443 0.06952112 0.00547747 0.00426838 0.00141561 0.00207167 0.00515969 0.00369076 0.01298802 0.00184162 0.00148110 0.09621676 0.00882531 0.00361634 0.00519907 0.00128450 
0.03903267 0.07089418 0.00547513 0.00421070 0.00141946 0.00210378 0.00521841 0.00361766 0.01297875 0.00183095 0.00147453 0.09810180 0.00927366 0.00362687 0.00516555 0.00128385 
0.03839567 0.07226406 0.00548921 0.00415059 0.00142321 0.00213629 0.00527474 0.00354526 0.01296883 0.00181956 0.00146842 0.09985193 0.00972938 0.00363847 0.00514422 0.00128317 
0.03773554 0.07362423 0.00552031 0.00408835 0.00142692 0.00216902 0.00532841 0.00347388 0.01295735 0.00180749 0.00146278 0.10146012 0.01019091 0.00365124 0.00513544 0.00128246 
0.03705449 0.07496816 0.00556899 0.00402428 0.00143067 0.00220180 0.00537918 0.00340387 0.01294343 0.00179477 0.00145763 0.10292013 0.01065666 0.00366525 0.00513950 0.00128173 
0.03635477 0.07628929 0.00563577 0.00395871 0.00143453 0.00223446 0.00542682 0.00333551 0.01292627 0.00178147 0.00145297 0.10422651 0.01112505 0.00368058 0.00515665 0.00128097 
0.03563869 0.07758110 0.00572109 0.00389198 0.00143855 0.00226683 0.00547111 0.00326914 0.01290516 0.00176763 0.00144880 0.10537461 0.01159446 0.00369732 0.00518708 0.00128017 
0.03490859 0.07883717 0.00582534 0.00382443 0.00144280 0.00229872 0.00551185 0.00320504 0.01287947 0.00175330 0.00144511 0.10636067 0.01206330 0.00371551 0.00523092 0.00127934 
0.03416685 0.08005113 0.00594884 0.00375641 0.00144735 0.00233000 0.00554888 0.00314351 0.01284868 0.00173852 0.00144189 0.10718178 0.01252997 0.00373523 0.00528825 0.00127847 
0.03341588 0.08121679 0.00609183 0.00368828 0.00145226 0.00236048 0.00558202 0.00308482 0.01281234 0.00172336 0.00143911 0.10783592 0.01299291 0.00375653 0.00535906 0.00127756 
0.03265809 0.08232809 0.00625448 0.00362041 0.00145758 0.00239002 0.00561113 0.00302924 0.01277013 0.00170787 0.00143674 0.10832201 0.01345057 0.00377946 0.00544333 0.00127660 
0.03189592 0.08337918 0.00643687 0.00355316 0.00146336 0.00241847 0.00563610 0.00297701 0.01272180 0.00169209 0.00143475 0.10863984 0.01390140 0.00380404 0.00554093 0.00127560 
0.03113178 0.08436444 0.00663898 0.00348689 0.00146965 0.00244569 0.00565681 0.00292835 0.01266725 0.00167608 0.00143309 0.10879012 0.01434391 0.00383030 0.00565169 0.00127455 
0.03036809 0.08527849 0.00686072 0.00342197 0.00147649 0.00247155 0.00567319 0.00288348 0.01260646 0.00165990 0.00143172 0.10877449 0.01477665 0.00385825 0.00577539 0.00127346 
0.02960724 0.08611625 0.00710190 0.00335874 0.00148392 0.00249593 0.00568517 0.00284258 0.01253952 0.00164360 0.00143058 0.10859546 0.01519820 0.00388789 0.00591172 0.00127231 
0.02885161 0.08687292 0.00736221 0.00329757 0.00149197 0.00251870 0.00569270 0.00280582 0.01246664 0.00162723 0.00142961 0.10825645 0.01560720 0.00391921 0.00606034 0.00127111 
0.02810354 0.08754406 0.00764127 0.00323877 0.00150065 0.00253978 0.00569576 0.00277334 0.01238812 0.00161085 0.00142875 0.10776171 0.01600233 0.00395218 0.00622083 0.00126985 
0.02736531 0.08812556 0.00793858 0.00318269 0.00150999 0.00255907 0.00569434 0.00274526 0.01230438 0.00159451 0.00142793 0.10711636 0.01638234 0.00398675 0.00639272 0.00126854 
0.02663917 0.08861372 0.00825355 0.00312964 0.00152000 0.00257648 0.00568846 0.00272168 0.01221594 0.00157826 0.00142708 0.10632631 0.01674603 0.00402288 0.00657548 0.00126717 
0.02592733 0.08900521 0.00858548 0.00307991 0.00153067 0.00259195 0.00567813 0.00270267 0.01212341 0.00156215 0.00142613 0.10539826 0.01709228 0.00406051 0.00676854 0.00126575 
0.02523192 0.08929712 0.00893358 0.00303378 0.00154200 0.00260541 0.00566342 0.00268827 0.01202748 0.00154625 0.00142499 0.10433963 0.01742004 0.00409954 0.00697127 0.00126428 
0.02455499 0.08948697 0.00929695 0.00299151 0.00155397 0.00261683 0.00564439 0.00267850 0.01192895 0.00153058 0.00142359 0.10315855 0.01772833 0.00413989 0.00718299 0.00126275 
0.02389855 0.08957272 0.00967460 0.00295335 0.00156657 0.00262617 0.00562111 0.00267337 0.01182870 0.00151522 0.00142185 0.10186378 0.01801624 0.00418146 0.00740298 0.00126118 
0.02326451 0.08955279 0.01006544 0.00291950 0.00157977 0.00263341 0.00559369 0.00267284 0.01172766 0.00150020 0.00141969 0.10046469 0.01828296 0.00422413 0.00763047 0.00125956 
0.02265470 0.08942605 0.01046830 0.00289015 0.00159353 0.00263854 0.00556223 0.00267686 0.01162685 0.00148557 0.00141703 0.09897118 0.01852774 0.00426779 0.00786466 0.00125789 
0.02207087 0.08919187 0.01088192 0.00286548 0.00160781 0.00264156 0.00552687 0.00268535 0.01152732 0.00147138 0.00141380 0.09739365 0.01874994 0.00431229 0.00810471 0.00125618 
0.02151465 0.08885005 0.01130494 0.00284561 0.00162256 0.00264250 0.00548775 0.00269822 0.01143020 0.00145768 0.00140992 0.09574293 0.01894898 0.00435750 0.00834976 0.00125444 
0.02098761 0.08840090 0.01173597 0.00283067 0.00163773 0.00264139 0.00544502 0.00271534 0.01133665 0.00144452 0.00140532 0.09403020 0.01912438 0.00440327 0.00859892 0.00125267 
0.02049120 0.08784519 0.01217349 0.00282073 0.00165326 0.00263826 0.00539885 0.00273657 0.01124784 0.00143193 0.00139994 0.09226694 0.01927576 0.00444945 0.00885126 0.00125088 
0.02002676 0.08718415 0.01261597 0.00281584 0.00166907 0.00263317 0.00534942 0.00276176 0.01116499 0.00141996 0.00139372 0.09046490 0.01940282 0.00449590 0.00910587 0.00124907 
0.01959553 0.08641950 0.01306180 0.00281604 0.00168511 0.00262619 0.00529690 0.00279072 0.01108931 0.00140866 0.00138660 0.08863596 0.01950534 0.00454244 0.00936181 0.00124725 
0.01919864 0.08555340 0.01350932 0.00282130 0.00170130 0.00261739 0.00524151 0.00282326 0.01102202 0.00139807 0.00137853 0.08679213 0.01958321 0.00458893 0.00961812 0.00124543 
0.01883711 0.08458847 0.01395684 0.00283160 0.00171755 0.00260687 0.00518345 0.00285917 0.01096432 0.00138822 0.00136948 0.08494547 0.01963639 0.00463520 0.00987386 0.00124362 
0.01851183 0.08352775 0.01440264 0.00284687 0.00173379 0.00259471 0.00512293 0.00289822 0.01091742 0.00137915 0.00135941 0.08310798 0.01966495 0.00468112 0.01012810 0.00124183 
0.01822358 0.08237472 0.01484498 0.00286701 0.00174993 0.00258103 0.00506018 0.00294018 0.01088245 0.00137091 0.00134830 0.08129160 0.01966902 0.00472653 0.01037989 0.00124007 
0.01797305 0.08113324 0.01528209 0.00289190 0.00176589 0.00256594 0.00499542 0.00298481 0.01086056 0.00136353 0.00133614 0.07950808 0.01964884 0.00477129 0.01062833 0.00123835 
0.01776076 0.07980759 0.01571222 0.00292139 0.00178157 0.00254957 0.00492890 0.00303186 0.01085281 0.00135705 0.00132292 0.07776897 0.01960473 0.00481527 0.01087252 0.00123668 
0.01758715 0.07840238 0.01613361 0.00295530 0.00179690 0.00253204 0.00486084 0.00308107 0.01086020 0.00135150 0.00130866 0.07608552 0.01953708 0.00485835 0.01111158 0.00123508 
0.01745252 0.07692257 0.01654453 0.00299342 0.00181178 0.00251350 0.00479151 0.00313218 0.01088370 0.00134691 0.00129338 0.07446864 0.01944638 0.00490042 0.01134469 0.00123355 
0.01735706 0.07537347 0.01694327 0.00303552 0.00182613 0.00249410 0.00472114 0.00318493 0.01092418 0.00134333 0.00127711 0.07292883 0.01933318 0.00494138 0.01157105 0.00123211 
0.01730083 0.07376064 0.01732815 0.00308135 0.00183987 0.00247397 0.00464998 0.00323906 0.01098242 0.00134077 0.00125988 0.07147614 0.01919810 0.00498115 0.01178988 0.00123077 
0.01728378 0.07208993 0.01769755 0.00313063 0.00185291 0.00245328 0.00457831 0.00329432 0.01105912 0.00133927 0.00124177 0.07012007 0.01904186 0.00501965 0.01200049 0.00122955 
0.01730575 0.07036742 0.01804990 0.00318308 0.00186517 0.00243218 0.00450637 0.00335045 0.01115489 0.00133885 0.00122284 0.06886960 0.01886522 0.00505684 0.01220220 0.00122845 
0.01736644 0.06859941 0.01838368 0.00323838 0.00187659 0.00241083 0.00443443 0.00340722 0.01127024 0.00133954 0.00120317 0.06773307 0.01866903 0.00509268 0.01239441 0.00122749 
0.01746544 0.06679237 0.01869747 0.00329620 0.00188709 0.00238940 0.00436275 0.00346438 0.01140555 0.00134136 0.00118285 0.06671817 0.01845417 0.00512716 0.01257656 0.00122669 
0.01760224 0.06495291 0.01898991 0.00335620 0.00189661 0.00236803 0.00429159 0.00352172 0.01156111 0.00134434 0.00116200 0.06583189 0.01822161 0.00516029 0.01274818 0.00122606 
0.01777622 0.06308779 0.01925974 0.00341803 0.00190509 0.00234691 0.00422121 0.00357902 0.01173709 0.00134849 0.00114073 0.06508049 0.01797235 0.00519207 0.01290884 0.00122560 
0.01798663 0.06120382 0.01950579 0.00348133 0.00191248 0.00232618 0.00415190 0.00363609 0.01193355 0.00135382 0.00111917 0.06446947 0.01770746 0.00522256 0.01305819 0.00122533 
0.01823263 0.05930787 0.01972702 0.00354574 0.00191873 0.00230601 0.00408390 0.00369275 0.01215041 0.00136036 0.00109747 0.06400355 0.01742803 0.00525183 0.01319594 0.00122527 
0.01851328 0.05740686 0.01992247 0.00361087 0.00192380 0.00228655 0.00401748 0.00374883 0.01238748 0.00136812 0.00107578 0.06368660 0.01713523 0.00527994 0.01332188 0.00122542 
0.01882752 0.05550767 0.02009131 0.00367636 0.00192768 0.00226795 0.00395292 0.00380419 0.01264445 0.00137710 0.00105426 0.06352170 0.01683024 0.00530700 0.01343588 0.00122579 
0.01917422 0.05361715 0.02023283 0.00374184 0.00193033 0.00225037 0.00389047 0.00385871 0.01292091 0.00138730 0.00103309 0.06351106 0.01651427 0.00533313 0.01353787 0.00122640 
0.01955215 0.05174208 0.02034646 0.00380694 0.00193174 0.00223394 0.00383039 0.00391228 0.01321629 0.00139874 0.00101245 0.06365603 0.01618858 0.00535847 0.01362787 0.00122724 
0.01995997 0.04988915 0.02043175 0.00387129 0.00193190 0.00221881 0.00377295 0.00396482 0.01352994 0.00141140 0.00099252 0.06395712 0.01585444 0.00538318 0.01370596 0.00122834 
0.02039629 0.04806489 0.02048837 0.00393455 0.00193083 0.00220510 0.00371841 0.00401627 0.01386108 0.00142530 0.00097351 0.06441394 0.01551315 0.00540741 0.01377231 0.00122969 
0.02085961 0.04627569 0.02051614 0.00399637 0.00192854 0.00219294 0.00366701 0.00406659 0.01420884 0.00144041 0.00095562 0.06502529 0.01516603 0.00543137 0.01382716 0.00123129 
0.02134839 0.04452775 0.02051503 0.00405642 0.00192504 0.00218246 0.00361902 0.00411576 0.01457222 0.00145672 0.00093904 0.06578909 0.01481439 0.00545523 0.01387082 0.00123317 
0.02186098 0.04282705 0.02048513 0.00411439 0.00192038 0.00217374 0.00357467 0.00416379 0.01495015 0.00147423 0.00092400 0.06670242 0.01445957 0.00547923 0.01390366 0.00123530 
0.02239570 0.04117934 0.02042665 0.00416998 0.00191458 0.00216691 0.00353423 0.00421071 0.01534145 0.00149290 0.00091071 0.06776156 0.01410292 0.00550356 0.01392613 0.00123771 
0.02295078 0.03959010 0.02033998 0.00422291 0.00190771 0.00216204 0.00349791 0.00425657 0.01574485 0.00151273 0.00089937 0.06896199 0.01374576 0.00552846 0.01393874 0.00124038 
0.02352443 0.03806453 0.02022560 0.00427293 0.00189982 0.00215922 0.00346597 0.00430143 0.01615904 0.00153367 0.00089020 0.07029842 0.01338944 0.00555416 0.01394207 0.00124332 
0.02411478 0.03660750 0.02008414 0.00431980 0.00189097 0.00215853 0.00343862 0.00434539 0.01658259 0.00155570 0.00088340 0.07176479 0.01303529 0.00558089 0.01393675 0.00124652 
0.02471994 0.03522360 0.01991635 0.00436333 0.00188124 0.00216002 0.00341609 0.00438857 0.01701406 0.00157878 0.00087920 0.07335438 0.01268461 0.00560889 0.01392346 0.00124997 
0.02533797 0.03391703 0.01972312 0.00440332 0.00187071 0.00216376 0.00339859 0.00443107 0.01745191 0.00160288 0.00087777 0.07505977 0.01233871 0.00563839 0.01390293 0.00125368 
0.02596690 0.03269166 0.01950542 0.00443963 0.00185947 0.00216978 0.00338633 0.00447306 0.01789460 0.00162794 0.00087933 0.07687292 0.01199886 0.00566962 0.01387594 0.00125762 
0.02660475 0.03155096 0.01926437 0.00447212 0.00184762 0.00217811 0.00337949 0.00451469 0.01834054 0.00165392 0.00088406 0.07878521 0.01166632 0.00570281 0.01384330 0.00126180 
0.02724950 0.03049805 0.01900117 0.00450070 0.00183526 0.00218879 0.00337827 0.00455613 0.01878810 0.00168077 0.00089213 0.08078747 0.01134232 0.00573817 0.01380585 0.00126620 
0.02789913 0.02953563 0.01871712 0.00452530 0.00182250 0.00220183 0.00338283 0.00459756 0.01923566 0.00170842 0.00090370 0.08287006 0.01102806 0.00577592 0.01376448 0.00127080 
0.02855160 0.02866599 0.01841361 0.00454588 0.00180944 0.00221722 0.00339335 0.00463918 0.01968159 0.00173682 0.00091895 0.08502289 0.01072469 0.00581623 0.01372006 0.00127560 
0.02920489 0.02789103 0.01809211 0.00456244 0.00179620 0.00223497 0.00340995 0.00468119 0.02012426 0.00176590 0.00093799 0.08723551 0.01043334 0.00585929 0.01367352 0.00128058 
0.02985697 0.02721221 0.01775417 0.00457500 0.00178291 0.00225505 0.00343279 0.00472379 0.02056206 0.00179559 0.00096097 0.08949712 0.01015509 0.00590525 0.01362575 0.00128571 
0.03050582 0.02663059 0.01740138 0.00458360 0.00176968 0.00227745 0.00346197 0.00476720 0.02099339 0.00182582 0.00098798 0.09179669 0.00989098 0.00595427 0.01357769 0.00129099 
0.03114945 0.02614681 0.01703540 0.00458834 0.00175663 0.00230214 0.00349760 0.00481161 0.02141671 0.00185651 0.00101913 0.09412295 0.00964199 0.00600645 0.01353025 0.00129638 
0.03178588 0.02576107 0.01665794 0.00458932 0.00174389 0.00232906 0.00353975 0.00485723 0.02183050 0.00188759 0.00105447 0.09646452 0.00940906 0.00606189 0.01348433 0.00130188 
0.03241316 0.02547318 0.01627072 0.00458667 0.00173158 0.00235817 0.00358851 0.00490427 0.02223330 0.00191897 0.00109408 0.09880992 0.00919306 0.00612067 0.01344081 0.00130745 
0.03302938 0.02528252 0.01587549 0.00458056 0.00171983 0.00238942 0.00364390 0.00495292 0.02262369 0.00195056 0.00113796 0.10114764 0.00899482 0.00618283 0.01340057 0.00131308 
0.03363265 0.02518807 0.01547403 0.00457117 0.00170875 0.00242274 0.00370595 0.00500337 0.02300035 0.00198229 0.00118615 0.10346624 0.00881510 0.00624839 0.01336443 0.00131873 
0.03422116 0.02518843 0.01506809 0.00455873 0.00169846 0.00245805 0.00377468 0.00505580 0.02336200 0.00201405 0.00123863 0.10575436 0.00865458 0.00631734 0.01333319 0.00132439 
0.03479311 0.02528177 0.01465945 0.00454345 0.00168908 0.00249530 0.00385006 0.00511036 0.02370745 0.00204576 0.00129537 0.10800082 0.00851390 0.00638964 0.01330762 0.00133004 
0.03534678 0.02546593 0.01424982 0.00452561 0.00168071 0.00253438 0.00393204 0.00516720 0.02403561 0.00207734 0.00135631 0.11019467 0.00839361 0.00646522 0.01328844 0.00133563 
0.03588049 0.02573837 0.01384094 0.00450545 0.00167347 0.00257522 0.00402057 0.00522645 0.02434544 0.00210867 0.00142137 0.11232523 0.00829421 0.00654398 0.01327631 0.00134115 
0.03639263 0.02609619 0.01343447 0.00448328 0.00166744 0.00261772 0.00411554 0.00528822 0.02463604 0.00213968 0.00149045 0.11438217 0.00821609 0.00662581 0.01327185 0.00134658 
0.03688166 0.02653617 0.01303204 0.00445939 0.00166273 0.00266179 0.00421686 0.00535259 0.02490657 0.00217026 0.00156343 0.11635557 0.00815960 0.00671053 0.01327560 0.00135188 
0.03734610 0.02705477 0.01263522 0.00443410 0.00165941 0.00270733 0.00432437 0.00541963 0.02515630 0.00220034 0.00164015 0.11823596 0.00812499 0.00679796 0.01328807 0.00135703 
0.03778454 0.02764817 0.01224552 0.00440773 0.00165756 0.00275424 0.00443792 0.00548937 0.02538463 0.00222981 0.00172046 0.12001435 0.00811244 0.00688790 0.01330968 0.00136200 
0.03819566 0.02831226 0.01186437 0.00438060 0.00165726 0.00280241 0.00455730 0.00556184 0.02559101 0.00225858 0.00180414 0.12168233 0.00812204 0.00698009 0.01334080 0.00136677 
0.03857820 0.02904268 0.01149314 0.00435304 0.00165855 0.00285174 0.00468231 0.00563702 0.02577505 0.00228658 0.00189099 0.12323208 0.00815380 0.00707427 0.01338172 0.00137131 
0.03893099 0.02983482 0.01113308 0.00432539 0.00166149 0.00290212 0.00481270 0.00571487 0.02593642 0.00231371 0.00198077 0.12465643 0.00820766 0.00717013 0.01343266 0.00137560 
0.03925293 0.03068391 0.01078538 0.00429798 0.00166612 0.00295345 0.00494820 0.00579531 0.02607492 0.00233990 0.00207323 0.12594888 0.00828345 0.00726737 0.01349377 0.00137962 
0.03954302 0.03158494 0.01045111 0.00427114 0.00167246 0.00300561 0.00508852 0.00587826 0.02619046 0.00236506 0.00216809 0.12710364 0.00838094 0.00736564 0.01356512 0.00138334 
0.03980032 0.03253278 0.01013126 0.00424519 0.00168054 0.00305851 0.00523333 0.00596359 0.02628301 0.00238913 0.00226505 0.12811569 0.00849980 0.00746458 0.01364673 0.00138674 
0.04002400 0.03352215 0.00982670 0.00422045 0.00169035 0.00311203 0.00538231 0.00605114 0.02635270 0.00241204 0.00236381 0.12898074 0.00863963 0.00756381 0.01373851 0.00138981 
0.04021330 0.03454768 0.00953818 0.00419722 0.00170190 0.00316608 0.00553508 0.00614072 0.02639969 0.00243372 0.00246404 0.12969534 0.00879992 0.00766293 0.01384033 0.00139252 
0.04036754 0.03560390 0.00926636 0.00417579 0.00171516 0.00322053 0.00569126 0.00623214 0.02642429 0.00245412 0.00256540 0.13025685 0.00898011 0.00776154 0.01395198 0.00139486 
0.04048614 0.03668530 0.00901177 0.00415643 0.00173012 0.00327530 0.00585045 0.00632515 0.02642687 0.00247318 0.00266754 0.13066342 0.00917954 0.00785922 0.01407317 0.00139682 
0.04056859 0.03778636 0.00877483 0.00413941 0.00174672 0.00333028 0.00601221 0.00641949 0.02640788 0.00249087 0.00277011 0.13091408 0.00939746 0.00795555 0.01420356 0.00139838 
0.04061448 0.03890154 0.00855585 0.00412497 0.00176493 0.00338538 0.00617611 0.00651488 0.02636786 0.00250715 0.00287273 0.13100869 0.00963307 0.00805007 0.01434274 0.00139953 
0.04062346 0.04002536 0.00835502 0.00411332 0.00178467 0.00344050 0.00634169 0.00661100 0.02630744 0.00252198 0.00297503 0.13094795 0.00988548 0.00814237 0.01449024 0.00140027 
0.04059530 0.04115238 0.00817241 0.00410467 0.00180589 0.00349554 0.00650847 0.00670753 0.02622728 0.00253535 0.00307663 0.13073338 0.01015373 0.00823201 0.01464552 0.00140058 
0.04052980 0.04227725 0.00800799 0.00409919 0.00182849 0.00355042 0.00667598 0.00680412 0.02612814 0.00254725 0.00317714 0.13036737 0.01043678 0.00831855 0.01480802 0.00140047 
0.04042689 0.04339476 0.00786163 0.00409703 0.00185238 0.00360504 0.00684372 0.00690039 0.02601083 0.00255767 0.00327619 0.12985308 0.01073354 0.00840157 0.01497709 0.00139992 
0.04028656 0.04449982 0.00773306 0.00409832 0.00187747 0.00365933 0.00701119 0.00699599 0.02587621 0.00256661 0.00337339 0.12919448 0.01104285 0.00848064 0.01515208 0.00139895 
0.04010886 0.04558752 0.00762194 0.00410316 0.00190364 0.00371320 0.00717788 0.00709050 0.02572518 0.00257408 0.00346837 0.12839634 0.01136351 0.00855537 0.01533226 0.00139755 
0.03989393 0.04665315 0.00752782 0.00411162 0.00193077 0.00376657 0.00734328 0.00718353 0.02555869 0.00258012 0.00356076 0.12746412 0.01169423 0.00862537 0.01551690 0.00139573 
0.03964200 0.04769221 0.00745017 0.00412374 0.00195874 0.00381936 0.00750689 0.00727467 0.02537774 0.00258474 0.00365019 0.12640404 0.01203371 0.00869025 0.01570522 0.00139349 
0.03935335 0.04870047 0.00738834 0.00413955 0.00198742 0.00387151 0.00766819 0.00736352 0.02518332 0.00258799 0.00373632 0.12522296 0.01238060 0.00874966 0.01589643 0.00139085 
0.03902835 0.04967395 0.00734165 0.00415903 0.00201667 0.00392293 0.00782668 0.00744966 0.02497649 0.00258992 0.00381880 0.12392840 0.01273350 0.00880328 0.01608971 0.00138782 
0.03866743 0.05060895 0.00730931 0.00418216 0.00204634 0.00397357 0.00798187 0.00753268 0.02475830 0.00259058 0.00389732 0.12252846 0.01309099 0.00885079 0.01628425 0.00138441 
0.03827110 0.05150212 0.00729047 0.00420887 0.00207629 0.00402334 0.00813327 0.00761218 0.02452982 0.00259004 0.00397155 0.12103179 0.01345163 0.00889192 0.01647922 0.00138063 
0.03783992 0.05235042 0.00728422 0.00423908 0.00210635 0.00407219 0.00828041 0.00768776 0.02429214 0.00258837 0.00404122 0.11944753 0.01381396 0.00892641 0.01667378 0.00137651 
0.03737454 0.05315114 0.00728960 0.00427267 0.00213639 0.00412006 0.00842282 0.00775904 0.02404634 0.00258565 0.00410604 0.11778526 0.01417649 0.00895405 0.01686714 0.00137207 
0.03687567 0.05390196 0.00730562 0.00430950 0.00216624 0.00416688 0.00856007 0.00782565 0.02379351 0.00258198 0.00416578 0.11605496 0.01453776 0.00897466 0.01705846 0.00136733 
0.03634409 0.05460093 0.00733122 0.00434943 0.00219574 0.00421259 0.00869173 0.00788723 0.02353472 0.00257745 0.00422020 0.11426693 0.01489630 0.00898808 0.01724698 0.00136231 
0.03578065 0.05524649 0.00736535 0.00439226 0.00222474 0.00425713 0.00881740 0.00794345 0.02327106 0.00257216 0.00426909 0.11243173 0.01525064 0.00899419 0.01743192 0.00135704 
0.03518625 0.05583749 0.00740690 0.00443781 0.00225308 0.00430045 0.00893671 0.00799400 0.02300357 0.00256621 0.00431229 0.11056016 0.01559934 0.00899294 0.01761255 0.00135154 
0.03456189 0.05637316 0.00745477 0.00448585 0.00228061 0.00434248 0.00904930 0.00803859 0.02273330 0.00255974 0.00434964 0.10866313 0.01594097 0.00898427 0.01778817 0.00134585 
0.03390861 0.05685317 0.00750787 0.00453616 0.00230717 0.00438317 0.00915486 0.00807696 0.02246129 0.00255284 0.00438102 0.10675167 0.01627416 0.00896819 0.01795811 0.00133999 
0.03322754 0.05727760 0.00756507 0.00458847 0.00233263 0.00442246 0.00925308 0.00810888 0.02218852 0.00254565 0.00440632 0.10483681 0.01659755 0.00894475 0.01812177 0.00133400 
0.03251987 0.05764694 0.00762528 0.00464253 0.00235683 0.00446030 0.00934371 0.00813414 0.02191598 0.00253830 0.00442549 0.10292954 0.01690984 0.00891403 0.01827858 0.00132791 
0.03178687 0.05796211 0.00768743 0.00469807 0.00237964 0.00449663 0.00942653 0.00815259 0.02164463 0.00253090 0.00443848 0.10104077 0.01720979 0.00887617 0.01842801 0.00132175 
0.03102988 0.05822444 0.00775047 0.00475480 0.00240093 0.00453140 0.00950133 0.00816409 0.02137539 0.00252360 0.00444527 0.09918122 0.01749620 0.00883132 0.01856961 0.00131556 
0.03025032 0.05843564 0.00781337 0.00481244 0.00242058 0.00456454 0.00956795 0.00816853 0.02110916 0.00251652 0.00444590 0.09736139 0.01776795 0.00877970 0.01870297 0.00130936 
0.02944967 0.05859786 0.00787515 0.00487069 0.00243846 0.00459601 0.00962629 0.00816587 0.02084681 0.00250980 0.00444041 0.09559151 0.01802399 0.00872156 0.01882777 0.00130319 
0.02862950 0.05871360 0.00793488 0.00492925 0.00245449 0.00462574 0.00967623 0.00815607 0.02058916 0.00250356 0.00442887 0.09388147 0.01826335 0.00865719 0.01894372 0.00129710 
0.02779148 0.05878575 0.00799166 0.00498783 0.00246855 0.00465368 0.00971775 0.00813914 0.02033703 0.00249794 0.00441139 0.09224075 0.01848514 0.00858692 0.01905062 0.00129110 
0.02693734 0.05881755 0.00804467 0.00504613 0.00248057 0.00467977 0.00975082 0.00811515 0.02009118 0.00249307 0.00438810 0.09067840 0.01868854 0.00851112 0.01914832 0.00128523 
0.02606890 0.05881259 0.00809314 0.00510385 0.00249047 0.00470396 0.00977547 0.00808417 0.01985235 0.00248906 0.00435915 0.08920296 0.01887286 0.00843021 0.01923676 0.00127953 
0.02518806 0.05877475 0.00813636 0.00516071 0.00249817 0.00472619 0.00979176 0.00804633 0.01962124 0.00248605 0.00432473 0.08782245 0.01903748 0.00834461 0.01931592 0.00127402 
0.02429682 0.05870823 0.00817369 0.00521642 0.00250364 0.00474641 0.00979979 0.00800180 0.01939852 0.00248414 0.00428504 0.08654430 0.01918188 0.00825482 0.01938589 0.00126875 
0.02339726 0.05861749 0.00820458 0.00527071 0.00250683 0.00476456 0.00979969 0.00795077 0.01918484 0.00248344 0.00424031 0.08537531 0.01930564 0.00816135 0.01944678 0.00126373 
0.02249157 0.05850722 0.00822853 0.00532332 0.00250770 0.00478058 0.00979162 0.00789348 0.01898078 0.00248406 0.00419080 0.08432163 0.01940846 0.00806473 0.01949881 0.00125899 
0.02158200 0.05838233 0.00824514 0.00537399 0.00250625 0.00479442 0.00977580 0.00783019 0.01878693 0.00248610 0.00413677 0.08338873 0.01949014 0.00796554 0.01954224 0.00125457 
0.02067091 0.05824792 0.00825406 0.00542247 0.00250248 0.00480604 0.00975245 0.00776121 0.01860382 0.00248964 0.00407852 0.08258138 0.01955057 0.00786439 0.01957740 0.00125047 
0.01976076 0.05810921 0.00825504 0.00546855 0.00249638 0.00481537 0.00972184 0.00768686 0.01843195 0.00249475 0.00401634 0.08190359 0.01958976 0.00776188 0.01960469 0.00124674 
0.01885408 0.05797156 0.00824792 0.00551202 0.00248799 0.00482238 0.00968426 0.00760749 0.01827179 0.00250153 0.00395056 0.08135866 0.01960784 0.00765868 0.01962456 0.00124338 
0.01795351 0.05784041 0.00823259 0.00555266 0.00247733 0.00482702 0.00964003 0.00752350 0.01812379 0.00251001 0.00388150 0.08094909 0.01960501 0.00755545 0.01963752 0.00124042 
0.01706177 0.05772123 0.00820905 0.00559032 0.00246446 0.00482924 0.00958949 0.00743527 0.01798835 0.00252026 0.00380951 0.08067666 0.01958161 0.00745287 0.01964413 0.00123786 
0.01618167 0.05761949 0.00817735 0.00562482 0.00244944 0.00482901 0.00953301 0.00734325 0.01786585 0.00253232 0.00373494 0.08054234 0.01953806 0.00735165 0.01964500 0.00123573 
0.01531609 0.05754065 0.00813764 0.00565603 0.00243234 0.00482629 0.00947098 0.00724788 0.01775664 0.00254621 0.00365815 0.08054636 0.01947488 0.00725249 0.01964079 0.00123403 
0.01446801 0.05749009 0.00809013 0.00568382 0.00241325 0.00482105 0.00940380 0.00714961 0.01766102 0.00256195 0.00357949 0.08068819 0.01939270 0.00715612 0.01963219 0.00123276 
0.01364046 0.05747308 0.00803510 0.00570807 0.00239226 0.00481326 0.00933189 0.00704892 0.01757929 0.00257956 0.00349934 0.08096655 0.01929221 0.00706327 0.01961993 0.00123194 
0.01283657 0.05749476 0.00797292 0.00572872 0.00236948 0.00480290 0.00925569 0.00694629 0.01751168 0.00259902 0.00341804 0.08137943 0.01917421 0.00697466 0.01960476 0.00123157 
0.01205951 0.05756006 0.00790400 0.00574568 0.00234503 0.00478996 0.00917564 0.00684221 0.01745842 0.00262033 0.00333597 0.08192413 0.01903957 0.00689104 0.01958747 0.00123163 
0.01131252 0.05767371 0.00782882 0.00575891 0.00231904 0.00477442 0.00909219 0.00673718 0.01741970 0.00264344 0.00325348 0.08259724 0.01888924 0.00681312 0.01956887 0.00123213 
0.01059886 0.05784021 0.00774791 0.00576838 0.00229164 0.00475629 0.00900579 0.00663169 0.01739566 0.00266833 0.00317092 0.08339474 0.01872424 0.00674164 0.01954977 0.00123306 
0.00992187 0.05806373 0.00766186 0.00577407 0.00226299 0.00473556 0.00891690 0.00652623 0.01738644 0.00269495 0.00308864 0.08431195 0.01854563 0.00667732 0.01953100 0.00123440 
0.00928489 0.05834814 0.00757130 0.00577600 0.00223323 0.00471224 0.00882599 0.00642128 0.01739211 0.00272322 0.00300697 0.08534364 0.01835455 0.00662085 0.01951338 0.00123614 
0.00869128 0.05869696 0.00747691 0.00577417 0.00220253 0.00468636 0.00873350 0.00631735 0.01741274 0.00275309 0.00292624 0.08648404 0.01815218 0.00657293 0.01949774 0.00123827 
0.00814441 0.05911334 0.00737940 0.00576864 0.00217105 0.00465794 0.00863987 0.00621488 0.01744833 0.00278447 0.00284675 0.08772686 0.01793972 0.00653424 0.01948490 0.00124076 
0.00764764 0.05959999 0.00727949 0.00575945 0.00213897 0.00462702 0.00854556 0.00611434 0.01749888 0.00281726 0.00276881 0.08906538 0.01771842 0.00650544 0.01947568 0.00124359 
0.00720431 0.06015923 0.00717795 0.00574668 0.00210646 0.00459363 0.00845099 0.00601618 0.01756433 0.00285137 0.00269268 0.09049248 0.01748956 0.00648715 0.01947084 0.00124673 
0.00681773 0.06079288 0.00707557 0.00573040 0.00207372 0.00455784 0.00835657 0.00592082 0.01764460 0.00288668 0.00261865 0.09200069 0.01725440 0.00647999 0.01947117 0.00125016 
0.00649115 0.06150234 0.00697312 0.00571072 0.00204090 0.00451970 0.00826270 0.00582867 0.01773954 0.00292307 0.00254694 0.09358224 0.01701425 0.00648453 0.01947739 0.00125384 
0.00622776 0.06228848 0.00687141 0.00568774 0.00200822 0.00447928 0.00816978 0.00574010 0.01784900 0.00296042 0.00247780 0.09522912 0.01677039 0.00650133 0.01949022 0.00125774 
0.00603065 0.06315168 0.00677122 0.00566158 0.00197584 0.00443666 0.00807815 0.00565550 0.01797278 0.00299860 0.00241143 0.09693313 0.01652410 0.00653091 0.01951031 0.00126182 
0.00590284 0.06409182 0.00667334 0.00563238 0.00194395 0.00439194 0.00798817 0.00557519 0.01811062 0.00303746 0.00234801 0.09868594 0.01627664 0.00657374 0.01953830 0.00126605 
0.00584720 0.06510825 0.00657855 0.00560026 0.00191273 0.00434521 0.00790016 0.00549949 0.01826225 0.00307686 0.00228772 0.10047915 0.01602925 0.00663028 0.01957477 0.00127037 
0.00586649 0.06619981 0.00648759 0.00556539 0.00188237 0.00429658 0.00781441 0.00542868 0.01842732 0.00311665 0.00223069 0.10230434 0.01578314 0.00670093 0.01962025 0.00127476 
0.00596329 0.06736480 0.00640120 0.00552791 0.00185304 0.00424616 0.00773120 0.00536303 0.01860548 0.00315667 0.00217706 0.10415311 0.01553945 0.00678606 0.01967523 0.00127917 
0.00614003 0.06860102 0.00632007 0.00548799 0.00182491 0.00419408 0.00765078 0.00530275 0.01879631 0.00319677 0.00212692 0.10601716 0.01529933 0.00688598 0.01974014 0.00128354 
0.00639894 0.06990577 0.00624487 0.00544580 0.00179815 0.00414048 0.00757336 0.00524806 0.01899936 0.00323680 0.00208036 0.10788834 0.01506383 0.00700098 0.01981535 0.00128785 
0.00674204 0.07127584 0.00617622 0.00540150 0.00177291 0.00408550 0.00749914 0.00519912 0.01921414 0.00327659 0.00203743 0.10975868 0.01483396 0.00713127 0.01990119 0.00129204 
0.00717112 0.07270753 0.00611469 0.00535527 0.00174935 0.00402929 0.00742828 0.00515608 0.01944010 0.00331598 0.00199817 0.11162045 0.01461066 0.00727705 0.01999792 0.00129606 
0.00768775 0.07419668 0.00606081 0.00530729 0.00172760 0.00397202 0.00736093 0.00511905 0.01967667 0.00335482 0.00196261 0.11346624 0.01439482 0.00743844 0.02010574 0.00129987 
0.00829319 0.07573871 0.00601505 0.00525775 0.00170780 0.00391384 0.00729719 0.00508811 0.01992322 0.00339295 0.00193074 0.11528893 0.01418724 0.00761553 0.02022478 0.00130343 
0.00898848 0.07732859 0.00597783 0.00520682 0.00169008 0.00385493 0.00723715 0.00506333 0.02017910 0.00343021 0.00190254 0.11708182 0.01398864 0.00780834 0.02035513 0.00130668 
0.00977433 0.07896091 0.00594952 0.00515469 0.00167453 0.00379547 0.00718088 0.00504472 0.02044361 0.00346645 0.00187796 0.11883858 0.01379967 0.00801685 0.02049682 0.00130958 
0.01065114 0.08062990 0.00593039 0.00510155 0.00166128 0.00373564 0.00712839 0.00503229 0.02071600 0.00350154 0.00185696 0.12055337 0.01362089 0.00824098 0.02064980 0.00131209 
0.01161902 0.08232946 0.00592069 0.00504757 0.00165039 0.00367563 0.00707970 0.00502601 0.02099552 0.00353532 0.00183945 0.12222079 0.01345279 0.00848060 0.02081398 0.00131416 
0.01267771 0.08405320 0.00592056 0.00499295 0.00164194 0.00361564 0.00703478 0.00502584 0.02128134 0.00356766 0.00182535 0.12383599 0.01329576 0.00873552 0.02098920 0.00131576 
0.01382663 0.08579447 0.00593011 0.00493786 0.00163600 0.00355586 0.00699361 0.00503170 0.02157262 0.00359844 0.00181455 0.12539462 0.01315012 0.00900551 0.02117526 0.00131684 
0.01506484 0.08754642 0.00594936 0.00488248 0.00163261 0.00349648 0.00695611 0.00504350 0.02186851 0.00362752 0.00180694 0.12689289 0.01301608 0.00929027 0.02137190 0.00131737 
0.01639105 0.08930200 0.00597827 0.00482701 0.00163181 0.00343771 0.00692220 0.00506111 0.02216809 0.00365481 0.00180238 0.12832758 0.01289378 0.00958945 0.02157880 0.00131731 
0.01780357 0.09105404 0.00601671 0.00477161 0.00163361 0.00337975 0.00689178 0.00508441 0.02247045 0.00368018 0.00180074 0.12969602 0.01278327 0.00990266 0.02179560 0.00131664 
0.01930038 0.09279529 0.00606451 0.00471646 0.00163801 0.00332280 0.00686474 0.00511323 0.02277465 0.00370355 0.00180187 0.13099615 0.01268453 0.01022943 0.02202189 0.00131532 
0.02087906 0.09451844 0.00612142 0.00466174 0.00164500 0.00326705 0.00684094 0.00514741 0.02307972 0.00372483 0.00180560 0.13222649 0.01259744 0.01056927 0.02225723 0.00131333 
0.02253683 0.09621620 0.00618713 0.00460762 0.00165455 0.00321269 0.00682023 0.00518675 0.02338469 0.00374395 0.00181177 0.13338612 0.01252181 0.01092161 0.02250113 0.00131064 
0.02427051 0.09788132 0.00626124 0.00455426 0.00166663 0.00315992 0.00680245 0.00523105 0.02368857 0.00376082 0.00182022 0.13447472 0.01245739 0.01128586 0.02275306 0.00130725 
0.02607660 0.09950663 0.00634333 0.00450184 0.00168117 0.00310893 0.00678744 0.00528010 0.02399037 0.00377541 0.00183076 0.13549250 0.01240382 0.01166135 0.02301246 0.00130313 
0.02795119 0.10108511 0.00643288 0.00445051 0.00169810 0.00305989 0.00677502 0.00533368 0.02428910 0.00378767 0.00184322 0.13644025 0.01236072 0.01204739 0.02327874 0.00129828 
0.02989005 0.10260991 0.00652935 0.00440044 0.00171734 0.00301297 0.00676501 0.00539154 0.02458376 0.00379756 0.00185743 0.13731926 0.01232762 0.01244324 0.02355130 0.00129269 
0.03188859 0.10407441 0.00663213 0.00435179 0.00173878 0.00296835 0.00675722 0.00545345 0.02487338 0.00380505 0.00187320 0.13813134 0.01230399 0.01284810 0.02382950 0.00128636 
0.03394188 0.10547225 0.00674056 0.00430471 0.00176231 0.00292617 0.00675147 0.00551915 0.02515698 0.00381015 0.00189035 0.13887876 0.01228927 0.01326116 0.02411267 0.00127930 
0.03604471 0.10679738 0.00685395 0.00425936 0.00178780 0.00288659 0.00674756 0.00558838 0.02543360 0.00381284 0.00190870 0.13956426 0.01228283 0.01368156 0.02440017 0.00127150 
0.03819154 0.10804408 0.00697157 0.00421588 0.00181512 0.00284973 0.00674533 0.00566088 0.02570232 0.00381314 0.00192810 0.14019096 0.01228401 0.01410838 0.02469130 0.00126299 
0.04037655 0.10920701 0.00709263 0.00417442 0.00184410 0.00281573 0.00674458 0.00573638 0.02596221 0.00381106 0.00194835 0.14076237 0.01229211 0.01454072 0.02498538 0.00125378 
0.04259368 0.11028125 0.00721634 0.00413513 0.00187458 0.00278469 0.00674514 0.00581461 0.02621242 0.00380665 0.00196931 0.14128235 0.01230640 0.01497760 0.02528173 0.00124389 
0.04483662 0.11126229 0.00734189 0.00409814 0.00190639 0.00275672 0.00674684 0.00589530 0.02645209 0.00379995 0.00199081 0.14175503 0.01232614 0.01541804 0.02557964 0.00123335 
0.04709886 0.11214613 0.00746842 0.00406358 0.00193935 0.00273189 0.00674953 0.00597816 0.02668044 0.00379100 0.00201271 0.14218480 0.01235055 0.01586104 0.02587844 0.00122220 
0.04937370 0.11292922 0.00759509 0.00403160 0.00197326 0.00271028 0.00675305 0.00606293 0.02689670 0.00377987 0.00203485 0.14257625 0.01237886 0.01630558 0.02617744 0.00121046 
0.05165428 0.11360854 0.00772104 0.00400232 0.00200793 0.00269193 0.00675727 0.00614932 0.02710018 0.00376664 0.00205710 0.14293414 0.01241028 0.01675060 0.02647596 0.00119817 
0.05393362 0.11418160 0.00784541 0.00397586 0.00204313 0.00267689 0.00676207 0.00623704 0.02729022 0.00375137 0.00207934 0.14326332 0.01244403 0.01719507 0.02677335 0.00118539 
0.05620464 0.11464646 0.00796735 0.00395234 0.00207867 0.00266518 0.00676733 0.00632583 0.02746626 0.00373417 0.00210144 0.14356872 0.01247933 0.01763792 0.02706895 0.00117215 
0.05846022 0.11500172 0.00808600 0.00393188 0.00211431 0.00265680 0.00677297 0.00641540 0.02762775 0.00371513 0.00212330 0.14385528 0.01251541 0.01807809 0.02736213 0.00115852 
0.06069316 0.11524654 0.00820054 0.00391458 0.00214985 0.00265174 0.00677889 0.00650547 0.02777424 0.00369436 0.00214482 0.14412790 0.01255152 0.01851451 0.02765229 0.00114454 
0.06289632 0.11538066 0.00831017 0.00390055 0.00218505 0.00264997 0.00678503 0.00659575 0.02790536 0.00367195 0.00216591 0.14439140 0.01258694 0.01894613 0.02793882 0.00113028 
0.06506257 0.11540438 0.00841410 0.00388988 0.00221969 0.00265145 0.00679136 0.00668596 0.02802079 0.00364804 0.00218649 0.14465048 0.01262096 0.01937188 0.02822116 0.00111580 
0.06718483 0.11531855 0.00851158 0.00388267 0.00225354 0.00265610 0.00679782 0.00677582 0.02812030 0.00362274 0.00220649 0.14490966 0.01265293 0.01979073 0.02849875 0.00110116 
0.06925617 0.11512458 0.00860190 0.00387900 0.00228639 0.00266386 0.00680442 0.00686505 0.02820373 0.00359618 0.00222584 0.14517324 0.01268220 0.02020165 0.02877108 0.00108644 
0.07126978 0.11482443 0.00868440 0.00387895 0.00231800 0.00267462 0.00681115 0.00695336 0.02827102 0.00356849 0.00224451 0.14544528 0.01270819 0.02060363 0.02903764 0.00107170 
0.07321901 0.11442058 0.00875843 0.00388257 0.00234815 0.00268828 0.00681804 0.00704047 0.02832219 0.00353981 0.00226244 0.14572953 0.01273035 0.02099569 0.02929797 0.00105702 
0.07509745 0.11391601 0.00882344 0.00388994 0.00237665 0.00270469 0.00682510 0.00712610 0.02835732 0.00351026 0.00227962 0.14602942 0.01274818 0.02137687 0.02955163 0.00104246 
0.07689890 0.11331422 0.00887890 0.00390110 0.00240327 0.00272373 0.00683241 0.00720995 0.02837661 0.00347999 0.00229600 0.14634801 0.01276121 0.02174623 0.02979820 0.00102812 
0.07861744 0.11261915 0.00892434 0.00391609 0.00242782 0.00274523 0.00684002 0.00729175 0.02838032 0.00344913 0.00231159 0.14668798 0.01276907 0.02210289 0.03003730 0.00101405 
0.08024747 0.11183520 0.00895937 0.00393494 0.00245010 0.00276903 0.00684800 0.00737120 0.02836882 0.00341783 0.00232636 0.14705157 0.01277139 0.02244599 0.03026856 0.00100034 
0.08178369 0.11096717 0.00898363 0.00395767 0.00246994 0.00279493 0.00685647 0.00744802 0.02834256 0.00338622 0.00234033 0.14744061 0.01276788 0.02277471 0.03049167 0.00098706 
0.08322119 0.11002024 0.00899686 0.00398429 0.00248716 0.00282274 0.00686551 0.00752193 0.02830205 0.00335444 0.00235350 0.14785646 0.01275830 0.02308826 0.03070632 0.00097430 
0.08455541 0.10899995 0.00899885 0.00401480 0.00250160 0.00285227 0.00687525 0.00759263 0.02824792 0.00332262 0.00236588 0.14830000 0.01274248 0.02338593 0.03091224 0.00096211 
0.08578222 0.10791215 0.00898945 0.00404917 0.00251311 0.00288328 0.00688581 0.00765985 0.02818086 0.00329090 0.00237750 0.14877166 0.01272029 0.02366704 0.03110919 0.00095059 
0.08689790 0.10676295 0.00896860 0.00408738 0.00252157 0.00291557 0.00689734 0.00772329 0.02810164 0.00325940 0.00238837 0.14927136 0.01269166 0.02393094 0.03129696 0.00093979 
0.08789918 0.10555873 0.00893629 0.00412940 0.00252685 0.00294889 0.00690996 0.00778269 0.02801111 0.00322826 0.00239853 0.14979856 0.01265659 0.02417708 0.03147535 0.00092980 
0.08878327 0.10430605 0.00889260 0.00417515 0.00252886 0.00298302 0.00692384 0.00783775 0.02791019 0.00319759 0.00240800 0.15035224 0.01261511 0.02440492 0.03164422 0.00092067 
0.08954781 0.10301164 0.00883765 0.00422458 0.00252750 0.00301771 0.00693913 0.00788820 0.02779987 0.00316752 0.00241682 0.15093089 0.01256731 0.02461400 0.03180341 0.00091247 
0.09019096 0.10168233 0.00877168 0.00427760 0.00252271 0.00305273 0.00695598 0.00793378 0.02768121 0.00313816 0.00242503 0.15153258 0.01251335 0.02480391 0.03195283 0.00090527 
0.09071137 0.10032506 0.00869494 0.00433411 0.00251444 0.00308782 0.00697456 0.00797422 0.02755531 0.00310961 0.00243266 0.15215492 0.01245343 0.02497430 0.03209239 0.00089911 
0.09110816 0.09894679 0.00860779 0.00439400 0.00250266 0.00312276 0.00699501 0.00800927 0.02742333 0.00308197 0.00243976 0.15279511 0.01238777 0.02512490 0.03222203 0.00089406 
0.09138098 0.09755448 0.00851063 0.00445715 0.00248736 0.00315729 0.00701752 0.00803868 0.02728649 0.00305535 0.00244637 0.15344997 0.01231668 0.02525547 0.03234171 0.00089016 
0.09152996 0.09615507 0.00840394 0.00452341 0.00246854 0.00319118 0.00704222 0.00806221 0.02714604 0.00302984 0.00245252 0.15411595 0.01224048 0.02536584 0.03245143 0.00088745 
0.09155573 0.09475539 0.00828824 0.00459262 0.00244623 0.00322420 0.00706926 0.00807965 0.02700327 0.00300551 0.00245825 0.15478919 0.01215954 0.02545591 0.03255118 0.00088598 
0.09145940 0.09336218 0.00816414 0.00466463 0.00242049 0.00325613 0.00709881 0.00809079 0.02685948 0.00298245 0.00246360 0.15546554 0.01207425 0.02552564 0.03264101 0.00088578 
0.09124257 0.09198201 0.00803227 0.00473924 0.00239138 0.00328674 0.00713098 0.00809545 0.02671602 0.00296073 0.00246861 0.15614057 0.01198506 0.02557504 0.03272096 0.00088687 
0.09090729 0.09062126 0.00789332 0.00481625 0.00235899 0.00331583 0.00716593 0.00809344 0.02657422 0.00294041 0.00247332 0.15680969 0.01189240 0.02560418 0.03279109 0.00088928 
0.09045607 0.08928611 0.00774804 0.00489545 0.00232343 0.00334321 0.00720375 0.00808462 0.02643545 0.00292156 0.00247774 0.15746812 0.01179678 0.02561321 0.03285152 0.00089303 
0.08989186 0.08798246 0.00759721 0.00497663 0.00228484 0.00336868 0.00724457 0.00806886 0.02630104 0.00290422 0.00248192 0.15811097 0.01169868 0.02560232 0.03290233 0.00089811 
0.08921800 0.08671594 0.00744167 0.00505954 0.00224337 0.00339208 0.00728847 0.00804606 0.02617234 0.00288844 0.00248588 0.15873327 0.01159862 0.02557174 0.03294366 0.00090455 
0.08843825 0.08549187 0.00728225 0.00514393 0.00219918 0.00341325 0.00733555 0.00801616 0.02605067 0.00287427 0.00248963 0.15933004 0.01149713 0.02552178 0.03297565 0.00091234 
0.08755671 0.08431523 0.00711986 0.00522954 0.00215248 0.00343206 0.00738587 0.00797910 0.02593732 0.00286174 0.00249321 0.15989633 0.01139474 0.02545280 0.03299847 0.00092146 
0.08657783 0.08319063 0.00695540 0.00531611 0.00210348 0.00344837 0.00743948 0.00793489 0.02583355 0.00285087 0.00249662 0.16042725 0.01129198 0.02536519 0.03301229 0.00093190 
0.08550638 0.08212231 0.00678981 0.00540335 0.00205240 0.00346208 0.00749642 0.00788353 0.02574058 0.00284171 0.00249988 0.16091806 0.01118938 0.02525940 0.03301731 0.00094364 
0.08434740 0.08111413 0.00662404 0.00549097 0.00199949 0.00347311 0.00755671 0.00782509 0.02565957 0.00283425 0.00250299 0.16136417 0.01108748 0.02513592 0.03301373 0.00095666 
0.08310619 0.08016952 0.00645905 0.00557869 0.00194503 0.00348138 0.00762035 0.00775967 0.02559163 0.00282853 0.00250597 0.16176121 0.01098678 0.02499530 0.03300179 0.00097091 
0.08178827 0.07929148 0.00629580 0.00566619 0.00188929 0.00348684 0.00768732 0.00768742 0.02553781 0.00282455 0.00250881 0.16210507 0.01088778 0.02483809 0.03298171 0.00098636 
0.08039935 0.07848259 0.00613528 0.00575317 0.00183256 0.00348947 0.00775758 0.00760850 0.02549909 0.00282232 0.00251152 0.16239198 0.01079098 0.02466492 0.03295374 0.00100297 
0.07894527 0.07774499 0.00597843 0.00583931 0.00177517 0.00348926 0.00783109 0.00752314 0.02547634 0.00282185 0.00251408 0.16261846 0.01069684 0.02447643 0.03291816 0.00102068 
0.07743204 0.07708037 0.00582621 0.00592431 0.00171743 0.00348621 0.00790775 0.00743162 0.02547039 0.00282313 0.00251649 0.16278145 0.01060579 0.02427328 0.03287523 0.00103943 
0.07586570 0.07648996 0.00567958 0.00600785 0.00165969 0.00348037 0.00798748 0.00733424 0.02548195 0.00282617 0.00251875 0.16287830 0.01051826 0.02405617 0.03282524 0.00105916 
0.07425239 0.07597458 0.00553946 0.00608961 0.00160227 0.00347177 0.00807015 0.00723137 0.02551163 0.00283096 0.00252083 0.16290679 0.01043462 0.02382583 0.03276848 0.00107981 
0.07259824 0.07553459 0.00540674 0.00616928 0.00154555 0.00346049 0.00815563 0.00712341 0.02555996 0.00283750 0.00252273 0.16286520 0.01035521 0.02358299 0.03270526 0.00110130 
0.07090939 0.07516991 0.00528232 0.00624654 0.00148988 0.00344663 0.00824376 0.00701081 0.02562735 0.00284579 0.00252443 0.16275228 0.01028037 0.02332842 0.03263589 0.00112356 
0.06919193 0.07488006 0.00516704 0.00632109 0.00143562 0.00343029 0.00833436 0.00689408 0.02571409 0.00285580 0.00252590 0.16256731 0.01021036 0.02306288 0.03256069 0.00114651 
0.06745186 0.07466411 0.00506170 0.00639263 0.00138314 0.00341160 0.00842724 0.00677375 0.02582038 0.00286754 0.00252714 0.16231008 0.01014543 0.02278715 0.03247998 0.00117006 
0.06569511 0.07452077 0.00496710 0.00646086 0.00133282 0.00339070 0.00852217 0.00665043 0.02594628 0.00288100 0.00252813 0.16198092 0.01008578 0.02250202 0.03239410 0.00119413 
0.06392744 0.07444835 0.00488397 0.00652551 0.00128503 0.00336776 0.00861891 0.00652473 0.02609175 0.00289616 0.00252884 0.16158072 0.01003156 0.02220827 0.03230336 0.00121863 
0.06215449 0.07444479 0.00481299 0.00658628 0.00124013 0.00334295 0.00871722 0.00639735 0.02625662 0.00291301 0.00252926 0.16111089 0.00998289 0.02190671 0.03220812 0.00124347 
0.06038169 0.07450769 0.00475481 0.00664293 0.00119848 0.00331646 0.00881681 0.00626899 0.02644059 0.00293154 0.00252936 0.16057336 0.00993984 0.02159812 0.03210869 0.00126856 
0.05861428 0.07463433 0.00471002 0.00669521 0.00116045 0.00328850 0.00891739 0.00614041 0.02664325 0.00295175 0.00252913 0.15997062 0.00990246 0.02128328 0.03200541 0.00129381 
0.05685727 0.07482167 0.00467917 0.00674287 0.00112637 0.00325928 0.00901866 0.00601240 0.02686407 0.00297361 0.00252856 0.15930564 0.00987073 0.02096297 0.03189862 0.00131912 
0.05511543 0.07506642 0.00466274 0.00678570 0.00109660 0.00322903 0.00912029 0.00588577 0.02710240 0.00299712 0.00252762 0.15858189 0.00984460 0.02063795 0.03178863 0.00134439 
0.05339327 0.07536501 0.00466115 0.00682349 0.00107145 0.00319798 0.00922194 0.00576137 0.02735746 0.00302226 0.00252631 0.15780330 0.00982398 0.02030898 0.03167577 0.00136954 
0.05169504 0.07571367 0.00467479 0.00685608 0.00105124 0.00316636 0.00932326 0.00564008 0.02762838 0.00304903 0.00252461 0.15697425 0.00980875 0.01997679 0.03156033 0.00139446 
0.05002468 0.07610842 0.00470395 0.00688329 0.00103626 0.00313443 0.00942389 0.00552278 0.02791415 0.00307739 0.00252251 0.15609952 0.00979873 0.01964210 0.03144263 0.00141908 
0.04838587 0.07654510 0.00474888 0.00690498 0.00102679 0.00310243 0.00952345 0.00541039 0.02821368 0.00310735 0.00252000 0.15518425 0.00979373 0.01930563 0.03132295 0.00144329 
0.04678195 0.07701943 0.00480978 0.00692103 0.00102308 0.00307062 0.00962155 0.00530382 0.02852574 0.00313888 0.00251709 0.15423394 0.00979351 0.01896804 0.03120156 0.00146701 
0.04521600 0.07752700 0.00488677 0.00693136 0.00102536 0.00303924 0.00971781 0.00520399 0.02884905 0.00317197 0.00251377 0.15325434 0.00979781 0.01863001 0.03107872 0.00149016 
0.04369077 0.07806332 0.00497990 0.00693588 0.00103385 0.00300854 0.00981181 0.00511183 0.02918221 0.00320659 0.00251003 0.15225149 0.00980634 0.01829216 0.03095466 0.00151265 
0.04220870 0.07862385 0.00508918 0.00693455 0.00104873 0.00297877 0.00990317 0.00502825 0.02952374 0.00324273 0.00250589 0.15123158 0.00981878 0.01795511 0.03082961 0.00153439 
0.04077196 0.07920401 0.00521453 0.00692734 0.00107015 0.00295017 0.00999147 0.00495415 0.02987208 0.00328036 0.00250136 0.15020100 0.00983479 0.01761945 0.03070377 0.00155533 
0.03938238 0.07979923 0.00535584 0.00691428 0.00109824 0.00292297 0.01007630 0.00489043 0.03022561 0.00331944 0.00249643 0.14916620 0.00985401 0.01728574 0.03057731 0.00157537 
0.03804154 0.08040498 0.00551291 0.00689537 0.00113310 0.00289740 0.01015724 0.00483794 0.03058264 0.00335995 0.00249113 0.14813371 0.00987609 0.01695452 0.03045038 0.00159446 
0.03675071 0.08101678 0.00568548 0.00687069 0.00117479 0.00287367 0.01023391 0.00479752 0.03094145 0.00340186 0.00248547 0.14711003 0.00990064 0.01662630 0.03032310 0.00161253 
0.03551089 0.08163022 0.00587326 0.00684031 0.00122334 0.00285199 0.01030588 0.00476996 0.03130024 0.00344512 0.00247947 0.14610163 0.00992727 0.01630156 0.03019558 0.00162952 
0.03432285 0.08224101 0.00607587 0.00680435 0.00127875 0.00283254 0.01037276 0.00475602 0.03165722 0.00348968 0.00247315 0.14511484 0.00995560 0.01598075 0.03006787 0.00164538 
0.03318707 0.08284499 0.00629288 0.00676295 0.00134099 0.00281551 0.01043418 0.00475640 0.03201054 0.00353549 0.00246653 0.14415587 0.00998524 0.01566432 0.02994002 0.00166006 
0.03210384 0.08343816 0.00652382 0.00671627 0.00140998 0.00280106 0.01048973 0.00477176 0.03235836 0.00358250 0.00245965 0.14323070 0.01001582 0.01535266 0.02981202 0.00167351 
0.03107320 0.08401669 0.00676816 0.00666449 0.00148562 0.00278933 0.01053907 0.00480267 0.03269885 0.00363064 0.00245251 0.14234507 0.01004695 0.01504616 0.02968386 0.00168570 
0.03009501 0.08457696 0.00702530 0.00660785 0.00156776 0.00278046 0.01058184 0.00484967 0.03303015 0.00367985 0.00244517 0.14150439 0.01007829 0.01474517 0.02955546 0.00169659 
0.02916896 0.08511555 0.00729462 0.00654657 0.00165623 0.00277454 0.01061770 0.00491320 0.03335045 0.00373003 0.00243764 0.14071376 0.01010950 0.01445002 0.02942675 0.00170615 
0.02829453 0.08562929 0.00757545 0.00648093 0.00175081 0.00277168 0.01064634 0.00499365 0.03365797 0.00378112 0.00242996 0.13997786 0.01014026 0.01416103 0.02929758 0.00171437 
0.02747110 0.08611525 0.00786705 0.00641121 0.00185125 0.00277194 0.01066746 0.00509130 0.03395098 0.00383301 0.00242216 0.13930098 0.01017029 0.01387848 0.02916781 0.00172123 
0.02669791 0.08657075 0.00816868 0.00633772 0.00195727 0.00277538 0.01068079 0.00520636 0.03422777 0.00388560 0.00241428 0.13868692 0.01019932 0.01360264 0.02903724 0.00172671 
0.02597407 0.08699341 0.00847952 0.00626079 0.00206855 0.00278203 0.01068609 0.00533895 0.03448673 0.00393878 0.00240634 0.13813901 0.01022713 0.01333375 0.02890564 0.00173081 
0.02529862 0.08738112 0.00879875 0.00618077 0.00218473 0.00279191 0.01068312 0.00548909 0.03472630 0.00399244 0.00239839 0.13766005 0.01025352 0.01307206 0.02877276 0.00173352 
0.02467052 0.08773206 0.00912551 0.00609803 0.00230544 0.00280499 0.01067171 0.00565672 0.03494503 0.00404645 0.00239045 0.13725231 0.01027834 0.01281777 0.02863832 0.00173486 
0.02408866 0.08804471 0.00945889 0.00601294 0.00243026 0.00282127 0.01065169 0.00584165 0.03514155 0.00410067 0.00238257 0.13691749 0.01030148 0.01257109 0.02850200 0.00173483 
0.02355189 0.08831785 0.00979798 0.00592592 0.00255874 0.00284068 0.01062293 0.00604362 0.03531459 0.00415496 0.00237476 0.13665674 0.01032287 0.01233220 0.02836346 0.00173344 
0.02305906 0.08855058 0.01014185 0.00583736 0.00269043 0.00286316 0.01058533 0.00626226 0.03546300 0.00420918 0.00236706 0.13647060 0.01034250 0.01210129 0.02822233 0.00173071 
0.02260897 0.08874227 0.01048953 0.00574768 0.00282483 0.00288863 0.01053885 0.00649709 0.03558576 0.00426316 0.00235951 0.13635904 0.01036037 0.01187850 0.02807824 0.00172667 
0.02220045 0.08889262 0.01084005 0.00565732 0.00296141 0.00291698 0.01048345 0.00674753 0.03568197 0.00431674 0.00235212 0.13632144 0.01037657 0.01166401 0.02793078 0.00172133 
0.02183231 0.08900161 0.01119242 0.00556670 0.00309965 0.00294810 0.01041915 0.00701292 0.03575087 0.00436975 0.00234493 0.13635659 0.01039121 0.01145797 0.02777952 0.00171474 
0.02150342 0.08906953 0.01154564 0.00547627 0.00323899 0.00298183 0.01034601 0.00729246 0.03579185 0.00442201 0.00233796 0.13646272 0.01040446 0.01126050 0.02762403 0.00170693 
0.02121265 0.08909693 0.01189873 0.00538645 0.00337886 0.00301804 0.01026412 0.00758528 0.03580445 0.00447334 0.00233122 0.13663749 0.01041654 0.01107177 0.02746388 0.00169793 
0.02095893 0.08908465 0.01225066 0.00529769 0.00351868 0.00305656 0.01017363 0.00789043 0.03578836 0.00452355 0.00232475 0.13687803 0.01042771 0.01089190 0.02729862 0.00168779 
0.02074123 0.08903378 0.01260045 0.00521043 0.00365786 0.00309721 0.01007470 0.00820683 0.03574344 0.00457245 0.00231854 0.13718095 0.01043828 0.01072103 0.02712781 0.00167654 
0.02055856 0.08894568 0.01294709 0.00512508 0.00379581 0.00313979 0.00996756 0.00853334 0.03566969 0.00461985 0.00231263 0.13754234 0.01044861 0.01055929 0.02695100 0.00166424 
0.02041000 0.08882191 0.01328959 0.00504207 0.00393192 0.00318412 0.00985246 0.00886873 0.03556732 0.00466556 0.00230702 0.13795788 0.01045910 0.01040682 0.02676776 0.00165094 
0.02029467 0.08866427 0.01362698 0.00496181 0.00406560 0.00322998 0.00972972 0.00921170 0.03543666 0.00470937 0.00230172 0.13842278 0.01047019 0.01026376 0.02657768 0.00163668 
0.02021176 0.08847477 0.01395829 0.00488470 0.00419625 0.00327716 0.00959967 0.00956088 0.03527824 0.00475110 0.00229673 0.13893189 0.01048235 0.01013023 0.02638035 0.00162152 
0.02016049 0.08825559 0.01428256 0.00481110 0.00432328 0.00332543 0.00946270 0.00991484 0.03509275 0.00479054 0.00229207 0.13947969 0.01049608 0.01000638 0.02617541 0.00160551 
0.02014017 0.08800908 0.01459886 0.00474140 0.00444612 0.00337458 0.00931922 0.01027207 0.03488104 0.00482752 0.00228772 0.14006038 0.01051194 0.00989236 0.02596252 0.00158872 
0.02015011 0.08773771 0.01490629 0.00467592 0.00456420 0.00342438 0.00916971 0.01063105 0.03464413 0.00486184 0.00228370 0.14066787 0.01053049 0.00978831 0.02574136 0.00157119 
0.02018971 0.08744410 0.01520396 0.00461499 0.00467698 0.00347461 0.00901467 0.01099019 0.03438321 0.00489333 0.00228000 0.14129590 0.01055231 0.00969437 0.02551167 0.00155298 
0.02025838 0.08713097 0.01549102 0.00455891 0.00478393 0.00352504 0.00885462 0.01134789 0.03409962 0.00492180 0.00227661 0.14193802 0.01057801 0.00961070 0.02527323 0.00153416 
0.02035556 0.08680110 0.01576663 0.00450794 0.00488454 0.00357544 0.00869014 0.01170252 0.03379484 0.00494711 0.00227353 0.14258769 0.01060820 0.00953745 0.02502587 0.00151479 
0.02048071 0.08645733 0.01602999 0.00446232 0.00497834 0.00362561 0.00852182 0.01205245 0.03347053 0.00496908 0.00227075 0.14323830 0.01064350 0.00947478 0.02476948 0.00149491 
0.02063332 0.08610255 0.01628035 0.00442227 0.00506488 0.00367533 0.00835031 0.01239602 0.03312844 0.00498757 0.00226826 0.14388325 0.01068453 0.00942284 0.02450401 0.00147460 
0.02081288 0.08573964 0.01651698 0.00438798 0.00514375 0.00372440 0.00817625 0.01273162 0.03277050 0.00500246 0.00226606 0.14451599 0.01073190 0.00938180 0.02422949 0.00145392 
0.02101886 0.08537149 0.01673918 0.00435957 0.00521457 0.00377261 0.00800034 0.01305762 0.03239873 0.00501361 0.00226413 0.14513006 0.01078622 0.00935180 0.02394599 0.00143291 
0.02125072 0.08500094 0.01694632 0.00433718 0.00527699 0.00381979 0.00782328 0.01337244 0.03201529 0.00502094 0.00226246 0.14571917 0.01084807 0.00933301 0.02365369 0.00141165 
0.02150790 0.08463079 0.01713777 0.00432087 0.00533070 0.00386576 0.00764579 0.01367453 0.03162241 0.00502434 0.00226105 0.14627723 0.01091801 0.00932558 0.02335284 0.00139019 
0.02178980 0.08426376 0.01731299 0.00431070 0.00537546 0.00391035 0.00746861 0.01396240 0.03122245 0.00502374 0.00225988 0.14679840 0.01099657 0.00932965 0.02304377 0.00136859 
0.02209578 0.08390249 0.01747145 0.00430667 0.00541103 0.00395342 0.00729251 0.01423460 0.03081781 0.00501909 0.00225894 0.14727717 0.01108425 0.00934538 0.02272689 0.00134691 
0.02242514 0.08354950 0.01761268 0.00430874 0.00543725 0.00399482 0.00711823 0.01448976 0.03041100 0.00501035 0.00225823 0.14770835 0.01118149 0.00937288 0.02240271 0.00132521 
0.02277712 0.08320720 0.01773625 0.00431686 0.00545400 0.00403445 0.00694656 0.01472658 0.03000455 0.00499751 0.00225774 0.14808716 0.01128869 0.00941229 0.02207184 0.00130353 
0.02315088 0.08287783 0.01784178 0.00433092 0.00546118 0.00407218 0.00677825 0.01494387 0.02960106 0.00498055 0.00225746 0.14840924 0.01140621 0.00946372 0.02173497 0.00128194 
0.02354551 0.08256350 0.01792896 0.00435077 0.00545877 0.00410793 0.00661409 0.01514049 0.02920313 0.00495952 0.00225739 0.14867072 0.01153435 0.00952726 0.02139289 0.00126049 
0.02396000 0.08226615 0.01799749 0.00437625 0.00544679 0.00414162 0.00645484 0.01531544 0.02881340 0.00493444 0.00225753 0.14886822 0.01167331 0.00960301 0.02104648 0.00123923 
0.02439326 0.08198754 0.01804717 0.00440714 0.00542531 0.00417320 0.00630126 0.01546780 0.02843450 0.00490538 0.00225789 0.14899889 0.01182327 0.00969101 0.02069672 0.00121822 
0.02484409 0.08172924 0.01807780 0.00444319 0.00539443 0.00420261 0.00615408 0.01559680 0.02806905 0.00487243 0.00225845 0.14906047 0.01198430 0.00979131 0.02034467 0.00119750 
0.02531120 0.08149263 0.01808928 0.00448413 0.00535434 0.00422984 0.00601403 0.01570176 0.02771963 0.00483570 0.00225924 0.14905124 0.01215643 0.00990394 0.01999151 0.00117713 
0.02579318 0.08127889 0.01808153 0.00452965 0.00530523 0.00425487 0.00588184 0.01578214 0.02738880 0.00479531 0.00226026 0.14897012 0.01233957 0.01002888 0.01963848 0.00115715 
0.02628854 0.08108899 0.01805453 0.00457941 0.00524737 0.00427770 0.00575817 0.01583752 0.02707904 0.00475140 0.00226152 0.14881662 0.01253358 0.01016611 0.01928692 0.00113760 
0.02679566 0.08092373 0.01800833 0.00463304 0.00518107 0.00429835 0.00564368 0.01586764 0.02679276 0.00470416 0.00226303 0.14859087 0.01273823 0.01031555 0.01893825 0.00111855 
0.02731282 0.08078367 0.01794301 0.00469014 0.00510667 0.00431686 0.00553901 0.01587235 0.02653231 0.00465376 0.00226482 0.14829366 0.01295318 0.01047711 0.01859395 0.00110001 
0.02783821 0.08066918 0.01785872 0.00475030 0.00502457 0.00433328 0.00544473 0.01585164 0.02629990 0.00460041 0.00226691 0.14792637 0.01317803 0.01065066 0.01825558 0.00108205 
0.02836992 0.08058043 0.01775564 0.00481307 0.00493520 0.00434766 0.00536142 0.01580566 0.02609767 0.00454435 0.00226932 0.14749101 0.01341228 0.01083603 0.01792477 0.00106470 
0.02890594 0.08051742 0.01763403 0.00487801 0.00483902 0.00436008 0.00528957 0.01573467 0.02592760 0.00448580 0.00227207 0.14699022 0.01365537 0.01103301 0.01760320 0.00104800 
0.02944420 0.08047995 0.01749419 0.00494463 0.00473656 0.00437063 0.00522965 0.01563910 0.02579155 0.00442503 0.00227520 0.14642721 0.01390661 0.01124136 0.01729260 0.00103198 
0.02998252 0.08046763 0.01733645 0.00501244 0.00462834 0.00437939 0.00518209 0.01551948 0.02569122 0.00436231 0.00227873 0.14580579 0.01416526 0.01146079 0.01699472 0.00101668 
0.03051869 0.08047993 0.01716123 0.00508096 0.00451493 0.00438647 0.00514726 0.01537650 0.02562814 0.00429793 0.00228271 0.14513031 0.01443049 0.01169098 0.01671136 0.00100214 
0.03105042 0.08051615 0.01696897 0.00514967 0.00439694 0.00439200 0.00512549 0.01521096 0.02560370 0.00423219 0.00228716 0.14440566 0.01470140 0.01193154 0.01644434 0.00098839 
0.03157541 0.08057545 0.01676016 0.00521806 0.00427498 0.00439607 0.00511702 0.01502381 0.02561907 0.00416539 0.00229213 0.14363722 0.01497700 0.01218205 0.01619547 0.00097545 
0.03209130 0.08065687 0.01653535 0.00528563 0.00414968 0.00439883 0.00512208 0.01481607 0.02567525 0.00409786 0.00229765 0.14283082 0.01525624 0.01244205 0.01596657 0.00096336 
0.03259574 0.08075933 0.01629512 0.00535187 0.00402172 0.00440040 0.00514082 0.01458893 0.02577303 0.00402991 0.00230377 0.14199273 0.01553801 0.01271103 0.01575944 0.00095214 
0.03308636 0.08088165 0.01604011 0.00541627 0.00389174 0.00440091 0.00517332 0.01434363 0.02591300 0.00396187 0.00231052 0.14112957 0.01582114 0.01298843 0.01557585 0.00094182 
0.03356083 0.08102256 0.01577098 0.00547835 0.00376045 0.00440050 0.00521961 0.01408155 0.02609554 0.00389408 0.00231794 0.14024834 0.01610441 0.01327365 0.01541755 0.00093241 
0.03401684 0.08118073 0.01548845 0.00553761 0.00362850 0.00439931 0.00527968 0.01380413 0.02632080 0.00382688 0.00232608 0.13935627 0.01638656 0.01356603 0.01528620 0.00092393 
0.03445215 0.08135479 0.01519327 0.00559361 0.00349660 0.00439747 0.00535341 0.01351289 0.02658871 0.00376058 0.00233497 0.13846085 0.01666626 0.01386487 0.01518344 0.00091641 
0.03486456 0.08154330 0.01488623 0.00564588 0.00336542 0.00439512 0.00544065 0.01320943 0.02689899 0.00369552 0.00234465 0.13756976 0.01694221 0.01416945 0.01511080 0.00090986 
0.03525199 0.08174482 0.01456815 0.00569400 0.00323564 0.00439239 0.00554118 0.01289539 0.02725112 0.00363203 0.00235515 0.13669078 0.01721303 0.01447897 0.01506975 0.00090428 
0.03561244 0.08195792 0.01423988 0.00573758 0.00310793 0.00438940 0.00565472 0.01257249 0.02764435 0.00357043 0.00236651 0.13583177 0.01747737 0.01479261 0.01506162 0.00089970 
0.03594404 0.08218114 0.01390231 0.00577623 0.00298294 0.00438629 0.00578092 0.01224245 0.02807772 0.00351101 0.00237877 0.13500062 0.01773385 0.01510951 0.01508766 0.00089611 
0.03624505 0.08241308 0.01355635 0.00580961 0.00286130 0.00438316 0.00591938 0.01190704 0.02855001 0.00345409 0.00239194 0.13420514 0.01798110 0.01542876 0.01514898 0.00089352 
0.03651390 0.08265235 0.01320294 0.00583741 0.00274364 0.00438014 0.00606961 0.01156802 0.02905983 0.00339994 0.00240604 0.13345307 0.01821779 0.01574945 0.01524657 0.00089193 
0.03674919 0.08289763 0.01284303 0.00585935 0.00263054 0.00437731 0.00623110 0.01122718 0.02960552 0.00334883 0.00242111 0.13275196 0.01844258 0.01607059 0.01538124 0.00089134 
0.03694968 0.08314764 0.01247759 0.00587518 0.00252257 0.00437478 0.00640326 0.01088628 0.03018524 0.00330103 0.00243715 0.13210917 0.01865418 0.01639119 0.01555368 0.00089174 
0.03711435 0.08340120 0.01210764 0.00588470 0.00242027 0.00437264 0.00658545 0.01054707 0.03079695 0.00325677 0.00245417 0.13153176 0.01885133 0.01671025 0.01576440 0.00089313 
0.03724240 0.08365717 0.01173417 0.00588775 0.00232413 0.00437095 0.00677697 0.01021127 0.03143837 0.00321626 0.00247218 0.13102648 0.01903285 0.01702671 0.01601372 0.00089550 
0.03733324 0.08391453 0.01135820 0.00588419 0.00223462 0.00436979 0.00697707 0.00988054 0.03210708 0.00317970 0.00249117 0.13059969 0.01919759 0.01733952 0.01630181 0.00089883 
0.03738652 0.08417233 0.01098076 0.00587395 0.00215218 0.00436922 0.00718496 0.00955652 0.03280045 0.00314726 0.00251113 0.13025731 0.01934447 0.01764762 0.01662863 0.00090311 
0.03740213 0.08442975 0.01060289 0.00585699 0.00207718 0.00436927 0.00739981 0.00924076 0.03351570 0.00311910 0.00253205 0.13000480 0.01947252 0.01794992 0.01699396 0.00090832 
0.03738021 0.08468603 0.01022563 0.00583331 0.00200998 0.00436997 0.00762074 0.00893475 0.03424988 0.00309535 0.00255391 0.12984708 0.01958081 0.01824534 0.01739736 0.00091444 
0.03732115 0.08494055 0.00985001 0.00580296 0.00195088 0.00437137 0.00784682 0.00863990 0.03499990 0.00307609 0.00257668 0.12978850 0.01966854 0.01853282 0.01783823 0.00092143 
0.03722563 0.08519276 0.00947706 0.00576602 0.00190014 0.00437346 0.00807711 0.00835752 0.03576256 0.00306141 0.00260033 0.12983283 0.01973498 0.01881126 0.01831573 0.00092927 
0.03709455 0.08544224 0.00910781 0.00572263 0.00185797 0.00437624 0.00831063 0.00808884 0.03653452 0.00305135 0.00262481 0.12998316 0.01977953 0.01907962 0.01882885 0.00093794 
0.03692909 0.08568866 0.00874328 0.00567297 0.00182453 0.00437971 0.00854636 0.00783498 0.03731237 0.00304594 0.00265007 0.13024195 0.01980167 0.01933684 0.01937635 0.00094739 
0.03673071 0.08593179 0.00838447 0.00561725 0.00179994 0.00438385 0.00878329 0.00759695 0.03809258 0.00304516 0.00267607 0.13061094 0.01980103 0.01958190 0.01995682 0.00095759 
0.03650109 0.08617146 0.00803239 0.00555572 0.00178427 0.00438863 0.00902036 0.00737563 0.03887160 0.00304897 0.00270273 0.13109117 0.01977734 0.01981381 0.02056863 0.00096850 
0.03624219 0.08640763 0.00768800 0.00548870 0.00177754 0.00439400 0.00925653 0.00717182 0.03964581 0.00305733 0.00273000 0.13168292 0.01973044 0.02003159 0.02120998 0.00098007 
0.03595619 0.08664030 0.00735226 0.00541651 0.00177972 0.00439993 0.00949073 0.00698616 0.04041156 0.00307013 0.00275780 0.13238575 0.01966032 0.02023432 0.02187888 0.00099228 
0.03564551 0.08686956 0.00702611 0.00533952 0.00179074 0.00440634 0.00972189 0.00681919 0.04116520 0.00308726 0.00278604 0.13319847 0.01956708 0.02042112 0.02257316 0.00100505 
0.03531281 0.08709555 0.00671044 0.00525813 0.00181048 0.00441317 0.00994896 0.00667131 0.04190308 0.00310858 0.00281466 0.13411912 0.01945095 0.02059114 0.02329048 0.00101836 
0.03496093 0.08731843 0.00640615 0.00517278 0.00183876 0.00442036 0.01017089 0.00654280 0.04262159 0.00313392 0.00284355 0.13514500 0.01931229 0.02074360 0.02402837 0.00103214 
0.03459291 0.08753845 0.00611409 0.00508392 0.00187538 0.00442782 0.01038663 0.00643381 0.04331716 0.00316308 0.00287262 0.13627266 0.01915159 0.02087777 0.02478417 0.00104635 
0.03421198 0.08775584 0.00583506 0.00499205 0.00192008 0.00443547 0.01059516 0.00634437 0.04398628 0.00319585 0.00290178 0.13749795 0.01896944 0.02099297 0.02555513 0.00106094 
0.03382151 0.08797085 0.00556987 0.00489768 0.00197257 0.00444322 0.01079549 0.00627438 0.04462553 0.00323199 0.00293094 0.13881599 0.01876657 0.02108860 0.02633836 0.00107584 
0.03342502 0.08818374 0.00531926 0.00480134 0.00203251 0.00445097 0.01098665 0.00622364 0.04523161 0.00327125 0.00295998 0.14022122 0.01854382 0.02116414 0.02713085 0.00109100 
0.03302613 0.08839476 0.00508394 0.00470356 0.00209953 0.00445863 0.01116770 0.00619180 0.04580132 0.00331333 0.00298881 0.14170743 0.01830215 0.02121910 0.02792953 0.00110637 
0.03262857 0.08860412 0.00486459 0.00460491 0.00217323 0.00446609 0.01133775 0.00617844 0.04633161 0.00335796 0.00301731 0.14326779 0.01804260 0.02125311 0.02873123 0.00112188 
0.03223612 0.08881202 0.00466183 0.00450595 0.00225316 0.00447327 0.01149595 0.00618300 0.04681959 0.00340481 0.00304540 0.14489488 0.01776635 0.02126586 0.02953274 0.00113749 
0.03185263 0.08901857 0.00447626 0.00440727 0.00233885 0.00448005 0.01164149 0.00620483 0.04726254 0.00345357 0.00307296 0.14658076 0.01747463 0.02125713 0.03033079 0.00115313 
0.03148194 0.08922387 0.00430842 0.00430943 0.00242982 0.00448634 0.01177361 0.00624320 0.04765793 0.00350390 0.00309990 0.14831699 0.01716879 0.02122676 0.03112212 0.00116875 
0.03112790 0.08942793 0.00415880 0.00421300 0.00252553 0.00449204 0.01189162 0.00629729 0.04800345 0.00355545 0.00312611 0.15009466 0.01685023 0.02117470 0.03190341 0.00118429 
0.03079433 0.08963067 0.00402787 0.00411856 0.00262545 0.00449705 0.01199488 0.00636618 0.04829698 0.00360788 0.00315149 0.15190452 0.01652044 0.02110098 0.03267141 0.00119969 
0.03048498 0.08983195 0.00391602 0.00402667 0.00272903 0.00450127 0.01208282 0.00644893 0.04853666 0.00366082 0.00317596 0.15373694 0.01618095 0.02100572 0.03342286 0.00121490 
0.03020350 0.09003153 0.00382362 0.00393788 0.00283568 0.00450463 0.01215493 0.00654448 0.04872086 0.00371393 0.00319943 0.15558205 0.01583335 0.02088911 0.03415456 0.00122987 
0.02995346 0.09022905 0.00375096 0.00385271 0.00294482 0.00450703 0.01221078 0.00665178 0.04884823 0.00376683 0.00322181 0.15742975 0.01547926 0.02075145 0.03486339 0.00124454 
0.02973826 0.09042408 0.00369830 0.00377168 0.00305586 0.00450839 0.01225000 0.00676968 0.04891766 0.00381918 0.00324302 0.15926980 0.01512034 0.02059311 0.03554628 0.00125887 
0.02956115 0.09061607 0.00366586 0.00369529 0.00316820 0.00450864 0.01227230 0.00689705 0.04892831 0.00387061 0.00326300 0.16109188 0.01475826 0.02041457 0.03620030 0.00127280 
0.02942518 0.09080436 0.00365379 0.00362399 0.00328124 0.00450772 0.01227748 0.00703271 0.04887965 0.00392080 0.00328167 0.16288564 0.01439468 0.02021636 0.03682261 0.00128630 
0.02933318 0.09098818 0.00366218 0.00355823 0.00339438 0.00450556 0.01226540 0.00717547 0.04877141 0.00396939 0.00329898 0.16464080 0.01403130 0.01999912 0.03741051 0.00129930 
0.02928775 0.09116666 0.00369109 0.00349842 0.00350702 0.00450210 0.01223601 0.00732413 0.04860362 0.00401607 0.00331489 0.16634716 0.01366976 0.01976356 0.03796145 0.00131179 
0.02929123 0.09133882 0.00374053 0.00344493 0.00361859 0.00449731 0.01218934 0.00747753 0.04837659 0.00406053 0.00332934 0.16799473 0.01331171 0.01951047 0.03847303 0.00132371 
0.02934567 0.09150357 0.00381043 0.00339809 0.00372851 0.00449115 0.01212551 0.00763448 0.04809095 0.00410246 0.00334231 0.16957377 0.01295873 0.01924070 0.03894305 0.00133503 
0.02945283 0.09165973 0.00390070 0.00335821 0.00383621 0.00448359 0.01204471 0.00779385 0.04774758 0.00414161 0.00335377 0.17107483 0.01261239 0.01895520 0.03936946 0.00134573 
0.02961415 0.09180605 0.00401119 0.00332555 0.00394114 0.00447462 0.01194721 0.00795453 0.04734769 0.00417769 0.00336371 0.17248885 0.01227418 0.01865496 0.03975046 0.00135576 
0.02983073 0.09194116 0.00414167 0.00330032 0.00404279 0.00446421 0.01183337 0.00811545 0.04689274 0.00421049 0.00337212 0.17380720 0.01194554 0.01834103 0.04008440 0.00136510 
0.03010333 0.09206365 0.00429191 0.00328270 0.00414065 0.00445237 0.01170363 0.00827560 0.04638448 0.00423979 0.00337900 0.17502173 0.01162783 0.01801454 0.04036990 0.00137373 
0.03043234 0.09217201 0.00446159 0.00327282 0.00423424 0.00443912 0.01155849 0.00843401 0.04582494 0.00426540 0.00338436 0.17612484 0.01132232 0.01767666 0.04060577 0.00138164 
0.03081782 0.09226472 0.00465035 0.00327078 0.00432310 0.00442446 0.01139855 0.00858978 0.04521640 0.00428716 0.00338822 0.17710954 0.01103023 0.01732860 0.04079105 0.00138879 
0.03125942 0.09234017 0.00485778 0.00327660 0.00440681 0.00440841 0.01122447 0.00874208 0.04456137 0.00430493 0.00339061 0.17796946 0.01075263 0.01697161 0.04092505 0.00139519 
0.03175643 0.09239677 0.00508344 0.00329028 0.00448499 0.00439103 0.01103699 0.00889015 0.04386264 0.00431861 0.00339157 0.17869895 0.01049052 0.01660698 0.04100728 0.00140082 
0.03230776 0.09243288 0.00532683 0.00331178 0.00455726 0.00437234 0.01083689 0.00903332 0.04312319 0.00432812 0.00339113 0.17929305 0.01024480 0.01623603 0.04103752 0.00140568 
0.03291195 0.09244687 0.00558738 0.00334100 0.00462330 0.00435239 0.01062505 0.00917099 0.04234622 0.00433342 0.00338935 0.17974759 0.01001625 0.01586010 0.04101575 0.00140975 
0.03356715 0.09243712 0.00586451 0.00337779 0.00468283 0.00433126 0.01040239 0.00930265 0.04153510 0.00433447 0.00338629 0.18005916 0.00980552 0.01548055 0.04094224 0.00141305 
0.03427116 0.09240203 0.00615759 0.00342198 0.00473558 0.00430898 0.01016988 0.00942787 0.04069341 0.00433131 0.00338200 0.18022519 0.00961316 0.01509873 0.04081747 0.00141557 
0.03502142 0.09234005 0.00646592 0.00347332 0.00478134 0.00428565 0.00992856 0.00954632 0.03982485 0.00432396 0.00337655 0.18024394 0.00943960 0.01471603 0.04064214 0.00141732 
0.03581501 0.09224967 0.00678879 0.00353156 0.00481994 0.00426134 0.00967950 0.00965774 0.03893326 0.00431250 0.00337002 0.18011449 0.00928515 0.01433379 0.04041722 0.00141831 
0.03664870 0.09212946 0.00712543 0.00359638 0.00485122 0.00423612 0.00942381 0.00976199 0.03802262 0.00429704 0.00336248 0.17983680 0.00914998 0.01395338 0.04014386 0.00141855 
0.03751891 0.09197807 0.00747505 0.00366744 0.00487510 0.00421008 0.00916265 0.00985898 0.03709696 0.00427771 0.00335401 0.17941166 0.00903415 0.01357613 0.03982346 0.00141805 
0.03842179 0.09179423 0.00783680 0.00374434 0.00489152 0.00418332 0.00889718 0.00994873 0.03616040 0.00425466 0.00334468 0.17884073 0.00893762 0.01320334 0.03945759 0.00141684 
0.03935320 0.09157679 0.00820981 0.00382667 0.00490045 0.00415592 0.00862862 0.01003135 0.03521711 0.00422809 0.00333459 0.17812651 0.00886021 0.01283632 0.03904804 0.00141493 
0.04030875 0.09132471 0.00859317 0.00391399 0.00490190 0.00412799 0.00835818 0.01010701 0.03427127 0.00419821 0.00332381 0.17727230 0.00880164 0.01247629 0.03859678 0.00141235 
0.04128380 0.09103708 0.00898596 0.00400581 0.00489595 0.00409962 0.00808709 0.01017596 0.03332706 0.00416526 0.00331242 0.17628223 0.00876150 0.01212447 0.03810596 0.00140910 
0.04227354 0.09071312 0.00938719 0.00410163 0.00488268 0.00407091 0.00781658 0.01023853 0.03238865 0.00412949 0.00330051 0.17516119 0.00873930 0.01178202 0.03757788 0.00140523 
0.04327295 0.09035221 0.00979589 0.00420092 0.00486223 0.00404197 0.00754790 0.01029512 0.03146013 0.00409121 0.00328815 0.17391482 0.00873443 0.01145005 0.03701497 0.00140076 
0.04427689 0.08995388 0.01021102 0.00430314 0.00483477 0.00401288 0.00728226 0.01034618 0.03054555 0.00405070 0.00327541 0.17254947 0.00874621 0.01112959 0.03641983 0.00139571 
0.04528008 0.08951780 0.01063157 0.00440773 0.00480049 0.00398375 0.00702087 0.01039222 0.02964884 0.00400829 0.00326236 0.17107215 0.00877384 0.01082165 0.03579516 0.00139011 
0.04627718 0.08904383 0.01105646 0.00451410 0.00475964 0.00395467 0.00676494 0.01043380 0.02877384 0.00396433 0.00324908 0.16949049 0.00881647 0.01052715 0.03514374 0.00138400 
0.04726279 0.08853199 0.01148463 0.00462168 0.00471249 0.00392575 0.00651561 0.01047153 0.02792422 0.00391915 0.00323561 0.16781269 0.00887316 0.01024692 0.03446847 0.00137740 
0.04823149 0.08798247 0.01191499 0.00472986 0.00465934 0.00389706 0.00627404 0.01050604 0.02710351 0.00387313 0.00322202 0.16604746 0.00894291 0.00998176 0.03377230 0.00137035 
0.04917787 0.08739562 0.01234645 0.00483806 0.00460051 0.00386870 0.00604130 0.01053799 0.02631505 0.00382664 0.00320836 0.16420395 0.00902467 0.00973237 0.03305824 0.00136288 
0.05009660 0.08677198 0.01277791 0.00494569 0.00453636 0.00384075 0.00581845 0.01056807 0.02556199 0.00378006 0.00319465 0.16229174 0.00911732 0.00949935 0.03232933 0.00135503 
0.05098240 0.08611225 0.01320827 0.00505214 0.00446727 0.00381328 0.00560650 0.01059699 0.02484725 0.00373377 0.00318095 0.16032070 0.00921973 0.00928326 0.03158863 0.00134681 
0.05183014 0.08541731 0.01363642 0.00515684 0.00439365 0.00378638 0.00540638 0.01062545 0.02417353 0.00368815 0.00316726 0.15830099 0.00933073 0.00908455 0.03083922 0.00133828 
0.05263482 0.08468817 0.01406126 0.00525921 0.00431591 0.00376012 0.00521899 0.01065416 0.02354327 0.00364358 0.00315361 0.15624295 0.00944911 0.00890359 0.03008413 0.00132945 
0.05339163 0.08392605 0.01448171 0.00535870 0.00423449 0.00373454 0.00504515 0.01068380 0.02295866 0.00360046 0.00314002 0.15415705 0.00957367 0.00874066 0.02932641 0.00132037 
0.05409600 0.08313227 0.01489669 0.00545476 0.00414986 0.00370972 0.00488561 0.01071507 0.02242160 0.00355914 0.00312647 0.15205381 0.00970320 0.00859597 0.02856903 0.00131106 
0.05474358 0.08230834 0.01530515 0.00554686 0.00406248 0.00368569 0.00474106 0.01074862 0.02193371 0.00352000 0.00311297 0.14994374 0.00983649 0.00846963 0.02781492 0.00130156 
0.05533030 0.08145588 0.01570603 0.00563452 0.00397283 0.00366251 0.00461211 0.01078509 0.02149633 0.00348339 0.00309949 0.14783726 0.00997234 0.00836166 0.02706691 0.00129190 
0.05585242 0.08057663 0.01609832 0.00571724 0.00388140 0.00364021 0.00449928 0.01082506 0.02111049 0.00344964 0.00308602 0.14574465 0.01010960 0.00827201 0.02632778 0.00128210 
0.05630649 0.07967247 0.01648104 0.00579459 0.00378868 0.00361881 0.00440303 0.01086910 0.02077693 0.00341908 0.00307252 0.14367595 0.01024711 0.00820055 0.02560018 0.00127221 
0.05668945 0.07874539 0.01685324 0.00586615 0.00369517 0.00359835 0.00432371 0.01091772 0.02049605 0.00339202 0.00305897 0.14164091 0.01038378 0.00814704 0.02488664 0.00126224 
0.05699860 0.07779745 0.01721399 0.00593153 0.00360137 0.00357884 0.00426161 0.01097138 0.02026798 0.00336874 0.00304531 0.13964895 0.01051855 0.00811119 0.02418960 0.00125223 
0.05723164 0.07683081 0.01756243 0.00599038 0.00350777 0.00356028 0.00421692 0.01103048 0.02009252 0.00334950 0.00303149 0.13770906 0.01065040 0.00809262 0.02351134 0.00124220 
0.05738666 0.07584771 0.01789773 0.00604237 0.00341487 0.00354269 0.00418975 0.01109538 0.01996919 0.00333455 0.00301747 0.13582975 0.01077839 0.00809089 0.02285399 0.00123218 
0.05746222 0.07485043 0.01821911 0.00608724 0.00332315 0.00352606 0.00418012 0.01116637 0.01989718 0.00332408 0.00300317 0.13401901 0.01090163 0.00810547 0.02221953 0.00122220 
0.05745727 0.07384132 0.01852585 0.00612474 0.00323309 0.00351039 0.00418794 0.01124368 0.01987540 0.00331830 0.00298855 0.13228428 0.01101930 0.00813579 0.02160979 0.00121229 
0.05737123 0.07282275 0.01881729 0.00615467 0.00314516 0.00349565 0.00421308 0.01132747 0.01990249 0.00331735 0.00297354 0.13063233 0.01113066 0.00818119 0.02102642 0.00120246 
0.05720399 0.07179712 0.01909282 0.00617686 0.00305981 0.00348184 0.00425529 0.01141784 0.01997680 0.00332136 0.00295806 0.12906931 0.01123503 0.00824098 0.02047089 0.00119273 
0.05695585 0.07076684 0.01935192 0.00619120 0.00297748 0.00346893 0.00431424 0.01151483 0.02009643 0.00333043 0.00294205 0.12760065 0.01133182 0.00831439 0.01994450 0.00118314 
0.05662760 0.06973431 0.01959411 0.00619760 0.00289859 0.00345689 0.00438953 0.01161841 0.02025921 0.00334462 0.00292545 0.12623105 0.01142051 0.00840063 0.01944837 0.00117370 
0.05622048 0.06870193 0.01981902 0.00619601 0.00282355 0.00344570 0.00448066 0.01172848 0.02046277 0.00336396 0.00290818 0.12496447 0.01150069 0.00849885 0.01898342 0.00116444 
0.05573616 0.06767206 0.02002632 0.00618645 0.00275273 0.00343532 0.00458707 0.01184489 0.02070449 0.00338845 0.00289020 0.12380407 0.01157201 0.00860815 0.01855041 0.00115537 
0.05517676 0.06664705 0.02021580 0.00616894 0.00268651 0.00342571 0.00470813 0.01196743 0.02098158 0.00341806 0.00287142 0.12275226 0.01163420 0.00872763 0.01814988 0.00114651 
0.05454483 0.06562917 0.02038729 0.00614357 0.00262520 0.00341685 0.00484313 0.01209583 0.02129104 0.00345272 0.00285181 0.12181062 0.01168709 0.00885635 0.01778220 0.00113788 
0.05384333 0.06462066 0.02054073 0.00611044 0.00256914 0.00340868 0.00499128 0.01222976 0.02162972 0.00349234 0.00283131 0.12097995 0.01173059 0.00899332 0.01744758 0.00112950 
0.05307560 0.06362370 0.02067616 0.00606973 0.00251860 0.00340118 0.00515177 0.01236884 0.02199435 0.00353678 0.00280988 0.12026025 0.01176469 0.00913757 0.01714601 0.00112139 
0.05224538 0.06264036 0.02079368 0.00602161 0.00247385 0.00339430 0.00532368 0.01251265 0.02238151 0.00358589 0.00278749 0.11965076 0.01178945 0.00928812 0.01687732 0.00111356 
0.05135675 0.06167267 0.02089348 0.00596631 0.00243511 0.00338802 0.00550608 0.01266074 0.02278770 0.00363948 0.00276410 0.11914992 0.01180502 0.00944394 0.01664119 0.00110602 
0.05041413 0.06072256 0.02097588 0.00590409 0.00240258 0.00338228 0.00569799 0.01281261 0.02320933 0.00369732 0.00273970 0.11875547 0.01181162 0.00960406 0.01643710 0.00109879 
0.04942224 0.05979185 0.02104124 0.00583523 0.00237645 0.00337706 0.00589835 0.01296773 0.02364280 0.00375918 0.00271429 0.11846439 0.01180953 0.00976748 0.01626440 0.00109189 
0.04838607 0.05888227 0.02109005 0.00576006 0.00235685 0.00337233 0.00610612 0.01312555 0.02408442 0.00382477 0.00268786 0.11827300 0.01179910 0.00993320 0.01612226 0.00108533 
0.04731086 0.05799546 0.02112287 0.00567892 0.00234390 0.00336806 0.00632018 0.01328550 0.02453054 0.00389381 0.00266044 0.11817698 0.01178075 0.01010027 0.01600973 0.00107912 
0.04620208 0.05713294 0.02114036 0.00559218 0.00233767 0.00336422 0.00653942 0.01344699 0.02497752 0.00396597 0.00263205 0.11817140 0.01175494 0.01026772 0.01592573 0.00107327 
0.04506536 0.05629611 0.02114324 0.00550023 0.00233822 0.00336079 0.00676270 0.01360943 0.02542175 0.00404092 0.00260274 0.11825078 0.01172219 0.01043465 0.01586903 0.00106780 
0.04390648 0.05548627 0.02113236 0.00540350 0.00234556 0.00335776 0.00698888 0.01377222 0.02585969 0.00411830 0.00257255 0.11840911 0.01168306 0.01060015 0.01583831 0.00106271 
0.04273135 0.05470460 0.02110862 0.00530240 0.00235969 0.00335511 0.00721678 0.01393479 0.02628787 0.00419774 0.00254156 0.11863997 0.01163815 0.01076336 0.01583214 0.00105802 
0.04154594 0.05395217 0.02107300 0.00519740 0.00238056 0.00335283 0.00744527 0.01409654 0.02670295 0.00427885 0.00250985 0.11893652 0.01158808 0.01092344 0.01584898 0.00105373 
0.04035627 0.05322992 0.02102656 0.00508895 0.00240809 0.00335094 0.00767319 0.01425692 0.02710170 0.00436123 0.00247750 0.11929160 0.01153352 0.01107962 0.01588724 0.00104986 
0.03916836 0.05253868 0.02097044 0.00497754 0.00244220 0.00334942 0.00789942 0.01441538 0.02748103 0.00444449 0.00244463 0.11969776 0.01147513 0.01123116 0.01594524 0.00104640 
0.03798820 0.05187917 0.02090584 0.00486363 0.00248274 0.00334829 0.00812283 0.01457141 0.02783804 0.00452820 0.00241136 0.12014738 0.01141361 0.01137734 0.01602124 0.00104338 
0.03682172 0.05125199 0.02083400 0.00474773 0.00252956 0.00334756 0.00834234 0.01472452 0.02816996 0.00461196 0.00237783 0.12063266 0.01134965 0.01151753 0.01611346 0.00104079 
0.03567473 0.05065763 0.02075624 0.00463033 0.00258247 0.00334726 0.00855690 0.01487427 0.02847428 0.00469534 0.00234417 0.12114575 0.01128394 0.01165113 0.01622009 0.00103864 
0.03455292 0.05009647 0.02067392 0.00451192 0.00264125 0.00334742 0.00876547 0.01502025 0.02874865 0.00477795 0.00231055 0.12167879 0.01121716 0.01177759 0.01633929 0.00103694 
0.03346178 0.04956878 0.02058842 0.00439300 0.00270567 0.00334806 0.00896709 0.01516209 0.02899097 0.00485935 0.00227714 0.12222396 0.01115000 0.01189641 0.01646921 0.00103568 
0.03240664 0.04907471 0.02050118 0.00427405 0.00277547 0.00334922 0.00916082 0.01529946 0.02919936 0.00493917 0.00224411 0.12277358 0.01108312 0.01200717 0.01660801 0.00103487 
0.03139255 0.04861435 0.02041366 0.00415558 0.00285034 0.00335094 0.00934578 0.01543211 0.02937220 0.00501699 0.00221166 0.12332014 0.01101714 0.01210948 0.01675385 0.00103451 
0.03042431 0.04818765 0.02032731 0.00403806 0.00293000 0.00335328 0.00952115 0.01555981 0.02950811 0.00509244 0.00217998 0.12385639 0.01095268 0.01220303 0.01690492 0.00103460 
0.02950643 0.04779449 0.02024363 0.00392195 0.00301410 0.00335628 0.00968616 0.01568239 0.02960599 0.00516516 0.00214929 0.12437537 0.01089030 0.01228754 0.01705945 0.00103515 
0.02864310 0.04743465 0.02016408 0.00380773 0.00310229 0.00336001 0.00984013 0.01579974 0.02966499 0.00523480 0.00211978 0.12487050 0.01083055 0.01236282 0.01721570 0.00103614 
0.02783814 0.04710783 0.02009013 0.00369584 0.00319422 0.00336451 0.00998241 0.01591180 0.02968452 0.00530101 0.00209169 0.12533559 0.01077391 0.01242870 0.01737200 0.00103757 
0.02709503 0.04681363 0.02002323 0.00358671 0.00328949 0.00336986 0.01011245 0.01601856 0.02966429 0.00536350 0.00206523 0.12576493 0.01072084 0.01248509 0.01752673 0.00103944 
0.02641686 0.04655160 0.01996480 0.00348075 0.00338771 0.00337611 0.01022977 0.01612007 0.02960425 0.00542198 0.00204063 0.12615332 0.01067174 0.01253195 0.01767836 0.00104174 
0.02580629 0.04632119 0.01991622 0.00337838 0.00348847 0.00338333 0.01033396 0.01621643 0.02950465 0.00547617 0.00201810 0.12649609 0.01062696 0.01256930 0.01782543 0.00104446 
0.02526560 0.04612181 0.01987883 0.00327997 0.00359134 0.00339160 0.01042469 0.01630778 0.02936598 0.00552584 0.00199788 0.12678918 0.01058681 0.01259720 0.01796657 0.00104760 
0.02479659 0.04595277 0.01985389 0.00318588 0.00369590 0.00340097 0.01050171 0.01639432 0.02918900 0.00557078 0.00198019 0.12702912 0.01055152 0.01261576 0.01810050 0.00105115 
0.02440066 0.04581334 0.01984263 0.00309644 0.00380170 0.00341152 0.01056485 0.01647629 0.02897472 0.00561081 0.00196525 0.12721309 0.01052128 0.01262516 0.01822606 0.00105508 
0.02407875 0.04570274 0.01984617 0.00301198 0.00390830 0.00342330 0.01061402 0.01655396 0.02872441 0.00564576 0.00195327 0.12733893 0.01049623 0.01262560 0.01834218 0.00105939 
0.02383132 0.04562011 0.01986558 0.00293279 0.00401525 0.00343639 0.01064923 0.01662765 0.02843957 0.00567551 0.00194447 0.12740517 0.01047645 0.01261733 0.01844791 0.00106406 
0.02365843 0.04556457 0.01990182 0.00285914 0.00412210 0.00345085 0.01067054 0.01669773 0.02812191 0.00569996 0.00193904 0.12741100 0.01046197 0.01260065 0.01854242 0.00106908 
0.02355963 0.04553517 0.01995574 0.00279126 0.00422840 0.00346673 0.01067811 0.01676455 0.02777338 0.00571906 0.00193717 0.12735631 0.01045274 0.01257589 0.01862499 0.00107442 
0.02353407 0.04553095 0.02002810 0.00272939 0.00433369 0.00348409 0.01067219 0.01682853 0.02739611 0.00573275 0.00193905 0.12724167 0.01044870 0.01254343 0.01869504 0.00108008 
0.02358044 0.04555088 0.02011953 0.00267370 0.00443753 0.00350297 0.01065309 0.01689009 0.02699243 0.00574104 0.00194484 0.12706832 0.01044970 0.01250366 0.01875209 0.00108602 
0.02369699 0.04559393 0.02023056 0.00262438 0.00453948 0.00352342 0.01062120 0.01694966 0.02656484 0.00574395 0.00195470 0.12683817 0.01045557 0.01245702 0.01879582 0.00109223 
0.02388158 0.04565900 0.02036157 0.00258155 0.00463909 0.00354549 0.01057700 0.01700768 0.02611597 0.00574153 0.00196878 0.12655377 0.01046608 0.01240397 0.01882600 0.00109868 
0.02413163 0.04574501 0.02051283 0.00254533 0.00473595 0.00356919 0.01052101 0.01706460 0.02564863 0.00573387 0.00198718 0.12621828 0.01048096 0.01234499 0.01884255 0.00110535 
0.02444420 0.04585083 0.02068443 0.00251581 0.00482964 0.00359455 0.01045386 0.01712086 0.02516570 0.00572107 0.00201002 0.12583546 0.01049990 0.01228058 0.01884550 0.00111222 
0.02481599 0.04597533 0.02087638 0.00249304 0.00491974 0.00362159 0.01037620 0.01717690 0.02467020 0.00570327 0.00203740 0.12540960 0.01052257 0.01221126 0.01883501 0.00111926 
0.02524333 0.04611734 0.02108849 0.00247706 0.00500588 0.00365031 0.01028878 0.01723312 0.02416522 0.00568063 0.00206937 0.12494551 0.01054858 0.01213757 0.01881136 0.00112644 
0.02572225 0.04627572 0.02132045 0.00246787 0.00508767 0.00368072 0.01019238 0.01728993 0.02365391 0.00565334 0.00210598 0.12444846 0.01057754 0.01206006 0.01877493 0.00113373 
0.02624848 0.04644928 0.02157180 0.00246546 0.00516477 0.00371279 0.01008786 0.01734770 0.02313945 0.00562160 0.00214727 0.12392416 0.01060903 0.01197927 0.01872625 0.00114112 
0.02681749 0.04663687 0.02184193 0.00246978 0.00523682 0.00374651 0.00997610 0.01740677 0.02262506 0.00558564 0.00219324 0.12337865 0.01064261 0.01189578 0.01866591 0.00114856 
0.02742449 0.04683731 0.02213007 0.00248076 0.00530350 0.00378184 0.00985804 0.01746744 0.02211397 0.00554572 0.00224386 0.12281831 0.01067782 0.01181012 0.01859463 0.00115604 
0.02806450 0.04704944 0.02243532 0.00249831 0.00536453 0.00381875 0.00973464 0.01752999 0.02160938 0.00550208 0.00229911 0.12224976 0.01071420 0.01172288 0.01851323 0.00116353 
0.02873237 0.04727212 0.02275663 0.00252231 0.00541961 0.00385719 0.00960692 0.01759464 0.02111447 0.00545502 0.00235892 0.12167981 0.01075130 0.01163460 0.01842260 0.00117100 
0.02942280 0.04750421 0.02309281 0.00255261 0.00546851 0.00389708 0.00947591 0.01766155 0.02063235 0.00540483 0.00242320 0.12111542 0.01078863 0.01154584 0.01832373 0.00117841 
0.03013037 0.04774459 0.02344252 0.00258905 0.00551099 0.00393836 0.00934265 0.01773085 0.02016607 0.00535180 0.00249185 0.12056358 0.01082575 0.01145714 0.01821768 0.00118575 
0.03084959 0.04799216 0.02380430 0.00263146 0.00554686 0.00398095 0.00920822 0.01780261 0.01971858 0.00529625 0.00256472 0.12003132 0.01086221 0.01136902 0.01810557 0.00119299 
0.03157494 0.04824586 0.02417657 0.00267961 0.00557592 0.00402475 0.00907369 0.01787683 0.01929276 0.00523850 0.00264167 0.11952560 0.01089757 0.01128202 0.01798859 0.00120009 
0.03230089 0.04850465 0.02455761 0.00273330 0.00559805 0.00406966 0.00894014 0.01795348 0.01889132 0.00517887 0.00272251 0.11905324 0.01093141 0.01119663 0.01786799 0.00120705 
0.03302192 0.04876752 0.02494563 0.00279227 0.00561312 0.00411557 0.00880864 0.01803243 0.01851687 0.00511767 0.00280705 0.11862089 0.01096333 0.01111333 0.01774503 0.00121382 
0.03373260 0.04903353 0.02533869 0.00285626 0.00562103 0.00416235 0.00868027 0.01811352 0.01817185 0.00505525 0.00289506 0.11823494 0.01099298 0.01103260 0.01762104 0.00122039 
0.03442757 0.04930174 0.02573479 0.00292500 0.00562174 0.00420988 0.00855607 0.01819652 0.01785855 0.00499191 0.00298630 0.11790149 0.01101999 0.01095488 0.01749735 0.00122675 
0.03510161 0.04957128 0.02613184 0.00299820 0.00561520 0.00425803 0.00843707 0.01828114 0.01757906 0.00492797 0.00308050 0.11762623 0.01104407 0.01088060 0.01737531 0.00123285 
0.03574968 0.04984134 0.02652769 0.00307555 0.00560141 0.00430663 0.00832428 0.01836701 0.01733532 0.00486375 0.00317739 0.11741448 0.01106494 0.01081015 0.01725629 0.00123870 
0.03636690 0.05011115 0.02692011 0.00315673 0.00558041 0.00435555 0.00821866 0.01845373 0.01712904 0.00479954 0.00327666 0.11727105 0.01108234 0.01074392 0.01714165 0.00124427 
0.03694863 0.05038001 0.02730684 0.00324141 0.00555225 0.00440462 0.00812116 0.01854081 0.01696174 0.00473565 0.00337800 0.11720024 0.01109609 0.01068225 0.01703272 0.00124954 
0.03749050 0.05064727 0.02768561 0.00332926 0.00551701 0.00445368 0.00803265 0.01862775 0.01683472 0.00467234 0.00348107 0.11720578 0.01110600 0.01062548 0.01693083 0.00125450 
0.03798839 0.05091236 0.02805408 0.00341993 0.00547482 0.00450256 0.00795398 0.01871395 0.01674908 0.00460989 0.00358552 0.11729080 0.01111197 0.01057389 0.01683728 0.00125914 
0.03843850 0.05117477 0.02840996 0.00351306 0.00542581 0.00455109 0.00788593 0.01879879 0.01670568 0.00454855 0.00369101 0.11745779 0.01111389 0.01052777 0.01675331 0.00126345 
0.03883737 0.05143406 0.02875093 0.00360830 0.00537017 0.00459908 0.00782924 0.01888161 0.01670515 0.00448855 0.00379715 0.11770855 0.01111172 0.01048735 0.01668014 0.00126742 
0.03918188 0.05168988 0.02907472 0.00370527 0.00530808 0.00464637 0.00778456 0.01896167 0.01674791 0.00443012 0.00390358 0.11804422 0.01110547 0.01045284 0.01661890 0.00127103 
0.03946928 0.05194193 0.02937910 0.00380362 0.00523979 0.00469277 0.00775250 0.01903825 0.01683413 0.00437345 0.00400990 0.11846519 0.01109516 0.01042444 0.01657069 0.00127430 
0.03969722 0.05219000 0.02966188 0.00390296 0.00516553 0.00473811 0.00773358 0.01911056 0.01696377 0.00431873 0.00411574 0.11897114 0.01108087 0.01040230 0.01653651 0.00127721 
0.03986374 0.05243397 0.02992095 0.00400295 0.00508558 0.00478220 0.00772828 0.01917779 0.01713656 0.00426611 0.00422069 0.11956101 0.01106271 0.01038655 0.01651730 0.00127976 
0.03996731 0.05267379 0.03015429 0.00410320 0.00500025 0.00482486 0.00773696 0.01923914 0.01735200 0.00421575 0.00432436 0.12023300 0.01104083 0.01037730 0.01651391 0.00128196 
0.04000683 0.05290947 0.03035996 0.00420336 0.00490985 0.00486592 0.00775993 0.01929376 0.01760938 0.00416775 0.00442636 0.12098459 0.01101540 0.01037461 0.01652710 0.00128381 
0.03998163 0.05314113 0.03053617 0.00430307 0.00481472 0.00490520 0.00779743 0.01934082 0.01790777 0.00412223 0.00452629 0.12181252 0.01098664 0.01037853 0.01655752 0.00128530 
0.03989147 0.05336895 0.03068121 0.00440197 0.00471523 0.00494254 0.00784960 0.01937947 0.01824604 0.00407925 0.00462378 0.12271281 0.01095480 0.01038909 0.01660572 0.00128645 
0.03973659 0.05359319 0.03079356 0.00449971 0.00461175 0.00497778 0.00791649 0.01940889 0.01862286 0.00403888 0.00471845 0.12368084 0.01092014 0.01040627 0.01667217 0.00128727 
0.03951764 0.05381416 0.03087181 0.00459596 0.00450467 0.00501074 0.00799810 0.01942825 0.01903673 0.00400115 0.00480992 0.12471127 0.01088295 0.01043004 0.01675719 0.00128776 
0.03923573 0.05403228 0.03091474 0.00469039 0.00439440 0.00504128 0.00809433 0.01943676 0.01948593 0.00396608 0.00489783 0.12579819 0.01084355 0.01046034 0.01686101 0.00128794 
0.03889239 0.05424799 0.03092131 0.00478268 0.00428135 0.00506926 0.00820500 0.01943365 0.01996860 0.00393367 0.00498185 0.12693505 0.01080226 0.01049710 0.01698374 0.00128781 
0.03848961 0.05446184 0.03089064 0.00487253 0.00416594 0.00509454 0.00832984 0.01941817 0.02048273 0.00390389 0.00506164 0.12811478 0.01075942 0.01054020 0.01712536 0.00128740 
0.03802977 0.05467439 0.03082208 0.00495964 0.00404862 0.00511698 0.00846853 0.01938964 0.02102615 0.00387671 0.00513688 0.12932981 0.01071540 0.01058953 0.01728574 0.00128671 
0.03751567 0.05488628 0.03071516 0.00504374 0.00392982 0.00513647 0.00862065 0.01934739 0.02159656 0.00385207 0.00520729 0.13057210 0.01067056 0.01064492 0.01746464 0.00128576 
0.03695051 0.05509818 0.03056962 0.00512456 0.00380998 0.00515289 0.00878572 0.01929083 0.02219154 0.00382989 0.00527258 0.13183323 0.01062525 0.01070620 0.01766168 0.00128457 
0.03633784 0.05531079 0.03038543 0.00520186 0.00368955 0.00516615 0.00896317 0.01921940 0.02280858 0.00381008 0.00533250 0.13310443 0.01057984 0.01077320 0.01787637 0.00128316 
0.03568160 0.05552484 0.03016278 0.00527541 0.00356897 0.00517614 0.00915239 0.01913264 0.02344507 0.00379255 0.00538683 0.13437666 0.01053470 0.01084569 0.01810810 0.00128153 
0.03498602 0.05574110 0.02990206 0.00534500 0.00344868 0.00518280 0.00935269 0.01903013 0.02409833 0.00377716 0.00543536 0.13564066 0.01049017 0.01092345 0.01835616 0.00127973 
0.03425569 0.05596033 0.02960392 0.00541043 0.00332912 0.00518606 0.00956333 0.01891152 0.02476560 0.00376380 0.00547790 0.13688701 0.01044661 0.01100624 0.01861971 0.00127775 
0.03349542 0.05618328 0.02926920 0.00547153 0.00321071 0.00518584 0.00978349 0.01877656 0.02544410 0.00375232 0.00551432 0.13810623 0.01040434 0.01109379 0.01889781 0.00127562 
0.03271035 0.05641073 0.02889899 0.00552815 0.00309387 0.00518211 0.01001235 0.01862505 0.02613102 0.00374258 0.00554447 0.13928880 0.01036367 0.01118584 0.01918942 0.00127337 
0.03190577 0.05664340 0.02849460 0.00558016 0.00297903 0.00517484 0.01024899 0.01845689 0.02682350 0.00373442 0.00556827 0.14042526 0.01032491 0.01128208 0.01949339 0.00127100 
0.03108723 0.05688201 0.02805754 0.00562745 0.00286656 0.00516398 0.01049250 0.01827206 0.02751872 0.00372767 0.00558565 0.14150626 0.01028833 0.01138223 0.01980850 0.00126854 
0.03026042 0.05712723 0.02758954 0.00566991 0.00275686 0.00514953 0.01074190 0.01807063 0.02821386 0.00372217 0.00559658 0.14252265 0.01025418 0.01148597 0.02013343 0.00126602 
0.02943114 0.05737968 0.02709255 0.00570749 0.00265028 0.00513150 0.01099620 0.01785276 0.02890611 0.00371774 0.00560105 0.14346552 0.01022268 0.01159298 0.02046678 0.00126344 
0.02860531 0.05763992 0.02656870 0.00574013 0.00254719 0.00510987 0.01125439 0.01761869 0.02959273 0.00371422 0.00559908 0.14432627 0.01019404 0.01170292 0.02080709 0.00126083 
0.02778892 0.05790845 0.02602030 0.00576780 0.00244791 0.00508468 0.01151543 0.01736876 0.03027101 0.00371142 0.00559073 0.14509669 0.01016841 0.01181546 0.02115283 0.00125821 
0.02698797 0.05818567 0.02544985 0.00579051 0.00235274 0.00505595 0.01177829 0.01710338 0.03093834 0.00370917 0.00557608 0.14576900 0.01014595 0.01193025 0.02150242 0.00125559 
0.02620845 0.05847191 0.02486001 0.00580825 0.00226198 0.00502373 0.01204192 0.01682308 0.03159216 0.00370730 0.00555526 0.14633593 0.01012674 0.01204694 0.02185423 0.00125299 
0.02545631 0.05876738 0.02425357 0.00582107 0.00217589 0.00498805 0.01230529 0.01652844 0.03223002 0.00370562 0.00552839 0.14679072 0.01011088 0.01216516 0.02220660 0.00125042 
0.02473744 0.05907222 0.02363349 0.00582902 0.00209471 0.00494898 0.01256737 0.01622014 0.03284956 0.00370399 0.00549567 0.14712725 0.01009839 0.01228457 0.02255785 0.00124791 
0.02405757 0.05938640 0.02300282 0.00583217 0.00201865 0.00490659 0.01282714 0.01589895 0.03344856 0.00370222 0.00545728 0.14734001 0.01008928 0.01240479 0.02290628 0.00124547 
0.02342231 0.05970982 0.02236471 0.00583062 0.00194791 0.00486095 0.01308361 0.01556571 0.03402490 0.00370017 0.00541345 0.14742421 0.01008352 0.01252546 0.02325018 0.00124311 
0.02283708 0.06004221 0.02172241 0.00582447 0.00188264 0.00481215 0.01333582 0.01522133 0.03457660 0.00369768 0.00536444 0.14737574 0.01008105 0.01264623 0.02358785 0.00124084 
0.02230708 0.06038319 0.02107922 0.00581386 0.00182298 0.00476028 0.01358282 0.01486679 0.03510182 0.00369460 0.00531052 0.14719128 0.01008179 0.01276673 0.02391760 0.00123868 
0.02183724 0.06073223 0.02043848 0.00579894 0.00176904 0.00470543 0.01382374 0.01450314 0.03559888 0.00369081 0.00525200 0.14686827 0.01008560 0.01288659 0.02423778 0.00123663 
0.02143222 0.06108865 0.01980358 0.00577985 0.00172090 0.00464773 0.01405770 0.01413150 0.03606625 0.00368616 0.00518918 0.14640496 0.01009233 0.01300548 0.02454677 0.00123472 
0.02109636 0.06145165 0.01917788 0.00575678 0.00167861 0.00458727 0.01428391 0.01375302 0.03650255 0.00368055 0.00512241 0.14580041 0.01010180 0.01312303 0.02484299 0.00123294 
0.02083366 0.06182026 0.01856475 0.00572992 0.00164220 0.00452418 0.01450162 0.01336892 0.03690658 0.00367386 0.00505204 0.14505453 0.01011379 0.01323890 0.02512492 0.00123130 
0.02064775 0.06219337 0.01796751 0.00569947 0.00161167 0.00445859 0.01471011 0.01298045 0.03727730 0.00366600 0.00497846 0.14416803 0.01012807 0.01335277 0.02539112 0.00122981 
0.02054185 0.06256974 0.01738943 0.00566566 0.00158698 0.00439063 0.01490877 0.01258890 0.03761386 0.00365687 0.00490203 0.14314249 0.01014438 0.01346430 0.02564021 0.00122849 
0.02051877 0.06294797 0.01683370 0.00562869 0.00156808 0.00432042 0.01509699 0.01219561 0.03791555 0.00364641 0.00482315 0.14198030 0.01016242 0.01357318 0.02587091 0.00122732 
0.02058089 0.06332655 0.01630341 0.00558881 0.00155489 0.00424812 0.01527428 0.01180190 0.03818188 0.00363453 0.00474223 0.14068466 0.01018191 0.01367911 0.02608202 0.00122632 
0.02073012 0.06370380 0.01580152 0.00554627 0.00154730 0.00417387 0.01544018 0.01140915 0.03841251 0.00362119 0.00465968 0.13925957 0.01020251 0.01378180 0.02627246 0.00122550 
0.02096788 0.06407797 0.01533086 0.00550131 0.00154518 0.00409782 0.01559432 0.01101872 0.03860728 0.00360634 0.00457592 0.13770983 0.01022390 0.01388098 0.02644125 0.00122485 
0.02129513 0.06444716 0.01489412 0.00545419 0.00154838 0.00402012 0.01573638 0.01063199 0.03876620 0.00358995 0.00449135 0.13604096 0.01024574 0.01397639 0.02658752 0.00122437 
0.02171231 0.06480937 0.01449379 0.00540518 0.00155672 0.00394093 0.01586612 0.01025033 0.03888947 0.00357200 0.00440639 0.13425922 0.01026766 0.01406779 0.02671054 0.00122407 
0.02221936 0.06516254 0.01413218 0.00535453 0.00157000 0.00386040 0.01598338 0.00987508 0.03897746 0.00355247 0.00432147 0.13237155 0.01028932 0.01415495 0.02680971 0.00122395 
0.02281571 0.06550451 0.01381139 0.00530253 0.00158800 0.00377871 0.01608806 0.00950759 0.03903069 0.00353136 0.00423698 0.13038550 0.01031034 0.01423767 0.02688454 0.00122401 
0.02350026 0.06583306 0.01353329 0.00524943 0.00161049 0.00369601 0.01618012 0.00914916 0.03904986 0.00350868 0.00415333 0.12830925 0.01033037 0.01431578 0.02693471 0.00122425 
0.02427141 0.06614593 0.01329953 0.00519551 0.00163722 0.00361249 0.01625960 0.00880109 0.03903582 0.00348446 0.00407091 0.12615150 0.01034905 0.01438910 0.02696003 0.00122466 
0.02512705 0.06644082 0.01311150 0.00514103 0.00166791 0.00352830 0.01632661 0.00846460 0.03898958 0.00345872 0.00399010 0.12392147 0.01036603 0.01445751 0.02696044 0.00122526 
0.02606455 0.06671543 0.01297033 0.00508627 0.00170229 0.00344363 0.01638131 0.00814090 0.03891231 0.00343151 0.00391127 0.12162878 0.01038097 0.01452090 0.02693604 0.00122602 
0.02708080 0.06696746 0.01287690 0.00503148 0.00174005 0.00335865 0.01642393 0.00783112 0.03880531 0.00340286 0.00383476 0.11928346 0.01039352 0.01457916 0.02688707 0.00122696 
0.02817220 0.06719466 0.01283178 0.00497692 0.00178091 0.00327354 0.01645476 0.00753636 0.03867000 0.00337285 0.00376092 0.11689584 0.01040339 0.01463225 0.02681392 0.00122807 
0.02933467 0.06739479 0.01283530 0.00492285 0.00182453 0.00318848 0.01647414 0.00725764 0.03850797 0.00334153 0.00369005 0.11447651 0.01041026 0.01468012 0.02671712 0.00122935 
0.03056370 0.06756571 0.01288747 0.00486952 0.00187060 0.00310367 0.01648247 0.00699593 0.03832089 0.00330899 0.00362246 0.11203625 0.01041386 0.01472277 0.02659734 0.00123080 
0.03185434 0.06770535 0.01298805 0.00481716 0.00191879 0.00301927 0.01648018 0.00675211 0.03811057 0.00327530 0.00355841 0.10958596 0.01041393 0.01476021 0.02645538 0.00123241 
