0.01234241 0.01269584 0.00432094 0.00323940 0.00269843 0.00238923 0.00811612 0.00268310 0.00924251 0.00163305 0.01169690 0.00100547 0.01074915 0.02474645 0.01020778 0.00066156 
0.01242021 0.01286753 0.00446579 0.00324213 0.00258307 0.00240226 0.00816140 0.00271303 0.00943172 0.00166369 0.01190136 0.00100075 0.01086265 0.02523969 0.01036628 0.00066338 
0.01249558 0.01303231 0.00460957 0.00324111 0.00246915 0.00241257 0.00819652 0.00274417 0.00964312 0.00169632 0.01210351 0.00099681 0.01096882 0.02574052 0.01052092 0.00066446 
0.01256841 0.01318940 0.00475163 0.00323633 0.00235701 0.00242010 0.00822128 0.00277647 0.00987682 0.00173076 0.01230282 0.00099366 0.01106775 0.02624734 0.01067113 0.00066479 
0.01263857 0.01333805 0.00489129 0.00322781 0.00224700 0.00242484 0.00823551 0.00280986 0.01013284 0.00176687 0.01249874 0.00099132 0.01115955 0.02675854 0.01081638 0.00066438 
0.01270596 0.01347755 0.00502791 0.00321561 0.00213946 0.00242676 0.00823912 0.00284428 0.01041118 0.00180447 0.01269072 0.00098979 0.01124436 0.02727249 0.01095611 0.00066325 
0.01277047 0.01360721 0.00516086 0.00319976 0.00203474 0.00242586 0.00823210 0.00287964 0.01071174 0.00184335 0.01287823 0.00098907 0.01132235 0.02778752 0.01108982 0.00066142 
0.01283198 0.01372640 0.00528954 0.00318035 0.00193318 0.00242215 0.00821448 0.00291585 0.01103437 0.00188332 0.01306070 0.00098918 0.01139372 0.02830197 0.01121703 0.00065890 
0.01289039 0.01383451 0.00541335 0.00315748 0.00183512 0.00241564 0.00818637 0.00295282 0.01137883 0.00192418 0.01323763 0.00099012 0.01145868 0.02881417 0.01133724 0.00065574 
0.01294557 0.01393101 0.00553174 0.00313124 0.00174089 0.00240636 0.00814796 0.00299043 0.01174481 0.00196570 0.01340847 0.00099186 0.01151748 0.02932246 0.01145003 0.00065197 
0.01299742 0.01401540 0.00564419 0.00310176 0.00165081 0.00239434 0.00809948 0.00302857 0.01213190 0.00200765 0.01357271 0.00099442 0.01157037 0.02982520 0.01155497 0.00064763 
0.01304581 0.01408726 0.00575018 0.00306918 0.00156521 0.00237964 0.00804122 0.00306711 0.01253960 0.00204982 0.01372985 0.00099777 0.01161764 0.03032079 0.01165168 0.00064277 
0.01309064 0.01414621 0.00584926 0.00303365 0.00148440 0.00236232 0.00797354 0.00310592 0.01296734 0.00209196 0.01387940 0.00100190 0.01165956 0.03080765 0.01173980 0.00063743 
0.01313176 0.01419194 0.00594099 0.00299534 0.00140867 0.00234244 0.00789685 0.00314486 0.01341441 0.00213384 0.01402089 0.00100680 0.01169644 0.03128424 0.01181902 0.00063168 
0.01316907 0.01422422 0.00602499 0.00295443 0.00133833 0.00232009 0.00781162 0.00318378 0.01388003 0.00217522 0.01415386 0.00101243 0.01172859 0.03174910 0.01188904 0.00062558 
0.01320243 0.01424289 0.00610088 0.00291110 0.00127365 0.00229535 0.00771835 0.00322253 0.01436330 0.00221586 0.01427790 0.00101878 0.01175633 0.03220079 0.01194962 0.00061919 
0.01323171 0.01424785 0.00616836 0.00286554 0.00121490 0.00226834 0.00761761 0.00326095 0.01486322 0.00225554 0.01439260 0.00102581 0.01177997 0.03263798 0.01200056 0.00061258 
0.01325678 0.01423907 0.00622715 0.00281798 0.00116235 0.00223915 0.00750999 0.00329889 0.01537868 0.00229402 0.01449758 0.00103349 0.01179984 0.03305940 0.01204168 0.00060583 
0.01327750 0.01421662 0.00627701 0.00276861 0.00111623 0.00220791 0.00739612 0.00333616 0.01590846 0.00233108 0.01459251 0.00104179 0.01181624 0.03346385 0.01207285 0.00059900 
0.01329373 0.01418063 0.00631776 0.00271766 0.00107678 0.00217474 0.00727667 0.00337260 0.01645125 0.00236651 0.01467705 0.00105067 0.01182948 0.03385024 0.01209400 0.00059217 
0.01330534 0.01413129 0.00634923 0.00266536 0.00104421 0.00213977 0.00715234 0.00340804 0.01700560 0.00240010 0.01475095 0.00106008 0.01183989 0.03421758 0.01210509 0.00058543 
0.01331219 0.01406890 0.00637132 0.00261191 0.00101871 0.00210314 0.00702384 0.00344230 0.01757000 0.00243166 0.01481395 0.00106998 0.01184774 0.03456497 0.01210612 0.00057886 
0.01331413 0.01399381 0.00638396 0.00255757 0.00100047 0.00206499 0.00689191 0.00347520 0.01814280 0.00246101 0.01486585 0.00108033 0.01185332 0.03489163 0.01209713 0.00057253 
0.01331104 0.01390646 0.00638713 0.00250254 0.00098965 0.00202548 0.00675729 0.00350658 0.01872228 0.00248798 0.01490649 0.00109108 0.01185689 0.03519688 0.01207822 0.00056653 
0.01330279 0.01380735 0.00638085 0.00244706 0.00098640 0.00198476 0.00662075 0.00353625 0.01930663 0.00251243 0.01493575 0.00110218 0.01185873 0.03548018 0.01204954 0.00056095 
0.01328923 0.01369705 0.00636517 0.00239136 0.00099083 0.00194299 0.00648304 0.00356404 0.01989393 0.00253422 0.01495356 0.00111357 0.01185905 0.03574111 0.01201127 0.00055586 
0.01327026 0.01357621 0.00634020 0.00233564 0.00100306 0.00190031 0.00634492 0.00358979 0.02048221 0.00255325 0.01495988 0.00112521 0.01185807 0.03597935 0.01196363 0.00055134 
0.01324575 0.01344555 0.00630606 0.00228014 0.00102318 0.00185691 0.00620715 0.00361333 0.02106940 0.00256942 0.01495472 0.00113704 0.01185600 0.03619475 0.01190690 0.00054748 
0.01321559 0.01330582 0.00626294 0.00222505 0.00105123 0.00181293 0.00607047 0.00363450 0.02165339 0.00258267 0.01493815 0.00114899 0.01185300 0.03638725 0.01184140 0.00054435 
0.01317969 0.01315786 0.00621104 0.00217057 0.00108728 0.00176855 0.00593561 0.00365316 0.02223200 0.00259296 0.01491028 0.00116103 0.01184923 0.03655696 0.01176750 0.00054203 
0.01313795 0.01300254 0.00615061 0.00211690 0.00113133 0.00172392 0.00580328 0.00366915 0.02280301 0.00260026 0.01487127 0.00117309 0.01184482 0.03670410 0.01168559 0.00054059 
0.01309031 0.01284081 0.00608192 0.00206423 0.00118338 0.00167920 0.00567417 0.00368235 0.02336418 0.00260458 0.01482131 0.00118510 0.01183988 0.03682903 0.01159613 0.00054009 
0.01303670 0.01267364 0.00600529 0.00201272 0.00124341 0.00163454 0.00554893 0.00369263 0.02391321 0.00260594 0.01476067 0.00119703 0.01183448 0.03693224 0.01149960 0.00054060 
0.01297708 0.01250204 0.00592104 0.00196253 0.00131138 0.00159012 0.00542821 0.00369987 0.02444783 0.00260441 0.01468964 0.00120881 0.01182870 0.03701434 0.01139653 0.00054218 
0.01291141 0.01232705 0.00582956 0.00191382 0.00138720 0.00154606 0.00531258 0.00370397 0.02496574 0.00260007 0.01460858 0.00122039 0.01182256 0.03707609 0.01128747 0.00054488 
0.01283969 0.01214977 0.00573121 0.00186672 0.00147078 0.00150252 0.00520261 0.00370485 0.02546466 0.00259303 0.01451787 0.00123171 0.01181607 0.03711836 0.01117303 0.00054875 
0.01276192 0.01197129 0.00562641 0.00182135 0.00156201 0.00145964 0.00509881 0.00370244 0.02594235 0.00258342 0.01441796 0.00124272 0.01180924 0.03714214 0.01105382 0.00055383 
0.01267815 0.01179272 0.00551559 0.00177782 0.00166074 0.00141755 0.00500166 0.00369666 0.02639659 0.00257140 0.01430932 0.00125337 0.01180203 0.03714852 0.01093051 0.00056016 
0.01258841 0.01161519 0.00539920 0.00173623 0.00176680 0.00137637 0.00491160 0.00368749 0.02682523 0.00255717 0.01419248 0.00126360 0.01179439 0.03713874 0.01080378 0.00056777 
0.01249279 0.01143984 0.00527769 0.00169666 0.00188000 0.00133623 0.00482899 0.00367490 0.02722616 0.00254094 0.01406801 0.00127339 0.01178625 0.03711409 0.01067435 0.00057669 
0.01239139 0.01126779 0.00515155 0.00165917 0.00200014 0.00129724 0.00475418 0.00365888 0.02759737 0.00252295 0.01393649 0.00128267 0.01177753 0.03707599 0.01054293 0.00058692 
0.01228433 0.01110016 0.00502126 0.00162381 0.00212697 0.00125949 0.00468744 0.00363944 0.02793694 0.00250345 0.01379856 0.00129141 0.01176812 0.03702593 0.01041029 0.00059847 
0.01217177 0.01093807 0.00488730 0.00159062 0.00226023 0.00122309 0.00462901 0.00361661 0.02824304 0.00248274 0.01365489 0.00129956 0.01175792 0.03696550 0.01027717 0.00061136 
0.01205389 0.01078259 0.00475019 0.00155963 0.00239965 0.00118810 0.00457907 0.00359045 0.02851398 0.00246111 0.01350617 0.00130710 0.01174680 0.03689632 0.01014436 0.00062556 
0.01193089 0.01063480 0.00461042 0.00153085 0.00254491 0.00115462 0.00453775 0.00356102 0.02874818 0.00243889 0.01335311 0.00131399 0.01173462 0.03682011 0.01001265 0.00064107 
0.01180300 0.01049570 0.00446849 0.00150426 0.00269571 0.00112270 0.00450512 0.00352841 0.02894421 0.00241642 0.01319645 0.00132019 0.01172123 0.03673861 0.00988281 0.00065786 
0.01167050 0.01036631 0.00432490 0.00147985 0.00285170 0.00109239 0.00448121 0.00349273 0.02910080 0.00239406 0.01303696 0.00132569 0.01170650 0.03665360 0.00975563 0.00067590 
0.01153366 0.01024755 0.00418017 0.00145759 0.00301251 0.00106375 0.00446599 0.00345412 0.02921683 0.00237217 0.01287539 0.00133047 0.01169025 0.03656690 0.00963189 0.00069516 
0.01139281 0.01014034 0.00403478 0.00143744 0.00317776 0.00103680 0.00445939 0.00341273 0.02929136 0.00235114 0.01271254 0.00133449 0.01167236 0.03648034 0.00951237 0.00071558 
0.01124828 0.01004550 0.00388923 0.00141935 0.00334707 0.00101157 0.00446126 0.00336872 0.02932363 0.00233135 0.01254919 0.00133776 0.01165265 0.03639572 0.00939783 0.00073712 
0.01110044 0.00996383 0.00374400 0.00140325 0.00352001 0.00098807 0.00447145 0.00332230 0.02931308 0.00231320 0.01238612 0.00134025 0.01163099 0.03631489 0.00928902 0.00075971 
0.01094969 0.00989605 0.00359956 0.00138907 0.00369617 0.00096631 0.00448972 0.00327368 0.02925934 0.00229710 0.01222413 0.00134197 0.01160723 0.03623961 0.00918665 0.00078329 
0.01079645 0.00984281 0.00345637 0.00137672 0.00387511 0.00094627 0.00451582 0.00322307 0.02916224 0.00228343 0.01206399 0.00134290 0.01158123 0.03617166 0.00909144 0.00080778 
0.01064116 0.00980470 0.00331489 0.00136612 0.00405637 0.00092795 0.00454943 0.00317074 0.02902183 0.00227259 0.01190648 0.00134305 0.01155288 0.03611274 0.00900404 0.00083309 
0.01048427 0.00978222 0.00317555 0.00135718 0.00423950 0.00091132 0.00459021 0.00311695 0.02883835 0.00226499 0.01175234 0.00134243 0.01152206 0.03606450 0.00892511 0.00085915 
0.01032628 0.00977580 0.00303879 0.00134978 0.00442403 0.00089634 0.00463777 0.00306199 0.02861227 0.00226100 0.01160232 0.00134104 0.01148868 0.03602851 0.00885524 0.00088585 
0.01016767 0.00978581 0.00290500 0.00134382 0.00460948 0.00088298 0.00469169 0.00300614 0.02834428 0.00226100 0.01145712 0.00133890 0.01145265 0.03600628 0.00879500 0.00091310 
0.01000897 0.00981251 0.00277459 0.00133920 0.00479538 0.00087119 0.00475152 0.00294972 0.02803527 0.00226535 0.01131744 0.00133602 0.01141390 0.03599919 0.00874490 0.00094079 
0.00985071 0.00985610 0.00264793 0.00133580 0.00498125 0.00086090 0.00481679 0.00289306 0.02768636 0.00227440 0.01118392 0.00133243 0.01137241 0.03600853 0.00870540 0.00096881 
0.00969343 0.00991667 0.00252539 0.00133350 0.00516660 0.00085206 0.00488698 0.00283649 0.02729886 0.00228847 0.01105718 0.00132814 0.01132813 0.03603548 0.00867694 0.00099705 
0.00953768 0.00999426 0.00240731 0.00133220 0.00535096 0.00084459 0.00496157 0.00278035 0.02687431 0.00230787 0.01093779 0.00132318 0.01128108 0.03608108 0.00865987 0.00102539 
0.00938401 0.01008879 0.00229403 0.00133177 0.00553383 0.00083842 0.00504002 0.00272500 0.02641443 0.00233288 0.01082631 0.00131758 0.01123127 0.03614625 0.00865451 0.00105372 
0.00923298 0.01020013 0.00218584 0.00133211 0.00571476 0.00083348 0.00512176 0.00267079 0.02592115 0.00236375 0.01072321 0.00131137 0.01117874 0.03623174 0.00866108 0.00108190 
0.00908517 0.01032803 0.00208306 0.00133311 0.00589327 0.00082967 0.00520621 0.00261808 0.02539658 0.00240071 0.01062895 0.00130459 0.01112358 0.03633816 0.00867980 0.00110982 
0.00894113 0.01047219 0.00198595 0.00133465 0.00606890 0.00082692 0.00529280 0.00256723 0.02484301 0.00244396 0.01054390 0.00129727 0.01106586 0.03646597 0.00871076 0.00113735 
0.00880141 0.01063220 0.00189477 0.00133665 0.00624120 0.00082512 0.00538093 0.00251861 0.02426289 0.00249364 0.01046841 0.00128945 0.01100571 0.03661545 0.00875403 0.00116437 
0.00866657 0.01080761 0.00180977 0.00133899 0.00640973 0.00082420 0.00547002 0.00247257 0.02365882 0.00254990 0.01040276 0.00128118 0.01094328 0.03678672 0.00880959 0.00119074 
0.00853713 0.01099785 0.00173118 0.00134159 0.00657408 0.00082406 0.00555947 0.00242947 0.02303357 0.00261281 0.01034718 0.00127248 0.01087873 0.03697971 0.00887736 0.00121635 
0.00841363 0.01120230 0.00165920 0.00134437 0.00673382 0.00082460 0.00564871 0.00238966 0.02239002 0.00268244 0.01030181 0.00126341 0.01081226 0.03719420 0.00895720 0.00124106 
0.00829657 0.01142028 0.00159402 0.00134724 0.00688858 0.00082573 0.00573715 0.00235346 0.02173115 0.00275878 0.01026677 0.00125401 0.01074408 0.03742977 0.00904888 0.00126477 
0.00818643 0.01165101 0.00153583 0.00135014 0.00703798 0.00082736 0.00582423 0.00232122 0.02106007 0.00284182 0.01024210 0.00124432 0.01067445 0.03768582 0.00915212 0.00128734 
0.00808369 0.01189368 0.00148479 0.00135301 0.00718166 0.00082940 0.00590940 0.00229324 0.02037995 0.00293148 0.01022777 0.00123438 0.01060361 0.03796159 0.00926655 0.00130866 
0.00798877 0.01214739 0.00144103 0.00135579 0.00731930 0.00083176 0.00599212 0.00226983 0.01969404 0.00302766 0.01022369 0.00122424 0.01053185 0.03825614 0.00939176 0.00132863 
0.00790209 0.01241123 0.00140469 0.00135843 0.00745059 0.00083436 0.00607187 0.00225124 0.01900563 0.00313020 0.01022972 0.00121395 0.01045949 0.03856833 0.00952725 0.00134713 
0.00782403 0.01268419 0.00137589 0.00136091 0.00757524 0.00083712 0.00614816 0.00223776 0.01831805 0.00323891 0.01024565 0.00120354 0.01038683 0.03889689 0.00967248 0.00136405 
0.00775492 0.01296526 0.00135472 0.00136319 0.00769300 0.00083995 0.00622053 0.00222961 0.01763464 0.00335356 0.01027120 0.00119306 0.01031423 0.03924036 0.00982681 0.00137931 
0.00769509 0.01325335 0.00134128 0.00136526 0.00780364 0.00084279 0.00628852 0.00222702 0.01695873 0.00347387 0.01030604 0.00118255 0.01024202 0.03959714 0.00998958 0.00139281 
0.00764480 0.01354736 0.00133562 0.00136711 0.00790694 0.00084556 0.00635172 0.00223016 0.01629362 0.00359954 0.01034978 0.00117205 0.01017058 0.03996547 0.01016005 0.00140447 
0.00760427 0.01384616 0.00133781 0.00136874 0.00800274 0.00084821 0.00640975 0.00223919 0.01564260 0.00373022 0.01040198 0.00116159 0.01010029 0.04034346 0.01033744 0.00141421 
0.00757370 0.01414860 0.00134788 0.00137017 0.00809088 0.00085068 0.00646225 0.00225427 0.01500886 0.00386551 0.01046213 0.00115121 0.01003153 0.04072909 0.01052091 0.00142196 
0.00755324 0.01445349 0.00136588 0.00137139 0.00817125 0.00085291 0.00650891 0.00227547 0.01439555 0.00400501 0.01052967 0.00114095 0.00996470 0.04112021 0.01070957 0.00142766 
0.00754297 0.01475966 0.00139180 0.00137245 0.00824375 0.00085487 0.00654944 0.00230289 0.01380570 0.00414827 0.01060401 0.00113083 0.00990018 0.04151458 0.01090252 0.00143125 
0.00754296 0.01506590 0.00142565 0.00137338 0.00830832 0.00085651 0.00658358 0.00233655 0.01324223 0.00429479 0.01068450 0.00112088 0.00983837 0.04190985 0.01109878 0.00143269 
0.00755320 0.01537103 0.00146741 0.00137421 0.00836494 0.00085781 0.00661114 0.00237647 0.01270794 0.00444408 0.01077046 0.00111114 0.00977969 0.04230362 0.01129738 0.00143195 
0.00757367 0.01567386 0.00151705 0.00137499 0.00841358 0.00085874 0.00663193 0.00242262 0.01220548 0.00459561 0.01086114 0.00110162 0.00972451 0.04269338 0.01149728 0.00142899 
0.00760426 0.01597321 0.00157453 0.00137578 0.00845429 0.00085928 0.00664582 0.00247495 0.01173735 0.00474882 0.01095581 0.00109234 0.00967322 0.04307661 0.01169746 0.00142381 
0.00764485 0.01626791 0.00163978 0.00137663 0.00848711 0.00085943 0.00665269 0.00253336 0.01130585 0.00490313 0.01105366 0.00108332 0.00962622 0.04345073 0.01189686 0.00141638 
0.00769525 0.01655683 0.00171274 0.00137760 0.00851213 0.00085919 0.00665250 0.00259773 0.01091312 0.00505797 0.01115388 0.00107458 0.00958386 0.04381315 0.01209442 0.00140673 
0.00775523 0.01683885 0.00179329 0.00137877 0.00852945 0.00085855 0.00664521 0.00266789 0.01056110 0.00521274 0.01125564 0.00106613 0.00954651 0.04416129 0.01228907 0.00139485 
0.00782452 0.01711288 0.00188135 0.00138019 0.00853921 0.00085753 0.00663084 0.00274366 0.01025150 0.00536683 0.01135809 0.00105797 0.00951452 0.04449256 0.01247976 0.00138077 
0.00790279 0.01737789 0.00197678 0.00138194 0.00854156 0.00085615 0.00660943 0.00282481 0.00998583 0.00551963 0.01146038 0.00105012 0.00948820 0.04480442 0.01266542 0.00136453 
0.00798970 0.01763286 0.00207944 0.00138410 0.00853669 0.00085443 0.00658106 0.00291109 0.00976535 0.00567052 0.01156164 0.00104257 0.00946786 0.04509436 0.01284502 0.00134616 
0.00808482 0.01787682 0.00218917 0.00138672 0.00852481 0.00085239 0.00654586 0.00300222 0.00959110 0.00581890 0.01166101 0.00103532 0.00945380 0.04535996 0.01301753 0.00132572 
0.00818774 0.01810887 0.00230580 0.00138989 0.00850614 0.00085008 0.00650396 0.00309787 0.00946389 0.00596417 0.01175763 0.00102839 0.00944628 0.04559884 0.01318196 0.00130327 
0.00829797 0.01832815 0.00242913 0.00139367 0.00848094 0.00084754 0.00645555 0.00319772 0.00938426 0.00610573 0.01185067 0.00102175 0.00944553 0.04580876 0.01333736 0.00127888 
0.00841500 0.01853384 0.00255894 0.00139813 0.00844946 0.00084481 0.00640085 0.00330139 0.00935250 0.00624300 0.01193929 0.00101540 0.00945178 0.04598756 0.01348278 0.00125264 
0.00853830 0.01872519 0.00269501 0.00140333 0.00841200 0.00084194 0.00634009 0.00340850 0.00936867 0.00637541 0.01202269 0.00100934 0.00946519 0.04613322 0.01361735 0.00122463 
0.00866731 0.01890153 0.00283709 0.00140935 0.00836885 0.00083899 0.00627354 0.00351863 0.00943256 0.00650242 0.01210009 0.00100355 0.00948594 0.04624385 0.01374024 0.00119497 
0.00880143 0.01906223 0.00298489 0.00141622 0.00832033 0.00083600 0.00620149 0.00363136 0.00954373 0.00662350 0.01217075 0.00099803 0.00951414 0.04631774 0.01385066 0.00116375 
0.00894007 0.01920673 0.00313814 0.00142400 0.00826677 0.00083305 0.00612426 0.00374623 0.00970148 0.00673817 0.01223395 0.00099275 0.00954990 0.04635332 0.01394789 0.00113109 
0.00908260 0.01933454 0.00329653 0.00143275 0.00820850 0.00083019 0.00604219 0.00386280 0.00990485 0.00684595 0.01228903 0.00098770 0.00959327 0.04634920 0.01403127 0.00109712 
0.00922839 0.01944525 0.00345972 0.00144248 0.00814586 0.00082750 0.00595562 0.00398058 0.01015268 0.00694640 0.01233537 0.00098288 0.00964428 0.04630419 0.01410020 0.00106199 
0.00937681 0.01953850 0.00362737 0.00145325 0.00807922 0.00082502 0.00586494 0.00409910 0.01044355 0.00703913 0.01237240 0.00097825 0.00970293 0.04621731 0.01415415 0.00102581 
0.00952720 0.01961400 0.00379911 0.00146506 0.00800893 0.00082284 0.00577052 0.00421786 0.01077582 0.00712375 0.01239959 0.00097381 0.00976919 0.04608775 0.01419267 0.00098875 
0.00967894 0.01967156 0.00397456 0.00147793 0.00793535 0.00082101 0.00567278 0.00433638 0.01114765 0.00719995 0.01241650 0.00096954 0.00984298 0.04591495 0.01421537 0.00095096 
0.00983138 0.01971104 0.00415331 0.00149188 0.00785885 0.00081960 0.00557211 0.00445417 0.01155699 0.00726744 0.01242271 0.00096542 0.00992421 0.04569855 0.01422196 0.00091260 
0.00998391 0.01973236 0.00433495 0.00150689 0.00777979 0.00081868 0.00546893 0.00457072 0.01200160 0.00732595 0.01241791 0.00096143 0.01001272 0.04543842 0.01421222 0.00087383 
0.01013591 0.01973552 0.00451903 0.00152296 0.00769854 0.00081830 0.00536368 0.00468557 0.01247904 0.00737528 0.01240181 0.00095757 0.01010836 0.04513466 0.01418599 0.00083483 
0.01028679 0.01972060 0.00470510 0.00154006 0.00761545 0.00081854 0.00525677 0.00479822 0.01298675 0.00741527 0.01237422 0.00095382 0.01021092 0.04478759 0.01414321 0.00079577 
0.01043599 0.01968774 0.00489270 0.00155818 0.00753089 0.00081944 0.00514864 0.00490822 0.01352196 0.00744578 0.01233501 0.00095017 0.01032016 0.04439777 0.01408391 0.00075683 
0.01058297 0.01963713 0.00508133 0.00157726 0.00744520 0.00082107 0.00503972 0.00501511 0.01408183 0.00746675 0.01228412 0.00094660 0.01043583 0.04396599 0.01400819 0.00071818 
0.01072720 0.01956905 0.00527051 0.00159726 0.00735871 0.00082347 0.00493042 0.00511845 0.01466333 0.00747812 0.01222156 0.00094311 0.01055763 0.04349325 0.01391623 0.00068001 
0.01086823 0.01948381 0.00545972 0.00161813 0.00727178 0.00082670 0.00482117 0.00521783 0.01526338 0.00747991 0.01214742 0.00093970 0.01068524 0.04298077 0.01380829 0.00064251 
0.01100561 0.01938182 0.00564844 0.00163979 0.00718471 0.00083079 0.00471238 0.00531284 0.01587880 0.00747217 0.01206186 0.00093635 0.01081830 0.04243001 0.01368471 0.00060586 
0.01113894 0.01926351 0.00583616 0.00166219 0.00709783 0.00083579 0.00460447 0.00540311 0.01650631 0.00745498 0.01196511 0.00093306 0.01095644 0.04184262 0.01354591 0.00057024 
0.01126788 0.01912938 0.00602233 0.00168524 0.00701142 0.00084172 0.00449782 0.00548829 0.01714262 0.00742846 0.01185747 0.00092984 0.01109926 0.04122045 0.01339237 0.00053583 
0.01139211 0.01897997 0.00620642 0.00170885 0.00692578 0.00084863 0.00439281 0.00556804 0.01778438 0.00739280 0.01173930 0.00092670 0.01124635 0.04056554 0.01322466 0.00050283 
0.01151137 0.01881589 0.00638788 0.00173292 0.00684117 0.00085652 0.00428983 0.00564209 0.01842823 0.00734818 0.01161106 0.00092362 0.01139725 0.03988012 0.01304340 0.00047140 
0.01162547 0.01863777 0.00656618 0.00175737 0.00675786 0.00086542 0.00418922 0.00571015 0.01907081 0.00729487 0.01147323 0.00092064 0.01155151 0.03916659 0.01284928 0.00044172 
0.01173425 0.01844629 0.00674077 0.00178208 0.00667608 0.00087534 0.00409132 0.00577201 0.01970877 0.00723312 0.01132638 0.00091775 0.01170865 0.03842750 0.01264306 0.00041397 
0.01183760 0.01824217 0.00691111 0.00180695 0.00659606 0.00088629 0.00399646 0.00582744 0.02033882 0.00716324 0.01117114 0.00091497 0.01186818 0.03766553 0.01242553 0.00038831 
0.01193549 0.01802615 0.00707668 0.00183186 0.00651800 0.00089826 0.00390495 0.00587630 0.02095768 0.00708558 0.01100818 0.00091232 0.01202958 0.03688351 0.01219757 0.00036491 
0.01202790 0.01779902 0.00723694 0.00185670 0.00644210 0.00091124 0.00381707 0.00591843 0.02156219 0.00700049 0.01083823 0.00090981 0.01219235 0.03608437 0.01196005 0.00034391 
0.01211492 0.01756158 0.00739138 0.00188136 0.00636852 0.00092523 0.00373308 0.00595374 0.02214923 0.00690836 0.01066206 0.00090748 0.01235595 0.03527115 0.01171394 0.00032546 
0.01219665 0.01731465 0.00753950 0.00190571 0.00629742 0.00094021 0.00365324 0.00598217 0.02271582 0.00680960 0.01048049 0.00090534 0.01251985 0.03444694 0.01146020 0.00030971 
0.01227326 0.01705907 0.00768081 0.00192963 0.00622894 0.00095614 0.00357777 0.00600368 0.02325905 0.00670465 0.01029439 0.00090343 0.01268351 0.03361493 0.01119983 0.00029679 
0.01234498 0.01679571 0.00781483 0.00195302 0.00616321 0.00097300 0.00350687 0.00601828 0.02377619 0.00659394 0.01010462 0.00090176 0.01284639 0.03277833 0.01093388 0.00028681 
0.01241206 0.01652543 0.00794113 0.00197575 0.00610031 0.00099076 0.00344074 0.00602600 0.02426460 0.00647795 0.00991210 0.00090038 0.01300795 0.03194038 0.01066337 0.00027988 
0.01247482 0.01624910 0.00805926 0.00199771 0.00604033 0.00100937 0.00337952 0.00602691 0.02472185 0.00635713 0.00971777 0.00089932 0.01316765 0.03110434 0.01038938 0.00027612 
0.01253363 0.01596760 0.00816882 0.00201880 0.00598335 0.00102878 0.00332337 0.00602112 0.02514562 0.00623198 0.00952257 0.00089860 0.01332495 0.03027346 0.01011297 0.00027560 
0.01258889 0.01568180 0.00826943 0.00203891 0.00592941 0.00104894 0.00327240 0.00600875 0.02553382 0.00610298 0.00932746 0.00089826 0.01347931 0.02945095 0.00983519 0.00027840 
0.01264103 0.01539258 0.00836074 0.00205794 0.00587856 0.00106980 0.00322672 0.00598997 0.02588450 0.00597063 0.00913339 0.00089834 0.01363021 0.02864001 0.00955712 0.00028459 
0.01269052 0.01510079 0.00844243 0.00207580 0.00583080 0.00109130 0.00318639 0.00596497 0.02619594 0.00583543 0.00894133 0.00089888 0.01377712 0.02784373 0.00927980 0.00029421 
0.01273787 0.01480729 0.00851419 0.00209241 0.00578615 0.00111336 0.00315148 0.00593397 0.02646660 0.00569785 0.00875221 0.00089990 0.01391955 0.02706517 0.00900426 0.00030731 
0.01278361 0.01451291 0.00857579 0.00210768 0.00574460 0.00113593 0.00312203 0.00589720 0.02669517 0.00555841 0.00856698 0.00090144 0.01405698 0.02630727 0.00873151 0.00032391 
0.01282827 0.01421847 0.00862698 0.00212155 0.00570612 0.00115893 0.00309805 0.00585494 0.02688051 0.00541759 0.00838655 0.00090354 0.01418895 0.02557287 0.00846254 0.00034400 
0.01287243 0.01392477 0.00866760 0.00213396 0.00567069 0.00118228 0.00307954 0.00580746 0.02702176 0.00527586 0.00821179 0.00090623 0.01431497 0.02486469 0.00819830 0.00036760 
0.01291665 0.01363260 0.00869748 0.00214485 0.00563825 0.00120592 0.00306649 0.00575507 0.02711822 0.00513370 0.00804357 0.00090954 0.01443460 0.02418531 0.00793970 0.00039468 
0.01296150 0.01334269 0.00871651 0.00215419 0.00560876 0.00122976 0.00305886 0.00569810 0.02716945 0.00499158 0.00788271 0.00091350 0.01454739 0.02353716 0.00768762 0.00042519 
0.01300758 0.01305578 0.00872464 0.00216194 0.00558214 0.00125371 0.00305660 0.00563686 0.02717522 0.00484995 0.00772996 0.00091813 0.01465294 0.02292250 0.00744289 0.00045910 
0.01305543 0.01277256 0.00872182 0.00216808 0.00555832 0.00127772 0.00305964 0.00557172 0.02713551 0.00470924 0.00758608 0.00092346 0.01475083 0.02234342 0.00720628 0.00049632 
0.01310562 0.01249370 0.00870806 0.00217261 0.00553723 0.00130168 0.00306789 0.00550301 0.02705055 0.00456989 0.00745173 0.00092950 0.01484070 0.02180183 0.00697854 0.00053679 
0.01315869 0.01221983 0.00868342 0.00217553 0.00551878 0.00132551 0.00308126 0.00543111 0.02692075 0.00443230 0.00732754 0.00093629 0.01492219 0.02129945 0.00676032 0.00058040 
0.01321515 0.01195155 0.00864798 0.00217684 0.00550287 0.00134915 0.00309964 0.00535638 0.02674676 0.00429687 0.00721407 0.00094382 0.01499496 0.02083780 0.00655226 0.00062703 
0.01327548 0.01168941 0.00860188 0.00217657 0.00548940 0.00137251 0.00312291 0.00527918 0.02652943 0.00416399 0.00711182 0.00095212 0.01505870 0.02041818 0.00635490 0.00067657 
0.01334014 0.01143396 0.00854528 0.00217476 0.00547829 0.00139550 0.00315093 0.00519988 0.02626981 0.00403401 0.00702124 0.00096117 0.01511313 0.02004169 0.00616873 0.00072886 
0.01340954 0.01118568 0.00847840 0.00217145 0.00546941 0.00141805 0.00318356 0.00511886 0.02596915 0.00390729 0.00694269 0.00097100 0.01515799 0.01970921 0.00599420 0.00078376 
0.01348404 0.01094503 0.00840150 0.00216670 0.00546268 0.00144009 0.00322065 0.00503646 0.02562889 0.00378416 0.00687649 0.00098158 0.01519302 0.01942140 0.00583166 0.00084109 
0.01356396 0.01071242 0.00831484 0.00216056 0.00545799 0.00146154 0.00326202 0.00495303 0.02525063 0.00366492 0.00682285 0.00099292 0.01521804 0.01917870 0.00568141 0.00090068 
0.01364957 0.01048823 0.00821877 0.00215311 0.00545523 0.00148233 0.00330750 0.00486894 0.02483618 0.00354988 0.00678195 0.00100500 0.01523284 0.01898134 0.00554369 0.00096231 
0.01374107 0.01027281 0.00811364 0.00214444 0.00545430 0.00150240 0.00335693 0.00478450 0.02438747 0.00343933 0.00675387 0.00101779 0.01523726 0.01882932 0.00541866 0.00102580 
0.01383862 0.01006646 0.00799983 0.00213463 0.00545511 0.00152167 0.00341010 0.00470005 0.02390661 0.00333351 0.00673863 0.00103129 0.01523118 0.01872241 0.00530643 0.00109092 
0.01394230 0.00986944 0.00787779 0.00212379 0.00545755 0.00154010 0.00346682 0.00461589 0.02339582 0.00323269 0.00673619 0.00104545 0.01521449 0.01866020 0.00520703 0.00115744 
0.01405212 0.00968200 0.00774795 0.00211201 0.00546155 0.00155762 0.00352691 0.00453231 0.02285748 0.00313709 0.00674641 0.00106025 0.01518711 0.01864204 0.00512043 0.00122512 
0.01416804 0.00950432 0.00761081 0.00209940 0.00546700 0.00157418 0.00359014 0.00444959 0.02229406 0.00304693 0.00676912 0.00107564 0.01514898 0.01866709 0.00504655 0.00129373 
0.01428993 0.00933658 0.00746687 0.00208609 0.00547383 0.00158973 0.00365632 0.00436800 0.02170815 0.00296242 0.00680404 0.00109159 0.01510009 0.01873431 0.00498522 0.00136301 
0.01441761 0.00917891 0.00731666 0.00207219 0.00548196 0.00160424 0.00372523 0.00428778 0.02110241 0.00288374 0.00685086 0.00110804 0.01504044 0.01884247 0.00493625 0.00143269 
0.01455082 0.00903140 0.00716074 0.00205782 0.00549132 0.00161765 0.00379665 0.00420915 0.02047960 0.00281107 0.00690921 0.00112494 0.01497005 0.01899017 0.00489936 0.00150253 
0.01468921 0.00889412 0.00699968 0.00204311 0.00550185 0.00162995 0.00387037 0.00413231 0.01984252 0.00274457 0.00697863 0.00114224 0.01488900 0.01917582 0.00487423 0.00157224 
0.01483240 0.00876711 0.00683406 0.00202817 0.00551349 0.00164110 0.00394616 0.00405746 0.01919404 0.00268439 0.00705864 0.00115987 0.01479735 0.01939767 0.00486048 0.00164156 
0.01497991 0.00865039 0.00666448 0.00201315 0.00552619 0.00165107 0.00402379 0.00398476 0.01853705 0.00263068 0.00714869 0.00117777 0.01469524 0.01965385 0.00485770 0.00171021 
0.01513120 0.00854394 0.00649156 0.00199815 0.00553991 0.00165985 0.00410304 0.00391436 0.01787447 0.00258355 0.00724819 0.00119588 0.01458281 0.01994232 0.00486540 0.00177794 
0.01528566 0.00844773 0.00631590 0.00198331 0.00555460 0.00166743 0.00418367 0.00384639 0.01720924 0.00254312 0.00735650 0.00121412 0.01446022 0.02026092 0.00488308 0.00184445 
0.01544264 0.00836170 0.00613815 0.00196874 0.00557025 0.00167380 0.00426546 0.00378096 0.01654428 0.00250950 0.00747297 0.00123243 0.01432768 0.02060739 0.00491020 0.00190950 
0.01560142 0.00828577 0.00595891 0.00195455 0.00558682 0.00167895 0.00434817 0.00371816 0.01588249 0.00248277 0.00759688 0.00125072 0.01418541 0.02097935 0.00494615 0.00197281 
0.01576120 0.00821985 0.00577882 0.00194087 0.00560430 0.00168289 0.00443156 0.00365806 0.01522676 0.00246303 0.00772750 0.00126892 0.01403368 0.02137436 0.00499033 0.00203412 
0.01592118 0.00816383 0.00559850 0.00192779 0.00562268 0.00168562 0.00451539 0.00360073 0.01457992 0.00245034 0.00786410 0.00128697 0.01387277 0.02178988 0.00504209 0.00209318 
0.01608047 0.00811757 0.00541856 0.00191541 0.00564195 0.00168717 0.00459943 0.00354620 0.01394476 0.00244476 0.00800590 0.00130477 0.01370298 0.02222331 0.00510077 0.00214974 
0.01623817 0.00808094 0.00523961 0.00190383 0.00566211 0.00168754 0.00468344 0.00349451 0.01332399 0.00244636 0.00815213 0.00132225 0.01352467 0.02267204 0.00516566 0.00220357 
0.01639334 0.00805379 0.00506225 0.00189312 0.00568316 0.00168675 0.00476717 0.00344568 0.01272024 0.00245517 0.00830200 0.00133934 0.01333819 0.02313338 0.00523606 0.00225444 
0.01654499 0.00803597 0.00488706 0.00188337 0.00570511 0.00168484 0.00485038 0.00339969 0.01213607 0.00247121 0.00845475 0.00135596 0.01314396 0.02360467 0.00531127 0.00230214 
0.01669215 0.00802729 0.00471461 0.00187463 0.00572797 0.00168183 0.00493284 0.00335656 0.01157393 0.00249452 0.00860960 0.00137204 0.01294238 0.02408320 0.00539055 0.00234645 
0.01683379 0.00802761 0.00454545 0.00186697 0.00575174 0.00167776 0.00501428 0.00331625 0.01103615 0.00252510 0.00876578 0.00138751 0.01273391 0.02456631 0.00547317 0.00238718 
0.01696892 0.00803674 0.00438010 0.00186043 0.00577643 0.00167266 0.00509448 0.00327875 0.01052497 0.00256294 0.00892256 0.00140229 0.01251903 0.02505134 0.00555840 0.00242417 
0.01709650 0.00805450 0.00421908 0.00185505 0.00580206 0.00166658 0.00517318 0.00324403 0.01004248 0.00260803 0.00907921 0.00141633 0.01229825 0.02553566 0.00564553 0.00245724 
0.01721554 0.00808071 0.00406287 0.00185085 0.00582863 0.00165957 0.00525014 0.00321204 0.00959065 0.00266034 0.00923503 0.00142956 0.01207208 0.02601671 0.00573381 0.00248626 
0.01732504 0.00811521 0.00391193 0.00184784 0.00585615 0.00165167 0.00532512 0.00318276 0.00917129 0.00271983 0.00938937 0.00144193 0.01184110 0.02649197 0.00582256 0.00251109 
0.01742402 0.00815781 0.00376669 0.00184602 0.00588461 0.00164293 0.00539787 0.00315613 0.00878609 0.00278643 0.00954159 0.00145338 0.01160588 0.02695902 0.00591107 0.00253162 
0.01751154 0.00820834 0.00362755 0.00184540 0.00591401 0.00163342 0.00546814 0.00313211 0.00843657 0.00286008 0.00969111 0.00146386 0.01136703 0.02741548 0.00599868 0.00254775 
0.01758669 0.00826663 0.00349489 0.00184595 0.00594434 0.00162317 0.00553570 0.00311067 0.00812408 0.00294069 0.00983739 0.00147333 0.01112517 0.02785911 0.00608472 0.00255942 
0.01764860 0.00833252 0.00336904 0.00184763 0.00597559 0.00161226 0.00560031 0.00309176 0.00784985 0.00302815 0.00997993 0.00148176 0.01088096 0.02828774 0.00616857 0.00256655 
0.01769644 0.00840585 0.00325032 0.00185042 0.00600773 0.00160074 0.00566172 0.00307534 0.00761489 0.00312234 0.01011828 0.00148911 0.01063507 0.02869934 0.00624962 0.00256913 
0.01772945 0.00848645 0.00313902 0.00185425 0.00604071 0.00158867 0.00571970 0.00306138 0.00742008 0.00322312 0.01025205 0.00149536 0.01038819 0.02909197 0.00632731 0.00256712 
0.01774692 0.00857419 0.00303536 0.00185907 0.00607450 0.00157612 0.00577402 0.00304985 0.00726612 0.00333032 0.01038091 0.00150048 0.01014104 0.02946386 0.00640109 0.00256053 
0.01774822 0.00866892 0.00293958 0.00186482 0.00610904 0.00156315 0.00582446 0.00304073 0.00715352 0.00344377 0.01050457 0.00150448 0.00989434 0.02981334 0.00647047 0.00254939 
0.01773277 0.00877050 0.00285184 0.00187140 0.00614425 0.00154982 0.00587079 0.00303400 0.00708265 0.00356327 0.01062281 0.00150734 0.00964884 0.03013891 0.00653497 0.00253373 
0.01770009 0.00887880 0.00277229 0.00187875 0.00618006 0.00153620 0.00591279 0.00302964 0.00705369 0.00368859 0.01073546 0.00150906 0.00940530 0.03043921 0.00659418 0.00251361 
0.01764977 0.00899369 0.00270104 0.00188675 0.00621635 0.00152235 0.00595026 0.00302766 0.00706663 0.00381950 0.01084243 0.00150965 0.00916449 0.03071303 0.00664772 0.00248912 
0.01758148 0.00911506 0.00263818 0.00189532 0.00625303 0.00150834 0.00598299 0.00302806 0.00712133 0.00395574 0.01094367 0.00150913 0.00892720 0.03095934 0.00669524 0.00246034 
0.01749498 0.00924279 0.00258374 0.00190435 0.00628996 0.00149422 0.00601079 0.00303085 0.00721745 0.00409701 0.01103920 0.00150751 0.00869423 0.03117726 0.00673645 0.00242741 
0.01739014 0.00937676 0.00253775 0.00191373 0.00632700 0.00148007 0.00603348 0.00303605 0.00735451 0.00424301 0.01112909 0.00150483 0.00846636 0.03136606 0.00677111 0.00239045 
0.01726689 0.00951688 0.00250017 0.00192335 0.00636398 0.00146593 0.00605088 0.00304369 0.00753184 0.00439342 0.01121346 0.00150111 0.00824440 0.03152522 0.00679902 0.00234962 
0.01712528 0.00966302 0.00247096 0.00193309 0.00640074 0.00145188 0.00606283 0.00305380 0.00774864 0.00454789 0.01129252 0.00149640 0.00802915 0.03165435 0.00682004 0.00230509 
0.01696544 0.00981509 0.00245005 0.00194283 0.00643709 0.00143797 0.00606919 0.00306644 0.00800394 0.00470604 0.01136649 0.00149075 0.00782142 0.03175327 0.00683407 0.00225704 
0.01678762 0.00997298 0.00243731 0.00195245 0.00647281 0.00142425 0.00606982 0.00308164 0.00829663 0.00486749 0.01143567 0.00148419 0.00762200 0.03182194 0.00684106 0.00220568 
0.01659214 0.01013659 0.00243262 0.00196183 0.00650768 0.00141078 0.00606460 0.00309946 0.00862546 0.00503182 0.01150040 0.00147679 0.00743168 0.03186051 0.00684102 0.00215121 
0.01637942 0.01030581 0.00243581 0.00197086 0.00654147 0.00139762 0.00605343 0.00311995 0.00898905 0.00519861 0.01156107 0.00146861 0.00725124 0.03186929 0.00683400 0.00209387 
0.01614998 0.01048052 0.00244668 0.00197941 0.00657394 0.00138480 0.00603623 0.00314320 0.00938587 0.00536741 0.01161809 0.00145971 0.00708145 0.03184877 0.00682011 0.00203389 
0.01590444 0.01066060 0.00246502 0.00198737 0.00660480 0.00137239 0.00601292 0.00316925 0.00981429 0.00553775 0.01167193 0.00145015 0.00692306 0.03179960 0.00679950 0.00197154 
0.01564348 0.01084595 0.00249059 0.00199464 0.00663380 0.00136042 0.00598347 0.00319818 0.01027257 0.00570916 0.01172308 0.00144001 0.00677679 0.03172259 0.00677240 0.00190706 
0.01536789 0.01103642 0.00252313 0.00200109 0.00666065 0.00134894 0.00594785 0.00323005 0.01075884 0.00588114 0.01177208 0.00142937 0.00664335 0.03161873 0.00673904 0.00184073 
0.01507853 0.01123187 0.00256236 0.00200664 0.00668504 0.00133798 0.00590605 0.00326494 0.01127116 0.00605319 0.01181947 0.00141828 0.00652341 0.03148913 0.00669975 0.00177283 
0.01477634 0.01143217 0.00260799 0.00201118 0.00670670 0.00132758 0.00585810 0.00330292 0.01180748 0.00622479 0.01186581 0.00140684 0.00641763 0.03133509 0.00665487 0.00170364 
0.01446232 0.01163713 0.00265969 0.00201463 0.00672529 0.00131778 0.00580405 0.00334403 0.01236568 0.00639542 0.01191170 0.00139512 0.00632661 0.03115804 0.00660481 0.00163346 
0.01413756 0.01184659 0.00271714 0.00201690 0.00674053 0.00130860 0.00574395 0.00338836 0.01294358 0.00656456 0.01195773 0.00138319 0.00625092 0.03095953 0.00655001 0.00156257 
0.01380320 0.01206036 0.00277999 0.00201793 0.00675209 0.00130007 0.00567791 0.00343593 0.01353891 0.00673166 0.01200450 0.00137113 0.00619111 0.03074127 0.00649097 0.00149127 
0.01346041 0.01227824 0.00284788 0.00201764 0.00675968 0.00129222 0.00560605 0.00348681 0.01414937 0.00689619 0.01205261 0.00135902 0.00614765 0.03050509 0.00642820 0.00141986 
0.01311044 0.01250000 0.00292044 0.00201597 0.00676297 0.00128506 0.00552853 0.00354103 0.01477262 0.00705762 0.01210266 0.00134694 0.00612098 0.03025294 0.00636228 0.00134865 
0.01275456 0.01272540 0.00299731 0.00201289 0.00676168 0.00127862 0.00544551 0.00359860 0.01540628 0.00721542 0.01215522 0.00133495 0.00611149 0.02998687 0.00629383 0.00127792 
0.01239409 0.01295418 0.00307809 0.00200835 0.00675552 0.00127290 0.00535721 0.00365956 0.01604793 0.00736906 0.01221088 0.00132314 0.00611951 0.02970905 0.00622347 0.00120797 
0.01203036 0.01318607 0.00316240 0.00200232 0.00674420 0.00126793 0.00526386 0.00372389 0.01669517 0.00751804 0.01227018 0.00131155 0.00614532 0.02942175 0.00615188 0.00113909 
0.01166473 0.01342077 0.00324986 0.00199480 0.00672745 0.00126370 0.00516572 0.00379158 0.01734556 0.00766183 0.01233365 0.00130027 0.00618911 0.02912729 0.00607977 0.00107158 
0.01129857 0.01365797 0.00334005 0.00198576 0.00670504 0.00126023 0.00506309 0.00386260 0.01799671 0.00779997 0.01240179 0.00128934 0.00625104 0.02882811 0.00600786 0.00100570 
0.01093323 0.01389731 0.00343260 0.00197521 0.00667672 0.00125751 0.00495629 0.00393691 0.01864620 0.00793196 0.01247507 0.00127884 0.00633120 0.02852670 0.00593690 0.00094175 
0.01057009 0.01413845 0.00352710 0.00196317 0.00664230 0.00125555 0.00484567 0.00401445 0.01929167 0.00805737 0.01255392 0.00126879 0.00642958 0.02822559 0.00586767 0.00087997 
0.01021050 0.01438099 0.00362317 0.00194965 0.00660159 0.00125435 0.00473161 0.00409513 0.01993076 0.00817575 0.01263872 0.00125927 0.00654613 0.02792739 0.00580096 0.00082064 
0.00985579 0.01462454 0.00372042 0.00193470 0.00655443 0.00125391 0.00461450 0.00417885 0.02056120 0.00828670 0.01272983 0.00125030 0.00668072 0.02763472 0.00573756 0.00076399 
0.00950726 0.01486867 0.00381848 0.00191834 0.00650071 0.00125421 0.00449480 0.00426549 0.02118072 0.00838985 0.01282753 0.00124192 0.00683314 0.02735024 0.00567829 0.00071027 
0.00916620 0.01511294 0.00391696 0.00190064 0.00644032 0.00125524 0.00437294 0.00435492 0.02178714 0.00848484 0.01293208 0.00123416 0.00700310 0.02707662 0.00562396 0.00065969 
0.00883383 0.01535687 0.00401551 0.00188166 0.00637322 0.00125701 0.00424941 0.00444697 0.02237836 0.00857135 0.01304368 0.00122704 0.00719025 0.02681653 0.00557539 0.00061248 
0.00851133 0.01560000 0.00411377 0.00186145 0.00629937 0.00125949 0.00412473 0.00454146 0.02295232 0.00864909 0.01316247 0.00122060 0.00739416 0.02657265 0.00553341 0.00056883 
0.00819983 0.01584181 0.00421139 0.00184010 0.00621880 0.00126268 0.00399941 0.00463820 0.02350709 0.00871782 0.01328852 0.00121482 0.00761430 0.02634761 0.00549881 0.00052892 
0.00790042 0.01608178 0.00430805 0.00181770 0.00613157 0.00126656 0.00387400 0.00473696 0.02404078 0.00877732 0.01342187 0.00120973 0.00785010 0.02614404 0.00547240 0.00049293 
0.00761409 0.01631939 0.00440342 0.00179433 0.00603777 0.00127111 0.00374906 0.00483750 0.02455165 0.00882741 0.01356248 0.00120533 0.00810088 0.02596451 0.00545496 0.00046100 
0.00734177 0.01655407 0.00449720 0.00177009 0.00593755 0.00127632 0.00362518 0.00493956 0.02503804 0.00886796 0.01371027 0.00120160 0.00836592 0.02581155 0.00544728 0.00043328 
0.00708435 0.01678528 0.00458911 0.00174509 0.00583110 0.00128217 0.00350296 0.00504287 0.02549839 0.00889888 0.01386507 0.00119854 0.00864438 0.02568760 0.00545008 0.00040990 
0.00684259 0.01701243 0.00467886 0.00171943 0.00571865 0.00128865 0.00338299 0.00514713 0.02593128 0.00892009 0.01402668 0.00119613 0.00893541 0.02559504 0.00546409 0.00039095 
0.00661721 0.01723495 0.00476621 0.00169322 0.00560048 0.00129573 0.00326589 0.00525203 0.02633541 0.00893160 0.01419483 0.00119435 0.00923803 0.02553617 0.00549001 0.00037652 
0.00640882 0.01745225 0.00485092 0.00166659 0.00547691 0.00130340 0.00315229 0.00535725 0.02670960 0.00893343 0.01436918 0.00119317 0.00955125 0.02551316 0.00552848 0.00036669 
0.00621796 0.01766374 0.00493277 0.00163964 0.00534831 0.00131164 0.00304280 0.00546245 0.02705279 0.00892565 0.01454935 0.00119256 0.00987397 0.02552811 0.00558012 0.00036152 
0.00604507 0.01786882 0.00501155 0.00161251 0.00521510 0.00132043 0.00293807 0.00556727 0.02736407 0.00890836 0.01473489 0.00119249 0.01020506 0.02558294 0.00564551 0.00036103 
0.00589051 0.01806690 0.00508710 0.00158531 0.00507773 0.00132976 0.00283871 0.00567136 0.02764267 0.00888172 0.01492532 0.00119291 0.01054333 0.02567950 0.00572517 0.00036525 
0.00575455 0.01825740 0.00515924 0.00155817 0.00493671 0.00133960 0.00274534 0.00577434 0.02788795 0.00884592 0.01512008 0.00119378 0.01088753 0.02581943 0.00581958 0.00037418 
0.00563735 0.01843974 0.00522784 0.00153121 0.00479258 0.00134994 0.00265857 0.00587583 0.02809941 0.00880118 0.01531857 0.00119506 0.01123638 0.02600427 0.00592916 0.00038780 
0.00553902 0.01861333 0.00529279 0.00150456 0.00464593 0.00136076 0.00257901 0.00597546 0.02827670 0.00874778 0.01552017 0.00119669 0.01158855 0.02623536 0.00605428 0.00040608 
0.00545953 0.01877762 0.00535398 0.00147833 0.00449736 0.00137205 0.00250725 0.00607284 0.02841962 0.00868601 0.01572418 0.00119863 0.01194268 0.02651388 0.00619525 0.00042898 
0.00539881 0.01893207 0.00541133 0.00145265 0.00434755 0.00138380 0.00244385 0.00616758 0.02852808 0.00861622 0.01592989 0.00120082 0.01229736 0.02684080 0.00635230 0.00045641 
0.00535667 0.01907615 0.00546480 0.00142763 0.00419717 0.00139597 0.00238936 0.00625929 0.02860218 0.00853876 0.01613654 0.00120320 0.01265120 0.02721694 0.00652562 0.00048831 
0.00533287 0.01920934 0.00551435 0.00140340 0.00404694 0.00140858 0.00234430 0.00634761 0.02864213 0.00845403 0.01634335 0.00120573 0.01300276 0.02764288 0.00671530 0.00052458 
0.00532707 0.01933117 0.00555997 0.00138005 0.00389761 0.00142159 0.00230918 0.00643214 0.02864829 0.00836247 0.01654951 0.00120835 0.01335058 0.02811900 0.00692138 0.00056508 
0.00533886 0.01944118 0.00560165 0.00135770 0.00374994 0.00143499 0.00228447 0.00651253 0.02862115 0.00826451 0.01675419 0.00121100 0.01369324 0.02864548 0.00714381 0.00060971 
0.00536774 0.01953895 0.00563945 0.00133644 0.00360471 0.00144879 0.00227059 0.00658842 0.02856134 0.00816063 0.01695655 0.00121363 0.01402929 0.02922225 0.00738249 0.00065831 
0.00541318 0.01962407 0.00567339 0.00131639 0.00346272 0.00146295 0.00226795 0.00665947 0.02846963 0.00805131 0.01715573 0.00121618 0.01435729 0.02984905 0.00763722 0.00071072 
0.00547456 0.01969620 0.00570356 0.00129762 0.00332478 0.00147748 0.00227692 0.00672533 0.02834690 0.00793707 0.01735087 0.00121862 0.01467582 0.03052535 0.00790773 0.00076678 
0.00555121 0.01975501 0.00573003 0.00128023 0.00319169 0.00149236 0.00229780 0.00678571 0.02819416 0.00781841 0.01754111 0.00122088 0.01498351 0.03125041 0.00819366 0.00082629 
0.00564240 0.01980022 0.00575291 0.00126429 0.00306428 0.00150758 0.00233088 0.00684030 0.02801255 0.00769587 0.01772560 0.00122292 0.01527898 0.03202325 0.00849458 0.00088907 
0.00574737 0.01983160 0.00577233 0.00124989 0.00294335 0.00152313 0.00237638 0.00688884 0.02780329 0.00756997 0.01790348 0.00122470 0.01556092 0.03284264 0.00880998 0.00095490 
0.00586530 0.01984894 0.00578842 0.00123708 0.00282970 0.00153900 0.00243449 0.00693107 0.02756774 0.00744126 0.01807394 0.00122619 0.01582804 0.03370712 0.00913927 0.00102357 
0.00599534 0.01985211 0.00580134 0.00122593 0.00272411 0.00155518 0.00250534 0.00696677 0.02730734 0.00731028 0.01823617 0.00122734 0.01607912 0.03461499 0.00948177 0.00109484 
0.00613662 0.01984100 0.00581126 0.00121649 0.00262736 0.00157166 0.00258901 0.00699574 0.02702362 0.00717755 0.01838938 0.00122813 0.01631299 0.03556433 0.00983674 0.00116850 
0.00628822 0.01981556 0.00581836 0.00120881 0.00254017 0.00158842 0.00268553 0.00701779 0.02671822 0.00704360 0.01853282 0.00122853 0.01652854 0.03655296 0.01020335 0.00124429 
0.00644924 0.01977581 0.00582283 0.00120293 0.00246328 0.00160546 0.00279486 0.00703280 0.02639282 0.00690895 0.01866580 0.00122851 0.01672472 0.03757849 0.01058069 0.00132195 
0.00661874 0.01972180 0.00582489 0.00119888 0.00239735 0.00162277 0.00291693 0.00704064 0.02604920 0.00677411 0.01878763 0.00122807 0.01690058 0.03863832 0.01096779 0.00140125 
0.00679577 0.01965364 0.00582475 0.00119669 0.00234302 0.00164032 0.00305158 0.00704123 0.02568918 0.00663957 0.01889771 0.00122719 0.01705524 0.03972961 0.01136362 0.00148191 
0.00697940 0.01957149 0.00582264 0.00119638 0.00230091 0.00165810 0.00319864 0.00703452 0.02531465 0.00650581 0.01899546 0.00122586 0.01718788 0.04084934 0.01176706 0.00156367 
0.00716869 0.01947557 0.00581877 0.00119796 0.00227154 0.00167609 0.00335784 0.00702048 0.02492754 0.00637327 0.01908038 0.00122409 0.01729781 0.04199428 0.01217693 0.00164626 
0.00736272 0.01936616 0.00581340 0.00120144 0.00225543 0.00169428 0.00352886 0.00699914 0.02452982 0.00624240 0.01915201 0.00122188 0.01738440 0.04316101 0.01259202 0.00172943 
0.00756057 0.01924359 0.00580676 0.00120682 0.00225301 0.00171265 0.00371136 0.00697054 0.02412347 0.00611359 0.01920998 0.00121924 0.01744714 0.04434597 0.01301104 0.00181288 
0.00776137 0.01910825 0.00579909 0.00121409 0.00226467 0.00173116 0.00390489 0.00693476 0.02371050 0.00598723 0.01925396 0.00121618 0.01748559 0.04554542 0.01343265 0.00189637 
0.00796423 0.01896056 0.00579064 0.00122323 0.00229073 0.00174981 0.00410898 0.00689191 0.02329293 0.00586368 0.01928372 0.00121273 0.01749945 0.04675548 0.01385548 0.00197961 
0.00816834 0.01880103 0.00578164 0.00123422 0.00233143 0.00176855 0.00432311 0.00684215 0.02287279 0.00574325 0.01929909 0.00120890 0.01748848 0.04797215 0.01427812 0.00206234 
0.00837288 0.01863020 0.00577234 0.00124705 0.00238696 0.00178736 0.00454669 0.00678564 0.02245208 0.00562625 0.01929998 0.00120475 0.01745259 0.04919131 0.01469913 0.00214430 
0.00857710 0.01844867 0.00576297 0.00126167 0.00245745 0.00180620 0.00477909 0.00672261 0.02203281 0.00551294 0.01928638 0.00120029 0.01739175 0.05040878 0.01511705 0.00222523 
0.00878027 0.01825707 0.00575376 0.00127806 0.00254291 0.00182504 0.00501962 0.00665329 0.02161693 0.00540354 0.01925837 0.00119556 0.01730608 0.05162030 0.01553038 0.00230489 
0.00898172 0.01805611 0.00574492 0.00129616 0.00264333 0.00184385 0.00526757 0.00657796 0.02120639 0.00529825 0.01921610 0.00119063 0.01719577 0.05282154 0.01593763 0.00238301 
0.00918081 0.01784653 0.00573668 0.00131594 0.00275858 0.00186257 0.00552216 0.00649693 0.02080309 0.00519725 0.01915982 0.00118552 0.01706113 0.05400816 0.01633731 0.00245936 
0.00937696 0.01762910 0.00572922 0.00133734 0.00288848 0.00188117 0.00578259 0.00641052 0.02040886 0.00510067 0.01908985 0.00118030 0.01690259 0.05517584 0.01672791 0.00253371 
0.00956964 0.01740465 0.00572274 0.00136029 0.00303276 0.00189960 0.00604802 0.00631910 0.02002551 0.00500860 0.01900661 0.00117502 0.01672064 0.05632024 0.01710797 0.00260584 
0.00975837 0.01717405 0.00571742 0.00138476 0.00319108 0.00191781 0.00631758 0.00622305 0.01965475 0.00492112 0.01891058 0.00116973 0.01651590 0.05743709 0.01747603 0.00267553 
0.00994272 0.01693820 0.00571340 0.00141065 0.00336303 0.00193574 0.00659035 0.00612277 0.01929824 0.00483826 0.01880236 0.00116451 0.01628909 0.05852217 0.01783064 0.00274258 
0.01012232 0.01669803 0.00571084 0.00143792 0.00354810 0.00195335 0.00686541 0.00601869 0.01895755 0.00476004 0.01868259 0.00115940 0.01604100 0.05957137 0.01817042 0.00280679 
0.01029685 0.01645450 0.00570986 0.00146648 0.00374574 0.00197056 0.00714182 0.00591127 0.01863420 0.00468644 0.01855202 0.00115448 0.01577253 0.06058067 0.01849401 0.00286800 
0.01046604 0.01620861 0.00571056 0.00149627 0.00395530 0.00198734 0.00741861 0.00580097 0.01832957 0.00461741 0.01841146 0.00114982 0.01548464 0.06154622 0.01880012 0.00292603 
0.01062968 0.01596137 0.00571304 0.00152720 0.00417608 0.00200360 0.00769480 0.00568828 0.01804498 0.00455288 0.01826181 0.00114547 0.01517840 0.06246430 0.01908752 0.00298074 
0.01078762 0.01571381 0.00571736 0.00155920 0.00440730 0.00201929 0.00796941 0.00557369 0.01778165 0.00449275 0.01810402 0.00114151 0.01485493 0.06333141 0.01935502 0.00303197 
0.01093974 0.01546701 0.00572356 0.00159217 0.00464813 0.00203435 0.00824145 0.00545771 0.01754069 0.00443692 0.01793911 0.00113800 0.01451542 0.06414425 0.01960154 0.00307961 
0.01108597 0.01522201 0.00573168 0.00162604 0.00489769 0.00204870 0.00850993 0.00534085 0.01732311 0.00438524 0.01776818 0.00113501 0.01416114 0.06489973 0.01982608 0.00312355 
0.01122631 0.01497990 0.00574171 0.00166073 0.00515501 0.00206228 0.00877389 0.00522365 0.01712980 0.00433756 0.01759236 0.00113260 0.01379340 0.06559505 0.02002771 0.00316369 
0.01136079 0.01474177 0.00575364 0.00169613 0.00541911 0.00207502 0.00903235 0.00510664 0.01696155 0.00429371 0.01741284 0.00113083 0.01341358 0.06622766 0.02020560 0.00319996 
0.01148948 0.01450870 0.00576743 0.00173217 0.00568894 0.00208686 0.00928436 0.00499033 0.01681904 0.00425352 0.01723086 0.00112977 0.01302307 0.06679532 0.02035905 0.00323229 
0.01161249 0.01428178 0.00578301 0.00176875 0.00596342 0.00209773 0.00952900 0.00487527 0.01670281 0.00421679 0.01704769 0.00112948 0.01262334 0.06729609 0.02048744 0.00326064 
0.01172997 0.01406210 0.00580031 0.00180579 0.00624143 0.00210756 0.00976535 0.00476198 0.01661331 0.00418334 0.01686463 0.00113000 0.01221585 0.06772836 0.02059028 0.00328497 
0.01184209 0.01385072 0.00581921 0.00184319 0.00652184 0.00211629 0.00999255 0.00465099 0.01655087 0.00415295 0.01668300 0.00113140 0.01180212 0.06809087 0.02066719 0.00330528 
0.01194908 0.01364872 0.00583960 0.00188086 0.00680347 0.00212385 0.01020976 0.00454280 0.01651569 0.00412542 0.01650415 0.00113372 0.01138365 0.06838273 0.02071793 0.00332156 
0.01205115 0.01345714 0.00586133 0.00191872 0.00708515 0.00213018 0.01041617 0.00443793 0.01650787 0.00410056 0.01632941 0.00113701 0.01096198 0.06860337 0.02074236 0.00333384 
0.01214857 0.01327701 0.00588425 0.00195668 0.00736567 0.00213524 0.01061102 0.00433687 0.01652738 0.00407815 0.01616015 0.00114131 0.01053864 0.06875266 0.02074049 0.00334215 
0.01224161 0.01310933 0.00590816 0.00199464 0.00764385 0.00213895 0.01079362 0.00424010 0.01657409 0.00405801 0.01599769 0.00114664 0.01011514 0.06883081 0.02071247 0.00334654 
0.01233056 0.01295509 0.00593288 0.00203253 0.00791848 0.00214128 0.01096328 0.00414807 0.01664776 0.00403995 0.01584335 0.00115305 0.00969301 0.06883842 0.02065855 0.00334708 
0.01241571 0.01281522 0.00595820 0.00207026 0.00818839 0.00214217 0.01111942 0.00406124 0.01674803 0.00402378 0.01569843 0.00116056 0.00927373 0.06877651 0.02057915 0.00334385 
0.01249737 0.01269064 0.00598390 0.00210775 0.00845239 0.00214160 0.01126146 0.00398003 0.01687444 0.00400935 0.01556419 0.00116918 0.00885879 0.06864646 0.02047481 0.00333695 
0.01257584 0.01258223 0.00600975 0.00214492 0.00870935 0.00213951 0.01138893 0.00390483 0.01702644 0.00399650 0.01544184 0.00117894 0.00844960 0.06845006 0.02034621 0.00332649 
0.01265142 0.01249081 0.00603551 0.00218169 0.00895815 0.00213589 0.01150139 0.00383602 0.01720335 0.00398509 0.01533255 0.00118984 0.00804757 0.06818947 0.02019414 0.00331260 
0.01272442 0.01241718 0.00606092 0.00221799 0.00919768 0.00213070 0.01159847 0.00377396 0.01740444 0.00397501 0.01523741 0.00120189 0.00765406 0.06786722 0.02001954 0.00329541 
0.01279511 0.01236207 0.00608574 0.00225375 0.00942691 0.00212395 0.01167988 0.00371896 0.01762885 0.00396615 0.01515748 0.00121508 0.00727038 0.06748624 0.01982349 0.00327508 
0.01286377 0.01232616 0.00610971 0.00228891 0.00964484 0.00211560 0.01174538 0.00367132 0.01787567 0.00395845 0.01509371 0.00122939 0.00689776 0.06704977 0.01960715 0.00325176 
0.01293066 0.01231008 0.00613258 0.00232341 0.00985050 0.00210568 0.01179481 0.00363129 0.01814390 0.00395183 0.01504697 0.00124483 0.00653740 0.06656143 0.01937184 0.00322564 
0.01299602 0.01231441 0.00615408 0.00235718 0.01004301 0.00209418 0.01182807 0.00359912 0.01843244 0.00394626 0.01501805 0.00126136 0.00619042 0.06602513 0.01911897 0.00319690 
0.01306006 0.01233965 0.00617398 0.00239019 0.01022153 0.00208111 0.01184514 0.00357499 0.01874016 0.00394173 0.01500764 0.00127896 0.00585787 0.06544510 0.01885007 0.00316573 
0.01312298 0.01238624 0.00619203 0.00242237 0.01038529 0.00206651 0.01184606 0.00355907 0.01906585 0.00393824 0.01501632 0.00129760 0.00554074 0.06482585 0.01856674 0.00313233 
0.01318494 0.01245456 0.00620798 0.00245370 0.01053358 0.00205041 0.01183094 0.00355150 0.01940825 0.00393584 0.01504458 0.00131723 0.00523992 0.06417215 0.01827071 0.00309691 
0.01324609 0.01254490 0.00622162 0.00248413 0.01066577 0.00203285 0.01179995 0.00355236 0.01976604 0.00393458 0.01509277 0.00133782 0.00495622 0.06348901 0.01796377 0.00305968 
0.01330651 0.01265749 0.00623274 0.00251364 0.01078132 0.00201388 0.01175336 0.00356172 0.02013788 0.00393454 0.01516114 0.00135931 0.00469039 0.06278162 0.01764779 0.00302088 
0.01336630 0.01279247 0.00624113 0.00254220 0.01087974 0.00199356 0.01169147 0.00357961 0.02052237 0.00393583 0.01524980 0.00138164 0.00444307 0.06205538 0.01732470 0.00298072 
0.01342548 0.01294992 0.00624662 0.00256980 0.01096064 0.00197196 0.01161465 0.00360600 0.02091810 0.00393856 0.01535875 0.00140476 0.00421482 0.06131583 0.01699649 0.00293942 
0.01348407 0.01312983 0.00624904 0.00259642 0.01102371 0.00194916 0.01152334 0.00364085 0.02132362 0.00394289 0.01548787 0.00142861 0.00400609 0.06056862 0.01666520 0.00289723 
0.01354203 0.01333209 0.00624826 0.00262207 0.01106872 0.00192524 0.01141804 0.00368408 0.02173747 0.00394899 0.01563688 0.00145310 0.00381726 0.05981949 0.01633290 0.00285437 
0.01359931 0.01355653 0.00624416 0.00264674 0.01109552 0.00190031 0.01129929 0.00373558 0.02215820 0.00395704 0.01580541 0.00147818 0.00364862 0.05907422 0.01600168 0.00281108 
0.01365580 0.01380287 0.00623663 0.00267044 0.01110407 0.00187447 0.01116770 0.00379519 0.02258433 0.00396724 0.01599293 0.00150375 0.00350033 0.05833863 0.01567364 0.00276757 
0.01371139 0.01407075 0.00622562 0.00269318 0.01109437 0.00184782 0.01102392 0.00386272 0.02301440 0.00397982 0.01619880 0.00152975 0.00337250 0.05761851 0.01535088 0.00272409 
0.01376590 0.01435973 0.00621107 0.00271500 0.01106655 0.00182050 0.01086864 0.00393796 0.02344695 0.00399500 0.01642225 0.00155609 0.00326510 0.05691961 0.01503550 0.00268085 
0.01381915 0.01466927 0.00619298 0.00273590 0.01102080 0.00179263 0.01070260 0.00402067 0.02388055 0.00401304 0.01666238 0.00158268 0.00317805 0.05624758 0.01472957 0.00263807 
0.01387091 0.01499873 0.00617135 0.00275594 0.01095740 0.00176433 0.01052657 0.00411055 0.02431380 0.00403420 0.01691820 0.00160942 0.00311115 0.05560798 0.01443512 0.00259597 
0.01392094 0.01534739 0.00614623 0.00277513 0.01087670 0.00173577 0.01034136 0.00420730 0.02474529 0.00405872 0.01718858 0.00163625 0.00306411 0.05500619 0.01415415 0.00255476 
0.01396897 0.01571445 0.00611768 0.00279354 0.01077913 0.00170707 0.01014779 0.00431058 0.02517370 0.00408688 0.01747230 0.00166305 0.00303656 0.05444743 0.01388859 0.00251464 
0.01401469 0.01609899 0.00608581 0.00281121 0.01066521 0.00167839 0.00994673 0.00442004 0.02559771 0.00411896 0.01776803 0.00168974 0.00302803 0.05393671 0.01364029 0.00247579 
0.01405779 0.01650004 0.00605073 0.00282818 0.01053550 0.00164988 0.00973904 0.00453528 0.02601607 0.00415522 0.01807436 0.00171622 0.00303799 0.05347876 0.01341106 0.00243841 
0.01409795 0.01691651 0.00601261 0.00284453 0.01039067 0.00162171 0.00952561 0.00465590 0.02642756 0.00419593 0.01838979 0.00174241 0.00306579 0.05307809 0.01320259 0.00240267 
0.01413481 0.01734723 0.00597162 0.00286031 0.01023142 0.00159403 0.00930733 0.00478147 0.02683104 0.00424135 0.01871275 0.00176820 0.00311074 0.05273887 0.01301647 0.00236872 
0.01416803 0.01779098 0.00592798 0.00287558 0.01005852 0.00156701 0.00908511 0.00491154 0.02722542 0.00429175 0.01904160 0.00179351 0.00317206 0.05246495 0.01285421 0.00233672 
0.01419724 0.01824641 0.00588192 0.00289041 0.00987279 0.00154081 0.00885983 0.00504564 0.02760967 0.00434735 0.01937467 0.00181825 0.00324888 0.05225986 0.01271716 0.00230682 
0.01422209 0.01871213 0.00583370 0.00290488 0.00967510 0.00151560 0.00863239 0.00518331 0.02798283 0.00440841 0.01971023 0.00184233 0.00334028 0.05212673 0.01260658 0.00227913 
0.01424221 0.01918667 0.00578361 0.00291905 0.00946639 0.00149152 0.00840368 0.00532406 0.02834401 0.00447513 0.02004652 0.00186566 0.00344530 0.05206831 0.01252360 0.00225377 
0.01425726 0.01966848 0.00573194 0.00293299 0.00924759 0.00146876 0.00817454 0.00546738 0.02869241 0.00454771 0.02038178 0.00188816 0.00356288 0.05208695 0.01246918 0.00223085 
0.01426689 0.02015596 0.00567902 0.00294678 0.00901972 0.00144745 0.00794584 0.00561278 0.02902729 0.00462633 0.02071424 0.00190975 0.00369194 0.05218457 0.01244415 0.00221044 
0.01427078 0.02064745 0.00562519 0.00296049 0.00878377 0.00142776 0.00771840 0.00575975 0.02934799 0.00471115 0.02104213 0.00193036 0.00383135 0.05236267 0.01244921 0.00219262 
0.01426861 0.02114124 0.00557080 0.00297418 0.00854081 0.00140983 0.00749300 0.00590777 0.02965394 0.00480229 0.02136372 0.00194990 0.00397991 0.05262230 0.01248487 0.00217746 
0.01426010 0.02163556 0.00551622 0.00298793 0.00829189 0.00139380 0.00727042 0.00605635 0.02994464 0.00489986 0.02167731 0.00196831 0.00413642 0.05296406 0.01255151 0.00216499 
0.01424499 0.02212863 0.00546183 0.00300180 0.00803807 0.00137982 0.00705139 0.00620497 0.03021967 0.00500394 0.02198125 0.00198554 0.00429964 0.05338811 0.01264934 0.00215524 
0.01422306 0.02261861 0.00540800 0.00301584 0.00778044 0.00136799 0.00683659 0.00635315 0.03047871 0.00511457 0.02227395 0.00200151 0.00446831 0.05389413 0.01277839 0.00214823 
0.01419410 0.02310365 0.00535513 0.00303013 0.00752007 0.00135845 0.00662668 0.00650038 0.03072150 0.00523176 0.02255391 0.00201618 0.00464113 0.05448139 0.01293857 0.00214396 
0.01415796 0.02358190 0.00530361 0.00304470 0.00725803 0.00135131 0.00642228 0.00664619 0.03094788 0.00535550 0.02281972 0.00202949 0.00481683 0.05514867 0.01312958 0.00214242 
0.01411453 0.02405146 0.00525381 0.00305961 0.00699538 0.00134665 0.00622394 0.00679011 0.03115774 0.00548573 0.02307005 0.00204141 0.00499410 0.05589434 0.01335098 0.00214358 
0.01406373 0.02451048 0.00520612 0.00307489 0.00673316 0.00134456 0.00603219 0.00693170 0.03135107 0.00562236 0.02330371 0.00205190 0.00517166 0.05671632 0.01360218 0.00214741 
0.01400554 0.02495709 0.00516092 0.00309058 0.00647239 0.00134512 0.00584750 0.00707051 0.03152794 0.00576527 0.02351962 0.00206093 0.00534822 0.05761212 0.01388242 0.00215384 
0.01393998 0.02538946 0.00511857 0.00310671 0.00621406 0.00134840 0.00567028 0.00720613 0.03168846 0.00591430 0.02371684 0.00206848 0.00552251 0.05857883 0.01419079 0.00216282 
0.01386714 0.02580576 0.00507942 0.00312329 0.00595914 0.00135443 0.00550092 0.00733817 0.03183284 0.00606925 0.02389459 0.00207453 0.00569330 0.05961315 0.01452623 0.00217427 
0.01378714 0.02620423 0.00504381 0.00314033 0.00570855 0.00136326 0.00533972 0.00746626 0.03196134 0.00622990 0.02405223 0.00207906 0.00585937 0.06071144 0.01488753 0.00218809 
0.01370017 0.02658314 0.00501204 0.00315784 0.00546318 0.00137489 0.00518696 0.00759005 0.03207428 0.00639597 0.02418928 0.00208208 0.00601955 0.06186967 0.01527336 0.00220419 
0.01360647 0.02694083 0.00498441 0.00317579 0.00522387 0.00138934 0.00504286 0.00770922 0.03217204 0.00656717 0.02430545 0.00208358 0.00617270 0.06308349 0.01568225 0.00222246 
0.01350634 0.02727571 0.00496118 0.00319419 0.00499141 0.00140660 0.00490758 0.00782348 0.03225505 0.00674317 0.02440060 0.00208358 0.00631774 0.06434826 0.01611262 0.00224279 
0.01340015 0.02758623 0.00494261 0.00321299 0.00476654 0.00142664 0.00478125 0.00793256 0.03232378 0.00692360 0.02447478 0.00208209 0.00645364 0.06565905 0.01656275 0.00226504 
0.01328829 0.02787099 0.00492890 0.00323216 0.00454997 0.00144942 0.00466395 0.00803622 0.03237876 0.00710806 0.02452822 0.00207913 0.00657942 0.06701068 0.01703085 0.00228907 
0.01317125 0.02812862 0.00492024 0.00325165 0.00434231 0.00147487 0.00455569 0.00813428 0.03242053 0.00729614 0.02456135 0.00207474 0.00669420 0.06839774 0.01751501 0.00231476 
0.01304955 0.02835790 0.00491677 0.00327141 0.00414416 0.00150294 0.00445645 0.00822654 0.03244969 0.00748737 0.02457477 0.00206894 0.00679713 0.06981463 0.01801324 0.00234195 
0.01292376 0.02855771 0.00491861 0.00329136 0.00395601 0.00153353 0.00436619 0.00831287 0.03246683 0.00768129 0.02456925 0.00206177 0.00688747 0.07125558 0.01852349 0.00237049 
0.01279452 0.02872703 0.00492584 0.00331144 0.00377834 0.00156654 0.00428479 0.00839316 0.03247259 0.00787739 0.02454578 0.00205329 0.00696454 0.07271471 0.01904363 0.00240022 
0.01266251 0.02886499 0.00493851 0.00333154 0.00361153 0.00160185 0.00421212 0.00846732 0.03246760 0.00807516 0.02450548 0.00204354 0.00702776 0.07418599 0.01957148 0.00243098 
0.01252845 0.02897086 0.00495661 0.00335159 0.00345592 0.00163933 0.00414801 0.00853532 0.03245251 0.00827405 0.02444968 0.00203258 0.00707664 0.07566336 0.02010483 0.00246262 
0.01239311 0.02904402 0.00498013 0.00337147 0.00331176 0.00167883 0.00409224 0.00859713 0.03242797 0.00847352 0.02437984 0.00202047 0.00711077 0.07714070 0.02064144 0.00249497 
0.01225731 0.02908402 0.00500898 0.00339107 0.00317927 0.00172020 0.00404460 0.00865276 0.03239463 0.00867301 0.02429762 0.00200728 0.00712986 0.07861189 0.02117904 0.00252787 
0.01212187 0.02909055 0.00504307 0.00341028 0.00305860 0.00176326 0.00400481 0.00870227 0.03235311 0.00887194 0.02420478 0.00199308 0.00713371 0.08007083 0.02171537 0.00256116 
0.01198768 0.02906347 0.00508224 0.00342896 0.00294981 0.00180784 0.00397260 0.00874572 0.03230403 0.00906974 0.02410324 0.00197794 0.00712220 0.08151148 0.02224817 0.00259467 
0.01185564 0.02900277 0.00512632 0.00344700 0.00285294 0.00185373 0.00394765 0.00878322 0.03224800 0.00926583 0.02399504 0.00196194 0.00709536 0.08292785 0.02277519 0.00262825 
0.01172665 0.02890861 0.00517509 0.00346424 0.00276794 0.00190074 0.00392967 0.00881490 0.03218558 0.00945963 0.02388233 0.00194517 0.00705329 0.08431411 0.02329423 0.00266175 
0.01160167 0.02878133 0.00522831 0.00348056 0.00269472 0.00194865 0.00391830 0.00884091 0.03211733 0.00965056 0.02376735 0.00192770 0.00699620 0.08566454 0.02380312 0.00269502 
0.01148162 0.02862140 0.00528567 0.00349580 0.00263313 0.00199724 0.00391323 0.00886142 0.03204376 0.00983806 0.02365242 0.00190961 0.00692442 0.08697360 0.02429974 0.00272790 
0.01136745 0.02842947 0.00534688 0.00350982 0.00258297 0.00204630 0.00391408 0.00887665 0.03196535 0.01002157 0.02353994 0.00189101 0.00683839 0.08823594 0.02478204 0.00276027 
0.01126010 0.02820634 0.00541158 0.00352248 0.00254399 0.00209558 0.00392053 0.00888680 0.03188252 0.01020055 0.02343232 0.00187198 0.00673862 0.08944643 0.02524803 0.00279199 
0.01116051 0.02795298 0.00547941 0.00353363 0.00251589 0.00214485 0.00393222 0.00889213 0.03179568 0.01037446 0.02333202 0.00185261 0.00662578 0.09060018 0.02569583 0.00282293 
0.01106959 0.02767048 0.00554996 0.00354313 0.00249832 0.00219387 0.00394880 0.00889288 0.03170518 0.01054281 0.02324152 0.00183298 0.00650058 0.09169256 0.02612362 0.00285298 
0.01098823 0.02736011 0.00562282 0.00355082 0.00249090 0.00224241 0.00396994 0.00888934 0.03161132 0.01070510 0.02316326 0.00181320 0.00636387 0.09271923 0.02652972 0.00288203 
0.01091730 0.02702327 0.00569756 0.00355658 0.00249321 0.00229023 0.00399529 0.00888179 0.03151437 0.01086087 0.02309967 0.00179335 0.00621659 0.09367615 0.02691251 0.00290998 
0.01085762 0.02666149 0.00577371 0.00356026 0.00250479 0.00233708 0.00402455 0.00887053 0.03141453 0.01100969 0.02305313 0.00177352 0.00605976 0.09455960 0.02727053 0.00293674 
0.01080999 0.02627643 0.00585081 0.00356175 0.00252516 0.00238273 0.00405740 0.00885586 0.03131196 0.01115114 0.02302595 0.00175381 0.00589449 0.09536619 0.02760243 0.00296222 
0.01077513 0.02586988 0.00592839 0.00356091 0.00255380 0.00242695 0.00409355 0.00883810 0.03120679 0.01128486 0.02302034 0.00173429 0.00572198 0.09609286 0.02790699 0.00298636 
0.01075374 0.02544373 0.00600596 0.00355763 0.00259017 0.00246952 0.00413273 0.00881756 0.03109908 0.01141051 0.02303842 0.00171506 0.00554349 0.09673694 0.02818311 0.00300909 
0.01074644 0.02499997 0.00608305 0.00355182 0.00263372 0.00251021 0.00417467 0.00879456 0.03098887 0.01152776 0.02308217 0.00169620 0.00536037 0.09729609 0.02842986 0.00303036 
0.01075379 0.02454069 0.00615915 0.00354337 0.00268388 0.00254882 0.00421913 0.00876943 0.03087613 0.01163636 0.02315345 0.00167778 0.00517401 0.09776837 0.02864643 0.00305014 
0.01077627 0.02406804 0.00623380 0.00353220 0.00274006 0.00258514 0.00426591 0.00874248 0.03076082 0.01173607 0.02325393 0.00165990 0.00498589 0.09815218 0.02883216 0.00306839 
0.01081431 0.02358427 0.00630652 0.00351825 0.00280167 0.00261897 0.00431480 0.00871403 0.03064284 0.01182669 0.02338513 0.00164262 0.00479750 0.09844633 0.02898655 0.00308510 
0.01086825 0.02309166 0.00637685 0.00350144 0.00286810 0.00265015 0.00436563 0.00868438 0.03052206 0.01190805 0.02354836 0.00162602 0.00461040 0.09864999 0.02910923 0.00310025 
0.01093832 0.02259253 0.00644434 0.00348175 0.00293877 0.00267850 0.00441824 0.00865384 0.03039834 0.01198004 0.02374473 0.00161016 0.00442617 0.09876274 0.02920000 0.00311385 
0.01102471 0.02208924 0.00650855 0.00345913 0.00301307 0.00270387 0.00447251 0.00862270 0.03027151 0.01204258 0.02397513 0.00159510 0.00424642 0.09878449 0.02925881 0.00312591 
0.01112748 0.02158416 0.00656908 0.00343358 0.00309041 0.00272611 0.00452832 0.00859124 0.03014135 0.01209562 0.02424025 0.00158092 0.00407276 0.09871556 0.02928575 0.00313646 
0.01124662 0.02107967 0.00662554 0.00340509 0.00317020 0.00274511 0.00458559 0.00855972 0.03000766 0.01213915 0.02454049 0.00156765 0.00390681 0.09855662 0.02928104 0.00314552 
0.01138202 0.02057814 0.00667756 0.00337368 0.00325189 0.00276075 0.00464424 0.00852840 0.02987022 0.01217320 0.02487604 0.00155536 0.00375021 0.09830869 0.02924509 0.00315313 
0.01153348 0.02008191 0.00672481 0.00333938 0.00333490 0.00277295 0.00470423 0.00849752 0.02972879 0.01219784 0.02524684 0.00154408 0.00360456 0.09797315 0.02917841 0.00315936 
0.01170071 0.01959327 0.00676699 0.00330224 0.00341870 0.00278163 0.00476552 0.00846730 0.02958316 0.01221317 0.02565255 0.00153386 0.00347143 0.09755173 0.02908167 0.00316424 
0.01188329 0.01911448 0.00680382 0.00326232 0.00350278 0.00278673 0.00482809 0.00843793 0.02943310 0.01221933 0.02609259 0.00152474 0.00335239 0.09704647 0.02895566 0.00316787 
0.01208076 0.01864772 0.00683508 0.00321970 0.00358662 0.00278821 0.00489195 0.00840961 0.02927841 0.01221648 0.02656611 0.00151674 0.00324895 0.09645971 0.02880130 0.00317030 
0.01229252 0.01819512 0.00686056 0.00317448 0.00366977 0.00278606 0.00495710 0.00838250 0.02911888 0.01220481 0.02707201 0.00150990 0.00316254 0.09579413 0.02861963 0.00317162 
0.01251790 0.01775869 0.00688010 0.00312678 0.00375178 0.00278027 0.00502357 0.00835673 0.02895436 0.01218454 0.02760892 0.00150422 0.00309458 0.09505265 0.02841183 0.00317192 
0.01275614 0.01734035 0.00689358 0.00307671 0.00383221 0.00277086 0.00509138 0.00833245 0.02878469 0.01215594 0.02817525 0.00149973 0.00304637 0.09423849 0.02817914 0.00317130 
0.01300639 0.01694192 0.00690090 0.00302442 0.00391070 0.00275786 0.00516057 0.00830973 0.02860978 0.01211926 0.02876914 0.00149644 0.00301916 0.09335510 0.02792294 0.00316985 
0.01326771 0.01656508 0.00690204 0.00297006 0.00398688 0.00274132 0.00523118 0.00828867 0.02842954 0.01207480 0.02938850 0.00149435 0.00301410 0.09240618 0.02764469 0.00316768 
0.01353910 0.01621140 0.00689698 0.00291380 0.00406042 0.00272132 0.00530326 0.00826933 0.02824396 0.01202287 0.03003102 0.00149346 0.00303225 0.09139561 0.02734594 0.00316489 
0.01381946 0.01588230 0.00688576 0.00285583 0.00413103 0.00269794 0.00537683 0.00825174 0.02805305 0.01196381 0.03069420 0.00149377 0.00307453 0.09032752 0.02702829 0.00316161 
0.01410765 0.01557904 0.00686846 0.00279633 0.00419845 0.00267129 0.00545195 0.00823593 0.02785687 0.01189794 0.03137531 0.00149527 0.00314180 0.08920615 0.02669344 0.00315795 
0.01440245 0.01530276 0.00684518 0.00273551 0.00426246 0.00264148 0.00552865 0.00822188 0.02765556 0.01182563 0.03207147 0.00149794 0.00323475 0.08803596 0.02634312 0.00315402 
0.01470258 0.01505442 0.00681608 0.00267358 0.00432286 0.00260866 0.00560694 0.00820957 0.02744928 0.01174723 0.03277963 0.00150176 0.00335396 0.08682148 0.02597915 0.00314995 
0.01500672 0.01483480 0.00678135 0.00261075 0.00437951 0.00257296 0.00568686 0.00819897 0.02723828 0.01166310 0.03349658 0.00150672 0.00349990 0.08556741 0.02560333 0.00314585 
0.01531350 0.01464454 0.00674121 0.00254726 0.00443226 0.00253456 0.00576841 0.00819001 0.02702286 0.01157362 0.03421900 0.00151279 0.00367286 0.08427851 0.02521755 0.00314185 
0.01562152 0.01448410 0.00669591 0.00248333 0.00448104 0.00249363 0.00585157 0.00818262 0.02680338 0.01147915 0.03494348 0.00151993 0.00387300 0.08295962 0.02482367 0.00313807 
0.01592933 0.01435377 0.00664575 0.00241920 0.00452578 0.00245037 0.00593633 0.00817669 0.02658026 0.01138005 0.03566651 0.00152810 0.00410036 0.08161564 0.02442359 0.00313463 
0.01623549 0.01425365 0.00659102 0.00235510 0.00456646 0.00240495 0.00602264 0.00817213 0.02635399 0.01127671 0.03638453 0.00153728 0.00435479 0.08025148 0.02401921 0.00313164 
0.01653853 0.01418370 0.00653208 0.00229128 0.00460308 0.00235761 0.00611046 0.00816881 0.02612513 0.01116945 0.03709396 0.00154742 0.00463601 0.07887208 0.02361240 0.00312922 
0.01683696 0.01414369 0.00646928 0.00222798 0.00463569 0.00230854 0.00619970 0.00816660 0.02589429 0.01105865 0.03779118 0.00155848 0.00494358 0.07748236 0.02320504 0.00312750 
0.01712932 0.01413323 0.00640302 0.00216543 0.00466434 0.00225798 0.00629027 0.00816534 0.02566216 0.01094463 0.03847261 0.00157040 0.00527691 0.07608721 0.02279897 0.00312657 
0.01741413 0.01415176 0.00633368 0.00210386 0.00468913 0.00220615 0.00638204 0.00816488 0.02542945 0.01082772 0.03913470 0.00158314 0.00563524 0.07469147 0.02239600 0.00312654 
0.01768996 0.01419857 0.00626170 0.00204351 0.00471017 0.00215329 0.00647489 0.00816506 0.02519697 0.01070823 0.03977397 0.00159665 0.00601769 0.07329992 0.02199788 0.00312753 
0.01795537 0.01427280 0.00618748 0.00198460 0.00472760 0.00209963 0.00656864 0.00816571 0.02496555 0.01058646 0.04038701 0.00161088 0.00642319 0.07191722 0.02160632 0.00312962 
0.01820899 0.01437345 0.00611147 0.00192734 0.00474159 0.00204541 0.00666311 0.00816665 0.02473610 0.01046269 0.04097054 0.00162576 0.00685055 0.07054796 0.02122299 0.00313291 
0.01844946 0.01449938 0.00603411 0.00187194 0.00475231 0.00199086 0.00675810 0.00816769 0.02450955 0.01033719 0.04152139 0.00164125 0.00729843 0.06919657 0.02084945 0.00313750 
0.01867549 0.01464931 0.00595584 0.00181860 0.00475998 0.00193623 0.00685338 0.00816867 0.02428687 0.01021021 0.04203656 0.00165727 0.00776535 0.06786737 0.02048722 0.00314345 
0.01888584 0.01482186 0.00587709 0.00176751 0.00476480 0.00188175 0.00694869 0.00816939 0.02406908 0.01008197 0.04251323 0.00167379 0.00824970 0.06656449 0.02013773 0.00315086 
0.01907931 0.01501554 0.00579830 0.00171884 0.00476702 0.00182764 0.00704377 0.00816968 0.02385721 0.00995270 0.04294875 0.00169073 0.00874974 0.06529191 0.01980232 0.00315978 
0.01925481 0.01522877 0.00571990 0.00167276 0.00476687 0.00177415 0.00713832 0.00816935 0.02365233 0.00982258 0.04334070 0.00170804 0.00926362 0.06405339 0.01948223 0.00317028 
0.01941129 0.01545987 0.00564229 0.00162940 0.00476462 0.00172148 0.00723205 0.00816824 0.02345552 0.00969180 0.04368690 0.00172566 0.00978937 0.06285251 0.01917861 0.00318243 
0.01954781 0.01570710 0.00556588 0.00158891 0.00476052 0.00166986 0.00732462 0.00816617 0.02326785 0.00956051 0.04398539 0.00174352 0.01032494 0.06169264 0.01889250 0.00319626 
0.01966348 0.01596866 0.00549105 0.00155141 0.00475483 0.00161949 0.00741570 0.00816299 0.02309042 0.00942885 0.04423449 0.00176158 0.01086818 0.06057688 0.01862485 0.00321183 
0.01975755 0.01624272 0.00541817 0.00151699 0.00474785 0.00157057 0.00750494 0.00815853 0.02292431 0.00929696 0.04443278 0.00177978 0.01141684 0.05950812 0.01837649 0.00322915 
0.01982931 0.01652738 0.00534756 0.00148575 0.00473983 0.00152328 0.00759196 0.00815266 0.02277058 0.00916495 0.04457912 0.00179805 0.01196864 0.05848899 0.01814812 0.00324828 
0.01987819 0.01682074 0.00527956 0.00145776 0.00473105 0.00147781 0.00767641 0.00814524 0.02263029 0.00903292 0.04467267 0.00181635 0.01252122 0.05752187 0.01794034 0.00326921 
0.01990371 0.01712092 0.00521444 0.00143306 0.00472178 0.00143432 0.00775790 0.00813615 0.02250443 0.00890095 0.04471288 0.00183462 0.01307219 0.05660885 0.01775365 0.00329197 
0.01990550 0.01742601 0.00515247 0.00141169 0.00471228 0.00139296 0.00783605 0.00812527 0.02239400 0.00876912 0.04469949 0.00185280 0.01361911 0.05575176 0.01758839 0.00331656 
0.01988329 0.01773413 0.00509388 0.00139368 0.00470283 0.00135388 0.00791049 0.00811253 0.02229993 0.00863751 0.04463256 0.00187086 0.01415955 0.05495216 0.01744481 0.00334298 
0.01983693 0.01804345 0.00503887 0.00137903 0.00469366 0.00131721 0.00798082 0.00809782 0.02222310 0.00850616 0.04451245 0.00188873 0.01469106 0.05421130 0.01732305 0.00337122 
0.01976637 0.01835217 0.00498761 0.00136773 0.00468502 0.00128305 0.00804667 0.00808110 0.02216434 0.00837515 0.04433981 0.00190639 0.01521120 0.05353016 0.01722309 0.00340125 
0.01967168 0.01865855 0.00494023 0.00135973 0.00467714 0.00125150 0.00810768 0.00806230 0.02212440 0.00824451 0.04411559 0.00192377 0.01571756 0.05290945 0.01714485 0.00343307 
0.01955304 0.01896093 0.00489684 0.00135502 0.00467023 0.00122267 0.00816349 0.00804139 0.02210397 0.00811430 0.04384105 0.00194085 0.01620778 0.05234955 0.01708809 0.00346663 
0.01941076 0.01925772 0.00485749 0.00135351 0.00466449 0.00119661 0.00821374 0.00801836 0.02210364 0.00798458 0.04351772 0.00195759 0.01667953 0.05185060 0.01705247 0.00350190 
0.01924522 0.01954743 0.00482223 0.00135514 0.00466012 0.00117338 0.00825812 0.00799320 0.02212394 0.00785540 0.04314740 0.00197395 0.01713056 0.05141243 0.01703756 0.00353884 
0.01905696 0.01982867 0.00479106 0.00135983 0.00465727 0.00115304 0.00829630 0.00796593 0.02216529 0.00772681 0.04273217 0.00198990 0.01755870 0.05103461 0.01704280 0.00357740 
0.01884658 0.02010016 0.00476394 0.00136747 0.00465611 0.00113560 0.00832800 0.00793659 0.02222803 0.00759889 0.04227435 0.00200541 0.01796187 0.05071641 0.01706754 0.00361752 
0.01861483 0.02036073 0.00474082 0.00137795 0.00465675 0.00112108 0.00835296 0.00790521 0.02231238 0.00747171 0.04177653 0.00202045 0.01833811 0.05045687 0.01711105 0.00365915 
0.01836252 0.02060934 0.00472159 0.00139116 0.00465932 0.00110948 0.00837092 0.00787189 0.02241846 0.00734536 0.04124147 0.00203502 0.01868556 0.05025476 0.01717249 0.00370222 
0.01809060 0.02084509 0.00470614 0.00140696 0.00466390 0.00110080 0.00838168 0.00783668 0.02254630 0.00721994 0.04067219 0.00204907 0.01900250 0.05010859 0.01725093 0.00374666 
0.01780009 0.02106721 0.00469431 0.00142521 0.00467056 0.00109499 0.00838506 0.00779971 0.02269580 0.00709556 0.04007187 0.00206261 0.01928737 0.05001667 0.01734537 0.00379240 
0.01749211 0.02127507 0.00468593 0.00144577 0.00467935 0.00109203 0.00838091 0.00776107 0.02286675 0.00697235 0.03944386 0.00207561 0.01953874 0.04997704 0.01745476 0.00383937 
0.01716786 0.02146817 0.00468080 0.00146849 0.00469029 0.00109187 0.00836911 0.00772092 0.02305884 0.00685048 0.03879168 0.00208808 0.01975535 0.04998758 0.01757795 0.00388749 
0.01682863 0.02164618 0.00467871 0.00149321 0.00470341 0.00109444 0.00834959 0.00767939 0.02327163 0.00673009 0.03811897 0.00209999 0.01993612 0.05004593 0.01771374 0.00393667 
0.01647579 0.02180889 0.00467940 0.00151977 0.00471866 0.00109966 0.00832232 0.00763665 0.02350457 0.00661139 0.03742948 0.00211136 0.02008014 0.05014958 0.01786091 0.00398684 
0.01611076 0.02195625 0.00468263 0.00154802 0.00473603 0.00110746 0.00828728 0.00759287 0.02375701 0.00649458 0.03672704 0.00212217 0.02018670 0.05029585 0.01801815 0.00403791 
0.01573506 0.02208835 0.00468813 0.00157778 0.00475545 0.00111775 0.00824451 0.00754824 0.02402817 0.00637989 0.03601557 0.00213245 0.02025529 0.05048191 0.01818415 0.00408980 
0.01535023 0.02220542 0.00469562 0.00160891 0.00477685 0.00113041 0.00819411 0.00750297 0.02431718 0.00626758 0.03529900 0.00214218 0.02028557 0.05070479 0.01835755 0.00414242 
0.01495788 0.02230780 0.00470480 0.00164123 0.00480013 0.00114535 0.00813618 0.00745726 0.02462305 0.00615794 0.03458131 0.00215138 0.02027744 0.05096143 0.01853699 0.00419569 
0.01455967 0.02239600 0.00471539 0.00167459 0.00482518 0.00116244 0.00807089 0.00741135 0.02494471 0.00605125 0.03386647 0.00216006 0.02023097 0.05124866 0.01872108 0.00424953 
0.01415730 0.02247063 0.00472709 0.00170884 0.00485186 0.00118156 0.00799844 0.00736546 0.02528098 0.00594784 0.03315843 0.00216825 0.02014647 0.05156325 0.01890844 0.00430385 
0.01375247 0.02253242 0.00473960 0.00174383 0.00488002 0.00120259 0.00791908 0.00731984 0.02563058 0.00584807 0.03246109 0.00217595 0.02002445 0.05190189 0.01909769 0.00435857 
0.01334695 0.02258220 0.00475263 0.00177941 0.00490951 0.00122539 0.00783309 0.00727473 0.02599217 0.00575229 0.03177830 0.00218318 0.01986560 0.05226127 0.01928745 0.00441362 
0.01294249 0.02262093 0.00476589 0.00181545 0.00494014 0.00124982 0.00774080 0.00723038 0.02636433 0.00566091 0.03111380 0.00218998 0.01967085 0.05263804 0.01947638 0.00446891 
0.01254087 0.02264963 0.00477912 0.00185181 0.00497173 0.00127575 0.00764255 0.00718706 0.02674555 0.00557432 0.03047126 0.00219635 0.01944131 0.05302885 0.01966314 0.00452438 
0.01214385 0.02266940 0.00479203 0.00188838 0.00500408 0.00130303 0.00753876 0.00714503 0.02713427 0.00549296 0.02985418 0.00220234 0.01917830 0.05343037 0.01984644 0.00457994 
0.01175321 0.02268142 0.00480438 0.00192505 0.00503697 0.00133152 0.00742986 0.00710456 0.02752889 0.00541727 0.02926596 0.00220796 0.01888332 0.05383933 0.02002503 0.00463555 
0.01137069 0.02268693 0.00481593 0.00196170 0.00507020 0.00136107 0.00731630 0.00706590 0.02792776 0.00534771 0.02870981 0.00221326 0.01855807 0.05425248 0.02019770 0.00469112 
0.01099803 0.02268721 0.00482646 0.00199825 0.00510354 0.00139155 0.00719860 0.00702934 0.02832917 0.00528474 0.02818878 0.00221825 0.01820440 0.05466667 0.02036329 0.00474660 
0.01063693 0.02268356 0.00483576 0.00203461 0.00513676 0.00142280 0.00707727 0.00699512 0.02873143 0.00522887 0.02770571 0.00222297 0.01782434 0.05507883 0.02052070 0.00480194 
0.01028905 0.02267733 0.00484367 0.00207070 0.00516965 0.00145470 0.00695286 0.00696352 0.02913279 0.00518056 0.02726325 0.00222746 0.01742009 0.05548600 0.02066888 0.00485708 
0.00995602 0.02266984 0.00485002 0.00210646 0.00520196 0.00148709 0.00682595 0.00693480 0.02953153 0.00514031 0.02686382 0.00223174 0.01699397 0.05588532 0.02080688 0.00491197 
0.00963940 0.02266243 0.00485468 0.00214184 0.00523348 0.00151985 0.00669714 0.00690920 0.02992591 0.00510863 0.02650960 0.00223586 0.01654845 0.05627407 0.02093378 0.00496658 
0.00934071 0.02265641 0.00485755 0.00217679 0.00526399 0.00155283 0.00656704 0.00688697 0.03031423 0.00508600 0.02620254 0.00223984 0.01608610 0.05664968 0.02104875 0.00502085 
0.00906141 0.02265309 0.00485854 0.00221128 0.00529326 0.00158593 0.00643628 0.00686836 0.03069478 0.00507291 0.02594434 0.00224373 0.01560963 0.05700973 0.02115104 0.00507476 
0.00880287 0.02265369 0.00485760 0.00224527 0.00532110 0.00161899 0.00630549 0.00685359 0.03106593 0.00506985 0.02573641 0.00224756 0.01512181 0.05735194 0.02123999 0.00512827 
0.00856640 0.02265941 0.00485470 0.00227876 0.00534730 0.00165192 0.00617532 0.00684289 0.03142606 0.00507728 0.02557993 0.00225136 0.01462548 0.05767423 0.02131498 0.00518135 
0.00835323 0.02267138 0.00484984 0.00231174 0.00537167 0.00168460 0.00604641 0.00683646 0.03177361 0.00509565 0.02547577 0.00225516 0.01412358 0.05797469 0.02137553 0.00523399 
0.00816447 0.02269065 0.00484303 0.00234420 0.00539404 0.00171691 0.00591943 0.00683450 0.03210710 0.00512540 0.02542456 0.00225900 0.01361904 0.05825158 0.02142119 0.00528615 
0.00800119 0.02271818 0.00483434 0.00237615 0.00541424 0.00174875 0.00579502 0.00683718 0.03242512 0.00516694 0.02542661 0.00226290 0.01311486 0.05850334 0.02145163 0.00533783 
0.00786433 0.02275487 0.00482383 0.00240761 0.00543214 0.00178003 0.00567381 0.00684468 0.03272634 0.00522066 0.02548198 0.00226691 0.01261402 0.05872863 0.02146657 0.00538900 
0.00775472 0.02280146 0.00481159 0.00243859 0.00544760 0.00181065 0.00555643 0.00685715 0.03300950 0.00528690 0.02559043 0.00227104 0.01211951 0.05892625 0.02146585 0.00543966 
0.00767311 0.02285865 0.00479776 0.00246912 0.00546051 0.00184054 0.00544351 0.00687472 0.03327348 0.00536600 0.02575145 0.00227532 0.01163430 0.05909522 0.02144936 0.00548979 
0.00762013 0.02292697 0.00478247 0.00249922 0.00547079 0.00186960 0.00533563 0.00689751 0.03351722 0.00545822 0.02596424 0.00227979 0.01116130 0.05923474 0.02141708 0.00553939 
0.00759630 0.02300685 0.00476587 0.00252892 0.00547837 0.00189778 0.00523338 0.00692561 0.03373982 0.00556382 0.02622774 0.00228445 0.01070336 0.05934418 0.02136907 0.00558845 
0.00760203 0.02309862 0.00474815 0.00255826 0.00548319 0.00192500 0.00513731 0.00695910 0.03394045 0.00568300 0.02654061 0.00228933 0.01026327 0.05942309 0.02130545 0.00563698 
0.00763759 0.02320246 0.00472949 0.00258727 0.00548524 0.00195121 0.00504795 0.00699804 0.03411843 0.00581590 0.02690126 0.00229444 0.00984373 0.05947118 0.02122643 0.00568495 
0.00770317 0.02331842 0.00471011 0.00261598 0.00548452 0.00197635 0.00496579 0.00704246 0.03427321 0.00596262 0.02730784 0.00229980 0.00944732 0.05948833 0.02113225 0.00573238 
0.00779880 0.02344644 0.00469021 0.00264442 0.00548105 0.00200038 0.00489129 0.00709237 0.03440435 0.00612321 0.02775825 0.00230542 0.00907650 0.05947458 0.02102327 0.00577926 
0.00792443 0.02358632 0.00467003 0.00267263 0.00547487 0.00202325 0.00482488 0.00714776 0.03451156 0.00629766 0.02825017 0.00231131 0.00873359 0.05943010 0.02089985 0.00582559 
0.00807987 0.02373775 0.00464979 0.00270063 0.00546607 0.00204493 0.00476695 0.00720861 0.03459468 0.00648590 0.02878103 0.00231747 0.00842077 0.05935518 0.02076243 0.00587137 
0.00826481 0.02390028 0.00462973 0.00272844 0.00545473 0.00206538 0.00471784 0.00727485 0.03465369 0.00668782 0.02934809 0.00232391 0.00814004 0.05925025 0.02061151 0.00591660 
0.00847882 0.02407337 0.00461008 0.00275609 0.00544098 0.00208460 0.00467786 0.00734640 0.03468868 0.00690321 0.02994839 0.00233061 0.00789323 0.05911584 0.02044761 0.00596126 
0.00872137 0.02425636 0.00459108 0.00278359 0.00542497 0.00210255 0.00464726 0.00742316 0.03469991 0.00713184 0.03057877 0.00233758 0.00768199 0.05895258 0.02027129 0.00600537 
0.00899179 0.02444847 0.00457297 0.00281095 0.00540687 0.00211922 0.00462625 0.00750500 0.03468776 0.00737337 0.03123594 0.00234480 0.00750776 0.05876118 0.02008317 0.00604890 
0.00928932 0.02464884 0.00455595 0.00283816 0.00538686 0.00213461 0.00461500 0.00759177 0.03465272 0.00762744 0.03191643 0.00235226 0.00737178 0.05854241 0.01988386 0.00609187 
0.00961308 0.02485653 0.00454026 0.00286523 0.00536516 0.00214870 0.00461362 0.00768329 0.03459544 0.00789360 0.03261665 0.00235994 0.00727507 0.05829710 0.01967402 0.00613425 
0.00996210 0.02507051 0.00452610 0.00289214 0.00534201 0.00216149 0.00462218 0.00777936 0.03451667 0.00817135 0.03333290 0.00236783 0.00721842 0.05802615 0.01945432 0.00617604 
0.01033528 0.02528970 0.00451365 0.00291886 0.00531767 0.00217299 0.00464068 0.00787977 0.03441729 0.00846009 0.03406135 0.00237589 0.00720242 0.05773044 0.01922544 0.00621723 
0.01073145 0.02551293 0.00450311 0.00294537 0.00529240 0.00218320 0.00466910 0.00798425 0.03429827 0.00875921 0.03479813 0.00238410 0.00722740 0.05741091 0.01898806 0.00625780 
0.01114933 0.02573904 0.00449463 0.00297164 0.00526651 0.00219213 0.00470733 0.00809256 0.03416071 0.00906800 0.03553929 0.00239243 0.00729347 0.05706849 0.01874287 0.00629774 
0.01158757 0.02596678 0.00448836 0.00299761 0.00524029 0.00219980 0.00475524 0.00820439 0.03400579 0.00938570 0.03628083 0.00240084 0.00740050 0.05670411 0.01849057 0.00633704 
0.01204473 0.02619493 0.00448442 0.00302322 0.00521408 0.00220621 0.00481264 0.00831943 0.03383479 0.00971149 0.03701876 0.00240930 0.00754813 0.05631867 0.01823182 0.00637567 
0.01251929 0.02642223 0.00448291 0.00304842 0.00518820 0.00221139 0.00487929 0.00843737 0.03364906 0.01004450 0.03774905 0.00241777 0.00773577 0.05591307 0.01796730 0.00641362 
0.01300966 0.02664746 0.00448392 0.00307314 0.00516300 0.00221534 0.00495490 0.00855784 0.03345003 0.01038380 0.03846772 0.00242620 0.00796258 0.05548815 0.01769767 0.00645086 
0.01351420 0.02686940 0.00448750 0.00309729 0.00513884 0.00221810 0.00503914 0.00868048 0.03323919 0.01072842 0.03917081 0.00243454 0.00822751 0.05504473 0.01742355 0.00648737 
0.01403122 0.02708685 0.00449369 0.00312078 0.00511607 0.00221968 0.00513162 0.00880492 0.03301808 0.01107732 0.03985443 0.00244275 0.00852929 0.05458359 0.01714557 0.00652313 
0.01455896 0.02729870 0.00450251 0.00314353 0.00509506 0.00222011 0.00523192 0.00893075 0.03278826 0.01142945 0.04051477 0.00245078 0.00886642 0.05410543 0.01686431 0.00655811 
0.01509563 0.02750386 0.00451393 0.00316542 0.00507617 0.00221942 0.00533958 0.00905756 0.03255137 0.01178370 0.04114810 0.00245857 0.00923720 0.05361094 0.01658035 0.00659229 
0.01563942 0.02770132 0.00452793 0.00318636 0.00505977 0.00221762 0.00545408 0.00918494 0.03230902 0.01213893 0.04175083 0.00246608 0.00963975 0.05310071 0.01629421 0.00662564 
0.01618847 0.02789018 0.00454444 0.00320624 0.00504622 0.00221475 0.00557490 0.00931245 0.03206286 0.01249397 0.04231949 0.00247325 0.01007198 0.05257531 0.01600642 0.00665813 
0.01674093 0.02806961 0.00456337 0.00322494 0.00503587 0.00221084 0.00570145 0.00943965 0.03181452 0.01284765 0.04285077 0.00248002 0.01053164 0.05203524 0.01571745 0.00668973 
0.01729493 0.02823887 0.00458462 0.00324234 0.00502908 0.00220592 0.00583314 0.00956611 0.03156563 0.01319873 0.04334153 0.00248635 0.01101630 0.05148096 0.01542775 0.00672042 
0.01784858 0.02839738 0.00460806 0.00325832 0.00502619 0.00220000 0.00596933 0.00969135 0.03131778 0.01354602 0.04378881 0.00249217 0.01152341 0.05091289 0.01513775 0.00675017 
0.01840003 0.02854464 0.00463355 0.00327276 0.00502751 0.00219314 0.00610937 0.00981495 0.03107255 0.01388827 0.04418986 0.00249743 0.01205026 0.05033140 0.01484785 0.00677895 
0.01894742 0.02868029 0.00466090 0.00328555 0.00503337 0.00218535 0.00625258 0.00993643 0.03083144 0.01422426 0.04454213 0.00250209 0.01259405 0.04973683 0.01455841 0.00680674 
0.01948891 0.02880413 0.00468994 0.00329656 0.00504405 0.00217668 0.00639827 0.01005536 0.03059593 0.01455277 0.04484333 0.00250608 0.01315184 0.04912951 0.01426977 0.00683351 
0.02002272 0.02891606 0.00472046 0.00330568 0.00505984 0.00216714 0.00654574 0.01017128 0.03036742 0.01487258 0.04509138 0.00250936 0.01372065 0.04850974 0.01398226 0.00685922 
0.02054706 0.02901617 0.00475224 0.00331279 0.00508099 0.00215679 0.00669427 0.01028375 0.03014723 0.01518250 0.04528448 0.00251187 0.01429739 0.04787785 0.01369617 0.00688387 
0.02106023 0.02910465 0.00478504 0.00331779 0.00510774 0.00214565 0.00684315 0.01039234 0.02993661 0.01548136 0.04542106 0.00251359 0.01487896 0.04723415 0.01341178 0.00690742 
0.02156054 0.02918187 0.00481863 0.00332058 0.00514028 0.00213375 0.00699165 0.01049663 0.02973673 0.01576802 0.04549985 0.00251445 0.01546220 0.04657898 0.01312936 0.00692985 
0.02204639 0.02924834 0.00485276 0.00332106 0.00517880 0.00212114 0.00713906 0.01059620 0.02954864 0.01604138 0.04551985 0.00251443 0.01604395 0.04591275 0.01284917 0.00695114 
0.02251623 0.02930471 0.00488716 0.00331915 0.00522345 0.00210785 0.00728467 0.01069066 0.02937330 0.01630036 0.04548034 0.00251349 0.01662105 0.04523588 0.01257143 0.00697127 
0.02296858 0.02935177 0.00492156 0.00331476 0.00527435 0.00209392 0.00742777 0.01077964 0.02921157 0.01654396 0.04538089 0.00251160 0.01719038 0.04454889 0.01229641 0.00699022 
0.02340202 0.02939045 0.00495571 0.00330785 0.00533161 0.00207939 0.00756769 0.01086276 0.02906418 0.01677122 0.04522135 0.00250872 0.01774885 0.04385238 0.01202433 0.00700797 
0.02381524 0.02942183 0.00498932 0.00329834 0.00539526 0.00206429 0.00770376 0.01093969 0.02893177 0.01698122 0.04500187 0.00250485 0.01829344 0.04314703 0.01175544 0.00702451 
0.02420700 0.02944708 0.00502215 0.00328620 0.00546535 0.00204868 0.00783533 0.01101011 0.02881484 0.01717315 0.04472290 0.00249995 0.01882120 0.04243364 0.01149000 0.00703981 
0.02457613 0.02946751 0.00505391 0.00327141 0.00554187 0.00203259 0.00796179 0.01107373 0.02871378 0.01734622 0.04438517 0.00249403 0.01932928 0.04171316 0.01122826 0.00705387 
0.02492158 0.02948453 0.00508436 0.00325394 0.00562477 0.00201606 0.00808253 0.01113027 0.02862885 0.01749974 0.04398969 0.00248706 0.01981495 0.04098664 0.01097050 0.00706667 
0.02524238 0.02949964 0.00511324 0.00323381 0.00571399 0.00199915 0.00819701 0.01117951 0.02856020 0.01763311 0.04353775 0.00247906 0.02027561 0.04025533 0.01071702 0.00707820 
0.02553768 0.02951443 0.00514032 0.00321101 0.00580940 0.00198189 0.00830470 0.01122122 0.02850785 0.01774579 0.04303093 0.00247002 0.02070880 0.03952061 0.01046815 0.00708845 
0.02580670 0.02953055 0.00516535 0.00318560 0.00591088 0.00196434 0.00840512 0.01125523 0.02847173 0.01783733 0.04247107 0.00245995 0.02111222 0.03878405 0.01022423 0.00709740 
0.02604878 0.02954972 0.00518813 0.00315761 0.00601824 0.00194655 0.00849781 0.01128139 0.02845161 0.01790738 0.04186026 0.00244888 0.02148375 0.03804741 0.00998564 0.00710504 
0.02626337 0.02957370 0.00520846 0.00312711 0.00613127 0.00192856 0.00858238 0.01129958 0.02844719 0.01795568 0.04120085 0.00243682 0.02182146 0.03731264 0.00975280 0.00711137 
0.02645001 0.02960425 0.00522613 0.00309418 0.00624973 0.00191042 0.00865848 0.01130973 0.02845804 0.01798205 0.04049540 0.00242380 0.02212360 0.03658188 0.00952614 0.00711638 
0.02660835 0.02964317 0.00524100 0.00305891 0.00637335 0.00189220 0.00872578 0.01131177 0.02848365 0.01798643 0.03974673 0.00240986 0.02238864 0.03585750 0.00930615 0.00712006 
0.02673817 0.02969225 0.00525289 0.00302143 0.00650183 0.00187394 0.00878404 0.01130571 0.02852341 0.01796884 0.03895784 0.00239503 0.02261527 0.03514206 0.00909336 0.00712239 
0.02683931 0.02975325 0.00526169 0.00298186 0.00663484 0.00185570 0.00883303 0.01129155 0.02857660 0.01792940 0.03813193 0.00237936 0.02280240 0.03443831 0.00888833 0.00712337 
0.02691176 0.02982790 0.00526727 0.00294035 0.00677202 0.00183755 0.00887259 0.01126937 0.02864245 0.01786835 0.03727239 0.00236290 0.02294917 0.03374924 0.00869166 0.00712300 
0.02695558 0.02991786 0.00526955 0.00289706 0.00691298 0.00181952 0.00890263 0.01123926 0.02872011 0.01778601 0.03638275 0.00234571 0.02305495 0.03307802 0.00850401 0.00712125 
0.02697095 0.03002473 0.00526845 0.00285215 0.00705733 0.00180169 0.00892307 0.01120135 0.02880868 0.01768278 0.03546671 0.00232786 0.02311936 0.03242801 0.00832606 0.00711814 
0.02695814 0.03015004 0.00526392 0.00280583 0.00720465 0.00178412 0.00893391 0.01115580 0.02890718 0.01755920 0.03452806 0.00230939 0.02314225 0.03180276 0.00815854 0.00711365 
0.02691753 0.03029518 0.00525594 0.00275829 0.00735449 0.00176686 0.00893519 0.01110282 0.02901462 0.01741588 0.03357074 0.00229040 0.02312370 0.03120600 0.00800221 0.00710776 
0.02684959 0.03046146 0.00524449 0.00270974 0.00750639 0.00174998 0.00892702 0.01104264 0.02912996 0.01725351 0.03259875 0.00227094 0.02306405 0.03064161 0.00785788 0.00710049 
0.02675487 0.03065003 0.00522960 0.00266041 0.00765989 0.00173353 0.00890954 0.01097553 0.02925214 0.01707290 0.03161615 0.00225111 0.02296386 0.03011363 0.00772638 0.00709181 
0.02663403 0.03086193 0.00521128 0.00261053 0.00781451 0.00171758 0.00888294 0.01090180 0.02938009 0.01687493 0.03062706 0.00223099 0.02282394 0.02962620 0.00760858 0.00708174 
0.02648780 0.03109802 0.00518960 0.00256034 0.00796976 0.00170219 0.00884746 0.01082178 0.02951274 0.01666055 0.02963565 0.00221066 0.02264530 0.02918358 0.00750538 0.00707025 
0.02631701 0.03135900 0.00516463 0.00251008 0.00812516 0.00168742 0.00880339 0.01073583 0.02964903 0.01643081 0.02864607 0.00219020 0.02242918 0.02879010 0.00741769 0.00705735 
0.02612255 0.03164539 0.00513645 0.00246002 0.00828021 0.00167333 0.00875107 0.01064435 0.02978791 0.01618682 0.02766247 0.00216972 0.02217703 0.02845018 0.00734643 0.00704304 
0.02590539 0.03195754 0.00510518 0.00241040 0.00843443 0.00165997 0.00869086 0.01054775 0.02992838 0.01592976 0.02668896 0.00214930 0.02189051 0.02816823 0.00729255 0.00702731 
0.02566659 0.03229559 0.00507094 0.00236149 0.00858734 0.00164741 0.00862318 0.01044647 0.03006946 0.01566087 0.02572962 0.00212904 0.02157145 0.02794869 0.00725701 0.00701017 
0.02540726 0.03265949 0.00503387 0.00231354 0.00873846 0.00163571 0.00854848 0.01034099 0.03021023 0.01538145 0.02478846 0.00210903 0.02122188 0.02779596 0.00724074 0.00699163 
0.02512858 0.03304900 0.00499413 0.00226681 0.00888733 0.00162490 0.00846723 0.01023179 0.03034981 0.01509285 0.02386938 0.00208937 0.02084396 0.02771439 0.00724469 0.00697168 
0.02483178 0.03346366 0.00495187 0.00222156 0.00903350 0.00161506 0.00837995 0.01011938 0.03048740 0.01479646 0.02297620 0.00207016 0.02044004 0.02770823 0.00726977 0.00695035 
0.02451817 0.03390283 0.00490728 0.00217803 0.00917654 0.00160622 0.00828717 0.01000427 0.03062226 0.01449369 0.02211262 0.00205148 0.02001257 0.02778163 0.00731690 0.00692763 
0.02418909 0.03436563 0.00486054 0.00213647 0.00931604 0.00159844 0.00818946 0.00988701 0.03075375 0.01418599 0.02128220 0.00203343 0.01956414 0.02793856 0.00738694 0.00690356 
0.02384593 0.03485101 0.00481185 0.00209711 0.00945159 0.00159176 0.00808739 0.00976813 0.03088129 0.01387484 0.02048834 0.00201610 0.01909743 0.02818282 0.00748072 0.00687814 
0.02349015 0.03535772 0.00476140 0.00206018 0.00958284 0.00158621 0.00798157 0.00964819 0.03100440 0.01356172 0.01973429 0.00199958 0.01861522 0.02851799 0.00759904 0.00685140 
0.02312322 0.03588430 0.00470941 0.00202590 0.00970945 0.00158184 0.00787260 0.00952774 0.03112269 0.01324811 0.01902311 0.00198396 0.01812034 0.02894736 0.00774261 0.00682337 
0.02274666 0.03642913 0.00465607 0.00199447 0.00983110 0.00157868 0.00776110 0.00940735 0.03123587 0.01293549 0.01835767 0.00196931 0.01761569 0.02947398 0.00791212 0.00679408 
0.02236203 0.03699039 0.00460161 0.00196607 0.00994750 0.00157675 0.00764770 0.00928758 0.03134375 0.01262533 0.01774065 0.00195572 0.01710419 0.03010056 0.00810816 0.00676358 
0.02197090 0.03756612 0.00454623 0.00194088 0.01005841 0.00157609 0.00753301 0.00916899 0.03144623 0.01231908 0.01717450 0.00194326 0.01658877 0.03082945 0.00833126 0.00673191 
0.02157488 0.03815419 0.00449015 0.00191906 0.01016360 0.00157670 0.00741767 0.00905212 0.03154334 0.01201816 0.01666147 0.00193200 0.01607237 0.03166264 0.00858185 0.00669911 
0.02117560 0.03875233 0.00443357 0.00190074 0.01026290 0.00157861 0.00730229 0.00893752 0.03163517 0.01172394 0.01620356 0.00192200 0.01555791 0.03260169 0.00886028 0.00666524 
0.02077471 0.03935815 0.00437669 0.00188605 0.01035615 0.00158182 0.00718748 0.00882572 0.03172193 0.01143777 0.01580255 0.00191332 0.01504825 0.03364775 0.00916678 0.00663038 
0.02037387 0.03996914 0.00431972 0.00187508 0.01044323 0.00158634 0.00707383 0.00871724 0.03180393 0.01116093 0.01545996 0.00190602 0.01454622 0.03480150 0.00950151 0.00659457 
0.01997474 0.04058270 0.00426284 0.00186791 0.01052407 0.00159216 0.00696192 0.00861257 0.03188156 0.01089465 0.01517710 0.00190014 0.01405456 0.03606314 0.00986448 0.00655791 
0.01957901 0.04119615 0.00420625 0.00186460 0.01059862 0.00159928 0.00685231 0.00851219 0.03195531 0.01064009 0.01495499 0.00189572 0.01357594 0.03743237 0.01025561 0.00652046 
0.01918835 0.04180675 0.00415012 0.00186519 0.01066687 0.00160768 0.00674554 0.00841657 0.03202573 0.01039832 0.01479443 0.00189280 0.01311292 0.03890840 0.01067469 0.00648233 
0.01880444 0.04241171 0.00409462 0.00186968 0.01072884 0.00161735 0.00664211 0.00832614 0.03209347 0.01017037 0.01469597 0.00189140 0.01266793 0.04048989 0.01112138 0.00644360 
0.01842897 0.04300822 0.00403991 0.00187808 0.01078459 0.00162825 0.00654251 0.00824131 0.03215924 0.00995714 0.01465988 0.00189153 0.01224328 0.04217496 0.01159521 0.00640438 
0.01806358 0.04359348 0.00398614 0.00189034 0.01083421 0.00164036 0.00644719 0.00816245 0.03222381 0.00975948 0.01468621 0.00189322 0.01184116 0.04396122 0.01209558 0.00636477 
0.01770994 0.04416467 0.00393344 0.00190641 0.01087783 0.00165364 0.00635657 0.00808991 0.03228800 0.00957810 0.01477477 0.00189646 0.01146357 0.04584570 0.01262176 0.00632489 
0.01736968 0.04471902 0.00388194 0.00192622 0.01091560 0.00166805 0.00627104 0.00802402 0.03235268 0.00941365 0.01492509 0.00190124 0.01111236 0.04782492 0.01317289 0.00628486 
0.01704441 0.04525382 0.00383175 0.00194966 0.01094769 0.00168353 0.00619095 0.00796505 0.03241875 0.00926665 0.01513649 0.00190757 0.01078921 0.04989481 0.01374797 0.00624481 
0.01673572 0.04576642 0.00378298 0.00197662 0.01097430 0.00170003 0.00611660 0.00791326 0.03248714 0.00913753 0.01540807 0.00191541 0.01049562 0.05205083 0.01434586 0.00620487 
0.01644516 0.04625427 0.00373572 0.00200695 0.01099568 0.00171749 0.00604828 0.00786885 0.03255878 0.00902659 0.01573867 0.00192475 0.01023290 0.05428787 0.01496531 0.00616517 
0.01617426 0.04671490 0.00369004 0.00204048 0.01101207 0.00173585 0.00598620 0.00783201 0.03263461 0.00893403 0.01612694 0.00193554 0.01000217 0.05660034 0.01560490 0.00612587 
0.01592449 0.04714598 0.00364601 0.00207705 0.01102373 0.00175503 0.00593057 0.00780286 0.03271558 0.00885993 0.01657130 0.00194775 0.00980434 0.05898215 0.01626314 0.00608710 
0.01569729 0.04754534 0.00360368 0.00211644 0.01103095 0.00177496 0.00588154 0.00778151 0.03280260 0.00880428 0.01706998 0.00196132 0.00964015 0.06142676 0.01693837 0.00604901 
0.01549404 0.04791093 0.00356310 0.00215843 0.01103403 0.00179556 0.00583921 0.00776802 0.03289656 0.00876691 0.01762103 0.00197619 0.00951010 0.06392719 0.01762885 0.00601177 
0.01531608 0.04824088 0.00352429 0.00220281 0.01103329 0.00181673 0.00580365 0.00776241 0.03299829 0.00874758 0.01822228 0.00199232 0.00941453 0.06647602 0.01833270 0.00597552 
0.01516466 0.04853352 0.00348729 0.00224931 0.01102903 0.00183840 0.00577490 0.00776467 0.03310861 0.00874590 0.01887144 0.00200962 0.00935354 0.06906551 0.01904798 0.00594042 
0.01504101 0.04878735 0.00345209 0.00229768 0.01102158 0.00186047 0.00575293 0.00777473 0.03322825 0.00876141 0.01956600 0.00202802 0.00932707 0.07168752 0.01977262 0.00590664 
0.01494624 0.04900108 0.00341870 0.00234764 0.01101126 0.00188284 0.00573771 0.00779251 0.03335787 0.00879352 0.02030336 0.00204743 0.00933484 0.07433366 0.02050448 0.00587433 
0.01488141 0.04917366 0.00338711 0.00239891 0.01099839 0.00190542 0.00572914 0.00781787 0.03349807 0.00884152 0.02108075 0.00206778 0.00937639 0.07699522 0.02124134 0.00584365 
0.01484748 0.04930423 0.00335731 0.00245121 0.01098330 0.00192811 0.00572709 0.00785065 0.03364934 0.00890464 0.02189527 0.00208896 0.00945109 0.07966333 0.02198093 0.00581476 
0.01484536 0.04939217 0.00332927 0.00250424 0.01096630 0.00195079 0.00573142 0.00789064 0.03381209 0.00898198 0.02274393 0.00211088 0.00955811 0.08232889 0.02272091 0.00578782 
0.01487581 0.04943710 0.00330296 0.00255769 0.01094770 0.00197338 0.00574191 0.00793762 0.03398661 0.00907258 0.02362363 0.00213344 0.00969647 0.08498272 0.02345890 0.00576298 
0.01493954 0.04943886 0.00327835 0.00261126 0.01092778 0.00199576 0.00575836 0.00799129 0.03417311 0.00917537 0.02453117 0.00215654 0.00986502 0.08761552 0.02419249 0.00574040 
0.01503712 0.04939754 0.00325538 0.00266465 0.01090683 0.00201784 0.00578051 0.00805138 0.03437164 0.00928921 0.02546329 0.00218006 0.01006247 0.09021798 0.02491927 0.00572021 
0.01516904 0.04931347 0.00323403 0.00271755 0.01088511 0.00203950 0.00580807 0.00811755 0.03458217 0.00941291 0.02641667 0.00220389 0.01028738 0.09278081 0.02563680 0.00570256 
0.01533565 0.04918720 0.00321422 0.00276967 0.01086287 0.00206065 0.00584075 0.00818943 0.03480453 0.00954519 0.02738793 0.00222792 0.01053819 0.09529477 0.02634265 0.00568758 
0.01553719 0.04901953 0.00319592 0.00282071 0.01084034 0.00208118 0.00587821 0.00826666 0.03503842 0.00968473 0.02837366 0.00225204 0.01081323 0.09775076 0.02703442 0.00567540 
0.01577378 0.04881149 0.00317907 0.00287038 0.01081772 0.00210100 0.00592012 0.00834881 0.03528341 0.00983017 0.02937041 0.00227613 0.01111070 0.10013985 0.02770975 0.00566614 
0.01604541 0.04856431 0.00316360 0.00291839 0.01079519 0.00212000 0.00596612 0.00843547 0.03553896 0.00998010 0.03037475 0.00230008 0.01142873 0.10245331 0.02836631 0.00565991 
0.01635193 0.04827944 0.00314947 0.00296448 0.01077293 0.00213810 0.00601582 0.00852619 0.03580437 0.01013309 0.03138322 0.00232376 0.01176537 0.10468268 0.02900183 0.00565681 
0.01669307 0.04795856 0.00313660 0.00300839 0.01075107 0.00215520 0.00606885 0.00862051 0.03607884 0.01028769 0.03239237 0.00234706 0.01211860 0.10681984 0.02961412 0.00565693 
0.01706840 0.04760350 0.00312495 0.00304986 0.01072972 0.00217122 0.00612480 0.00871794 0.03636144 0.01044243 0.03339880 0.00236987 0.01248634 0.10885700 0.03020108 0.00566035 
0.01747737 0.04721632 0.00311445 0.00308867 0.01070897 0.00218608 0.00618328 0.00881801 0.03665110 0.01059586 0.03439913 0.00239207 0.01286647 0.11078679 0.03076067 0.00566714 
0.01791927 0.04679921 0.00310505 0.00312460 0.01068889 0.00219970 0.00624390 0.00892021 0.03694665 0.01074652 0.03539001 0.00241356 0.01325686 0.11260227 0.03129101 0.00567736 
0.01839325 0.04635452 0.00309669 0.00315744 0.01066951 0.00221201 0.00630624 0.00902403 0.03724682 0.01089298 0.03636818 0.00243422 0.01365534 0.11429702 0.03179030 0.00569104 
0.01889832 0.04588477 0.00308931 0.00318702 0.01065086 0.00222294 0.00636991 0.00912898 0.03755020 0.01103385 0.03733041 0.00245396 0.01405976 0.11586508 0.03225688 0.00570822 
0.01943335 0.04539256 0.00308287 0.00321316 0.01063293 0.00223245 0.00643452 0.00923454 0.03785533 0.01116775 0.03827357 0.00247266 0.01446797 0.11730111 0.03268922 0.00572891 
0.01999704 0.04488064 0.00307732 0.00323573 0.01061570 0.00224047 0.00649968 0.00934020 0.03816062 0.01129337 0.03919461 0.00249025 0.01487785 0.11860029 0.03308596 0.00575312 
0.02058798 0.04435180 0.00307260 0.00325460 0.01059911 0.00224696 0.00656503 0.00944545 0.03846444 0.01140944 0.04009058 0.00250661 0.01528731 0.11975844 0.03344586 0.00578082 
0.02120460 0.04380895 0.00306867 0.00326965 0.01058311 0.00225189 0.00663019 0.00954980 0.03876505 0.01151478 0.04095861 0.00252168 0.01569429 0.12077202 0.03376786 0.00581198 
0.02184518 0.04325502 0.00306550 0.00328082 0.01056761 0.00225523 0.00669482 0.00965274 0.03906070 0.01160827 0.04179597 0.00253536 0.01609681 0.12163810 0.03405108 0.00584657 
0.02250789 0.04269298 0.00306304 0.00328804 0.01055251 0.00225695 0.00675860 0.00975381 0.03934954 0.01168885 0.04260003 0.00254759 0.01649294 0.12235444 0.03429478 0.00588453 
0.02319077 0.04212583 0.00306125 0.00329127 0.01053771 0.00225703 0.00682121 0.00985253 0.03962974 0.01175558 0.04336831 0.00255830 0.01688083 0.12291947 0.03449841 0.00592577 
0.02389171 0.04155655 0.00306010 0.00329048 0.01052309 0.00225548 0.00688235 0.00994845 0.03989941 0.01180761 0.04409845 0.00256742 0.01725870 0.12333228 0.03466162 0.00597020 
0.02460850 0.04098810 0.00305956 0.00328568 0.01050851 0.00225229 0.00694177 0.01004112 0.04015666 0.01184418 0.04478821 0.00257490 0.01762488 0.12359267 0.03478421 0.00601773 
0.02533881 0.04042341 0.00305959 0.00327690 0.01049384 0.00224748 0.00699921 0.01013013 0.04039962 0.01186465 0.04543553 0.00258071 0.01797778 0.12370108 0.03486616 0.00606821 
0.02608022 0.03986533 0.00306017 0.00326417 0.01047896 0.00224105 0.00705445 0.01021508 0.04062642 0.01186848 0.04603850 0.00258479 0.01831590 0.12365865 0.03490766 0.00612153 
0.02683020 0.03931665 0.00306127 0.00324757 0.01046371 0.00223304 0.00710729 0.01029559 0.04083522 0.01185526 0.04659533 0.00258711 0.01863788 0.12346716 0.03490905 0.00617752 
0.02758614 0.03878007 0.00306286 0.00322717 0.01044796 0.00222348 0.00715755 0.01037131 0.04102424 0.01182470 0.04710443 0.00258766 0.01894245 0.12312906 0.03487085 0.00623602 
0.02834536 0.03825817 0.00306492 0.00320307 0.01043158 0.00221240 0.00720508 0.01044191 0.04119173 0.01177663 0.04756437 0.00258642 0.01922845 0.12264740 0.03479377 0.00629685 
0.02910509 0.03775339 0.00306742 0.00317540 0.01041444 0.00219985 0.00724977 0.01050708 0.04133602 0.01171101 0.04797386 0.00258339 0.01949485 0.12202584 0.03467867 0.00635980 
0.02986253 0.03726807 0.00307034 0.00314429 0.01039643 0.00218589 0.00729151 0.01056654 0.04145554 0.01162791 0.04833182 0.00257856 0.01974072 0.12126864 0.03452657 0.00642468 
0.03061484 0.03680436 0.00307366 0.00310989 0.01037744 0.00217058 0.00733023 0.01062006 0.04154877 0.01152756 0.04863732 0.00257194 0.01996528 0.12038059 0.03433866 0.00649127 
0.03135914 0.03636425 0.00307734 0.00307237 0.01035737 0.00215398 0.00736588 0.01066742 0.04161434 0.01141029 0.04888961 0.00256355 0.02016783 0.11936700 0.03411627 0.00655932 
0.03209252 0.03594958 0.00308138 0.00303190 0.01033615 0.00213616 0.00739844 0.01070841 0.04165097 0.01127658 0.04908812 0.00255343 0.02034782 0.11823368 0.03386085 0.00662861 
0.03281210 0.03556196 0.00308573 0.00298869 0.01031372 0.00211720 0.00742790 0.01074290 0.04165750 0.01112701 0.04923245 0.00254159 0.02050480 0.11698687 0.03357401 0.00669886 
0.03351497 0.03520285 0.00309038 0.00294293 0.01029003 0.00209718 0.00745428 0.01077073 0.04163290 0.01096230 0.04932240 0.00252808 0.02063844 0.11563322 0.03325747 0.00676983 
0.03419828 0.03487347 0.00309530 0.00289482 0.01026506 0.00207619 0.00747763 0.01079183 0.04157631 0.01078328 0.04935792 0.00251296 0.02074853 0.11417976 0.03291304 0.00684124 
0.03485920 0.03457485 0.00310045 0.00284460 0.01023881 0.00205432 0.00749801 0.01080612 0.04148700 0.01059091 0.04933915 0.00249628 0.02083496 0.11263382 0.03254264 0.00691282 
0.03549495 0.03430781 0.00310582 0.00279249 0.01021129 0.00203166 0.00751549 0.01081357 0.04136438 0.01038623 0.04926641 0.00247809 0.02089771 0.11100303 0.03214830 0.00698427 
0.03610284 0.03407294 0.00311136 0.00273872 0.01018255 0.00200832 0.00753018 0.01081417 0.04120804 0.01017040 0.04914017 0.00245848 0.02093691 0.10929525 0.03173208 0.00705530 
0.03668022 0.03387063 0.00311705 0.00268353 0.01015265 0.00198438 0.00754219 0.01080795 0.04101774 0.00994469 0.04896110 0.00243751 0.02095272 0.10751853 0.03129613 0.00712563 
0.03722458 0.03370105 0.00312285 0.00262714 0.01012168 0.00195995 0.00755163 0.01079496 0.04079340 0.00971044 0.04873002 0.00241527 0.02094545 0.10568105 0.03084265 0.00719495 
0.03773348 0.03356415 0.00312873 0.00256982 0.01008974 0.00193513 0.00755866 0.01077528 0.04053511 0.00946908 0.04844791 0.00239184 0.02091547 0.10379110 0.03037387 0.00726295 
0.03820464 0.03345967 0.00313465 0.00251178 0.01005696 0.00191003 0.00756341 0.01074903 0.04024312 0.00922210 0.04811592 0.00236733 0.02086323 0.10185702 0.02989204 0.00732935 
0.03863588 0.03338714 0.00314057 0.00245327 0.01002349 0.00188474 0.00756605 0.01071634 0.03991787 0.00897108 0.04773534 0.00234181 0.02078925 0.09988717 0.02939943 0.00739384 
0.03902519 0.03334590 0.00314645 0.00239452 0.00998951 0.00185938 0.00756673 0.01067739 0.03955997 0.00871763 0.04730761 0.00231540 0.02069414 0.09788984 0.02889831 0.00745610 
0.03937072 0.03333510 0.00315225 0.00233577 0.00995519 0.00183403 0.00756562 0.01063235 0.03917018 0.00846342 0.04683433 0.00228820 0.02057855 0.09587328 0.02839094 0.00751586 
0.03967079 0.03335369 0.00315794 0.00227724 0.00992074 0.00180881 0.00756289 0.01058146 0.03874945 0.00821014 0.04631720 0.00226031 0.02044321 0.09384561 0.02787954 0.00757281 
0.03992388 0.03340044 0.00316347 0.00221915 0.00988638 0.00178381 0.00755872 0.01052493 0.03829887 0.00795953 0.04575807 0.00223185 0.02028887 0.09181477 0.02736631 0.00762665 
0.04012869 0.03347399 0.00316881 0.00216171 0.00985233 0.00175913 0.00755326 0.01046303 0.03781969 0.00771331 0.04515892 0.00220292 0.02011636 0.08978853 0.02685340 0.00767711 
0.04028412 0.03357280 0.00317390 0.00210513 0.00981884 0.00173486 0.00754669 0.01039605 0.03731332 0.00747322 0.04452183 0.00217364 0.01992652 0.08777443 0.02634290 0.00772390 
0.04038925 0.03369519 0.00317872 0.00204961 0.00978616 0.00171109 0.00753917 0.01032427 0.03678130 0.00724100 0.04384897 0.00214412 0.01972024 0.08577974 0.02583685 0.00776677 
0.04044342 0.03383938 0.00318323 0.00199534 0.00975452 0.00168792 0.00753086 0.01024800 0.03622531 0.00701836 0.04314263 0.00211447 0.01949844 0.08381144 0.02533718 0.00780543 
0.04044614 0.03400345 0.00318739 0.00194248 0.00972420 0.00166542 0.00752190 0.01016758 0.03564714 0.00680696 0.04240517 0.00208481 0.01926205 0.08187621 0.02484578 0.00783965 
0.04039719 0.03418540 0.00319116 0.00189121 0.00969543 0.00164368 0.00751244 0.01008334 0.03504873 0.00660847 0.04163904 0.00205525 0.01901203 0.07998037 0.02436440 0.00786919 
0.04029655 0.03438316 0.00319452 0.00184168 0.00966846 0.00162276 0.00750260 0.00999564 0.03443208 0.00642444 0.04084675 0.00202590 0.01874935 0.07812988 0.02389474 0.00789381 
0.04014445 0.03459458 0.00319743 0.00179404 0.00964354 0.00160275 0.00749251 0.00990483 0.03379933 0.00625642 0.04003086 0.00199686 0.01847499 0.07633033 0.02343835 0.00791332 
0.03994135 0.03481746 0.00319987 0.00174843 0.00962089 0.00158371 0.00748227 0.00981129 0.03315266 0.00610584 0.03919400 0.00196824 0.01818992 0.07458693 0.02299671 0.00792750 
0.03968792 0.03504959 0.00320182 0.00170495 0.00960072 0.00156570 0.00747198 0.00971539 0.03249435 0.00597408 0.03833883 0.00194014 0.01789514 0.07290445 0.02257116 0.00793618 
0.03938510 0.03528872 0.00320326 0.00166373 0.00958323 0.00154877 0.00746173 0.00961751 0.03182674 0.00586239 0.03746802 0.00191265 0.01759163 0.07128727 0.02216293 0.00793919 
0.03903402 0.03553263 0.00320417 0.00162485 0.00956861 0.00153299 0.00745157 0.00951803 0.03115220 0.00577196 0.03658428 0.00188588 0.01728036 0.06973935 0.02177312 0.00793639 
0.03863605 0.03577910 0.00320455 0.00158841 0.00955700 0.00151839 0.00744157 0.00941732 0.03047314 0.00570383 0.03569033 0.00185992 0.01696230 0.06826422 0.02140273 0.00792764 
0.03819279 0.03602594 0.00320439 0.00155448 0.00954853 0.00150501 0.00743176 0.00931578 0.02979200 0.00565897 0.03478888 0.00183483 0.01663842 0.06686501 0.02105261 0.00791284 
0.03770603 0.03627102 0.00320368 0.00152312 0.00954331 0.00149290 0.00742216 0.00921377 0.02911122 0.00563817 0.03388262 0.00181071 0.01630966 0.06554439 0.02072351 0.00789191 
0.03717778 0.03651227 0.00320244 0.00149438 0.00954140 0.00148208 0.00741279 0.00911166 0.02843326 0.00564213 0.03297424 0.00178762 0.01597695 0.06430465 0.02041604 0.00786477 
0.03661024 0.03674769 0.00320067 0.00146830 0.00954285 0.00147258 0.00740364 0.00900982 0.02776052 0.00567139 0.03206638 0.00176563 0.01564122 0.06314767 0.02013068 0.00783138 
0.03600579 0.03697539 0.00319839 0.00144491 0.00954765 0.00146443 0.00739469 0.00890861 0.02709543 0.00572636 0.03116167 0.00174481 0.01530336 0.06207493 0.01986782 0.00779172 
0.03536700 0.03719357 0.00319561 0.00142424 0.00955578 0.00145763 0.00738591 0.00880838 0.02644032 0.00580731 0.03026266 0.00172519 0.01496425 0.06108751 0.01962771 0.00774579 
0.03469659 0.03740054 0.00319237 0.00140628 0.00956716 0.00145221 0.00737725 0.00870945 0.02579753 0.00591434 0.02937187 0.00170684 0.01462478 0.06018616 0.01941049 0.00769361 
0.03399743 0.03759474 0.00318869 0.00139104 0.00958170 0.00144816 0.00736865 0.00861215 0.02516929 0.00604741 0.02849173 0.00168978 0.01428577 0.05937123 0.01921620 0.00763524 
0.03327252 0.03777474 0.00318460 0.00137851 0.00959923 0.00144550 0.00736006 0.00851679 0.02455779 0.00620633 0.02762462 0.00167405 0.01394806 0.05864276 0.01904475 0.00757075 
0.03252499 0.03793926 0.00318015 0.00136867 0.00961958 0.00144422 0.00735137 0.00842366 0.02396512 0.00639076 0.02677283 0.00165968 0.01361246 0.05800046 0.01889598 0.00750025 
0.03175808 0.03808716 0.00317537 0.00136150 0.00964253 0.00144432 0.00734251 0.00833304 0.02339330 0.00660020 0.02593857 0.00164668 0.01327975 0.05744376 0.01876962 0.00742384 
0.03097510 0.03821746 0.00317032 0.00135697 0.00966781 0.00144578 0.00733337 0.00824519 0.02284422 0.00683400 0.02512395 0.00163507 0.01295072 0.05697178 0.01866531 0.00734170 
0.03017944 0.03832932 0.00316504 0.00135504 0.00969512 0.00144861 0.00732386 0.00816034 0.02231969 0.00709136 0.02433098 0.00162484 0.01262610 0.05658341 0.01858260 0.00725398 
0.02937454 0.03842209 0.00315958 0.00135566 0.00972413 0.00145279 0.00731385 0.00807873 0.02182139 0.00737134 0.02356157 0.00161599 0.01230663 0.05627727 0.01852099 0.00716090 
0.02856390 0.03849526 0.00315400 0.00135878 0.00975448 0.00145830 0.00730324 0.00800055 0.02135089 0.00767285 0.02281752 0.00160851 0.01199303 0.05605179 0.01847989 0.00706268 
0.02775100 0.03854848 0.00314835 0.00136435 0.00978576 0.00146511 0.00729190 0.00792599 0.02090963 0.00799468 0.02210051 0.00160239 0.01168599 0.05590518 0.01845864 0.00695958 
0.02693936 0.03858157 0.00314270 0.00137232 0.00981755 0.00147322 0.00727971 0.00785520 0.02049891 0.00833547 0.02141211 0.00159760 0.01138618 0.05583551 0.01845654 0.00685185 
0.02613246 0.03859452 0.00313709 0.00138261 0.00984939 0.00148258 0.00726656 0.00778833 0.02011989 0.00869376 0.02075376 0.00159410 0.01109426 0.05584065 0.01847284 0.00673982 
0.02533374 0.03858744 0.00313160 0.00139516 0.00988079 0.00149319 0.00725231 0.00772549 0.01977362 0.00906794 0.02012678 0.00159187 0.01081087 0.05591836 0.01850673 0.00662380 
0.02454661 0.03856061 0.00312626 0.00140990 0.00991128 0.00150501 0.00723686 0.00766677 0.01946098 0.00945633 0.01953236 0.00159086 0.01053663 0.05606629 0.01855739 0.00650413 
0.02377439 0.03851447 0.00312115 0.00142676 0.00994032 0.00151800 0.00722008 0.00761226 0.01918271 0.00985712 0.01897156 0.00159103 0.01027214 0.05628196 0.01862394 0.00638118 
0.02302032 0.03844956 0.00311631 0.00144566 0.00996740 0.00153215 0.00720187 0.00756201 0.01893941 0.01026843 0.01844530 0.00159231 0.01001797 0.05656284 0.01870550 0.00625534 
0.02228753 0.03836657 0.00311180 0.00146654 0.00999198 0.00154741 0.00718213 0.00751604 0.01873153 0.01068829 0.01795439 0.00159466 0.00977469 0.05690633 0.01880117 0.00612701 
0.02157904 0.03826630 0.00310765 0.00148930 0.01001352 0.00156376 0.00716076 0.00747436 0.01855938 0.01111468 0.01749948 0.00159802 0.00954282 0.05730975 0.01891003 0.00599663 
0.02089773 0.03814967 0.00310392 0.00151387 0.01003150 0.00158116 0.00713769 0.00743697 0.01842312 0.01154550 0.01708111 0.00160231 0.00932290 0.05777042 0.01903115 0.00586462 
0.02024632 0.03801769 0.00310065 0.00154017 0.01004538 0.00159957 0.00711283 0.00740383 0.01832277 0.01197861 0.01669967 0.00160748 0.00911540 0.05828561 0.01916362 0.00573146 
0.01962737 0.03787145 0.00309786 0.00156812 0.01005464 0.00161895 0.00708612 0.00737489 0.01825821 0.01241185 0.01635543 0.00161345 0.00892079 0.05885259 0.01930652 0.00559759 
0.01904327 0.03771212 0.00309558 0.00159763 0.01005879 0.00163928 0.00705752 0.00735009 0.01822919 0.01284303 0.01604853 0.00162015 0.00873952 0.05946862 0.01945893 0.00546351 
0.01849621 0.03754093 0.00309385 0.00162863 0.01005735 0.00166050 0.00702699 0.00732932 0.01823531 0.01326994 0.01577897 0.00162751 0.00857199 0.06013097 0.01961996 0.00532970 
0.01798819 0.03735916 0.00309266 0.00166103 0.01004985 0.00168258 0.00699451 0.00731250 0.01827604 0.01369039 0.01554663 0.00163545 0.00841860 0.06083691 0.01978872 0.00519666 
0.01752099 0.03716814 0.00309204 0.00169475 0.01003589 0.00170548 0.00696007 0.00729949 0.01835075 0.01410219 0.01535127 0.00164389 0.00827969 0.06158373 0.01996435 0.00506490 
0.01709618 0.03696919 0.00309197 0.00172970 0.01001506 0.00172916 0.00692370 0.00729016 0.01845866 0.01450320 0.01519252 0.00165276 0.00815558 0.06236874 0.02014601 0.00493491 
0.01671509 0.03676368 0.00309247 0.00176579 0.00998702 0.00175358 0.00688541 0.00728436 0.01859889 0.01489129 0.01506992 0.00166199 0.00804656 0.06318930 0.02033288 0.00480720 
0.01637883 0.03655295 0.00309351 0.00180295 0.00995148 0.00177869 0.00684526 0.00728193 0.01877045 0.01526442 0.01498286 0.00167149 0.00795287 0.06404276 0.02052417 0.00468227 
0.01608828 0.03633833 0.00309508 0.00184108 0.00990817 0.00180444 0.00680330 0.00728269 0.01897225 0.01562058 0.01493064 0.00168119 0.00787473 0.06492652 0.02071911 0.00456063 
0.01584406 0.03612113 0.00309715 0.00188011 0.00985688 0.00183079 0.00675962 0.00728645 0.01920309 0.01595784 0.01491245 0.00169103 0.00781231 0.06583801 0.02091696 0.00444276 
0.01564656 0.03590262 0.00309969 0.00191994 0.00979747 0.00185770 0.00671433 0.00729302 0.01946170 0.01627439 0.01492739 0.00170092 0.00776572 0.06677468 0.02111701 0.00432915 
0.01549593 0.03568401 0.00310265 0.00196048 0.00972986 0.00188511 0.00666753 0.00730219 0.01974671 0.01656846 0.01497446 0.00171081 0.00773506 0.06773401 0.02131858 0.00422027 
0.01539208 0.03546646 0.00310600 0.00200165 0.00965400 0.00191297 0.00661937 0.00731377 0.02005669 0.01683845 0.01505256 0.00172062 0.00772035 0.06871352 0.02152102 0.00411657 
0.01533468 0.03525105 0.00310967 0.00204336 0.00956994 0.00194123 0.00657000 0.00732753 0.02039013 0.01708283 0.01516052 0.00173030 0.00772159 0.06971073 0.02172370 0.00401848 
0.01532316 0.03503879 0.00311361 0.00208551 0.00947777 0.00196984 0.00651960 0.00734325 0.02074547 0.01730020 0.01529709 0.00173979 0.00773870 0.07072321 0.02192602 0.00392644 
0.01535673 0.03483058 0.00311777 0.00212802 0.00937766 0.00199874 0.00646834 0.00736071 0.02112109 0.01748933 0.01546094 0.00174903 0.00777158 0.07174854 0.02212742 0.00384082 
0.01543437 0.03462726 0.00312207 0.00217079 0.00926983 0.00202788 0.00641644 0.00737970 0.02151533 0.01764907 0.01565068 0.00175798 0.00782006 0.07278430 0.02232733 0.00376201 
0.01555484 0.03442955 0.00312644 0.00221373 0.00915460 0.00205718 0.00636412 0.00739999 0.02192648 0.01777848 0.01586485 0.00176658 0.00788392 0.07382811 0.02252525 0.00369034 
0.01571671 0.03423804 0.00313082 0.00225674 0.00903232 0.00208661 0.00631161 0.00742136 0.02235283 0.01787672 0.01610197 0.00177480 0.00796288 0.07487759 0.02272067 0.00362612 
0.01591833 0.03405325 0.00313513 0.00229972 0.00890342 0.00211608 0.00625916 0.00744359 0.02279262 0.01794313 0.01636047 0.00178260 0.00805661 0.07593037 0.02291311 0.00356965 
0.01615789 0.03387556 0.00313931 0.00234259 0.00876842 0.00214553 0.00620703 0.00746646 0.02324408 0.01797722 0.01663876 0.00178995 0.00816473 0.07698409 0.02310211 0.00352115 
0.01643340 0.03370524 0.00314327 0.00238523 0.00862786 0.00217490 0.00615550 0.00748978 0.02370544 0.01797863 0.01693523 0.00179683 0.00828679 0.07803639 0.02328723 0.00348084 
0.01674269 0.03354245 0.00314695 0.00242755 0.00848237 0.00220412 0.00610484 0.00751333 0.02417494 0.01794720 0.01724823 0.00180320 0.00842230 0.07908492 0.02346804 0.00344890 
0.01708348 0.03338722 0.00315028 0.00246946 0.00833264 0.00223312 0.00605535 0.00753692 0.02465081 0.01788292 0.01757608 0.00180907 0.00857071 0.08012734 0.02364412 0.00342545 
