0.03243001 0.00932447 0.00101751 0.00346556 0.00114617 0.00233211 0.00708714 0.00312978 0.03146577 0.00204930 0.00159418 0.00056115 0.00373314 0.00056596 0.00093359 0.00118271 
0.03224913 0.00955165 0.00106364 0.00351110 0.00114249 0.00237634 0.00703603 0.00315664 0.03221573 0.00207925 0.00161081 0.00055896 0.00383853 0.00055159 0.00092100 0.00118476 
0.03205024 0.00977678 0.00111700 0.00355625 0.00113948 0.00241862 0.00697906 0.00318522 0.03293080 0.00210863 0.00162785 0.00055645 0.00394092 0.00053681 0.00090868 0.00118708 
0.03183493 0.00999900 0.00117757 0.00360089 0.00113714 0.00245879 0.00691674 0.00321561 0.03360936 0.00213741 0.00164514 0.00055360 0.00403984 0.00052167 0.00089666 0.00118966 
0.03160492 0.01021741 0.00124532 0.00364491 0.00113549 0.00249670 0.00684961 0.00324792 0.03424997 0.00216559 0.00166250 0.00055044 0.00413489 0.00050625 0.00088498 0.00119249 
0.03136208 0.01043112 0.00132017 0.00368818 0.00113452 0.00253222 0.00677824 0.00328224 0.03485136 0.00219316 0.00167977 0.00054696 0.00422564 0.00049060 0.00087368 0.00119556 
0.03110834 0.01063924 0.00140204 0.00373055 0.00113424 0.00256523 0.00670324 0.00331866 0.03541243 0.00222013 0.00169677 0.00054318 0.00431173 0.00047478 0.00086277 0.00119884 
0.03084578 0.01084085 0.00149082 0.00377189 0.00113463 0.00259564 0.00662524 0.00335725 0.03593226 0.00224649 0.00171334 0.00053911 0.00439281 0.00045885 0.00085230 0.00120233 
0.03057655 0.01103508 0.00158636 0.00381206 0.00113571 0.00262335 0.00654490 0.00339809 0.03641013 0.00227226 0.00172931 0.00053478 0.00446857 0.00044287 0.00084226 0.00120601 
0.03030288 0.01122104 0.00168849 0.00385090 0.00113744 0.00264829 0.00646289 0.00344122 0.03684549 0.00229744 0.00174453 0.00053019 0.00453874 0.00042691 0.00083268 0.00120987 
0.03002707 0.01139786 0.00179703 0.00388826 0.00113983 0.00267039 0.00637990 0.00348671 0.03723797 0.00232206 0.00175884 0.00052538 0.00460308 0.00041102 0.00082357 0.00121388 
0.02975150 0.01156470 0.00191177 0.00392399 0.00114285 0.00268961 0.00629664 0.00353457 0.03758740 0.00234612 0.00177209 0.00052036 0.00466140 0.00039526 0.00081493 0.00121803 
0.02947857 0.01172074 0.00203246 0.00395794 0.00114649 0.00270593 0.00621380 0.00358485 0.03789377 0.00236965 0.00178416 0.00051518 0.00471353 0.00037969 0.00080676 0.00122230 
0.02921073 0.01186517 0.00215885 0.00398996 0.00115071 0.00271932 0.00613211 0.00363754 0.03815726 0.00239267 0.00179491 0.00050987 0.00475938 0.00036436 0.00079907 0.00122669 
0.02895042 0.01199725 0.00229065 0.00401987 0.00115551 0.00272978 0.00605227 0.00369264 0.03837824 0.00241521 0.00180422 0.00050446 0.00479887 0.00034931 0.00079183 0.00123116 
0.02870014 0.01211625 0.00242757 0.00404755 0.00116085 0.00273734 0.00597499 0.00375012 0.03855724 0.00243728 0.00181198 0.00049898 0.00483198 0.00033461 0.00078506 0.00123572 
0.02846235 0.01222150 0.00256927 0.00407283 0.00116670 0.00274202 0.00590096 0.00380996 0.03869495 0.00245892 0.00181811 0.00049348 0.00485875 0.00032030 0.00077872 0.00124033 
0.02823950 0.01231237 0.00271542 0.00409557 0.00117303 0.00274387 0.00583087 0.00387210 0.03879225 0.00248014 0.00182251 0.00048801 0.00487924 0.00030643 0.00077281 0.00124498 
0.02803401 0.01238829 0.00286565 0.00411562 0.00117981 0.00274295 0.00576537 0.00393647 0.03885016 0.00250098 0.00182512 0.00048260 0.00489356 0.00029303 0.00076731 0.00124967 
0.02784826 0.01244875 0.00301958 0.00413287 0.00118700 0.00273933 0.00570511 0.00400298 0.03886984 0.00252145 0.00182588 0.00047730 0.00490189 0.00028015 0.00076221 0.00125437 
0.02768457 0.01249327 0.00317682 0.00414716 0.00119457 0.00273309 0.00565070 0.00407154 0.03885260 0.00254159 0.00182474 0.00047216 0.00490443 0.00026782 0.00075747 0.00125906 
0.02754520 0.01252148 0.00333696 0.00415839 0.00120248 0.00272434 0.00560271 0.00414203 0.03879990 0.00256141 0.00182168 0.00046724 0.00490143 0.00025608 0.00075308 0.00126374 
0.02743232 0.01253304 0.00349958 0.00416645 0.00121069 0.00271318 0.00556170 0.00421431 0.03871331 0.00258095 0.00181669 0.00046257 0.00489319 0.00024495 0.00074901 0.00126840 
0.02734802 0.01252772 0.00366425 0.00417122 0.00121915 0.00269974 0.00552817 0.00428825 0.03859451 0.00260021 0.00180976 0.00045822 0.00488005 0.00023447 0.00074524 0.00127301 
0.02729426 0.01250533 0.00383052 0.00417262 0.00122784 0.00268415 0.00550258 0.00436367 0.03844531 0.00261921 0.00180092 0.00045423 0.00486237 0.00022466 0.00074175 0.00127757 
0.02727292 0.01246578 0.00399795 0.00417056 0.00123670 0.00266656 0.00548536 0.00444040 0.03826759 0.00263798 0.00179019 0.00045065 0.00484056 0.00021554 0.00073851 0.00128207 
0.02728572 0.01240903 0.00416607 0.00416498 0.00124570 0.00264710 0.00547687 0.00451826 0.03806333 0.00265653 0.00177762 0.00044753 0.00481507 0.00020712 0.00073550 0.00128649 
0.02733426 0.01233517 0.00433442 0.00415582 0.00125479 0.00262595 0.00547743 0.00459703 0.03783459 0.00267486 0.00176329 0.00044492 0.00478637 0.00019943 0.00073270 0.00129082 
0.02741998 0.01224433 0.00450254 0.00414303 0.00126394 0.00260327 0.00548731 0.00467650 0.03758347 0.00269300 0.00174725 0.00044287 0.00475497 0.00019248 0.00073009 0.00129506 
0.02754419 0.01213674 0.00466997 0.00412658 0.00127309 0.00257922 0.00550672 0.00475646 0.03731215 0.00271094 0.00172962 0.00044144 0.00472138 0.00018627 0.00072765 0.00129920 
0.02770800 0.01201272 0.00483623 0.00410647 0.00128222 0.00255399 0.00553579 0.00483665 0.03702285 0.00272869 0.00171049 0.00044065 0.00468614 0.00018081 0.00072535 0.00130323 
0.02791237 0.01187266 0.00500087 0.00408268 0.00129127 0.00252775 0.00557463 0.00491685 0.03671779 0.00274626 0.00168998 0.00044055 0.00464983 0.00017610 0.00072319 0.00130714 
0.02815807 0.01171706 0.00516343 0.00405522 0.00130021 0.00250068 0.00562326 0.00499681 0.03639923 0.00276364 0.00166823 0.00044119 0.00461302 0.00017215 0.00072116 0.00131093 
0.02844569 0.01154646 0.00532345 0.00402414 0.00130901 0.00247297 0.00568165 0.00507626 0.03606945 0.00278084 0.00164538 0.00044260 0.00457628 0.00016895 0.00071924 0.00131458 
0.02877562 0.01136154 0.00548049 0.00398946 0.00131761 0.00244480 0.00574970 0.00515494 0.03573070 0.00279784 0.00162159 0.00044482 0.00454021 0.00016649 0.00071743 0.00131811 
0.02914805 0.01116301 0.00563412 0.00395125 0.00132599 0.00241635 0.00582725 0.00523261 0.03538522 0.00281465 0.00159703 0.00044786 0.00450538 0.00016478 0.00071573 0.00132150 
0.02956299 0.01095169 0.00578391 0.00390958 0.00133411 0.00238781 0.00591409 0.00530898 0.03503523 0.00283125 0.00157187 0.00045177 0.00447240 0.00016380 0.00071413 0.00132474 
0.03002024 0.01072846 0.00592946 0.00386454 0.00134193 0.00235935 0.00600992 0.00538380 0.03468291 0.00284764 0.00154631 0.00045655 0.00444182 0.00016354 0.00071263 0.00132785 
0.03051938 0.01049428 0.00607037 0.00381623 0.00134943 0.00233115 0.00611441 0.00545681 0.03433040 0.00286381 0.00152054 0.00046222 0.00441422 0.00016398 0.00071125 0.00133081 
0.03105981 0.01025018 0.00620625 0.00376476 0.00135657 0.00230338 0.00622715 0.00552774 0.03397976 0.00287973 0.00149476 0.00046880 0.00439013 0.00016511 0.00070999 0.00133362 
0.03164072 0.00999725 0.00633676 0.00371026 0.00136332 0.00227620 0.00634769 0.00559634 0.03363300 0.00289540 0.00146917 0.00047630 0.00437009 0.00016691 0.00070887 0.00133628 
0.03226110 0.00973664 0.00646155 0.00365288 0.00136965 0.00224978 0.00647551 0.00566236 0.03329205 0.00291081 0.00144400 0.00048470 0.00435459 0.00016937 0.00070789 0.00133880 
0.03291975 0.00946957 0.00658029 0.00359277 0.00137554 0.00222425 0.00661004 0.00572556 0.03295875 0.00292594 0.00141944 0.00049400 0.00434411 0.00017245 0.00070708 0.00134117 
0.03361526 0.00919729 0.00669270 0.00353010 0.00138097 0.00219977 0.00675067 0.00578571 0.03263485 0.00294077 0.00139573 0.00050420 0.00433909 0.00017615 0.00070646 0.00134340 
0.03434606 0.00892111 0.00679849 0.00346505 0.00138592 0.00217646 0.00689673 0.00584259 0.03232201 0.00295529 0.00137308 0.00051528 0.00433993 0.00018043 0.00070606 0.00134548 
0.03511039 0.00864238 0.00689741 0.00339780 0.00139035 0.00215446 0.00704753 0.00589597 0.03202176 0.00296948 0.00135170 0.00052720 0.00434700 0.00018528 0.00070589 0.00134742 
0.03590633 0.00836247 0.00698923 0.00332856 0.00139427 0.00213386 0.00720231 0.00594567 0.03173553 0.00298332 0.00133182 0.00053995 0.00436062 0.00019066 0.00070600 0.00134921 
0.03673179 0.00808277 0.00707376 0.00325752 0.00139764 0.00211479 0.00736031 0.00599150 0.03146464 0.00299681 0.00131363 0.00055347 0.00438108 0.00019654 0.00070640 0.00135086 
0.03758454 0.00780473 0.00715081 0.00318490 0.00140047 0.00209732 0.00752071 0.00603328 0.03121026 0.00300993 0.00129735 0.00056774 0.00440861 0.00020291 0.00070714 0.00135238 
0.03846220 0.00752975 0.00722024 0.00311093 0.00140273 0.00208153 0.00768268 0.00607087 0.03097346 0.00302265 0.00128318 0.00058270 0.00444340 0.00020973 0.00070824 0.00135376 
0.03936229 0.00725930 0.00728193 0.00303583 0.00140442 0.00206750 0.00784537 0.00610413 0.03075517 0.00303498 0.00127132 0.00059830 0.00448558 0.00021697 0.00070974 0.00135502 
0.04028219 0.00699479 0.00733578 0.00295982 0.00140553 0.00205528 0.00800791 0.00613292 0.03055618 0.00304690 0.00126194 0.00061447 0.00453523 0.00022461 0.00071168 0.00135614 
0.04121923 0.00673765 0.00738173 0.00288315 0.00140605 0.00204491 0.00816944 0.00615716 0.03037716 0.00305839 0.00125522 0.00063115 0.00459239 0.00023261 0.00071408 0.00135713 
0.04217062 0.00648930 0.00741973 0.00280604 0.00140599 0.00203643 0.00832906 0.00617676 0.03021863 0.00306946 0.00125133 0.00064827 0.00465704 0.00024094 0.00071699 0.00135801 
0.04313354 0.00625110 0.00744977 0.00272874 0.00140535 0.00202984 0.00848590 0.00619165 0.03008099 0.00308009 0.00125042 0.00066574 0.00472910 0.00024957 0.00072044 0.00135876 
0.04410510 0.00602442 0.00747187 0.00265148 0.00140411 0.00202516 0.00863908 0.00620178 0.02996450 0.00309027 0.00125262 0.00068348 0.00480844 0.00025847 0.00072446 0.00135939 
0.04508240 0.00581056 0.00748607 0.00257449 0.00140230 0.00202238 0.00878776 0.00620714 0.02986929 0.00310000 0.00125807 0.00070142 0.00489488 0.00026761 0.00072909 0.00135992 
0.04606254 0.00561077 0.00749243 0.00249801 0.00139991 0.00202148 0.00893107 0.00620771 0.02979535 0.00310928 0.00126687 0.00071944 0.00498819 0.00027695 0.00073434 0.00136033 
0.04704263 0.00542625 0.00749104 0.00242228 0.00139695 0.00202243 0.00906822 0.00620351 0.02974256 0.00311811 0.00127911 0.00073746 0.00508808 0.00028647 0.00074026 0.00136063 
0.04801979 0.00525816 0.00748202 0.00234751 0.00139343 0.00202518 0.00919841 0.00619457 0.02971066 0.00312648 0.00129488 0.00075539 0.00519422 0.00029614 0.00074686 0.00136083 
0.04899123 0.00510757 0.00746550 0.00227392 0.00138936 0.00202968 0.00932088 0.00618096 0.02969929 0.00313440 0.00131423 0.00077311 0.00530624 0.00030591 0.00075416 0.00136093 
0.04995421 0.00497546 0.00744165 0.00220174 0.00138475 0.00203588 0.00943492 0.00616273 0.02970797 0.00314186 0.00133720 0.00079052 0.00542369 0.00031576 0.00076218 0.00136092 
0.05090609 0.00486275 0.00741063 0.00213117 0.00137962 0.00204368 0.00953986 0.00613998 0.02973610 0.00314888 0.00136382 0.00080752 0.00554612 0.00032567 0.00077094 0.00136082 
0.05184433 0.00477027 0.00737266 0.00206241 0.00137399 0.00205301 0.00963507 0.00611283 0.02978299 0.00315545 0.00139409 0.00082400 0.00567301 0.00033559 0.00078045 0.00136062 
0.05276652 0.00469874 0.00732795 0.00199565 0.00136787 0.00206378 0.00971998 0.00608140 0.02984785 0.00316158 0.00142799 0.00083985 0.00580382 0.00034549 0.00079071 0.00136033 
0.05367043 0.00464881 0.00727672 0.00193106 0.00136128 0.00207588 0.00979409 0.00604584 0.02992981 0.00316728 0.00146549 0.00085497 0.00593797 0.00035535 0.00080171 0.00135995 
0.05455397 0.00462101 0.00721922 0.00186884 0.00135424 0.00208921 0.00985694 0.00600630 0.03002791 0.00317254 0.00150654 0.00086925 0.00607485 0.00036514 0.00081346 0.00135948 
0.05541522 0.00461575 0.00715572 0.00180913 0.00134677 0.00210365 0.00990814 0.00596298 0.03014112 0.00317739 0.00155105 0.00088259 0.00621383 0.00037482 0.00082594 0.00135893 
0.05625250 0.00463334 0.00708648 0.00175208 0.00133891 0.00211907 0.00994736 0.00591604 0.03026834 0.00318181 0.00159894 0.00089488 0.00635425 0.00038436 0.00083915 0.00135828 
0.05706432 0.00467400 0.00701178 0.00169783 0.00133066 0.00213536 0.00997437 0.00586571 0.03040842 0.00318582 0.00165010 0.00090604 0.00649543 0.00039374 0.00085305 0.00135755 
0.05784943 0.00473779 0.00693190 0.00164652 0.00132206 0.00215238 0.00998898 0.00581221 0.03056014 0.00318942 0.00170438 0.00091595 0.00663669 0.00040293 0.00086762 0.00135674 
0.05860680 0.00482469 0.00684715 0.00159824 0.00131314 0.00216999 0.00999108 0.00575574 0.03072226 0.00319262 0.00176165 0.00092454 0.00677732 0.00041190 0.00088282 0.00135585 
0.05933569 0.00493454 0.00675781 0.00155311 0.00130392 0.00218807 0.00998065 0.00569657 0.03089351 0.00319541 0.00182173 0.00093171 0.00691662 0.00042062 0.00089863 0.00135488 
0.06003560 0.00506707 0.00666419 0.00151121 0.00129443 0.00220646 0.00995772 0.00563493 0.03107256 0.00319781 0.00188444 0.00093740 0.00705389 0.00042907 0.00091499 0.00135382 
0.06070629 0.00522188 0.00656658 0.00147261 0.00128470 0.00222503 0.00992241 0.00557108 0.03125809 0.00319980 0.00194957 0.00094153 0.00718842 0.00043723 0.00093186 0.00135269 
0.06134782 0.00539847 0.00646528 0.00143738 0.00127476 0.00224364 0.00987493 0.00550528 0.03144878 0.00320138 0.00201691 0.00094404 0.00731952 0.00044505 0.00094918 0.00135148 
0.06196051 0.00559620 0.00636058 0.00140557 0.00126465 0.00226215 0.00981553 0.00543779 0.03164327 0.00320256 0.00208622 0.00094488 0.00744651 0.00045254 0.00096689 0.00135019 
0.06254499 0.00581433 0.00625278 0.00137720 0.00125439 0.00228042 0.00974456 0.00536888 0.03184023 0.00320332 0.00215727 0.00094399 0.00756872 0.00045965 0.00098493 0.00134882 
0.06310214 0.00605201 0.00614215 0.00135231 0.00124401 0.00229832 0.00966244 0.00529883 0.03203834 0.00320365 0.00222979 0.00094134 0.00768550 0.00046637 0.00100323 0.00134738 
0.06363314 0.00630828 0.00602898 0.00133090 0.00123356 0.00231571 0.00956964 0.00522790 0.03223629 0.00320355 0.00230351 0.00093692 0.00779622 0.00047268 0.00102171 0.00134587 
0.06413945 0.00658207 0.00591353 0.00131297 0.00122305 0.00233246 0.00946672 0.00515636 0.03243280 0.00320299 0.00237815 0.00093069 0.00790031 0.00047856 0.00104030 0.00134428 
0.06462278 0.00687221 0.00579606 0.00129850 0.00121253 0.00234845 0.00935429 0.00508448 0.03262661 0.00320197 0.00245342 0.00092266 0.00799718 0.00048399 0.00105891 0.00134261 
0.06508512 0.00717744 0.00567681 0.00128746 0.00120203 0.00236356 0.00923302 0.00501252 0.03281652 0.00320046 0.00252903 0.00091284 0.00808630 0.00048896 0.00107746 0.00134088 
0.06552870 0.00749642 0.00555603 0.00127983 0.00119158 0.00237768 0.00910364 0.00494074 0.03300134 0.00319844 0.00260467 0.00090125 0.00816719 0.00049345 0.00109587 0.00133908 
0.06595601 0.00782772 0.00543394 0.00127553 0.00118122 0.00239069 0.00896694 0.00486940 0.03317994 0.00319588 0.00268004 0.00088792 0.00823939 0.00049746 0.00111404 0.00133720 
0.06636973 0.00816982 0.00531075 0.00127453 0.00117097 0.00240249 0.00882373 0.00479872 0.03335125 0.00319275 0.00275483 0.00087289 0.00830248 0.00050095 0.00113189 0.00133526 
0.06677278 0.00852118 0.00518666 0.00127673 0.00116088 0.00241300 0.00867489 0.00472896 0.03351423 0.00318903 0.00282873 0.00085622 0.00835610 0.00050394 0.00114932 0.00133326 
0.06716826 0.00888014 0.00506185 0.00128206 0.00115097 0.00242212 0.00852133 0.00466034 0.03366792 0.00318467 0.00290142 0.00083799 0.00839992 0.00050641 0.00116624 0.00133119 
0.06755942 0.00924505 0.00493649 0.00129043 0.00114127 0.00242977 0.00836398 0.00459306 0.03381140 0.00317964 0.00297260 0.00081828 0.00843366 0.00050835 0.00118256 0.00132905 
0.06794969 0.00961417 0.00481076 0.00130174 0.00113182 0.00243589 0.00820380 0.00452733 0.03394381 0.00317391 0.00304197 0.00079719 0.00845711 0.00050977 0.00119818 0.00132686 
0.06834259 0.00998576 0.00468478 0.00131588 0.00112265 0.00244040 0.00804179 0.00446334 0.03406437 0.00316742 0.00310921 0.00077482 0.00847009 0.00051066 0.00121302 0.00132462 
0.06874176 0.01035804 0.00455871 0.00133272 0.00111379 0.00244327 0.00787893 0.00440126 0.03417236 0.00316014 0.00317403 0.00075130 0.00847246 0.00051101 0.00122700 0.00132232 
0.06915090 0.01072922 0.00443265 0.00135216 0.00110527 0.00244444 0.00771622 0.00434126 0.03426712 0.00315202 0.00323615 0.00072676 0.00846415 0.00051085 0.00124001 0.00131997 
0.06957377 0.01109752 0.00430673 0.00137405 0.00109711 0.00244388 0.00755467 0.00428347 0.03434804 0.00314302 0.00329529 0.00070135 0.00844513 0.00051016 0.00125199 0.00131757 
0.07001412 0.01146115 0.00418104 0.00139826 0.00108934 0.00244155 0.00739528 0.00422803 0.03441460 0.00313308 0.00335118 0.00067522 0.00841544 0.00050895 0.00126285 0.00131514 
0.07047571 0.01181835 0.00405569 0.00142464 0.00108199 0.00243745 0.00723904 0.00417504 0.03446634 0.00312216 0.00340356 0.00064855 0.00837513 0.00050725 0.00127252 0.00131266 
0.07096225 0.01216737 0.00393075 0.00145305 0.00107508 0.00243155 0.00708691 0.00412460 0.03450286 0.00311021 0.00345219 0.00062152 0.00832434 0.00050505 0.00128094 0.00131015 
0.07147737 0.01250651 0.00380631 0.00148333 0.00106863 0.00242387 0.00693984 0.00407679 0.03452383 0.00309719 0.00349685 0.00059431 0.00826323 0.00050238 0.00128803 0.00130761 
0.07202459 0.01283411 0.00368245 0.00151534 0.00106266 0.00241441 0.00679875 0.00403167 0.03452896 0.00308304 0.00353731 0.00056712 0.00819201 0.00049924 0.00129374 0.00130504 
0.07260731 0.01314858 0.00355924 0.00154890 0.00105719 0.00240317 0.00666451 0.00398927 0.03451805 0.00306771 0.00357339 0.00054016 0.00811094 0.00049567 0.00129802 0.00130246 
0.07322876 0.01344838 0.00343675 0.00158386 0.00105225 0.00239020 0.00653797 0.00394963 0.03449093 0.00305117 0.00360489 0.00051363 0.00802032 0.00049168 0.00130083 0.00129987 
0.07389197 0.01373204 0.00331506 0.00162005 0.00104783 0.00237551 0.00641991 0.00391276 0.03444752 0.00303337 0.00363168 0.00048776 0.00792049 0.00048729 0.00130214 0.00129726 
0.07459976 0.01399819 0.00319426 0.00165731 0.00104396 0.00235914 0.00631109 0.00387864 0.03438777 0.00301428 0.00365359 0.00046277 0.00781182 0.00048253 0.00130190 0.00129466 
0.07535466 0.01424553 0.00307440 0.00169546 0.00104064 0.00234115 0.00621218 0.00384724 0.03431168 0.00299384 0.00367052 0.00043888 0.00769472 0.00047744 0.00130011 0.00129206 
0.07615897 0.01447288 0.00295560 0.00173435 0.00103789 0.00232158 0.00612382 0.00381853 0.03421932 0.00297204 0.00368236 0.00041632 0.00756964 0.00047203 0.00129675 0.00128947 
0.07701466 0.01467915 0.00283794 0.00177380 0.00103570 0.00230049 0.00604657 0.00379245 0.03411078 0.00294884 0.00368904 0.00039532 0.00743705 0.00046635 0.00129182 0.00128690 
0.07792337 0.01486337 0.00272153 0.00181365 0.00103408 0.00227795 0.00598092 0.00376892 0.03398620 0.00292422 0.00369049 0.00037612 0.00729744 0.00046042 0.00128533 0.00128435 
0.07888639 0.01502469 0.00260649 0.00185373 0.00103303 0.00225403 0.00592731 0.00374785 0.03384578 0.00289816 0.00368668 0.00035894 0.00715133 0.00045429 0.00127730 0.00128184 
0.07990465 0.01516236 0.00249295 0.00189387 0.00103255 0.00222879 0.00588609 0.00372915 0.03368974 0.00287064 0.00367759 0.00034400 0.00699927 0.00044799 0.00126774 0.00127937 
0.08097867 0.01527580 0.00238105 0.00193393 0.00103262 0.00220232 0.00585754 0.00371270 0.03351834 0.00284165 0.00366325 0.00033153 0.00684182 0.00044157 0.00125670 0.00127694 
0.08210857 0.01536452 0.00227097 0.00197373 0.00103325 0.00217471 0.00584187 0.00369838 0.03333186 0.00281120 0.00364366 0.00032175 0.00667953 0.00043506 0.00124422 0.00127457 
0.08329408 0.01542819 0.00216288 0.00201312 0.00103442 0.00214603 0.00583921 0.00368605 0.03313063 0.00277930 0.00361890 0.00031486 0.00651301 0.00042851 0.00123035 0.00127226 
0.08453445 0.01546660 0.00205699 0.00205195 0.00103611 0.00211638 0.00584960 0.00367556 0.03291499 0.00274594 0.00358904 0.00031106 0.00634283 0.00042195 0.00121516 0.00127002 
0.08582853 0.01547970 0.00195351 0.00209007 0.00103831 0.00208584 0.00587302 0.00366677 0.03268531 0.00271116 0.00355416 0.00031055 0.00616959 0.00041545 0.00119872 0.00126785 
0.08717470 0.01546755 0.00185269 0.00212734 0.00104099 0.00205452 0.00590937 0.00365951 0.03244197 0.00267498 0.00351439 0.00031350 0.00599389 0.00040904 0.00118111 0.00126577 
0.08857091 0.01543037 0.00175480 0.00216362 0.00104414 0.00202250 0.00595847 0.00365361 0.03218539 0.00263744 0.00346986 0.00032008 0.00581633 0.00040276 0.00116242 0.00126378 
0.09001465 0.01536851 0.00166012 0.00219878 0.00104773 0.00198988 0.00602006 0.00364890 0.03191598 0.00259858 0.00342074 0.00033046 0.00563751 0.00039668 0.00114275 0.00126188 
0.09150298 0.01528246 0.00156897 0.00223269 0.00105173 0.00195676 0.00609383 0.00364522 0.03163419 0.00255845 0.00336719 0.00034476 0.00545799 0.00039082 0.00112221 0.00126009 
0.09303252 0.01517283 0.00148167 0.00226525 0.00105611 0.00192324 0.00617937 0.00364238 0.03134046 0.00251712 0.00330942 0.00036311 0.00527838 0.00038525 0.00110091 0.00125841 
0.09459945 0.01504038 0.00139859 0.00229632 0.00106083 0.00188941 0.00627622 0.00364021 0.03103524 0.00247465 0.00324762 0.00038563 0.00509922 0.00038000 0.00107897 0.00125685 
0.09619954 0.01488597 0.00132010 0.00232581 0.00106586 0.00185537 0.00638386 0.00363854 0.03071902 0.00243112 0.00318205 0.00041239 0.00492109 0.00037513 0.00105652 0.00125541 
0.09782816 0.01471060 0.00124659 0.00235363 0.00107115 0.00182120 0.00650169 0.00363718 0.03039225 0.00238662 0.00311292 0.00044348 0.00474450 0.00037068 0.00103369 0.00125410 
0.09948031 0.01451538 0.00117850 0.00237968 0.00107668 0.00178702 0.00662907 0.00363598 0.03005541 0.00234123 0.00304051 0.00047893 0.00457000 0.00036669 0.00101063 0.00125292 
0.10115060 0.01430151 0.00111625 0.00240389 0.00108239 0.00175289 0.00676531 0.00363477 0.02970900 0.00229508 0.00296509 0.00051879 0.00439807 0.00036322 0.00098747 0.00125189 
0.10283333 0.01407033 0.00106031 0.00242618 0.00108825 0.00171893 0.00690965 0.00363339 0.02935348 0.00224825 0.00288694 0.00056306 0.00422921 0.00036029 0.00096436 0.00125099 
0.10452248 0.01382322 0.00101113 0.00244649 0.00109420 0.00168521 0.00706131 0.00363169 0.02898935 0.00220087 0.00280634 0.00061173 0.00406387 0.00035795 0.00094146 0.00125025 
0.10621173 0.01356170 0.00096921 0.00246478 0.00110019 0.00165181 0.00721947 0.00362952 0.02861710 0.00215307 0.00272362 0.00066477 0.00390250 0.00035625 0.00091891 0.00124965 
0.10789453 0.01328732 0.00093505 0.00248099 0.00110619 0.00161883 0.00738325 0.00362677 0.02823722 0.00210497 0.00263907 0.00072212 0.00374550 0.00035521 0.00089688 0.00124921 
0.10956410 0.01300173 0.00090913 0.00249510 0.00111213 0.00158634 0.00755179 0.00362329 0.02785019 0.00205671 0.00255302 0.00078371 0.00359326 0.00035488 0.00087552 0.00124892 
0.11121347 0.01270663 0.00089198 0.00250709 0.00111797 0.00155441 0.00772415 0.00361899 0.02745651 0.00200844 0.00246579 0.00084943 0.00344616 0.00035528 0.00085499 0.00124880 
0.11283554 0.01240375 0.00088410 0.00251694 0.00112366 0.00152312 0.00789943 0.00361377 0.02705666 0.00196031 0.00237772 0.00091916 0.00330453 0.00035644 0.00083544 0.00124883 
0.11442309 0.01209488 0.00088600 0.00252464 0.00112914 0.00149253 0.00807668 0.00360755 0.02665115 0.00191246 0.00228912 0.00099277 0.00316867 0.00035840 0.00081703 0.00124903 
0.11596882 0.01178183 0.00089818 0.00253022 0.00113437 0.00146272 0.00825496 0.00360025 0.02624045 0.00186505 0.00220035 0.00107008 0.00303888 0.00036117 0.00079990 0.00124938 
0.11746541 0.01146642 0.00092115 0.00253369 0.00113929 0.00143374 0.00843334 0.00359181 0.02582507 0.00181824 0.00211172 0.00115091 0.00291541 0.00036477 0.00078422 0.00124990 
0.11890556 0.01115050 0.00095538 0.00253508 0.00114386 0.00140566 0.00861086 0.00358221 0.02540549 0.00177220 0.00202358 0.00123506 0.00279850 0.00036923 0.00077012 0.00125057 
0.12028199 0.01083590 0.00100135 0.00253442 0.00114803 0.00137852 0.00878662 0.00357141 0.02498221 0.00172709 0.00193625 0.00132229 0.00268835 0.00037455 0.00075774 0.00125140 
0.12158755 0.01052444 0.00105951 0.00253177 0.00115174 0.00135238 0.00895969 0.00355940 0.02455574 0.00168308 0.00185007 0.00141238 0.00258514 0.00038074 0.00074722 0.00125239 
0.12281521 0.01021791 0.00113027 0.00252719 0.00115495 0.00132729 0.00912921 0.00354620 0.02412656 0.00164032 0.00176535 0.00150505 0.00248902 0.00038782 0.00073869 0.00125353 
0.12395811 0.00991808 0.00121404 0.00252074 0.00115762 0.00130329 0.00929429 0.00353182 0.02369519 0.00159899 0.00168241 0.00160003 0.00240012 0.00039577 0.00073227 0.00125482 
0.12500962 0.00962667 0.00131117 0.00251250 0.00115971 0.00128041 0.00945412 0.00351630 0.02326212 0.00155925 0.00160156 0.00169704 0.00231853 0.00040461 0.00072808 0.00125626 
0.12596335 0.00934536 0.00142200 0.00250256 0.00116117 0.00125870 0.00960789 0.00349970 0.02282788 0.00152125 0.00152311 0.00179577 0.00224434 0.00041432 0.00072621 0.00125783 
0.12681322 0.00907575 0.00154682 0.00249102 0.00116197 0.00123819 0.00975487 0.00348209 0.02239296 0.00148516 0.00144734 0.00189590 0.00217760 0.00042490 0.00072676 0.00125954 
0.12755348 0.00881939 0.00168587 0.00247797 0.00116208 0.00121891 0.00989432 0.00346355 0.02195789 0.00145113 0.00137455 0.00199711 0.00211834 0.00043633 0.00072983 0.00126138 
0.12817875 0.00857774 0.00183933 0.00246354 0.00116145 0.00120087 0.01002560 0.00344417 0.02152320 0.00141931 0.00130499 0.00209907 0.00206656 0.00044858 0.00073548 0.00126334 
0.12868405 0.00835219 0.00200737 0.00244783 0.00116008 0.00118411 0.01014807 0.00342408 0.02108941 0.00138984 0.00123893 0.00220143 0.00202225 0.00046165 0.00074377 0.00126542 
0.12906483 0.00814403 0.00219006 0.00243097 0.00115792 0.00116864 0.01026119 0.00340339 0.02065706 0.00136286 0.00117661 0.00230387 0.00198537 0.00047551 0.00075477 0.00126760 
0.12931701 0.00795446 0.00238743 0.00241309 0.00115496 0.00115448 0.01036443 0.00338224 0.02022668 0.00133850 0.00111827 0.00240602 0.00195586 0.00049011 0.00076851 0.00126989 
0.12943699 0.00778457 0.00259946 0.00239433 0.00115119 0.00114163 0.01045735 0.00336078 0.01979883 0.00131688 0.00106412 0.00250755 0.00193364 0.00050544 0.00078503 0.00127227 
0.12942170 0.00763534 0.00282605 0.00237483 0.00114658 0.00113011 0.01053956 0.00333917 0.01937404 0.00129811 0.00101438 0.00260811 0.00191861 0.00052145 0.00080432 0.00127473 
0.12926860 0.00750766 0.00306704 0.00235472 0.00114114 0.00111992 0.01061071 0.00331757 0.01895288 0.00128229 0.00096921 0.00270735 0.00191067 0.00053810 0.00082641 0.00127727 
0.12897569 0.00740229 0.00332219 0.00233416 0.00113486 0.00111107 0.01067054 0.00329615 0.01853591 0.00126952 0.00092881 0.00280496 0.00190966 0.00055535 0.00085127 0.00127988 
0.12854156 0.00731987 0.00359122 0.00231330 0.00112773 0.00110354 0.01071883 0.00327509 0.01812369 0.00125989 0.00089331 0.00290059 0.00191545 0.00057314 0.00087889 0.00128254 
0.12796538 0.00726094 0.00387374 0.00229228 0.00111977 0.00109735 0.01075542 0.00325458 0.01771679 0.00125345 0.00086285 0.00299395 0.00192786 0.00059144 0.00090923 0.00128525 
0.12724690 0.00722591 0.00416931 0.00227127 0.00111098 0.00109248 0.01078023 0.00323480 0.01731579 0.00125028 0.00083757 0.00308471 0.00194671 0.00061017 0.00094223 0.00128800 
0.12638647 0.00721507 0.00447743 0.00225040 0.00110137 0.00108891 0.01079321 0.00321595 0.01692126 0.00125041 0.00081754 0.00317259 0.00197181 0.00062929 0.00097783 0.00129078 
0.12538504 0.00722858 0.00479750 0.00222983 0.00109097 0.00108665 0.01079440 0.00319821 0.01653377 0.00125388 0.00080287 0.00325733 0.00200292 0.00064874 0.00101596 0.00129357 
0.12424417 0.00726651 0.00512887 0.00220972 0.00107979 0.00108567 0.01078388 0.00318177 0.01615391 0.00126072 0.00079361 0.00333866 0.00203984 0.00066845 0.00105653 0.00129638 
0.12296600 0.00732879 0.00547081 0.00219020 0.00106786 0.00108596 0.01076177 0.00316683 0.01578226 0.00127093 0.00078982 0.00341635 0.00208232 0.00068837 0.00109943 0.00129918 
0.12155326 0.00741525 0.00582251 0.00217142 0.00105521 0.00108749 0.01072828 0.00315355 0.01541939 0.00128450 0.00079151 0.00349019 0.00213010 0.00070842 0.00114454 0.00130197 
0.12000925 0.00752561 0.00618312 0.00215353 0.00104188 0.00109025 0.01068363 0.00314212 0.01506589 0.00130141 0.00079870 0.00355998 0.00218293 0.00072854 0.00119175 0.00130475 
0.11833784 0.00765946 0.00655170 0.00213666 0.00102791 0.00109420 0.01062813 0.00313271 0.01472233 0.00132164 0.00081138 0.00362557 0.00224052 0.00074866 0.00124092 0.00130750 
0.11654343 0.00781633 0.00692726 0.00212094 0.00101333 0.00109933 0.01056209 0.00312548 0.01438929 0.00134513 0.00082953 0.00368682 0.00230259 0.00076872 0.00129188 0.00131020 
0.11463097 0.00799562 0.00730876 0.00210649 0.00099820 0.00110559 0.01048591 0.00312058 0.01406732 0.00137182 0.00085309 0.00374362 0.00236885 0.00078865 0.00134450 0.00131287 
0.11260588 0.00819665 0.00769509 0.00209345 0.00098256 0.00111296 0.01040000 0.00311815 0.01375700 0.00140164 0.00088201 0.00379587 0.00243899 0.00080837 0.00139859 0.00131548 
0.11047406 0.00841866 0.00808510 0.00208191 0.00096647 0.00112140 0.01030480 0.00311833 0.01345888 0.00143450 0.00091620 0.00384354 0.00251269 0.00082782 0.00145398 0.00131803 
0.10824188 0.00866079 0.00847760 0.00207199 0.00094997 0.00113088 0.01020081 0.00312123 0.01317350 0.00147030 0.00095557 0.00388661 0.00258964 0.00084693 0.00151049 0.00132050 
0.10591610 0.00892214 0.00887133 0.00206378 0.00093314 0.00114135 0.01008854 0.00312695 0.01290141 0.00150892 0.00099999 0.00392507 0.00266951 0.00086564 0.00156792 0.00132291 
0.10350387 0.00920173 0.00926504 0.00205737 0.00091602 0.00115278 0.00996853 0.00313558 0.01264313 0.00155024 0.00104935 0.00395898 0.00275197 0.00088388 0.00162608 0.00132523 
0.10101269 0.00949851 0.00965742 0.00205285 0.00089868 0.00116512 0.00984135 0.00314718 0.01239918 0.00159413 0.00110348 0.00398840 0.00283668 0.00090159 0.00168475 0.00132746 
0.09845037 0.00981139 0.01004716 0.00205028 0.00088119 0.00117832 0.00970756 0.00316182 0.01217006 0.00164042 0.00116223 0.00401344 0.00292329 0.00091870 0.00174374 0.00132960 
0.09582499 0.01013924 0.01043291 0.00204974 0.00086361 0.00119235 0.00956777 0.00317952 0.01195626 0.00168896 0.00122542 0.00403425 0.00301146 0.00093516 0.00180284 0.00133164 
0.09314486 0.01048090 0.01081334 0.00205127 0.00084600 0.00120715 0.00942259 0.00320031 0.01175826 0.00173957 0.00129285 0.00405097 0.00310086 0.00095090 0.00186183 0.00133358 
0.09041850 0.01083516 0.01118710 0.00205491 0.00082844 0.00122267 0.00927263 0.00322418 0.01157652 0.00179209 0.00136432 0.00406382 0.00319111 0.00096589 0.00192049 0.00133541 
0.08765457 0.01120083 0.01155284 0.00206070 0.00081099 0.00123887 0.00911851 0.00325111 0.01141147 0.00184631 0.00143960 0.00407303 0.00328189 0.00098006 0.00197861 0.00133714 
0.08486184 0.01157666 0.01190925 0.00206867 0.00079371 0.00125568 0.00896085 0.00328107 0.01126355 0.00190204 0.00151847 0.00407885 0.00337283 0.00099338 0.00203598 0.00133875 
0.08204915 0.01196143 0.01225502 0.00207883 0.00077668 0.00127306 0.00880027 0.00331399 0.01113315 0.00195908 0.00160068 0.00408156 0.00346360 0.00100579 0.00209240 0.00134025 
0.07922536 0.01235391 0.01258886 0.00209118 0.00075996 0.00129095 0.00863739 0.00334980 0.01102068 0.00201722 0.00168597 0.00408148 0.00355385 0.00101727 0.00214764 0.00134164 
0.07639932 0.01275288 0.01290955 0.00210573 0.00074362 0.00130930 0.00847281 0.00338841 0.01092648 0.00207624 0.00177408 0.00407895 0.00364325 0.00102777 0.00220151 0.00134291 
0.07357983 0.01315715 0.01321589 0.00212244 0.00072771 0.00132805 0.00830712 0.00342969 0.01085090 0.00213592 0.00186473 0.00407432 0.00373145 0.00103728 0.00225381 0.00134407 
0.07077559 0.01356553 0.01350672 0.00214131 0.00071231 0.00134714 0.00814091 0.00347353 0.01079427 0.00219604 0.00195764 0.00406799 0.00381815 0.00104577 0.00230435 0.00134511 
0.06799514 0.01397688 0.01378095 0.00216229 0.00069747 0.00136653 0.00797476 0.00351976 0.01075688 0.00225637 0.00205251 0.00406034 0.00390301 0.00105322 0.00235295 0.00134605 
0.06524687 0.01439009 0.01403757 0.00218534 0.00068326 0.00138614 0.00780920 0.00356822 0.01073901 0.00231669 0.00214906 0.00405179 0.00398574 0.00105962 0.00239943 0.00134687 
0.06253894 0.01480408 0.01427562 0.00221041 0.00066972 0.00140593 0.00764478 0.00361874 0.01074089 0.00237676 0.00224697 0.00404279 0.00406602 0.00106496 0.00244362 0.00134758 
0.05987927 0.01521782 0.01449422 0.00223743 0.00065690 0.00142584 0.00748200 0.00367112 0.01076275 0.00243638 0.00234594 0.00403376 0.00414359 0.00106924 0.00248537 0.00134818 
0.05727549 0.01563035 0.01469257 0.00226635 0.00064487 0.00144581 0.00732136 0.00372515 0.01080480 0.00249530 0.00244566 0.00402517 0.00421816 0.00107247 0.00252453 0.00134868 
0.05473490 0.01604074 0.01486998 0.00229708 0.00063367 0.00146578 0.00716333 0.00378060 0.01086718 0.00255332 0.00254582 0.00401746 0.00428948 0.00107466 0.00256098 0.00134908 
0.05226449 0.01644811 0.01502583 0.00232954 0.00062333 0.00148572 0.00700835 0.00383725 0.01095004 0.00261021 0.00264609 0.00401111 0.00435731 0.00107582 0.00259459 0.00134938 
0.04987083 0.01685168 0.01515960 0.00236363 0.00061389 0.00150555 0.00685684 0.00389486 0.01105349 0.00266576 0.00274617 0.00400658 0.00442142 0.00107598 0.00262525 0.00134959 
0.04756011 0.01725068 0.01527089 0.00239926 0.00060540 0.00152523 0.00670919 0.00395317 0.01117760 0.00271977 0.00284573 0.00400432 0.00448159 0.00107517 0.00265288 0.00134970 
0.04533810 0.01764445 0.01535939 0.00243632 0.00059788 0.00154472 0.00656578 0.00401193 0.01132241 0.00277204 0.00294447 0.00400479 0.00453765 0.00107342 0.00267739 0.00134973 
0.04321011 0.01803236 0.01542491 0.00247469 0.00059135 0.00156395 0.00642695 0.00407087 0.01148794 0.00282237 0.00304207 0.00400843 0.00458942 0.00107077 0.00269873 0.00134969 
0.04118099 0.01841388 0.01546735 0.00251427 0.00058585 0.00158289 0.00629301 0.00412974 0.01167417 0.00287059 0.00313824 0.00401568 0.00463675 0.00106726 0.00271684 0.00134956 
0.03925512 0.01878851 0.01548673 0.00255492 0.00058138 0.00160149 0.00616427 0.00418825 0.01188102 0.00291652 0.00323266 0.00402694 0.00467951 0.00106295 0.00273168 0.00134936 
0.03743636 0.01915584 0.01548321 0.00259653 0.00057797 0.00161971 0.00604100 0.00424615 0.01210842 0.00296001 0.00332504 0.00404263 0.00471760 0.00105790 0.00274325 0.00134909 
0.03572811 0.01951551 0.01545703 0.00263896 0.00057560 0.00163751 0.00592343 0.00430317 0.01235622 0.00300089 0.00341509 0.00406311 0.00475093 0.00105216 0.00275153 0.00134876 
0.03413321 0.01986724 0.01540855 0.00268207 0.00057430 0.00165485 0.00581179 0.00435904 0.01262425 0.00303903 0.00350254 0.00408874 0.00477945 0.00104580 0.00275655 0.00134837 
0.03265401 0.02021080 0.01533825 0.00272573 0.00057406 0.00167170 0.00570627 0.00441349 0.01291231 0.00307430 0.00358711 0.00411984 0.00480311 0.00103890 0.00275833 0.00134793 
0.03129235 0.02054602 0.01524671 0.00276979 0.00057487 0.00168803 0.00560706 0.00446627 0.01322014 0.00310659 0.00366855 0.00415671 0.00482190 0.00103151 0.00275692 0.00134743 
0.03004953 0.02087278 0.01513462 0.00281412 0.00057672 0.00170381 0.00551430 0.00451714 0.01354744 0.00313580 0.00374660 0.00419961 0.00483583 0.00102373 0.00275237 0.00134689 
0.02892635 0.02119103 0.01500278 0.00285856 0.00057959 0.00171901 0.00542814 0.00456586 0.01389388 0.00316184 0.00382102 0.00424876 0.00484493 0.00101563 0.00274476 0.00134630 
0.02792309 0.02150075 0.01485207 0.00290296 0.00058347 0.00173362 0.00534868 0.00461218 0.01425906 0.00318463 0.00389161 0.00430437 0.00484926 0.00100730 0.00273417 0.00134567 
0.02703956 0.02180200 0.01468350 0.00294719 0.00058833 0.00174760 0.00527601 0.00465590 0.01464257 0.00320412 0.00395813 0.00436657 0.00484890 0.00099882 0.00272071 0.00134501 
0.02627503 0.02209483 0.01449813 0.00299108 0.00059414 0.00176096 0.00521022 0.00469680 0.01504391 0.00322027 0.00402041 0.00443547 0.00484396 0.00099027 0.00270449 0.00134431 
0.02562835 0.02237937 0.01429713 0.00303449 0.00060087 0.00177366 0.00515136 0.00473469 0.01546257 0.00323304 0.00407825 0.00451115 0.00483455 0.00098176 0.00268563 0.00134357 
0.02509787 0.02265577 0.01408173 0.00307726 0.00060848 0.00178572 0.00509949 0.00476939 0.01589796 0.00324242 0.00413151 0.00459362 0.00482082 0.00097335 0.00266428 0.00134281 
0.02468151 0.02292422 0.01385324 0.00311926 0.00061693 0.00179711 0.00505461 0.00480073 0.01634946 0.00324840 0.00418002 0.00468287 0.00480293 0.00096516 0.00264059 0.00134202 
0.02437676 0.02318490 0.01361303 0.00316033 0.00062617 0.00180783 0.00501675 0.00482856 0.01681639 0.00325101 0.00422367 0.00477882 0.00478108 0.00095726 0.00261470 0.00134121 
0.02418072 0.02343805 0.01336253 0.00320032 0.00063616 0.00181789 0.00498591 0.00485276 0.01729802 0.00325026 0.00426233 0.00488137 0.00475545 0.00094974 0.00258680 0.00134037 
0.02409010 0.02368390 0.01310322 0.00323909 0.00064685 0.00182729 0.00496206 0.00487320 0.01779357 0.00324620 0.00429592 0.00499034 0.00472629 0.00094269 0.00255704 0.00133950 
0.02410126 0.02392270 0.01283659 0.00327649 0.00065818 0.00183603 0.00494519 0.00488979 0.01830219 0.00323888 0.00432437 0.00510555 0.00469380 0.00093620 0.00252563 0.00133861 
0.02421022 0.02415470 0.01256420 0.00331239 0.00067009 0.00184412 0.00493525 0.00490245 0.01882299 0.00322837 0.00434761 0.00522672 0.00465826 0.00093034 0.00249273 0.00133770 
0.02441271 0.02438016 0.01228759 0.00334664 0.00068253 0.00185157 0.00493218 0.00491111 0.01935504 0.00321476 0.00436561 0.00535357 0.00461991 0.00092519 0.00245856 0.00133677 
0.02470417 0.02459931 0.01200835 0.00337912 0.00069544 0.00185839 0.00493592 0.00491572 0.01989733 0.00319812 0.00437835 0.00548577 0.00457902 0.00092084 0.00242329 0.00133581 
0.02507980 0.02481240 0.01172805 0.00340969 0.00070876 0.00186460 0.00494640 0.00491627 0.02044881 0.00317857 0.00438583 0.00562292 0.00453589 0.00091735 0.00238714 0.00133484 
0.02553459 0.02501965 0.01144824 0.00343822 0.00072241 0.00187021 0.00496352 0.00491275 0.02100838 0.00315622 0.00438808 0.00576460 0.00449078 0.00091479 0.00235031 0.00133383 
0.02606333 0.02522128 0.01117049 0.00346460 0.00073635 0.00187524 0.00498719 0.00490516 0.02157487 0.00313120 0.00438512 0.00591036 0.00444400 0.00091322 0.00231298 0.00133280 
0.02666066 0.02541746 0.01089631 0.00348871 0.00075049 0.00187971 0.00501728 0.00489352 0.02214708 0.00310362 0.00437703 0.00605971 0.00439583 0.00091270 0.00227538 0.00133175 
0.02732107 0.02560836 0.01062719 0.00351043 0.00076478 0.00188365 0.00505368 0.00487789 0.02272376 0.00307365 0.00436387 0.00621211 0.00434658 0.00091328 0.00223768 0.00133067 
0.02803900 0.02579412 0.01036458 0.00352967 0.00077915 0.00188706 0.00509625 0.00485833 0.02330360 0.00304141 0.00434574 0.00636701 0.00429654 0.00091499 0.00220010 0.00132956 
0.02880877 0.02597484 0.01010986 0.00354632 0.00079353 0.00188998 0.00514483 0.00483490 0.02388524 0.00300708 0.00432275 0.00652383 0.00424599 0.00091789 0.00216281 0.00132842 
0.02962470 0.02615058 0.00986438 0.00356028 0.00080787 0.00189242 0.00519928 0.00480770 0.02446731 0.00297080 0.00429502 0.00668196 0.00419522 0.00092200 0.00212602 0.00132726 
0.03048107 0.02632139 0.00962940 0.00357149 0.00082209 0.00189442 0.00525940 0.00477684 0.02504836 0.00293276 0.00426270 0.00684078 0.00414452 0.00092733 0.00208989 0.00132606 
0.03137221 0.02648725 0.00940611 0.00357985 0.00083613 0.00189599 0.00532502 0.00474243 0.02562692 0.00289310 0.00422595 0.00699965 0.00409415 0.00093392 0.00205461 0.00132483 
0.03229248 0.02664814 0.00919562 0.00358529 0.00084993 0.00189715 0.00539594 0.00470461 0.02620149 0.00285201 0.00418493 0.00715792 0.00404437 0.00094177 0.00202035 0.00132356 
0.03323632 0.02680395 0.00899895 0.00358777 0.00086344 0.00189793 0.00547193 0.00466351 0.02677053 0.00280966 0.00413984 0.00731494 0.00399543 0.00095087 0.00198726 0.00132226 
0.03419826 0.02695458 0.00881703 0.00358721 0.00087658 0.00189835 0.00555277 0.00461930 0.02733249 0.00276623 0.00409086 0.00747004 0.00394756 0.00096123 0.00195549 0.00132093 
0.03517297 0.02709985 0.00865069 0.00358359 0.00088932 0.00189843 0.00563822 0.00457213 0.02788578 0.00272189 0.00403822 0.00762258 0.00390099 0.00097282 0.00192518 0.00131956 
0.03615525 0.02723957 0.00850065 0.00357686 0.00090160 0.00189818 0.00572802 0.00452218 0.02842881 0.00267682 0.00398213 0.00777190 0.00385590 0.00098563 0.00189647 0.00131815 
0.03714009 0.02737349 0.00836756 0.00356699 0.00091336 0.00189763 0.00582190 0.00446962 0.02895997 0.00263119 0.00392281 0.00791738 0.00381249 0.00099962 0.00186948 0.00131670 
0.03812265 0.02750131 0.00825190 0.00355399 0.00092457 0.00189680 0.00591957 0.00441466 0.02947765 0.00258517 0.00386052 0.00805838 0.00377092 0.00101476 0.00184430 0.00131522 
0.03909832 0.02762272 0.00815410 0.00353783 0.00093517 0.00189569 0.00602073 0.00435747 0.02998023 0.00253892 0.00379548 0.00819432 0.00373133 0.00103100 0.00182105 0.00131370 
0.04006269 0.02773736 0.00807444 0.00351853 0.00094513 0.00189433 0.00612507 0.00429826 0.03046610 0.00249262 0.00372795 0.00832462 0.00369385 0.00104830 0.00179980 0.00131215 
0.04101163 0.02784484 0.00801310 0.00349610 0.00095441 0.00189272 0.00623226 0.00423723 0.03093369 0.00244642 0.00365819 0.00844873 0.00365858 0.00106659 0.00178062 0.00131055 
0.04194122 0.02794471 0.00797015 0.00347057 0.00096297 0.00189088 0.00634197 0.00417458 0.03138140 0.00240048 0.00358646 0.00856615 0.00362560 0.00108581 0.00176359 0.00130893 
0.04284784 0.02803654 0.00794555 0.00344199 0.00097080 0.00188881 0.00645383 0.00411053 0.03180770 0.00235494 0.00351301 0.00867642 0.00359496 0.00110588 0.00174874 0.00130727 
0.04372815 0.02811984 0.00793913 0.00341039 0.00097786 0.00188652 0.00656748 0.00404528 0.03221107 0.00230994 0.00343811 0.00877908 0.00356671 0.00112674 0.00173611 0.00130558 
0.04457907 0.02819410 0.00795065 0.00337585 0.00098414 0.00188401 0.00668255 0.00397904 0.03259005 0.00226563 0.00336201 0.00887378 0.00354086 0.00114829 0.00172572 0.00130385 
0.04539785 0.02825880 0.00797973 0.00333843 0.00098961 0.00188129 0.00679864 0.00391202 0.03294321 0.00222211 0.00328498 0.00896016 0.00351740 0.00117046 0.00171759 0.00130210 
0.04618200 0.02831340 0.00802591 0.00329823 0.00099427 0.00187835 0.00691537 0.00384443 0.03326919 0.00217952 0.00320728 0.00903795 0.00349631 0.00119315 0.00171171 0.00130033 
0.04692936 0.02835734 0.00808862 0.00325532 0.00099810 0.00187520 0.00703232 0.00377649 0.03356669 0.00213797 0.00312917 0.00910691 0.00347753 0.00121627 0.00170807 0.00129853 
0.04763806 0.02839008 0.00816722 0.00320984 0.00100110 0.00187184 0.00714910 0.00370838 0.03383448 0.00209754 0.00305088 0.00916688 0.00346100 0.00123972 0.00170664 0.00129672 
0.04830654 0.02841104 0.00826097 0.00316188 0.00100327 0.00186825 0.00726527 0.00364033 0.03407141 0.00205835 0.00297267 0.00921773 0.00344663 0.00126339 0.00170739 0.00129489 
0.04893353 0.02841968 0.00836904 0.00311159 0.00100461 0.00186443 0.00738043 0.00357252 0.03427641 0.00202046 0.00289478 0.00925942 0.00343432 0.00128720 0.00171026 0.00129304 
0.04951807 0.02841543 0.00849055 0.00305910 0.00100513 0.00186039 0.00749416 0.00350517 0.03444853 0.00198395 0.00281743 0.00929195 0.00342396 0.00131102 0.00171520 0.00129119 
0.05005947 0.02839776 0.00862454 0.00300455 0.00100484 0.00185609 0.00760602 0.00343845 0.03458688 0.00194889 0.00274084 0.00931538 0.00341540 0.00133476 0.00172215 0.00128934 
0.05055734 0.02836615 0.00876999 0.00294812 0.00100376 0.00185155 0.00771561 0.00337257 0.03469071 0.00191533 0.00266524 0.00932984 0.00340850 0.00135832 0.00173102 0.00128749 
0.05101157 0.02832010 0.00892584 0.00288997 0.00100190 0.00184674 0.00782252 0.00330770 0.03475937 0.00188332 0.00259083 0.00933553 0.00340312 0.00138158 0.00174172 0.00128564 
0.05142228 0.02825912 0.00909097 0.00283028 0.00099929 0.00184166 0.00792632 0.00324403 0.03479233 0.00185289 0.00251780 0.00933269 0.00339908 0.00140445 0.00175416 0.00128380 
0.05178989 0.02818279 0.00926424 0.00276923 0.00099594 0.00183630 0.00802663 0.00318174 0.03478919 0.00182407 0.00244633 0.00932163 0.00339621 0.00142682 0.00176823 0.00128198 
0.05211502 0.02809068 0.00944447 0.00270701 0.00099189 0.00183064 0.00812305 0.00312101 0.03474969 0.00179687 0.00237659 0.00930272 0.00339435 0.00144859 0.00178383 0.00128017 
0.05239854 0.02798243 0.00963047 0.00264384 0.00098717 0.00182467 0.00821521 0.00306199 0.03467369 0.00177130 0.00230875 0.00927639 0.00339330 0.00146967 0.00180083 0.00127839 
0.05264153 0.02785772 0.00982104 0.00257991 0.00098181 0.00181838 0.00830274 0.00300486 0.03456118 0.00174738 0.00224294 0.00924310 0.00339290 0.00148995 0.00181912 0.00127665 
0.05284525 0.02771628 0.01001497 0.00251544 0.00097584 0.00181177 0.00838529 0.00294977 0.03441233 0.00172507 0.00217932 0.00920339 0.00339296 0.00150936 0.00183855 0.00127493 
0.05301115 0.02755788 0.01021105 0.00245064 0.00096931 0.00180482 0.00846254 0.00289688 0.03422742 0.00170438 0.00211800 0.00915782 0.00339332 0.00152780 0.00185900 0.00127326 
0.05314085 0.02738236 0.01040810 0.00238573 0.00096224 0.00179752 0.00853418 0.00284635 0.03400691 0.00168527 0.00205908 0.00910702 0.00339381 0.00154519 0.00188034 0.00127163 
0.05323610 0.02718963 0.01060493 0.00232095 0.00095469 0.00178986 0.00859992 0.00279831 0.03375136 0.00166772 0.00200268 0.00905164 0.00339427 0.00156146 0.00190240 0.00127004 
0.05329878 0.02697964 0.01080042 0.00225650 0.00094669 0.00178185 0.00865951 0.00275290 0.03346154 0.00165169 0.00194886 0.00899236 0.00339456 0.00157654 0.00192506 0.00126852 
0.05333088 0.02675241 0.01099345 0.00219263 0.00093829 0.00177347 0.00871271 0.00271028 0.03313833 0.00163714 0.00189771 0.00892992 0.00339454 0.00159036 0.00194816 0.00126705 
0.05333446 0.02650806 0.01118294 0.00212954 0.00092953 0.00176472 0.00875932 0.00267056 0.03278276 0.00162401 0.00184928 0.00886505 0.00339410 0.00160286 0.00197156 0.00126564 
0.05331168 0.02624674 0.01136789 0.00206748 0.00092046 0.00175562 0.00879914 0.00263389 0.03239603 0.00161226 0.00180363 0.00879852 0.00339312 0.00161398 0.00199511 0.00126431 
0.05326472 0.02596869 0.01154731 0.00200665 0.00091113 0.00174614 0.00883205 0.00260038 0.03197946 0.00160182 0.00176077 0.00873111 0.00339153 0.00162370 0.00201865 0.00126304 
0.05319580 0.02567424 0.01172031 0.00194727 0.00090157 0.00173631 0.00885791 0.00257015 0.03153451 0.00159263 0.00172075 0.00866361 0.00338926 0.00163196 0.00204204 0.00126185 
0.05310715 0.02536378 0.01188601 0.00188957 0.00089183 0.00172613 0.00887666 0.00254332 0.03106278 0.00158462 0.00168357 0.00859682 0.00338626 0.00163873 0.00206513 0.00126074 
0.05300101 0.02503776 0.01204365 0.00183374 0.00088196 0.00171561 0.00888822 0.00252001 0.03056601 0.00157773 0.00164923 0.00853153 0.00338251 0.00164399 0.00208777 0.00125971 
0.05287955 0.02469673 0.01219251 0.00178000 0.00087201 0.00170476 0.00889260 0.00250032 0.03004605 0.00157189 0.00161772 0.00846854 0.00337801 0.00164773 0.00210982 0.00125876 
0.05274494 0.02434131 0.01233195 0.00172852 0.00086201 0.00169361 0.00888980 0.00248436 0.02950487 0.00156702 0.00158903 0.00840860 0.00337280 0.00164994 0.00213114 0.00125790 
0.05259928 0.02397220 0.01246139 0.00167950 0.00085201 0.00168216 0.00887987 0.00247222 0.02894453 0.00156304 0.00156311 0.00835248 0.00336691 0.00165060 0.00215158 0.00125713 
0.05244458 0.02359014 0.01258035 0.00163311 0.00084206 0.00167045 0.00886290 0.00246400 0.02836721 0.00155989 0.00153994 0.00830092 0.00336042 0.00164974 0.00217101 0.00125645 
0.05228276 0.02319597 0.01268842 0.00158951 0.00083218 0.00165849 0.00883901 0.00245979 0.02777517 0.00155748 0.00151947 0.00825461 0.00335344 0.00164736 0.00218931 0.00125586 
0.05211566 0.02279061 0.01278525 0.00154887 0.00082243 0.00164633 0.00880834 0.00245968 0.02717074 0.00155574 0.00150164 0.00821424 0.00334608 0.00164348 0.00220634 0.00125537 
0.05194496 0.02237500 0.01287060 0.00151131 0.00081283 0.00163398 0.00877108 0.00246375 0.02655633 0.00155459 0.00148639 0.00818044 0.00333850 0.00163814 0.00222198 0.00125497 
0.05177226 0.02195018 0.01294428 0.00147696 0.00080342 0.00162149 0.00872745 0.00247208 0.02593440 0.00155396 0.00147365 0.00815380 0.00333088 0.00163136 0.00223612 0.00125466 
0.05159897 0.02151723 0.01300620 0.00144594 0.00079424 0.00160890 0.00867767 0.00248473 0.02530744 0.00155378 0.00146334 0.00813488 0.00332341 0.00162319 0.00224865 0.00125445 
0.05142639 0.02107729 0.01305631 0.00141834 0.00078531 0.00159624 0.00862203 0.00250177 0.02467798 0.00155397 0.00145539 0.00812417 0.00331633 0.00161368 0.00225946 0.00125434 
0.05125563 0.02063156 0.01309468 0.00139425 0.00077667 0.00158356 0.00856083 0.00252326 0.02404856 0.00155447 0.00144970 0.00812211 0.00330986 0.00160288 0.00226847 0.00125431 
0.05108765 0.02018125 0.01312140 0.00137373 0.00076834 0.00157091 0.00849438 0.00254925 0.02342175 0.00155522 0.00144619 0.00812911 0.00330429 0.00159086 0.00227557 0.00125438 
0.05092325 0.01972764 0.01313665 0.00135683 0.00076034 0.00155833 0.00842304 0.00257980 0.02280006 0.00155614 0.00144475 0.00814549 0.00329989 0.00157768 0.00228070 0.00125454 
0.05076303 0.01927202 0.01314069 0.00134359 0.00075270 0.00154588 0.00834717 0.00261493 0.02218602 0.00155718 0.00144529 0.00817153 0.00329698 0.00156342 0.00228377 0.00125478 
0.05060744 0.01881574 0.01313382 0.00133402 0.00074544 0.00153361 0.00826716 0.00265469 0.02158210 0.00155828 0.00144771 0.00820745 0.00329586 0.00154816 0.00228473 0.00125512 
0.05045673 0.01836013 0.01311638 0.00132811 0.00073856 0.00152157 0.00818341 0.00269910 0.02099073 0.00155939 0.00145191 0.00825340 0.00329688 0.00153199 0.00228352 0.00125553 
0.05031100 0.01790656 0.01308878 0.00132585 0.00073209 0.00150982 0.00809634 0.00274818 0.02041425 0.00156046 0.00145777 0.00830947 0.00330037 0.00151498 0.00228010 0.00125603 
0.05017015 0.01745640 0.01305148 0.00132721 0.00072604 0.00149842 0.00800638 0.00280194 0.01985494 0.00156145 0.00146518 0.00837570 0.00330670 0.00149724 0.00227442 0.00125660 
0.05003393 0.01701101 0.01300497 0.00133212 0.00072041 0.00148743 0.00791397 0.00286039 0.01931500 0.00156232 0.00147405 0.00845204 0.00331622 0.00147888 0.00226647 0.00125725 
0.04990191 0.01657177 0.01294977 0.00134051 0.00071522 0.00147690 0.00781955 0.00292352 0.01879650 0.00156303 0.00148425 0.00853842 0.00332931 0.00145998 0.00225622 0.00125797 
0.04977351 0.01614003 0.01288644 0.00135230 0.00071045 0.00146689 0.00772357 0.00299131 0.01830140 0.00156355 0.00149568 0.00863468 0.00334632 0.00144066 0.00224368 0.00125876 
0.04964801 0.01571711 0.01281556 0.00136738 0.00070613 0.00145747 0.00762649 0.00306375 0.01783154 0.00156386 0.00150823 0.00874062 0.00336762 0.00142103 0.00222885 0.00125960 
0.04952454 0.01530433 0.01273773 0.00138563 0.00070224 0.00144869 0.00752874 0.00314081 0.01738861 0.00156392 0.00152178 0.00885599 0.00339358 0.00140121 0.00221174 0.00126051 
0.04940209 0.01490295 0.01265357 0.00140690 0.00069878 0.00144060 0.00743078 0.00322244 0.01697417 0.00156373 0.00153624 0.00898047 0.00342456 0.00138130 0.00219239 0.00126147 
0.04927955 0.01451421 0.01256369 0.00143105 0.00069575 0.00143327 0.00733303 0.00330860 0.01658960 0.00156326 0.00155148 0.00911372 0.00346090 0.00136143 0.00217084 0.00126247 
0.04915570 0.01413929 0.01246873 0.00145791 0.00069314 0.00142675 0.00723594 0.00339922 0.01623611 0.00156252 0.00156741 0.00925534 0.00350293 0.00134172 0.00214714 0.00126352 
0.04902923 0.01377934 0.01236930 0.00148729 0.00069094 0.00142110 0.00713991 0.00349425 0.01591477 0.00156150 0.00158391 0.00940489 0.00355099 0.00132228 0.00212135 0.00126461 
0.04889875 0.01343543 0.01226602 0.00151901 0.00068914 0.00141635 0.00704536 0.00359360 0.01562644 0.00156019 0.00160089 0.00956192 0.00360536 0.00130326 0.00209355 0.00126573 
0.04876281 0.01310857 0.01215950 0.00155285 0.00068772 0.00141257 0.00695266 0.00369719 0.01537180 0.00155860 0.00161825 0.00972592 0.00366634 0.00128476 0.00206383 0.00126688 
0.04861993 0.01279972 0.01205034 0.00158859 0.00068667 0.00140980 0.00686219 0.00380492 0.01515136 0.00155675 0.00163589 0.00989637 0.00373419 0.00126691 0.00203230 0.00126805 
0.04846859 0.01250974 0.01193909 0.00162602 0.00068599 0.00140808 0.00677430 0.00391668 0.01496540 0.00155463 0.00165371 0.01007275 0.00380915 0.00124984 0.00199905 0.00126924 
0.04830726 0.01223945 0.01182631 0.00166490 0.00068564 0.00140746 0.00668932 0.00403238 0.01481405 0.00155228 0.00167162 0.01025449 0.00389141 0.00123368 0.00196423 0.00127044 
0.04813442 0.01198955 0.01171252 0.00170497 0.00068561 0.00140796 0.00660756 0.00415187 0.01469723 0.00154970 0.00168953 0.01044104 0.00398118 0.00121854 0.00192796 0.00127165 
0.04794860 0.01176069 0.01159820 0.00174600 0.00068588 0.00140962 0.00652929 0.00427503 0.01461466 0.00154693 0.00170737 0.01063185 0.00407858 0.00120455 0.00189041 0.00127287 
0.04774834 0.01155342 0.01148382 0.00178773 0.00068643 0.00141248 0.00645478 0.00440172 0.01456588 0.00154398 0.00172503 0.01082635 0.00418374 0.00119182 0.00185172 0.00127407 
0.04753225 0.01136819 0.01136980 0.00182990 0.00068725 0.00141655 0.00638426 0.00453178 0.01455025 0.00154089 0.00174246 0.01102400 0.00429674 0.00118049 0.00181207 0.00127528 
0.04729904 0.01120539 0.01125653 0.00187225 0.00068830 0.00142185 0.00631792 0.00466507 0.01456692 0.00153770 0.00175957 0.01122427 0.00441763 0.00117066 0.00177166 0.00127647 
0.04704750 0.01106529 0.01114435 0.00191452 0.00068958 0.00142840 0.00625595 0.00480142 0.01461491 0.00153443 0.00177629 0.01142664 0.00454641 0.00116245 0.00173067 0.00127764 
0.04677653 0.01094809 0.01103356 0.00195646 0.00069105 0.00143621 0.00619850 0.00494065 0.01469304 0.00153113 0.00179257 0.01163064 0.00468304 0.00115596 0.00168930 0.00127879 
0.04648517 0.01085390 0.01092444 0.00199780 0.00069270 0.00144529 0.00614568 0.00508259 0.01479998 0.00152783 0.00180833 0.01183579 0.00482747 0.00115131 0.00164779 0.00127991 
0.04617259 0.01078273 0.01081721 0.00203829 0.00069451 0.00145564 0.00609759 0.00522706 0.01493424 0.00152458 0.00182353 0.01204168 0.00497958 0.00114860 0.00160634 0.00128101 
0.04583814 0.01073451 0.01071206 0.00207768 0.00069645 0.00146725 0.00605430 0.00537385 0.01509420 0.00152143 0.00183810 0.01224793 0.00513922 0.00114792 0.00156520 0.00128206 
0.04548132 0.01070907 0.01060913 0.00211574 0.00069851 0.00148011 0.00601583 0.00552277 0.01527812 0.00151842 0.00185202 0.01245419 0.00530620 0.00114937 0.00152460 0.00128308 
0.04510183 0.01070619 0.01050853 0.00215222 0.00070066 0.00149422 0.00598220 0.00567362 0.01548411 0.00151560 0.00186522 0.01266016 0.00548029 0.00115304 0.00148480 0.00128406 
0.04469954 0.01072555 0.01041031 0.00218690 0.00070288 0.00150954 0.00595339 0.00582620 0.01571022 0.00151301 0.00187768 0.01286560 0.00566122 0.00115900 0.00144605 0.00128500 
0.04427455 0.01076674 0.01031452 0.00221956 0.00070517 0.00152607 0.00592937 0.00598030 0.01595438 0.00151072 0.00188937 0.01307031 0.00584867 0.00116732 0.00140861 0.00128588 
0.04382715 0.01082930 0.01022115 0.00225000 0.00070749 0.00154376 0.00591005 0.00613569 0.01621445 0.00150876 0.00190026 0.01327414 0.00604231 0.00117809 0.00137274 0.00128672 
0.04335785 0.01091271 0.01013015 0.00227802 0.00070984 0.00156259 0.00589537 0.00629217 0.01648822 0.00150720 0.00191032 0.01347700 0.00624174 0.00119136 0.00133872 0.00128750 
0.04286740 0.01101637 0.01004146 0.00230346 0.00071220 0.00158252 0.00588519 0.00644952 0.01677345 0.00150607 0.00191955 0.01367886 0.00644655 0.00120717 0.00130680 0.00128822 
0.04235675 0.01113963 0.00995498 0.00232614 0.00071455 0.00160349 0.00587940 0.00660751 0.01706786 0.00150545 0.00192794 0.01387974 0.00665627 0.00122558 0.00127727 0.00128889 
0.04182708 0.01128179 0.00987059 0.00234592 0.00071689 0.00162548 0.00587783 0.00676594 0.01736914 0.00150537 0.00193547 0.01407971 0.00687042 0.00124663 0.00125040 0.00128950 
0.04127982 0.01144212 0.00978813 0.00236267 0.00071920 0.00164841 0.00588033 0.00692458 0.01767500 0.00150589 0.00194215 0.01427890 0.00708847 0.00127033 0.00122645 0.00129005 
0.04071658 0.01161982 0.00970744 0.00237627 0.00072146 0.00167224 0.00588669 0.00708321 0.01798315 0.00150707 0.00194798 0.01447749 0.00730989 0.00129671 0.00120568 0.00129054 
0.04013922 0.01181410 0.00962835 0.00238663 0.00072369 0.00169691 0.00589672 0.00724161 0.01829134 0.00150894 0.00195299 0.01467572 0.00753409 0.00132578 0.00118836 0.00129097 
0.03954980 0.01202412 0.00955065 0.00239368 0.00072586 0.00172235 0.00591021 0.00739958 0.01859733 0.00151157 0.00195717 0.01487386 0.00776047 0.00135752 0.00117475 0.00129134 
0.03895059 0.01224904 0.00947414 0.00239735 0.00072797 0.00174849 0.00592694 0.00755690 0.01889899 0.00151500 0.00196056 0.01507225 0.00798841 0.00139195 0.00116509 0.00129165 
0.03834407 0.01248798 0.00939861 0.00239760 0.00073002 0.00177526 0.00594665 0.00771338 0.01919422 0.00151927 0.00196318 0.01527126 0.00821728 0.00142902 0.00115963 0.00129190 
0.03773286 0.01274009 0.00932384 0.00239443 0.00073201 0.00180259 0.00596912 0.00786879 0.01948102 0.00152444 0.00196507 0.01547129 0.00844640 0.00146872 0.00115859 0.00129210 
0.03711982 0.01300451 0.00924962 0.00238782 0.00073393 0.00183040 0.00599409 0.00802296 0.01975748 0.00153055 0.00196625 0.01567278 0.00867512 0.00151099 0.00116219 0.00129223 
0.03650790 0.01328039 0.00917574 0.00237780 0.00073578 0.00185861 0.00602131 0.00817570 0.02002181 0.00153764 0.00196678 0.01587620 0.00890274 0.00155579 0.00117064 0.00129232 
0.03590024 0.01356690 0.00910199 0.00236442 0.00073757 0.00188714 0.00605052 0.00832681 0.02027232 0.00154574 0.00196668 0.01608206 0.00912859 0.00160305 0.00118413 0.00129235 
0.03530010 0.01386321 0.00902818 0.00234773 0.00073931 0.00191591 0.00608145 0.00847614 0.02050748 0.00155490 0.00196602 0.01629085 0.00935197 0.00165269 0.00120283 0.00129233 
0.03471084 0.01416856 0.00895413 0.00232781 0.00074098 0.00194483 0.00611386 0.00862352 0.02072587 0.00156515 0.00196485 0.01650310 0.00957219 0.00170464 0.00122691 0.00129226 
0.03413591 0.01448219 0.00887966 0.00230477 0.00074261 0.00197382 0.00614749 0.00876879 0.02092622 0.00157652 0.00196321 0.01671935 0.00978855 0.00175878 0.00125650 0.00129216 
0.03357884 0.01480338 0.00880463 0.00227872 0.00074420 0.00200278 0.00618208 0.00891182 0.02110742 0.00158904 0.00196117 0.01694012 0.01000038 0.00181503 0.00129172 0.00129201 
0.03304319 0.01513148 0.00872889 0.00224980 0.00074574 0.00203164 0.00621737 0.00905247 0.02126851 0.00160274 0.00195880 0.01716594 0.01020699 0.00187326 0.00133268 0.00129183 
0.03253258 0.01546585 0.00865235 0.00221816 0.00074727 0.00206031 0.00625313 0.00919062 0.02140870 0.00161762 0.00195615 0.01739731 0.01040772 0.00193335 0.00137946 0.00129162 
0.03205062 0.01580592 0.00857492 0.00218397 0.00074877 0.00208870 0.00628912 0.00932618 0.02152737 0.00163372 0.00195328 0.01763472 0.01060192 0.00199515 0.00143210 0.00129138 
0.03160088 0.01615117 0.00849652 0.00214741 0.00075027 0.00211673 0.00632511 0.00945904 0.02162404 0.00165104 0.00195028 0.01787865 0.01078896 0.00205853 0.00149064 0.00129112 
0.03118694 0.01650113 0.00841713 0.00210869 0.00075178 0.00214431 0.00636088 0.00958915 0.02169843 0.00166960 0.00194720 0.01812952 0.01096824 0.00212333 0.00155509 0.00129085 
0.03081228 0.01685540 0.00833672 0.00206802 0.00075329 0.00217136 0.00639621 0.00971642 0.02175040 0.00168939 0.00194411 0.01838772 0.01113915 0.00218939 0.00162544 0.00129057 
0.03048032 0.01721361 0.00825531 0.00202562 0.00075484 0.00219781 0.00643092 0.00984083 0.02177998 0.00171043 0.00194108 0.01865361 0.01130115 0.00225654 0.00170163 0.00129028 
0.03019434 0.01757547 0.00817295 0.00198173 0.00075642 0.00222357 0.00646481 0.00996235 0.02178738 0.00173269 0.00193818 0.01892747 0.01145371 0.00232460 0.00178359 0.00128999 
0.02995753 0.01794073 0.00808970 0.00193660 0.00075805 0.00224857 0.00649771 0.01008095 0.02177294 0.00175618 0.00193549 0.01920955 0.01159633 0.00239339 0.00187125 0.00128971 
0.02977291 0.01830921 0.00800566 0.00189047 0.00075974 0.00227274 0.00652946 0.01019666 0.02173716 0.00178089 0.00193305 0.01950002 0.01172854 0.00246271 0.00196446 0.00128944 
0.02964331 0.01868077 0.00792094 0.00184360 0.00076150 0.00229602 0.00655991 0.01030950 0.02168070 0.00180678 0.00193095 0.01979900 0.01184993 0.00253238 0.00206308 0.00128920 
0.02957141 0.01905532 0.00783569 0.00179627 0.00076335 0.00231834 0.00658893 0.01041950 0.02160433 0.00183384 0.00192923 0.02010652 0.01196010 0.00260220 0.00216693 0.00128897 
0.02955963 0.01943283 0.00775008 0.00174875 0.00076529 0.00233965 0.00661641 0.01052674 0.02150898 0.00186204 0.00192797 0.02042255 0.01205872 0.00267195 0.00227582 0.00128877 
0.02961020 0.01981328 0.00766429 0.00170129 0.00076733 0.00235989 0.00664224 0.01063129 0.02139568 0.00189135 0.00192722 0.02074698 0.01214549 0.00274145 0.00238952 0.00128861 
0.02972508 0.02019673 0.00757855 0.00165419 0.00076949 0.00237902 0.00666635 0.01073325 0.02126555 0.00192172 0.00192702 0.02107962 0.01222014 0.00281047 0.00250776 0.00128849 
0.02990596 0.02058324 0.00749307 0.00160770 0.00077176 0.00239700 0.00668865 0.01083274 0.02111986 0.00195311 0.00192744 0.02142018 0.01228246 0.00287881 0.00263027 0.00128841 
0.03015427 0.02097292 0.00740810 0.00156210 0.00077416 0.00241378 0.00670910 0.01092990 0.02095992 0.00198547 0.00192851 0.02176830 0.01233230 0.00294627 0.00275675 0.00128839 
0.03047113 0.02136587 0.00732392 0.00151766 0.00077670 0.00242935 0.00672767 0.01102487 0.02078714 0.00201875 0.00193028 0.02212353 0.01236954 0.00301264 0.00288688 0.00128841 
0.03085738 0.02176224 0.00724078 0.00147463 0.00077937 0.00244369 0.00674432 0.01111784 0.02060298 0.00205288 0.00193277 0.02248534 0.01239411 0.00307770 0.00302030 0.00128850 
0.03131352 0.02216216 0.00715897 0.00143328 0.00078219 0.00245677 0.00675907 0.01120898 0.02040896 0.00208781 0.00193603 0.02285310 0.01240599 0.00314127 0.00315665 0.00128864 
0.03183974 0.02256577 0.00707878 0.00139384 0.00078515 0.00246859 0.00677191 0.01129850 0.02020663 0.00212347 0.00194007 0.02322611 0.01240523 0.00320313 0.00329553 0.00128885 
0.03243590 0.02297321 0.00700051 0.00135655 0.00078825 0.00247916 0.00678289 0.01138663 0.01999758 0.00215977 0.00194491 0.02360358 0.01239189 0.00326310 0.00343656 0.00128912 
0.03310154 0.02338459 0.00692444 0.00132165 0.00079150 0.00248847 0.00679204 0.01147358 0.01978338 0.00219665 0.00195057 0.02398464 0.01236612 0.00332098 0.00357929 0.00128946 
0.03383585 0.02380001 0.00685087 0.00128933 0.00079490 0.00249655 0.00679942 0.01155960 0.01956564 0.00223403 0.00195705 0.02436834 0.01232809 0.00337659 0.00372331 0.00128986 
0.03463767 0.02421954 0.00678010 0.00125981 0.00079843 0.00250341 0.00680511 0.01164496 0.01934591 0.00227181 0.00196435 0.02475365 0.01227804 0.00342976 0.00386815 0.00129033 
0.03550553 0.02464320 0.00671241 0.00123327 0.00080209 0.00250910 0.00680919 0.01172990 0.01912576 0.00230992 0.00197246 0.02513948 0.01221623 0.00348032 0.00401336 0.00129087 
0.03643761 0.02507098 0.00664807 0.00120988 0.00080589 0.00251364 0.00681178 0.01181471 0.01890670 0.00234825 0.00198138 0.02552468 0.01214300 0.00352810 0.00415847 0.00129147 
0.03743177 0.02550282 0.00658734 0.00118980 0.00080980 0.00251709 0.00681298 0.01189966 0.01869017 0.00238673 0.00199107 0.02590803 0.01205871 0.00357297 0.00430302 0.00129213 
0.03848554 0.02593859 0.00653048 0.00117316 0.00081383 0.00251950 0.00681292 0.01198503 0.01847759 0.00242524 0.00200152 0.02628825 0.01196377 0.00361476 0.00444651 0.00129285 
0.03959614 0.02637812 0.00647772 0.00116008 0.00081795 0.00252094 0.00681175 0.01207110 0.01827028 0.00246370 0.00201270 0.02666404 0.01185863 0.00365337 0.00458847 0.00129361 
0.04076048 0.02682113 0.00642927 0.00115068 0.00082216 0.00252146 0.00680961 0.01215814 0.01806949 0.00250201 0.00202456 0.02703403 0.01174378 0.00368867 0.00472841 0.00129443 
0.04197518 0.02726730 0.00638532 0.00114501 0.00082644 0.00252116 0.00680668 0.01224644 0.01787638 0.00254006 0.00203706 0.02739684 0.01161974 0.00372054 0.00486586 0.00129528 
0.04323658 0.02771623 0.00634605 0.00114317 0.00083077 0.00252011 0.00680311 0.01233626 0.01769202 0.00257776 0.00205016 0.02775105 0.01148709 0.00374891 0.00500035 0.00129616 
0.04454074 0.02816743 0.00631161 0.00114517 0.00083515 0.00251841 0.00679908 0.01242785 0.01751735 0.00261500 0.00206379 0.02809523 0.01134641 0.00377369 0.00513140 0.00129706 
0.04588349 0.02862031 0.00628212 0.00115106 0.00083955 0.00251615 0.00679479 0.01252147 0.01735324 0.00265169 0.00207790 0.02842795 0.01119833 0.00379480 0.00525855 0.00129797 
0.04726042 0.02907422 0.00625767 0.00116083 0.00084395 0.00251342 0.00679043 0.01261735 0.01720040 0.00268773 0.00209242 0.02874778 0.01104348 0.00381220 0.00538137 0.00129888 
0.04866689 0.02952841 0.00623834 0.00117446 0.00084833 0.00251035 0.00678619 0.01271570 0.01705947 0.00272302 0.00210729 0.02905328 0.01088255 0.00382584 0.00549941 0.00129978 
0.05009809 0.02998204 0.00622416 0.00119193 0.00085268 0.00250704 0.00678226 0.01281670 0.01693091 0.00275746 0.00212243 0.02934305 0.01071622 0.00383570 0.00561225 0.00130065 
0.05154901 0.03043418 0.00621514 0.00121317 0.00085696 0.00250361 0.00677887 0.01292054 0.01681511 0.00279096 0.00213776 0.02961571 0.01054520 0.00384176 0.00571949 0.00130149 
0.05301452 0.03088381 0.00621128 0.00123812 0.00086116 0.00250017 0.00677620 0.01302733 0.01671230 0.00282343 0.00215321 0.02986992 0.01037020 0.00384402 0.00582075 0.00130226 
0.05448932 0.03132985 0.00621253 0.00126667 0.00086526 0.00249685 0.00677446 0.01313720 0.01662259 0.00285479 0.00216869 0.03010437 0.01019195 0.00384249 0.00591567 0.00130296 
0.05596803 0.03177112 0.00621882 0.00129872 0.00086922 0.00249377 0.00677385 0.01325021 0.01654598 0.00288495 0.00218413 0.03031782 0.01001119 0.00383721 0.00600390 0.00130357 
0.05744518 0.03220635 0.00623004 0.00133414 0.00087303 0.00249106 0.00677457 0.01336642 0.01648233 0.00291382 0.00219942 0.03050909 0.00982865 0.00382821 0.00608514 0.00130408 
0.05891523 0.03263424 0.00624607 0.00137279 0.00087667 0.00248883 0.00677682 0.01348581 0.01643139 0.00294135 0.00221450 0.03067706 0.00964506 0.00381554 0.00615910 0.00130446 
0.06037261 0.03305339 0.00626676 0.00141450 0.00088010 0.00248723 0.00678077 0.01360836 0.01639279 0.00296745 0.00222928 0.03082069 0.00946114 0.00379928 0.00622552 0.00130469 
0.06181176 0.03346236 0.00629193 0.00145910 0.00088330 0.00248636 0.00678661 0.01373397 0.01636606 0.00299206 0.00224365 0.03093902 0.00927763 0.00377951 0.00628416 0.00130476 
0.06322709 0.03385965 0.00632139 0.00150639 0.00088626 0.00248635 0.00679452 0.01386251 0.01635061 0.00301512 0.00225755 0.03103120 0.00909522 0.00375630 0.00633483 0.00130464 
0.06461308 0.03424375 0.00635491 0.00155618 0.00088895 0.00248732 0.00680464 0.01399382 0.01634577 0.00303658 0.00227088 0.03109645 0.00891461 0.00372977 0.00637735 0.00130432 
0.06596427 0.03461308 0.00639225 0.00160825 0.00089134 0.00248938 0.00681714 0.01412766 0.01635077 0.00305640 0.00228357 0.03113411 0.00873646 0.00370003 0.00641159 0.00130378 
0.06727526 0.03496607 0.00643317 0.00166238 0.00089342 0.00249265 0.00683214 0.01426377 0.01636475 0.00307452 0.00229553 0.03114361 0.00856142 0.00366720 0.00643744 0.00130299 
0.06854080 0.03530112 0.00647738 0.00171832 0.00089516 0.00249722 0.00684977 0.01440181 0.01638679 0.00309092 0.00230667 0.03112451 0.00839012 0.00363142 0.00645482 0.00130194 
0.06975574 0.03561667 0.00652461 0.00177585 0.00089654 0.00250320 0.00687013 0.01454142 0.01641591 0.00310557 0.00231694 0.03107647 0.00822315 0.00359283 0.00646370 0.00130060 
0.07091510 0.03591112 0.00657456 0.00183471 0.00089754 0.00251067 0.00689331 0.01468216 0.01645105 0.00311845 0.00232624 0.03099926 0.00806107 0.00355157 0.00646407 0.00129896 
0.07201406 0.03618295 0.00662693 0.00189464 0.00089815 0.00251972 0.00691939 0.01482356 0.01649113 0.00312953 0.00233452 0.03089279 0.00790441 0.00350782 0.00645596 0.00129700 
0.07304802 0.03643066 0.00668141 0.00195539 0.00089834 0.00253041 0.00694841 0.01496509 0.01653503 0.00313882 0.00234172 0.03075708 0.00775367 0.00346172 0.00643942 0.00129469 
0.07401258 0.03665279 0.00673771 0.00201670 0.00089811 0.00254282 0.00698041 0.01510617 0.01658160 0.00314632 0.00234776 0.03059225 0.00760928 0.00341345 0.00641456 0.00129204 
0.07490358 0.03684796 0.00679550 0.00207830 0.00089744 0.00255700 0.00701540 0.01524617 0.01662969 0.00315201 0.00235259 0.03039857 0.00747167 0.00336319 0.00638148 0.00128901 
0.07571712 0.03701486 0.00685448 0.00213993 0.00089632 0.00257299 0.00705337 0.01538443 0.01667813 0.00315593 0.00235617 0.03017642 0.00734120 0.00331111 0.00634036 0.00128559 
0.07644955 0.03715230 0.00691436 0.00220132 0.00089473 0.00259082 0.00709429 0.01552023 0.01672577 0.00315808 0.00235844 0.02992627 0.00721820 0.00325740 0.00629137 0.00128178 
0.07709754 0.03725915 0.00697485 0.00226223 0.00089268 0.00261050 0.00713810 0.01565282 0.01677149 0.00315849 0.00235937 0.02964875 0.00710294 0.00320224 0.00623474 0.00127756 
0.07765803 0.03733442 0.00703565 0.00232239 0.00089014 0.00263206 0.00718474 0.01578140 0.01681418 0.00315719 0.00235892 0.02934455 0.00699566 0.00314581 0.00617071 0.00127291 
0.07812829 0.03737724 0.00709651 0.00238156 0.00088711 0.00265548 0.00723409 0.01590515 0.01685278 0.00315421 0.00235707 0.02901450 0.00689653 0.00308831 0.00609955 0.00126785 
0.07850590 0.03738689 0.00715717 0.00243948 0.00088360 0.00268073 0.00728604 0.01602322 0.01688627 0.00314959 0.00235378 0.02865951 0.00680570 0.00302991 0.00602156 0.00126235 
0.07878879 0.03736277 0.00721740 0.00249593 0.00087960 0.00270780 0.00734045 0.01613473 0.01691369 0.00314338 0.00234905 0.02828062 0.00672324 0.00297079 0.00593707 0.00125641 
0.07897522 0.03730447 0.00727698 0.00255067 0.00087510 0.00273663 0.00739713 0.01623878 0.01693417 0.00313562 0.00234285 0.02787891 0.00664920 0.00291115 0.00584641 0.00125004 
0.07906381 0.03721171 0.00733570 0.00260349 0.00087012 0.00276717 0.00745591 0.01633446 0.01694688 0.00312637 0.00233519 0.02745559 0.00658357 0.00285116 0.00574996 0.00124323 
0.07905354 0.03708441 0.00739341 0.00265417 0.00086465 0.00279934 0.00751657 0.01642084 0.01695109 0.00311569 0.00232605 0.02701192 0.00652628 0.00279099 0.00564810 0.00123599 
0.07894374 0.03692265 0.00744995 0.00270253 0.00085870 0.00283306 0.00757888 0.01649702 0.01694616 0.00310363 0.00231545 0.02654923 0.00647724 0.00273081 0.00554124 0.00122833 
0.07873412 0.03672670 0.00750519 0.00274837 0.00085228 0.00286822 0.00764258 0.01656207 0.01693154 0.00309026 0.00230339 0.02606892 0.00643629 0.00267078 0.00542979 0.00122025 
0.07842475 0.03649702 0.00755904 0.00279152 0.00084540 0.00290472 0.00770741 0.01661507 0.01690678 0.00307564 0.00228989 0.02557245 0.00640323 0.00261107 0.00531419 0.00121177 
0.07801605 0.03623425 0.00761143 0.00283183 0.00083806 0.00294244 0.00777307 0.01665515 0.01687153 0.00305984 0.00227496 0.02506131 0.00637783 0.00255183 0.00519488 0.00120290 
0.07750884 0.03593923 0.00766230 0.00286915 0.00083029 0.00298124 0.00783926 0.01668143 0.01682554 0.00304293 0.00225864 0.02453703 0.00635980 0.00249319 0.00507231 0.00119366 
0.07690428 0.03561297 0.00771165 0.00290335 0.00082209 0.00302097 0.00790566 0.01669307 0.01676870 0.00302498 0.00224095 0.02400119 0.00634883 0.00243529 0.00494694 0.00118407 
0.07620390 0.03525670 0.00775948 0.00293431 0.00081347 0.00306149 0.00797194 0.01668928 0.01670098 0.00300605 0.00222192 0.02345538 0.00634456 0.00237827 0.00481924 0.00117415 
0.07540959 0.03487180 0.00780582 0.00296195 0.00080447 0.00310261 0.00803774 0.01666930 0.01662245 0.00298621 0.00220159 0.02290118 0.00634660 0.00232224 0.00468967 0.00116392 
0.07452357 0.03445987 0.00785073 0.00298616 0.00079510 0.00314418 0.00810271 0.01663243 0.01653334 0.00296554 0.00218001 0.02234022 0.00635452 0.00226730 0.00455870 0.00115343 
0.07354843 0.03402264 0.00789431 0.00300690 0.00078537 0.00318600 0.00816650 0.01657801 0.01643394 0.00294410 0.00215721 0.02177409 0.00636788 0.00221357 0.00442680 0.00114268 
0.07248707 0.03356205 0.00793666 0.00302409 0.00077530 0.00322790 0.00822873 0.01650549 0.01632467 0.00292197 0.00213325 0.02120438 0.00638620 0.00216112 0.00429444 0.00113173 
0.07134273 0.03308016 0.00797791 0.00303772 0.00076493 0.00326967 0.00828903 0.01641433 0.01620604 0.00289920 0.00210818 0.02063268 0.00640897 0.00211005 0.00416206 0.00112061 
0.07011896 0.03257922 0.00801823 0.00304775 0.00075427 0.00331112 0.00834703 0.01630412 0.01607868 0.00287586 0.00208205 0.02006053 0.00643568 0.00206041 0.00403013 0.00110935 
0.06881962 0.03206158 0.00805777 0.00305419 0.00074336 0.00335205 0.00840235 0.01617451 0.01594329 0.00285201 0.00205492 0.01948945 0.00646578 0.00201228 0.00389908 0.00109799 
0.06744884 0.03152974 0.00809674 0.00305704 0.00073220 0.00339225 0.00845464 0.01602523 0.01580068 0.00282773 0.00202686 0.01892094 0.00649873 0.00196569 0.00376935 0.00108658 
0.06601106 0.03098631 0.00813533 0.00305633 0.00072084 0.00343153 0.00850353 0.01585613 0.01565173 0.00280305 0.00199791 0.01835642 0.00653397 0.00192070 0.00364135 0.00107516 
0.06451096 0.03043398 0.00817378 0.00305211 0.00070930 0.00346967 0.00854867 0.01566713 0.01549739 0.00277804 0.00196816 0.01779729 0.00657094 0.00187733 0.00351550 0.00106378 
0.06295347 0.02987555 0.00821229 0.00304442 0.00069760 0.00350648 0.00858972 0.01545827 0.01533871 0.00275275 0.00193766 0.01724489 0.00660906 0.00183560 0.00339217 0.00105247 
0.06134375 0.02931387 0.00825112 0.00303334 0.00068578 0.00354175 0.00862635 0.01522970 0.01517676 0.00272723 0.00190648 0.01670049 0.00664777 0.00179553 0.00327176 0.00104130 
0.05968720 0.02875183 0.00829050 0.00301895 0.00067386 0.00357530 0.00865824 0.01498166 0.01501268 0.00270153 0.00187470 0.01616533 0.00668651 0.00175712 0.00315460 0.00103030 
0.05798939 0.02819238 0.00833068 0.00300134 0.00066187 0.00360693 0.00868510 0.01471452 0.01484765 0.00267569 0.00184238 0.01564054 0.00672472 0.00172036 0.00304105 0.00101953 
0.05625609 0.02763845 0.00837191 0.00298062 0.00064985 0.00363647 0.00870667 0.01442875 0.01468289 0.00264974 0.00180959 0.01512723 0.00676186 0.00168523 0.00293141 0.00100904 
0.05449323 0.02709300 0.00841441 0.00295691 0.00063782 0.00366374 0.00872268 0.01412495 0.01451963 0.00262374 0.00177642 0.01462640 0.00679741 0.00165173 0.00282598 0.00099887 
0.05270689 0.02655894 0.00845843 0.00293034 0.00062582 0.00368857 0.00873291 0.01380381 0.01435913 0.00259771 0.00174293 0.01413901 0.00683086 0.00161982 0.00272503 0.00098907 
0.05090326 0.02603916 0.00850419 0.00290103 0.00061386 0.00371081 0.00873716 0.01346615 0.01420263 0.00257169 0.00170920 0.01366593 0.00686171 0.00158946 0.00262883 0.00097969 
0.04908866 0.02553648 0.00855191 0.00286915 0.00060199 0.00373033 0.00873526 0.01311290 0.01405139 0.00254571 0.00167531 0.01320797 0.00688951 0.00156062 0.00253759 0.00097078 
0.04726949 0.02505363 0.00860178 0.00283485 0.00059023 0.00374698 0.00872707 0.01274510 0.01390664 0.00251979 0.00164134 0.01276585 0.00691383 0.00153325 0.00245152 0.00096239 
0.04545221 0.02459327 0.00865399 0.00279828 0.00057861 0.00376065 0.00871246 0.01236390 0.01376958 0.00249396 0.00160736 0.01234023 0.00693425 0.00150730 0.00237081 0.00095456 
0.04364334 0.02415793 0.00870870 0.00275961 0.00056716 0.00377124 0.00869137 0.01197053 0.01364139 0.00246825 0.00157345 0.01193172 0.00695042 0.00148272 0.00229561 0.00094733 
0.04184940 0.02375000 0.00876605 0.00271902 0.00055590 0.00377866 0.00866375 0.01156636 0.01352318 0.00244267 0.00153969 0.01154081 0.00696198 0.00145945 0.00222606 0.00094074 
0.04007696 0.02337174 0.00882615 0.00267669 0.00054488 0.00378285 0.00862960 0.01115282 0.01341603 0.00241725 0.00150616 0.01116796 0.00696864 0.00143742 0.00216227 0.00093484 
0.03833253 0.02302526 0.00888910 0.00263280 0.00053411 0.00378373 0.00858892 0.01073145 0.01332096 0.00239200 0.00147294 0.01081357 0.00697015 0.00141659 0.00210434 0.00092965 
0.03662262 0.02271245 0.00895497 0.00258753 0.00052363 0.00378128 0.00854179 0.01030386 0.01323889 0.00236695 0.00144012 0.01047794 0.00696629 0.00139688 0.00205233 0.00092522 
0.03495365 0.02243506 0.00902377 0.00254107 0.00051345 0.00377546 0.00848830 0.00987173 0.01317069 0.00234211 0.00140777 0.01016135 0.00695687 0.00137824 0.00200628 0.00092156 
0.03333200 0.02219459 0.00909552 0.00249360 0.00050360 0.00376628 0.00842859 0.00943683 0.01311714 0.00231749 0.00137598 0.00986399 0.00694178 0.00136060 0.00196622 0.00091871 
0.03176390 0.02199238 0.00917018 0.00244532 0.00049412 0.00375374 0.00836282 0.00900097 0.01307893 0.00229313 0.00134483 0.00958601 0.00692091 0.00134390 0.00193215 0.00091670 
0.03025551 0.02182949 0.00924769 0.00239641 0.00048502 0.00373788 0.00829121 0.00856602 0.01305663 0.00226902 0.00131440 0.00932752 0.00689424 0.00132808 0.00190404 0.00091553 
0.02881282 0.02170681 0.00932796 0.00234705 0.00047632 0.00371873 0.00821398 0.00813387 0.01305073 0.00224520 0.00128478 0.00908855 0.00686176 0.00131309 0.00188187 0.00091523 
0.02744165 0.02162494 0.00941085 0.00229743 0.00046806 0.00369636 0.00813142 0.00770647 0.01306163 0.00222167 0.00125604 0.00886911 0.00682354 0.00129887 0.00186558 0.00091582 
0.02614765 0.02158426 0.00949620 0.00224773 0.00046024 0.00367085 0.00804382 0.00728578 0.01308958 0.00219847 0.00122828 0.00866917 0.00677966 0.00128536 0.00185508 0.00091728 
0.02493626 0.02158492 0.00958382 0.00219813 0.00045290 0.00364228 0.00795154 0.00687376 0.01313476 0.00217560 0.00120157 0.00848866 0.00673027 0.00127253 0.00185030 0.00091964 
0.02381271 0.02162681 0.00967347 0.00214880 0.00044605 0.00361078 0.00785493 0.00647239 0.01319719 0.00215310 0.00117600 0.00832745 0.00667556 0.00126033 0.00185111 0.00092289 
0.02278194 0.02170956 0.00976489 0.00209991 0.00043970 0.00357646 0.00775440 0.00608361 0.01327682 0.00213098 0.00115166 0.00818542 0.00661577 0.00124872 0.00185741 0.00092702 
0.02184867 0.02183257 0.00985779 0.00205163 0.00043388 0.00353946 0.00765036 0.00570936 0.01337346 0.00210926 0.00112862 0.00806239 0.00655118 0.00123766 0.00186906 0.00093203 
0.02101732 0.02199501 0.00995184 0.00200410 0.00042860 0.00349994 0.00754328 0.00535155 0.01348681 0.00208798 0.00110696 0.00795818 0.00648209 0.00122714 0.00188590 0.00093790 
0.02029199 0.02219578 0.01004671 0.00195749 0.00042388 0.00345805 0.00743361 0.00501203 0.01361646 0.00206717 0.00108678 0.00787257 0.00640888 0.00121714 0.00190778 0.00094461 
0.01967647 0.02243359 0.01014200 0.00191193 0.00041973 0.00341397 0.00732184 0.00469260 0.01376188 0.00204685 0.00106814 0.00780533 0.00633195 0.00120762 0.00193454 0.00095215 
0.01917420 0.02270689 0.01023734 0.00186757 0.00041616 0.00336788 0.00720849 0.00439499 0.01392245 0.00202705 0.00105114 0.00775621 0.00625172 0.00119860 0.00196599 0.00096049 
0.01878829 0.02301394 0.01033228 0.00182453 0.00041318 0.00331999 0.00709407 0.00412087 0.01409743 0.00200781 0.00103584 0.00772494 0.00616866 0.00119006 0.00200195 0.00096960 
0.01852144 0.02335280 0.01042641 0.00178295 0.00041080 0.00327048 0.00697911 0.00387181 0.01428598 0.00198917 0.00102232 0.00771127 0.00608328 0.00118201 0.00204223 0.00097944 
0.01837598 0.02372134 0.01051927 0.00174292 0.00040904 0.00321957 0.00686416 0.00364927 0.01448718 0.00197115 0.00101067 0.00771489 0.00599611 0.00117445 0.00208663 0.00098999 
0.01835383 0.02411723 0.01061039 0.00170458 0.00040789 0.00316746 0.00674976 0.00345462 0.01470000 0.00195380 0.00100093 0.00773553 0.00590770 0.00116741 0.00213496 0.00100119 
0.01845649 0.02453802 0.01069930 0.00166800 0.00040736 0.00311439 0.00663645 0.00328911 0.01492334 0.00193717 0.00099320 0.00777289 0.00581863 0.00116091 0.00218700 0.00101301 
0.01868504 0.02498108 0.01078553 0.00163329 0.00040747 0.00306056 0.00652479 0.00315386 0.01515604 0.00192128 0.00098752 0.00782666 0.00572948 0.00115497 0.00224256 0.00102540 
0.01904012 0.02544368 0.01086860 0.00160052 0.00040820 0.00300619 0.00641532 0.00304988 0.01539683 0.00190618 0.00098397 0.00789654 0.00564088 0.00114963 0.00230141 0.00103831 
0.01952190 0.02592297 0.01094803 0.00156977 0.00040956 0.00295152 0.00630856 0.00297800 0.01564441 0.00189191 0.00098260 0.00798221 0.00555345 0.00114494 0.00236337 0.00105170 
0.02013011 0.02641600 0.01102335 0.00154111 0.00041155 0.00289675 0.00620504 0.00293894 0.01589742 0.00187853 0.00098346 0.00808337 0.00546782 0.00114092 0.00242822 0.00106550 
0.02086401 0.02691976 0.01109412 0.00151459 0.00041417 0.00284210 0.00610528 0.00293325 0.01615447 0.00186606 0.00098660 0.00819970 0.00538462 0.00113764 0.00249576 0.00107966 
0.02172239 0.02743119 0.01115987 0.00149027 0.00041741 0.00278780 0.00600976 0.00296132 0.01641409 0.00185456 0.00099207 0.00833087 0.00530449 0.00113514 0.00256578 0.00109413 
0.02270357 0.02794717 0.01122018 0.00146819 0.00042128 0.00273404 0.00591896 0.00302339 0.01667483 0.00184406 0.00099990 0.00847657 0.00522807 0.00113349 0.00263808 0.00110885 
0.02380538 0.02846460 0.01127466 0.00144837 0.00042576 0.00268103 0.00583333 0.00311953 0.01693521 0.00183461 0.00101013 0.00863647 0.00515597 0.00113275 0.00271248 0.00112376 
0.02502519 0.02898038 0.01132291 0.00143085 0.00043084 0.00262897 0.00575329 0.00324965 0.01719372 0.00182626 0.00102277 0.00881024 0.00508882 0.00113297 0.00278878 0.00113881 
0.02635990 0.02949141 0.01136459 0.00141564 0.00043652 0.00257805 0.00567924 0.00341347 0.01744888 0.00181903 0.00103786 0.00899756 0.00502720 0.00113423 0.00286679 0.00115392 
0.02780592 0.02999466 0.01139938 0.00140276 0.00044279 0.00252843 0.00561154 0.00361056 0.01769919 0.00181298 0.00105538 0.00919807 0.00497171 0.00113660 0.00294633 0.00116905 
0.02935922 0.03048715 0.01142701 0.00139220 0.00044963 0.00248030 0.00555052 0.00384033 0.01794320 0.00180812 0.00107536 0.00941144 0.00492288 0.00114013 0.00302724 0.00118414 
0.03101530 0.03096601 0.01144721 0.00138397 0.00045703 0.00243381 0.00549648 0.00410199 0.01817946 0.00180451 0.00109778 0.00963732 0.00488126 0.00114491 0.00310933 0.00119913 
0.03276922 0.03142842 0.01145981 0.00137805 0.00046497 0.00238910 0.00544968 0.00439462 0.01840657 0.00180216 0.00112264 0.00987535 0.00484734 0.00115100 0.00319246 0.00121396 
0.03461562 0.03187173 0.01146463 0.00137442 0.00047344 0.00234631 0.00541034 0.00471713 0.01862317 0.00180111 0.00114990 0.01012516 0.00482159 0.00115847 0.00327645 0.00122858 
0.03654870 0.03229338 0.01146158 0.00137307 0.00048242 0.00230556 0.00537863 0.00506826 0.01882796 0.00180139 0.00117954 0.01038639 0.00480442 0.00116738 0.00336117 0.00124293 
0.03856228 0.03269098 0.01145060 0.00137396 0.00049189 0.00226696 0.00535470 0.00544661 0.01901968 0.00180300 0.00121151 0.01065864 0.00479623 0.00117781 0.00344647 0.00125696 
0.04064980 0.03306229 0.01143167 0.00137706 0.00050183 0.00223061 0.00533864 0.00585063 0.01919717 0.00180597 0.00124577 0.01094152 0.00479735 0.00118981 0.00353221 0.00127062 
0.04280431 0.03340524 0.01140486 0.00138233 0.00051221 0.00219658 0.00533049 0.00627864 0.01935933 0.00181032 0.00128226 0.01123462 0.00480809 0.00120345 0.00361828 0.00128387 
0.04501856 0.03371796 0.01137025 0.00138972 0.00052302 0.00216495 0.00533027 0.00672883 0.01950511 0.00181604 0.00132091 0.01153753 0.00482868 0.00121877 0.00370453 0.00129666 
0.04728496 0.03399876 0.01132802 0.00139919 0.00053422 0.00213576 0.00533793 0.00719925 0.01963360 0.00182314 0.00136164 0.01184982 0.00485932 0.00123584 0.00379086 0.00130896 
0.04959567 0.03424613 0.01127836 0.00141068 0.00054580 0.00210905 0.00535340 0.00768786 0.01974396 0.00183162 0.00140435 0.01217104 0.00490015 0.00125468 0.00387716 0.00132071 
0.05194255 0.03445881 0.01122155 0.00142412 0.00055772 0.00208486 0.00537655 0.00819251 0.01983542 0.00184147 0.00144896 0.01250075 0.00495126 0.00127536 0.00396331 0.00133189 
0.05431728 0.03463573 0.01115792 0.00143947 0.00056996 0.00206318 0.00540720 0.00871097 0.01990736 0.00185268 0.00149536 0.01283846 0.00501268 0.00129789 0.00404923 0.00134246 
0.05671132 0.03477602 0.01108784 0.00145664 0.00058248 0.00204403 0.00544515 0.00924091 0.01995924 0.00186523 0.00154343 0.01318371 0.00508438 0.00132231 0.00413481 0.00135240 
0.05911597 0.03487904 0.01101175 0.00147558 0.00059526 0.00202739 0.00549014 0.00977995 0.01999063 0.00187910 0.00159305 0.01353601 0.00516628 0.00134863 0.00421997 0.00136167 
0.06152244 0.03494439 0.01093014 0.00149621 0.00060827 0.00201322 0.00554187 0.01032565 0.02000121 0.00189425 0.00164407 0.01389484 0.00525823 0.00137687 0.00430461 0.00137027 
0.06392182 0.03497185 0.01084354 0.00151845 0.00062148 0.00200149 0.00560002 0.01087553 0.01999078 0.00191066 0.00169637 0.01425970 0.00536003 0.00140704 0.00438866 0.00137816 
0.06630516 0.03496144 0.01075254 0.00154224 0.00063484 0.00199215 0.00566422 0.01142709 0.01995925 0.00192828 0.00174979 0.01463006 0.00547142 0.00143912 0.00447203 0.00138534 
0.06866353 0.03491337 0.01065776 0.00156748 0.00064834 0.00198514 0.00573407 0.01197780 0.01990666 0.00194706 0.00180418 0.01500540 0.00559209 0.00147311 0.00455465 0.00139179 
0.07098800 0.03482807 0.01055989 0.00159410 0.00066194 0.00198038 0.00580912 0.01252514 0.01983313 0.00196696 0.00185936 0.01538517 0.00572166 0.00150898 0.00463644 0.00139752 
0.07326972 0.03470615 0.01045963 0.00162201 0.00067560 0.00197779 0.00588891 0.01306660 0.01973895 0.00198792 0.00191518 0.01576883 0.00585970 0.00154671 0.00471733 0.00140250 
0.07549997 0.03454843 0.01035774 0.00165113 0.00068929 0.00197727 0.00597296 0.01359970 0.01962447 0.00200987 0.00197145 0.01615584 0.00600574 0.00158625 0.00479725 0.00140675 
0.07767015 0.03435590 0.01025498 0.00168138 0.00070298 0.00197874 0.00606075 0.01412200 0.01949018 0.00203275 0.00202801 0.01654565 0.00615924 0.00162756 0.00487612 0.00141026 
0.07977187 0.03412971 0.01015217 0.00171267 0.00071664 0.00198209 0.00615174 0.01463110 0.01933668 0.00205649 0.00208465 0.01693770 0.00631962 0.00167057 0.00495387 0.00141305 
0.08179699 0.03387119 0.01005014 0.00174491 0.00073023 0.00198720 0.00624538 0.01512468 0.01916469 0.00208101 0.00214121 0.01733145 0.00648626 0.00171523 0.00503044 0.00141512 
0.08373763 0.03358180 0.00994972 0.00177802 0.00074372 0.00199395 0.00634111 0.01560051 0.01897499 0.00210624 0.00219748 0.01772636 0.00665850 0.00176145 0.00510574 0.00141648 
0.08558620 0.03326314 0.00985177 0.00181190 0.00075707 0.00200222 0.00643834 0.01605643 0.01876852 0.00213208 0.00225328 0.01812189 0.00683562 0.00180914 0.00517972 0.00141716 
0.08733549 0.03291693 0.00975716 0.00184647 0.00077026 0.00201189 0.00653649 0.01649041 0.01854627 0.00215846 0.00230842 0.01851752 0.00701689 0.00185822 0.00525229 0.00141716 
0.08897866 0.03254499 0.00966675 0.00188165 0.00078326 0.00202283 0.00663497 0.01690050 0.01830935 0.00218527 0.00236271 0.01891273 0.00720154 0.00190857 0.00532338 0.00141652 
0.09050930 0.03214925 0.00958139 0.00191734 0.00079603 0.00203490 0.00673319 0.01728493 0.01805894 0.00221243 0.00241596 0.01930702 0.00738877 0.00196009 0.00539291 0.00141525 
0.09192143 0.03173169 0.00950194 0.00195345 0.00080854 0.00204797 0.00683057 0.01764201 0.01779632 0.00223985 0.00246797 0.01969990 0.00757775 0.00201265 0.00546081 0.00141338 
0.09320960 0.03129438 0.00942923 0.00198991 0.00082077 0.00206192 0.00692653 0.01797024 0.01752283 0.00226741 0.00251858 0.02009092 0.00776765 0.00206613 0.00552699 0.00141094 
0.09436881 0.03083942 0.00936406 0.00202663 0.00083270 0.00207660 0.00702049 0.01826825 0.01723990 0.00229504 0.00256759 0.02047963 0.00795762 0.00212040 0.00559138 0.00140796 
0.09539466 0.03036896 0.00930722 0.00206352 0.00084429 0.00209189 0.00711191 0.01853484 0.01694901 0.00232261 0.00261483 0.02086560 0.00814680 0.00217530 0.00565389 0.00140447 
0.09628328 0.02988516 0.00925945 0.00210050 0.00085552 0.00210766 0.00720025 0.01876900 0.01665169 0.00235004 0.00266013 0.02124844 0.00833432 0.00223068 0.00571444 0.00140050 
0.09703139 0.02939018 0.00922148 0.00213748 0.00086636 0.00212377 0.00728499 0.01896985 0.01634954 0.00237723 0.00270334 0.02162778 0.00851933 0.00228641 0.00577293 0.00139609 
0.09763631 0.02888617 0.00919395 0.00217439 0.00087681 0.00214012 0.00736564 0.01913674 0.01604420 0.00240406 0.00274429 0.02200329 0.00870097 0.00234230 0.00582929 0.00139128 
0.09809600 0.02837529 0.00917748 0.00221114 0.00088684 0.00215658 0.00744172 0.01926918 0.01573734 0.00243045 0.00278284 0.02237466 0.00887840 0.00239821 0.00588341 0.00138609 
0.09840903 0.02785963 0.00917264 0.00224765 0.00089642 0.00217303 0.00751281 0.01936686 0.01543067 0.00245630 0.00281886 0.02274160 0.00905079 0.00245395 0.00593522 0.00138057 
0.09857462 0.02734124 0.00917991 0.00228385 0.00090556 0.00218936 0.00757850 0.01942967 0.01512592 0.00248150 0.00285220 0.02310389 0.00921735 0.00250937 0.00598462 0.00137475 
0.09859263 0.02682214 0.00919975 0.00231967 0.00091422 0.00220548 0.00763841 0.01945769 0.01482482 0.00250596 0.00288277 0.02346131 0.00937729 0.00256428 0.00603153 0.00136868 
0.09846357 0.02630424 0.00923251 0.00235502 0.00092241 0.00222128 0.00769222 0.01945119 0.01452914 0.00252960 0.00291045 0.02381369 0.00952988 0.00261850 0.00607584 0.00136239 
0.09818860 0.02578942 0.00927849 0.00238983 0.00093011 0.00223668 0.00773961 0.01941060 0.01424062 0.00255232 0.00293515 0.02416090 0.00967441 0.00267187 0.00611747 0.00135592 
0.09776952 0.02527943 0.00933792 0.00242403 0.00093732 0.00225157 0.00778035 0.01933658 0.01396102 0.00257403 0.00295678 0.02450283 0.00981020 0.00272420 0.00615633 0.00134930 
0.09720878 0.02477597 0.00941092 0.00245756 0.00094402 0.00226590 0.00781422 0.01922994 0.01369208 0.00259466 0.00297529 0.02483942 0.00993663 0.00277532 0.00619234 0.00134258 
0.09650943 0.02428062 0.00949757 0.00249034 0.00095022 0.00227959 0.00784103 0.01909167 0.01343549 0.00261413 0.00299060 0.02517064 0.01005313 0.00282506 0.00622541 0.00133579 
0.09567515 0.02379484 0.00959784 0.00252230 0.00095591 0.00229257 0.00786068 0.01892292 0.01319296 0.00263236 0.00300269 0.02549649 0.01015919 0.00287323 0.00625546 0.00132897 
0.09471019 0.02332002 0.00971162 0.00255338 0.00096110 0.00230478 0.00787306 0.01872503 0.01296613 0.00264930 0.00301151 0.02581702 0.01025431 0.00291968 0.00628242 0.00132216 
0.09361939 0.02285740 0.00983873 0.00258352 0.00096578 0.00231619 0.00787816 0.01849947 0.01275661 0.00266486 0.00301706 0.02613227 0.01033811 0.00296424 0.00630620 0.00131538 
0.09240814 0.02240813 0.00997888 0.00261265 0.00096997 0.00232674 0.00787596 0.01824786 0.01256596 0.00267901 0.00301934 0.02644236 0.01041022 0.00300674 0.00632674 0.00130868 
0.09108232 0.02197324 0.01013171 0.00264072 0.00097367 0.00233641 0.00786654 0.01797197 0.01239570 0.00269169 0.00301834 0.02674740 0.01047037 0.00304704 0.00634399 0.00130209 
0.08964833 0.02155363 0.01029679 0.00266767 0.00097689 0.00234517 0.00784998 0.01767369 0.01224726 0.00270285 0.00301411 0.02704755 0.01051832 0.00308498 0.00635787 0.00129563 
0.08811302 0.02115009 0.01047356 0.00269343 0.00097964 0.00235299 0.00782643 0.01735501 0.01212203 0.00271245 0.00300668 0.02734298 0.01055392 0.00312043 0.00636835 0.00128934 
0.08648364 0.02076331 0.01066143 0.00271795 0.00098193 0.00235987 0.00779608 0.01701804 0.01202130 0.00272047 0.00299610 0.02763387 0.01057707 0.00315326 0.00637537 0.00128325 
0.08476786 0.02039385 0.01085970 0.00274119 0.00098378 0.00236580 0.00775915 0.01666497 0.01194631 0.00272688 0.00298244 0.02792044 0.01058776 0.00318334 0.00637892 0.00127739 
0.08297367 0.02004217 0.01106759 0.00276309 0.00098519 0.00237079 0.00771591 0.01629809 0.01189820 0.00273166 0.00296578 0.02820289 0.01058601 0.00321055 0.00637895 0.00127177 
0.08110938 0.01970861 0.01128427 0.00278359 0.00098620 0.00237484 0.00766668 0.01591974 0.01187800 0.00273481 0.00294620 0.02848145 0.01057195 0.00323480 0.00637545 0.00126644 
0.07918355 0.01939342 0.01150883 0.00280266 0.00098680 0.00237796 0.00761179 0.01553229 0.01188668 0.00273630 0.00292381 0.02875637 0.01054574 0.00325599 0.00636843 0.00126140 
0.07720497 0.01909676 0.01174027 0.00282025 0.00098704 0.00238018 0.00755164 0.01513820 0.01192510 0.00273616 0.00289873 0.02902786 0.01050761 0.00327405 0.00635787 0.00125668 
0.07518260 0.01881868 0.01197757 0.00283631 0.00098692 0.00238152 0.00748664 0.01473991 0.01199400 0.00273439 0.00287106 0.02929615 0.01045787 0.00328890 0.00634379 0.00125230 
0.07312553 0.01855915 0.01221963 0.00285081 0.00098646 0.00238202 0.00741724 0.01433988 0.01209402 0.00273100 0.00284096 0.02956147 0.01039688 0.00330049 0.00632622 0.00124827 
0.07104294 0.01831807 0.01246530 0.00286370 0.00098569 0.00238171 0.00734393 0.01394058 0.01222570 0.00272602 0.00280856 0.02982402 0.01032505 0.00330878 0.00630519 0.00124462 
0.06894402 0.01809527 0.01271340 0.00287495 0.00098464 0.00238063 0.00726719 0.01354445 0.01238946 0.00271949 0.00277401 0.03008399 0.01024285 0.00331373 0.00628074 0.00124136 
0.06683799 0.01789049 0.01296270 0.00288453 0.00098331 0.00237882 0.00718758 0.01315391 0.01258558 0.00271143 0.00273747 0.03034155 0.01015081 0.00331533 0.00625295 0.00123850 
0.06473398 0.01770345 0.01321195 0.00289241 0.00098174 0.00237635 0.00710562 0.01277132 0.01281424 0.00270189 0.00269911 0.03059685 0.01004949 0.00331359 0.00622187 0.00123605 
0.06264104 0.01753377 0.01345986 0.00289855 0.00097996 0.00237324 0.00702191 0.01239899 0.01307550 0.00269092 0.00265910 0.03084999 0.00993951 0.00330850 0.00618759 0.00123401 
0.06056807 0.01738106 0.01370515 0.00290294 0.00097797 0.00236957 0.00693701 0.01203917 0.01336929 0.00267859 0.00261762 0.03110106 0.00982153 0.00330011 0.00615020 0.00123240 
0.05852378 0.01724490 0.01394650 0.00290556 0.00097581 0.00236539 0.00685153 0.01169401 0.01369540 0.00266494 0.00257484 0.03135011 0.00969624 0.00328845 0.00610981 0.00123122 
0.05651664 0.01712481 0.01418262 0.00290638 0.00097350 0.00236076 0.00676609 0.01136558 0.01405350 0.00265005 0.00253095 0.03159713 0.00956436 0.00327357 0.00606653 0.00123047 
0.05455488 0.01702030 0.01441220 0.00290540 0.00097106 0.00235574 0.00668128 0.01105583 0.01444315 0.00263399 0.00248615 0.03184208 0.00942663 0.00325555 0.00602049 0.00123016 
0.05264639 0.01693087 0.01463396 0.00290259 0.00096852 0.00235040 0.00659774 0.01076660 0.01486376 0.00261684 0.00244061 0.03208487 0.00928383 0.00323448 0.00597184 0.00123028 
0.05079871 0.01685600 0.01484663 0.00289797 0.00096588 0.00234479 0.00651608 0.01049962 0.01531461 0.00259868 0.00239452 0.03232536 0.00913675 0.00321044 0.00592072 0.00123082 
0.04901902 0.01679517 0.01504898 0.00289152 0.00096319 0.00233899 0.00643692 0.01025648 0.01579487 0.00257959 0.00234809 0.03256334 0.00898618 0.00318356 0.00586729 0.00123179 
0.04731408 0.01674786 0.01523981 0.00288325 0.00096044 0.00233306 0.00636088 0.01003860 0.01630358 0.00255967 0.00230148 0.03279858 0.00883293 0.00315395 0.00581173 0.00123317 
0.04569020 0.01671355 0.01541797 0.00287316 0.00095766 0.00232707 0.00628856 0.00984729 0.01683964 0.00253902 0.00225489 0.03303075 0.00867781 0.00312176 0.00575422 0.00123497 
0.04415322 0.01669173 0.01558235 0.00286127 0.00095488 0.00232107 0.00622056 0.00968369 0.01740185 0.00251772 0.00220851 0.03325949 0.00852162 0.00308714 0.00569494 0.00123715 
0.04270848 0.01668193 0.01573192 0.00284759 0.00095209 0.00231515 0.00615747 0.00954878 0.01798889 0.00249588 0.00216251 0.03348438 0.00836515 0.00305025 0.00563410 0.00123972 
0.04136082 0.01668367 0.01586567 0.00283214 0.00094933 0.00230935 0.00609985 0.00944338 0.01859929 0.00247359 0.00211706 0.03370493 0.00820920 0.00301126 0.00557190 0.00124266 
0.04011451 0.01669649 0.01598272 0.00281496 0.00094659 0.00230375 0.00604825 0.00936812 0.01923153 0.00245097 0.00207235 0.03392058 0.00805453 0.00297035 0.00550857 0.00124594 
0.03897330 0.01671998 0.01608223 0.00279607 0.00094390 0.00229840 0.00600322 0.00932351 0.01988392 0.00242811 0.00202852 0.03413074 0.00790188 0.00292773 0.00544431 0.00124955 
0.03794036 0.01675372 0.01616344 0.00277552 0.00094126 0.00229337 0.00596525 0.00930983 0.02055472 0.00240512 0.00198574 0.03433474 0.00775197 0.00288359 0.00537936 0.00125348 
0.03701828 0.01679735 0.01622569 0.00275334 0.00093868 0.00228871 0.00593483 0.00932724 0.02124205 0.00238210 0.00194416 0.03453187 0.00760550 0.00283815 0.00531395 0.00125769 
0.03620907 0.01685053 0.01626842 0.00272958 0.00093616 0.00228448 0.00591243 0.00937570 0.02194398 0.00235916 0.00190393 0.03472135 0.00746312 0.00279162 0.00524832 0.00126215 
0.03551417 0.01691293 0.01629115 0.00270430 0.00093372 0.00228074 0.00589848 0.00945502 0.02265847 0.00233640 0.00186517 0.03490236 0.00732544 0.00274422 0.00518270 0.00126686 
0.03493441 0.01698427 0.01629351 0.00267757 0.00093136 0.00227753 0.00589337 0.00956483 0.02338341 0.00231393 0.00182801 0.03507404 0.00719305 0.00269619 0.00511734 0.00127176 
0.03447005 0.01706429 0.01627522 0.00264944 0.00092907 0.00227491 0.00589750 0.00970460 0.02411662 0.00229184 0.00179258 0.03523547 0.00706649 0.00264776 0.00505247 0.00127684 
0.03412076 0.01715276 0.01623612 0.00261999 0.00092687 0.00227293 0.00591119 0.00987365 0.02485586 0.00227023 0.00175897 0.03538571 0.00694624 0.00259917 0.00498836 0.00128206 
0.03388565 0.01724946 0.01617615 0.00258929 0.00092474 0.00227162 0.00593475 0.01007114 0.02559884 0.00224919 0.00172728 0.03552378 0.00683276 0.00255065 0.00492523 0.00128739 
0.03376326 0.01735422 0.01609536 0.00255743 0.00092270 0.00227102 0.00596847 0.01029611 0.02634322 0.00222883 0.00169761 0.03564867 0.00672644 0.00250245 0.00486333 0.00129279 
0.03375160 0.01746687 0.01599390 0.00252449 0.00092072 0.00227119 0.00601257 0.01054741 0.02708662 0.00220923 0.00167002 0.03575935 0.00662762 0.00245480 0.00480291 0.00129822 
0.03384812 0.01758725 0.01587205 0.00249057 0.00091882 0.00227215 0.00606728 0.01082382 0.02782665 0.00219047 0.00164460 0.03585478 0.00653660 0.00240794 0.00474418 0.00130365 
0.03404978 0.01771526 0.01573019 0.00245577 0.00091698 0.00227393 0.00613274 0.01112394 0.02856088 0.00217264 0.00162138 0.03593392 0.00645364 0.00236211 0.00468740 0.00130903 
0.03435304 0.01785075 0.01556879 0.00242018 0.00091520 0.00227657 0.00620911 0.01144629 0.02928690 0.00215581 0.00160042 0.03599570 0.00637891 0.00231754 0.00463277 0.00131433 
0.03475390 0.01799364 0.01538844 0.00238392 0.00091347 0.00228009 0.00629647 0.01178929 0.03000229 0.00214005 0.00158176 0.03603910 0.00631257 0.00227445 0.00458053 0.00131950 
0.03524791 0.01814381 0.01518984 0.00234708 0.00091177 0.00228451 0.00639488 0.01215123 0.03070463 0.00212543 0.00156541 0.03606309 0.00625470 0.00223308 0.00453088 0.00132451 
0.03583021 0.01830116 0.01497379 0.00230980 0.00091012 0.00228986 0.00650436 0.01253035 0.03139154 0.00211201 0.00155140 0.03606665 0.00620536 0.00219362 0.00448402 0.00132930 
0.03649553 0.01846559 0.01474117 0.00227217 0.00090848 0.00229615 0.00662490 0.01292480 0.03206068 0.00209985 0.00153972 0.03604883 0.00616452 0.00215630 0.00444015 0.00133384 
0.03723828 0.01863699 0.01449297 0.00223432 0.00090686 0.00230339 0.00675645 0.01333266 0.03270974 0.00208898 0.00153037 0.03600868 0.00613214 0.00212130 0.00439945 0.00133807 
0.03805250 0.01881525 0.01423026 0.00219636 0.00090524 0.00231160 0.00689892 0.01375197 0.03333648 0.00207946 0.00152333 0.03594532 0.00610813 0.00208881 0.00436209 0.00134197 
0.03893196 0.01900024 0.01395420 0.00215843 0.00090361 0.00232079 0.00705218 0.01418073 0.03393869 0.00207132 0.00151858 0.03585793 0.00609234 0.00205901 0.00432822 0.00134548 
0.03987017 0.01919182 0.01366602 0.00212063 0.00090196 0.00233095 0.00721608 0.01461689 0.03451429 0.00206459 0.00151609 0.03574574 0.00608458 0.00203207 0.00429800 0.00134856 
0.04086041 0.01938984 0.01336703 0.00208310 0.00090027 0.00234209 0.00739042 0.01505840 0.03506123 0.00205929 0.00151581 0.03560805 0.00608466 0.00200813 0.00427154 0.00135116 
0.04189576 0.01959410 0.01305861 0.00204594 0.00089855 0.00235421 0.00757498 0.01550318 0.03557760 0.00205544 0.00151770 0.03544424 0.00609230 0.00198733 0.00424897 0.00135326 
0.04296914 0.01980441 0.01274219 0.00200929 0.00089677 0.00236730 0.00776948 0.01594918 0.03606156 0.00205304 0.00152168 0.03525381 0.00610724 0.00196980 0.00423039 0.00135480 
0.04407337 0.02002055 0.01241926 0.00197325 0.00089493 0.00238137 0.00797365 0.01639434 0.03651139 0.00205209 0.00152770 0.03503629 0.00612915 0.00195565 0.00421587 0.00135575 
0.04520115 0.02024225 0.01209134 0.00193795 0.00089302 0.00239639 0.00818714 0.01683663 0.03692551 0.00205260 0.00153569 0.03479138 0.00615771 0.00194495 0.00420548 0.00135607 
0.04634515 0.02046925 0.01176003 0.00190350 0.00089102 0.00241235 0.00840960 0.01727405 0.03730244 0.00205455 0.00154556 0.03451883 0.00619254 0.00193780 0.00419927 0.00135573 
0.04749803 0.02070123 0.01142690 0.00186999 0.00088894 0.00242924 0.00864065 0.01770465 0.03764086 0.00205792 0.00155722 0.03421853 0.00623329 0.00193426 0.00419727 0.00135469 
0.04865244 0.02093786 0.01109360 0.00183754 0.00088675 0.00244705 0.00887987 0.01812652 0.03793957 0.00206269 0.00157060 0.03389047 0.00627955 0.00193435 0.00419949 0.00135293 
0.04980112 0.02117877 0.01076176 0.00180624 0.00088446 0.00246574 0.00912681 0.01853782 0.03819754 0.00206882 0.00158559 0.03353480 0.00633092 0.00193811 0.00420591 0.00135042 
0.05093685 0.02142356 0.01043303 0.00177619 0.00088205 0.00248531 0.00938100 0.01893677 0.03841388 0.00207628 0.00160209 0.03315174 0.00638700 0.00194554 0.00421652 0.00134713 
0.05205257 0.02167182 0.01010905 0.00174746 0.00087953 0.00250571 0.00964194 0.01932167 0.03858786 0.00208502 0.00162000 0.03274167 0.00644738 0.00195664 0.00423126 0.00134304 
0.05314133 0.02192310 0.00979148 0.00172014 0.00087689 0.00252693 0.00990912 0.01969090 0.03871892 0.00209499 0.00163922 0.03230510 0.00651164 0.00197137 0.00425007 0.00133814 
0.05419640 0.02217692 0.00948192 0.00169430 0.00087412 0.00254893 0.01018198 0.02004294 0.03880666 0.00210615 0.00165964 0.03184267 0.00657937 0.00198968 0.00427286 0.00133241 
0.05521122 0.02243280 0.00918199 0.00166999 0.00087122 0.00257168 0.01045997 0.02037636 0.03885085 0.00211842 0.00168114 0.03135514 0.00665016 0.00201151 0.00429952 0.00132584 
0.05617948 0.02269022 0.00889323 0.00164728 0.00086819 0.00259515 0.01074249 0.02068981 0.03885143 0.00213174 0.00170362 0.03084342 0.00672362 0.00203677 0.00432992 0.00131843 
0.05709515 0.02294865 0.00861719 0.00162620 0.00086503 0.00261929 0.01102894 0.02098208 0.03880850 0.00214604 0.00172697 0.03030854 0.00679937 0.00206537 0.00436393 0.00131019 
0.05795245 0.02320755 0.00835532 0.00160680 0.00086175 0.00264407 0.01131870 0.02125205 0.03872236 0.00216125 0.00175107 0.02975167 0.00687704 0.00209719 0.00440138 0.00130110 
0.05874594 0.02346637 0.00810907 0.00158909 0.00085833 0.00266944 0.01161112 0.02149870 0.03859344 0.00217729 0.00177582 0.02917410 0.00695626 0.00213209 0.00444209 0.00129118 
0.05947050 0.02372456 0.00787978 0.00157310 0.00085480 0.00269537 0.01190556 0.02172114 0.03842238 0.00219407 0.00180109 0.02857725 0.00703670 0.00216992 0.00448586 0.00128045 
0.06012136 0.02398155 0.00766876 0.00155884 0.00085115 0.00272179 0.01220134 0.02191861 0.03820996 0.00221152 0.00182679 0.02796265 0.00711805 0.00221052 0.00453246 0.00126892 
0.06069412 0.02423680 0.00747721 0.00154629 0.00084738 0.00274867 0.01249778 0.02209044 0.03795712 0.00222954 0.00185281 0.02733197 0.00720001 0.00225370 0.00458168 0.00125662 
0.06118477 0.02448976 0.00730627 0.00153545 0.00084351 0.00277596 0.01279421 0.02223609 0.03766497 0.00224804 0.00187904 0.02668696 0.00728230 0.00229927 0.00463325 0.00124356 
0.06158969 0.02473990 0.00715699 0.00152629 0.00083954 0.00280360 0.01308992 0.02235514 0.03733478 0.00226694 0.00190539 0.02602950 0.00736469 0.00234703 0.00468693 0.00122979 
0.06190569 0.02498673 0.00703033 0.00151879 0.00083547 0.00283153 0.01338421 0.02244728 0.03696795 0.00228613 0.00193174 0.02536156 0.00744694 0.00239675 0.00474242 0.00121535 
0.06212998 0.02522974 0.00692715 0.00151290 0.00083132 0.00285971 0.01367638 0.02251233 0.03656604 0.00230553 0.00195802 0.02468519 0.00752886 0.00244821 0.00479944 0.00120027 
0.06226023 0.02546849 0.00684819 0.00150858 0.00082710 0.00288806 0.01396573 0.02255023 0.03613072 0.00232503 0.00198412 0.02400253 0.00761026 0.00250116 0.00485770 0.00118460 
0.06229454 0.02570255 0.00679412 0.00150576 0.00082282 0.00291654 0.01425153 0.02256100 0.03566382 0.00234455 0.00200997 0.02331581 0.00769101 0.00255536 0.00491688 0.00116839 
0.06223143 0.02593156 0.00676547 0.00150439 0.00081849 0.00294507 0.01453310 0.02254480 0.03516727 0.00236399 0.00203547 0.02262728 0.00777098 0.00261054 0.00497666 0.00115169 
0.06206991 0.02615516 0.00676267 0.00150439 0.00081411 0.00297360 0.01480973 0.02250188 0.03464310 0.00238325 0.00206056 0.02193930 0.00785005 0.00266645 0.00503672 0.00113457 
0.06180942 0.02637308 0.00678604 0.00150568 0.00080971 0.00300206 0.01508072 0.02243262 0.03409346 0.00240225 0.00208516 0.02125422 0.00792817 0.00272282 0.00509672 0.00111709 
0.06144984 0.02658508 0.00683576 0.00150819 0.00080529 0.00303038 0.01534540 0.02233746 0.03352059 0.00242089 0.00210921 0.02057446 0.00800526 0.00277938 0.00515633 0.00109932 
0.06099154 0.02679100 0.00691193 0.00151182 0.00080086 0.00305850 0.01560309 0.02221698 0.03292679 0.00243908 0.00213263 0.01990245 0.00808129 0.00283585 0.00521521 0.00108131 
0.06043529 0.02699072 0.00701448 0.00151649 0.00079645 0.00308634 0.01585314 0.02207181 0.03231445 0.00245674 0.00215539 0.01924063 0.00815625 0.00289195 0.00527303 0.00106315 
0.05978234 0.02718421 0.00714326 0.00152209 0.00079205 0.00311383 0.01609488 0.02190268 0.03168601 0.00247377 0.00217743 0.01859143 0.00823014 0.00294743 0.00532944 0.00104491 
0.05903435 0.02737149 0.00729800 0.00152853 0.00078768 0.00314090 0.01632772 0.02171042 0.03104396 0.00249011 0.00219870 0.01795729 0.00830297 0.00300199 0.00538410 0.00102666 
0.05819341 0.02755266 0.00747827 0.00153573 0.00078336 0.00316748 0.01655103 0.02149591 0.03039083 0.00250568 0.00221916 0.01734061 0.00837477 0.00305538 0.00543669 0.00100849 
0.05726205 0.02772790 0.00768356 0.00154357 0.00077910 0.00319349 0.01676425 0.02126011 0.02972915 0.00252039 0.00223879 0.01674375 0.00844559 0.00310733 0.00548687 0.00099046 
0.05624320 0.02789746 0.00791324 0.00155196 0.00077490 0.00321886 0.01696681 0.02100406 0.02906150 0.00253419 0.00225756 0.01616904 0.00851547 0.00315757 0.00553434 0.00097267 
0.05514016 0.02806167 0.00816655 0.00156082 0.00077079 0.00324351 0.01715818 0.02072882 0.02839043 0.00254701 0.00227544 0.01561873 0.00858449 0.00320587 0.00557877 0.00095518 
0.05395665 0.02822093 0.00844262 0.00157005 0.00076676 0.00326738 0.01733789 0.02043554 0.02771849 0.00255878 0.00229242 0.01509501 0.00865269 0.00325197 0.00561987 0.00093808 
0.05269674 0.02837575 0.00874050 0.00157957 0.00076283 0.00329037 0.01750545 0.02012540 0.02704821 0.00256946 0.00230849 0.01460000 0.00872017 0.00329565 0.00565736 0.00092144 
0.05136485 0.02852668 0.00905909 0.00158930 0.00075901 0.00331243 0.01766044 0.01979964 0.02638208 0.00257900 0.00232364 0.01413571 0.00878699 0.00333667 0.00569096 0.00090535 
0.04996575 0.02867437 0.00939723 0.00159916 0.00075531 0.00333347 0.01780247 0.01945950 0.02572254 0.00258734 0.00233788 0.01370405 0.00885322 0.00337485 0.00572042 0.00088988 
0.04850450 0.02881954 0.00975365 0.00160909 0.00075173 0.00335342 0.01793119 0.01910629 0.02507198 0.00259446 0.00235121 0.01330681 0.00891893 0.00340997 0.00574550 0.00087510 
0.04698650 0.02896298 0.01012700 0.00161905 0.00074829 0.00337221 0.01804629 0.01874132 0.02443271 0.00260031 0.00236364 0.01294567 0.00898421 0.00344185 0.00576598 0.00086108 
0.04541739 0.02910555 0.01051582 0.00162897 0.00074498 0.00338977 0.01814750 0.01836593 0.02380698 0.00260488 0.00237518 0.01262217 0.00904911 0.00347033 0.00578167 0.00084789 
0.04380309 0.02924818 0.01091861 0.00163882 0.00074182 0.00340603 0.01823459 0.01798146 0.02319693 0.00260814 0.00238586 0.01233772 0.00911370 0.00349526 0.00579239 0.00083560 
0.04214975 0.02939187 0.01133378 0.00164858 0.00073881 0.00342091 0.01830738 0.01758927 0.02260461 0.00261008 0.00239570 0.01209355 0.00917802 0.00351651 0.00579798 0.00082426 
0.04046374 0.02953767 0.01175968 0.00165824 0.00073595 0.00343437 0.01836575 0.01719072 0.02203197 0.00261069 0.00240472 0.01189077 0.00924214 0.00353396 0.00579833 0.00081394 
0.03875161 0.02968666 0.01219460 0.00166779 0.00073325 0.00344633 0.01840961 0.01678718 0.02148082 0.00260997 0.00241295 0.01173030 0.00930609 0.00354751 0.00579332 0.00080467 
0.03702009 0.02984001 0.01263681 0.00167724 0.00073071 0.00345674 0.01843893 0.01637999 0.02095286 0.00260791 0.00242044 0.01161289 0.00936990 0.00355709 0.00578289 0.00079652 
0.03527604 0.02999888 0.01308450 0.00168662 0.00072832 0.00346554 0.01845372 0.01597049 0.02044967 0.00260454 0.00242721 0.01153914 0.00943359 0.00356263 0.00576699 0.00078951 
0.03352646 0.03016450 0.01353587 0.00169597 0.00072609 0.00347267 0.01845404 0.01556000 0.01997266 0.00259987 0.00243330 0.01150945 0.00949719 0.00356410 0.00574560 0.00078370 
0.03177842 0.03033811 0.01398906 0.00170534 0.00072402 0.00347810 0.01844001 0.01514983 0.01952311 0.00259392 0.00243876 0.01152404 0.00956070 0.00356147 0.00571873 0.00077910 
0.03003906 0.03052095 0.01444222 0.00171478 0.00072211 0.00348178 0.01841180 0.01474126 0.01910216 0.00258671 0.00244363 0.01158293 0.00962412 0.00355474 0.00568642 0.00077574 
0.02831557 0.03071430 0.01489351 0.00172439 0.00072035 0.00348366 0.01836961 0.01433554 0.01871078 0.00257828 0.00244795 0.01168599 0.00968745 0.00354395 0.00564875 0.00077364 
0.02661517 0.03091940 0.01534105 0.00173425 0.00071875 0.00348372 0.01831371 0.01393388 0.01834977 0.00256868 0.00245176 0.01183287 0.00975067 0.00352911 0.00560582 0.00077282 
0.02494502 0.03113751 0.01578302 0.00174446 0.00071729 0.00348193 0.01824440 0.01353747 0.01801979 0.00255793 0.00245512 0.01202304 0.00981377 0.00351030 0.00555775 0.00077327 
0.02331230 0.03136984 0.01621760 0.00175514 0.00071598 0.00347827 0.01816205 0.01314745 0.01772132 0.00254610 0.00245807 0.01225578 0.00987672 0.00348758 0.00550473 0.00077500 
0.02172407 0.03161759 0.01664300 0.00176641 0.00071480 0.00347271 0.01806706 0.01276492 0.01745469 0.00253324 0.00246065 0.01253020 0.00993951 0.00346106 0.00544693 0.00077801 
0.02018734 0.03188192 0.01705749 0.00177842 0.00071377 0.00346525 0.01795986 0.01239094 0.01722004 0.00251940 0.00246291 0.01284520 0.01000212 0.00343085 0.00538458 0.00078227 
0.01870897 0.03216392 0.01745935 0.00179130 0.00071286 0.00345590 0.01784094 0.01202651 0.01701735 0.00250466 0.00246490 0.01319954 0.01006451 0.00339707 0.00531794 0.00078778 
0.01729570 0.03246462 0.01784697 0.00180522 0.00071207 0.00344464 0.01771084 0.01167261 0.01684645 0.00248907 0.00246666 0.01359176 0.01012668 0.00335989 0.00524729 0.00079450 
0.01595407 0.03278500 0.01821876 0.00182034 0.00071141 0.00343149 0.01757009 0.01133013 0.01670700 0.00247271 0.00246823 0.01402027 0.01018861 0.00331946 0.00517294 0.00080242 
0.01469044 0.03312594 0.01857323 0.00183682 0.00071086 0.00341646 0.01741931 0.01099993 0.01659848 0.00245565 0.00246965 0.01448331 0.01025030 0.00327596 0.00509523 0.00081148 
0.01351095 0.03348823 0.01890896 0.00185484 0.00071041 0.00339959 0.01725912 0.01068281 0.01652024 0.00243798 0.00247096 0.01497896 0.01031174 0.00322959 0.00501452 0.00082166 
0.01242146 0.03387255 0.01922463 0.00187458 0.00071006 0.00338091 0.01709017 0.01037949 0.01647146 0.00241977 0.00247219 0.01550515 0.01037296 0.00318054 0.00493120 0.00083290 
0.01142759 0.03427949 0.01951901 0.00189621 0.00070981 0.00336045 0.01691313 0.01009068 0.01645119 0.00240110 0.00247339 0.01605969 0.01043396 0.00312905 0.00484569 0.00084515 
0.01053463 0.03470950 0.01979095 0.00191991 0.00070965 0.00333825 0.01672871 0.00981698 0.01645832 0.00238206 0.00247458 0.01664026 0.01049479 0.00307533 0.00475840 0.00085837 
0.00974758 0.03516291 0.02003943 0.00194586 0.00070957 0.00331438 0.01653763 0.00955894 0.01649163 0.00236274 0.00247578 0.01724441 0.01055551 0.00301963 0.00466981 0.00087249 
0.00907105 0.03563991 0.02026355 0.00197423 0.00070956 0.00328890 0.01634061 0.00931708 0.01654975 0.00234322 0.00247703 0.01786961 0.01061618 0.00296220 0.00458037 0.00088744 
0.00850933 0.03614055 0.02046250 0.00200519 0.00070963 0.00326187 0.01613839 0.00909182 0.01663121 0.00232360 0.00247833 0.01851323 0.01067689 0.00290328 0.00449057 0.00090317 
0.00806628 0.03666472 0.02063560 0.00203890 0.00070977 0.00323337 0.01593173 0.00888352 0.01673442 0.00230396 0.00247972 0.01917256 0.01073774 0.00284313 0.00440091 0.00091959 
0.00774538 0.03721216 0.02078230 0.00207551 0.00070998 0.00320348 0.01572138 0.00869249 0.01685771 0.00228440 0.00248120 0.01984482 0.01079886 0.00278203 0.00431190 0.00093665 
0.00754967 0.03778244 0.02090216 0.00211516 0.00071025 0.00317229 0.01550808 0.00851897 0.01699931 0.00226500 0.00248277 0.02052719 0.01086039 0.00272023 0.00422405 0.00095427 
0.00748176 0.03837498 0.02099489 0.00215799 0.00071057 0.00313990 0.01529259 0.00836314 0.01715736 0.00224585 0.00248445 0.02121681 0.01092249 0.00265801 0.00413790 0.00097237 
0.00754377 0.03898900 0.02106030 0.00220410 0.00071096 0.00310640 0.01507564 0.00822510 0.01732997 0.00222704 0.00248624 0.02191079 0.01098536 0.00259564 0.00405397 0.00099088 
0.00773737 0.03962357 0.02109836 0.00225359 0.00071140 0.00307190 0.01485795 0.00810491 0.01751515 0.00220866 0.00248813 0.02260624 0.01104918 0.00253337 0.00397279 0.00100972 
0.00806375 0.04027758 0.02110913 0.00230655 0.00071190 0.00303652 0.01464025 0.00800254 0.01771091 0.00219079 0.00249012 0.02330027 0.01111418 0.00247148 0.00389489 0.00102881 
0.00852358 0.04094974 0.02109283 0.00236304 0.00071245 0.00300037 0.01442321 0.00791791 0.01791521 0.00217351 0.00249219 0.02399002 0.01118059 0.00241024 0.00382077 0.00104808 
0.00911703 0.04163859 0.02104978 0.00242309 0.00071306 0.00296357 0.01420752 0.00785089 0.01812598 0.00215691 0.00249432 0.02467266 0.01124868 0.00234988 0.00375097 0.00106744 
0.00984376 0.04234250 0.02098045 0.00248673 0.00071373 0.00292625 0.01399381 0.00780126 0.01834118 0.00214105 0.00249651 0.02534541 0.01131871 0.00229068 0.00368598 0.00108683 
0.01070290 0.04305966 0.02088540 0.00255396 0.00071447 0.00288853 0.01378271 0.00776878 0.01855874 0.00212603 0.00249873 0.02600555 0.01139095 0.00223287 0.00362630 0.00110617 
0.01169308 0.04378810 0.02076531 0.00262475 0.00071527 0.00285055 0.01357481 0.00775311 0.01877664 0.00211190 0.00250094 0.02665046 0.01146570 0.00217669 0.00357238 0.00112539 
0.01281237 0.04452569 0.02062098 0.00269904 0.00071614 0.00281244 0.01337065 0.00775388 0.01899287 0.00209874 0.00250313 0.02727759 0.01154324 0.00212236 0.00352470 0.00114442 
0.01405833 0.04527015 0.02045331 0.00277676 0.00071708 0.00277433 0.01317076 0.00777066 0.01920547 0.00208660 0.00250526 0.02788450 0.01162388 0.00207009 0.00348368 0.00116319 
0.01542801 0.04601904 0.02026329 0.00285781 0.00071811 0.00273636 0.01297562 0.00780296 0.01941256 0.00207555 0.00250729 0.02846888 0.01170792 0.00202011 0.00344973 0.00118163 
0.01691793 0.04676982 0.02005202 0.00294204 0.00071922 0.00269866 0.01278567 0.00785026 0.01961229 0.00206564 0.00250919 0.02902852 0.01179566 0.00197258 0.00342323 0.00119969 
0.01852409 0.04751977 0.01982066 0.00302931 0.00072043 0.00266137 0.01260132 0.00791195 0.01980293 0.00205692 0.00251091 0.02956139 0.01188737 0.00192771 0.00340452 0.00121730 
0.02024201 0.04826611 0.01957047 0.00311943 0.00072175 0.00262462 0.01242292 0.00798743 0.01998279 0.00204944 0.00251242 0.03006558 0.01198335 0.00188564 0.00339393 0.00123442 
0.02206670 0.04900593 0.01930276 0.00321219 0.00072317 0.00258855 0.01225080 0.00807602 0.02015034 0.00204323 0.00251367 0.03053935 0.01208384 0.00184654 0.00339174 0.00125099 
0.02399272 0.04973622 0.01901891 0.00330735 0.00072471 0.00255328 0.01208523 0.00817700 0.02030411 0.00203832 0.00251461 0.03098113 0.01218911 0.00181053 0.00339819 0.00126696 
0.02601414 0.05045393 0.01872035 0.00340464 0.00072639 0.00251893 0.01192644 0.00828964 0.02044277 0.00203476 0.00251521 0.03138953 0.01229936 0.00177774 0.00341349 0.00128230 
0.02812461 0.05115593 0.01840855 0.00350379 0.00072820 0.00248564 0.01177462 0.00841314 0.02056513 0.00203256 0.00251541 0.03176333 0.01241480 0.00174827 0.00343781 0.00129696 
0.03031736 0.05183905 0.01808503 0.00360448 0.00073016 0.00245352 0.01162991 0.00854671 0.02067011 0.00203173 0.00251516 0.03210149 0.01253558 0.00172222 0.00347127 0.00131091 
0.03258521 0.05250013 0.01775130 0.00370637 0.00073229 0.00242269 0.01149242 0.00868950 0.02075679 0.00203229 0.00251443 0.03240319 0.01266184 0.00169965 0.00351396 0.00132412 
0.03492062 0.05313595 0.01740892 0.00380912 0.00073458 0.00239324 0.01136220 0.00884065 0.02082439 0.00203425 0.00251316 0.03266777 0.01279365 0.00168063 0.00356590 0.00133657 
0.03731570 0.05374336 0.01705943 0.00391234 0.00073705 0.00236529 0.01123926 0.00899930 0.02087227 0.00203761 0.00251131 0.03289478 0.01293106 0.00166518 0.00362708 0.00134824 
0.03976224 0.05431920 0.01670438 0.00401564 0.00073971 0.00233893 0.01112359 0.00916456 0.02089996 0.00204236 0.00250884 0.03308397 0.01307407 0.00165335 0.00369745 0.00135910 
0.04225175 0.05486040 0.01634530 0.00411862 0.00074257 0.00231425 0.01101512 0.00933551 0.02090714 0.00204848 0.00250571 0.03323527 0.01322262 0.00164512 0.00377691 0.00136916 
0.04477548 0.05536395 0.01598371 0.00422086 0.00074563 0.00229132 0.01091375 0.00951125 0.02089367 0.00205597 0.00250187 0.03334881 0.01337660 0.00164049 0.00386529 0.00137840 
0.04732447 0.05582693 0.01562108 0.00432192 0.00074892 0.00227022 0.01081933 0.00969089 0.02085954 0.00206479 0.00249729 0.03342490 0.01353586 0.00163944 0.00396240 0.00138683 
0.04988956 0.05624654 0.01525885 0.00442136 0.00075243 0.00225101 0.01073171 0.00987350 0.02080491 0.00207493 0.00249194 0.03346404 0.01370015 0.00164193 0.00406800 0.00139443 
0.05246146 0.05662013 0.01489842 0.00451874 0.00075617 0.00223376 0.01065067 0.01005820 0.02073012 0.00208634 0.00248578 0.03346691 0.01386920 0.00164790 0.00418179 0.00140123 
0.05503076 0.05694518 0.01454112 0.00461359 0.00076016 0.00221850 0.01057598 0.01024410 0.02063563 0.00209899 0.00247879 0.03343435 0.01404267 0.00165727 0.00430343 0.00140722 
0.05758798 0.05721937 0.01418822 0.00470547 0.00076439 0.00220527 0.01050738 0.01043033 0.02052209 0.00211283 0.00247094 0.03336737 0.01422013 0.00166997 0.00443254 0.00141243 
0.06012362 0.05744057 0.01384093 0.00479393 0.00076887 0.00219410 0.01044459 0.01061603 0.02039026 0.00212781 0.00246221 0.03326713 0.01440112 0.00168590 0.00456868 0.00141687 
0.06262818 0.05760685 0.01350038 0.00487852 0.00077361 0.00218500 0.01038730 0.01080039 0.02024107 0.00214388 0.00245258 0.03313493 0.01458510 0.00170494 0.00471140 0.00142055 
0.06509221 0.05771654 0.01316761 0.00495880 0.00077861 0.00217800 0.01033518 0.01098260 0.02007558 0.00216098 0.00244205 0.03297223 0.01477146 0.00172697 0.00486019 0.00142351 
0.06750634 0.05776819 0.01284359 0.00503434 0.00078386 0.00217307 0.01028789 0.01116190 0.01989497 0.00217905 0.00243060 0.03278057 0.01495955 0.00175185 0.00501449 0.00142577 
0.06986137 0.05776063 0.01252919 0.00510472 0.00078938 0.00217022 0.01024507 0.01133756 0.01970056 0.00219802 0.00241823 0.03256162 0.01514864 0.00177944 0.00517373 0.00142736 
0.07214822 0.05769297 0.01222517 0.00516954 0.00079515 0.00216942 0.01020636 0.01150889 0.01949375 0.00221782 0.00240495 0.03231717 0.01533795 0.00180959 0.00533729 0.00142830 
0.07435807 0.05756461 0.01193223 0.00522843 0.00080118 0.00217064 0.01017138 0.01167526 0.01927606 0.00223838 0.00239075 0.03204905 0.01552664 0.00184212 0.00550454 0.00142864 
0.07648234 0.05737525 0.01165095 0.00528101 0.00080746 0.00217384 0.01013974 0.01183605 0.01904911 0.00225961 0.00237566 0.03175920 0.01571383 0.00187686 0.00567480 0.00142841 
0.07851271 0.05712491 0.01138181 0.00532694 0.00081398 0.00217897 0.01011107 0.01199073 0.01881459 0.00228144 0.00235969 0.03144958 0.01589859 0.00191364 0.00584738 0.00142763 
0.08044124 0.05681393 0.01112518 0.00536593 0.00082074 0.00218598 0.01008498 0.01213880 0.01857425 0.00230378 0.00234286 0.03112224 0.01607994 0.00195227 0.00602157 0.00142636 
