0.01786909 0.03835773 0.00602948 0.00226223 0.00099951 0.00189071 0.00667947 0.00435010 0.01166074 0.00163923 0.00175987 0.08061564 0.00852487 0.00679698 0.01409535 0.00149710 
0.01824566 0.03994115 0.00619697 0.00233066 0.00099536 0.00191097 0.00684283 0.00442651 0.01208955 0.00166373 0.00178777 0.08111178 0.00859289 0.00689219 0.01407717 0.00147808 
0.01862953 0.04156177 0.00639419 0.00240164 0.00099487 0.00193030 0.00701036 0.00450071 0.01253518 0.00168906 0.00181634 0.08162865 0.00865872 0.00698436 0.01404951 0.00145917 
0.01901914 0.04321298 0.00662115 0.00247496 0.00099802 0.00194868 0.00718169 0.00457242 0.01299669 0.00171521 0.00184552 0.08216199 0.00872207 0.00707332 0.01401274 0.00144047 
0.01941303 0.04488806 0.00687770 0.00255043 0.00100476 0.00196608 0.00735640 0.00464138 0.01347310 0.00174217 0.00187523 0.08270721 0.00878263 0.00715891 0.01396726 0.00142207 
0.01980978 0.04658027 0.00716350 0.00262779 0.00101501 0.00198249 0.00753409 0.00470733 0.01396337 0.00176995 0.00190542 0.08325954 0.00884015 0.00724100 0.01391346 0.00140403 
0.02020808 0.04828287 0.00747808 0.00270680 0.00102871 0.00199790 0.00771434 0.00477003 0.01446641 0.00179850 0.00193601 0.08381396 0.00889436 0.00731948 0.01385175 0.00138645 
0.02060664 0.04998916 0.00782076 0.00278719 0.00104573 0.00201231 0.00789672 0.00482927 0.01498108 0.00182781 0.00196694 0.08436529 0.00894501 0.00739424 0.01378253 0.00136939 
0.02100429 0.05169252 0.00819072 0.00286868 0.00106596 0.00202571 0.00808080 0.00488485 0.01550619 0.00185784 0.00199815 0.08490818 0.00899190 0.00746522 0.01370622 0.00135292 
0.02139989 0.05338646 0.00858695 0.00295098 0.00108926 0.00203813 0.00826613 0.00493659 0.01604051 0.00188855 0.00202958 0.08543719 0.00903481 0.00753235 0.01362322 0.00133711 
0.02179237 0.05506463 0.00900831 0.00303378 0.00111548 0.00204956 0.00845228 0.00498432 0.01658276 0.00191989 0.00206117 0.08594680 0.00907358 0.00759558 0.01353396 0.00132202 
0.02218070 0.05672087 0.00945345 0.00311676 0.00114445 0.00206003 0.00863878 0.00502791 0.01713165 0.00195179 0.00209287 0.08643145 0.00910804 0.00765490 0.01343883 0.00130769 
0.02256391 0.05834927 0.00992090 0.00319960 0.00117597 0.00206956 0.00882520 0.00506724 0.01768583 0.00198420 0.00212463 0.08688559 0.00913806 0.00771031 0.01333823 0.00129418 
0.02294107 0.05994414 0.01040902 0.00328197 0.00120987 0.00207818 0.00901107 0.00510221 0.01824394 0.00201704 0.00215638 0.08730369 0.00916355 0.00776183 0.01323255 0.00128153 
0.02331128 0.06150009 0.01091605 0.00336353 0.00124593 0.00208593 0.00919595 0.00513276 0.01880458 0.00205022 0.00218808 0.08768032 0.00918442 0.00780948 0.01312218 0.00126977 
0.02367368 0.06301205 0.01144006 0.00344393 0.00128392 0.00209282 0.00937937 0.00515883 0.01936634 0.00208367 0.00221969 0.08801016 0.00920063 0.00785335 0.01300749 0.00125894 
0.02402743 0.06447526 0.01197901 0.00352285 0.00132364 0.00209891 0.00956089 0.00518040 0.01992780 0.00211728 0.00225115 0.08828805 0.00921214 0.00789349 0.01288882 0.00124906 
0.02437171 0.06588533 0.01253074 0.00359993 0.00136482 0.00210423 0.00974004 0.00519746 0.02048751 0.00215096 0.00228242 0.08850902 0.00921897 0.00793000 0.01276653 0.00124015 
0.02470568 0.06723824 0.01309299 0.00367483 0.00140725 0.00210883 0.00991639 0.00521002 0.02104405 0.00218460 0.00231346 0.08866833 0.00922115 0.00796301 0.01264093 0.00123222 
0.02502856 0.06853036 0.01366339 0.00374722 0.00145066 0.00211276 0.01008947 0.00521814 0.02159596 0.00221807 0.00234422 0.08876154 0.00921874 0.00799265 0.01251236 0.00122529 
0.02533954 0.06975847 0.01423948 0.00381677 0.00149482 0.00211606 0.01025884 0.00522188 0.02214182 0.00225127 0.00237466 0.08878449 0.00921183 0.00801906 0.01238110 0.00121934 
0.02563779 0.07091974 0.01481875 0.00388315 0.00153945 0.00211878 0.01042406 0.00522131 0.02268020 0.00228407 0.00240474 0.08873338 0.00920054 0.00804242 0.01224744 0.00121439 
0.02592251 0.07201177 0.01539861 0.00394605 0.00158431 0.00212097 0.01058468 0.00521654 0.02320969 0.00231634 0.00243441 0.08860477 0.00918501 0.00806290 0.01211166 0.00121041 
0.02619286 0.07303257 0.01597644 0.00400517 0.00162915 0.00212269 0.01074026 0.00520770 0.02372891 0.00234795 0.00246364 0.08839564 0.00916542 0.00808072 0.01197400 0.00120741 
0.02644800 0.07398059 0.01654958 0.00406021 0.00167370 0.00212398 0.01089038 0.00519494 0.02423649 0.00237876 0.00249239 0.08810340 0.00914197 0.00809608 0.01183472 0.00120535 
0.02668707 0.07485469 0.01711536 0.00411090 0.00171773 0.00212490 0.01103459 0.00517841 0.02473110 0.00240865 0.00252062 0.08772593 0.00911487 0.00810920 0.01169404 0.00120422 
0.02690919 0.07565412 0.01767110 0.00415698 0.00176098 0.00212550 0.01117249 0.00515830 0.02521147 0.00243747 0.00254828 0.08726160 0.00908438 0.00812034 0.01155218 0.00120398 
0.02711348 0.07637856 0.01821414 0.00419822 0.00180322 0.00212582 0.01130364 0.00513480 0.02567634 0.00246508 0.00257534 0.08670928 0.00905077 0.00812973 0.01140936 0.00120461 
0.02729902 0.07702808 0.01874184 0.00423438 0.00184422 0.00212593 0.01142763 0.00510814 0.02612450 0.00249136 0.00260176 0.08606837 0.00901433 0.00813763 0.01126576 0.00120607 
0.02746490 0.07760313 0.01925161 0.00426527 0.00188374 0.00212588 0.01154406 0.00507852 0.02655483 0.00251616 0.00262750 0.08533882 0.00897536 0.00814431 0.01112159 0.00120833 
0.02761019 0.07810450 0.01974092 0.00429070 0.00192158 0.00212570 0.01165252 0.00504620 0.02696622 0.00253936 0.00265251 0.08452115 0.00893420 0.00815004 0.01097703 0.00121133 
0.02773395 0.07853336 0.02020732 0.00431052 0.00195753 0.00212544 0.01175263 0.00501142 0.02735765 0.00256083 0.00267675 0.08361641 0.00889119 0.00815511 0.01083226 0.00121504 
0.02783525 0.07889119 0.02064842 0.00432461 0.00199140 0.00212516 0.01184400 0.00497445 0.02772816 0.00258045 0.00270018 0.08262627 0.00884667 0.00815978 0.01068746 0.00121940 
0.02791317 0.07917977 0.02106195 0.00433284 0.00202300 0.00212489 0.01192625 0.00493555 0.02807687 0.00259810 0.00272277 0.08155295 0.00880103 0.00816435 0.01054280 0.00122438 
0.02796678 0.07940117 0.02144576 0.00433515 0.00205219 0.00212467 0.01199903 0.00489500 0.02840295 0.00261368 0.00274447 0.08039923 0.00875463 0.00816909 0.01039846 0.00122991 
0.02799521 0.07955770 0.02179781 0.00433147 0.00207879 0.00212455 0.01206198 0.00485308 0.02870568 0.00262707 0.00276523 0.07916850 0.00870787 0.00817429 0.01025462 0.00123594 
0.02799758 0.07965193 0.02211621 0.00432178 0.00210268 0.00212457 0.01211476 0.00481008 0.02898441 0.00263819 0.00278501 0.07786469 0.00866111 0.00818023 0.01011147 0.00124242 
0.02797308 0.07968660 0.02239921 0.00430608 0.00212373 0.00212475 0.01215706 0.00476628 0.02923855 0.00264695 0.00280377 0.07649229 0.00861476 0.00818717 0.00996920 0.00124929 
0.02792093 0.07966464 0.02264524 0.00428440 0.00214184 0.00212513 0.01218857 0.00472198 0.02946764 0.00265329 0.00282147 0.07505631 0.00856919 0.00819538 0.00982798 0.00125650 
0.02784044 0.07958913 0.02285288 0.00425678 0.00215693 0.00212574 0.01220899 0.00467746 0.02967128 0.00265712 0.00283807 0.07356231 0.00852480 0.00820513 0.00968805 0.00126400 
0.02773097 0.07946327 0.02302091 0.00422333 0.00216892 0.00212660 0.01221807 0.00463301 0.02984917 0.00265842 0.00285352 0.07201631 0.00848196 0.00821666 0.00954959 0.00127172 
0.02759196 0.07929033 0.02314826 0.00418414 0.00217777 0.00212775 0.01221556 0.00458891 0.03000109 0.00265713 0.00286778 0.07042482 0.00844103 0.00823019 0.00941285 0.00127962 
0.02742297 0.07907368 0.02323409 0.00413935 0.00218342 0.00212921 0.01220124 0.00454543 0.03012693 0.00265323 0.00288082 0.06879480 0.00840238 0.00824597 0.00927805 0.00128763 
0.02722367 0.07881669 0.02327775 0.00408914 0.00218588 0.00213099 0.01217492 0.00450286 0.03022668 0.00264671 0.00289260 0.06713361 0.00836635 0.00826418 0.00914545 0.00129571 
0.02699382 0.07852276 0.02327878 0.00403369 0.00218514 0.00213311 0.01213642 0.00446145 0.03030039 0.00263757 0.00290308 0.06544897 0.00833326 0.00828503 0.00901530 0.00130380 
0.02673336 0.07819525 0.02323693 0.00397321 0.00218121 0.00213560 0.01208562 0.00442144 0.03034823 0.00262582 0.00291223 0.06374897 0.00830343 0.00830868 0.00888789 0.00131186 
0.02644235 0.07783750 0.02315217 0.00390795 0.00217414 0.00213846 0.01202241 0.00438310 0.03037046 0.00261151 0.00292001 0.06204196 0.00827715 0.00833529 0.00876351 0.00131983 
0.02612101 0.07745276 0.02302467 0.00383817 0.00216398 0.00214171 0.01194673 0.00434664 0.03036742 0.00259466 0.00292640 0.06033658 0.00825469 0.00836498 0.00864245 0.00132767 
0.02576973 0.07704420 0.02285479 0.00376416 0.00215079 0.00214535 0.01185856 0.00431227 0.03033954 0.00257535 0.00293138 0.05864165 0.00823628 0.00839786 0.00852506 0.00133534 
0.02538910 0.07661488 0.02264312 0.00368622 0.00213467 0.00214940 0.01175790 0.00428021 0.03028733 0.00255365 0.00293492 0.05696615 0.00822215 0.00843402 0.00841164 0.00134279 
0.02497987 0.07616772 0.02239045 0.00360468 0.00211571 0.00215385 0.01164481 0.00425064 0.03021140 0.00252964 0.00293701 0.05531919 0.00821248 0.00847352 0.00830257 0.00134999 
0.02454302 0.07570550 0.02209775 0.00351988 0.00209403 0.00215872 0.01151939 0.00422372 0.03011242 0.00250344 0.00293764 0.05370992 0.00820744 0.00851639 0.00819819 0.00135689 
0.02407971 0.07523083 0.02176619 0.00343219 0.00206976 0.00216401 0.01138180 0.00419961 0.02999114 0.00247516 0.00293679 0.05214751 0.00820717 0.00856264 0.00809888 0.00136346 
0.02359132 0.07474612 0.02139714 0.00334198 0.00204305 0.00216971 0.01123223 0.00417844 0.02984839 0.00244493 0.00293447 0.05064109 0.00821175 0.00861224 0.00800502 0.00136969 
0.02307945 0.07425362 0.02099214 0.00324963 0.00201405 0.00217582 0.01107094 0.00416032 0.02968505 0.00241290 0.00293069 0.04919967 0.00822127 0.00866516 0.00791700 0.00137552 
0.02254594 0.07375536 0.02055288 0.00315555 0.00198294 0.00218234 0.01089821 0.00414535 0.02950207 0.00237922 0.00292545 0.04783212 0.00823575 0.00872131 0.00783522 0.00138095 
0.02199281 0.07325314 0.02008124 0.00306014 0.00194988 0.00218928 0.01071442 0.00413360 0.02930044 0.00234407 0.00291877 0.04654710 0.00825520 0.00878059 0.00776009 0.00138595 
0.02142236 0.07274858 0.01957923 0.00296381 0.00191507 0.00219661 0.01051997 0.00412512 0.02908123 0.00230764 0.00291067 0.04535302 0.00827960 0.00884287 0.00769202 0.00139050 
0.02083706 0.07224305 0.01904899 0.00286699 0.00187871 0.00220434 0.01031534 0.00411995 0.02884552 0.00227010 0.00290119 0.04425796 0.00830888 0.00890799 0.00763140 0.00139459 
0.02023964 0.07173770 0.01849281 0.00277010 0.00184101 0.00221246 0.01010105 0.00411809 0.02859444 0.00223167 0.00289036 0.04326963 0.00834295 0.00897576 0.00757866 0.00139820 
0.01963302 0.07123345 0.01791307 0.00267355 0.00180216 0.00222096 0.00987768 0.00411953 0.02832915 0.00219255 0.00287823 0.04239535 0.00838169 0.00904597 0.00753419 0.00140133 
0.01902034 0.07073101 0.01731226 0.00257778 0.00176239 0.00222983 0.00964588 0.00412424 0.02805083 0.00215296 0.00286486 0.04164196 0.00842494 0.00911836 0.00749838 0.00140396 
0.01840494 0.07023086 0.01669295 0.00248320 0.00172192 0.00223905 0.00940636 0.00413215 0.02776067 0.00211313 0.00285030 0.04101577 0.00847250 0.00919269 0.00747164 0.00140610 
0.01779034 0.06973328 0.01605777 0.00239022 0.00168096 0.00224862 0.00915985 0.00414321 0.02745989 0.00207329 0.00283461 0.04052255 0.00852418 0.00926865 0.00745434 0.00140775 
0.01718026 0.06923831 0.01540941 0.00229925 0.00163975 0.00225852 0.00890719 0.00415729 0.02714968 0.00203367 0.00281789 0.04016747 0.00857972 0.00934593 0.00744683 0.00140890 
0.01657855 0.06874583 0.01475062 0.00221069 0.00159850 0.00226873 0.00864924 0.00417430 0.02683126 0.00199450 0.00280021 0.03995507 0.00863886 0.00942419 0.00744946 0.00140957 
0.01598923 0.06825550 0.01408414 0.00212492 0.00155744 0.00227925 0.00838691 0.00419408 0.02650581 0.00195603 0.00278166 0.03988919 0.00870131 0.00950308 0.00746256 0.00140975 
0.01541645 0.06776683 0.01341273 0.00204232 0.00151679 0.00229005 0.00812118 0.00421648 0.02617450 0.00191848 0.00276234 0.03997298 0.00876674 0.00958223 0.00748642 0.00140947 
0.01486447 0.06727914 0.01273916 0.00196324 0.00147676 0.00230112 0.00785306 0.00424131 0.02583848 0.00188211 0.00274236 0.04020886 0.00883483 0.00966123 0.00752133 0.00140872 
0.01433761 0.06679163 0.01206616 0.00188801 0.00143757 0.00231243 0.00758362 0.00426839 0.02549885 0.00184714 0.00272183 0.04059848 0.00890522 0.00973969 0.00756753 0.00140754 
0.01384030 0.06630335 0.01139641 0.00181698 0.00139942 0.00232397 0.00731396 0.00429750 0.02515671 0.00181380 0.00270087 0.04114271 0.00897754 0.00981720 0.00762524 0.00140592 
0.01337699 0.06581323 0.01073257 0.00175042 0.00136251 0.00233571 0.00704522 0.00432840 0.02481308 0.00178232 0.00267960 0.04184163 0.00905140 0.00989332 0.00769465 0.00140389 
0.01295214 0.06532012 0.01007722 0.00168864 0.00132704 0.00234764 0.00677856 0.00436086 0.02446894 0.00175291 0.00265815 0.04269452 0.00912642 0.00996762 0.00777589 0.00140147 
0.01257021 0.06482276 0.00943285 0.00163188 0.00129318 0.00235972 0.00651520 0.00439462 0.02412522 0.00172580 0.00263667 0.04369982 0.00920218 0.01003968 0.00786909 0.00139868 
0.01223563 0.06431986 0.00880187 0.00158038 0.00126112 0.00237194 0.00625635 0.00442940 0.02378279 0.00170116 0.00261528 0.04485519 0.00927828 0.01010905 0.00797432 0.00139554 
0.01195275 0.06381006 0.00818657 0.00153434 0.00123101 0.00238426 0.00600325 0.00446492 0.02344246 0.00167921 0.00259413 0.04615746 0.00935431 0.01017529 0.00809161 0.00139208 
0.01172584 0.06329200 0.00758915 0.00149395 0.00120301 0.00239666 0.00575714 0.00450090 0.02310497 0.00166011 0.00257337 0.04760264 0.00942984 0.01023799 0.00822095 0.00138831 
0.01155903 0.06276430 0.00701166 0.00145937 0.00117725 0.00240912 0.00551930 0.00453703 0.02277100 0.00164404 0.00255314 0.04918599 0.00950446 0.01029672 0.00836228 0.00138427 
0.01145632 0.06222560 0.00645600 0.00143072 0.00115387 0.00242159 0.00529096 0.00457300 0.02244113 0.00163115 0.00253360 0.05090197 0.00957777 0.01035106 0.00851552 0.00137998 
0.01142151 0.06167457 0.00592397 0.00140811 0.00113298 0.00243404 0.00507338 0.00460852 0.02211591 0.00162157 0.00251490 0.05274431 0.00964935 0.01040063 0.00868053 0.00137545 
0.01145821 0.06110996 0.00541716 0.00139159 0.00111468 0.00244645 0.00486779 0.00464325 0.02179577 0.00161543 0.00249719 0.05470599 0.00971882 0.01044504 0.00885711 0.00137073 
0.01156976 0.06053056 0.00493705 0.00138122 0.00109906 0.00245878 0.00467540 0.00467690 0.02148111 0.00161284 0.00248061 0.05677933 0.00978579 0.01048393 0.00904504 0.00136584 
0.01175926 0.05993528 0.00448490 0.00137701 0.00108620 0.00247099 0.00449738 0.00470915 0.02117221 0.00161388 0.00246532 0.05895601 0.00984988 0.01051696 0.00924406 0.00136080 
0.01202951 0.05932313 0.00406185 0.00137893 0.00107614 0.00248304 0.00433490 0.00473968 0.02086932 0.00161863 0.00245146 0.06122705 0.00991075 0.01054383 0.00945383 0.00135563 
0.01238299 0.05869324 0.00366882 0.00138695 0.00106894 0.00249490 0.00418904 0.00476820 0.02057258 0.00162713 0.00243918 0.06358297 0.00996804 0.01056425 0.00967401 0.00135037 
0.01282181 0.05804489 0.00330657 0.00140098 0.00106463 0.00250653 0.00406086 0.00479440 0.02028207 0.00163943 0.00242860 0.06601374 0.01002144 0.01057797 0.00990419 0.00134503 
0.01334774 0.05737752 0.00297570 0.00142093 0.00106322 0.00251788 0.00395137 0.00481799 0.01999782 0.00165553 0.00241986 0.06850887 0.01007065 0.01058476 0.01014394 0.00133965 
0.01396215 0.05669075 0.00267658 0.00144666 0.00106471 0.00252892 0.00386149 0.00483869 0.01971978 0.00167545 0.00241309 0.07105748 0.01011538 0.01058445 0.01039278 0.00133425 
0.01466600 0.05598438 0.00240946 0.00147802 0.00106909 0.00253959 0.00379208 0.00485624 0.01944784 0.00169914 0.00240840 0.07364834 0.01015539 0.01057688 0.01065019 0.00132884 
0.01545982 0.05525840 0.00217435 0.00151482 0.00107634 0.00254987 0.00374394 0.00487037 0.01918182 0.00172657 0.00240590 0.07626993 0.01019044 0.01056196 0.01091563 0.00132346 
0.01634368 0.05451302 0.00197114 0.00155685 0.00108640 0.00255970 0.00371777 0.00488085 0.01892153 0.00175768 0.00240569 0.07891053 0.01022032 0.01053960 0.01118853 0.00131811 
0.01731723 0.05374866 0.00179952 0.00160388 0.00109924 0.00256903 0.00371417 0.00488746 0.01866668 0.00179238 0.00240787 0.08155826 0.01024486 0.01050979 0.01146826 0.00131283 
0.01837960 0.05296597 0.00165901 0.00165566 0.00111477 0.00257784 0.00373369 0.00489000 0.01841699 0.00183058 0.00241251 0.08420114 0.01026390 0.01047255 0.01175421 0.00130763 
0.01952950 0.05216582 0.00154898 0.00171190 0.00113292 0.00258606 0.00377672 0.00488827 0.01817212 0.00187216 0.00241968 0.08682719 0.01027732 0.01042793 0.01204571 0.00130253 
0.02076512 0.05134932 0.00146866 0.00177232 0.00115361 0.00259366 0.00384360 0.00488213 0.01793169 0.00191697 0.00242944 0.08942447 0.01028501 0.01037605 0.01234210 0.00129755 
0.02208417 0.05051783 0.00141711 0.00183659 0.00117672 0.00260060 0.00393452 0.00487144 0.01769534 0.00196488 0.00244184 0.09198118 0.01028691 0.01031706 0.01264268 0.00129269 
0.02348390 0.04967291 0.00139326 0.00190439 0.00120215 0.00260683 0.00404960 0.00485607 0.01746265 0.00201570 0.00245689 0.09448569 0.01028297 0.01025114 0.01294675 0.00128798 
0.02496105 0.04881639 0.00139592 0.00197537 0.00122977 0.00261230 0.00418882 0.00483596 0.01723324 0.00206926 0.00247463 0.09692663 0.01027318 0.01017855 0.01325359 0.00128343 
0.02651190 0.04795031 0.00142377 0.00204918 0.00125946 0.00261699 0.00435203 0.00481102 0.01700669 0.00212535 0.00249505 0.09929296 0.01025753 0.01009957 0.01356250 0.00127904 
0.02813228 0.04707695 0.00147540 0.00212543 0.00129107 0.00262084 0.00453900 0.00478124 0.01678262 0.00218376 0.00251814 0.10157400 0.01023608 0.01001453 0.01387274 0.00127484 
0.02981756 0.04619881 0.00154929 0.00220377 0.00132446 0.00262382 0.00474935 0.00474660 0.01656065 0.00224427 0.00254388 0.10375955 0.01020888 0.00992379 0.01418360 0.00127083 
0.03156267 0.04531858 0.00164383 0.00228380 0.00135948 0.00262590 0.00498259 0.00470714 0.01634042 0.00230663 0.00257223 0.10583989 0.01017602 0.00982776 0.01449436 0.00126701 
0.03336213 0.04443917 0.00175735 0.00236513 0.00139597 0.00262704 0.00523811 0.00466290 0.01612161 0.00237059 0.00260312 0.10780589 0.01013760 0.00972689 0.01480432 0.00126339 
0.03521008 0.04356369 0.00188811 0.00244738 0.00143377 0.00262722 0.00551519 0.00461396 0.01590394 0.00243591 0.00263650 0.10964900 0.01009376 0.00962167 0.01511277 0.00125998 
0.03710027 0.04269538 0.00203432 0.00253015 0.00147271 0.00262640 0.00581298 0.00456043 0.01568716 0.00250231 0.00267227 0.11136137 0.01004466 0.00951260 0.01541904 0.00125679 
0.03902613 0.04183769 0.00219416 0.00261306 0.00151262 0.00262456 0.00613052 0.00450246 0.01547108 0.00256953 0.00271034 0.11293583 0.00999047 0.00940024 0.01572246 0.00125381 
0.04098077 0.04099418 0.00236577 0.00269572 0.00155334 0.00262168 0.00646674 0.00444021 0.01525556 0.00263729 0.00275059 0.11436598 0.00993137 0.00928516 0.01602238 0.00125105 
0.04295702 0.04016853 0.00254729 0.00277775 0.00159470 0.00261774 0.00682047 0.00437388 0.01504053 0.00270530 0.00279290 0.11564619 0.00986759 0.00916796 0.01631818 0.00124850 
0.04494749 0.03936454 0.00273686 0.00285878 0.00163652 0.00261273 0.00719043 0.00430369 0.01482596 0.00277330 0.00283712 0.11677166 0.00979934 0.00904925 0.01660926 0.00124618 
0.04694456 0.03858609 0.00293263 0.00293845 0.00167864 0.00260664 0.00757525 0.00422988 0.01461191 0.00284099 0.00288310 0.11773841 0.00972688 0.00892968 0.01689505 0.00124407 
0.04894046 0.03783709 0.00313276 0.00301642 0.00172088 0.00259945 0.00797345 0.00415275 0.01439851 0.00290809 0.00293068 0.11854333 0.00965046 0.00880989 0.01717500 0.00124218 
0.05092729 0.03712153 0.00333545 0.00309235 0.00176309 0.00259118 0.00838349 0.00407258 0.01418596 0.00297433 0.00297967 0.11918420 0.00957034 0.00869055 0.01744860 0.00124051 
0.05289707 0.03644337 0.00353896 0.00316594 0.00180509 0.00258183 0.00880374 0.00398969 0.01397454 0.00303943 0.00302988 0.11965966 0.00948680 0.00857232 0.01771537 0.00123904 
0.05484178 0.03580658 0.00374159 0.00323687 0.00184674 0.00257139 0.00923250 0.00390443 0.01376460 0.00310313 0.00308113 0.11996926 0.00940014 0.00845587 0.01797485 0.00123778 
0.05675340 0.03521507 0.00394170 0.00330487 0.00188788 0.00255989 0.00966801 0.00381716 0.01355658 0.00316514 0.00313320 0.12011341 0.00931064 0.00834185 0.01822665 0.00123673 
0.05862398 0.03467269 0.00413773 0.00336969 0.00192837 0.00254734 0.01010847 0.00372825 0.01335098 0.00322523 0.00318587 0.12009343 0.00921862 0.00823094 0.01847037 0.00123587 
0.06044564 0.03418320 0.00432822 0.00343109 0.00196805 0.00253376 0.01055201 0.00363811 0.01314840 0.00328315 0.00323893 0.11991148 0.00912437 0.00812377 0.01870567 0.00123520 
0.06221065 0.03375023 0.00451176 0.00348886 0.00200681 0.00251918 0.01099674 0.00354714 0.01294949 0.00333865 0.00329214 0.11957058 0.00902820 0.00802097 0.01893224 0.00123472 
0.06391149 0.03337726 0.00468707 0.00354283 0.00204450 0.00250363 0.01144075 0.00345576 0.01275500 0.00339151 0.00334527 0.11907457 0.00893044 0.00792315 0.01914980 0.00123443 
0.06554084 0.03306762 0.00485297 0.00359282 0.00208101 0.00248715 0.01188211 0.00336440 0.01256571 0.00344153 0.00339809 0.11842808 0.00883139 0.00783090 0.01935812 0.00123430 
0.06709167 0.03282441 0.00500837 0.00363872 0.00211623 0.00246977 0.01231888 0.00327348 0.01238249 0.00348849 0.00345035 0.11763652 0.00873138 0.00774478 0.01955699 0.00123435 
0.06855726 0.03265052 0.00515232 0.00368042 0.00215005 0.00245155 0.01274914 0.00318346 0.01220628 0.00353222 0.00350182 0.11670600 0.00863071 0.00766531 0.01974624 0.00123456 
0.06993126 0.03254858 0.00528395 0.00371785 0.00218238 0.00243253 0.01317098 0.00309476 0.01203804 0.00357256 0.00355226 0.11564334 0.00852969 0.00759298 0.01992572 0.00123492 
0.07120770 0.03252096 0.00540255 0.00375096 0.00221313 0.00241276 0.01358250 0.00300782 0.01187881 0.00360934 0.00360143 0.11445599 0.00842864 0.00752824 0.02009533 0.00123543 
0.07238106 0.03256972 0.00550752 0.00377974 0.00224223 0.00239230 0.01398185 0.00292309 0.01172963 0.00364243 0.00364909 0.11315197 0.00832785 0.00747151 0.02025498 0.00123608 
0.07344629 0.03269662 0.00559836 0.00380421 0.00226959 0.00237121 0.01436725 0.00284097 0.01159162 0.00367171 0.00369501 0.11173986 0.00822764 0.00742314 0.02040463 0.00123687 
0.07439885 0.03290308 0.00567472 0.00382441 0.00229518 0.00234955 0.01473692 0.00276190 0.01146589 0.00369709 0.00373897 0.11022872 0.00812828 0.00738346 0.02054425 0.00123778 
0.07523473 0.03319017 0.00573637 0.00384042 0.00231892 0.00232740 0.01508920 0.00268628 0.01135357 0.00371848 0.00378075 0.10862803 0.00803007 0.00735273 0.02067384 0.00123882 
0.07595046 0.03355858 0.00578319 0.00385233 0.00234079 0.00230481 0.01542248 0.00261450 0.01125582 0.00373582 0.00382013 0.10694766 0.00793330 0.00733116 0.02079343 0.00123998 
0.07654319 0.03400865 0.00581520 0.00386028 0.00236074 0.00228187 0.01573524 0.00254694 0.01117376 0.00374906 0.00385692 0.10519775 0.00783822 0.00731892 0.02090305 0.00124124 
0.07701066 0.03454029 0.00583251 0.00386442 0.00237876 0.00225864 0.01602604 0.00248395 0.01110854 0.00375818 0.00389092 0.10338873 0.00774510 0.00731611 0.02100279 0.00124261 
0.07735123 0.03515304 0.00583538 0.00386494 0.00239483 0.00223520 0.01629356 0.00242587 0.01106126 0.00376317 0.00392195 0.10153118 0.00765420 0.00732279 0.02109272 0.00124408 
0.07756391 0.03584604 0.00582415 0.00386205 0.00240893 0.00221161 0.01653657 0.00237301 0.01103299 0.00376406 0.00394983 0.09963583 0.00756576 0.00733894 0.02117295 0.00124564 
0.07764835 0.03661799 0.00579927 0.00385598 0.00242108 0.00218797 0.01675397 0.00232566 0.01102477 0.00376085 0.00397442 0.09771346 0.00748001 0.00736452 0.02124359 0.00124729 
0.07760486 0.03746722 0.00576131 0.00384698 0.00243127 0.00216434 0.01694476 0.00228408 0.01103760 0.00375361 0.00399557 0.09577487 0.00739717 0.00739940 0.02130476 0.00124902 
0.07743438 0.03839161 0.00571091 0.00383533 0.00243953 0.00214080 0.01710810 0.00224851 0.01107240 0.00374241 0.00401316 0.09383080 0.00731745 0.00744340 0.02135662 0.00125083 
0.07713854 0.03938868 0.00564881 0.00382131 0.00244587 0.00211742 0.01724324 0.00221913 0.01113003 0.00372732 0.00402706 0.09189186 0.00724105 0.00749631 0.02139932 0.00125271 
0.07671960 0.04045553 0.00557583 0.00380525 0.00245033 0.00209428 0.01734958 0.00219612 0.01121127 0.00370845 0.00403719 0.08996851 0.00716815 0.00755784 0.02143301 0.00125466 
0.07618047 0.04158887 0.00549285 0.00378746 0.00245294 0.00207144 0.01742667 0.00217962 0.01131683 0.00368591 0.00404346 0.08807099 0.00709894 0.00762766 0.02145786 0.00125668 
0.07552466 0.04278506 0.00540084 0.00376829 0.00245374 0.00204898 0.01747420 0.00216972 0.01144731 0.00365984 0.00404581 0.08620926 0.00703355 0.00770541 0.02147405 0.00125877 
0.07475630 0.04404009 0.00530081 0.00374807 0.00245278 0.00202695 0.01749197 0.00216650 0.01160321 0.00363038 0.00404421 0.08439295 0.00697215 0.00779064 0.02148176 0.00126091 
0.07388014 0.04534961 0.00519381 0.00372717 0.00245010 0.00200543 0.01747996 0.00216999 0.01178494 0.00359770 0.00403861 0.08263136 0.00691485 0.00788291 0.02148118 0.00126310 
0.07290143 0.04670895 0.00508097 0.00370594 0.00244578 0.00198446 0.01743826 0.00218018 0.01199276 0.00356195 0.00402902 0.08093333 0.00686178 0.00798170 0.02147250 0.00126535 
0.07182601 0.04811315 0.00496340 0.00368475 0.00243985 0.00196411 0.01736714 0.00219704 0.01222686 0.00352333 0.00401544 0.07930731 0.00681303 0.00808647 0.02145591 0.00126765 
0.07066019 0.04955698 0.00484228 0.00366396 0.00243240 0.00194443 0.01726697 0.00222048 0.01248726 0.00348202 0.00399789 0.07776124 0.00676870 0.00819665 0.02143162 0.00126999 
0.06941075 0.05103497 0.00471879 0.00364394 0.00242349 0.00192545 0.01713829 0.00225040 0.01277389 0.00343824 0.00397644 0.07630255 0.00672885 0.00831164 0.02139984 0.00127237 
0.06808492 0.05254143 0.00459409 0.00362505 0.00241319 0.00190723 0.01698174 0.00228665 0.01308651 0.00339218 0.00395114 0.07493814 0.00669354 0.00843083 0.02136078 0.00127480 
0.06669029 0.05407048 0.00446939 0.00360763 0.00240157 0.00188978 0.01679812 0.00232905 0.01342480 0.00334407 0.00392207 0.07367435 0.00666280 0.00855356 0.02131464 0.00127726 
0.06523483 0.05561611 0.00434585 0.00359203 0.00238871 0.00187315 0.01658835 0.00237739 0.01378825 0.00329412 0.00388933 0.07251694 0.00663666 0.00867917 0.02126166 0.00127976 
0.06372678 0.05717218 0.00422463 0.00357858 0.00237469 0.00185736 0.01635345 0.00243143 0.01417625 0.00324257 0.00385304 0.07147109 0.00661512 0.00880702 0.02120206 0.00128229 
0.06217466 0.05873247 0.00410686 0.00356760 0.00235958 0.00184242 0.01609459 0.00249087 0.01458805 0.00318964 0.00381334 0.07054134 0.00659818 0.00893641 0.02113607 0.00128485 
0.06058719 0.06029074 0.00399365 0.00355938 0.00234347 0.00182834 0.01581302 0.00255543 0.01502276 0.00313555 0.00377036 0.06973166 0.00658580 0.00906670 0.02106395 0.00128744 
0.05897324 0.06184069 0.00388604 0.00355421 0.00232643 0.00181513 0.01551009 0.00262476 0.01547938 0.00308055 0.00372429 0.06904539 0.00657795 0.00919720 0.02098594 0.00129005 
0.05734180 0.06337611 0.00378507 0.00355234 0.00230856 0.00180278 0.01518726 0.00269851 0.01595675 0.00302485 0.00367529 0.06848523 0.00657456 0.00932727 0.02090230 0.00129268 
0.05570191 0.06489082 0.00369168 0.00355403 0.00228993 0.00179130 0.01484606 0.00277629 0.01645362 0.00296869 0.00362357 0.06805332 0.00657556 0.00945627 0.02081332 0.00129533 
0.05406261 0.06637876 0.00360679 0.00355947 0.00227063 0.00178065 0.01448811 0.00285769 0.01696860 0.00291229 0.00356932 0.06775115 0.00658086 0.00958358 0.02071928 0.00129800 
0.05243289 0.06783398 0.00353123 0.00356887 0.00225073 0.00177084 0.01411510 0.00294231 0.01750022 0.00285587 0.00351277 0.06757965 0.00659035 0.00970859 0.02062048 0.00130067 
0.05082167 0.06925076 0.00346579 0.00358237 0.00223033 0.00176182 0.01372875 0.00302968 0.01804687 0.00279965 0.00345414 0.06753914 0.00660390 0.00983075 0.02051725 0.00130335 
0.04923768 0.07062356 0.00341116 0.00360011 0.00220950 0.00175357 0.01333086 0.00311937 0.01860686 0.00274382 0.00339369 0.06762941 0.00662137 0.00994952 0.02040990 0.00130604 
0.04768949 0.07194708 0.00336797 0.00362220 0.00218833 0.00174605 0.01292326 0.00321090 0.01917842 0.00268860 0.00333165 0.06784967 0.00664260 0.01006440 0.02029881 0.00130872 
0.04618539 0.07321632 0.00333677 0.00364869 0.00216689 0.00173922 0.01250780 0.00330379 0.01975969 0.00263417 0.00326828 0.06819863 0.00666744 0.01017492 0.02018433 0.00131140 
0.04473341 0.07442659 0.00331802 0.00367963 0.00214527 0.00173303 0.01208637 0.00339757 0.02034874 0.00258072 0.00320386 0.06867449 0.00669569 0.01028068 0.02006685 0.00131408 
0.04334122 0.07557352 0.00331211 0.00371502 0.00212354 0.00172743 0.01166084 0.00349175 0.02094359 0.00252842 0.00313864 0.06927497 0.00672715 0.01038130 0.01994680 0.00131674 
0.04201612 0.07665313 0.00331934 0.00375484 0.00210178 0.00172237 0.01123311 0.00358584 0.02154220 0.00247743 0.00307291 0.06999734 0.00676161 0.01047646 0.01982459 0.00131938 
0.04076498 0.07766182 0.00333992 0.00379902 0.00208008 0.00171778 0.01080505 0.00367937 0.02214250 0.00242790 0.00300695 0.07083844 0.00679884 0.01056589 0.01970069 0.00132200 
0.03959423 0.07859640 0.00337398 0.00384747 0.00205849 0.00171362 0.01037852 0.00377185 0.02274238 0.00237998 0.00294102 0.07179472 0.00683862 0.01064936 0.01957557 0.00132459 
0.03850980 0.07945414 0.00342156 0.00390006 0.00203710 0.00170980 0.00995536 0.00386282 0.02333974 0.00233378 0.00287542 0.07286227 0.00688070 0.01072671 0.01944973 0.00132714 
0.03751709 0.08023273 0.00348263 0.00395664 0.00201597 0.00170628 0.00953734 0.00395181 0.02393244 0.00228944 0.00281043 0.07403681 0.00692480 0.01079783 0.01932369 0.00132966 
0.03662096 0.08093034 0.00355705 0.00401700 0.00199518 0.00170297 0.00912623 0.00403838 0.02451839 0.00224703 0.00274632 0.07531377 0.00697068 0.01086266 0.01919799 0.00133214 
0.03582569 0.08154562 0.00364462 0.00408094 0.00197479 0.00169983 0.00872369 0.00412209 0.02509549 0.00220667 0.00268337 0.07668831 0.00701806 0.01092120 0.01907319 0.00133457 
0.03513497 0.08207770 0.00374506 0.00414820 0.00195485 0.00169676 0.00833137 0.00420255 0.02566167 0.00216842 0.00262186 0.07815533 0.00706664 0.01097350 0.01894988 0.00133694 
0.03455187 0.08252618 0.00385800 0.00421849 0.00193545 0.00169372 0.00795081 0.00427935 0.02621492 0.00213234 0.00256205 0.07970948 0.00711616 0.01101966 0.01882866 0.00133925 
0.03407883 0.08289119 0.00398302 0.00429152 0.00191663 0.00169064 0.00758348 0.00435214 0.02675327 0.00209849 0.00250420 0.08134526 0.00716631 0.01105986 0.01871015 0.00134150 
0.03371768 0.08317330 0.00411962 0.00436696 0.00189844 0.00168744 0.00723078 0.00442056 0.02727482 0.00206691 0.00244856 0.08305696 0.00721680 0.01109428 0.01859498 0.00134367 
0.03346959 0.08337360 0.00426723 0.00444443 0.00188095 0.00168407 0.00689400 0.00448430 0.02777773 0.00203761 0.00239539 0.08483876 0.00726733 0.01112320 0.01848380 0.00134576 
0.03333508 0.08349364 0.00442523 0.00452358 0.00186421 0.00168048 0.00657434 0.00454308 0.02826028 0.00201062 0.00234490 0.08668470 0.00731761 0.01114691 0.01837727 0.00134778 
0.03331405 0.08353542 0.00459292 0.00460400 0.00184825 0.00167659 0.00627291 0.00459665 0.02872080 0.00198592 0.00229733 0.08858873 0.00736734 0.01116577 0.01827607 0.00134970 
0.03340577 0.08350141 0.00476959 0.00468529 0.00183313 0.00167237 0.00599068 0.00464477 0.02915776 0.00196352 0.00225290 0.09054473 0.00741621 0.01118016 0.01818087 0.00135152 
0.03360887 0.08339449 0.00495445 0.00476701 0.00181888 0.00166776 0.00572854 0.00468726 0.02956971 0.00194339 0.00221178 0.09254655 0.00746395 0.01119050 0.01809235 0.00135325 
0.03392139 0.08321795 0.00514669 0.00484873 0.00180553 0.00166273 0.00548726 0.00472397 0.02995534 0.00192549 0.00217418 0.09458797 0.00751026 0.01119725 0.01801119 0.00135487 
0.03434078 0.08297547 0.00534546 0.00493000 0.00179314 0.00165723 0.00526749 0.00475477 0.03031345 0.00190978 0.00214027 0.09666278 0.00755487 0.01120091 0.01793806 0.00135638 
0.03486390 0.08267109 0.00554987 0.00501036 0.00178171 0.00165123 0.00506975 0.00477959 0.03064298 0.00189622 0.00211019 0.09876479 0.00759749 0.01120196 0.01787364 0.00135778 
0.03548710 0.08230917 0.00575901 0.00508936 0.00177127 0.00164471 0.00489447 0.00479837 0.03094300 0.00188474 0.00208408 0.10088779 0.00763786 0.01120096 0.01781858 0.00135905 
0.03620619 0.08189437 0.00597197 0.00516653 0.00176185 0.00163764 0.00474194 0.00481110 0.03121272 0.00187528 0.00206208 0.10302564 0.00767573 0.01119844 0.01777353 0.00136020 
0.03701651 0.08143163 0.00618782 0.00524142 0.00175345 0.00163002 0.00461234 0.00481781 0.03145151 0.00186776 0.00204427 0.10517223 0.00771086 0.01119496 0.01773911 0.00136123 
0.03791294 0.08092611 0.00640560 0.00531357 0.00174609 0.00162183 0.00450572 0.00481856 0.03165885 0.00186209 0.00203076 0.10732151 0.00774302 0.01119108 0.01771594 0.00136212 
0.03888995 0.08038315 0.00662438 0.00538253 0.00173978 0.00161307 0.00442203 0.00481346 0.03183441 0.00185819 0.00202161 0.10946749 0.00777199 0.01118736 0.01770457 0.00136288 
0.03994163 0.07980828 0.00684323 0.00544787 0.00173451 0.00160376 0.00436111 0.00480263 0.03197797 0.00185598 0.00201687 0.11160426 0.00779757 0.01118436 0.01770557 0.00136349 
0.04106172 0.07920712 0.00706120 0.00550915 0.00173028 0.00159390 0.00432266 0.00478624 0.03208947 0.00185534 0.00201657 0.11372601 0.00781957 0.01118262 0.01771944 0.00136397 
0.04224369 0.07858538 0.00727740 0.00556598 0.00172708 0.00158351 0.00430631 0.00476450 0.03216901 0.00185620 0.00202073 0.11582700 0.00783784 0.01118270 0.01774665 0.00136431 
0.04348075 0.07794883 0.00749092 0.00561795 0.00172489 0.00157263 0.00431156 0.00473765 0.03221682 0.00185843 0.00202933 0.11790160 0.00785223 0.01118509 0.01778764 0.00136451 
0.04476588 0.07730320 0.00770090 0.00566469 0.00172371 0.00156127 0.00433784 0.00470593 0.03223328 0.00186195 0.00204236 0.11994427 0.00786261 0.01119030 0.01784279 0.00136456 
0.04609192 0.07665423 0.00790649 0.00570585 0.00172349 0.00154949 0.00438446 0.00466966 0.03221890 0.00186665 0.00205977 0.12194960 0.00786886 0.01119879 0.01791243 0.00136447 
0.04745158 0.07600753 0.00810689 0.00574111 0.00172421 0.00153732 0.00445066 0.00462916 0.03217433 0.00187242 0.00208150 0.12391227 0.00787092 0.01121099 0.01799684 0.00136423 
0.04883749 0.07536864 0.00830132 0.00577016 0.00172584 0.00152481 0.00453560 0.00458476 0.03210034 0.00187916 0.00210747 0.12582709 0.00786870 0.01122730 0.01809624 0.00136385 
0.05024227 0.07474291 0.00848906 0.00579272 0.00172833 0.00151202 0.00463836 0.00453685 0.03199784 0.00188677 0.00213757 0.12768900 0.00786218 0.01124809 0.01821081 0.00136333 
0.05165854 0.07413554 0.00866941 0.00580857 0.00173164 0.00149901 0.00475797 0.00448582 0.03186784 0.00189515 0.00217170 0.12949305 0.00785133 0.01127366 0.01834063 0.00136266 
0.05307899 0.07355146 0.00884172 0.00581748 0.00173572 0.00148584 0.00489337 0.00443207 0.03171146 0.00190421 0.00220972 0.13123443 0.00783616 0.01130429 0.01848574 0.00136186 
0.05449638 0.07299538 0.00900541 0.00581928 0.00174051 0.00147258 0.00504349 0.00437604 0.03152993 0.00191385 0.00225148 0.13290847 0.00781669 0.01134021 0.01864612 0.00136093 
0.05590366 0.07247170 0.00915992 0.00581383 0.00174596 0.00145930 0.00520719 0.00431818 0.03132458 0.00192397 0.00229681 0.13451063 0.00779298 0.01138158 0.01882166 0.00135986 
0.05729393 0.07198450 0.00930476 0.00580101 0.00175199 0.00144607 0.00538330 0.00425893 0.03109681 0.00193451 0.00234554 0.13603653 0.00776510 0.01142854 0.01901219 0.00135866 
0.05866053 0.07153754 0.00943949 0.00578075 0.00175856 0.00143297 0.00557064 0.00419877 0.03084810 0.00194536 0.00239746 0.13748195 0.00773316 0.01148113 0.01921747 0.00135735 
0.05999703 0.07113419 0.00956372 0.00575303 0.00176557 0.00142007 0.00576799 0.00413816 0.03058000 0.00195646 0.00245238 0.13884281 0.00769726 0.01153939 0.01943718 0.00135591 
0.06129732 0.07077744 0.00967712 0.00571783 0.00177296 0.00140745 0.00597413 0.00407758 0.03029413 0.00196775 0.00251008 0.14011521 0.00765756 0.01160326 0.01967095 0.00135436 
0.06255558 0.07046987 0.00977940 0.00567521 0.00178065 0.00139519 0.00618785 0.00401751 0.02999214 0.00197914 0.00257031 0.14129545 0.00761422 0.01167264 0.01991831 0.00135270 
0.06376637 0.07021363 0.00987035 0.00562523 0.00178855 0.00138337 0.00640793 0.00395842 0.02967574 0.00199058 0.00263284 0.14237999 0.00756742 0.01174740 0.02017874 0.00135094 
0.06492460 0.07001046 0.00994980 0.00556801 0.00179660 0.00137205 0.00663317 0.00390079 0.02934665 0.00200203 0.00269742 0.14336549 0.00751739 0.01182731 0.02045163 0.00134908 
0.06602558 0.06986162 0.01001762 0.00550369 0.00180469 0.00136132 0.00686241 0.00384507 0.02900662 0.00201343 0.00276379 0.14424883 0.00746433 0.01191212 0.02073633 0.00134714 
0.06706505 0.06976796 0.01007376 0.00543248 0.00181275 0.00135124 0.00709450 0.00379172 0.02865742 0.00202474 0.00283168 0.14502711 0.00740851 0.01200151 0.02103209 0.00134512 
0.06803916 0.06972985 0.01011821 0.00535458 0.00182069 0.00134189 0.00732833 0.00374120 0.02830080 0.00203593 0.00290082 0.14569766 0.00735018 0.01209512 0.02133811 0.00134302 
0.06894453 0.06974723 0.01015099 0.00527025 0.00182843 0.00133332 0.00756285 0.00369393 0.02793853 0.00204696 0.00297094 0.14625806 0.00728962 0.01219255 0.02165355 0.00134087 
0.06977821 0.06981957 0.01017220 0.00517979 0.00183587 0.00132561 0.00779705 0.00365032 0.02757235 0.00205783 0.00304176 0.14670613 0.00722714 0.01229334 0.02197747 0.00133865 
0.07053774 0.06994592 0.01018197 0.00508353 0.00184293 0.00131879 0.00802999 0.00361077 0.02720398 0.00206851 0.00311300 0.14704000 0.00716303 0.01239698 0.02230891 0.00133639 
0.07122110 0.07012489 0.01018048 0.00498180 0.00184953 0.00131294 0.00826078 0.00357567 0.02683510 0.00207898 0.00318437 0.14725804 0.00709762 0.01250295 0.02264683 0.00133409 
0.07182674 0.07035469 0.01016793 0.00487500 0.00185558 0.00130808 0.00848860 0.00354535 0.02646737 0.00208926 0.00325560 0.14735896 0.00703124 0.01261068 0.02299017 0.00133176 
0.07235360 0.07063313 0.01014460 0.00476354 0.00186101 0.00130427 0.00871272 0.00352016 0.02610239 0.00209933 0.00332640 0.14734176 0.00696424 0.01271955 0.02333781 0.00132940 
0.07280104 0.07095763 0.01011077 0.00464785 0.00186573 0.00130153 0.00893247 0.00350039 0.02574171 0.00210921 0.00339651 0.14720578 0.00689696 0.01282895 0.02368859 0.00132704 
0.07316890 0.07132526 0.01006676 0.00452840 0.00186967 0.00129989 0.00914727 0.00348634 0.02538681 0.00211890 0.00346565 0.14695070 0.00682975 0.01293821 0.02404132 0.00132467 
0.07345743 0.07173277 0.01001295 0.00440566 0.00187277 0.00129938 0.00935662 0.00347823 0.02503914 0.00212841 0.00353355 0.14657654 0.00676298 0.01304668 0.02439480 0.00132231 
0.07366733 0.07217661 0.00994971 0.00428015 0.00187495 0.00130000 0.00956012 0.00347630 0.02470005 0.00213778 0.00359997 0.14608371 0.00669699 0.01315365 0.02474776 0.00131996 
0.07379969 0.07265293 0.00987745 0.00415237 0.00187615 0.00130177 0.00975744 0.00348073 0.02437083 0.00214702 0.00366465 0.14547297 0.00663216 0.01325843 0.02509897 0.00131763 
0.07385599 0.07315767 0.00979661 0.00402287 0.00187633 0.00130467 0.00994834 0.00349169 0.02405269 0.00215616 0.00372734 0.14474548 0.00656883 0.01336033 0.02544715 0.00131533 
0.07383809 0.07368654 0.00970765 0.00389219 0.00187543 0.00130872 0.01013268 0.00350929 0.02374676 0.00216523 0.00378783 0.14390279 0.00650735 0.01345863 0.02579102 0.00131308 
0.07374817 0.07423511 0.00961103 0.00376089 0.00187341 0.00131388 0.01031040 0.00353364 0.02345410 0.00217425 0.00384588 0.14294687 0.00644808 0.01355266 0.02612931 0.00131087 
0.07358876 0.07479878 0.00950724 0.00362953 0.00187023 0.00132014 0.01048154 0.00356479 0.02317566 0.00218327 0.00390130 0.14188006 0.00639135 0.01364170 0.02646074 0.00130872 
0.07336267 0.07537287 0.00939678 0.00349868 0.00186586 0.00132747 0.01064621 0.00360278 0.02291234 0.00219232 0.00395390 0.14070514 0.00633748 0.01372510 0.02678406 0.00130663 
0.07307298 0.07595263 0.00928015 0.00336892 0.00186029 0.00133585 0.01080460 0.00364759 0.02266492 0.00220144 0.00400348 0.13942529 0.00628680 0.01380218 0.02709801 0.00130461 
0.07272299 0.07653329 0.00915786 0.00324082 0.00185349 0.00134522 0.01095699 0.00369920 0.02243413 0.00221067 0.00404989 0.13804410 0.00623961 0.01387233 0.02740139 0.00130266 
0.07231625 0.07711011 0.00903043 0.00311495 0.00184546 0.00135554 0.01110374 0.00375754 0.02222058 0.00222004 0.00409298 0.13656558 0.00619618 0.01393492 0.02769299 0.00130080 
0.07185647 0.07767839 0.00889838 0.00299187 0.00183620 0.00136676 0.01124527 0.00382250 0.02202483 0.00222959 0.00413262 0.13499412 0.00615680 0.01398938 0.02797165 0.00129903 
0.07134750 0.07823353 0.00876221 0.00287214 0.00182573 0.00137882 0.01138207 0.00389396 0.02184734 0.00223937 0.00416869 0.13333452 0.00612170 0.01403516 0.02823625 0.00129735 
0.07079332 0.07877106 0.00862246 0.00275630 0.00181405 0.00139167 0.01151469 0.00397176 0.02168848 0.00224941 0.00420109 0.13159196 0.00609112 0.01407176 0.02848571 0.00129577 
0.07019803 0.07928667 0.00847961 0.00264490 0.00180119 0.00140524 0.01164375 0.00405571 0.02154856 0.00225974 0.00422973 0.12977200 0.00606527 0.01409871 0.02871900 0.00129429 
0.06956575 0.07977626 0.00833418 0.00253844 0.00178719 0.00141946 0.01176989 0.00414560 0.02142782 0.00227041 0.00425457 0.12788054 0.00604432 0.01411558 0.02893514 0.00129292 
0.06890066 0.08023597 0.00818666 0.00243744 0.00177209 0.00143427 0.01189381 0.00424117 0.02132642 0.00228146 0.00427554 0.12592382 0.00602843 0.01412201 0.02913321 0.00129166 
0.06820696 0.08066220 0.00803753 0.00234238 0.00175594 0.00144958 0.01201624 0.00434218 0.02124446 0.00229290 0.00429263 0.12390840 0.00601774 0.01411764 0.02931235 0.00129051 
0.06748880 0.08105165 0.00788727 0.00225370 0.00173879 0.00146533 0.01213795 0.00444831 0.02118195 0.00230478 0.00430582 0.12184114 0.00601235 0.01410222 0.02947176 0.00128948 
0.06675031 0.08140134 0.00773634 0.00217186 0.00172070 0.00148143 0.01225970 0.00455927 0.02113887 0.00231712 0.00431513 0.11972916 0.00601234 0.01407551 0.02961071 0.00128856 
0.06599554 0.08170865 0.00758519 0.00209727 0.00170176 0.00149782 0.01238230 0.00467472 0.02111515 0.00232995 0.00432057 0.11757981 0.00601775 0.01403733 0.02972854 0.00128776 
0.06522845 0.08197132 0.00743425 0.00203030 0.00168203 0.00151443 0.01250654 0.00479431 0.02111064 0.00234330 0.00432220 0.11540066 0.00602860 0.01398758 0.02982467 0.00128708 
0.06445292 0.08218750 0.00728395 0.00197131 0.00166161 0.00153117 0.01263319 0.00491766 0.02112517 0.00235718 0.00432007 0.11319944 0.00604487 0.01392617 0.02989859 0.00128652 
0.06367264 0.08235573 0.00713469 0.00192062 0.00164057 0.00154797 0.01276305 0.00504440 0.02115852 0.00237162 0.00431427 0.11098405 0.00606654 0.01385311 0.02994987 0.00128608 
0.06289121 0.08247499 0.00698685 0.00187853 0.00161902 0.00156477 0.01289686 0.00517413 0.02121042 0.00238663 0.00430488 0.10876245 0.00609352 0.01376844 0.02997815 0.00128575 
0.06211205 0.08254467 0.00684083 0.00184529 0.00159704 0.00158151 0.01303536 0.00530643 0.02128058 0.00240223 0.00429203 0.10654271 0.00612572 0.01367226 0.02998316 0.00128554 
0.06133838 0.08256464 0.00669696 0.00182112 0.00157476 0.00159811 0.01317924 0.00544089 0.02136870 0.00241842 0.00427584 0.10433288 0.00616300 0.01356472 0.02996470 0.00128545 
0.06057327 0.08253517 0.00655561 0.00180621 0.00155227 0.00161452 0.01332914 0.00557709 0.02147442 0.00243522 0.00425644 0.10214103 0.00620520 0.01344603 0.02992267 0.00128546 
0.05981958 0.08245699 0.00641709 0.00180072 0.00152968 0.00163068 0.01348567 0.00571458 0.02159738 0.00245263 0.00423401 0.09997515 0.00625213 0.01331645 0.02985702 0.00128558 
0.05907997 0.08233129 0.00628171 0.00180474 0.00150711 0.00164656 0.01364936 0.00585294 0.02173721 0.00247065 0.00420869 0.09784314 0.00630359 0.01317629 0.02976782 0.00128580 
0.05835688 0.08215966 0.00614978 0.00181835 0.00148467 0.00166210 0.01382069 0.00599172 0.02189351 0.00248929 0.00418069 0.09575275 0.00635932 0.01302590 0.02965517 0.00128613 
0.05765256 0.08194414 0.00602158 0.00184159 0.00146247 0.00167727 0.01400007 0.00613048 0.02206589 0.00250854 0.00415018 0.09371156 0.00641905 0.01286569 0.02951929 0.00128655 
0.05696904 0.08168718 0.00589737 0.00187446 0.00144063 0.00169204 0.01418783 0.00626879 0.02225394 0.00252840 0.00411738 0.09172689 0.00648251 0.01269611 0.02936046 0.00128706 
0.05630814 0.08139160 0.00577740 0.00191691 0.00141927 0.00170639 0.01438422 0.00640621 0.02245726 0.00254887 0.00408250 0.08980581 0.00654937 0.01251764 0.02917904 0.00128766 
0.05567148 0.08106062 0.00566191 0.00196885 0.00139849 0.00172031 0.01458942 0.00654231 0.02267543 0.00256993 0.00404575 0.08795509 0.00661930 0.01233082 0.02897545 0.00128834 
0.05506046 0.08069781 0.00555114 0.00203017 0.00137840 0.00173377 0.01480349 0.00667666 0.02290804 0.00259158 0.00400738 0.08618112 0.00669195 0.01213620 0.02875019 0.00128909 
0.05447632 0.08030707 0.00544529 0.00210070 0.00135913 0.00174679 0.01502644 0.00680885 0.02315470 0.00261380 0.00396760 0.08448990 0.00676697 0.01193438 0.02850383 0.00128991 
0.05392007 0.07989258 0.00534457 0.00218026 0.00134076 0.00175937 0.01525816 0.00693846 0.02341500 0.00263659 0.00392668 0.08288704 0.00684396 0.01172599 0.02823699 0.00129080 
0.05339255 0.07945882 0.00524916 0.00226860 0.00132341 0.00177152 0.01549845 0.00706511 0.02368855 0.00265992 0.00388484 0.08137763 0.00692254 0.01151167 0.02795038 0.00129174 
0.05289446 0.07901048 0.00515925 0.00236546 0.00130716 0.00178327 0.01574702 0.00718840 0.02397496 0.00268379 0.00384234 0.07996632 0.00700231 0.01129211 0.02764473 0.00129273 
0.05242631 0.07855247 0.00507500 0.00247054 0.00129212 0.00179465 0.01600348 0.00730796 0.02427385 0.00270817 0.00379942 0.07865719 0.00708286 0.01106800 0.02732086 0.00129377 
0.05198846 0.07808988 0.00499659 0.00258348 0.00127836 0.00180569 0.01626736 0.00742344 0.02458484 0.00273305 0.00375635 0.07745380 0.00716380 0.01084004 0.02697962 0.00129484 
0.05158117 0.07762791 0.00492415 0.00270393 0.00126598 0.00181643 0.01653807 0.00753448 0.02490755 0.00275842 0.00371337 0.07635913 0.00724471 0.01060898 0.02662191 0.00129595 
0.05120453 0.07717186 0.00485783 0.00283148 0.00125503 0.00182694 0.01681497 0.00764076 0.02524162 0.00278424 0.00367072 0.07537554 0.00732519 0.01037553 0.02624869 0.00129708 
0.05085857 0.07672710 0.00479777 0.00296570 0.00124560 0.00183726 0.01709728 0.00774198 0.02558669 0.00281051 0.00362867 0.07450481 0.00740485 0.01014044 0.02586094 0.00129822 
0.05054319 0.07629898 0.00474410 0.00310614 0.00123773 0.00184745 0.01738419 0.00783784 0.02594239 0.00283720 0.00358744 0.07374807 0.00748329 0.00990447 0.02545967 0.00129938 
0.05025821 0.07589287 0.00469693 0.00325231 0.00123148 0.00185759 0.01767477 0.00792807 0.02630835 0.00286429 0.00354728 0.07310584 0.00756014 0.00966834 0.02504596 0.00130054 
0.05000341 0.07551404 0.00465639 0.00340371 0.00122689 0.00186776 0.01796804 0.00801241 0.02668421 0.00289176 0.00350841 0.07257798 0.00763504 0.00943281 0.02462088 0.00130170 
0.04977848 0.07516768 0.00462257 0.00355980 0.00122400 0.00187802 0.01826293 0.00809063 0.02706960 0.00291960 0.00347108 0.07216371 0.00770765 0.00919861 0.02418555 0.00130284 
0.04958309 0.07485881 0.00459559 0.00372005 0.00122282 0.00188846 0.01855835 0.00816251 0.02746414 0.00294778 0.00343549 0.07186163 0.00777765 0.00896647 0.02374109 0.00130398 
0.04941686 0.07459231 0.00457554 0.00388390 0.00122339 0.00189917 0.01885310 0.00822788 0.02786743 0.00297628 0.00340185 0.07166970 0.00784473 0.00873711 0.02328865 0.00130509 
0.04927940 0.07437280 0.00456251 0.00405075 0.00122571 0.00191024 0.01914597 0.00828654 0.02827908 0.00300507 0.00337036 0.07158526 0.00790862 0.00851124 0.02282940 0.00130617 
0.04917029 0.07420467 0.00455658 0.00422004 0.00122977 0.00192176 0.01943569 0.00833837 0.02869865 0.00303415 0.00334121 0.07160505 0.00796909 0.00828953 0.02236451 0.00130722 
0.04908913 0.07409203 0.00455784 0.00439117 0.00123557 0.00193382 0.01972098 0.00838322 0.02912572 0.00306348 0.00331459 0.07172523 0.00802591 0.00807268 0.02189516 0.00130823 
0.04903552 0.07403865 0.00456636 0.00456352 0.00124308 0.00194651 0.02000052 0.00842100 0.02955982 0.00309304 0.00329065 0.07194140 0.00807890 0.00786131 0.02142253 0.00130920 
0.04900904 0.07404797 0.00458222 0.00473650 0.00125229 0.00195992 0.02027297 0.00845163 0.03000047 0.00312281 0.00326956 0.07224864 0.00812792 0.00765607 0.02094781 0.00131012 
0.04900932 0.07412303 0.00460546 0.00490950 0.00126316 0.00197416 0.02053700 0.00847504 0.03044715 0.00315277 0.00325144 0.07264152 0.00817286 0.00745756 0.02047219 0.00131099 
0.04903599 0.07426650 0.00463615 0.00508192 0.00127564 0.00198929 0.02079128 0.00849119 0.03089930 0.00318289 0.00323644 0.07311416 0.00821365 0.00726636 0.01999683 0.00131180 
0.04908871 0.07448061 0.00467434 0.00525316 0.00128968 0.00200543 0.02103448 0.00850008 0.03135636 0.00321316 0.00322465 0.07366025 0.00825025 0.00708303 0.01952293 0.00131255 
0.04916714 0.07476713 0.00472008 0.00542262 0.00130522 0.00202265 0.02126531 0.00850171 0.03181770 0.00324353 0.00321617 0.07427310 0.00828268 0.00690808 0.01905164 0.00131323 
0.04927099 0.07512740 0.00477340 0.00558973 0.00132219 0.00204102 0.02148250 0.00849612 0.03228266 0.00327399 0.00321110 0.07494569 0.00831097 0.00674203 0.01858412 0.00131385 
0.04939995 0.07556225 0.00483433 0.00575391 0.00134053 0.00206063 0.02168481 0.00848334 0.03275055 0.00330451 0.00320949 0.07567072 0.00833521 0.00658534 0.01812150 0.00131439 
0.04955377 0.07607206 0.00490289 0.00591461 0.00136014 0.00208156 0.02187108 0.00846346 0.03322062 0.00333507 0.00321139 0.07644064 0.00835554 0.00643844 0.01766490 0.00131487 
0.04973216 0.07665668 0.00497909 0.00607129 0.00138095 0.00210385 0.02204016 0.00843657 0.03369209 0.00336562 0.00321684 0.07724773 0.00837212 0.00630176 0.01721545 0.00131527 
0.04993488 0.07731549 0.00506295 0.00622343 0.00140286 0.00212758 0.02219101 0.00840280 0.03416412 0.00339614 0.00322585 0.07808413 0.00838516 0.00617566 0.01677422 0.00131559 
0.05016165 0.07804735 0.00515446 0.00637055 0.00142578 0.00215280 0.02232263 0.00836227 0.03463585 0.00342660 0.00323843 0.07894192 0.00839489 0.00606049 0.01634228 0.00131584 
0.05041219 0.07885062 0.00525359 0.00651216 0.00144960 0.00217954 0.02243411 0.00831514 0.03510633 0.00345696 0.00325455 0.07981315 0.00840162 0.00595657 0.01592067 0.00131602 
0.05068620 0.07972318 0.00536033 0.00664782 0.00147422 0.00220785 0.02252464 0.00826160 0.03557460 0.00348719 0.00327419 0.08068993 0.00840564 0.00586420 0.01551043 0.00131612 
0.05098336 0.08066241 0.00547465 0.00677713 0.00149953 0.00223775 0.02259348 0.00820185 0.03603963 0.00351725 0.00329730 0.08156446 0.00840731 0.00578361 0.01511255 0.00131614 
0.05130328 0.08166520 0.00559648 0.00689968 0.00152542 0.00226927 0.02264000 0.00813609 0.03650037 0.00354709 0.00332381 0.08242910 0.00840701 0.00571503 0.01472800 0.00131609 
0.05164555 0.08272800 0.00572578 0.00701514 0.00155177 0.00230241 0.02266367 0.00806457 0.03695571 0.00357669 0.00335365 0.08327642 0.00840515 0.00565866 0.01435773 0.00131598 
0.05200968 0.08384680 0.00586247 0.00712317 0.00157849 0.00233717 0.02266407 0.00798753 0.03740448 0.00360598 0.00338670 0.08409925 0.00840216 0.00561465 0.01400264 0.00131579 
0.05239510 0.08501715 0.00600646 0.00722349 0.00160544 0.00237355 0.02264088 0.00790526 0.03784550 0.00363493 0.00342287 0.08489078 0.00839850 0.00558314 0.01366364 0.00131554 
0.05280117 0.08623422 0.00615766 0.00731585 0.00163252 0.00241152 0.02259390 0.00781803 0.03827755 0.00366350 0.00346203 0.08564453 0.00839463 0.00556423 0.01334157 0.00131523 
0.05322713 0.08749275 0.00631594 0.00740002 0.00165962 0.00245107 0.02252305 0.00772615 0.03869935 0.00369162 0.00350403 0.08635449 0.00839105 0.00555799 0.01303726 0.00131487 
0.05367213 0.08878718 0.00648119 0.00747585 0.00168661 0.00249214 0.02242836 0.00762995 0.03910961 0.00371926 0.00354873 0.08701510 0.00838826 0.00556447 0.01275150 0.00131445 
0.05413520 0.09011156 0.00665326 0.00754317 0.00171340 0.00253470 0.02230998 0.00752974 0.03950703 0.00374636 0.00359594 0.08762134 0.00838675 0.00558368 0.01248504 0.00131399 
0.05461523 0.09145968 0.00683198 0.00760189 0.00173987 0.00257868 0.02216817 0.00742588 0.03989025 0.00377287 0.00364551 0.08816873 0.00838703 0.00561560 0.01223860 0.00131348 
0.05511099 0.09282504 0.00701718 0.00765195 0.00176592 0.00262402 0.02200333 0.00731873 0.04025793 0.00379873 0.00369722 0.08865340 0.00838962 0.00566020 0.01201286 0.00131295 
0.05562109 0.09420092 0.00720868 0.00769331 0.00179145 0.00267065 0.02181594 0.00720865 0.04060869 0.00382388 0.00375088 0.08907212 0.00839500 0.00571741 0.01180845 0.00131239 
0.05614400 0.09558039 0.00740625 0.00772599 0.00181637 0.00271848 0.02160662 0.00709602 0.04094118 0.00384829 0.00380629 0.08942231 0.00840367 0.00578712 0.01162597 0.00131180 
0.05667804 0.09695634 0.00760969 0.00775004 0.00184058 0.00276741 0.02137609 0.00698124 0.04125403 0.00387187 0.00386321 0.08970209 0.00841610 0.00586922 0.01146597 0.00131121 
0.05722134 0.09832154 0.00781874 0.00776553 0.00186399 0.00281735 0.02112518 0.00686469 0.04154587 0.00389459 0.00392142 0.08991029 0.00843274 0.00596356 0.01132896 0.00131062 
0.05777192 0.09966869 0.00803316 0.00777258 0.00188654 0.00286820 0.02085481 0.00674678 0.04181538 0.00391639 0.00398069 0.09004644 0.00845403 0.00606996 0.01121540 0.00131003 
0.05832759 0.10099041 0.00825265 0.00777135 0.00190814 0.00291982 0.02056602 0.00662792 0.04206123 0.00393720 0.00404078 0.09011083 0.00848036 0.00618822 0.01112568 0.00130946 
0.05888603 0.10227929 0.00847695 0.00776203 0.00192872 0.00297212 0.02025991 0.00650851 0.04228214 0.00395698 0.00410145 0.09010445 0.00851211 0.00631811 0.01106017 0.00130891 
0.05944475 0.10352798 0.00870574 0.00774482 0.00194824 0.00302494 0.01993771 0.00638898 0.04247687 0.00397568 0.00416244 0.09002906 0.00854962 0.00645938 0.01101915 0.00130840 
0.06000112 0.10472916 0.00893869 0.00771998 0.00196662 0.00307818 0.01960068 0.00626973 0.04264422 0.00399324 0.00422351 0.08988713 0.00859317 0.00661175 0.01100286 0.00130793 
0.06055236 0.10587561 0.00917547 0.00768778 0.00198384 0.00313168 0.01925020 0.00615119 0.04278305 0.00400961 0.00428441 0.08968185 0.00864303 0.00677491 0.01101149 0.00130751 
0.06109554 0.10696025 0.00941574 0.00764853 0.00199984 0.00318531 0.01888767 0.00603376 0.04289227 0.00402475 0.00434489 0.08941709 0.00869940 0.00694854 0.01104515 0.00130716 
0.06162763 0.10797616 0.00965911 0.00760255 0.00201460 0.00323893 0.01851460 0.00591785 0.04297089 0.00403861 0.00440471 0.08909741 0.00876244 0.00713229 0.01110388 0.00130688 
0.06214547 0.10891664 0.00990522 0.00755018 0.00202809 0.00329240 0.01813251 0.00580387 0.04301797 0.00405116 0.00446362 0.08872802 0.00883226 0.00732577 0.01118766 0.00130668 
0.06264582 0.10977522 0.01015368 0.00749179 0.00204030 0.00334556 0.01774297 0.00569221 0.04303268 0.00406236 0.00452139 0.08831471 0.00890893 0.00752857 0.01129640 0.00130657 
0.06312534 0.11054569 0.01040406 0.00742778 0.00205122 0.00339827 0.01734761 0.00558327 0.04301426 0.00407219 0.00457779 0.08786387 0.00899244 0.00774028 0.01142994 0.00130656 
0.06358063 0.11122217 0.01065597 0.00735853 0.00206086 0.00345038 0.01694806 0.00547741 0.04296209 0.00408060 0.00463259 0.08738240 0.00908274 0.00796044 0.01158802 0.00130666 
0.06400825 0.11179908 0.01090897 0.00728447 0.00206921 0.00350175 0.01654599 0.00537501 0.04287563 0.00408759 0.00468557 0.08687768 0.00917972 0.00818857 0.01177033 0.00130688 
0.06440475 0.11227124 0.01116263 0.00720600 0.00207629 0.00355224 0.01614305 0.00527642 0.04275447 0.00409314 0.00473654 0.08635752 0.00928324 0.00842416 0.01197647 0.00130723 
0.06476664 0.11263384 0.01141650 0.00712358 0.00208213 0.00360171 0.01574092 0.00518198 0.04259832 0.00409723 0.00478530 0.08583008 0.00939305 0.00866671 0.01220596 0.00130770 
0.06509050 0.11288247 0.01167014 0.00703762 0.00208675 0.00365001 0.01534127 0.00509202 0.04240703 0.00409988 0.00483167 0.08530386 0.00950890 0.00891565 0.01245822 0.00130832 
0.06537290 0.11301319 0.01192308 0.00694857 0.00209019 0.00369702 0.01494575 0.00500683 0.04218058 0.00410107 0.00487549 0.08478757 0.00963046 0.00917042 0.01273261 0.00130907 
0.06561053 0.11302247 0.01217487 0.00685686 0.00209249 0.00374261 0.01455599 0.00492670 0.04191910 0.00410083 0.00491659 0.08429012 0.00975735 0.00943044 0.01302838 0.00130998 
0.06580015 0.11290731 0.01242504 0.00676294 0.00209369 0.00378665 0.01417357 0.00485190 0.04162284 0.00409916 0.00495484 0.08382054 0.00988913 0.00969508 0.01334471 0.00131103 
0.06593862 0.11266516 0.01267312 0.00666722 0.00209385 0.00382902 0.01380008 0.00478267 0.04129225 0.00409610 0.00499014 0.08338787 0.01002534 0.00996373 0.01368069 0.00131224 
0.06602299 0.11229399 0.01291864 0.00657015 0.00209303 0.00386963 0.01343701 0.00471923 0.04092790 0.00409169 0.00502236 0.08300115 0.01016545 0.01023572 0.01403533 0.00131361 
0.06605045 0.11179228 0.01316113 0.00647212 0.00209129 0.00390836 0.01308585 0.00466177 0.04053052 0.00408595 0.00505143 0.08266932 0.01030891 0.01051040 0.01440753 0.00131513 
0.06601839 0.11115904 0.01340013 0.00637355 0.00208870 0.00394513 0.01274798 0.00461045 0.04010102 0.00407894 0.00507728 0.08240112 0.01045510 0.01078709 0.01479613 0.00131680 
0.06592441 0.11039382 0.01363516 0.00627481 0.00208533 0.00397984 0.01242476 0.00456543 0.03964046 0.00407072 0.00509988 0.08220509 0.01060341 0.01106508 0.01519988 0.00131862 
0.06576639 0.10949668 0.01386578 0.00617630 0.00208124 0.00401242 0.01211745 0.00452681 0.03915005 0.00406135 0.00511918 0.08208944 0.01075316 0.01134368 0.01561745 0.00132059 
0.06554243 0.10846824 0.01409151 0.00607836 0.00207653 0.00404280 0.01182724 0.00449468 0.03863120 0.00405090 0.00513518 0.08206200 0.01090368 0.01162215 0.01604743 0.00132270 
0.06525095 0.10730965 0.01431190 0.00598134 0.00207126 0.00407093 0.01155525 0.00446909 0.03808544 0.00403946 0.00514791 0.08213016 0.01105425 0.01189979 0.01648834 0.00132495 
0.06489065 0.10602258 0.01452652 0.00588556 0.00206551 0.00409676 0.01130250 0.00445007 0.03751448 0.00402711 0.00515738 0.08230081 0.01120417 0.01217584 0.01693862 0.00132731 
0.06446060 0.10460925 0.01473492 0.00579130 0.00205938 0.00412024 0.01106993 0.00443761 0.03692020 0.00401394 0.00516366 0.08258025 0.01135270 0.01244959 0.01739666 0.00132980 
0.06396016 0.10307236 0.01493667 0.00569886 0.00205293 0.00414135 0.01085838 0.00443168 0.03630462 0.00400006 0.00516682 0.08297419 0.01149910 0.01272029 0.01786076 0.00133238 
0.06338908 0.10141517 0.01513135 0.00560848 0.00204625 0.00416008 0.01066858 0.00443221 0.03566990 0.00398558 0.00516696 0.08348765 0.01164266 0.01298720 0.01832921 0.00133506 
0.06274748 0.09964138 0.01531855 0.00552038 0.00203943 0.00417641 0.01050118 0.00443911 0.03501836 0.00397060 0.00516418 0.08412491 0.01178265 0.01324961 0.01880021 0.00133781 
0.06203584 0.09775521 0.01549788 0.00543479 0.00203254 0.00419035 0.01035671 0.00445223 0.03435245 0.00395524 0.00515861 0.08488950 0.01191836 0.01350677 0.01927194 0.00134062 
0.06125505 0.09576132 0.01566894 0.00535187 0.00202567 0.00420192 0.01023561 0.00447144 0.03367476 0.00393963 0.00515040 0.08578416 0.01204910 0.01375798 0.01974253 0.00134346 
0.06040638 0.09366482 0.01583135 0.00527179 0.00201888 0.00421113 0.01013821 0.00449653 0.03298798 0.00392389 0.00513972 0.08681076 0.01217420 0.01400254 0.02021009 0.00134633 
0.05949150 0.09147125 0.01598476 0.00519466 0.00201227 0.00421803 0.01006472 0.00452728 0.03229495 0.00390816 0.00512674 0.08797034 0.01229303 0.01423977 0.02067272 0.00134920 
0.05851247 0.08918654 0.01612880 0.00512060 0.00200588 0.00422264 0.01001524 0.00456346 0.03159857 0.00389257 0.00511166 0.08926301 0.01240498 0.01446901 0.02112849 0.00135204 
0.05747175 0.08681700 0.01626314 0.00504969 0.00199980 0.00422504 0.00998979 0.00460479 0.03090187 0.00387725 0.00509468 0.09068804 0.01250948 0.01468960 0.02157549 0.00135483 
0.05637219 0.08436929 0.01638746 0.00498198 0.00199410 0.00422528 0.00998826 0.00465096 0.03020794 0.00386233 0.00507602 0.09224374 0.01260601 0.01490095 0.02201180 0.00135755 
0.05521702 0.08185039 0.01650143 0.00491751 0.00198882 0.00422343 0.01001043 0.00470166 0.02951994 0.00384796 0.00505590 0.09392754 0.01269410 0.01510246 0.02243552 0.00136017 
0.05400983 0.07926759 0.01660476 0.00485628 0.00198403 0.00421957 0.01005599 0.00475653 0.02884110 0.00383427 0.00503457 0.09573597 0.01277331 0.01529358 0.02284478 0.00136267 
0.05275457 0.07662841 0.01669715 0.00479829 0.00197979 0.00421379 0.01012451 0.00481519 0.02817468 0.00382139 0.00501225 0.09766463 0.01284328 0.01547380 0.02323774 0.00136501 
0.05145554 0.07394064 0.01677834 0.00474351 0.00197613 0.00420618 0.01021547 0.00487726 0.02752398 0.00380946 0.00498920 0.09970829 0.01290369 0.01564263 0.02361262 0.00136717 
0.05011733 0.07121225 0.01684806 0.00469187 0.00197310 0.00419684 0.01032825 0.00494233 0.02689230 0.00379859 0.00496566 0.10186083 0.01295428 0.01579963 0.02396768 0.00136913 
0.04874485 0.06845140 0.01690606 0.00464332 0.00197073 0.00418588 0.01046214 0.00500996 0.02628295 0.00378892 0.00494189 0.10411532 0.01299485 0.01594442 0.02430127 0.00137084 
0.04734329 0.06566636 0.01695211 0.00459775 0.00196906 0.00417342 0.01061633 0.00507972 0.02569921 0.00378056 0.00491813 0.10646406 0.01302527 0.01607664 0.02461178 0.00137228 
0.04591808 0.06286553 0.01698597 0.00455508 0.00196811 0.00415957 0.01078993 0.00515115 0.02514436 0.00377363 0.00489463 0.10889859 0.01304547 0.01619599 0.02489772 0.00137342 
0.04447485 0.06005738 0.01700745 0.00451517 0.00196790 0.00414446 0.01098195 0.00522378 0.02462159 0.00376822 0.00487163 0.11140973 0.01305544 0.01630221 0.02515768 0.00137423 
0.04301946 0.05725039 0.01701633 0.00447791 0.00196844 0.00412820 0.01119134 0.00529713 0.02413406 0.00376444 0.00484937 0.11398769 0.01305524 0.01639511 0.02539035 0.00137469 
0.04155790 0.05445308 0.01701243 0.00444315 0.00196975 0.00411093 0.01141698 0.00537074 0.02368483 0.00376237 0.00482807 0.11662206 0.01304498 0.01647454 0.02559455 0.00137476 
0.04009628 0.05167392 0.01699558 0.00441073 0.00197181 0.00409278 0.01165766 0.00544412 0.02327688 0.00376209 0.00480794 0.11930191 0.01302486 0.01654040 0.02576920 0.00137442 
0.03864083 0.04892132 0.01696562 0.00438050 0.00197463 0.00407389 0.01191212 0.00551679 0.02291306 0.00376366 0.00478920 0.12201586 0.01299510 0.01659266 0.02591337 0.00137364 
0.03719780 0.04620362 0.01692240 0.00435229 0.00197820 0.00405437 0.01217905 0.00558826 0.02259611 0.00376715 0.00477203 0.12475212 0.01295602 0.01663133 0.02602625 0.00137240 
0.03577349 0.04352901 0.01686577 0.00432594 0.00198249 0.00403438 0.01245709 0.00565807 0.02232862 0.00377260 0.00475661 0.12749856 0.01290796 0.01665647 0.02610718 0.00137066 
0.03437416 0.04090553 0.01679563 0.00430126 0.00198749 0.00401404 0.01274482 0.00572574 0.02211302 0.00378004 0.00474310 0.13024282 0.01285135 0.01666822 0.02615565 0.00136842 
0.03300602 0.03834104 0.01671187 0.00427808 0.00199317 0.00399348 0.01304080 0.00579083 0.02195158 0.00378948 0.00473163 0.13297236 0.01278664 0.01666675 0.02617131 0.00136565 
0.03167518 0.03584318 0.01661439 0.00425622 0.00199948 0.00397284 0.01334355 0.00585289 0.02184638 0.00380094 0.00472234 0.13567454 0.01271433 0.01665229 0.02615395 0.00136232 
0.03038764 0.03341935 0.01650312 0.00423552 0.00200641 0.00395224 0.01365158 0.00591150 0.02179929 0.00381441 0.00471532 0.13833669 0.01263498 0.01662513 0.02610353 0.00135844 
0.02914921 0.03107668 0.01637800 0.00421579 0.00201389 0.00393180 0.01396337 0.00596624 0.02181200 0.00382986 0.00471066 0.14094623 0.01254918 0.01658561 0.02602019 0.00135397 
0.02796551 0.02882201 0.01623899 0.00419687 0.00202189 0.00391166 0.01427741 0.00601674 0.02188594 0.00384727 0.00470841 0.14349067 0.01245754 0.01653410 0.02590422 0.00134892 
0.02684192 0.02666186 0.01608607 0.00417860 0.00203034 0.00389192 0.01459215 0.00606262 0.02202236 0.00386658 0.00470861 0.14595779 0.01236073 0.01647104 0.02575607 0.00134326 
0.02578355 0.02460241 0.01591924 0.00416082 0.00203919 0.00387270 0.01490610 0.00610356 0.02222221 0.00388772 0.00471127 0.14833562 0.01225941 0.01639690 0.02557637 0.00133701 
0.02479521 0.02264949 0.01573853 0.00414337 0.00204839 0.00385412 0.01521774 0.00613925 0.02248625 0.00391063 0.00471639 0.15061257 0.01215427 0.01631219 0.02536591 0.00133015 
0.02388137 0.02080853 0.01554399 0.00412613 0.00205786 0.00383626 0.01552560 0.00616940 0.02281494 0.00393521 0.00472394 0.15277750 0.01204604 0.01621746 0.02512565 0.00132269 
0.02304614 0.01908458 0.01533568 0.00410895 0.00206754 0.00381923 0.01582821 0.00619378 0.02320852 0.00396135 0.00473386 0.15481976 0.01193542 0.01611331 0.02485669 0.00131462 
0.02229324 0.01748227 0.01511372 0.00409171 0.00207736 0.00380312 0.01612417 0.00621217 0.02366692 0.00398895 0.00474606 0.15672931 0.01182313 0.01600034 0.02456031 0.00130597 
0.02162600 0.01600581 0.01487824 0.00407431 0.00208725 0.00378801 0.01641209 0.00622441 0.02418985 0.00401786 0.00476046 0.15849672 0.01170991 0.01587920 0.02423793 0.00129673 
0.02104730 0.01465897 0.01462940 0.00405664 0.00209713 0.00377399 0.01669064 0.00623036 0.02477671 0.00404796 0.00477694 0.16011326 0.01159644 0.01575057 0.02389111 0.00128693 
0.02055956 0.01344508 0.01436740 0.00403862 0.00210694 0.00376112 0.01695855 0.00622991 0.02542666 0.00407908 0.00479534 0.16157099 0.01148345 0.01561512 0.02352155 0.00127658 
0.02016476 0.01236699 0.01409249 0.00402018 0.00211659 0.00374946 0.01721462 0.00622303 0.02613856 0.00411107 0.00481552 0.16286272 0.01137161 0.01547355 0.02313108 0.00126570 
0.01986438 0.01142713 0.01380494 0.00400124 0.00212601 0.00373907 0.01745769 0.00620968 0.02691105 0.00414376 0.00483729 0.16398216 0.01126158 0.01532659 0.02272165 0.00125432 
0.01965944 0.01062742 0.01350507 0.00398175 0.00213514 0.00373000 0.01768671 0.00618991 0.02774245 0.00417696 0.00486045 0.16492387 0.01115400 0.01517494 0.02229532 0.00124247 
0.01955043 0.00996934 0.01319325 0.00396169 0.00214389 0.00372230 0.01790067 0.00616378 0.02863087 0.00421049 0.00488480 0.16568336 0.01104947 0.01501934 0.02185427 0.00123018 
0.01953738 0.00945391 0.01286988 0.00394102 0.00215219 0.00371598 0.01809868 0.00613140 0.02957414 0.00424415 0.00491012 0.16625706 0.01094857 0.01486049 0.02140073 0.00121748 
0.01961981 0.00908165 0.01253544 0.00391973 0.00215998 0.00371108 0.01827991 0.00609294 0.03056987 0.00427775 0.00493616 0.16664241 0.01085182 0.01469911 0.02093704 0.00120442 
0.01979675 0.00885265 0.01219041 0.00389782 0.00216718 0.00370762 0.01844364 0.00604860 0.03161541 0.00431108 0.00496268 0.16683779 0.01075973 0.01453591 0.02046559 0.00119103 
0.02006675 0.00876651 0.01183538 0.00387531 0.00217374 0.00370559 0.01858923 0.00599860 0.03270790 0.00434394 0.00498942 0.16684262 0.01067273 0.01437157 0.01998885 0.00117736 
0.02042788 0.00882241 0.01147095 0.00385220 0.00217960 0.00370501 0.01871616 0.00594325 0.03384427 0.00437613 0.00501613 0.16665728 0.01059122 0.01420676 0.01950929 0.00116346 
0.02087775 0.00901906 0.01109780 0.00382855 0.00218469 0.00370586 0.01882399 0.00588286 0.03502124 0.00440743 0.00504254 0.16628318 0.01051555 0.01404213 0.01902944 0.00114938 
0.02141354 0.00935475 0.01071665 0.00380439 0.00218898 0.00370814 0.01891239 0.00581779 0.03623534 0.00443764 0.00506839 0.16572267 0.01044603 0.01387831 0.01855182 0.00113517 
0.02203200 0.00982735 0.01032829 0.00377977 0.00219241 0.00371181 0.01898115 0.00574845 0.03748296 0.00446656 0.00509341 0.16497912 0.01038289 0.01371589 0.01807897 0.00112088 
0.02272947 0.01043430 0.00993357 0.00375475 0.00219494 0.00371684 0.01903014 0.00567527 0.03876029 0.00449399 0.00511734 0.16405682 0.01032632 0.01355542 0.01761339 0.00110658 
0.02350193 0.01117267 0.00953339 0.00372942 0.00219654 0.00372320 0.01905935 0.00559872 0.04006340 0.00451973 0.00513992 0.16296097 0.01027646 0.01339745 0.01715759 0.00109231 
0.02434501 0.01203913 0.00912870 0.00370384 0.00219719 0.00373085 0.01906887 0.00551930 0.04138825 0.00454361 0.00516091 0.16169767 0.01023339 0.01324247 0.01671399 0.00107815 
0.02525401 0.01302999 0.00872054 0.00367810 0.00219687 0.00373972 0.01905890 0.00543755 0.04273068 0.00456543 0.00518005 0.16027387 0.01019714 0.01309092 0.01628500 0.00106414 
0.02622396 0.01414123 0.00830998 0.00365229 0.00219555 0.00374975 0.01902973 0.00535400 0.04408643 0.00458503 0.00519713 0.15869732 0.01016767 0.01294323 0.01587291 0.00105035 
0.02724963 0.01536848 0.00789814 0.00362651 0.00219324 0.00376088 0.01898176 0.00526926 0.04545121 0.00460225 0.00521193 0.15697651 0.01014489 0.01279977 0.01547999 0.00103684 
0.02832557 0.01670708 0.00748623 0.00360085 0.00218994 0.00377304 0.01891550 0.00518390 0.04682065 0.00461694 0.00522424 0.15512066 0.01012868 0.01266087 0.01510835 0.00102368 
0.02944617 0.01815207 0.00707546 0.00357542 0.00218567 0.00378613 0.01883152 0.00509855 0.04819036 0.00462895 0.00523388 0.15313961 0.01011884 0.01252682 0.01476004 0.00101091 
0.03060566 0.01969823 0.00666715 0.00355032 0.00218043 0.00380007 0.01873051 0.00501384 0.04955593 0.00463817 0.00524069 0.15104380 0.01011514 0.01239786 0.01443697 0.00099862 
0.03179818 0.02134010 0.00626260 0.00352565 0.00217427 0.00381477 0.01861323 0.00493040 0.05091299 0.00464449 0.00524453 0.14884419 0.01011729 0.01227420 0.01414091 0.00098684 
0.03301779 0.02307198 0.00586321 0.00350153 0.00216720 0.00383012 0.01848053 0.00484888 0.05225716 0.00464781 0.00524526 0.14655217 0.01012497 0.01215598 0.01387353 0.00097564 
0.03425856 0.02488799 0.00547039 0.00347806 0.00215929 0.00384602 0.01833332 0.00476991 0.05358414 0.00464804 0.00524279 0.14417956 0.01013780 0.01204334 0.01363630 0.00096508 
0.03551454 0.02678206 0.00508558 0.00345534 0.00215058 0.00386235 0.01817259 0.00469415 0.05488969 0.00464513 0.00523705 0.14173847 0.01015539 0.01193634 0.01343056 0.00095521 
0.03677986 0.02874798 0.00471026 0.00343348 0.00214114 0.00387900 0.01799940 0.00462222 0.05616964 0.00463902 0.00522798 0.13924125 0.01017728 0.01183502 0.01325749 0.00094608 
0.03804873 0.03077940 0.00434593 0.00341257 0.00213104 0.00389584 0.01781486 0.00455476 0.05741995 0.00462970 0.00521555 0.13670044 0.01020301 0.01173937 0.01311808 0.00093774 
0.03931551 0.03286986 0.00399410 0.00339271 0.00212035 0.00391274 0.01762011 0.00449237 0.05863668 0.00461713 0.00519977 0.13412867 0.01023209 0.01164935 0.01301316 0.00093024 
0.04057471 0.03501283 0.00365629 0.00337398 0.00210916 0.00392958 0.01741636 0.00443565 0.05981605 0.00460133 0.00518065 0.13153861 0.01026398 0.01156489 0.01294335 0.00092361 
0.04182105 0.03720171 0.00333403 0.00335649 0.00209756 0.00394621 0.01720484 0.00438517 0.06095441 0.00458232 0.00515826 0.12894286 0.01029816 0.01148589 0.01290911 0.00091790 
0.04304949 0.03942987 0.00302884 0.00334030 0.00208567 0.00396251 0.01698681 0.00434147 0.06204831 0.00456013 0.00513267 0.12635394 0.01033406 0.01141220 0.01291070 0.00091314 
0.04425525 0.04169065 0.00274224 0.00332549 0.00207357 0.00397831 0.01676355 0.00430506 0.06309447 0.00453482 0.00510398 0.12378417 0.01037113 0.01134366 0.01294820 0.00090935 
0.04543385 0.04397741 0.00247571 0.00331214 0.00206140 0.00399349 0.01653634 0.00427644 0.06408980 0.00450647 0.00507232 0.12124563 0.01040879 0.01128009 0.01302148 0.00090658 
0.04658113 0.04628355 0.00223071 0.00330029 0.00204926 0.00400789 0.01630649 0.00425604 0.06503144 0.00447515 0.00503785 0.11875008 0.01044647 0.01122128 0.01313026 0.00090483 
0.04769329 0.04860251 0.00200867 0.00329001 0.00203728 0.00402137 0.01607526 0.00424426 0.06591675 0.00444099 0.00500073 0.11630890 0.01048360 0.01116700 0.01327402 0.00090412 
0.04876687 0.05092780 0.00181098 0.00328134 0.00202559 0.00403378 0.01584395 0.00424147 0.06674331 0.00440409 0.00496118 0.11393304 0.01051963 0.01111702 0.01345211 0.00090446 
0.04979883 0.05325303 0.00163894 0.00327432 0.00201433 0.00404497 0.01561379 0.00424798 0.06750895 0.00436459 0.00491940 0.11163298 0.01055401 0.01107108 0.01366366 0.00090587 
0.05078651 0.05557191 0.00149384 0.00326898 0.00200363 0.00405479 0.01538602 0.00426405 0.06821176 0.00432264 0.00487564 0.10941865 0.01058619 0.01102892 0.01390764 0.00090834 
0.05172765 0.05787830 0.00137687 0.00326534 0.00199361 0.00406310 0.01516182 0.00428991 0.06885006 0.00427841 0.00483015 0.10729938 0.01061567 0.01099028 0.01418287 0.00091187 
0.05262046 0.06016620 0.00128912 0.00326343 0.00198444 0.00406975 0.01494235 0.00432570 0.06942247 0.00423205 0.00478320 0.10528389 0.01064195 0.01095489 0.01448798 0.00091644 
0.05346352 0.06242977 0.00123164 0.00326323 0.00197623 0.00407460 0.01472868 0.00437153 0.06992784 0.00418377 0.00473509 0.10338022 0.01066457 0.01092248 0.01482148 0.00092205 
0.05425587 0.06466338 0.00120534 0.00326476 0.00196914 0.00407752 0.01452188 0.00442745 0.07036531 0.00413374 0.00468610 0.10159572 0.01068309 0.01089280 0.01518171 0.00092867 
0.05499698 0.06686156 0.00121106 0.00326801 0.00196329 0.00407836 0.01432292 0.00449345 0.07073427 0.00408218 0.00463655 0.09993700 0.01069710 0.01086558 0.01556690 0.00093628 
0.05568673 0.06901909 0.00124949 0.00327295 0.00195882 0.00407701 0.01413270 0.00456946 0.07103440 0.00402929 0.00458675 0.09840993 0.01070625 0.01084058 0.01597514 0.00094485 
0.05632542 0.07113096 0.00132124 0.00327957 0.00195586 0.00407334 0.01395208 0.00465536 0.07126564 0.00397529 0.00453702 0.09701960 0.01071020 0.01081757 0.01640442 0.00095435 
0.05691376 0.07319240 0.00142675 0.00328783 0.00195454 0.00406723 0.01378181 0.00475096 0.07142819 0.00392039 0.00448767 0.09577029 0.01070866 0.01079632 0.01685263 0.00096474 
0.05745284 0.07519891 0.00156638 0.00329769 0.00195497 0.00405858 0.01362258 0.00485602 0.07152251 0.00386483 0.00443904 0.09466551 0.01070138 0.01077662 0.01731758 0.00097597 
0.05794413 0.07714623 0.00174029 0.00330910 0.00195727 0.00404729 0.01347499 0.00497023 0.07154933 0.00380881 0.00439145 0.09370797 0.01068815 0.01075828 0.01779699 0.00098799 
0.05838946 0.07903039 0.00194856 0.00332203 0.00196155 0.00403326 0.01333956 0.00509323 0.07150962 0.00375258 0.00434520 0.09289956 0.01066881 0.01074114 0.01828855 0.00100076 
0.05879097 0.08084771 0.00219106 0.00333639 0.00196791 0.00401643 0.01321670 0.00522462 0.07140458 0.00369635 0.00430061 0.09224137 0.01064326 0.01072503 0.01878988 0.00101422 
0.05915112 0.08259479 0.00246755 0.00335214 0.00197642 0.00399672 0.01310677 0.00536393 0.07123568 0.00364034 0.00425797 0.09173371 0.01061141 0.01070983 0.01929858 0.00102831 
0.05947266 0.08426853 0.00277762 0.00336921 0.00198718 0.00397407 0.01300999 0.00551063 0.07100457 0.00358477 0.00421757 0.09137612 0.01057324 0.01069543 0.01981223 0.00104297 
0.05975857 0.08586614 0.00312070 0.00338751 0.00200025 0.00394844 0.01292654 0.00566416 0.07071314 0.00352986 0.00417969 0.09116737 0.01052877 0.01068172 0.02032839 0.00105813 
0.06001206 0.08738513 0.00349606 0.00340696 0.00201569 0.00391981 0.01285646 0.00582391 0.07036348 0.00347582 0.00414458 0.09110550 0.01047806 0.01066865 0.02084467 0.00107374 
0.06023652 0.08882334 0.00390283 0.00342749 0.00203354 0.00388814 0.01279976 0.00598924 0.06995786 0.00342284 0.00411247 0.09118784 0.01042123 0.01065616 0.02135866 0.00108971 
0.06043550 0.09017891 0.00433996 0.00344901 0.00205384 0.00385345 0.01275630 0.00615943 0.06949873 0.00337111 0.00408359 0.09141102 0.01035841 0.01064423 0.02186802 0.00110599 
0.06061266 0.09145031 0.00480624 0.00347142 0.00207659 0.00381574 0.01272591 0.00633378 0.06898871 0.00332081 0.00405813 0.09177103 0.01028981 0.01063284 0.02237043 0.00112251 
0.06077176 0.09263633 0.00530033 0.00349462 0.00210181 0.00377504 0.01270830 0.00651151 0.06843056 0.00327212 0.00403627 0.09226324 0.01021565 0.01062201 0.02286366 0.00113918 
0.06091660 0.09373607 0.00582071 0.00351852 0.00212949 0.00373139 0.01270312 0.00669184 0.06782716 0.00322520 0.00401815 0.09288245 0.01013620 0.01061177 0.02334554 0.00115595 
0.06105099 0.09474896 0.00636573 0.00354303 0.00215960 0.00368486 0.01270995 0.00687398 0.06718153 0.00318019 0.00400390 0.09362291 0.01005176 0.01060215 0.02381399 0.00117273 
0.06117870 0.09567473 0.00693361 0.00356803 0.00219211 0.00363552 0.01272830 0.00705708 0.06649677 0.00313723 0.00399360 0.09447836 0.00996266 0.01059321 0.02426701 0.00118947 
0.06130348 0.09651343 0.00752241 0.00359341 0.00222696 0.00358346 0.01275761 0.00724032 0.06577608 0.00309643 0.00398733 0.09544211 0.00986927 0.01058503 0.02470274 0.00120609 
0.06142896 0.09726542 0.00813007 0.00361908 0.00226408 0.00352879 0.01279727 0.00742285 0.06502272 0.00305791 0.00398513 0.09650704 0.00977196 0.01057769 0.02511942 0.00122252 
0.06155865 0.09793136 0.00875442 0.00364493 0.00230338 0.00347164 0.01284661 0.00760382 0.06423999 0.00302176 0.00398700 0.09766567 0.00967116 0.01057126 0.02551540 0.00123869 
0.06169590 0.09851221 0.00939317 0.00367084 0.00234479 0.00341215 0.01290493 0.00778238 0.06343125 0.00298804 0.00399292 0.09891019 0.00956728 0.01056586 0.02588919 0.00125455 
0.06184389 0.09900920 0.01004393 0.00369670 0.00238817 0.00335047 0.01297147 0.00795771 0.06259984 0.00295683 0.00400286 0.10023255 0.00946079 0.01056158 0.02623941 0.00127004 
0.06200554 0.09942386 0.01070424 0.00372241 0.00243341 0.00328679 0.01304546 0.00812896 0.06174914 0.00292817 0.00401672 0.10162445 0.00935213 0.01055852 0.02656486 0.00128509 
0.06218358 0.09975798 0.01137153 0.00374785 0.00248037 0.00322129 0.01312611 0.00829533 0.06088248 0.00290209 0.00403441 0.10307742 0.00924177 0.01055678 0.02686445 0.00129965 
0.06238044 0.10001359 0.01204319 0.00377292 0.00252890 0.00315417 0.01321258 0.00845603 0.06000317 0.00287860 0.00405579 0.10458287 0.00913020 0.01055647 0.02713729 0.00131367 
0.06259825 0.10019301 0.01271655 0.00379749 0.00257883 0.00308565 0.01330407 0.00861030 0.05911447 0.00285771 0.00408070 0.10613212 0.00901787 0.01055767 0.02738260 0.00132710 
0.06283885 0.10029874 0.01338888 0.00382147 0.00263000 0.00301596 0.01339973 0.00875741 0.05821959 0.00283941 0.00410897 0.10771645 0.00890528 0.01056049 0.02759980 0.00133990 
0.06310374 0.10033354 0.01405747 0.00384475 0.00268222 0.00294535 0.01349876 0.00889667 0.05732163 0.00282366 0.00414037 0.10932718 0.00879289 0.01056498 0.02778844 0.00135202 
0.06339409 0.10030036 0.01471955 0.00386721 0.00273531 0.00287407 0.01360034 0.00902742 0.05642362 0.00281042 0.00417468 0.11095564 0.00868116 0.01057124 0.02794826 0.00136345 
0.06371069 0.10020233 0.01537238 0.00388876 0.00278905 0.00280238 0.01370369 0.00914905 0.05552848 0.00279964 0.00421165 0.11259330 0.00857055 0.01057930 0.02807912 0.00137413 
0.06405399 0.10004278 0.01601324 0.00390928 0.00284326 0.00273057 0.01380805 0.00926100 0.05463900 0.00279125 0.00425100 0.11423173 0.00846150 0.01058922 0.02818108 0.00138405 
0.06442407 0.09982517 0.01663942 0.00392868 0.00289770 0.00265890 0.01391269 0.00936275 0.05375784 0.00278517 0.00429245 0.11586269 0.00835443 0.01060102 0.02825433 0.00139319 
0.06482062 0.09955310 0.01724828 0.00394686 0.00295218 0.00258766 0.01401695 0.00945385 0.05288751 0.00278132 0.00433569 0.11747816 0.00824974 0.01061470 0.02829921 0.00140153 
0.06524296 0.09923031 0.01783723 0.00396372 0.00300647 0.00251716 0.01412017 0.00953388 0.05203040 0.00277960 0.00438039 0.11907037 0.00814782 0.01063026 0.02831623 0.00140906 
0.06569007 0.09886064 0.01840377 0.00397917 0.00306034 0.00244768 0.01422178 0.00960251 0.05118869 0.00277988 0.00442625 0.12063181 0.00804902 0.01064767 0.02830601 0.00141577 
0.06616053 0.09844798 0.01894546 0.00399311 0.00311359 0.00237952 0.01432125 0.00965946 0.05036442 0.00278207 0.00447291 0.12215529 0.00795368 0.01066688 0.02826932 0.00142166 
0.06665259 0.09799631 0.01946001 0.00400548 0.00316600 0.00231298 0.01441812 0.00970450 0.04955944 0.00278604 0.00452003 0.12363396 0.00786210 0.01068783 0.02820707 0.00142674 
0.06716415 0.09750966 0.01994521 0.00401617 0.00321734 0.00224836 0.01451199 0.00973747 0.04877542 0.00279165 0.00456728 0.12506134 0.00777456 0.01071041 0.02812028 0.00143100 
0.06769278 0.09699206 0.02039900 0.00402513 0.00326740 0.00218595 0.01460254 0.00975828 0.04801384 0.00279878 0.00461429 0.12643132 0.00769130 0.01073453 0.02801008 0.00143446 
0.06823574 0.09644755 0.02081945 0.00403226 0.00331598 0.00212603 0.01468950 0.00976690 0.04727599 0.00280729 0.00466073 0.12773820 0.00761254 0.01076006 0.02787771 0.00143713 
0.06879001 0.09588016 0.02120481 0.00403752 0.00336288 0.00206890 0.01477270 0.00976337 0.04656296 0.00281704 0.00470624 0.12897669 0.00753846 0.01078684 0.02772450 0.00143904 
0.06935229 0.09529387 0.02155345 0.00404084 0.00340791 0.00201481 0.01485203 0.00974780 0.04587565 0.00282788 0.00475050 0.13014196 0.00746921 0.01081470 0.02755188 0.00144021 
0.06991903 0.09469260 0.02186396 0.00404217 0.00345089 0.00196404 0.01492746 0.00972033 0.04521476 0.00283968 0.00479317 0.13122962 0.00740491 0.01084347 0.02736134 0.00144066 
0.07048648 0.09408020 0.02213510 0.00404146 0.00349164 0.00191684 0.01499904 0.00968121 0.04458081 0.00285230 0.00483394 0.13223571 0.00734564 0.01087293 0.02715445 0.00144042 
0.07105067 0.09346041 0.02236580 0.00403867 0.00353000 0.00187344 0.01506689 0.00963072 0.04397411 0.00286559 0.00487250 0.13315675 0.00729147 0.01090287 0.02693283 0.00143952 
0.07160750 0.09283686 0.02255521 0.00403377 0.00356583 0.00183407 0.01513121 0.00956921 0.04339480 0.00287942 0.00490856 0.13398974 0.00724240 0.01093307 0.02669814 0.00143801 
0.07215270 0.09221304 0.02270268 0.00402673 0.00359900 0.00179893 0.01519227 0.00949707 0.04284283 0.00289366 0.00494185 0.13473212 0.00719842 0.01096326 0.02645208 0.00143591 
0.07268192 0.09159229 0.02280776 0.00401754 0.00362938 0.00176820 0.01525040 0.00941478 0.04231798 0.00290817 0.00497212 0.13538180 0.00715950 0.01099321 0.02619639 0.00143327 
0.07319074 0.09097778 0.02287021 0.00400619 0.00365686 0.00174207 0.01530602 0.00932284 0.04181987 0.00292285 0.00499912 0.13593717 0.00712557 0.01102266 0.02593279 0.00143013 
0.07367469 0.09037249 0.02289000 0.00399268 0.00368138 0.00172067 0.01535958 0.00922182 0.04134794 0.00293755 0.00502264 0.13639705 0.00709653 0.01105133 0.02566303 0.00142653 
0.07412931 0.08977918 0.02286732 0.00397703 0.00370284 0.00170413 0.01541162 0.00911230 0.04090150 0.00295219 0.00504250 0.13676071 0.00707225 0.01107895 0.02538884 0.00142251 
0.07455015 0.08920043 0.02280257 0.00395924 0.00372121 0.00169256 0.01546271 0.00899495 0.04047972 0.00296665 0.00505853 0.13702786 0.00705258 0.01110527 0.02511196 0.00141812 
0.07493285 0.08863856 0.02269634 0.00393936 0.00373643 0.00168603 0.01551347 0.00887044 0.04008163 0.00298084 0.00507060 0.13719864 0.00703735 0.01113000 0.02483407 0.00141341 
0.07527310 0.08809566 0.02254944 0.00391742 0.00374850 0.00168459 0.01556458 0.00873950 0.03970616 0.00299467 0.00507858 0.13727359 0.00702638 0.01115290 0.02455683 0.00140841 
0.07556676 0.08757357 0.02236289 0.00389346 0.00375740 0.00168827 0.01561671 0.00860286 0.03935214 0.00300807 0.00508239 0.13725364 0.00701944 0.01117370 0.02428186 0.00140317 
0.07580981 0.08707388 0.02213787 0.00386756 0.00376315 0.00169707 0.01567061 0.00846129 0.03901830 0.00302095 0.00508197 0.13714011 0.00701630 0.01119217 0.02401072 0.00139775 
0.07599843 0.08659790 0.02187578 0.00383976 0.00376579 0.00171097 0.01572702 0.00831560 0.03870329 0.00303327 0.00507729 0.13693466 0.00701672 0.01120806 0.02374491 0.00139217 
0.07612903 0.08614667 0.02157818 0.00381017 0.00376537 0.00172992 0.01578668 0.00816658 0.03840572 0.00304497 0.00506834 0.13663930 0.00702044 0.01122117 0.02348586 0.00138649 
0.07619823 0.08572097 0.02124679 0.00377885 0.00376194 0.00175383 0.01585037 0.00801505 0.03812414 0.00305601 0.00505514 0.13625636 0.00702720 0.01123130 0.02323494 0.00138074 
0.07620295 0.08532128 0.02088352 0.00374592 0.00375558 0.00178261 0.01591883 0.00786185 0.03785708 0.00306635 0.00503775 0.13578847 0.00703670 0.01123827 0.02299343 0.00137496 
0.07614037 0.08494781 0.02049039 0.00371147 0.00374640 0.00181611 0.01599282 0.00770778 0.03760304 0.00307598 0.00501624 0.13523853 0.00704866 0.01124191 0.02276252 0.00136920 
0.07600799 0.08460051 0.02006958 0.00367562 0.00373450 0.00185417 0.01607306 0.00755368 0.03736053 0.00308487 0.00499071 0.13460970 0.00706280 0.01124212 0.02254330 0.00136348 
0.07580367 0.08427902 0.01962337 0.00363850 0.00372001 0.00189662 0.01616025 0.00740037 0.03712806 0.00309301 0.00496129 0.13390535 0.00707881 0.01123877 0.02233678 0.00135785 
0.07552558 0.08398276 0.01915415 0.00360024 0.00370305 0.00194325 0.01625505 0.00724864 0.03690419 0.00310042 0.00492812 0.13312910 0.00709641 0.01123180 0.02214387 0.00135234 
0.07517228 0.08371084 0.01866442 0.00356098 0.00368377 0.00199381 0.01635808 0.00709929 0.03668750 0.00310710 0.00489138 0.13228473 0.00711529 0.01122117 0.02196536 0.00134696 
0.07474270 0.08346214 0.01815674 0.00352086 0.00366232 0.00204805 0.01646993 0.00695308 0.03647663 0.00311305 0.00485126 0.13137618 0.00713517 0.01120686 0.02180196 0.00134176 
0.07423615 0.08323530 0.01763374 0.00348005 0.00363888 0.00210570 0.01659109 0.00681076 0.03627029 0.00311832 0.00480798 0.13040755 0.00715575 0.01118889 0.02165425 0.00133676 
0.07365236 0.08302870 0.01709809 0.00343870 0.00361361 0.00216645 0.01672204 0.00667304 0.03606726 0.00312292 0.00476176 0.12938305 0.00717676 0.01116731 0.02152271 0.00133197 
0.07299142 0.08284054 0.01655248 0.00339698 0.00358669 0.00222999 0.01686315 0.00654061 0.03586642 0.00312690 0.00471285 0.12830700 0.00719791 0.01114223 0.02140772 0.00132742 
0.07225386 0.08266879 0.01599964 0.00335505 0.00355830 0.00229598 0.01701473 0.00641410 0.03566675 0.00313028 0.00466152 0.12718379 0.00721895 0.01111376 0.02130953 0.00132313 
0.07144059 0.08251121 0.01544229 0.00331310 0.00352863 0.00236407 0.01717702 0.00629414 0.03546733 0.00313312 0.00460804 0.12601788 0.00723961 0.01108207 0.02122832 0.00131910 
0.07055292 0.08236544 0.01488312 0.00327128 0.00349786 0.00243389 0.01735016 0.00618128 0.03526736 0.00313546 0.00455269 0.12481376 0.00725965 0.01104734 0.02116413 0.00131536 
0.06959258 0.08222892 0.01432478 0.00322979 0.00346619 0.00250507 0.01753422 0.00607605 0.03506617 0.00313736 0.00449578 0.12357593 0.00727883 0.01100982 0.02111691 0.00131190 
0.06856165 0.08209898 0.01376992 0.00318880 0.00343379 0.00257722 0.01772918 0.00597893 0.03486320 0.00313886 0.00443759 0.12230894 0.00729693 0.01096976 0.02108650 0.00130874 
0.06746260 0.08197282 0.01322106 0.00314849 0.00340086 0.00264994 0.01793490 0.00589033 0.03465804 0.00314003 0.00437845 0.12101727 0.00731374 0.01092746 0.02107265 0.00130587 
0.06629828 0.08184756 0.01268070 0.00310903 0.00336759 0.00272284 0.01815119 0.00581064 0.03445042 0.00314091 0.00431865 0.11970542 0.00732907 0.01088326 0.02107503 0.00130331 
0.06507186 0.08172025 0.01215122 0.00307060 0.00333414 0.00279552 0.01837772 0.00574018 0.03424019 0.00314156 0.00425851 0.11837782 0.00734272 0.01083751 0.02109319 0.00130105 
0.06378685 0.08158789 0.01163490 0.00303336 0.00330069 0.00286757 0.01861412 0.00567921 0.03402736 0.00314204 0.00419834 0.11703886 0.00735454 0.01079060 0.02112660 0.00129908 
0.06244708 0.08144744 0.01113391 0.00299749 0.00326741 0.00293858 0.01885987 0.00562795 0.03381206 0.00314241 0.00413845 0.11569283 0.00736436 0.01074295 0.02117468 0.00129740 
0.06105667 0.08129587 0.01065031 0.00296314 0.00323447 0.00300816 0.01911441 0.00558655 0.03359456 0.00314271 0.00407913 0.11434398 0.00737206 0.01069498 0.02123673 0.00129601 
0.05961999 0.08113019 0.01018598 0.00293046 0.00320200 0.00307592 0.01937705 0.00555513 0.03337526 0.00314301 0.00402069 0.11299644 0.00737750 0.01064717 0.02131201 0.00129490 
0.05814167 0.08094743 0.00974270 0.00289961 0.00317016 0.00314146 0.01964705 0.00553372 0.03315470 0.00314333 0.00396340 0.11165424 0.00738057 0.01059998 0.02139970 0.00129405 
0.05662655 0.08074469 0.00932208 0.00287072 0.00313908 0.00320442 0.01992355 0.00552232 0.03293353 0.00314375 0.00390756 0.11032131 0.00738117 0.01055391 0.02149893 0.00129345 
0.05507965 0.08051917 0.00892557 0.00284391 0.00310887 0.00326444 0.02020566 0.00552086 0.03271251 0.00314429 0.00385341 0.10900145 0.00737923 0.01050946 0.02160878 0.00129310 
0.05350617 0.08026819 0.00855445 0.00281931 0.00307966 0.00332117 0.02049238 0.00552924 0.03249251 0.00314499 0.00380122 0.10769832 0.00737466 0.01046714 0.02172826 0.00129297 
0.05191143 0.07998920 0.00820983 0.00279702 0.00305154 0.00337427 0.02078267 0.00554727 0.03227451 0.00314590 0.00375122 0.10641548 0.00736742 0.01042748 0.02185637 0.00129306 
0.05030085 0.07967979 0.00789265 0.00277713 0.00302460 0.00342344 0.02107541 0.00557474 0.03205954 0.00314705 0.00370364 0.10515631 0.00735744 0.01039098 0.02199206 0.00129334 
0.04867993 0.07933775 0.00760369 0.00275974 0.00299892 0.00346839 0.02136945 0.00561137 0.03184875 0.00314845 0.00365868 0.10392405 0.00734471 0.01035816 0.02213426 0.00129381 
0.04705420 0.07896106 0.00734353 0.00274490 0.00297456 0.00350884 0.02166360 0.00565686 0.03164333 0.00315014 0.00361654 0.10272181 0.00732919 0.01032953 0.02228186 0.00129444 
0.04542922 0.07854789 0.00711258 0.00273266 0.00295158 0.00354456 0.02195661 0.00571084 0.03144450 0.00315214 0.00357737 0.10155251 0.00731086 0.01030558 0.02243376 0.00129521 
0.04381049 0.07809668 0.00691108 0.00272308 0.00293002 0.00357533 0.02224723 0.00577290 0.03125357 0.00315445 0.00354134 0.10041894 0.00728973 0.01028680 0.02258884 0.00129612 
0.04220350 0.07760608 0.00673909 0.00271617 0.00290992 0.00360095 0.02253418 0.00584260 0.03107182 0.00315710 0.00350859 0.09932370 0.00726578 0.01027365 0.02274597 0.00129714 
0.04061364 0.07707500 0.00659652 0.00271195 0.00289129 0.00362125 0.02281618 0.00591945 0.03090058 0.00316008 0.00347921 0.09826923 0.00723905 0.01026658 0.02290404 0.00129826 
0.03904619 0.07650265 0.00648308 0.00271040 0.00287414 0.00363611 0.02309195 0.00600295 0.03074116 0.00316341 0.00345331 0.09725780 0.00720953 0.01026599 0.02306194 0.00129945 
0.03750629 0.07588849 0.00639837 0.00271152 0.00285848 0.00364542 0.02336022 0.00609254 0.03059486 0.00316707 0.00343096 0.09629150 0.00717725 0.01027227 0.02321857 0.00130071 
0.03599893 0.07523227 0.00634180 0.00271526 0.00284429 0.00364911 0.02361975 0.00618765 0.03046294 0.00317108 0.00341222 0.09537226 0.00714225 0.01028577 0.02337285 0.00130202 
0.03452887 0.07453403 0.00631264 0.00272157 0.00283155 0.00364712 0.02386933 0.00628768 0.03034662 0.00317541 0.00339711 0.09450180 0.00710455 0.01030680 0.02352374 0.00130336 
0.03310070 0.07379414 0.00631005 0.00273039 0.00282025 0.00363945 0.02410777 0.00639202 0.03024707 0.00318007 0.00338566 0.09368168 0.00706420 0.01033564 0.02367020 0.00130472 
0.03171874 0.07301324 0.00633305 0.00274163 0.00281034 0.00362611 0.02433396 0.00650002 0.03016539 0.00318504 0.00337787 0.09291328 0.00702124 0.01037253 0.02381126 0.00130609 
0.03038705 0.07219227 0.00638052 0.00275520 0.00280178 0.00360716 0.02454685 0.00661105 0.03010258 0.00319030 0.00337370 0.09219779 0.00697571 0.01041763 0.02394596 0.00130744 
0.02910941 0.07133248 0.00645128 0.00277099 0.00279453 0.00358267 0.02474542 0.00672444 0.03005957 0.00319586 0.00337313 0.09153622 0.00692765 0.01047110 0.02407340 0.00130878 
0.02788932 0.07043543 0.00654403 0.00278888 0.00278854 0.00355276 0.02492878 0.00683953 0.03003718 0.00320168 0.00337609 0.09092937 0.00687713 0.01053301 0.02419270 0.00131009 
0.02672993 0.06950295 0.00665737 0.00280873 0.00278375 0.00351756 0.02509608 0.00695565 0.03003611 0.00320775 0.00338252 0.09037789 0.00682418 0.01060341 0.02430305 0.00131135 
0.02563409 0.06853716 0.00678987 0.00283040 0.00278009 0.00347724 0.02524659 0.00707215 0.03005693 0.00321406 0.00339233 0.08988220 0.00676887 0.01068226 0.02440368 0.00131256 
0.02460429 0.06754047 0.00694002 0.00285374 0.00277752 0.00343201 0.02537966 0.00718836 0.03010010 0.00322060 0.00340541 0.08944257 0.00671125 0.01076950 0.02449388 0.00131372 
0.02364268 0.06651553 0.00710626 0.00287856 0.00277596 0.00338208 0.02549476 0.00730364 0.03016592 0.00322735 0.00342167 0.08905905 0.00665137 0.01086500 0.02457299 0.00131481 
0.02275105 0.06546526 0.00728700 0.00290469 0.00277535 0.00332770 0.02559145 0.00741734 0.03025457 0.00323429 0.00344097 0.08873152 0.00658929 0.01096857 0.02464041 0.00131582 
0.02193083 0.06439283 0.00748063 0.00293196 0.00277563 0.00326916 0.02566944 0.00752885 0.03036606 0.00324141 0.00346317 0.08845966 0.00652507 0.01107996 0.02469558 0.00131676 
0.02118306 0.06330160 0.00768554 0.00296017 0.00277672 0.00320674 0.02572851 0.00763758 0.03050027 0.00324871 0.00348814 0.08824296 0.00645876 0.01119889 0.02473802 0.00131762 
0.02050846 0.06219516 0.00790011 0.00298913 0.00277857 0.00314076 0.02576860 0.00774292 0.03065690 0.00325618 0.00351572 0.08808074 0.00639043 0.01132499 0.02476731 0.00131840 
0.01990734 0.06107730 0.00812274 0.00301862 0.00278112 0.00307157 0.02578975 0.00784435 0.03083551 0.00326381 0.00354575 0.08797210 0.00632013 0.01145787 0.02478307 0.00131908 
0.01937967 0.05995194 0.00835186 0.00304846 0.00278429 0.00299951 0.02579213 0.00794132 0.03103553 0.00327160 0.00357807 0.08791598 0.00624793 0.01159706 0.02478499 0.00131968 
0.01892507 0.05882319 0.00858594 0.00307842 0.00278805 0.00292496 0.02577604 0.00803335 0.03125620 0.00327955 0.00361251 0.08791114 0.00617388 0.01174206 0.02477282 0.00132019 
0.01854281 0.05769525 0.00882350 0.00310832 0.00279232 0.00284830 0.02574187 0.00811996 0.03149662 0.00328767 0.00364889 0.08795613 0.00609806 0.01189232 0.02474637 0.00132061 
0.01823183 0.05657246 0.00906311 0.00313793 0.00279706 0.00276991 0.02569018 0.00820074 0.03175577 0.00329596 0.00368704 0.08804936 0.00602052 0.01204723 0.02470551 0.00132094 
0.01799072 0.05545921 0.00930341 0.00316707 0.00280223 0.00269022 0.02562161 0.00827529 0.03203246 0.00330443 0.00372679 0.08818904 0.00594134 0.01220615 0.02465016 0.00132118 
0.01781780 0.05435997 0.00954313 0.00319552 0.00280777 0.00260961 0.02553692 0.00834326 0.03232538 0.00331310 0.00376795 0.08837322 0.00586058 0.01236841 0.02458030 0.00132134 
0.01771107 0.05327923 0.00978107 0.00322309 0.00281365 0.00252852 0.02543699 0.00840433 0.03263310 0.00332198 0.00381036 0.08859979 0.00577833 0.01253329 0.02449596 0.00132141 
0.01766825 0.05222150 0.01001613 0.00324959 0.00281983 0.00244736 0.02532278 0.00845825 0.03295406 0.00333109 0.00385384 0.08886648 0.00569466 0.01270005 0.02439723 0.00132141 
0.01768684 0.05119126 0.01024730 0.00327484 0.00282629 0.00236654 0.02519538 0.00850477 0.03328659 0.00334046 0.00389823 0.08917087 0.00560965 0.01286793 0.02428425 0.00132132 
0.01776405 0.05019297 0.01047370 0.00329867 0.00283299 0.00228648 0.02505592 0.00854372 0.03362895 0.00335010 0.00394334 0.08951039 0.00552339 0.01303612 0.02415722 0.00132116 
0.01789692 0.04923100 0.01069453 0.00332091 0.00283991 0.00220759 0.02490567 0.00857494 0.03397927 0.00336005 0.00398903 0.08988236 0.00543598 0.01320382 0.02401637 0.00132093 
0.01808226 0.04830967 0.01090912 0.00334140 0.00284703 0.00213028 0.02474591 0.00859835 0.03433564 0.00337034 0.00403512 0.09028393 0.00534751 0.01337022 0.02386199 0.00132063 
0.01831673 0.04743315 0.01111690 0.00336000 0.00285433 0.00205493 0.02457803 0.00861389 0.03469607 0.00338099 0.00408148 0.09071219 0.00525809 0.01353449 0.02369441 0.00132027 
0.01859683 0.04660550 0.01131743 0.00337657 0.00286181 0.00198194 0.02440345 0.00862154 0.03505853 0.00339204 0.00412796 0.09116409 0.00516784 0.01369580 0.02351401 0.00131985 
0.01891896 0.04583061 0.01151038 0.00339101 0.00286945 0.00191169 0.02422364 0.00862134 0.03542092 0.00340352 0.00417441 0.09163650 0.00507686 0.01385333 0.02332120 0.00131938 
0.01927938 0.04511221 0.01169554 0.00340320 0.00287725 0.00184451 0.02404008 0.00861336 0.03578116 0.00341546 0.00422070 0.09212620 0.00498529 0.01400627 0.02311645 0.00131886 
0.01967431 0.04445379 0.01187281 0.00341305 0.00288519 0.00178077 0.02385431 0.00859772 0.03613713 0.00342790 0.00426671 0.09262994 0.00489327 0.01415381 0.02290025 0.00131829 
0.02009990 0.04385866 0.01204222 0.00342050 0.00289329 0.00172078 0.02366783 0.00857456 0.03648671 0.00344086 0.00431231 0.09314437 0.00480094 0.01429519 0.02267314 0.00131768 
0.02055228 0.04332988 0.01220389 0.00342547 0.00290152 0.00166486 0.02348218 0.00854409 0.03682781 0.00345438 0.00435740 0.09366614 0.00470845 0.01442963 0.02243568 0.00131703 
0.02102757 0.04287025 0.01235807 0.00342792 0.00290991 0.00161327 0.02329885 0.00850653 0.03715837 0.00346848 0.00440187 0.09419187 0.00461596 0.01455643 0.02218847 0.00131635 
0.02152191 0.04248229 0.01250508 0.00342782 0.00291844 0.00156629 0.02311932 0.00846214 0.03747634 0.00348320 0.00444561 0.09471817 0.00452366 0.01467488 0.02193216 0.00131565 
0.02203150 0.04216825 0.01264536 0.00342517 0.00292711 0.00152416 0.02294503 0.00841122 0.03777977 0.00349855 0.00448855 0.09524169 0.00443172 0.01478433 0.02166740 0.00131492 
0.02255258 0.04193006 0.01277944 0.00341996 0.00293593 0.00148708 0.02277738 0.00835409 0.03806673 0.00351456 0.00453060 0.09575907 0.00434034 0.01488419 0.02139489 0.00131416 
0.02308147 0.04176933 0.01290793 0.00341222 0.00294489 0.00145525 0.02261769 0.00829112 0.03833541 0.00353123 0.00457167 0.09626703 0.00424971 0.01497388 0.02111534 0.00131339 
0.02361461 0.04168738 0.01303150 0.00340198 0.00295400 0.00142883 0.02246721 0.00822269 0.03858406 0.00354859 0.00461171 0.09676234 0.00416005 0.01505290 0.02082950 0.00131261 
0.02414857 0.04168516 0.01315090 0.00338929 0.00296325 0.00140796 0.02232712 0.00814919 0.03881103 0.00356664 0.00465064 0.09724188 0.00407159 0.01512080 0.02053814 0.00131182 
0.02468001 0.04176329 0.01326694 0.00337422 0.00297264 0.00139274 0.02219851 0.00807107 0.03901481 0.00358538 0.00468840 0.09770260 0.00398455 0.01517717 0.02024205 0.00131102 
0.02520580 0.04192203 0.01338048 0.00335685 0.00298216 0.00138326 0.02208236 0.00798875 0.03919397 0.00360481 0.00472495 0.09814160 0.00389917 0.01522169 0.01994205 0.00131022 
0.02572295 0.04216131 0.01349241 0.00333728 0.00299180 0.00137957 0.02197955 0.00790270 0.03934723 0.00362492 0.00476024 0.09855611 0.00381571 0.01525409 0.01963897 0.00130941 
0.02622863 0.04248069 0.01360366 0.00331562 0.00300155 0.00138168 0.02189083 0.00781339 0.03947345 0.00364569 0.00479422 0.09894351 0.00373441 0.01527415 0.01933365 0.00130861 
0.02672023 0.04287937 0.01371517 0.00329200 0.00301140 0.00138961 0.02181685 0.00772130 0.03957160 0.00366710 0.00482686 0.09930136 0.00365555 0.01528174 0.01902696 0.00130782 
0.02719532 0.04335619 0.01382790 0.00326656 0.00302133 0.00140332 0.02175811 0.00762692 0.03964085 0.00368912 0.00485812 0.09962742 0.00357939 0.01527679 0.01871980 0.00130703 
0.02765169 0.04390964 0.01394279 0.00323943 0.00303132 0.00142275 0.02171501 0.00753074 0.03968047 0.00371172 0.00488797 0.09991965 0.00350621 0.01525929 0.01841304 0.00130626 
0.02808732 0.04453786 0.01406079 0.00321079 0.00304136 0.00144782 0.02168777 0.00743325 0.03968992 0.00373486 0.00491639 0.10017625 0.00343630 0.01522931 0.01810760 0.00130550 
0.02850042 0.04523864 0.01418282 0.00318080 0.00305142 0.00147841 0.02167651 0.00733495 0.03966882 0.00375848 0.00494335 0.10039563 0.00336993 0.01518699 0.01780439 0.00130476 
0.02888941 0.04600944 0.01430976 0.00314964 0.00306147 0.00151439 0.02168120 0.00723632 0.03961692 0.00378254 0.00496883 0.10057647 0.00330740 0.01513252 0.01750434 0.00130405 
0.02925292 0.04684738 0.01444247 0.00311751 0.00307149 0.00155560 0.02170165 0.00713783 0.03953416 0.00380697 0.00499282 0.10071771 0.00324899 0.01506617 0.01720837 0.00130335 
0.02958982 0.04774927 0.01458175 0.00308458 0.00308144 0.00160184 0.02173756 0.00703997 0.03942065 0.00383170 0.00501529 0.10081857 0.00319500 0.01498828 0.01691742 0.00130268 
0.02989917 0.04871159 0.01472832 0.00305108 0.00309129 0.00165293 0.02178848 0.00694318 0.03927664 0.00385666 0.00503623 0.10087854 0.00314571 0.01489925 0.01663241 0.00130205 
0.03018023 0.04973056 0.01488286 0.00301719 0.00310101 0.00170861 0.02185382 0.00684791 0.03910256 0.00388178 0.00505563 0.10089742 0.00310140 0.01479952 0.01635428 0.00130144 
0.03043249 0.05080209 0.01504597 0.00298313 0.00311056 0.00176865 0.02193287 0.00675459 0.03889897 0.00390696 0.00507348 0.10087530 0.00306236 0.01468962 0.01608395 0.00130088 
0.03065562 0.05192184 0.01521816 0.00294911 0.00311990 0.00183277 0.02202479 0.00666362 0.03866662 0.00393212 0.00508977 0.10081256 0.00302886 0.01457011 0.01582234 0.00130035 
0.03084949 0.05308523 0.01539984 0.00291534 0.00312900 0.00190070 0.02212863 0.00657538 0.03840638 0.00395716 0.00510448 0.10070991 0.00300117 0.01444161 0.01557036 0.00129988 
0.03101412 0.05428745 0.01559134 0.00288203 0.00313782 0.00197211 0.02224332 0.00649024 0.03811928 0.00398199 0.00511762 0.10056834 0.00297954 0.01430479 0.01532890 0.00129945 
0.03114973 0.05552346 0.01579290 0.00284940 0.00314632 0.00204671 0.02236768 0.00640854 0.03780649 0.00400650 0.00512917 0.10038916 0.00296422 0.01416035 0.01509884 0.00129907 
0.03125668 0.05678809 0.01600462 0.00281765 0.00315446 0.00212415 0.02250044 0.00633059 0.03746930 0.00403059 0.00513914 0.10017399 0.00295545 0.01400903 0.01488103 0.00129875 
0.03133549 0.05807595 0.01622652 0.00278699 0.00316220 0.00220409 0.02264026 0.00625668 0.03710913 0.00405416 0.00514750 0.09992473 0.00295344 0.01385163 0.01467632 0.00129849 
0.03138679 0.05938154 0.01645849 0.00275761 0.00316952 0.00228619 0.02278571 0.00618706 0.03672751 0.00407710 0.00515427 0.09964358 0.00295840 0.01368895 0.01448550 0.00129829 
0.03141136 0.06069925 0.01670031 0.00272972 0.00317637 0.00237009 0.02293530 0.00612196 0.03632609 0.00409929 0.00515943 0.09933301 0.00297051 0.01352182 0.01430935 0.00129817 
0.03141005 0.06202336 0.01695166 0.00270349 0.00318273 0.00245541 0.02308748 0.00606158 0.03590660 0.00412063 0.00516299 0.09899577 0.00298994 0.01335108 0.01414861 0.00129812 
0.03138384 0.06334812 0.01721209 0.00267911 0.00318857 0.00254179 0.02324068 0.00600609 0.03547087 0.00414101 0.00516494 0.09863486 0.00301683 0.01317761 0.01400397 0.00129815 
0.03133377 0.06466771 0.01748103 0.00265675 0.00319385 0.00262886 0.02339328 0.00595562 0.03502079 0.00416032 0.00516529 0.09825352 0.00305129 0.01300227 0.01387610 0.00129826 
0.03126094 0.06597632 0.01775782 0.00263656 0.00319857 0.00271623 0.02354365 0.00591027 0.03455834 0.00417845 0.00516404 0.09785520 0.00309343 0.01282594 0.01376561 0.00129846 
0.03116653 0.06726814 0.01804166 0.00261870 0.00320268 0.00280354 0.02369019 0.00587012 0.03408552 0.00419530 0.00516119 0.09744359 0.00314331 0.01264949 0.01367304 0.00129875 
0.03105174 0.06853744 0.01833166 0.00260331 0.00320619 0.00289041 0.02383125 0.00583521 0.03360440 0.00421078 0.00515675 0.09702251 0.00320099 0.01247377 0.01359891 0.00129913 
0.03091780 0.06977852 0.01862684 0.00259051 0.00320907 0.00297648 0.02396527 0.00580556 0.03311707 0.00422477 0.00515073 0.09659599 0.00326646 0.01229964 0.01354365 0.00129961 
0.03076596 0.07098582 0.01892609 0.00258041 0.00321133 0.00306138 0.02409067 0.00578113 0.03262563 0.00423719 0.00514313 0.09616815 0.00333971 0.01212793 0.01350765 0.00130020 
0.03059746 0.07215388 0.01922824 0.00257311 0.00321294 0.00314476 0.02420595 0.00576189 0.03213220 0.00424795 0.00513397 0.09574325 0.00342070 0.01195943 0.01349121 0.00130089 
0.03041356 0.07327741 0.01953202 0.00256870 0.00321393 0.00322627 0.02430967 0.00574776 0.03163889 0.00425697 0.00512326 0.09532562 0.00350934 0.01179494 0.01349459 0.00130169 
0.03021548 0.07435130 0.01983608 0.00256724 0.00321428 0.00330557 0.02440046 0.00573863 0.03114778 0.00426416 0.00511103 0.09491964 0.00360553 0.01163519 0.01351794 0.00130260 
0.03000443 0.07537063 0.02013900 0.00256880 0.00321400 0.00338234 0.02447701 0.00573437 0.03066094 0.00426946 0.00509729 0.09452972 0.00370912 0.01148090 0.01356136 0.00130363 
0.02978157 0.07633073 0.02043932 0.00257341 0.00321312 0.00345627 0.02453814 0.00573482 0.03018036 0.00427279 0.00508207 0.09416026 0.00381992 0.01133272 0.01362486 0.00130477 
0.02954804 0.07722720 0.02073550 0.00258110 0.00321164 0.00352705 0.02458276 0.00573980 0.02970803 0.00427411 0.00506539 0.09381562 0.00393773 0.01119129 0.01370836 0.00130603 
0.02930491 0.07805589 0.02102598 0.00259187 0.00320959 0.00359441 0.02460988 0.00574910 0.02924583 0.00427336 0.00504729 0.09350008 0.00406229 0.01105717 0.01381171 0.00130740 
0.02905322 0.07881296 0.02130915 0.00260573 0.00320700 0.00365808 0.02461865 0.00576251 0.02879558 0.00427049 0.00502781 0.09321785 0.00419334 0.01093088 0.01393467 0.00130889 
0.02879394 0.07949490 0.02158339 0.00262264 0.00320388 0.00371780 0.02460833 0.00577978 0.02835901 0.00426547 0.00500697 0.09297298 0.00433054 0.01081290 0.01407690 0.00131049 
0.02852798 0.08009855 0.02184707 0.00264257 0.00320027 0.00377336 0.02457832 0.00580064 0.02793777 0.00425828 0.00498483 0.09276936 0.00447355 0.01070363 0.01423798 0.00131221 
0.02825619 0.08062107 0.02209856 0.00266547 0.00319621 0.00382453 0.02452818 0.00582482 0.02753339 0.00424889 0.00496143 0.09261070 0.00462199 0.01060344 0.01441740 0.00131403 
0.02797938 0.08106004 0.02233623 0.00269127 0.00319173 0.00387112 0.02445759 0.00585203 0.02714728 0.00423729 0.00493682 0.09250047 0.00477545 0.01051260 0.01461455 0.00131597 
0.02769826 0.08141339 0.02255849 0.00271990 0.00318686 0.00391298 0.02436637 0.00588198 0.02678075 0.00422348 0.00491105 0.09244190 0.00493349 0.01043136 0.01482874 0.00131800 
0.02741350 0.08167946 0.02276376 0.00275125 0.00318166 0.00394994 0.02425451 0.00591434 0.02643496 0.00420747 0.00488420 0.09243792 0.00509563 0.01035988 0.01505919 0.00132014 
0.02712573 0.08185701 0.02295053 0.00278523 0.00317616 0.00398188 0.02412214 0.00594882 0.02611096 0.00418926 0.00485632 0.09249116 0.00526138 0.01029827 0.01530503 0.00132236 
0.02683548 0.08194520 0.02311732 0.00282170 0.00317040 0.00400869 0.02396952 0.00598507 0.02580963 0.00416887 0.00482747 0.09260393 0.00543020 0.01024658 0.01556530 0.00132467 
0.02654328 0.08194361 0.02326273 0.00286054 0.00316442 0.00403031 0.02379709 0.00602279 0.02553174 0.00414635 0.00479773 0.09277817 0.00560154 0.01020478 0.01583897 0.00132705 
0.02624956 0.08185224 0.02338544 0.00290161 0.00315827 0.00404665 0.02360540 0.00606165 0.02527789 0.00412172 0.00476718 0.09301543 0.00577485 0.01017280 0.01612490 0.00132950 
0.02595476 0.08167153 0.02348418 0.00294475 0.00315199 0.00405770 0.02339517 0.00610132 0.02504855 0.00409502 0.00473589 0.09331688 0.00594951 0.01015050 0.01642191 0.00133200 
0.02565923 0.08140231 0.02355783 0.00298980 0.00314562 0.00406344 0.02316723 0.00614149 0.02484401 0.00406632 0.00470394 0.09368328 0.00612493 0.01013769 0.01672872 0.00133455 
0.02536334 0.08104586 0.02360531 0.00303659 0.00313918 0.00406388 0.02292254 0.00618184 0.02466445 0.00403567 0.00467142 0.09411495 0.00630049 0.01013410 0.01704400 0.00133713 
0.02506740 0.08060383 0.02362571 0.00308495 0.00313273 0.00405905 0.02266220 0.00622208 0.02450986 0.00400312 0.00463841 0.09461177 0.00647553 0.01013944 0.01736633 0.00133972 
0.02477172 0.08007830 0.02361818 0.00313469 0.00312629 0.00404901 0.02238740 0.00626190 0.02438012 0.00396877 0.00460501 0.09517318 0.00664942 0.01015333 0.01769427 0.00134232 
0.02447660 0.07947172 0.02358203 0.00318561 0.00311990 0.00403384 0.02209945 0.00630104 0.02427494 0.00393267 0.00457131 0.09579816 0.00682151 0.01017538 0.01802629 0.00134491 
0.02418232 0.07878692 0.02351669 0.00323754 0.00311357 0.00401364 0.02179976 0.00633921 0.02419390 0.00389492 0.00453740 0.09648524 0.00699115 0.01020512 0.01836085 0.00134747 
0.02388919 0.07802709 0.02342173 0.00329026 0.00310733 0.00398853 0.02148979 0.00637617 0.02413645 0.00385560 0.00450337 0.09723249 0.00715767 0.01024207 0.01869635 0.00134998 
0.02359751 0.07719573 0.02329685 0.00334359 0.00310120 0.00395865 0.02117111 0.00641167 0.02410189 0.00381481 0.00446933 0.09803753 0.00732042 0.01028567 0.01903116 0.00135243 
0.02330761 0.07629669 0.02314188 0.00339732 0.00309519 0.00392417 0.02084534 0.00644551 0.02408942 0.00377264 0.00443536 0.09889753 0.00747877 0.01033537 0.01936364 0.00135479 
0.02301982 0.07533410 0.02295682 0.00345126 0.00308931 0.00388528 0.02051414 0.00647748 0.02409810 0.00372919 0.00440156 0.09980924 0.00763207 0.01039057 0.01969213 0.00135706 
0.02273454 0.07431236 0.02274181 0.00350520 0.00308357 0.00384216 0.02017921 0.00650741 0.02412692 0.00368457 0.00436802 0.10076898 0.00777970 0.01045062 0.02001496 0.00135920 
0.02245217 0.07323611 0.02249711 0.00355896 0.00307796 0.00379505 0.01984229 0.00653514 0.02417472 0.00363888 0.00433484 0.10177265 0.00792106 0.01051490 0.02033048 0.00136120 
0.02217317 0.07211023 0.02222316 0.00361233 0.00307247 0.00374417 0.01950510 0.00656054 0.02424031 0.00359224 0.00430211 0.10281579 0.00805555 0.01058271 0.02063702 0.00136304 
0.02189803 0.07093974 0.02192052 0.00366513 0.00306710 0.00368979 0.01916939 0.00658349 0.02432237 0.00354475 0.00426992 0.10389355 0.00818261 0.01065340 0.02093297 0.00136469 
0.02162730 0.06972988 0.02158991 0.00371717 0.00306183 0.00363216 0.01883687 0.00660391 0.02441956 0.00349652 0.00423836 0.10500077 0.00830170 0.01072625 0.02121672 0.00136614 
0.02136157 0.06848596 0.02123217 0.00376827 0.00305662 0.00357157 0.01850925 0.00662174 0.02453043 0.00344768 0.00420750 0.10613197 0.00841231 0.01080059 0.02148671 0.00136736 
0.02110150 0.06721341 0.02084829 0.00381827 0.00305147 0.00350831 0.01818816 0.00663694 0.02465355 0.00339833 0.00417743 0.10728136 0.00851396 0.01087572 0.02174142 0.00136833 
0.02084777 0.06591774 0.02043939 0.00386700 0.00304633 0.00344269 0.01787523 0.00664949 0.02478740 0.00334859 0.00414822 0.10844294 0.00860621 0.01095096 0.02197942 0.00136903 
0.02060115 0.06460446 0.02000670 0.00391431 0.00304118 0.00337503 0.01757198 0.00665941 0.02493049 0.00329858 0.00411994 0.10961049 0.00868864 0.01102561 0.02219929 0.00136944 
0.02036245 0.06327910 0.01955159 0.00396003 0.00303596 0.00330563 0.01727987 0.00666672 0.02508128 0.00324841 0.00409266 0.11077759 0.00876089 0.01109903 0.02239974 0.00136954 
0.02013253 0.06194714 0.01907553 0.00400405 0.00303063 0.00323485 0.01700028 0.00667147 0.02523825 0.00319819 0.00406643 0.11193770 0.00882262 0.01117055 0.02257953 0.00136930 
0.01991230 0.06061402 0.01858010 0.00404622 0.00302515 0.00316301 0.01673450 0.00667376 0.02539992 0.00314805 0.00404131 0.11308419 0.00887355 0.01123956 0.02273752 0.00136871 
0.01970272 0.05928505 0.01806696 0.00408643 0.00301946 0.00309045 0.01648370 0.00667366 0.02556482 0.00309808 0.00401734 0.11421034 0.00891344 0.01130547 0.02287268 0.00136776 
0.01950479 0.05796544 0.01753787 0.00412457 0.00301351 0.00301753 0.01624894 0.00667130 0.02573150 0.00304841 0.00399457 0.11530943 0.00894210 0.01136769 0.02298405 0.00136642 
0.01931956 0.05666023 0.01699468 0.00416055 0.00300725 0.00294458 0.01603116 0.00666682 0.02589860 0.00299914 0.00397303 0.11637477 0.00895938 0.01142569 0.02307084 0.00136467 
0.01914809 0.05537428 0.01643929 0.00419427 0.00300061 0.00287196 0.01583119 0.00666037 0.02606479 0.00295039 0.00395275 0.11739972 0.00896519 0.01147898 0.02313232 0.00136250 
0.01899149 0.05411224 0.01587366 0.00422566 0.00299354 0.00280001 0.01564969 0.00665212 0.02622885 0.00290225 0.00393374 0.11837777 0.00895947 0.01152709 0.02316792 0.00135990 
0.01885088 0.05287852 0.01529980 0.00425465 0.00298598 0.00272908 0.01548723 0.00664224 0.02638960 0.00285483 0.00391603 0.11930253 0.00894224 0.01156960 0.02317719 0.00135686 
0.01872739 0.05167727 0.01471977 0.00428120 0.00297787 0.00265951 0.01534421 0.00663095 0.02654598 0.00280823 0.00389961 0.12016782 0.00891354 0.01160614 0.02315982 0.00135336 
0.01862216 0.05051236 0.01413563 0.00430525 0.00296914 0.00259163 0.01522088 0.00661843 0.02669702 0.00276256 0.00388449 0.12096768 0.00887348 0.01163637 0.02311563 0.00134940 
0.01853632 0.04938736 0.01354948 0.00432679 0.00295975 0.00252576 0.01511737 0.00660491 0.02684185 0.00271791 0.00387066 0.12169642 0.00882222 0.01166001 0.02304458 0.00134497 
0.01847100 0.04830552 0.01296341 0.00434578 0.00294964 0.00246224 0.01503365 0.00659061 0.02697974 0.00267437 0.00385810 0.12234866 0.00875996 0.01167682 0.02294676 0.00134007 
0.01842729 0.04726976 0.01237951 0.00436221 0.00293875 0.00240136 0.01496957 0.00657576 0.02711003 0.00263204 0.00384680 0.12291936 0.00868695 0.01168662 0.02282244 0.00133469 
0.01840627 0.04628265 0.01179986 0.00437609 0.00292704 0.00234343 0.01492480 0.00656058 0.02723223 0.00259101 0.00383673 0.12340385 0.00860350 0.01168928 0.02267199 0.00132883 
0.01840897 0.04534643 0.01122650 0.00438743 0.00291445 0.00228874 0.01489892 0.00654531 0.02734594 0.00255137 0.00382785 0.12379785 0.00850995 0.01168470 0.02249595 0.00132249 
0.01843637 0.04446295 0.01066144 0.00439624 0.00290095 0.00223755 0.01489134 0.00653017 0.02745092 0.00251321 0.00382014 0.12409753 0.00840670 0.01167285 0.02229500 0.00131569 
0.01848939 0.04363370 0.01010664 0.00440255 0.00288650 0.00219013 0.01490135 0.00651540 0.02754703 0.00247660 0.00381354 0.12429952 0.00829418 0.01165374 0.02206995 0.00130843 
0.01856888 0.04285981 0.00956399 0.00440640 0.00287107 0.00214671 0.01492814 0.00650121 0.02763427 0.00244163 0.00380801 0.12440093 0.00817286 0.01162743 0.02182176 0.00130071 
0.01867564 0.04214206 0.00903533 0.00440783 0.00285463 0.00210753 0.01497076 0.00648782 0.02771277 0.00240839 0.00380351 0.12439934 0.00804326 0.01159403 0.02155150 0.00129256 
0.01881035 0.04148084 0.00852243 0.00440690 0.00283716 0.00207279 0.01502818 0.00647544 0.02778279 0.00237695 0.00379998 0.12429288 0.00790593 0.01155369 0.02126039 0.00128398 
0.01897362 0.04087619 0.00802695 0.00440366 0.00281864 0.00204268 0.01509924 0.00646426 0.02784470 0.00234738 0.00379736 0.12408021 0.00776144 0.01150662 0.02094977 0.00127500 
0.01916596 0.04032782 0.00755048 0.00439819 0.00279908 0.00201735 0.01518272 0.00645448 0.02789900 0.00231977 0.00379559 0.12376050 0.00761042 0.01145305 0.02062109 0.00126564 
0.01938776 0.03983509 0.00709451 0.00439055 0.00277847 0.00199698 0.01527732 0.00644625 0.02794630 0.00229418 0.00379462 0.12333350 0.00745349 0.01139325 0.02027592 0.00125591 
0.01963932 0.03939705 0.00666040 0.00438083 0.00275682 0.00198166 0.01538166 0.00643974 0.02798731 0.00227068 0.00379439 0.12279947 0.00729131 0.01132755 0.01991590 0.00124585 
0.01992079 0.03901243 0.00624943 0.00436910 0.00273414 0.00197152 0.01549432 0.00643509 0.02802285 0.00224935 0.00379484 0.12215925 0.00712458 0.01125629 0.01954282 0.00123548 
0.02023224 0.03867968 0.00586273 0.00435547 0.00271046 0.00196662 0.01561382 0.00643243 0.02805383 0.00223026 0.00379590 0.12141420 0.00695398 0.01117986 0.01915850 0.00122484 
0.02057358 0.03839699 0.00550135 0.00434001 0.00268581 0.00196703 0.01573868 0.00643186 0.02808123 0.00221345 0.00379753 0.12056624 0.00678022 0.01109865 0.01876486 0.00121396 
0.02094460 0.03816229 0.00516617 0.00432283 0.00266023 0.00197278 0.01586736 0.00643348 0.02810613 0.00219902 0.00379966 0.11961778 0.00660403 0.01101311 0.01836389 0.00120288 
0.02134496 0.03797331 0.00485798 0.00430404 0.00263377 0.00198387 0.01599834 0.00643735 0.02812965 0.00218700 0.00380223 0.11857176 0.00642612 0.01092367 0.01795762 0.00119163 
0.02177420 0.03782757 0.00457740 0.00428373 0.00260648 0.00200029 0.01613010 0.00644352 0.02815297 0.00217747 0.00380521 0.11743162 0.00624723 0.01083082 0.01754813 0.00118026 
0.02223172 0.03772242 0.00432496 0.00426201 0.00257842 0.00202200 0.01626114 0.00645203 0.02817733 0.00217048 0.00380854 0.11620125 0.00606807 0.01073502 0.01713754 0.00116881 
0.02271678 0.03765508 0.00410101 0.00423899 0.00254968 0.00204894 0.01638998 0.00646290 0.02820397 0.00216608 0.00381217 0.11488500 0.00588936 0.01063678 0.01672797 0.00115732 
0.02322851 0.03762265 0.00390581 0.00421480 0.00252032 0.00208103 0.01651521 0.00647610 0.02823418 0.00216434 0.00381607 0.11348763 0.00571182 0.01053658 0.01632156 0.00114584 
0.02376594 0.03762214 0.00373945 0.00418953 0.00249044 0.00211814 0.01663543 0.00649162 0.02826923 0.00216530 0.00382021 0.11201431 0.00553613 0.01043493 0.01592044 0.00113442 
0.02432795 0.03765052 0.00360192 0.00416331 0.00246012 0.00216014 0.01674935 0.00650942 0.02831041 0.00216901 0.00382455 0.11047055 0.00536299 0.01033231 0.01552674 0.00112311 
0.02491331 0.03770471 0.00349305 0.00413626 0.00242947 0.00220688 0.01685571 0.00652943 0.02835898 0.00217551 0.00382907 0.10886220 0.00519303 0.01022923 0.01514255 0.00111195 
0.02552067 0.03778167 0.00341256 0.00410850 0.00239860 0.00225819 0.01695338 0.00655157 0.02841617 0.00218485 0.00383375 0.10719540 0.00502691 0.01012616 0.01476990 0.00110100 
0.02614860 0.03787836 0.00336005 0.00408015 0.00236762 0.00231386 0.01704130 0.00657575 0.02848319 0.00219706 0.00383859 0.10547655 0.00486524 0.01002357 0.01441081 0.00109031 
0.02679553 0.03799183 0.00333499 0.00405132 0.00233665 0.00237366 0.01711850 0.00660185 0.02856116 0.00221217 0.00384356 0.10371227 0.00470859 0.00992192 0.01406719 0.00107993 
0.02745983 0.03811918 0.00333672 0.00402216 0.00230582 0.00243738 0.01718416 0.00662976 0.02865119 0.00223023 0.00384868 0.10190933 0.00455752 0.00982163 0.01374091 0.00106991 
0.02813977 0.03825767 0.00336451 0.00399277 0.00227524 0.00250474 0.01723753 0.00665934 0.02875428 0.00225124 0.00385395 0.10007469 0.00441254 0.00972313 0.01343374 0.00106030 
0.02883356 0.03840467 0.00341748 0.00396330 0.00224507 0.00257547 0.01727803 0.00669043 0.02887136 0.00227524 0.00385937 0.09821537 0.00427413 0.00962679 0.01314734 0.00105115 
0.02953932 0.03855772 0.00349468 0.00393385 0.00221543 0.00264929 0.01730517 0.00672289 0.02900327 0.00230223 0.00386497 0.09633845 0.00414274 0.00953298 0.01288327 0.00104252 
0.03025513 0.03871457 0.00359506 0.00390457 0.00218646 0.00272589 0.01731862 0.00675654 0.02915076 0.00233223 0.00387077 0.09445106 0.00401876 0.00944204 0.01264299 0.00103445 
0.03097903 0.03887314 0.00371748 0.00387557 0.00215831 0.00280497 0.01731817 0.00679121 0.02931446 0.00236523 0.00387680 0.09256027 0.00390256 0.00935427 0.01242781 0.00102698 
0.03170900 0.03903160 0.00386073 0.00384700 0.00213113 0.00288618 0.01730374 0.00682672 0.02949490 0.00240124 0.00388308 0.09067312 0.00379446 0.00926993 0.01223891 0.00102017 
0.03244303 0.03918836 0.00402351 0.00381897 0.00210506 0.00296921 0.01727542 0.00686290 0.02969248 0.00244024 0.00388966 0.08879652 0.00369471 0.00918927 0.01207734 0.00101405 
0.03317906 0.03934207 0.00420448 0.00379161 0.00208026 0.00305370 0.01723340 0.00689957 0.02990749 0.00248221 0.00389657 0.08693727 0.00360356 0.00911248 0.01194399 0.00100866 
0.03391505 0.03949165 0.00440223 0.00376506 0.00205686 0.00313930 0.01717802 0.00693653 0.03014009 0.00252712 0.00390386 0.08510198 0.00352118 0.00903974 0.01183959 0.00100405 
0.03464895 0.03963632 0.00461531 0.00373944 0.00203501 0.00322568 0.01710977 0.00697361 0.03039031 0.00257495 0.00391157 0.08329706 0.00344771 0.00897118 0.01176472 0.00100025 
0.03537874 0.03977553 0.00484222 0.00371488 0.00201487 0.00331246 0.01702926 0.00701064 0.03065805 0.00262565 0.00391976 0.08152869 0.00338323 0.00890689 0.01171979 0.00099728 
0.03610241 0.03990907 0.00508145 0.00369151 0.00199658 0.00339930 0.01693721 0.00704743 0.03094309 0.00267917 0.00392847 0.07980276 0.00332779 0.00884694 0.01170504 0.00099519 
0.03681801 0.04003698 0.00533145 0.00366946 0.00198029 0.00348584 0.01683448 0.00708383 0.03124507 0.00273544 0.00393776 0.07812486 0.00328139 0.00879136 0.01172056 0.00099398 
0.03752360 0.04015958 0.00559066 0.00364884 0.00196612 0.00357174 0.01672205 0.00711968 0.03156352 0.00279440 0.00394768 0.07650029 0.00324397 0.00874013 0.01176624 0.00099369 
0.03821734 0.04027750 0.00585751 0.00362979 0.00195423 0.00365664 0.01660098 0.00715482 0.03189783 0.00285596 0.00395829 0.07493397 0.00321545 0.00869322 0.01184182 0.00099433 
0.03889742 0.04039161 0.00613043 0.00361242 0.00194473 0.00374022 0.01647246 0.00718912 0.03224728 0.00292004 0.00396962 0.07343045 0.00319569 0.00865057 0.01194685 0.00099591 
