0.05274603 0.03507898 0.00631451 0.00201819 0.00104009 0.00177149 0.00591804 0.00534376 0.02568488 0.00216574 0.00181376 0.04085882 0.01049646 0.00417320 0.00476094 0.00135447 
0.05303725 0.03526439 0.00627948 0.00204075 0.00108179 0.00179376 0.00579040 0.00531119 0.02560407 0.00215907 0.00180987 0.04144906 0.01059032 0.00416572 0.00473892 0.00135548 
0.05325416 0.03546131 0.00623458 0.00206492 0.00112335 0.00181569 0.00566753 0.00527486 0.02552170 0.00215113 0.00180425 0.04205556 0.01068634 0.00416138 0.00473192 0.00135614 
0.05339608 0.03566926 0.00618019 0.00209068 0.00116460 0.00183713 0.00554999 0.00523498 0.02543854 0.00214196 0.00179689 0.04267510 0.01078409 0.00416013 0.00474042 0.00135644 
0.05346267 0.03588765 0.00611673 0.00211799 0.00120535 0.00185795 0.00543834 0.00519174 0.02535536 0.00213162 0.00178783 0.04330439 0.01088319 0.00416188 0.00476482 0.00135638 
0.05345388 0.03611578 0.00604473 0.00214683 0.00124542 0.00187800 0.00533309 0.00514538 0.02527292 0.00212016 0.00177709 0.04394009 0.01098324 0.00416656 0.00480546 0.00135595 
0.05337002 0.03635287 0.00596477 0.00217713 0.00128464 0.00189718 0.00523476 0.00509613 0.02519199 0.00210767 0.00176473 0.04457885 0.01108386 0.00417407 0.00486260 0.00135516 
0.05321167 0.03659802 0.00587748 0.00220883 0.00132284 0.00191538 0.00514382 0.00504421 0.02511329 0.00209421 0.00175080 0.04521729 0.01118472 0.00418431 0.00493643 0.00135399 
0.05297974 0.03685027 0.00578357 0.00224186 0.00135986 0.00193251 0.00506072 0.00498989 0.02503757 0.00207987 0.00173538 0.04585211 0.01128546 0.00419717 0.00502707 0.00135246 
0.05267544 0.03710855 0.00568377 0.00227614 0.00139555 0.00194848 0.00498588 0.00493341 0.02496551 0.00206472 0.00171854 0.04648004 0.01138577 0.00421251 0.00513456 0.00135056 
0.05230025 0.03737172 0.00557890 0.00231158 0.00142974 0.00196323 0.00491967 0.00487503 0.02489779 0.00204888 0.00170038 0.04709790 0.01148535 0.00423020 0.00525884 0.00134830 
0.05185595 0.03763857 0.00546977 0.00234807 0.00146231 0.00197670 0.00486244 0.00481499 0.02483507 0.00203242 0.00168101 0.04770263 0.01158392 0.00425012 0.00539979 0.00134570 
0.05134457 0.03790783 0.00535727 0.00238550 0.00149312 0.00198886 0.00481449 0.00475357 0.02477797 0.00201546 0.00166053 0.04829130 0.01168124 0.00427210 0.00555720 0.00134275 
0.05076843 0.03817817 0.00524229 0.00242375 0.00152206 0.00199968 0.00477607 0.00469102 0.02472705 0.00199809 0.00163908 0.04886115 0.01177707 0.00429599 0.00573078 0.00133948 
0.05013006 0.03844820 0.00512575 0.00246270 0.00154900 0.00200914 0.00474741 0.00462760 0.02468286 0.00198043 0.00161678 0.04940960 0.01187120 0.00432165 0.00592016 0.00133589 
0.04943223 0.03871653 0.00500860 0.00250221 0.00157386 0.00201725 0.00472866 0.00456356 0.02464592 0.00196257 0.00159378 0.04993429 0.01196344 0.00434890 0.00612489 0.00133201 
0.04867793 0.03898170 0.00489177 0.00254214 0.00159654 0.00202402 0.00471996 0.00449915 0.02461666 0.00194464 0.00157023 0.05043308 0.01205362 0.00437758 0.00634442 0.00132785 
0.04787036 0.03924229 0.00477623 0.00258235 0.00161697 0.00202947 0.00472138 0.00443463 0.02459552 0.00192673 0.00154627 0.05090407 0.01214161 0.00440752 0.00657814 0.00132343 
0.04701289 0.03949682 0.00466292 0.00262267 0.00163509 0.00203363 0.00473293 0.00437024 0.02458286 0.00190895 0.00152207 0.05134563 0.01222728 0.00443855 0.00682536 0.00131878 
0.04610905 0.03974386 0.00455279 0.00266296 0.00165084 0.00203656 0.00475459 0.00430621 0.02457899 0.00189142 0.00149779 0.05175643 0.01231052 0.00447050 0.00708531 0.00131391 
0.04516256 0.03998199 0.00444676 0.00270306 0.00166420 0.00203830 0.00478629 0.00424279 0.02458419 0.00187425 0.00147360 0.05213541 0.01239124 0.00450320 0.00735715 0.00130885 
0.04417724 0.04020982 0.00434575 0.00274281 0.00167513 0.00203893 0.00482790 0.00418018 0.02459867 0.00185753 0.00144967 0.05248181 0.01246938 0.00453648 0.00763997 0.00130363 
0.04315704 0.04042600 0.00425064 0.00278204 0.00168364 0.00203851 0.00487925 0.00411862 0.02462260 0.00184137 0.00142617 0.05279520 0.01254489 0.00457017 0.00793279 0.00129827 
0.04210602 0.04062924 0.00416227 0.00282060 0.00168972 0.00203712 0.00494011 0.00405831 0.02465609 0.00182586 0.00140327 0.05307544 0.01261772 0.00460410 0.00823458 0.00129280 
0.04102833 0.04081833 0.00408146 0.00285832 0.00169340 0.00203485 0.00501021 0.00399945 0.02469920 0.00181110 0.00138114 0.05332272 0.01268785 0.00463811 0.00854424 0.00128724 
0.03992816 0.04099211 0.00400898 0.00289505 0.00169471 0.00203180 0.00508924 0.00394224 0.02475195 0.00179718 0.00135995 0.05353756 0.01275526 0.00467204 0.00886063 0.00128163 
0.03880979 0.04114953 0.00394557 0.00293063 0.00169369 0.00202805 0.00517682 0.00388686 0.02481429 0.00178418 0.00133987 0.05372077 0.01281994 0.00470574 0.00918255 0.00127599 
0.03767751 0.04128963 0.00389189 0.00296492 0.00169042 0.00202372 0.00527256 0.00383348 0.02488611 0.00177218 0.00132105 0.05387350 0.01288191 0.00473904 0.00950877 0.00127035 
0.03653564 0.04141156 0.00384856 0.00299776 0.00168496 0.00201888 0.00537600 0.00378228 0.02496726 0.00176126 0.00130364 0.05399718 0.01294116 0.00477180 0.00983802 0.00126474 
0.03538851 0.04151457 0.00381615 0.00302902 0.00167741 0.00201367 0.00548667 0.00373341 0.02505755 0.00175146 0.00128781 0.05409353 0.01299771 0.00480390 0.01016900 0.00125919 
0.03424043 0.04159805 0.00379516 0.00305856 0.00166786 0.00200816 0.00560404 0.00368703 0.02515671 0.00174286 0.00127369 0.05416457 0.01305158 0.00483518 0.01050038 0.00125372 
0.03309570 0.04166151 0.00378601 0.00308628 0.00165643 0.00200247 0.00572755 0.00364326 0.02526445 0.00173551 0.00126141 0.05421255 0.01310279 0.00486552 0.01083084 0.00124836 
0.03195857 0.04170459 0.00378907 0.00311204 0.00164325 0.00199670 0.00585662 0.00360225 0.02538041 0.00172944 0.00125110 0.05423999 0.01315135 0.00489481 0.01115901 0.00124315 
0.03083324 0.04172707 0.00380465 0.00313576 0.00162845 0.00199095 0.00599065 0.00356413 0.02550418 0.00172469 0.00124287 0.05424963 0.01319730 0.00492293 0.01148355 0.00123810 
0.02972385 0.04172886 0.00383296 0.00315734 0.00161217 0.00198531 0.00612899 0.00352899 0.02563531 0.00172129 0.00123683 0.05424441 0.01324064 0.00494978 0.01180312 0.00123324 
0.02863447 0.04171003 0.00387415 0.00317669 0.00159458 0.00197987 0.00627101 0.00349696 0.02577332 0.00171925 0.00123306 0.05422745 0.01328139 0.00497527 0.01211639 0.00122858 
0.02756908 0.04167076 0.00392831 0.00319375 0.00157584 0.00197472 0.00641602 0.00346814 0.02591766 0.00171859 0.00123164 0.05420200 0.01331957 0.00499930 0.01242204 0.00122417 
0.02653155 0.04161140 0.00399544 0.00320847 0.00155613 0.00196995 0.00656336 0.00344261 0.02606776 0.00171930 0.00123264 0.05417148 0.01335519 0.00502179 0.01271878 0.00122001 
0.02552564 0.04153243 0.00407547 0.00322080 0.00153562 0.00196562 0.00671234 0.00342046 0.02622299 0.00172137 0.00123612 0.05413936 0.01338825 0.00504269 0.01300537 0.00121612 
0.02455503 0.04143446 0.00416825 0.00323073 0.00151450 0.00196181 0.00686227 0.00340177 0.02638270 0.00172480 0.00124210 0.05410921 0.01341876 0.00506193 0.01328060 0.00121252 
0.02362322 0.04131824 0.00427357 0.00323822 0.00149296 0.00195858 0.00701247 0.00338661 0.02654621 0.00172955 0.00125062 0.05408462 0.01344672 0.00507946 0.01354331 0.00120922 
0.02273363 0.04118463 0.00439115 0.00324329 0.00147120 0.00195599 0.00716225 0.00337506 0.02671278 0.00173559 0.00126168 0.05406919 0.01347211 0.00509524 0.01379240 0.00120625 
0.02188949 0.04103462 0.00452062 0.00324595 0.00144942 0.00195408 0.00731095 0.00336715 0.02688166 0.00174288 0.00127528 0.05406649 0.01349493 0.00510924 0.01402682 0.00120360 
0.02109390 0.04086932 0.00466158 0.00324623 0.00142782 0.00195290 0.00745792 0.00336295 0.02705208 0.00175137 0.00129140 0.05408005 0.01351516 0.00512144 0.01424561 0.00120129 
0.02034983 0.04068992 0.00481352 0.00324418 0.00140659 0.00195248 0.00760251 0.00336251 0.02722322 0.00176101 0.00131000 0.05411329 0.01353280 0.00513184 0.01444787 0.00119933 
0.01966005 0.04049772 0.00497590 0.00323985 0.00138595 0.00195285 0.00774411 0.00336587 0.02739428 0.00177173 0.00133102 0.05416952 0.01354781 0.00514043 0.01463279 0.00119772 
0.01902718 0.04029411 0.00514812 0.00323332 0.00136608 0.00195402 0.00788214 0.00337305 0.02756440 0.00178347 0.00135442 0.05425193 0.01356018 0.00514722 0.01479965 0.00119647 
0.01845368 0.04008053 0.00532951 0.00322468 0.00134718 0.00195600 0.00801603 0.00338410 0.02773272 0.00179614 0.00138010 0.05436348 0.01356989 0.00515224 0.01494782 0.00119557 
0.01794182 0.03985850 0.00551937 0.00321403 0.00132944 0.00195881 0.00814528 0.00339902 0.02789839 0.00180967 0.00140798 0.05450699 0.01357691 0.00515550 0.01507675 0.00119502 
0.01749368 0.03962959 0.00571695 0.00320149 0.00131305 0.00196243 0.00826938 0.00341785 0.02806052 0.00182396 0.00143794 0.05468500 0.01358122 0.00515707 0.01518603 0.00119483 
0.01711120 0.03939540 0.00592144 0.00318718 0.00129820 0.00196686 0.00838791 0.00344059 0.02821824 0.00183893 0.00146987 0.05489982 0.01358281 0.00515698 0.01527533 0.00119498 
0.01679608 0.03915755 0.00613201 0.00317124 0.00128504 0.00197208 0.00850045 0.00346724 0.02837067 0.00185449 0.00150364 0.05515350 0.01358166 0.00515529 0.01534443 0.00119547 
0.01654988 0.03891769 0.00634780 0.00315382 0.00127374 0.00197807 0.00860665 0.00349782 0.02851694 0.00187052 0.00153909 0.05544779 0.01357775 0.00515208 0.01539323 0.00119629 
0.01637394 0.03867745 0.00656792 0.00313508 0.00126446 0.00198480 0.00870622 0.00353230 0.02865618 0.00188694 0.00157608 0.05578410 0.01357108 0.00514742 0.01542174 0.00119743 
0.01626941 0.03843847 0.00679147 0.00311520 0.00125734 0.00199225 0.00879889 0.00357068 0.02878755 0.00190363 0.00161445 0.05616356 0.01356165 0.00514141 0.01543008 0.00119888 
0.01623725 0.03820234 0.00701751 0.00309436 0.00125252 0.00200037 0.00888447 0.00361294 0.02891021 0.00192050 0.00165401 0.05658695 0.01354947 0.00513413 0.01541851 0.00120062 
0.01627824 0.03797064 0.00724511 0.00307273 0.00125010 0.00200913 0.00896281 0.00365905 0.02902334 0.00193743 0.00169459 0.05705469 0.01353455 0.00512570 0.01538737 0.00120264 
0.01639292 0.03774489 0.00747334 0.00305052 0.00125019 0.00201847 0.00903381 0.00370898 0.02912616 0.00195432 0.00173599 0.05756686 0.01351692 0.00511623 0.01533715 0.00120491 
0.01658169 0.03752654 0.00770126 0.00302793 0.00125289 0.00202837 0.00909745 0.00376268 0.02921791 0.00197107 0.00177803 0.05812318 0.01349660 0.00510585 0.01526845 0.00120743 
0.01684469 0.03731699 0.00792794 0.00300516 0.00125827 0.00203877 0.00915374 0.00382011 0.02929787 0.00198757 0.00182049 0.05872304 0.01347365 0.00509467 0.01518195 0.00121018 
0.01718192 0.03711755 0.00815247 0.00298241 0.00126639 0.00204962 0.00920275 0.00388122 0.02936535 0.00200372 0.00186319 0.05936544 0.01344812 0.00508284 0.01507849 0.00121312 
0.01759313 0.03692947 0.00837395 0.00295991 0.00127730 0.00206086 0.00924462 0.00394593 0.02941970 0.00201942 0.00190590 0.06004906 0.01342006 0.00507050 0.01495899 0.00121625 
0.01807791 0.03675387 0.00859150 0.00293785 0.00129103 0.00207246 0.00927953 0.00401417 0.02946033 0.00203458 0.00194843 0.06077223 0.01338957 0.00505779 0.01482447 0.00121954 
0.01863563 0.03659179 0.00880429 0.00291647 0.00130759 0.00208437 0.00930772 0.00408587 0.02948669 0.00204910 0.00199056 0.06153297 0.01335672 0.00504488 0.01467606 0.00122297 
0.01926548 0.03644415 0.00901150 0.00289595 0.00132697 0.00209652 0.00932948 0.00416093 0.02949828 0.00206289 0.00203209 0.06232897 0.01332162 0.00503192 0.01451499 0.00122651 
0.01996643 0.03631179 0.00921236 0.00287653 0.00134916 0.00210887 0.00934515 0.00423926 0.02949467 0.00207588 0.00207282 0.06315763 0.01328437 0.00501906 0.01434256 0.00123015 
0.02073727 0.03619540 0.00940615 0.00285839 0.00137411 0.00212139 0.00935511 0.00432074 0.02947548 0.00208798 0.00211253 0.06401608 0.01324510 0.00500649 0.01416018 0.00123386 
0.02157662 0.03609557 0.00959218 0.00284174 0.00140177 0.00213402 0.00935978 0.00440525 0.02944040 0.00209913 0.00215104 0.06490120 0.01320395 0.00499436 0.01396929 0.00123763 
0.02248287 0.03601277 0.00976982 0.00282678 0.00143207 0.00214671 0.00935964 0.00449267 0.02938917 0.00210926 0.00218816 0.06580961 0.01316104 0.00498284 0.01377145 0.00124142 
0.02345425 0.03594736 0.00993850 0.00281370 0.00146492 0.00215944 0.00935518 0.00458287 0.02932162 0.00211832 0.00222369 0.06673778 0.01311652 0.00497210 0.01356825 0.00124522 
0.02448880 0.03589956 0.01009770 0.00280268 0.00150022 0.00217217 0.00934695 0.00467569 0.02923764 0.00212626 0.00225747 0.06768194 0.01307056 0.00496232 0.01336133 0.00124901 
0.02558438 0.03586949 0.01024697 0.00279389 0.00153784 0.00218486 0.00933550 0.00477098 0.02913720 0.00213303 0.00228932 0.06863822 0.01302330 0.00495365 0.01315238 0.00125277 
0.02673868 0.03585716 0.01038591 0.00278749 0.00157766 0.00219747 0.00932143 0.00486858 0.02902033 0.00213861 0.00231910 0.06960261 0.01297492 0.00494627 0.01294312 0.00125647 
0.02794922 0.03586246 0.01051419 0.00278364 0.00161953 0.00221000 0.00930535 0.00496831 0.02888714 0.00214297 0.00234664 0.07057101 0.01292559 0.00494034 0.01273529 0.00126011 
0.02921336 0.03588518 0.01063155 0.00278248 0.00166328 0.00222240 0.00928787 0.00506998 0.02873783 0.00214608 0.00237183 0.07153928 0.01287546 0.00493601 0.01253065 0.00126366 
0.03052827 0.03592502 0.01073780 0.00278413 0.00170874 0.00223467 0.00926963 0.00517342 0.02857266 0.00214795 0.00239454 0.07250325 0.01282472 0.00493345 0.01233096 0.00126711 
0.03189102 0.03598157 0.01083281 0.00278871 0.00175572 0.00224678 0.00925126 0.00527841 0.02839197 0.00214858 0.00241465 0.07345875 0.01277352 0.00493280 0.01213797 0.00127045 
0.03329850 0.03605435 0.01091653 0.00279633 0.00180403 0.00225873 0.00923340 0.00538475 0.02819617 0.00214797 0.00243207 0.07440166 0.01272202 0.00493419 0.01195341 0.00127366 
0.03474746 0.03614278 0.01098895 0.00280706 0.00185347 0.00227049 0.00921667 0.00549222 0.02798574 0.00214614 0.00244673 0.07532793 0.01267038 0.00493777 0.01177899 0.00127673 
0.03623454 0.03624624 0.01105017 0.00282099 0.00190381 0.00228208 0.00920170 0.00560062 0.02776126 0.00214312 0.00245855 0.07623362 0.01261875 0.00494365 0.01161636 0.00127966 
0.03775626 0.03636402 0.01110032 0.00283817 0.00195484 0.00229347 0.00918908 0.00570969 0.02752333 0.00213894 0.00246749 0.07711490 0.01256726 0.00495194 0.01146715 0.00128243 
0.03930901 0.03649537 0.01113961 0.00285863 0.00200634 0.00230467 0.00917938 0.00581922 0.02727267 0.00213364 0.00247350 0.07796813 0.01251604 0.00496276 0.01133291 0.00128503 
0.04088909 0.03663950 0.01116832 0.00288240 0.00205806 0.00231569 0.00917317 0.00592897 0.02701004 0.00212728 0.00247658 0.07878984 0.01246520 0.00497619 0.01121512 0.00128747 
0.04249271 0.03679558 0.01118677 0.00290950 0.00210978 0.00232651 0.00917095 0.00603869 0.02673624 0.00211992 0.00247671 0.07957679 0.01241482 0.00499231 0.01111519 0.00128973 
0.04411601 0.03696276 0.01119536 0.00293990 0.00216126 0.00233715 0.00917322 0.00614814 0.02645215 0.00211161 0.00247391 0.08032596 0.01236500 0.00501117 0.01103442 0.00129182 
0.04575504 0.03714015 0.01119452 0.00297359 0.00221226 0.00234761 0.00918040 0.00625706 0.02615871 0.00210243 0.00246820 0.08103461 0.01231578 0.00503284 0.01097405 0.00129374 
0.04740582 0.03732688 0.01118475 0.00301052 0.00226255 0.00235790 0.00919289 0.00636522 0.02585689 0.00209246 0.00245962 0.08170026 0.01226720 0.00505735 0.01093517 0.00129548 
0.04906429 0.03752207 0.01116658 0.00305062 0.00231189 0.00236801 0.00921105 0.00647235 0.02554771 0.00208177 0.00244824 0.08232074 0.01221929 0.00508471 0.01091878 0.00129706 
0.05072639 0.03772485 0.01114060 0.00309382 0.00236006 0.00237797 0.00923515 0.00657821 0.02523223 0.00207046 0.00243412 0.08289419 0.01217203 0.00511493 0.01092576 0.00129846 
0.05238803 0.03793436 0.01110743 0.00314003 0.00240683 0.00238777 0.00926544 0.00668256 0.02491153 0.00205862 0.00241734 0.08341906 0.01212540 0.00514800 0.01095683 0.00129971 
0.05404511 0.03814978 0.01106771 0.00318914 0.00245198 0.00239742 0.00930210 0.00678513 0.02458673 0.00204634 0.00239801 0.08389414 0.01207934 0.00518388 0.01101261 0.00130080 
0.05569355 0.03837029 0.01102213 0.00324101 0.00249530 0.00240693 0.00934523 0.00688570 0.02425897 0.00203372 0.00237624 0.08431855 0.01203376 0.00522254 0.01109356 0.00130175 
0.05732928 0.03859515 0.01097138 0.00329551 0.00253660 0.00241629 0.00939489 0.00698401 0.02392939 0.00202087 0.00235214 0.08469177 0.01198858 0.00526391 0.01120001 0.00130255 
0.05894826 0.03882363 0.01091618 0.00335247 0.00257568 0.00242551 0.00945107 0.00707984 0.02359915 0.00200788 0.00232587 0.08501360 0.01194365 0.00530791 0.01133211 0.00130323 
0.06054651 0.03905505 0.01085728 0.00341172 0.00261236 0.00243459 0.00951369 0.00717295 0.02326941 0.00199486 0.00229755 0.08528419 0.01189883 0.00535443 0.01148990 0.00130379 
0.06212010 0.03928880 0.01079539 0.00347308 0.00264648 0.00244352 0.00958260 0.00726312 0.02294132 0.00198191 0.00226735 0.08550403 0.01185394 0.00540338 0.01167323 0.00130424 
0.06366519 0.03952428 0.01073126 0.00353635 0.00267788 0.00245230 0.00965760 0.00735014 0.02261602 0.00196913 0.00223543 0.08567391 0.01180878 0.00545463 0.01188181 0.00130459 
0.06517802 0.03976100 0.01066563 0.00360130 0.00270643 0.00246092 0.00973841 0.00743380 0.02229465 0.00195663 0.00220196 0.08579497 0.01176311 0.00550801 0.01211519 0.00130487 
0.06665491 0.03999849 0.01059922 0.00366773 0.00273199 0.00246937 0.00982468 0.00751390 0.02197830 0.00194451 0.00216712 0.08586863 0.01171671 0.00556339 0.01237278 0.00130507 
0.06809233 0.04023634 0.01053273 0.00373538 0.00275446 0.00247764 0.00991602 0.00759026 0.02166805 0.00193286 0.00213109 0.08589661 0.01166930 0.00562058 0.01265383 0.00130521 
0.06948685 0.04047421 0.01046685 0.00380401 0.00277375 0.00248570 0.01001196 0.00766271 0.02136493 0.00192178 0.00209406 0.08588090 0.01162061 0.00567940 0.01295742 0.00130531 
0.07083518 0.04071180 0.01040226 0.00387338 0.00278979 0.00249355 0.01011198 0.00773107 0.02106994 0.00191136 0.00205622 0.08582373 0.01157033 0.00573965 0.01328252 0.00130538 
0.07213418 0.04094888 0.01033957 0.00394321 0.00280251 0.00250115 0.01021551 0.00779521 0.02078404 0.00190168 0.00201776 0.08572757 0.01151817 0.00580112 0.01362794 0.00130543 
0.07338087 0.04118524 0.01027939 0.00401323 0.00281188 0.00250848 0.01032191 0.00785497 0.02050812 0.00189282 0.00197889 0.08559510 0.01146380 0.00586359 0.01399235 0.00130548 
0.07457243 0.04142075 0.01022228 0.00408317 0.00281788 0.00251552 0.01043052 0.00791025 0.02024303 0.00188486 0.00193979 0.08542916 0.01140689 0.00592684 0.01437429 0.00130553 
0.07570623 0.04165530 0.01016875 0.00415274 0.00282050 0.00252223 0.01054062 0.00796092 0.01998956 0.00187787 0.00190066 0.08523278 0.01134712 0.00599061 0.01477220 0.00130560 
0.07677982 0.04188882 0.01011928 0.00422167 0.00281976 0.00252858 0.01065146 0.00800689 0.01974843 0.00187190 0.00186168 0.08500908 0.01128415 0.00605468 0.01518438 0.00130570 
0.07779092 0.04212127 0.01007428 0.00428965 0.00281568 0.00253453 0.01076224 0.00804809 0.01952029 0.00186701 0.00182306 0.08476130 0.01121764 0.00611880 0.01560906 0.00130584 
0.07873747 0.04235265 0.01003413 0.00435641 0.00280833 0.00254005 0.01087217 0.00808444 0.01930574 0.00186324 0.00178497 0.08449276 0.01114728 0.00618272 0.01604433 0.00130604 
0.07961762 0.04258296 0.00999913 0.00442166 0.00279776 0.00254511 0.01098041 0.00811591 0.01910529 0.00186064 0.00174759 0.08420681 0.01107275 0.00624618 0.01648823 0.00130629 
0.08042971 0.04281222 0.00996955 0.00448510 0.00278406 0.00254965 0.01108611 0.00814244 0.01891937 0.00185923 0.00171110 0.08390682 0.01099374 0.00630893 0.01693872 0.00130662 
0.08117229 0.04304046 0.00994557 0.00454645 0.00276733 0.00255365 0.01118842 0.00816403 0.01874837 0.00185904 0.00167566 0.08359614 0.01090996 0.00637074 0.01739368 0.00130702 
0.08184414 0.04326770 0.00992735 0.00460544 0.00274768 0.00255705 0.01128649 0.00818067 0.01859257 0.00186008 0.00164143 0.08327806 0.01082114 0.00643134 0.01785097 0.00130751 
0.08244425 0.04349395 0.00991496 0.00466177 0.00272525 0.00255983 0.01137946 0.00819238 0.01845217 0.00186234 0.00160856 0.08295584 0.01072704 0.00649050 0.01830840 0.00130808 
0.08297182 0.04371922 0.00990841 0.00471518 0.00270017 0.00256194 0.01146649 0.00819917 0.01832733 0.00186584 0.00157719 0.08263261 0.01062742 0.00654799 0.01876373 0.00130875 
0.08342626 0.04394349 0.00990767 0.00476542 0.00267261 0.00256335 0.01154678 0.00820111 0.01821810 0.00187055 0.00154745 0.08231138 0.01052211 0.00660357 0.01921474 0.00130952 
0.08380722 0.04416670 0.00991263 0.00481221 0.00264273 0.00256401 0.01161951 0.00819824 0.01812447 0.00187646 0.00151947 0.08199500 0.01041093 0.00665704 0.01965921 0.00131039 
0.08411453 0.04438878 0.00992314 0.00485532 0.00261071 0.00256390 0.01168394 0.00819063 0.01804635 0.00188352 0.00149335 0.08168618 0.01029378 0.00670818 0.02009490 0.00131136 
0.08434825 0.04460959 0.00993897 0.00489452 0.00257674 0.00256298 0.01173934 0.00817837 0.01798359 0.00189171 0.00146919 0.08138740 0.01017055 0.00675680 0.02051964 0.00131243 
0.08450862 0.04482897 0.00995986 0.00492957 0.00254101 0.00256122 0.01178503 0.00816157 0.01793595 0.00190098 0.00144708 0.08110094 0.01004122 0.00680273 0.02093126 0.00131361 
0.08459612 0.04504669 0.00998548 0.00496027 0.00250373 0.00255860 0.01182038 0.00814033 0.01790314 0.00191127 0.00142709 0.08082885 0.00990578 0.00684580 0.02132767 0.00131488 
0.08461137 0.04526249 0.01001546 0.00498643 0.00246510 0.00255510 0.01184482 0.00811477 0.01788481 0.00192252 0.00140928 0.08057293 0.00976428 0.00688585 0.02170683 0.00131626 
0.08455521 0.04547603 0.01004938 0.00500785 0.00242535 0.00255071 0.01185783 0.00808503 0.01788053 0.00193466 0.00139370 0.08033472 0.00961681 0.00692276 0.02206678 0.00131772 
0.08442865 0.04568691 0.01008678 0.00502439 0.00238468 0.00254540 0.01185898 0.00805126 0.01788984 0.00194761 0.00138039 0.08011549 0.00946353 0.00695641 0.02240563 0.00131928 
0.08423286 0.04589469 0.01012716 0.00503588 0.00234331 0.00253918 0.01184789 0.00801362 0.01791221 0.00196130 0.00136938 0.07991622 0.00930464 0.00698670 0.02272162 0.00132091 
0.08396919 0.04609884 0.01016998 0.00504221 0.00230146 0.00253205 0.01182426 0.00797225 0.01794705 0.00197563 0.00136067 0.07973762 0.00914037 0.00701357 0.02301308 0.00132263 
0.08363911 0.04629879 0.01021468 0.00504325 0.00225936 0.00252401 0.01178787 0.00792735 0.01799376 0.00199051 0.00135426 0.07958009 0.00897105 0.00703694 0.02327844 0.00132441 
0.08324425 0.04649389 0.01026067 0.00503892 0.00221720 0.00251507 0.01173859 0.00787908 0.01805168 0.00200584 0.00135015 0.07944376 0.00879702 0.00705678 0.02351629 0.00132626 
0.08278638 0.04668344 0.01030733 0.00502915 0.00217521 0.00250525 0.01167637 0.00782763 0.01812011 0.00202153 0.00134831 0.07932847 0.00861870 0.00707307 0.02372534 0.00132816 
0.08226737 0.04686668 0.01035403 0.00501387 0.00213359 0.00249457 0.01160122 0.00777319 0.01819833 0.00203747 0.00134869 0.07923377 0.00843656 0.00708582 0.02390443 0.00133011 
0.08168920 0.04704279 0.01040013 0.00499307 0.00209253 0.00248308 0.01151329 0.00771594 0.01828560 0.00205355 0.00135127 0.07915894 0.00825111 0.00709504 0.02405257 0.00133209 
0.08105396 0.04721090 0.01044498 0.00496673 0.00205224 0.00247080 0.01141276 0.00765610 0.01838114 0.00206966 0.00135597 0.07910300 0.00806291 0.00710077 0.02416890 0.00133409 
0.08036382 0.04737011 0.01048794 0.00493486 0.00201289 0.00245779 0.01129995 0.00759384 0.01848419 0.00208569 0.00136273 0.07906470 0.00787259 0.00710307 0.02425274 0.00133612 
0.07962101 0.04751945 0.01052836 0.00489749 0.00197465 0.00244409 0.01117524 0.00752937 0.01859394 0.00210154 0.00137148 0.07904257 0.00768081 0.00710203 0.02430356 0.00133814 
0.07882785 0.04765795 0.01056559 0.00485470 0.00193770 0.00242976 0.01103910 0.00746289 0.01870959 0.00211708 0.00138213 0.07903491 0.00748828 0.00709772 0.02432100 0.00134016 
0.07798670 0.04778460 0.01059903 0.00480654 0.00190217 0.00241488 0.01089208 0.00739459 0.01883035 0.00213222 0.00139458 0.07903984 0.00729575 0.00709027 0.02430485 0.00134217 
0.07709995 0.04789837 0.01062806 0.00475313 0.00186822 0.00239951 0.01073483 0.00732467 0.01895543 0.00214683 0.00140873 0.07905526 0.00710401 0.00707981 0.02425509 0.00134415 
0.07617004 0.04799822 0.01065209 0.00469459 0.00183596 0.00238373 0.01056806 0.00725330 0.01908402 0.00216082 0.00142448 0.07907894 0.00691389 0.00706647 0.02417184 0.00134609 
0.07519943 0.04808311 0.01067058 0.00463106 0.00180552 0.00236763 0.01039257 0.00718068 0.01921536 0.00217408 0.00144171 0.07910851 0.00672623 0.00705041 0.02405540 0.00134799 
0.07419058 0.04815202 0.01068300 0.00456271 0.00177698 0.00235130 0.01020924 0.00710699 0.01934868 0.00218652 0.00146029 0.07914150 0.00654193 0.00703179 0.02390623 0.00134983 
0.07314596 0.04820394 0.01068886 0.00448972 0.00175044 0.00233484 0.01001898 0.00703239 0.01948325 0.00219802 0.00148011 0.07917534 0.00636189 0.00701081 0.02372495 0.00135160 
0.07206803 0.04823790 0.01068770 0.00441232 0.00172595 0.00231834 0.00982280 0.00695706 0.01961833 0.00220851 0.00150103 0.07920742 0.00618702 0.00698765 0.02351233 0.00135330 
0.07095925 0.04825294 0.01067913 0.00433073 0.00170359 0.00230192 0.00962175 0.00688114 0.01975323 0.00221789 0.00152293 0.07923510 0.00601827 0.00696250 0.02326928 0.00135492 
0.06982202 0.04824817 0.01066278 0.00424520 0.00168337 0.00228567 0.00941694 0.00680480 0.01988729 0.00222608 0.00154566 0.07925574 0.00585657 0.00693558 0.02299687 0.00135644 
0.06865877 0.04822277 0.01063832 0.00415600 0.00166534 0.00226972 0.00920950 0.00672816 0.02001987 0.00223301 0.00156910 0.07926674 0.00570287 0.00690709 0.02269629 0.00135787 
0.06747183 0.04817597 0.01060551 0.00406341 0.00164950 0.00225418 0.00900063 0.00665136 0.02015037 0.00223861 0.00159311 0.07926555 0.00555811 0.00687724 0.02236887 0.00135919 
0.06626354 0.04810709 0.01056412 0.00396775 0.00163584 0.00223916 0.00879154 0.00657453 0.02027822 0.00224281 0.00161754 0.07924971 0.00542322 0.00684625 0.02201605 0.00136040 
0.06503617 0.04801551 0.01051400 0.00386933 0.00162433 0.00222479 0.00858346 0.00649776 0.02040288 0.00224557 0.00164227 0.07921687 0.00529910 0.00681435 0.02163939 0.00136150 
0.06379195 0.04790075 0.01045504 0.00376849 0.00161496 0.00221119 0.00837764 0.00642116 0.02052386 0.00224683 0.00166715 0.07916485 0.00518665 0.00678174 0.02124053 0.00136247 
0.06253305 0.04776240 0.01038719 0.00366558 0.00160767 0.00219847 0.00817535 0.00634482 0.02064071 0.00224655 0.00169207 0.07909160 0.00508673 0.00674863 0.02082124 0.00136332 
0.06126159 0.04760018 0.01031046 0.00356097 0.00160239 0.00218676 0.00797783 0.00626881 0.02075302 0.00224470 0.00171687 0.07899528 0.00500018 0.00671525 0.02038333 0.00136404 
0.05997962 0.04741393 0.01022491 0.00345502 0.00159906 0.00217617 0.00778633 0.00619321 0.02086041 0.00224126 0.00174145 0.07887427 0.00492778 0.00668180 0.01992871 0.00136463 
0.05868914 0.04720359 0.01013066 0.00334813 0.00159759 0.00216683 0.00760209 0.00611806 0.02096254 0.00223621 0.00176568 0.07872716 0.00487027 0.00664847 0.01945933 0.00136509 
0.05739210 0.04696926 0.01002788 0.00324069 0.00159789 0.00215883 0.00742630 0.00604342 0.02105913 0.00222956 0.00178944 0.07855284 0.00482837 0.00661545 0.01897721 0.00136542 
0.05609037 0.04671117 0.00991680 0.00313310 0.00159984 0.00215231 0.00726014 0.00596932 0.02114993 0.00222129 0.00181261 0.07835043 0.00480269 0.00658294 0.01848437 0.00136562 
0.05478577 0.04642967 0.00979770 0.00302576 0.00160334 0.00214736 0.00710473 0.00589578 0.02123472 0.00221141 0.00183510 0.07811935 0.00479382 0.00655109 0.01798291 0.00136569 
0.05348005 0.04612528 0.00967089 0.00291908 0.00160826 0.00214408 0.00696117 0.00582283 0.02131334 0.00219996 0.00185679 0.07785932 0.00480228 0.00652008 0.01747488 0.00136563 
0.05217493 0.04579864 0.00953676 0.00281349 0.00161447 0.00214257 0.00683048 0.00575048 0.02138566 0.00218695 0.00187760 0.07757037 0.00482851 0.00649005 0.01696239 0.00136544 
0.05087204 0.04545053 0.00939572 0.00270938 0.00162185 0.00214293 0.00671361 0.00567871 0.02145158 0.00217243 0.00189744 0.07725285 0.00487287 0.00646114 0.01644752 0.00136514 
0.04957298 0.04508190 0.00924823 0.00260718 0.00163024 0.00214524 0.00661148 0.00560754 0.02151105 0.00215643 0.00191622 0.07690742 0.00493566 0.00643348 0.01593231 0.00136472 
0.04827928 0.04469382 0.00909479 0.00250729 0.00163951 0.00214958 0.00652489 0.00553693 0.02156406 0.00213901 0.00193388 0.07653507 0.00501709 0.00640718 0.01541880 0.00136419 
0.04699244 0.04428749 0.00893594 0.00241011 0.00164951 0.00215602 0.00645460 0.00546689 0.02161061 0.00212023 0.00195035 0.07613711 0.00511728 0.00638232 0.01490898 0.00136355 
0.04571391 0.04386427 0.00877224 0.00231604 0.00166009 0.00216462 0.00640124 0.00539738 0.02165076 0.00210016 0.00196556 0.07571516 0.00523627 0.00635900 0.01440480 0.00136281 
0.04444508 0.04342563 0.00860427 0.00222548 0.00167111 0.00217544 0.00636539 0.00532839 0.02168460 0.00207887 0.00197947 0.07527117 0.00537402 0.00633728 0.01390814 0.00136197 
0.04318733 0.04297316 0.00843267 0.00213879 0.00168242 0.00218852 0.00634751 0.00525987 0.02171223 0.00205644 0.00199204 0.07480738 0.00553039 0.00631720 0.01342081 0.00136105 
0.04194198 0.04250859 0.00825805 0.00205635 0.00169388 0.00220390 0.00634797 0.00519182 0.02173379 0.00203296 0.00200323 0.07432633 0.00570515 0.00629882 0.01294455 0.00136005 
0.04071033 0.04203373 0.00808108 0.00197851 0.00170534 0.00222162 0.00636705 0.00512419 0.02174945 0.00200853 0.00201301 0.07383084 0.00589798 0.00628215 0.01248103 0.00135897 
0.03949366 0.04155052 0.00790240 0.00190560 0.00171667 0.00224168 0.00640489 0.00505697 0.02175941 0.00198326 0.00202137 0.07332398 0.00610848 0.00626720 0.01203182 0.00135784 
0.03829320 0.04106096 0.00772270 0.00183795 0.00172773 0.00226411 0.00646157 0.00499013 0.02176388 0.00195723 0.00202830 0.07280907 0.00633615 0.00625396 0.01159838 0.00135664 
0.03711018 0.04056714 0.00754264 0.00177587 0.00173841 0.00228889 0.00653702 0.00492365 0.02176309 0.00193057 0.00203379 0.07228967 0.00658040 0.00624242 0.01118209 0.00135540 
0.03594580 0.04007124 0.00736288 0.00171962 0.00174858 0.00231603 0.00663110 0.00485752 0.02175731 0.00190340 0.00203783 0.07176951 0.00684058 0.00623254 0.01078422 0.00135411 
0.03480125 0.03957547 0.00718408 0.00166948 0.00175813 0.00234549 0.00674355 0.00479172 0.02174680 0.00187583 0.00204046 0.07125252 0.00711591 0.00622429 0.01040592 0.00135280 
0.03367769 0.03908209 0.00700690 0.00162568 0.00176695 0.00237726 0.00687398 0.00472627 0.02173185 0.00184798 0.00204168 0.07074277 0.00740558 0.00621759 0.01004824 0.00135146 
0.03257630 0.03859339 0.00683197 0.00158843 0.00177496 0.00241130 0.00702193 0.00466116 0.02171277 0.00181998 0.00204151 0.07024446 0.00770868 0.00621240 0.00971211 0.00135011 
0.03149821 0.03811171 0.00665991 0.00155793 0.00178207 0.00244755 0.00718681 0.00459643 0.02168987 0.00179197 0.00203999 0.06976189 0.00802423 0.00620863 0.00939832 0.00134875 
0.03044458 0.03763935 0.00649129 0.00153433 0.00178819 0.00248597 0.00736796 0.00453208 0.02166347 0.00176407 0.00203716 0.06929939 0.00835118 0.00620621 0.00910758 0.00134739 
0.02941654 0.03717862 0.00632670 0.00151777 0.00179328 0.00252648 0.00756460 0.00446817 0.02163390 0.00173642 0.00203304 0.06886137 0.00868842 0.00620503 0.00884046 0.00134604 
0.02841521 0.03673183 0.00616667 0.00150836 0.00179727 0.00256901 0.00777586 0.00440475 0.02160150 0.00170914 0.00202771 0.06845221 0.00903479 0.00620502 0.00859741 0.00134470 
0.02744172 0.03630123 0.00601170 0.00150618 0.00180013 0.00261349 0.00800079 0.00434189 0.02156660 0.00168238 0.00202119 0.06807627 0.00938908 0.00620606 0.00837876 0.00134339 
0.02649718 0.03588903 0.00586227 0.00151127 0.00180182 0.00265981 0.00823835 0.00427966 0.02152955 0.00165627 0.00201356 0.06773786 0.00975004 0.00620805 0.00818474 0.00134210 
0.02558270 0.03549738 0.00571879 0.00152366 0.00180233 0.00270790 0.00848744 0.00421816 0.02149069 0.00163093 0.00200487 0.06744118 0.01011636 0.00621088 0.00801546 0.00134085 
0.02469939 0.03512835 0.00558166 0.00154333 0.00180164 0.00275763 0.00874686 0.00415749 0.02145036 0.00160651 0.00199518 0.06719032 0.01048673 0.00621445 0.00787090 0.00133964 
0.02384832 0.03478392 0.00545123 0.00157024 0.00179976 0.00280891 0.00901538 0.00409780 0.02140889 0.00158313 0.00198457 0.06698921 0.01085979 0.00621865 0.00775095 0.00133847 
0.02303059 0.03446599 0.00532780 0.00160432 0.00179671 0.00286161 0.00929168 0.00403920 0.02136662 0.00156092 0.00197309 0.06684158 0.01123419 0.00622337 0.00765541 0.00133736 
0.02224726 0.03417633 0.00521163 0.00164547 0.00179251 0.00291561 0.00957441 0.00398187 0.02132386 0.00154000 0.00196083 0.06675097 0.01160855 0.00622851 0.00758395 0.00133629 
0.02149938 0.03391661 0.00510292 0.00169355 0.00178719 0.00297080 0.00986217 0.00392597 0.02128094 0.00152050 0.00194786 0.06672065 0.01198151 0.00623396 0.00753617 0.00133529 
0.02078799 0.03368833 0.00500185 0.00174841 0.00178081 0.00302703 0.01015353 0.00387168 0.02123814 0.00150252 0.00193425 0.06675364 0.01235170 0.00623963 0.00751157 0.00133434 
0.02011409 0.03349290 0.00490852 0.00180985 0.00177342 0.00308418 0.01044702 0.00381922 0.02119577 0.00148620 0.00192007 0.06685264 0.01271777 0.00624543 0.00750957 0.00133346 
0.01947867 0.03333154 0.00482301 0.00187766 0.00176509 0.00314210 0.01074118 0.00376878 0.02115411 0.00147162 0.00190542 0.06702006 0.01307840 0.00625127 0.00752951 0.00133263 
0.01888269 0.03320532 0.00474533 0.00195158 0.00175588 0.00320067 0.01103450 0.00372062 0.02111341 0.00145890 0.00189035 0.06725793 0.01343230 0.00625708 0.00757066 0.00133188 
0.01832707 0.03311517 0.00467546 0.00203136 0.00174589 0.00325973 0.01132550 0.00367495 0.02107392 0.00144813 0.00187496 0.06756793 0.01377819 0.00626279 0.00763222 0.00133119 
0.01781270 0.03306183 0.00461334 0.00211669 0.00173521 0.00331915 0.01161269 0.00363205 0.02103587 0.00143940 0.00185931 0.06795137 0.01411487 0.00626833 0.00771334 0.00133056 
0.01734042 0.03304585 0.00455884 0.00220724 0.00172393 0.00337879 0.01189459 0.00359217 0.02099946 0.00143279 0.00184348 0.06840914 0.01444118 0.00627366 0.00781310 0.00133000 
0.01691102 0.03306764 0.00451180 0.00230269 0.00171215 0.00343849 0.01216975 0.00355558 0.02096489 0.00142838 0.00182754 0.06894172 0.01475599 0.00627874 0.00793056 0.00132950 
0.01652525 0.03312740 0.00447203 0.00240265 0.00169998 0.00349811 0.01243676 0.00352258 0.02093232 0.00142624 0.00181158 0.06954915 0.01505827 0.00628352 0.00806471 0.00132907 
0.01618380 0.03322515 0.00443930 0.00250676 0.00168754 0.00355752 0.01269421 0.00349344 0.02090190 0.00142642 0.00179566 0.07023107 0.01534704 0.00628800 0.00821452 0.00132869 
0.01588730 0.03336073 0.00441332 0.00261460 0.00167494 0.00361657 0.01294079 0.00346847 0.02087373 0.00142898 0.00177984 0.07098663 0.01562140 0.00629217 0.00837893 0.00132838 
0.01563630 0.03353380 0.00439379 0.00272576 0.00166230 0.00367512 0.01317518 0.00344796 0.02084792 0.00143395 0.00176420 0.07181457 0.01588051 0.00629601 0.00855687 0.00132812 
0.01543130 0.03374381 0.00438037 0.00283981 0.00164974 0.00373304 0.01339617 0.00343222 0.02082454 0.00144139 0.00174880 0.07271315 0.01612363 0.00629954 0.00874723 0.00132791 
0.01527271 0.03399007 0.00437270 0.00295632 0.00163738 0.00379018 0.01360259 0.00342153 0.02080364 0.00145130 0.00173370 0.07368020 0.01635009 0.00630279 0.00894889 0.00132776 
0.01516086 0.03427167 0.00437039 0.00307481 0.00162534 0.00384643 0.01379333 0.00341620 0.02078522 0.00146370 0.00171897 0.07471310 0.01655934 0.00630577 0.00916075 0.00132765 
0.01509600 0.03458756 0.00437303 0.00319485 0.00161375 0.00390164 0.01396739 0.00341652 0.02076928 0.00147860 0.00170465 0.07580879 0.01675088 0.00630853 0.00938169 0.00132758 
0.01507828 0.03493650 0.00438018 0.00331595 0.00160272 0.00395569 0.01412381 0.00342278 0.02075578 0.00149600 0.00169080 0.07696377 0.01692433 0.00631112 0.00961059 0.00132756 
0.01510777 0.03531708 0.00439141 0.00343766 0.00159236 0.00400847 0.01426175 0.00343525 0.02074467 0.00151587 0.00167747 0.07817413 0.01707939 0.00631358 0.00984634 0.00132757 
0.01518443 0.03572775 0.00440626 0.00355951 0.00158280 0.00405984 0.01438044 0.00345421 0.02073585 0.00153821 0.00166470 0.07943556 0.01721585 0.00631597 0.01008785 0.00132761 
0.01530812 0.03616680 0.00442427 0.00368102 0.00157414 0.00410971 0.01447921 0.00347990 0.02072920 0.00156296 0.00165254 0.08074337 0.01733360 0.00631837 0.01033405 0.00132768 
0.01547860 0.03663238 0.00444498 0.00380174 0.00156648 0.00415796 0.01455748 0.00351258 0.02072459 0.00159009 0.00164103 0.08209248 0.01743263 0.00632084 0.01058387 0.00132777 
0.01569551 0.03712250 0.00446794 0.00392121 0.00155992 0.00420449 0.01461477 0.00355246 0.02072184 0.00161954 0.00163020 0.08347748 0.01751302 0.00632346 0.01083627 0.00132789 
0.01595840 0.03763505 0.00449267 0.00403897 0.00155456 0.00424919 0.01465071 0.00359974 0.02072077 0.00165125 0.00162009 0.08489264 0.01757491 0.00632630 0.01109024 0.00132802 
0.01626668 0.03816780 0.00451874 0.00415459 0.00155047 0.00429198 0.01466502 0.00365462 0.02072114 0.00168514 0.00161072 0.08633194 0.01761858 0.00632943 0.01134480 0.00132816 
0.01661967 0.03871843 0.00454570 0.00426765 0.00154773 0.00433276 0.01465752 0.00371724 0.02072274 0.00172113 0.00160212 0.08778909 0.01764433 0.00633295 0.01159898 0.00132832 
0.01701654 0.03928450 0.00457314 0.00437772 0.00154641 0.00437144 0.01462814 0.00378776 0.02072528 0.00175913 0.00159431 0.08925759 0.01765260 0.00633691 0.01185187 0.00132848 
0.01745638 0.03986351 0.00460064 0.00448442 0.00154657 0.00440796 0.01457690 0.00386627 0.02072850 0.00179904 0.00158731 0.09073072 0.01764388 0.00634141 0.01210256 0.00132864 
0.01793814 0.04045288 0.00462783 0.00458737 0.00154826 0.00444223 0.01450394 0.00395285 0.02073210 0.00184073 0.00158114 0.09220162 0.01761871 0.00634649 0.01235019 0.00132881 
0.01846064 0.04104996 0.00465435 0.00468621 0.00155152 0.00447418 0.01440948 0.00404757 0.02073575 0.00188411 0.00157580 0.09366330 0.01757774 0.00635224 0.01259394 0.00132898 
0.01902260 0.04165206 0.00467987 0.00478060 0.00155639 0.00450375 0.01429384 0.00415043 0.02073912 0.00192903 0.00157131 0.09510868 0.01752165 0.00635871 0.01283301 0.00132914 
0.01962263 0.04225647 0.00470408 0.00487024 0.00156287 0.00453088 0.01415744 0.00426142 0.02074187 0.00197536 0.00156767 0.09653066 0.01745120 0.00636594 0.01306665 0.00132929 
0.02025919 0.04286043 0.00472672 0.00495483 0.00157099 0.00455552 0.01400080 0.00438050 0.02074366 0.00202296 0.00156488 0.09792213 0.01736717 0.00637399 0.01329413 0.00132944 
0.02093065 0.04346118 0.00474755 0.00503413 0.00158074 0.00457761 0.01382450 0.00450759 0.02074411 0.00207168 0.00156295 0.09927601 0.01727040 0.00638289 0.01351477 0.00132958 
0.02163526 0.04405597 0.00476637 0.00510789 0.00159211 0.00459712 0.01362924 0.00464257 0.02074286 0.00212137 0.00156186 0.10058533 0.01716179 0.00639266 0.01372792 0.00132972 
0.02237117 0.04464205 0.00478302 0.00517591 0.00160508 0.00461401 0.01341578 0.00478528 0.02073954 0.00217187 0.00156162 0.10184325 0.01704224 0.00640332 0.01393296 0.00132984 
0.02313642 0.04521670 0.00479738 0.00523801 0.00161961 0.00462824 0.01318494 0.00493554 0.02073379 0.00222301 0.00156222 0.10304310 0.01691268 0.00641486 0.01412932 0.00132995 
0.02392893 0.04577723 0.00480936 0.00529406 0.00163567 0.00463978 0.01293766 0.00509313 0.02072524 0.00227463 0.00156364 0.10417843 0.01677409 0.00642728 0.01431644 0.00133006 
0.02474654 0.04632103 0.00481892 0.00534394 0.00165320 0.00464862 0.01267489 0.00525777 0.02071354 0.00232655 0.00156588 0.10524307 0.01662741 0.00644055 0.01449382 0.00133016 
0.02558700 0.04684551 0.00482606 0.00538755 0.00167214 0.00465474 0.01239769 0.00542918 0.02069833 0.00237861 0.00156891 0.10623114 0.01647364 0.00645464 0.01466099 0.00133025 
0.02644796 0.04734818 0.00483081 0.00542487 0.00169241 0.00465811 0.01210714 0.00560703 0.02067929 0.00243062 0.00157273 0.10713714 0.01631375 0.00646950 0.01481750 0.00133033 
0.02732701 0.04782663 0.00483326 0.00545585 0.00171394 0.00465875 0.01180438 0.00579093 0.02065610 0.00248241 0.00157731 0.10795593 0.01614871 0.00648507 0.01496295 0.00133040 
0.02822164 0.04827854 0.00483351 0.00548051 0.00173663 0.00465665 0.01149061 0.00598050 0.02062846 0.00253381 0.00158264 0.10868284 0.01597949 0.00650128 0.01509697 0.00133048 
0.02912928 0.04870169 0.00483172 0.00549889 0.00176039 0.00465181 0.01116705 0.00617530 0.02059611 0.00258464 0.00158869 0.10931365 0.01580702 0.00651805 0.01521921 0.00133055 
0.03004731 0.04909399 0.00482810 0.00551107 0.00178511 0.00464425 0.01083496 0.00637486 0.02055879 0.00263472 0.00159544 0.10984465 0.01563223 0.00653527 0.01532939 0.00133062 
0.03097305 0.04945346 0.00482285 0.00551714 0.00181066 0.00463399 0.01049562 0.00657869 0.02051631 0.00268389 0.00160287 0.11027268 0.01545603 0.00655284 0.01542721 0.00133069 
0.03190378 0.04977827 0.00481625 0.00551722 0.00183695 0.00462104 0.01015034 0.00678627 0.02046847 0.00273199 0.00161095 0.11059514 0.01527926 0.00657064 0.01551246 0.00133077 
0.03283674 0.05006671 0.00480859 0.00551148 0.00186382 0.00460544 0.00980045 0.00699704 0.02041513 0.00277885 0.00161965 0.11081006 0.01510278 0.00658855 0.01558494 0.00133085 
0.03376915 0.05031724 0.00480019 0.00550010 0.00189117 0.00458723 0.00944726 0.00721045 0.02035621 0.00282431 0.00162896 0.11091606 0.01492736 0.00660644 0.01564446 0.00133094 
0.03469821 0.05052847 0.00479140 0.00548328 0.00191884 0.00456644 0.00909213 0.00742588 0.02029163 0.00286822 0.00163884 0.11091241 0.01475376 0.00662416 0.01569092 0.00133105 
0.03562110 0.05069916 0.00478259 0.00546125 0.00194670 0.00454314 0.00873637 0.00764274 0.02022139 0.00291045 0.00164927 0.11079908 0.01458267 0.00664157 0.01572421 0.00133116 
0.03653503 0.05082826 0.00477417 0.00543427 0.00197461 0.00451737 0.00838131 0.00786039 0.02014553 0.00295086 0.00166022 0.11057667 0.01441477 0.00665852 0.01574427 0.00133130 
0.03743720 0.05091489 0.00476652 0.00540261 0.00200241 0.00448919 0.00802827 0.00807819 0.02006413 0.00298931 0.00167166 0.11024648 0.01425065 0.00667486 0.01575110 0.00133145 
0.03832484 0.05095833 0.00476009 0.00536655 0.00202998 0.00445869 0.00767852 0.00829549 0.01997735 0.00302570 0.00168357 0.10981050 0.01409087 0.00669045 0.01574470 0.00133162 
0.03919521 0.05095807 0.00475531 0.00532641 0.00205715 0.00442594 0.00733335 0.00851163 0.01988537 0.00305991 0.00169592 0.10927142 0.01393593 0.00670512 0.01572513 0.00133182 
0.04004562 0.05091377 0.00475261 0.00528250 0.00208378 0.00439102 0.00699400 0.00872595 0.01978847 0.00309186 0.00170868 0.10863257 0.01378627 0.00671873 0.01569250 0.00133204 
0.04087343 0.05082528 0.00475245 0.00523516 0.00210973 0.00435403 0.00666166 0.00893779 0.01968695 0.00312146 0.00172182 0.10789801 0.01364230 0.00673114 0.01564693 0.00133229 
0.04167607 0.05069263 0.00475527 0.00518473 0.00213486 0.00431506 0.00633752 0.00914647 0.01958119 0.00314863 0.00173533 0.10707241 0.01350435 0.00674222 0.01558861 0.00133257 
0.04245104 0.05051607 0.00476150 0.00513155 0.00215902 0.00427423 0.00602270 0.00935136 0.01947162 0.00317332 0.00174917 0.10616109 0.01337271 0.00675183 0.01551776 0.00133288 
0.04319592 0.05029599 0.00477157 0.00507599 0.00218209 0.00423165 0.00571829 0.00955179 0.01935873 0.00319548 0.00176333 0.10516999 0.01324761 0.00675986 0.01543463 0.00133322 
0.04390840 0.05003303 0.00478592 0.00501841 0.00220392 0.00418744 0.00542532 0.00974714 0.01924309 0.00321507 0.00177777 0.10410562 0.01312922 0.00676621 0.01533954 0.00133360 
0.04458626 0.04972795 0.00480492 0.00495916 0.00222441 0.00414173 0.00514478 0.00993677 0.01912529 0.00323208 0.00179249 0.10297506 0.01301769 0.00677078 0.01523283 0.00133401 
0.04522740 0.04938176 0.00482898 0.00489860 0.00224341 0.00409465 0.00487760 0.01012011 0.01900602 0.00324650 0.00180744 0.10178588 0.01291308 0.00677350 0.01511489 0.00133445 
0.04582986 0.04899559 0.00485844 0.00483709 0.00226083 0.00404636 0.00462465 0.01029655 0.01888599 0.00325834 0.00182262 0.10054611 0.01281544 0.00677430 0.01498616 0.00133493 
0.04639178 0.04857080 0.00489364 0.00477497 0.00227657 0.00399700 0.00438675 0.01046555 0.01876599 0.00326762 0.00183801 0.09926423 0.01272474 0.00677315 0.01484712 0.00133544 
0.04691148 0.04810888 0.00493488 0.00471260 0.00229052 0.00394672 0.00416465 0.01062657 0.01864683 0.00327437 0.00185359 0.09794907 0.01264093 0.00677002 0.01469827 0.00133599 
0.04738740 0.04761151 0.00498243 0.00465029 0.00230259 0.00389570 0.00395903 0.01077913 0.01852939 0.00327865 0.00186934 0.09660976 0.01256391 0.00676491 0.01454020 0.00133657 
0.04781815 0.04708052 0.00503652 0.00458838 0.00231272 0.00384408 0.00377052 0.01092275 0.01841459 0.00328051 0.00188524 0.09525572 0.01249354 0.00675784 0.01437349 0.00133718 
0.04820251 0.04651790 0.00509734 0.00452716 0.00232083 0.00379205 0.00359967 0.01105701 0.01830339 0.00328004 0.00190130 0.09389654 0.01242966 0.00674885 0.01419879 0.00133783 
0.04853941 0.04592578 0.00516506 0.00446693 0.00232687 0.00373979 0.00344696 0.01118151 0.01819678 0.00327732 0.00191748 0.09254195 0.01237206 0.00673799 0.01401679 0.00133850 
0.04882797 0.04530643 0.00523978 0.00440797 0.00233079 0.00368746 0.00331281 0.01129590 0.01809577 0.00327245 0.00193378 0.09120177 0.01232049 0.00672537 0.01382820 0.00133920 
0.04906748 0.04466223 0.00532156 0.00435053 0.00233256 0.00363527 0.00319757 0.01139987 0.01800140 0.00326556 0.00195020 0.08988578 0.01227471 0.00671108 0.01363377 0.00133992 
0.04925744 0.04399572 0.00541043 0.00429484 0.00233215 0.00358338 0.00310151 0.01149315 0.01791475 0.00325675 0.00196672 0.08860374 0.01223442 0.00669526 0.01343429 0.00134066 
0.04939750 0.04330950 0.00550636 0.00424113 0.00232956 0.00353199 0.00302485 0.01157551 0.01783687 0.00324618 0.00198333 0.08736525 0.01219931 0.00667806 0.01323058 0.00134142 
0.04948753 0.04260630 0.00560928 0.00418959 0.00232477 0.00348130 0.00296770 0.01164678 0.01776884 0.00323397 0.00200004 0.08617971 0.01216905 0.00665965 0.01302347 0.00134220 
0.04952758 0.04188892 0.00571905 0.00414039 0.00231782 0.00343147 0.00293015 0.01170683 0.01771174 0.00322029 0.00201682 0.08505626 0.01214331 0.00664024 0.01281385 0.00134299 
0.04951787 0.04116026 0.00583552 0.00409369 0.00230871 0.00338271 0.00291218 0.01175556 0.01766663 0.00320531 0.00203370 0.08400371 0.01212171 0.00662004 0.01260259 0.00134379 
0.04945886 0.04042326 0.00595846 0.00404960 0.00229749 0.00333520 0.00291373 0.01179293 0.01763456 0.00318917 0.00205065 0.08303044 0.01210390 0.00659929 0.01239060 0.00134458 
0.04935115 0.03968092 0.00608761 0.00400823 0.00228419 0.00328913 0.00293464 0.01181896 0.01761654 0.00317208 0.00206767 0.08214439 0.01208949 0.00657824 0.01217879 0.00134538 
0.04919555 0.03893628 0.00622265 0.00396965 0.00226889 0.00324466 0.00297471 0.01183370 0.01761357 0.00315419 0.00208478 0.08135298 0.01207810 0.00655717 0.01196811 0.00134617 
0.04899306 0.03819242 0.00636322 0.00393394 0.00225165 0.00320199 0.00303367 0.01183725 0.01762659 0.00313571 0.00210195 0.08066304 0.01206934 0.00653635 0.01175948 0.00134695 
0.04874485 0.03745243 0.00650893 0.00390111 0.00223255 0.00316127 0.00311117 0.01182975 0.01765651 0.00311681 0.00211921 0.08008073 0.01206282 0.00651609 0.01155383 0.00134772 
0.04845227 0.03671938 0.00665932 0.00387117 0.00221169 0.00312268 0.00320681 0.01181139 0.01770417 0.00309768 0.00213654 0.07961158 0.01205815 0.00649669 0.01135209 0.00134846 
0.04811683 0.03599638 0.00681393 0.00384411 0.00218915 0.00308636 0.00332013 0.01178240 0.01777036 0.00307852 0.00215394 0.07926034 0.01205494 0.00647847 0.01115518 0.00134918 
0.04774021 0.03528648 0.00697222 0.00381990 0.00216505 0.00305247 0.00345061 0.01174307 0.01785578 0.00305951 0.00217142 0.07903099 0.01205281 0.00646174 0.01096402 0.00134986 
0.04732424 0.03459271 0.00713364 0.00379849 0.00213951 0.00302114 0.00359766 0.01169369 0.01796108 0.00304084 0.00218898 0.07892672 0.01205137 0.00644683 0.01077948 0.00135051 
0.04687089 0.03391805 0.00729762 0.00377979 0.00211266 0.00299251 0.00376065 0.01163462 0.01808681 0.00302269 0.00220661 0.07894985 0.01205026 0.00643406 0.01060244 0.00135112 
0.04638229 0.03326543 0.00746355 0.00376371 0.00208462 0.00296668 0.00393890 0.01156624 0.01823343 0.00300523 0.00222431 0.07910185 0.01204910 0.00642375 0.01043373 0.00135167 
0.04586067 0.03263770 0.00763078 0.00375015 0.00205554 0.00294377 0.00413166 0.01148898 0.01840132 0.00298866 0.00224209 0.07938327 0.01204754 0.00641622 0.01027416 0.00135218 
0.04530839 0.03203765 0.00779867 0.00373898 0.00202557 0.00292387 0.00433815 0.01140327 0.01859072 0.00297312 0.00225993 0.07979379 0.01204524 0.00641177 0.01012449 0.00135263 
0.04472789 0.03146796 0.00796654 0.00373006 0.00199484 0.00290706 0.00455755 0.01130958 0.01880181 0.00295878 0.00227784 0.08033216 0.01204185 0.00641068 0.00998545 0.00135301 
0.04412173 0.03093120 0.00813371 0.00372325 0.00196352 0.00289340 0.00478898 0.01120842 0.01903464 0.00294579 0.00229581 0.08099622 0.01203706 0.00641325 0.00985772 0.00135333 
0.04349254 0.03042985 0.00829950 0.00371837 0.00193176 0.00288294 0.00503154 0.01110029 0.01928914 0.00293429 0.00231383 0.08178291 0.01203056 0.00641974 0.00974191 0.00135357 
0.04284300 0.02996626 0.00846321 0.00371527 0.00189972 0.00287572 0.00528428 0.01098574 0.01956512 0.00292442 0.00233188 0.08268828 0.01202205 0.00643037 0.00963861 0.00135373 
0.04217585 0.02954263 0.00862414 0.00371377 0.00186757 0.00287177 0.00554622 0.01086532 0.01986230 0.00291628 0.00234997 0.08370748 0.01201126 0.00644538 0.00954833 0.00135381 
0.04149388 0.02916103 0.00878162 0.00371368 0.00183545 0.00287107 0.00581636 0.01073956 0.02018024 0.00290998 0.00236807 0.08483485 0.01199790 0.00646495 0.00947152 0.00135381 
0.04079988 0.02882338 0.00893495 0.00371484 0.00180354 0.00287363 0.00609368 0.01060906 0.02051841 0.00290562 0.00238617 0.08606388 0.01198175 0.00648924 0.00940856 0.00135372 
0.04009667 0.02853145 0.00908347 0.00371704 0.00177198 0.00287942 0.00637711 0.01047436 0.02087614 0.00290327 0.00240424 0.08738727 0.01196255 0.00651839 0.00935978 0.00135353 
0.03938704 0.02828682 0.00922653 0.00372011 0.00174094 0.00288838 0.00666559 0.01033604 0.02125264 0.00290300 0.00242227 0.08879702 0.01194010 0.00655251 0.00932542 0.00135325 
0.03867378 0.02809091 0.00936352 0.00372387 0.00171056 0.00290047 0.00695803 0.01019468 0.02164702 0.00290485 0.00244023 0.09028441 0.01191419 0.00659165 0.00930564 0.00135287 
0.03795964 0.02794498 0.00949381 0.00372814 0.00168099 0.00291559 0.00725334 0.01005082 0.02205825 0.00290886 0.00245810 0.09184008 0.01188465 0.00663584 0.00930056 0.00135239 
0.03724732 0.02785006 0.00961684 0.00373276 0.00165238 0.00293368 0.00755043 0.00990501 0.02248520 0.00291504 0.00247583 0.09345411 0.01185132 0.00668507 0.00931020 0.00135180 
0.03653944 0.02780704 0.00973208 0.00373756 0.00162486 0.00295460 0.00784817 0.00975781 0.02292663 0.00292340 0.00249339 0.09511605 0.01181404 0.00673929 0.00933450 0.00135111 
0.03583857 0.02781658 0.00983900 0.00374239 0.00159856 0.00297825 0.00814548 0.00960972 0.02338119 0.00293392 0.00251075 0.09681502 0.01177269 0.00679842 0.00937333 0.00135032 
0.03514717 0.02787916 0.00993716 0.00374711 0.00157360 0.00300448 0.00844124 0.00946126 0.02384744 0.00294656 0.00252787 0.09853975 0.01172717 0.00686232 0.00942648 0.00134942 
0.03446761 0.02799504 0.01002611 0.00375159 0.00155010 0.00303314 0.00873438 0.00931291 0.02432384 0.00296128 0.00254469 0.10027866 0.01167739 0.00693082 0.00949368 0.00134842 
0.03380213 0.02816432 0.01010549 0.00375571 0.00152816 0.00306408 0.00902380 0.00916513 0.02480878 0.00297802 0.00256117 0.10201996 0.01162328 0.00700369 0.00957455 0.00134732 
0.03315286 0.02838685 0.01017495 0.00375937 0.00150787 0.00309711 0.00930846 0.00901836 0.02530055 0.00299669 0.00257726 0.10375169 0.01156481 0.00708069 0.00966868 0.00134611 
0.03252177 0.02866230 0.01023422 0.00376249 0.00148933 0.00313204 0.00958731 0.00887301 0.02579739 0.00301720 0.00259291 0.10546186 0.01150195 0.00716152 0.00977555 0.00134480 
0.03191070 0.02899014 0.01028306 0.00376499 0.00147260 0.00316869 0.00985933 0.00872947 0.02629748 0.00303944 0.00260804 0.10713845 0.01143470 0.00724583 0.00989459 0.00134340 
0.03132133 0.02936962 0.01032129 0.00376682 0.00145776 0.00320683 0.01012353 0.00858810 0.02679894 0.00306328 0.00262261 0.10876955 0.01136307 0.00733325 0.01002516 0.00134190 
0.03075519 0.02979980 0.01034878 0.00376794 0.00144485 0.00324626 0.01037896 0.00844920 0.02729986 0.00308859 0.00263655 0.11034343 0.01128711 0.00742336 0.01016655 0.00134031 
0.03021360 0.03027956 0.01036546 0.00376832 0.00143391 0.00328676 0.01062468 0.00831308 0.02779830 0.00311521 0.00264979 0.11184861 0.01120688 0.00751571 0.01031799 0.00133863 
0.02969774 0.03080755 0.01037130 0.00376798 0.00142499 0.00332809 0.01085982 0.00818000 0.02829230 0.00314299 0.00266227 0.11327394 0.01112246 0.00760981 0.01047867 0.00133687 
0.02920859 0.03138226 0.01036634 0.00376691 0.00141809 0.00337002 0.01108353 0.00805020 0.02877988 0.00317174 0.00267391 0.11460869 0.01103398 0.00770514 0.01064771 0.00133503 
0.02874695 0.03200197 0.01035067 0.00376514 0.00141322 0.00341233 0.01129501 0.00792386 0.02925909 0.00320128 0.00268465 0.11584259 0.01094155 0.00780115 0.01082419 0.00133313 
0.02831344 0.03266481 0.01032444 0.00376273 0.00141038 0.00345477 0.01149351 0.00780115 0.02972798 0.00323141 0.00269440 0.11696595 0.01084534 0.00789727 0.01100715 0.00133116 
0.02790847 0.03336871 0.01028784 0.00375974 0.00140957 0.00349710 0.01167833 0.00768223 0.03018463 0.00326195 0.00270311 0.11796969 0.01074552 0.00799290 0.01119559 0.00132913 
0.02753229 0.03411145 0.01024112 0.00375623 0.00141074 0.00353910 0.01184881 0.00756718 0.03062716 0.00329267 0.00271070 0.11884542 0.01064229 0.00808744 0.01138849 0.00132705 
0.02718495 0.03489066 0.01018459 0.00375231 0.00141386 0.00358053 0.01200438 0.00745610 0.03105373 0.00332337 0.00271709 0.11958549 0.01053586 0.00818024 0.01158478 0.00132493 
0.02686630 0.03570379 0.01011861 0.00374807 0.00141888 0.00362115 0.01214449 0.00734903 0.03146257 0.00335382 0.00272222 0.12018306 0.01042650 0.00827066 0.01178339 0.00132278 
0.02657603 0.03654818 0.01004356 0.00374363 0.00142576 0.00366075 0.01226867 0.00724601 0.03185199 0.00338381 0.00272601 0.12063213 0.01031446 0.00835805 0.01198324 0.00132060 
0.02631366 0.03742104 0.00995990 0.00373911 0.00143441 0.00369911 0.01237651 0.00714704 0.03222036 0.00341311 0.00272840 0.12092757 0.01020003 0.00844177 0.01218324 0.00131840 
0.02607853 0.03831945 0.00986813 0.00373465 0.00144477 0.00373602 0.01246765 0.00705210 0.03256617 0.00344150 0.00272933 0.12106523 0.01008351 0.00852115 0.01238230 0.00131620 
0.02586982 0.03924038 0.00976876 0.00373040 0.00145675 0.00377129 0.01254182 0.00696116 0.03288799 0.00346877 0.00272873 0.12104186 0.00996525 0.00859554 0.01257932 0.00131399 
0.02568656 0.04018072 0.00966238 0.00372649 0.00147025 0.00380472 0.01259880 0.00687416 0.03318450 0.00349468 0.00272655 0.12085524 0.00984558 0.00866433 0.01277324 0.00131180 
0.02552765 0.04113725 0.00954960 0.00372309 0.00148518 0.00383613 0.01263843 0.00679104 0.03345451 0.00351904 0.00272273 0.12050414 0.00972487 0.00872687 0.01296300 0.00130963 
0.02539185 0.04210673 0.00943106 0.00372034 0.00150143 0.00386537 0.01266062 0.00671172 0.03369696 0.00354163 0.00271723 0.11998833 0.00960350 0.00878257 0.01314757 0.00130750 
0.02527780 0.04308580 0.00930742 0.00371842 0.00151888 0.00389229 0.01266537 0.00663611 0.03391091 0.00356225 0.00271001 0.11930860 0.00948187 0.00883085 0.01332596 0.00130540 
0.02518404 0.04407111 0.00917939 0.00371746 0.00153742 0.00391675 0.01265273 0.00656411 0.03409557 0.00358071 0.00270103 0.11846678 0.00936041 0.00887116 0.01349721 0.00130336 
0.02510901 0.04505925 0.00904770 0.00371763 0.00155694 0.00393864 0.01262280 0.00649563 0.03425029 0.00359683 0.00269027 0.11746570 0.00923952 0.00890299 0.01366041 0.00130137 
0.02505110 0.04604682 0.00891309 0.00371908 0.00157729 0.00395784 0.01257577 0.00643056 0.03437457 0.00361043 0.00267771 0.11630916 0.00911966 0.00892585 0.01381468 0.00129946 
0.02500860 0.04703039 0.00877632 0.00372195 0.00159837 0.00397430 0.01251190 0.00636880 0.03446806 0.00362136 0.00266332 0.11500197 0.00900127 0.00893932 0.01395924 0.00129763 
0.02497979 0.04800658 0.00863816 0.00372638 0.00162003 0.00398792 0.01243149 0.00631026 0.03453059 0.00362947 0.00264712 0.11354984 0.00888481 0.00894299 0.01409331 0.00129589 
0.02496289 0.04897201 0.00849941 0.00373249 0.00164214 0.00399868 0.01233493 0.00625483 0.03456210 0.00363463 0.00262911 0.11195944 0.00877074 0.00893653 0.01421623 0.00129425 
0.02495613 0.04992337 0.00836085 0.00374042 0.00166459 0.00400654 0.01222266 0.00620245 0.03456273 0.00363672 0.00260930 0.11023827 0.00865953 0.00891966 0.01432738 0.00129272 
0.02495773 0.05085740 0.00822327 0.00375025 0.00168723 0.00401150 0.01209517 0.00615301 0.03453275 0.00363565 0.00258771 0.10839467 0.00855164 0.00889213 0.01442621 0.00129130 
0.02496594 0.05177091 0.00808748 0.00376209 0.00170994 0.00401357 0.01195302 0.00610648 0.03447260 0.00363134 0.00256439 0.10643776 0.00844755 0.00885378 0.01451227 0.00129001 
0.02497904 0.05266083 0.00795427 0.00377602 0.00173259 0.00401278 0.01179682 0.00606278 0.03438287 0.00362372 0.00253937 0.10437737 0.00834772 0.00880449 0.01458517 0.00128885 
0.02499535 0.05352416 0.00782441 0.00379209 0.00175507 0.00400918 0.01162725 0.00602188 0.03426429 0.00361275 0.00251272 0.10222398 0.00825261 0.00874424 0.01464461 0.00128784 
0.02501330 0.05435804 0.00769868 0.00381036 0.00177724 0.00400284 0.01144500 0.00598375 0.03411774 0.00359840 0.00248450 0.09998869 0.00816267 0.00867303 0.01469039 0.00128696 
0.02503135 0.05515975 0.00757785 0.00383085 0.00179901 0.00399385 0.01125085 0.00594840 0.03394426 0.00358068 0.00245478 0.09768310 0.00807834 0.00859095 0.01472238 0.00128625 
0.02504811 0.05592672 0.00746264 0.00385357 0.00182025 0.00398233 0.01104560 0.00591582 0.03374499 0.00355958 0.00242365 0.09531928 0.00800006 0.00849818 0.01474054 0.00128568 
0.02506227 0.05665653 0.00735379 0.00387853 0.00184087 0.00396839 0.01083009 0.00588604 0.03352120 0.00353516 0.00239121 0.09290968 0.00792823 0.00839494 0.01474493 0.00128528 
0.02507266 0.05734695 0.00725198 0.00390568 0.00186077 0.00395219 0.01060521 0.00585911 0.03327431 0.00350747 0.00235758 0.09046706 0.00786325 0.00828153 0.01473569 0.00128505 
0.02507825 0.05799592 0.00715790 0.00393500 0.00187986 0.00393387 0.01037187 0.00583508 0.03300581 0.00347659 0.00232286 0.08800441 0.00780550 0.00815833 0.01471306 0.00128498 
0.02507817 0.05860161 0.00707217 0.00396640 0.00189804 0.00391363 0.01013101 0.00581403 0.03271732 0.00344261 0.00228718 0.08553486 0.00775532 0.00802577 0.01467737 0.00128509 
0.02507170 0.05916238 0.00699542 0.00399981 0.00191526 0.00389164 0.00988360 0.00579605 0.03241052 0.00340565 0.00225068 0.08307163 0.00771304 0.00788438 0.01462901 0.00128537 
0.02505831 0.05967682 0.00692822 0.00403512 0.00193143 0.00386811 0.00963064 0.00578124 0.03208719 0.00336586 0.00221352 0.08062792 0.00767895 0.00773472 0.01456850 0.00128582 
0.02503763 0.06014374 0.00687109 0.00407222 0.00194650 0.00384326 0.00937312 0.00576973 0.03174918 0.00332338 0.00217583 0.07821686 0.00765333 0.00757746 0.01449642 0.00128644 
0.02500949 0.06056221 0.00682456 0.00411097 0.00196042 0.00381731 0.00911206 0.00576165 0.03139838 0.00327839 0.00213778 0.07585139 0.00763641 0.00741329 0.01441341 0.00128724 
0.02497393 0.06093152 0.00678906 0.00415120 0.00197313 0.00379051 0.00884850 0.00575712 0.03103672 0.00323110 0.00209955 0.07354424 0.00762838 0.00724299 0.01432024 0.00128821 
0.02493115 0.06125124 0.00676501 0.00419274 0.00198461 0.00376309 0.00858347 0.00575631 0.03066619 0.00318171 0.00206130 0.07130782 0.00762940 0.00706739 0.01421770 0.00128934 
0.02488159 0.06152116 0.00675279 0.00423542 0.00199484 0.00373531 0.00831798 0.00575937 0.03028876 0.00313044 0.00202321 0.06915414 0.00763961 0.00688737 0.01410669 0.00129063 
0.02482585 0.06174138 0.00675271 0.00427902 0.00200378 0.00370742 0.00805308 0.00576644 0.02990644 0.00307755 0.00198547 0.06709478 0.00765908 0.00670386 0.01398814 0.00129209 
0.02476478 0.06191221 0.00676505 0.00432333 0.00201143 0.00367968 0.00778978 0.00577770 0.02952122 0.00302329 0.00194827 0.06514077 0.00768786 0.00651785 0.01386306 0.00129370 
0.02469937 0.06203426 0.00679004 0.00436812 0.00201779 0.00365236 0.00752909 0.00579330 0.02913506 0.00296793 0.00191180 0.06330259 0.00772594 0.00633035 0.01373252 0.00129546 
0.02463087 0.06210838 0.00682783 0.00441317 0.00202286 0.00362571 0.00727199 0.00581339 0.02874990 0.00291175 0.00187625 0.06159005 0.00777329 0.00614241 0.01359761 0.00129736 
0.02456066 0.06213571 0.00687857 0.00445822 0.00202666 0.00359999 0.00701946 0.00583812 0.02836764 0.00285504 0.00184181 0.06001228 0.00782982 0.00595513 0.01345948 0.00129939 
0.02449033 0.06211761 0.00694231 0.00450303 0.00202921 0.00357547 0.00677243 0.00586762 0.02799012 0.00279811 0.00180868 0.05857767 0.00789539 0.00576962 0.01331932 0.00130155 
0.02442165 0.06205572 0.00701908 0.00454734 0.00203054 0.00355238 0.00653183 0.00590201 0.02761911 0.00274126 0.00177704 0.05729382 0.00796985 0.00558700 0.01317833 0.00130382 
0.02435653 0.06195190 0.00710884 0.00459089 0.00203067 0.00353099 0.00629854 0.00594140 0.02725630 0.00268480 0.00174708 0.05616748 0.00805296 0.00540841 0.01303774 0.00130620 
0.02429705 0.06180828 0.00721150 0.00463343 0.00202966 0.00351151 0.00607340 0.00598588 0.02690331 0.00262905 0.00171899 0.05520458 0.00814447 0.00523501 0.01289879 0.00130868 
0.02424543 0.06162719 0.00732692 0.00467470 0.00202754 0.00349419 0.00585723 0.00603551 0.02656163 0.00257433 0.00169295 0.05441012 0.00824407 0.00506795 0.01276272 0.00131125 
0.02420401 0.06141119 0.00745492 0.00471444 0.00202438 0.00347922 0.00565080 0.00609035 0.02623267 0.00252096 0.00166912 0.05378820 0.00835144 0.00490837 0.01263079 0.00131389 
0.02417522 0.06116303 0.00759523 0.00475241 0.00202022 0.00346682 0.00545483 0.00615039 0.02591772 0.00246925 0.00164768 0.05334202 0.00846618 0.00475739 0.01250421 0.00131660 
0.02416162 0.06088567 0.00774758 0.00478836 0.00201513 0.00345718 0.00527000 0.00621565 0.02561794 0.00241952 0.00162878 0.05307379 0.00858788 0.00461613 0.01238421 0.00131936 
0.02416581 0.06058222 0.00791161 0.00482207 0.00200917 0.00345046 0.00509694 0.00628607 0.02533438 0.00237209 0.00161257 0.05298480 0.00871608 0.00448566 0.01227199 0.00132216 
0.02419046 0.06025597 0.00808693 0.00485330 0.00200241 0.00344682 0.00493622 0.00636158 0.02506794 0.00232724 0.00159918 0.05307541 0.00885030 0.00436704 0.01216869 0.00132499 
0.02423828 0.05991033 0.00827310 0.00488184 0.00199493 0.00344639 0.00478836 0.00644207 0.02481938 0.00228529 0.00158875 0.05334501 0.00899003 0.00426127 0.01207543 0.00132784 
0.02431200 0.05954885 0.00846963 0.00490751 0.00198679 0.00344930 0.00465384 0.00652741 0.02458933 0.00224651 0.00158139 0.05379209 0.00913472 0.00416932 0.01199329 0.00133069 
0.02441434 0.05917514 0.00867599 0.00493011 0.00197806 0.00345565 0.00453305 0.00661742 0.02437828 0.00221117 0.00157720 0.05441422 0.00928381 0.00409209 0.01192328 0.00133354 
0.02454799 0.05879293 0.00889161 0.00494948 0.00196883 0.00346550 0.00442636 0.00671188 0.02418657 0.00217954 0.00157627 0.05520807 0.00943670 0.00403044 0.01186635 0.00133637 
0.02471559 0.05840597 0.00911587 0.00496549 0.00195917 0.00347892 0.00433406 0.00681054 0.02401439 0.00215186 0.00157866 0.05616947 0.00959281 0.00398516 0.01182340 0.00133916 
0.02491973 0.05801807 0.00934812 0.00497799 0.00194915 0.00349594 0.00425637 0.00691313 0.02386179 0.00212836 0.00158444 0.05729344 0.00975150 0.00395695 0.01179524 0.00134191 
0.02516291 0.05763302 0.00958768 0.00498689 0.00193886 0.00351657 0.00419347 0.00701931 0.02372869 0.00210925 0.00159365 0.05857417 0.00991215 0.00394646 0.01178260 0.00134460 
0.02544750 0.05725461 0.00983383 0.00499210 0.00192836 0.00354081 0.00414546 0.00712874 0.02361485 0.00209472 0.00160631 0.06000515 0.01007414 0.00395426 0.01178614 0.00134722 
0.02577575 0.05688657 0.01008582 0.00499357 0.00191773 0.00356861 0.00411240 0.00724102 0.02351993 0.00208495 0.00162244 0.06157914 0.01023683 0.00398081 0.01180642 0.00134977 
0.02614977 0.05653257 0.01034288 0.00499124 0.00190704 0.00359993 0.00409428 0.00735573 0.02344343 0.00208008 0.00164202 0.06328828 0.01039958 0.00402651 0.01184391 0.00135223 
0.02657148 0.05619618 0.01060421 0.00498512 0.00189636 0.00363468 0.00409101 0.00747243 0.02338475 0.00208024 0.00166502 0.06512410 0.01056178 0.00409165 0.01189899 0.00135458 
0.02704262 0.05588086 0.01086899 0.00497520 0.00188576 0.00367276 0.00410248 0.00759062 0.02334315 0.00208555 0.00169140 0.06707759 0.01072281 0.00417644 0.01197192 0.00135683 
0.02756472 0.05558991 0.01113638 0.00496153 0.00187530 0.00371405 0.00412848 0.00770982 0.02331782 0.00209607 0.00172111 0.06913928 0.01088207 0.00428097 0.01206289 0.00135896 
0.02813909 0.05532648 0.01140554 0.00494416 0.00186505 0.00375842 0.00416878 0.00782949 0.02330782 0.00211188 0.00175405 0.07129927 0.01103898 0.00440526 0.01217197 0.00136096 
0.02876678 0.05509350 0.01167561 0.00492316 0.00185505 0.00380568 0.00422307 0.00794910 0.02331214 0.00213299 0.00179014 0.07354733 0.01119299 0.00454919 0.01229911 0.00136282 
0.02944862 0.05489370 0.01194571 0.00489865 0.00184538 0.00385567 0.00429099 0.00806809 0.02332969 0.00215942 0.00182926 0.07587292 0.01134355 0.00471257 0.01244418 0.00136454 
0.03018514 0.05472956 0.01221498 0.00487076 0.00183607 0.00390817 0.00437213 0.00818589 0.02335930 0.00219114 0.00187128 0.07826530 0.01149018 0.00489510 0.01260694 0.00136612 
0.03097659 0.05460332 0.01248254 0.00483962 0.00182718 0.00396297 0.00446605 0.00830193 0.02339976 0.00222811 0.00191606 0.08071357 0.01163238 0.00509637 0.01278704 0.00136753 
0.03182295 0.05451691 0.01274752 0.00480541 0.00181875 0.00401983 0.00457222 0.00841563 0.02344981 0.00227027 0.00196342 0.08320675 0.01176974 0.00531588 0.01298402 0.00136879 
0.03272389 0.05447198 0.01300906 0.00476833 0.00181083 0.00407851 0.00469010 0.00852644 0.02350815 0.00231751 0.00201320 0.08573384 0.01190184 0.00555300 0.01319733 0.00136987 
0.03367876 0.05446986 0.01326632 0.00472857 0.00180345 0.00413872 0.00481910 0.00863378 0.02357346 0.00236971 0.00206519 0.08828390 0.01202833 0.00580704 0.01342633 0.00137079 
0.03468663 0.05451155 0.01351844 0.00468637 0.00179664 0.00420021 0.00495859 0.00873711 0.02364444 0.00242673 0.00211921 0.09084609 0.01214889 0.00607719 0.01367026 0.00137154 
0.03574624 0.05459771 0.01376461 0.00464196 0.00179044 0.00426268 0.00510789 0.00883591 0.02371976 0.00248839 0.00217502 0.09340977 0.01226325 0.00636255 0.01392830 0.00137212 
0.03685600 0.05472863 0.01400402 0.00459559 0.00178487 0.00432582 0.00526632 0.00892966 0.02379812 0.00255452 0.00223239 0.09596452 0.01237118 0.00666214 0.01419953 0.00137251 
0.03801404 0.05490426 0.01423589 0.00454755 0.00177996 0.00438935 0.00543314 0.00901789 0.02387824 0.00262488 0.00229109 0.09850023 0.01247249 0.00697487 0.01448293 0.00137273 
0.03921816 0.05512416 0.01445946 0.00449809 0.00177573 0.00445295 0.00560759 0.00910017 0.02395890 0.00269924 0.00235087 0.10100717 0.01256704 0.00729960 0.01477744 0.00137278 
0.04046584 0.05538756 0.01467401 0.00444751 0.00177219 0.00451630 0.00578890 0.00917608 0.02403890 0.00277734 0.00241146 0.10347599 0.01265475 0.00763509 0.01508191 0.00137265 
0.04175430 0.05569326 0.01487883 0.00439610 0.00176936 0.00457909 0.00597629 0.00924527 0.02411713 0.00285891 0.00247261 0.10589783 0.01273557 0.00798004 0.01539513 0.00137235 
0.04308043 0.05603972 0.01507327 0.00434415 0.00176726 0.00464101 0.00616892 0.00930742 0.02419254 0.00294366 0.00253404 0.10826434 0.01280949 0.00833308 0.01571584 0.00137187 
0.04444086 0.05642505 0.01525669 0.00429196 0.00176590 0.00470173 0.00636600 0.00936228 0.02426415 0.00303127 0.00259548 0.11056772 0.01287656 0.00869280 0.01604273 0.00137123 
0.04583196 0.05684697 0.01542850 0.00423982 0.00176529 0.00476096 0.00656669 0.00940965 0.02433108 0.00312141 0.00265665 0.11280078 0.01293686 0.00905771 0.01637444 0.00137043 
0.04724981 0.05730285 0.01558816 0.00418803 0.00176542 0.00481838 0.00677017 0.00944938 0.02439254 0.00321375 0.00271727 0.11495693 0.01299052 0.00942630 0.01670960 0.00136946 
0.04869030 0.05778976 0.01573513 0.00413688 0.00176632 0.00487369 0.00697561 0.00948140 0.02444786 0.00330794 0.00277707 0.11703029 0.01303771 0.00979701 0.01704678 0.00136834 
0.05014907 0.05830440 0.01586897 0.00408666 0.00176798 0.00492662 0.00718218 0.00950569 0.02449647 0.00340362 0.00283576 0.11901564 0.01307863 0.01016826 0.01738458 0.00136707 
0.05162156 0.05884320 0.01598924 0.00403762 0.00177041 0.00497687 0.00738909 0.00952232 0.02453789 0.00350042 0.00289308 0.12090847 0.01311352 0.01053843 0.01772155 0.00136566 
0.05310303 0.05940228 0.01609555 0.00399005 0.00177360 0.00502419 0.00759553 0.00953141 0.02457180 0.00359796 0.00294876 0.12270501 0.01314263 0.01090592 0.01805628 0.00136411 
0.05458859 0.05997751 0.01618758 0.00394419 0.00177757 0.00506832 0.00780072 0.00953315 0.02459798 0.00369587 0.00300253 0.12440223 0.01316626 0.01126909 0.01838733 0.00136243 
0.05607320 0.06056453 0.01626503 0.00390027 0.00178232 0.00510902 0.00800390 0.00952784 0.02461632 0.00379377 0.00305414 0.12599783 0.01318474 0.01162634 0.01871331 0.00136063 
0.05755171 0.06115876 0.01632767 0.00385851 0.00178784 0.00514608 0.00820433 0.00951580 0.02462685 0.00389127 0.00310334 0.12749027 0.01319840 0.01197605 0.01903284 0.00135872 
0.05901888 0.06175542 0.01637528 0.00381912 0.00179414 0.00517930 0.00840132 0.00949747 0.02462973 0.00398800 0.00314991 0.12887874 0.01320760 0.01231664 0.01934458 0.00135670 
0.06046941 0.06234961 0.01640772 0.00378227 0.00180121 0.00520849 0.00859418 0.00947333 0.02462521 0.00408357 0.00319362 0.13016318 0.01321269 0.01264655 0.01964724 0.00135459 
0.06189796 0.06293629 0.01642489 0.00374814 0.00180907 0.00523350 0.00878228 0.00944395 0.02461369 0.00417762 0.00323425 0.13134422 0.01321407 0.01296427 0.01993956 0.00135238 
0.06329917 0.06351034 0.01642673 0.00371685 0.00181771 0.00525418 0.00896500 0.00940995 0.02459566 0.00426978 0.00327162 0.13242322 0.01321211 0.01326832 0.02022036 0.00135009 
0.06466769 0.06406658 0.01641322 0.00368853 0.00182713 0.00527041 0.00914179 0.00937204 0.02457173 0.00435969 0.00330554 0.13340220 0.01320720 0.01355728 0.02048852 0.00134774 
0.06599824 0.06459984 0.01638439 0.00366326 0.00183734 0.00528212 0.00931212 0.00933098 0.02454261 0.00444702 0.00333586 0.13428382 0.01319971 0.01382979 0.02074298 0.00134532 
0.06728557 0.06510494 0.01634032 0.00364112 0.00184833 0.00528922 0.00947552 0.00928758 0.02450912 0.00453141 0.00336243 0.13507137 0.01319003 0.01408457 0.02098276 0.00134284 
0.06852456 0.06557678 0.01628112 0.00362215 0.00186011 0.00529167 0.00963156 0.00924271 0.02447213 0.00461256 0.00338512 0.13576869 0.01317851 0.01432039 0.02120698 0.00134033 
0.06971018 0.06601033 0.01620695 0.00360636 0.00187268 0.00528945 0.00977987 0.00919729 0.02443262 0.00469017 0.00340383 0.13638019 0.01316550 0.01453613 0.02141482 0.00133777 
0.07083755 0.06640073 0.01611801 0.00359375 0.00188605 0.00528257 0.00992010 0.00915229 0.02439165 0.00476393 0.00341847 0.13691074 0.01315134 0.01473074 0.02160559 0.00133519 
0.07190198 0.06674325 0.01601453 0.00358429 0.00190020 0.00527107 0.01005198 0.00910870 0.02435030 0.00483358 0.00342899 0.13736567 0.01313634 0.01490326 0.02177865 0.00133260 
0.07289896 0.06703339 0.01589678 0.00357792 0.00191516 0.00525499 0.01017529 0.00906756 0.02430974 0.00489887 0.00343533 0.13775070 0.01312078 0.01505285 0.02193350 0.00132999 
0.07382419 0.06726688 0.01576508 0.00357457 0.00193090 0.00523441 0.01028985 0.00902992 0.02427114 0.00495956 0.00343748 0.13807187 0.01310494 0.01517875 0.02206973 0.00132738 
0.07467362 0.06743971 0.01561977 0.00357411 0.00194744 0.00520944 0.01039554 0.00899684 0.02423573 0.00501545 0.00343544 0.13833551 0.01308904 0.01528033 0.02218702 0.00132477 
0.07544346 0.06754820 0.01546121 0.00357644 0.00196477 0.00518022 0.01049230 0.00896940 0.02420474 0.00506635 0.00342923 0.13854819 0.01307329 0.01535706 0.02228516 0.00132218 
0.07613019 0.06758900 0.01528982 0.00358140 0.00198288 0.00514689 0.01058011 0.00894867 0.02417939 0.00511209 0.00341891 0.13871661 0.01305785 0.01540852 0.02236407 0.00131962 
0.07673061 0.06755911 0.01510602 0.00358883 0.00200178 0.00510962 0.01065901 0.00893573 0.02416091 0.00515253 0.00340453 0.13884761 0.01304287 0.01543441 0.02242375 0.00131708 
0.07724181 0.06745595 0.01491028 0.00359853 0.00202146 0.00506862 0.01072909 0.00893162 0.02415051 0.00518755 0.00338619 0.13894803 0.01302846 0.01543456 0.02246431 0.00131457 
0.07766121 0.06727731 0.01470308 0.00361030 0.00204189 0.00502409 0.01079048 0.00893737 0.02414934 0.00521706 0.00336402 0.13902474 0.01301466 0.01540890 0.02248596 0.00131211 
0.07798659 0.06702148 0.01448493 0.00362393 0.00206309 0.00497628 0.01084339 0.00895396 0.02415852 0.00524098 0.00333812 0.13908448 0.01300152 0.01535750 0.02248903 0.00130970 
0.07821607 0.06668715 0.01425637 0.00363918 0.00208502 0.00492543 0.01088803 0.00898235 0.02417913 0.00525927 0.00330868 0.13913389 0.01298903 0.01528053 0.02247392 0.00130733 
0.07834813 0.06627352 0.01401794 0.00365581 0.00210766 0.00487182 0.01092469 0.00902343 0.02421215 0.00527191 0.00327586 0.13917938 0.01297714 0.01517829 0.02244115 0.00130503 
0.07838163 0.06578026 0.01377022 0.00367355 0.00213101 0.00481572 0.01095368 0.00907803 0.02425850 0.00527890 0.00323985 0.13922713 0.01296578 0.01505120 0.02239133 0.00130279 
0.07831579 0.06520754 0.01351380 0.00369216 0.00215503 0.00475744 0.01097537 0.00914693 0.02431901 0.00528026 0.00320087 0.13928300 0.01295483 0.01489979 0.02232513 0.00130061 
0.07815023 0.06455603 0.01324929 0.00371137 0.00217969 0.00469727 0.01099015 0.00923082 0.02439442 0.00527605 0.00315916 0.13935248 0.01294414 0.01472470 0.02224333 0.00129851 
0.07788494 0.06382690 0.01297730 0.00373089 0.00220495 0.00463554 0.01099844 0.00933031 0.02448533 0.00526635 0.00311495 0.13944067 0.01293355 0.01452668 0.02214678 0.00129648 
0.07752028 0.06302185 0.01269847 0.00375048 0.00223079 0.00457257 0.01100069 0.00944593 0.02459226 0.00525123 0.00306851 0.13955218 0.01292283 0.01430660 0.02203638 0.00129453 
0.07705699 0.06214305 0.01241346 0.00376984 0.00225716 0.00450869 0.01099740 0.00957810 0.02471560 0.00523083 0.00302011 0.13969117 0.01291175 0.01406541 0.02191313 0.00129265 
0.07649622 0.06119317 0.01212292 0.00378873 0.00228400 0.00444422 0.01098906 0.00972714 0.02485562 0.00520527 0.00297005 0.13986122 0.01290004 0.01380417 0.02177806 0.00129086 
0.07583943 0.06017538 0.01182753 0.00380689 0.00231127 0.00437951 0.01097620 0.00989328 0.02501243 0.00517472 0.00291861 0.14006537 0.01288742 0.01352402 0.02163225 0.00128916 
0.07508847 0.05909331 0.01152797 0.00382405 0.00233890 0.00431488 0.01095935 0.01007662 0.02518605 0.00513936 0.00286611 0.14030606 0.01287358 0.01322620 0.02147685 0.00128753 
0.07424555 0.05795103 0.01122494 0.00383998 0.00236684 0.00425066 0.01093906 0.01027716 0.02537632 0.00509936 0.00281286 0.14058511 0.01285818 0.01291200 0.02131301 0.00128600 
0.07331320 0.05675307 0.01091913 0.00385446 0.00239502 0.00418719 0.01091587 0.01049475 0.02558296 0.00505496 0.00275919 0.14090371 0.01284090 0.01258281 0.02114193 0.00128455 
0.07229428 0.05550432 0.01061127 0.00386727 0.00242336 0.00412478 0.01089035 0.01072917 0.02580555 0.00500636 0.00270541 0.14126241 0.01282136 0.01224008 0.02096484 0.00128319 
0.07119195 0.05421011 0.01030207 0.00387821 0.00245179 0.00406373 0.01086305 0.01098002 0.02604355 0.00495381 0.00265185 0.14166110 0.01279922 0.01188531 0.02078297 0.00128192 
0.07000967 0.05287607 0.00999225 0.00388711 0.00248022 0.00400435 0.01083451 0.01124682 0.02629624 0.00489756 0.00259883 0.14209903 0.01277409 0.01152006 0.02059755 0.00128074 
0.06875120 0.05150818 0.00968255 0.00389380 0.00250856 0.00394692 0.01080527 0.01152896 0.02656280 0.00483788 0.00254669 0.14257480 0.01274561 0.01114591 0.02040982 0.00127964 
0.06742052 0.05011269 0.00937372 0.00389814 0.00253673 0.00389171 0.01077585 0.01182568 0.02684228 0.00477504 0.00249574 0.14308640 0.01271340 0.01076449 0.02022102 0.00127863 
0.06602188 0.04869610 0.00906649 0.00390002 0.00256463 0.00383899 0.01074675 0.01213613 0.02713359 0.00470932 0.00244630 0.14363117 0.01267711 0.01037748 0.02003236 0.00127770 
0.06455971 0.04726513 0.00876162 0.00389935 0.00259216 0.00378898 0.01071847 0.01245934 0.02743553 0.00464100 0.00239868 0.14420589 0.01263636 0.00998653 0.01984503 0.00127687 
0.06303868 0.04582666 0.00845987 0.00389606 0.00261921 0.00374192 0.01069146 0.01279420 0.02774679 0.00457039 0.00235319 0.14480678 0.01259081 0.00959334 0.01966021 0.00127611 
0.06146360 0.04438771 0.00816200 0.00389009 0.00264568 0.00369799 0.01066615 0.01313952 0.02806596 0.00449779 0.00231010 0.14542953 0.01254013 0.00919961 0.01947903 0.00127544 
0.05983946 0.04295537 0.00786877 0.00388144 0.00267147 0.00365738 0.01064294 0.01349399 0.02839152 0.00442349 0.00226970 0.14606934 0.01248400 0.00880700 0.01930258 0.00127485 
0.05817134 0.04153678 0.00758095 0.00387010 0.00269646 0.00362024 0.01062221 0.01385621 0.02872190 0.00434780 0.00223226 0.14672097 0.01242211 0.00841720 0.01913190 0.00127434 
0.05646447 0.04013907 0.00729932 0.00385612 0.00272055 0.00358671 0.01060428 0.01422469 0.02905542 0.00427102 0.00219802 0.14737881 0.01235419 0.00803186 0.01896801 0.00127390 
0.05472412 0.03876936 0.00702464 0.00383953 0.00274362 0.00355689 0.01058945 0.01459784 0.02939037 0.00419347 0.00216722 0.14803689 0.01227999 0.00765261 0.01881184 0.00127355 
0.05295566 0.03743463 0.00675769 0.00382044 0.00276556 0.00353086 0.01057797 0.01497403 0.02972496 0.00411543 0.00214007 0.14868896 0.01219929 0.00728102 0.01866428 0.00127327 
0.05116446 0.03614175 0.00649924 0.00379893 0.00278626 0.00350869 0.01057007 0.01535152 0.03005738 0.00403721 0.00211677 0.14932855 0.01211189 0.00691866 0.01852615 0.00127306 
0.04935591 0.03489743 0.00625006 0.00377515 0.00280562 0.00349040 0.01056590 0.01572856 0.03038579 0.00395911 0.00209749 0.14994905 0.01201763 0.00656701 0.01839821 0.00127292 
0.04753542 0.03370815 0.00601093 0.00374924 0.00282352 0.00347601 0.01056560 0.01610331 0.03070834 0.00388140 0.00208239 0.15054372 0.01191639 0.00622753 0.01828116 0.00127286 
0.04570832 0.03258011 0.00578262 0.00372138 0.00283987 0.00346550 0.01056925 0.01647394 0.03102318 0.00380438 0.00207160 0.15110582 0.01180806 0.00590159 0.01817562 0.00127286 
0.04387994 0.03151924 0.00556587 0.00369177 0.00285456 0.00345882 0.01057689 0.01683856 0.03132847 0.00372832 0.00206522 0.15162863 0.01169259 0.00559052 0.01808213 0.00127293 
0.04205550 0.03053112 0.00536145 0.00366061 0.00286750 0.00345590 0.01058851 0.01719528 0.03162239 0.00365348 0.00206335 0.15210552 0.01156998 0.00529555 0.01800117 0.00127306 
0.04024014 0.02962098 0.00517010 0.00362813 0.00287859 0.00345666 0.01060407 0.01754222 0.03190319 0.00358012 0.00206603 0.15253007 0.01144023 0.00501784 0.01793315 0.00127326 
0.03843890 0.02879362 0.00499257 0.00359459 0.00288777 0.00346098 0.01062347 0.01787750 0.03216913 0.00350848 0.00207330 0.15289604 0.01130341 0.00475850 0.01787840 0.00127352 
0.03665668 0.02805342 0.00482956 0.00356024 0.00289494 0.00346873 0.01064658 0.01819927 0.03241856 0.00343881 0.00208517 0.15319754 0.01115962 0.00451850 0.01783716 0.00127385 
0.03489824 0.02740430 0.00468180 0.00352535 0.00290003 0.00347974 0.01067323 0.01850569 0.03264991 0.00337132 0.00210163 0.15342899 0.01100902 0.00429877 0.01780964 0.00127423 
0.03316820 0.02684969 0.00454997 0.00349020 0.00290300 0.00349384 0.01070320 0.01879501 0.03286167 0.00330623 0.00212262 0.15358526 0.01085177 0.00410012 0.01779593 0.00127467 
0.03147098 0.02639252 0.00443475 0.00345508 0.00290378 0.00351083 0.01073623 0.01906550 0.03305247 0.00324375 0.00214809 0.15366168 0.01068811 0.00392326 0.01779607 0.00127516 
0.02981084 0.02603517 0.00433679 0.00342027 0.00290233 0.00353050 0.01077206 0.01931553 0.03322102 0.00318404 0.00217794 0.15365409 0.01051830 0.00376883 0.01781005 0.00127572 
0.02819184 0.02577952 0.00425672 0.00338608 0.00289861 0.00355261 0.01081035 0.01954352 0.03336615 0.00312730 0.00221206 0.15355892 0.01034266 0.00363733 0.01783776 0.00127632 
0.02661784 0.02562687 0.00419515 0.00335280 0.00289261 0.00357694 0.01085077 0.01974799 0.03348683 0.00307368 0.00225029 0.15337319 0.01016152 0.00352920 0.01787904 0.00127698 
0.02509247 0.02557796 0.00415265 0.00332072 0.00288431 0.00360321 0.01089293 0.01992759 0.03358215 0.00302332 0.00229249 0.15309458 0.00997528 0.00344475 0.01793367 0.00127769 
0.02361918 0.02563297 0.00412976 0.00329012 0.00287371 0.00363117 0.01093644 0.02008104 0.03365137 0.00297636 0.00233845 0.15272145 0.00978436 0.00338418 0.01800137 0.00127845 
0.02220115 0.02579152 0.00412700 0.00326130 0.00286081 0.00366055 0.01098088 0.02020721 0.03369387 0.00293291 0.00238798 0.15225284 0.00958921 0.00334763 0.01808179 0.00127926 
0.02084138 0.02605266 0.00414483 0.00323452 0.00284565 0.00369106 0.01102582 0.02030507 0.03370918 0.00289308 0.00244084 0.15168853 0.00939033 0.00333508 0.01817456 0.00128012 
0.01954261 0.02641490 0.00418368 0.00321005 0.00282825 0.00372241 0.01107080 0.02037374 0.03369702 0.00285695 0.00249679 0.15102903 0.00918825 0.00334645 0.01827921 0.00128102 
0.01830736 0.02687619 0.00424395 0.00318812 0.00280866 0.00375434 0.01111537 0.02041250 0.03365723 0.00282461 0.00255556 0.15027558 0.00898352 0.00338153 0.01839528 0.00128197 
0.01713791 0.02743394 0.00432598 0.00316899 0.00278694 0.00378654 0.01115907 0.02042073 0.03358984 0.00279610 0.00261687 0.14943016 0.00877674 0.00344003 0.01852221 0.00128296 
0.01603631 0.02808507 0.00443008 0.00315286 0.00276316 0.00381873 0.01120142 0.02039801 0.03349502 0.00277147 0.00268042 0.14849548 0.00856852 0.00352156 0.01865944 0.00128399 
0.01500441 0.02882599 0.00455647 0.00313993 0.00273739 0.00385063 0.01124196 0.02034405 0.03337311 0.00275076 0.00274591 0.14747494 0.00835950 0.00362563 0.01880636 0.00128507 
0.01404380 0.02965264 0.00470537 0.00313038 0.00270973 0.00388197 0.01128023 0.02025871 0.03322462 0.00273397 0.00281301 0.14637267 0.00815033 0.00375164 0.01896233 0.00128618 
0.01315585 0.03056053 0.00487690 0.00312437 0.00268027 0.00391248 0.01131577 0.02014203 0.03305019 0.00272111 0.00288140 0.14519343 0.00794172 0.00389893 0.01912668 0.00128733 
0.01234173 0.03154472 0.00507115 0.00312202 0.00264915 0.00394190 0.01134815 0.01999421 0.03285064 0.00271218 0.00295073 0.14394263 0.00773435 0.00406673 0.01929871 0.00128851 
0.01160239 0.03259992 0.00528815 0.00312346 0.00261647 0.00396999 0.01137694 0.01981560 0.03262690 0.00270713 0.00302067 0.14262627 0.00752894 0.00425420 0.01947769 0.00128973 
0.01093858 0.03372048 0.00552785 0.00312875 0.00258237 0.00399651 0.01140173 0.01960671 0.03238008 0.00270593 0.00309087 0.14125088 0.00732622 0.00446042 0.01966290 0.00129097 
0.01035083 0.03490042 0.00579015 0.00313796 0.00254699 0.00402123 0.01142214 0.01936820 0.03211139 0.00270854 0.00316097 0.13982351 0.00712692 0.00468438 0.01985358 0.00129225 
0.00983950 0.03613352 0.00607490 0.00315113 0.00251048 0.00404397 0.01143781 0.01910091 0.03182219 0.00271488 0.00323064 0.13835162 0.00693179 0.00492502 0.02004895 0.00129355 
0.00940475 0.03741328 0.00638184 0.00316825 0.00247299 0.00406452 0.01144841 0.01880579 0.03151394 0.00272487 0.00329953 0.13684310 0.00674158 0.00518121 0.02024826 0.00129487 
0.00904658 0.03873304 0.00671070 0.00318931 0.00243470 0.00408273 0.01145364 0.01848398 0.03118820 0.00273843 0.00336728 0.13530611 0.00655703 0.00545174 0.02045070 0.00129621 
0.00876479 0.04008596 0.00706111 0.00321426 0.00239576 0.00409844 0.01145324 0.01813671 0.03084665 0.00275546 0.00343358 0.13374910 0.00637889 0.00573538 0.02065551 0.00129757 
0.00855904 0.04146511 0.00743263 0.00324302 0.00235635 0.00411153 0.01144698 0.01776538 0.03049103 0.00277584 0.00349808 0.13218071 0.00620789 0.00603082 0.02086189 0.00129895 
0.00842882 0.04286348 0.00782477 0.00327549 0.00231665 0.00412188 0.01143466 0.01737148 0.03012317 0.00279944 0.00356047 0.13060969 0.00604476 0.00633672 0.02106907 0.00130033 
0.00837348 0.04427403 0.00823696 0.00331155 0.00227683 0.00412942 0.01141615 0.01695664 0.02974494 0.00282614 0.00362045 0.12904484 0.00589023 0.00665170 0.02127626 0.00130173 
0.00839223 0.04568975 0.00866857 0.00335104 0.00223707 0.00413407 0.01139132 0.01652259 0.02935827 0.00285579 0.00367773 0.12749495 0.00574500 0.00697436 0.02148270 0.00130312 
0.00848415 0.04710369 0.00911890 0.00339379 0.00219756 0.00413581 0.01136011 0.01607114 0.02896513 0.00288824 0.00373202 0.12596873 0.00560975 0.00730325 0.02168763 0.00130452 
0.00864816 0.04850898 0.00958720 0.00343961 0.00215847 0.00413460 0.01132251 0.01560420 0.02856751 0.00292332 0.00378306 0.12447472 0.00548514 0.00763693 0.02189031 0.00130591 
0.00888311 0.04989893 0.01007262 0.00348826 0.00211998 0.00413046 0.01127853 0.01512375 0.02816738 0.00296087 0.00383061 0.12302123 0.00537182 0.00797392 0.02209001 0.00130730 
0.00918769 0.05126700 0.01057430 0.00353953 0.00208227 0.00412342 0.01122825 0.01463181 0.02776673 0.00300071 0.00387445 0.12161630 0.00527040 0.00831276 0.02228602 0.00130867 
0.00956050 0.05260689 0.01109128 0.00359314 0.00204550 0.00411352 0.01117177 0.01413050 0.02736754 0.00304265 0.00391438 0.12026762 0.00518147 0.00865198 0.02247765 0.00131003 
0.01000003 0.05391254 0.01162256 0.00364882 0.00200984 0.00410083 0.01110927 0.01362192 0.02697174 0.00308650 0.00395022 0.11898245 0.00510557 0.00899011 0.02266424 0.00131137 
0.01050468 0.05517821 0.01216710 0.00370629 0.00197545 0.00408544 0.01104095 0.01310823 0.02658121 0.00313207 0.00398180 0.11776759 0.00504323 0.00932571 0.02284514 0.00131268 
0.01107274 0.05639844 0.01272377 0.00376525 0.00194249 0.00406748 0.01096705 0.01259160 0.02619779 0.00317915 0.00400899 0.11662935 0.00499492 0.00965735 0.02301975 0.00131397 
0.01170240 0.05756817 0.01329144 0.00382538 0.00191109 0.00404706 0.01088787 0.01207419 0.02582323 0.00322754 0.00403169 0.11557344 0.00496108 0.00998363 0.02318747 0.00131522 
0.01239178 0.05868269 0.01386891 0.00388637 0.00188139 0.00402435 0.01080376 0.01155817 0.02545921 0.00327703 0.00404980 0.11460500 0.00494210 0.01030319 0.02334775 0.00131643 
0.01313889 0.05973769 0.01445494 0.00394787 0.00185352 0.00399950 0.01071508 0.01104565 0.02510733 0.00332741 0.00406328 0.11372850 0.00493835 0.01061469 0.02350008 0.00131760 
0.01394167 0.06072931 0.01504827 0.00400957 0.00182760 0.00397270 0.01062225 0.01053874 0.02476906 0.00337847 0.00407209 0.11294778 0.00495012 0.01091687 0.02364398 0.00131873 
0.01479796 0.06165412 0.01564759 0.00407113 0.00180373 0.00394415 0.01052574 0.01003949 0.02444578 0.00342998 0.00407621 0.11226595 0.00497766 0.01120849 0.02377900 0.00131980 
0.01570553 0.06250914 0.01625159 0.00413221 0.00178200 0.00391406 0.01042603 0.00954988 0.02413874 0.00348174 0.00407567 0.11168543 0.00502119 0.01148839 0.02390473 0.00132082 
0.01666206 0.06329189 0.01685891 0.00419247 0.00176250 0.00388266 0.01032364 0.00907182 0.02384906 0.00353354 0.00407051 0.11120793 0.00508084 0.01175546 0.02402081 0.00132177 
0.01766515 0.06400033 0.01746820 0.00425159 0.00174529 0.00385016 0.01021913 0.00860717 0.02357774 0.00358515 0.00406080 0.11083441 0.00515673 0.01200866 0.02412692 0.00132266 
0.01871232 0.06463293 0.01807808 0.00430923 0.00173044 0.00381682 0.01011308 0.00815767 0.02332562 0.00363637 0.00404664 0.11056511 0.00524889 0.01224704 0.02422278 0.00132349 
0.01980099 0.06518865 0.01868718 0.00436509 0.00171798 0.00378288 0.01000610 0.00772497 0.02309341 0.00368699 0.00402813 0.11039957 0.00535729 0.01246971 0.02430817 0.00132424 
0.02092852 0.06566693 0.01929413 0.00441886 0.00170795 0.00374859 0.00989881 0.00731061 0.02288167 0.00373680 0.00400544 0.11033662 0.00548188 0.01267587 0.02438290 0.00132491 
0.02209218 0.06606770 0.01989754 0.00447023 0.00170036 0.00371421 0.00979185 0.00691601 0.02269080 0.00378561 0.00397870 0.11037439 0.00562252 0.01286480 0.02444685 0.00132551 
0.02328916 0.06639135 0.02049607 0.00451893 0.00169522 0.00367998 0.00968590 0.00654249 0.02252106 0.00383323 0.00394812 0.11051036 0.00577900 0.01303588 0.02449992 0.00132602 
0.02451656 0.06663876 0.02108837 0.00456468 0.00169252 0.00364617 0.00958161 0.00619121 0.02237255 0.00387947 0.00391390 0.11074139 0.00595109 0.01318858 0.02454209 0.00132644 
0.02577142 0.06681125 0.02167312 0.00460723 0.00169224 0.00361303 0.00947966 0.00586321 0.02224524 0.00392415 0.00387625 0.11106373 0.00613846 0.01332246 0.02457339 0.00132677 
0.02705068 0.06691058 0.02224902 0.00464635 0.00169434 0.00358080 0.00938075 0.00555939 0.02213892 0.00396709 0.00383543 0.11147309 0.00634074 0.01343719 0.02459388 0.00132701 
0.02835122 0.06693892 0.02281481 0.00468181 0.00169879 0.00354973 0.00928553 0.00528052 0.02205328 0.00400814 0.00379169 0.11196466 0.00655750 0.01353253 0.02460369 0.00132716 
0.02966982 0.06689887 0.02336927 0.00471342 0.00170551 0.00352004 0.00919471 0.00502721 0.02198783 0.00404713 0.00374530 0.11253317 0.00678824 0.01360833 0.02460301 0.00132720 
0.03100322 0.06679338 0.02391122 0.00474100 0.00171444 0.00349197 0.00910894 0.00479991 0.02194197 0.00408394 0.00369655 0.11317294 0.00703242 0.01366455 0.02459207 0.00132715 
0.03234805 0.06662576 0.02443952 0.00476440 0.00172551 0.00346572 0.00902887 0.00459896 0.02191497 0.00411843 0.00364574 0.11387794 0.00728941 0.01370128 0.02457116 0.00132700 
0.03370092 0.06639965 0.02495307 0.00478347 0.00173862 0.00344149 0.00895517 0.00442451 0.02190599 0.00415047 0.00359316 0.11464182 0.00755855 0.01371865 0.02454061 0.00132675 
0.03505833 0.06611898 0.02545087 0.00479811 0.00175366 0.00341948 0.00888844 0.00427660 0.02191407 0.00417996 0.00353914 0.11545800 0.00783912 0.01371695 0.02450083 0.00132639 
0.03641676 0.06578797 0.02593192 0.00480823 0.00177055 0.00339984 0.00882929 0.00415510 0.02193816 0.00420680 0.00348399 0.11631972 0.00813033 0.01369652 0.02445225 0.00132594 
0.03777262 0.06541105 0.02639533 0.00481375 0.00178915 0.00338274 0.00877830 0.00405975 0.02197711 0.00423091 0.00342804 0.11722008 0.00843135 0.01365783 0.02439537 0.00132538 
0.03912228 0.06499288 0.02684025 0.00481464 0.00180935 0.00336832 0.00873601 0.00399014 0.02202971 0.00425222 0.00337161 0.11815211 0.00874131 0.01360143 0.02433072 0.00132472 
0.04046208 0.06453829 0.02726591 0.00481088 0.00183101 0.00335668 0.00870293 0.00394573 0.02209466 0.00427068 0.00331503 0.11910885 0.00905928 0.01352794 0.02425889 0.00132396 
0.04178833 0.06405225 0.02767160 0.00480246 0.00185401 0.00334793 0.00867954 0.00392587 0.02217065 0.00428624 0.00325861 0.12008338 0.00938427 0.01343811 0.02418050 0.00132310 
0.04309731 0.06353983 0.02805669 0.00478940 0.00187819 0.00334215 0.00866629 0.00392977 0.02225628 0.00429888 0.00320269 0.12106887 0.00971528 0.01333273 0.02409623 0.00132214 
0.04438531 0.06300619 0.02842063 0.00477176 0.00190343 0.00333940 0.00866356 0.00395651 0.02235015 0.00430858 0.00314757 0.12205868 0.01005125 0.01321268 0.02400677 0.00132109 
0.04564861 0.06245654 0.02876293 0.00474958 0.00192957 0.00333970 0.00867172 0.00400508 0.02245084 0.00431535 0.00309356 0.12304635 0.01039110 0.01307893 0.02391287 0.00131995 
0.04688351 0.06189609 0.02908320 0.00472297 0.00195646 0.00334309 0.00869106 0.00407438 0.02255694 0.00431920 0.00304096 0.12402570 0.01073369 0.01293249 0.02381529 0.00131872 
0.04808634 0.06133004 0.02938109 0.00469202 0.00198396 0.00334954 0.00872186 0.00416319 0.02266703 0.00432017 0.00299007 0.12499084 0.01107788 0.01277445 0.02371483 0.00131741 
0.04925347 0.06076354 0.02965637 0.00465685 0.00201192 0.00335904 0.00876431 0.00427022 0.02277973 0.00431829 0.00294115 0.12593624 0.01142249 0.01260594 0.02361231 0.00131602 
0.05038133 0.06020165 0.02990885 0.00461761 0.00204018 0.00337153 0.00881857 0.00439411 0.02289370 0.00431363 0.00289446 0.12685673 0.01176635 0.01242815 0.02350854 0.00131455 
0.05146640 0.05964935 0.03013844 0.00457445 0.00206860 0.00338695 0.00888475 0.00453343 0.02300764 0.00430625 0.00285026 0.12774757 0.01210823 0.01224231 0.02340439 0.00131301 
0.05250527 0.05911144 0.03034511 0.00452753 0.00209704 0.00340520 0.00896290 0.00468670 0.02312032 0.00429625 0.00280878 0.12860445 0.01244692 0.01204967 0.02330071 0.00131141 
0.05349462 0.05859261 0.03052892 0.00447704 0.00212536 0.00342616 0.00905301 0.00485240 0.02323059 0.00428372 0.00277023 0.12942356 0.01278121 0.01185152 0.02319835 0.00130975 
0.05443124 0.05809733 0.03068997 0.00442318 0.00215340 0.00344972 0.00915501 0.00502896 0.02333736 0.00426877 0.00273481 0.13020153 0.01310988 0.01164916 0.02309816 0.00130804 
0.05531206 0.05762989 0.03082846 0.00436616 0.00218104 0.00347572 0.00926880 0.00521481 0.02343966 0.00425153 0.00270269 0.13093553 0.01343170 0.01144391 0.02300099 0.00130628 
0.05613415 0.05719432 0.03094463 0.00430618 0.00220815 0.00350400 0.00939419 0.00540834 0.02353662 0.00423211 0.00267403 0.13162321 0.01374548 0.01123709 0.02290769 0.00130449 
0.05689476 0.05679444 0.03103880 0.00424348 0.00223460 0.00353436 0.00953096 0.00560798 0.02362746 0.00421067 0.00264895 0.13226275 0.01405002 0.01103001 0.02281905 0.00130266 
0.05759130 0.05643378 0.03111134 0.00417828 0.00226028 0.00356662 0.00967882 0.00581213 0.02371153 0.00418736 0.00262759 0.13285283 0.01434418 0.01082399 0.02273588 0.00130081 
0.05822139 0.05611560 0.03116269 0.00411083 0.00228506 0.00360056 0.00983744 0.00601923 0.02378832 0.00416233 0.00261002 0.13339265 0.01462680 0.01062030 0.02265893 0.00129894 
0.05878286 0.05584288 0.03119331 0.00404137 0.00230885 0.00363595 0.01000642 0.00622775 0.02385743 0.00413576 0.00259631 0.13388191 0.01489679 0.01042020 0.02258893 0.00129706 
0.05927374 0.05561827 0.03120374 0.00397013 0.00233153 0.00367257 0.01018531 0.00643619 0.02391860 0.00410781 0.00258651 0.13432078 0.01515308 0.01022494 0.02252658 0.00129519 
0.05969234 0.05544413 0.03119454 0.00389738 0.00235303 0.00371015 0.01037363 0.00664310 0.02397169 0.00407866 0.00258064 0.13470989 0.01539465 0.01003568 0.02247250 0.00129332 
0.06003719 0.05532251 0.03116632 0.00382335 0.00237324 0.00374845 0.01057082 0.00684709 0.02401673 0.00404849 0.00257870 0.13505035 0.01562054 0.00985357 0.02242731 0.00129146 
0.06030710 0.05525510 0.03111973 0.00374829 0.00239210 0.00378722 0.01077630 0.00704685 0.02405384 0.00401750 0.00258066 0.13534364 0.01582983 0.00967970 0.02239153 0.00128963 
0.06050115 0.05524330 0.03105543 0.00367245 0.00240954 0.00382618 0.01098944 0.00724112 0.02408332 0.00398586 0.00258649 0.13559167 0.01602166 0.00951510 0.02236566 0.00128783 
0.06061871 0.05528817 0.03097412 0.00359606 0.00242548 0.00386506 0.01120955 0.00742873 0.02410557 0.00395376 0.00259611 0.13579668 0.01619525 0.00936073 0.02235010 0.00128607 
0.06065944 0.05539043 0.03087652 0.00351938 0.00243989 0.00390361 0.01143592 0.00760862 0.02412113 0.00392140 0.00260944 0.13596124 0.01634988 0.00921749 0.02234521 0.00128436 
0.06062331 0.05555048 0.03076335 0.00344263 0.00245269 0.00394155 0.01166781 0.00777979 0.02413067 0.00388895 0.00262636 0.13608822 0.01648491 0.00908619 0.02235129 0.00128270 
0.06051059 0.05576842 0.03063537 0.00336603 0.00246387 0.00397862 0.01190442 0.00794136 0.02413495 0.00385662 0.00264674 0.13618072 0.01659978 0.00896759 0.02236854 0.00128111 
0.06032186 0.05604400 0.03049331 0.00328982 0.00247339 0.00401457 0.01214495 0.00809256 0.02413488 0.00382456 0.00267045 0.13624205 0.01669399 0.00886233 0.02239710 0.00127958 
0.06005802 0.05637668 0.03033793 0.00321421 0.00248122 0.00404913 0.01238854 0.00823270 0.02413144 0.00379297 0.00269730 0.13627572 0.01676716 0.00877101 0.02243705 0.00127814 
0.05972031 0.05676564 0.03016998 0.00313939 0.00248734 0.00408206 0.01263435 0.00836122 0.02412570 0.00376202 0.00272712 0.13628533 0.01681898 0.00869411 0.02248836 0.00127677 
0.05931024 0.05720973 0.02999019 0.00306557 0.00249175 0.00411313 0.01288148 0.00847768 0.02411884 0.00373186 0.00275971 0.13627459 0.01684924 0.00863203 0.02255096 0.00127550 
0.05882968 0.05770755 0.02979929 0.00299295 0.00249445 0.00414212 0.01312904 0.00858175 0.02411209 0.00370266 0.00279485 0.13624725 0.01685782 0.00858507 0.02262467 0.00127432 
0.05828078 0.05825744 0.02959800 0.00292168 0.00249543 0.00416881 0.01337612 0.00867321 0.02410673 0.00367457 0.00283232 0.13620708 0.01684470 0.00855347 0.02270926 0.00127324 
0.05766601 0.05885746 0.02938701 0.00285196 0.00249472 0.00419300 0.01362181 0.00875195 0.02410411 0.00364772 0.00287187 0.13615780 0.01680995 0.00853736 0.02280441 0.00127227 
0.05698814 0.05950548 0.02916700 0.00278393 0.00249232 0.00421453 0.01386517 0.00881800 0.02410559 0.00362226 0.00291326 0.13610309 0.01675374 0.00853676 0.02290972 0.00127141 
0.05625021 0.06019910 0.02893863 0.00271774 0.00248827 0.00423322 0.01410529 0.00887146 0.02411257 0.00359829 0.00295623 0.13604650 0.01667635 0.00855163 0.02302472 0.00127066 
0.05545556 0.06093575 0.02870250 0.00265353 0.00248259 0.00424893 0.01434126 0.00891258 0.02412645 0.00357594 0.00300052 0.13599145 0.01657815 0.00858183 0.02314890 0.00127003 
0.05460777 0.06171268 0.02845922 0.00259143 0.00247532 0.00426154 0.01457217 0.00894170 0.02414860 0.00355530 0.00304585 0.13594121 0.01645960 0.00862714 0.02328164 0.00126953 
0.05371070 0.06252694 0.02820935 0.00253154 0.00246650 0.00427095 0.01479712 0.00895926 0.02418041 0.00353645 0.00309194 0.13589882 0.01632128 0.00868726 0.02342228 0.00126914 
0.05276842 0.06337546 0.02795341 0.00247399 0.00245618 0.00427706 0.01501524 0.00896582 0.02422321 0.00351948 0.00313853 0.13586714 0.01616383 0.00876179 0.02357010 0.00126888 
0.05178522 0.06425503 0.02769189 0.00241885 0.00244440 0.00427982 0.01522566 0.00896199 0.02427827 0.00350444 0.00318533 0.13584875 0.01598801 0.00885028 0.02372433 0.00126875 
0.05076559 0.06516234 0.02742526 0.00236622 0.00243123 0.00427919 0.01542756 0.00894851 0.02434683 0.00349139 0.00323206 0.13584598 0.01579465 0.00895220 0.02388414 0.00126874 
0.04971419 0.06609397 0.02715393 0.00231616 0.00241673 0.00427516 0.01562014 0.00892618 0.02443004 0.00348037 0.00327844 0.13586087 0.01558467 0.00906694 0.02404867 0.00126886 
0.04863586 0.06704645 0.02687828 0.00226874 0.00240097 0.00426773 0.01580261 0.00889588 0.02452895 0.00347139 0.00332422 0.13589516 0.01535908 0.00919385 0.02421701 0.00126910 
0.04753554 0.06801625 0.02659866 0.00222401 0.00238400 0.00425693 0.01597425 0.00885855 0.02464455 0.00346449 0.00336911 0.13595031 0.01511896 0.00933221 0.02438822 0.00126947 
0.04641830 0.06899980 0.02631538 0.00218200 0.00236591 0.00424283 0.01613436 0.00881520 0.02477768 0.00345965 0.00341287 0.13602743 0.01486544 0.00948126 0.02456135 0.00126996 
0.04528929 0.06999355 0.02602869 0.00214275 0.00234677 0.00422549 0.01628229 0.00876687 0.02492909 0.00345687 0.00345523 0.13612734 0.01459974 0.00964017 0.02473543 0.00127057 
0.04415370 0.07099393 0.02573884 0.00210629 0.00232666 0.00420503 0.01641743 0.00871467 0.02509939 0.00345613 0.00349597 0.13625052 0.01432314 0.00980811 0.02490945 0.00127129 
0.04301678 0.07199741 0.02544603 0.00207261 0.00230566 0.00418156 0.01653924 0.00865972 0.02528907 0.00345739 0.00353485 0.13639716 0.01403694 0.00998418 0.02508243 0.00127213 
0.04188377 0.07300051 0.02515041 0.00204174 0.00228386 0.00415523 0.01664720 0.00860318 0.02549847 0.00346062 0.00357165 0.13656711 0.01374252 0.01016748 0.02525337 0.00127308 
0.04075991 0.07399980 0.02485212 0.00201366 0.00226135 0.00412620 0.01674088 0.00854621 0.02572779 0.00346577 0.00360618 0.13675994 0.01344127 0.01035708 0.02542131 0.00127413 
0.03965036 0.07499196 0.02455128 0.00198836 0.00223822 0.00409467 0.01681988 0.00849000 0.02597707 0.00347277 0.00363824 0.13697492 0.01313463 0.01055203 0.02558528 0.00127527 
0.03856025 0.07597375 0.02424794 0.00196583 0.00221456 0.00406083 0.01688387 0.00843571 0.02624621 0.00348155 0.00366767 0.13721105 0.01282404 0.01075139 0.02574434 0.00127652 
0.03749457 0.07694206 0.02394217 0.00194604 0.00219046 0.00402491 0.01693261 0.00838451 0.02653496 0.00349205 0.00369430 0.13746706 0.01251096 0.01095420 0.02589758 0.00127784 
0.03645822 0.07789391 0.02363400 0.00192894 0.00216602 0.00398715 0.01696588 0.00833755 0.02684290 0.00350417 0.00371802 0.13774144 0.01219687 0.01115952 0.02604413 0.00127925 
0.03545593 0.07882646 0.02332345 0.00191452 0.00214133 0.00394781 0.01698356 0.00829594 0.02716947 0.00351784 0.00373869 0.13803246 0.01188323 0.01136642 0.02618317 0.00128073 
0.03449226 0.07973705 0.02301050 0.00190271 0.00211650 0.00390715 0.01698558 0.00826076 0.02751398 0.00353296 0.00375621 0.13833818 0.01157148 0.01157398 0.02631392 0.00128228 
0.03357159 0.08062317 0.02269515 0.00189348 0.00209162 0.00386546 0.01697195 0.00823305 0.02787556 0.00354943 0.00377052 0.13865648 0.01126306 0.01178131 0.02643566 0.00128388 
0.03269805 0.08148254 0.02237737 0.00188676 0.00206679 0.00382301 0.01694275 0.00821380 0.02825322 0.00356716 0.00378155 0.13898510 0.01095936 0.01198754 0.02654773 0.00128554 
0.03187556 0.08231302 0.02205714 0.00188250 0.00204211 0.00378012 0.01689812 0.00820393 0.02864585 0.00358604 0.00378927 0.13932163 0.01066175 0.01219184 0.02664953 0.00128724 
0.03110776 0.08311274 0.02173444 0.00188063 0.00201767 0.00373708 0.01683828 0.00820431 0.02905220 0.00360598 0.00379365 0.13966357 0.01037155 0.01239342 0.02674055 0.00128898 
0.03039802 0.08388000 0.02140925 0.00188110 0.00199359 0.00369421 0.01676352 0.00821572 0.02947091 0.00362687 0.00379471 0.14000832 0.01009001 0.01259153 0.02682032 0.00129075 
0.02974941 0.08461333 0.02108154 0.00188382 0.00196994 0.00365182 0.01667420 0.00823890 0.02990051 0.00364861 0.00379246 0.14035324 0.00981834 0.01278546 0.02688848 0.00129254 
0.02916470 0.08531151 0.02075132 0.00188873 0.00194684 0.00361021 0.01657074 0.00827446 0.03033946 0.00367110 0.00378695 0.14069566 0.00955767 0.01297455 0.02694473 0.00129434 
0.02864630 0.08597353 0.02041860 0.00189576 0.00192437 0.00356970 0.01645366 0.00832296 0.03078613 0.00369425 0.00377825 0.14103289 0.00930906 0.01315820 0.02698885 0.00129614 
0.02819633 0.08659863 0.02008342 0.00190483 0.00190263 0.00353060 0.01632350 0.00838486 0.03123880 0.00371796 0.00376643 0.14136229 0.00907349 0.01333586 0.02702071 0.00129794 
0.02781654 0.08718627 0.01974583 0.00191586 0.00188171 0.00349320 0.01618089 0.00846054 0.03169572 0.00374213 0.00375162 0.14168122 0.00885186 0.01350704 0.02704027 0.00129973 
0.02750833 0.08773616 0.01940593 0.00192877 0.00186169 0.00345780 0.01602654 0.00855026 0.03215511 0.00376669 0.00373391 0.14198714 0.00864496 0.01367130 0.02704756 0.00130149 
0.02727273 0.08824822 0.01906383 0.00194349 0.00184266 0.00342469 0.01586118 0.00865420 0.03261515 0.00379155 0.00371346 0.14227757 0.00845349 0.01382826 0.02704271 0.00130324 
0.02711042 0.08872261 0.01871968 0.00195993 0.00182471 0.00339413 0.01568564 0.00877244 0.03307400 0.00381664 0.00369042 0.14255015 0.00827807 0.01397761 0.02702592 0.00130494 
0.02702171 0.08915973 0.01837368 0.00197802 0.00180790 0.00336638 0.01550076 0.00890497 0.03352985 0.00384188 0.00366496 0.14280263 0.00811920 0.01411909 0.02699748 0.00130661 
0.02700655 0.08956017 0.01802605 0.00199767 0.00179231 0.00334168 0.01530746 0.00905168 0.03398090 0.00386722 0.00363726 0.14303290 0.00797726 0.01425250 0.02695775 0.00130823 
0.02706451 0.08992473 0.01767708 0.00201881 0.00177802 0.00332026 0.01510671 0.00921234 0.03442539 0.00389258 0.00360753 0.14323901 0.00785256 0.01437771 0.02690716 0.00130980 
0.02719481 0.09025442 0.01732709 0.00204136 0.00176508 0.00330234 0.01489949 0.00938667 0.03486160 0.00391794 0.00357598 0.14341916 0.00774528 0.01449463 0.02684625 0.00131130 
0.02739634 0.09055042 0.01697646 0.00206524 0.00175355 0.00328808 0.01468686 0.00957426 0.03528788 0.00394323 0.00354282 0.14357172 0.00765549 0.01460324 0.02677558 0.00131274 
0.02766760 0.09081408 0.01662561 0.00209037 0.00174349 0.00327766 0.01446987 0.00977463 0.03570266 0.00396841 0.00350829 0.14369526 0.00758316 0.01470357 0.02669580 0.00131410 
0.02800680 0.09104692 0.01627503 0.00211667 0.00173493 0.00327121 0.01424964 0.00998720 0.03610447 0.00399347 0.00347263 0.14378853 0.00752814 0.01479569 0.02660763 0.00131539 
0.02841181 0.09125058 0.01592524 0.00214408 0.00172793 0.00326887 0.01402726 0.01021132 0.03649192 0.00401837 0.00343607 0.14385047 0.00749021 0.01487974 0.02651182 0.00131660 
0.02888017 0.09142684 0.01557683 0.00217252 0.00172251 0.00327071 0.01380389 0.01044627 0.03686376 0.00404310 0.00339887 0.14388022 0.00746901 0.01495589 0.02640919 0.00131772 
0.02940918 0.09157758 0.01523044 0.00220191 0.00171869 0.00327680 0.01358067 0.01069122 0.03721884 0.00406763 0.00336129 0.14387711 0.00746411 0.01502435 0.02630059 0.00131875 
0.02999580 0.09170474 0.01488678 0.00223219 0.00171650 0.00328718 0.01335874 0.01094532 0.03755618 0.00409197 0.00332356 0.14384067 0.00747497 0.01508538 0.02618691 0.00131969 
0.03063679 0.09181036 0.01454660 0.00226329 0.00171594 0.00330187 0.01313927 0.01120763 0.03787490 0.00411611 0.00328594 0.14377061 0.00750098 0.01513927 0.02606908 0.00132053 
0.03132863 0.09189651 0.01421070 0.00229514 0.00171702 0.00332085 0.01292337 0.01147716 0.03817429 0.00414005 0.00324869 0.14366684 0.00754142 0.01518635 0.02594803 0.00132127 
0.03206761 0.09196526 0.01387994 0.00232767 0.00171972 0.00334408 0.01271220 0.01175287 0.03845380 0.00416380 0.00321206 0.14352946 0.00759552 0.01522695 0.02582474 0.00132191 
0.03284981 0.09201870 0.01355522 0.00236083 0.00172404 0.00337148 0.01250684 0.01203369 0.03871301 0.00418737 0.00317627 0.14335873 0.00766243 0.01526146 0.02570018 0.00132245 
0.03367113 0.09205889 0.01323751 0.00239454 0.00172995 0.00340296 0.01230837 0.01231849 0.03895169 0.00421078 0.00314157 0.14315506 0.00774123 0.01529026 0.02557532 0.00132288 
0.03452734 0.09208786 0.01292779 0.00242875 0.00173741 0.00343839 0.01211785 0.01260613 0.03916975 0.00423403 0.00310819 0.14291906 0.00783096 0.01531375 0.02545113 0.00132320 
0.03541408 0.09210753 0.01262711 0.00246340 0.00174639 0.00347762 0.01193628 0.01289545 0.03936727 0.00425715 0.00307634 0.14265145 0.00793061 0.01533235 0.02532859 0.00132342 
0.03632688 0.09211976 0.01233653 0.00249844 0.00175683 0.00352048 0.01176462 0.01318526 0.03954447 0.00428015 0.00304623 0.14235310 0.00803911 0.01534648 0.02520862 0.00132353 
0.03726119 0.09212630 0.01205717 0.00253380 0.00176869 0.00356676 0.01160378 0.01347437 0.03970173 0.00430306 0.00301805 0.14202498 0.00815539 0.01535656 0.02509217 0.00132353 
0.03821244 0.09212874 0.01179015 0.00256943 0.00178188 0.00361624 0.01145460 0.01376160 0.03983960 0.00432589 0.00299199 0.14166822 0.00827833 0.01536302 0.02498011 0.00132343 
0.03917599 0.09212855 0.01153663 0.00260528 0.00179635 0.00366867 0.01131788 0.01404577 0.03995873 0.00434866 0.00296821 0.14128399 0.00840683 0.01536626 0.02487331 0.00132322 
0.04014723 0.09212698 0.01129776 0.00264130 0.00181200 0.00372378 0.01119433 0.01432569 0.04005992 0.00437139 0.00294686 0.14087358 0.00853975 0.01536669 0.02477258 0.00132291 
0.04112158 0.09212514 0.01107474 0.00267743 0.00182874 0.00378128 0.01108461 0.01460023 0.04014412 0.00439410 0.00292808 0.14043834 0.00867598 0.01536470 0.02467869 0.00132249 
0.04209447 0.09212389 0.01086872 0.00271362 0.00184648 0.00384087 0.01098927 0.01486826 0.04021234 0.00441680 0.00291198 0.13997967 0.00881442 0.01536067 0.02459235 0.00132197 
0.04306144 0.09212389 0.01068089 0.00274982 0.00186512 0.00390222 0.01090882 0.01512868 0.04026573 0.00443950 0.00289867 0.13949904 0.00895398 0.01535496 0.02451424 0.00132136 
0.04401810 0.09212555 0.01051241 0.00278599 0.00188455 0.00396500 0.01084365 0.01538046 0.04030551 0.00446220 0.00288822 0.13899793 0.00909361 0.01534789 0.02444493 0.00132065 
0.04496019 0.09212904 0.01036441 0.00282206 0.00190464 0.00402886 0.01079407 0.01562257 0.04033299 0.00448492 0.00288069 0.13847784 0.00923229 0.01533977 0.02438498 0.00131985 
0.04588358 0.09213427 0.01023801 0.00285800 0.00192528 0.00409344 0.01076030 0.01585406 0.04034952 0.00450765 0.00287614 0.13794029 0.00936905 0.01533089 0.02433485 0.00131895 
0.04678430 0.09214089 0.01013428 0.00289376 0.00194635 0.00415838 0.01074248 0.01607402 0.04035650 0.00453039 0.00287459 0.13738680 0.00950299 0.01532150 0.02429494 0.00131797 
0.04765856 0.09214827 0.01005426 0.00292928 0.00196772 0.00422330 0.01074063 0.01628160 0.04035537 0.00455313 0.00287603 0.13681885 0.00963324 0.01531182 0.02426557 0.00131691 
0.04850275 0.09215552 0.00999893 0.00296451 0.00198924 0.00428784 0.01075470 0.01647602 0.04034757 0.00457586 0.00288046 0.13623793 0.00975902 0.01530205 0.02424700 0.00131577 
0.04931348 0.09216148 0.00996923 0.00299941 0.00201081 0.00435161 0.01078451 0.01665656 0.04033456 0.00459855 0.00288784 0.13564549 0.00987960 0.01529234 0.02423941 0.00131455 
0.05008759 0.09216470 0.00996599 0.00303392 0.00203226 0.00441425 0.01082982 0.01682256 0.04031775 0.00462120 0.00289811 0.13504293 0.00999435 0.01528283 0.02424289 0.00131327 
0.05082214 0.09216349 0.00999002 0.00306799 0.00205348 0.00447538 0.01089026 0.01697345 0.04029854 0.00464376 0.00291122 0.13443161 0.01010271 0.01527360 0.02425748 0.00131191 
0.05151446 0.09215590 0.01004200 0.00310158 0.00207433 0.00453464 0.01096539 0.01710872 0.04027828 0.00466621 0.00292706 0.13381283 0.01020420 0.01526471 0.02428312 0.00131050 
0.05216211 0.09213972 0.01012256 0.00313463 0.00209467 0.00459168 0.01105466 0.01722793 0.04025823 0.00468852 0.00294553 0.13318785 0.01029843 0.01525620 0.02431971 0.00130903 
0.05276294 0.09211253 0.01023220 0.00316708 0.00211438 0.00464616 0.01115744 0.01733073 0.04023961 0.00471063 0.00296650 0.13255785 0.01038511 0.01524807 0.02436703 0.00130751 
0.05331506 0.09207166 0.01037135 0.00319888 0.00213332 0.00469773 0.01127302 0.01741683 0.04022351 0.00473251 0.00298985 0.13192394 0.01046403 0.01524026 0.02442483 0.00130594 
0.05381688 0.09201428 0.01054030 0.00322998 0.00215137 0.00474609 0.01140058 0.01748605 0.04021093 0.00475410 0.00301542 0.13128719 0.01053508 0.01523274 0.02449279 0.00130433 
0.05426708 0.09193736 0.01073924 0.00326032 0.00216841 0.00479093 0.01153924 0.01753824 0.04020277 0.00477536 0.00304303 0.13064856 0.01059824 0.01522539 0.02457049 0.00130268 
0.05466460 0.09183770 0.01096824 0.00328984 0.00218434 0.00483198 0.01168805 0.01757337 0.04019977 0.00479622 0.00307251 0.13000897 0.01065358 0.01521811 0.02465749 0.00130101 
0.05500870 0.09171199 0.01122726 0.00331849 0.00219904 0.00486897 0.01184598 0.01759145 0.04020255 0.00481664 0.00310367 0.12936925 0.01070126 0.01521075 0.02475327 0.00129931 
0.05529891 0.09155681 0.01151609 0.00334622 0.00221243 0.00490167 0.01201194 0.01759258 0.04021157 0.00483654 0.00313630 0.12873018 0.01074153 0.01520314 0.02485726 0.00129759 
0.05553504 0.09136866 0.01183442 0.00337296 0.00222440 0.00492986 0.01218478 0.01757693 0.04022717 0.00485586 0.00317021 0.12809244 0.01077473 0.01519512 0.02496884 0.00129586 
0.05571716 0.09114397 0.01218180 0.00339865 0.00223488 0.00495336 0.01236330 0.01754475 0.04024949 0.00487455 0.00320516 0.12745668 0.01080126 0.01518647 0.02508736 0.00129411 
0.05584562 0.09087919 0.01255763 0.00342325 0.00224380 0.00497199 0.01254628 0.01749633 0.04027852 0.00489253 0.00324093 0.12682345 0.01082163 0.01517698 0.02521211 0.00129237 
0.05592105 0.09057076 0.01296119 0.00344669 0.00225110 0.00498563 0.01273243 0.01743205 0.04031411 0.00490973 0.00327730 0.12619327 0.01083640 0.01516643 0.02534236 0.00129063 
0.05594431 0.09021517 0.01339160 0.00346891 0.00225674 0.00499415 0.01292046 0.01735234 0.04035591 0.00492610 0.00331403 0.12556658 0.01084620 0.01515459 0.02547735 0.00128890 
0.05591651 0.08980900 0.01384786 0.00348986 0.00226067 0.00499749 0.01310904 0.01725769 0.04040342 0.00494156 0.00335088 0.12494377 0.01085172 0.01514121 0.02561628 0.00128718 
0.05583899 0.08934893 0.01432880 0.00350949 0.00226288 0.00499559 0.01329685 0.01714863 0.04045598 0.00495606 0.00338762 0.12432519 0.01085372 0.01512606 0.02575836 0.00128548 
0.05571332 0.08883180 0.01483315 0.00352774 0.00226336 0.00498843 0.01348256 0.01702577 0.04051277 0.00496952 0.00342402 0.12371114 0.01085299 0.01510889 0.02590276 0.00128381 
0.05554128 0.08825463 0.01535948 0.00354456 0.00226210 0.00497601 0.01366485 0.01688973 0.04057283 0.00498189 0.00345983 0.12310189 0.01085036 0.01508948 0.02604868 0.00128217 
0.05532483 0.08761466 0.01590624 0.00355991 0.00225914 0.00495837 0.01384240 0.01674120 0.04063503 0.00499311 0.00349483 0.12249767 0.01084671 0.01506759 0.02619528 0.00128057 
0.05506612 0.08690936 0.01647174 0.00357373 0.00225448 0.00493558 0.01401393 0.01658089 0.04069812 0.00500313 0.00352879 0.12189867 0.01084293 0.01504299 0.02634174 0.00127901 
0.05476747 0.08613649 0.01705419 0.00358598 0.00224819 0.00490772 0.01417818 0.01640956 0.04076073 0.00501188 0.00356150 0.12130507 0.01083992 0.01501550 0.02648727 0.00127750 
0.05443135 0.08529413 0.01765167 0.00359664 0.00224031 0.00487491 0.01433395 0.01622797 0.04082136 0.00501932 0.00359272 0.12071703 0.01083863 0.01498490 0.02663106 0.00127604 
0.05406037 0.08438068 0.01826213 0.00360565 0.00223091 0.00483731 0.01448008 0.01603694 0.04087843 0.00502541 0.00362227 0.12013470 0.01083996 0.01495104 0.02677236 0.00127464 
0.05365724 0.08339492 0.01888346 0.00361298 0.00222009 0.00479507 0.01461545 0.01583729 0.04093025 0.00503011 0.00364995 0.11955821 0.01084483 0.01491376 0.02691041 0.00127330 
0.05322481 0.08233600 0.01951341 0.00361862 0.00220794 0.00474841 0.01473903 0.01562984 0.04097508 0.00503337 0.00367555 0.11898770 0.01085414 0.01487291 0.02704451 0.00127203 
0.05276598 0.08120350 0.02014967 0.00362254 0.00219456 0.00469754 0.01484984 0.01541546 0.04101110 0.00503517 0.00369892 0.11842331 0.01086878 0.01482841 0.02717398 0.00127083 
0.05228374 0.07999742 0.02078985 0.00362473 0.00218008 0.00464269 0.01494700 0.01519500 0.04103648 0.00503549 0.00371989 0.11786517 0.01088958 0.01478016 0.02729818 0.00126971 
0.05178115 0.07871821 0.02143148 0.00362517 0.00216462 0.00458413 0.01502969 0.01496931 0.04104935 0.00503429 0.00373831 0.11731344 0.01091736 0.01472812 0.02741652 0.00126868 
0.05126128 0.07736679 0.02207205 0.00362387 0.00214834 0.00452214 0.01509720 0.01473925 0.04104783 0.00503157 0.00375403 0.11676828 0.01095289 0.01467226 0.02752846 0.00126773 
0.05072725 0.07594456 0.02270899 0.00362082 0.00213138 0.00445702 0.01514890 0.01450567 0.04103007 0.00502732 0.00376694 0.11622989 0.01099687 0.01461258 0.02763349 0.00126687 
0.05018218 0.07445337 0.02333968 0.00361603 0.00211391 0.00438907 0.01518428 0.01426941 0.04099425 0.00502152 0.00377693 0.11569847 0.01104996 0.01454913 0.02773118 0.00126611 
0.04962919 0.07289560 0.02396151 0.00360954 0.00209609 0.00431863 0.01520291 0.01403131 0.04093858 0.00501418 0.00378391 0.11517425 0.01111275 0.01448197 0.02782113 0.00126544 
0.04907138 0.07127408 0.02457183 0.00360135 0.00207810 0.00424602 0.01520449 0.01379216 0.04086137 0.00500531 0.00378779 0.11465751 0.01118577 0.01441120 0.02790303 0.00126488 
0.04851183 0.06959216 0.02516800 0.00359150 0.00206012 0.00417158 0.01518880 0.01355277 0.04076100 0.00499491 0.00378852 0.11414853 0.01126944 0.01433695 0.02797660 0.00126443 
0.04795354 0.06785365 0.02574739 0.00358004 0.00204233 0.00409568 0.01515576 0.01331390 0.04063594 0.00498299 0.00378606 0.11364764 0.01136415 0.01425940 0.02804164 0.00126408 
0.04739949 0.06606283 0.02630739 0.00356702 0.00202493 0.00401866 0.01510539 0.01307629 0.04048482 0.00496959 0.00378037 0.11315521 0.01147018 0.01417872 0.02809799 0.00126385 
0.04685258 0.06422446 0.02684543 0.00355248 0.00200811 0.00394088 0.01503782 0.01284067 0.04030636 0.00495472 0.00377144 0.11267165 0.01158772 0.01409515 0.02814557 0.00126373 
0.04631564 0.06234372 0.02735900 0.00353651 0.00199206 0.00386270 0.01495329 0.01260770 0.04009946 0.00493842 0.00375928 0.11219739 0.01171689 0.01400894 0.02818436 0.00126372 
0.04579139 0.06042624 0.02784562 0.00351916 0.00197697 0.00378448 0.01485216 0.01237804 0.03986317 0.00492072 0.00374391 0.11173293 0.01185770 0.01392037 0.02821439 0.00126384 
0.04528246 0.05847803 0.02830291 0.00350053 0.00196302 0.00370657 0.01473489 0.01215230 0.03959674 0.00490165 0.00372537 0.11127879 0.01201008 0.01382975 0.02823577 0.00126408 
0.04479139 0.05650547 0.02872858 0.00348069 0.00195042 0.00362932 0.01460204 0.01193106 0.03929959 0.00488125 0.00370372 0.11083554 0.01217387 0.01373739 0.02824864 0.00126444 
0.04432058 0.05451532 0.02912040 0.00345976 0.00193934 0.00355307 0.01445430 0.01171486 0.03897135 0.00485958 0.00367901 0.11040382 0.01234882 0.01364367 0.02825323 0.00126493 
0.04387233 0.05251463 0.02947629 0.00343783 0.00192995 0.00347815 0.01429242 0.01150418 0.03861184 0.00483667 0.00365134 0.10998427 0.01253457 0.01354894 0.02824980 0.00126554 
0.04344881 0.05051073 0.02979427 0.00341500 0.00192244 0.00340488 0.01411726 0.01129949 0.03822111 0.00481259 0.00362081 0.10957761 0.01273069 0.01345360 0.02823867 0.00126627 
0.04305204 0.04851120 0.03007248 0.00339141 0.00191696 0.00333358 0.01392978 0.01110119 0.03779944 0.00478738 0.00358752 0.10918460 0.01293667 0.01335804 0.02822021 0.00126714 
0.04268392 0.04652383 0.03030922 0.00336718 0.00191366 0.00326453 0.01373099 0.01090965 0.03734731 0.00476109 0.00355162 0.10880603 0.01315189 0.01326269 0.02819485 0.00126812 
0.04234620 0.04455656 0.03050293 0.00334242 0.00191270 0.00319802 0.01352201 0.01072521 0.03686545 0.00473379 0.00351324 0.10844276 0.01337567 0.01316795 0.02816304 0.00126924 
0.04204050 0.04261745 0.03065221 0.00331728 0.00191419 0.00313432 0.01330399 0.01054812 0.03635479 0.00470552 0.00347254 0.10809566 0.01360724 0.01307427 0.02812529 0.00127048 
0.04176827 0.04071465 0.03075581 0.00329190 0.00191827 0.00307365 0.01307817 0.01037863 0.03581651 0.00467636 0.00342968 0.10776568 0.01384577 0.01298206 0.02808212 0.00127184 
0.04153083 0.03885633 0.03081268 0.00326640 0.00192503 0.00301626 0.01284583 0.01021694 0.03525200 0.00464635 0.00338484 0.10745376 0.01409035 0.01289175 0.02803413 0.00127333 
0.04132933 0.03705063 0.03082193 0.00324095 0.00193458 0.00296235 0.01260828 0.01006317 0.03466287 0.00461557 0.00333820 0.10716094 0.01434001 0.01280377 0.02798188 0.00127493 
0.04116479 0.03530563 0.03078288 0.00321568 0.00194698 0.00291211 0.01236688 0.00991744 0.03405093 0.00458406 0.00328997 0.10688823 0.01459373 0.01271853 0.02792602 0.00127666 
0.04103806 0.03362931 0.03069501 0.00319074 0.00196231 0.00286570 0.01212301 0.00977980 0.03341819 0.00455190 0.00324034 0.10663672 0.01485045 0.01263643 0.02786716 0.00127850 
0.04094986 0.03202948 0.03055803 0.00316628 0.00198061 0.00282327 0.01187805 0.00965027 0.03276687 0.00451913 0.00318954 0.10640751 0.01510904 0.01255787 0.02780596 0.00128046 
0.04090073 0.03051371 0.03037181 0.00314245 0.00200190 0.00278494 0.01163341 0.00952881 0.03209936 0.00448582 0.00313777 0.10620171 0.01536835 0.01248321 0.02774308 0.00128253 
0.04089108 0.02908936 0.03013647 0.00311938 0.00202621 0.00275081 0.01139048 0.00941537 0.03141819 0.00445202 0.00308527 0.10602046 0.01562720 0.01241280 0.02767917 0.00128471 
0.04092117 0.02776345 0.02985229 0.00309723 0.00205354 0.00272096 0.01115064 0.00930984 0.03072608 0.00441780 0.00303226 0.10586492 0.01588439 0.01234696 0.02761490 0.00128698 
0.04099109 0.02654267 0.02951979 0.00307614 0.00208385 0.00269545 0.01091524 0.00921207 0.03002586 0.00438320 0.00297897 0.10573623 0.01613870 0.01228600 0.02755090 0.00128936 
0.04110082 0.02543330 0.02913968 0.00305623 0.00211713 0.00267431 0.01068562 0.00912187 0.02932049 0.00434829 0.00292565 0.10563555 0.01638891 0.01223018 0.02748783 0.00129184 
0.04125017 0.02444119 0.02871288 0.00303765 0.00215330 0.00265755 0.01046307 0.00903905 0.02861303 0.00431311 0.00287252 0.10556404 0.01663379 0.01217975 0.02742630 0.00129441 
