0.04672678 0.06378427 0.01766349 0.00261572 0.00066078 0.00183910 0.01040452 0.00561340 0.01609014 0.00172579 0.00145587 0.01970189 0.00828109 0.00203206 0.00345573 0.00128142 
0.04622990 0.06334763 0.01787864 0.00260292 0.00066086 0.00182871 0.01033759 0.00554811 0.01572542 0.00173251 0.00145030 0.02006765 0.00838249 0.00205824 0.00343764 0.00128501 
0.04569554 0.06282832 0.01807718 0.00259110 0.00066089 0.00181927 0.01026569 0.00548785 0.01536280 0.00173959 0.00144381 0.02044104 0.00848604 0.00208498 0.00342069 0.00128868 
0.04512470 0.06222831 0.01825800 0.00258035 0.00066088 0.00181091 0.01018940 0.00543352 0.01500440 0.00174699 0.00143637 0.02082005 0.00859153 0.00211218 0.00340499 0.00129240 
0.04451856 0.06155000 0.01842009 0.00257073 0.00066083 0.00180378 0.01010933 0.00538601 0.01465229 0.00175469 0.00142795 0.02120270 0.00869874 0.00213973 0.00339065 0.00129617 
0.04387847 0.06079618 0.01856249 0.00256233 0.00066075 0.00179799 0.01002611 0.00534619 0.01430860 0.00176269 0.00141855 0.02158699 0.00880745 0.00216752 0.00337779 0.00129995 
0.04320597 0.05997010 0.01868434 0.00255520 0.00066066 0.00179370 0.00994037 0.00531488 0.01397541 0.00177097 0.00140816 0.02197095 0.00891741 0.00219544 0.00336651 0.00130375 
0.04250276 0.05907536 0.01878485 0.00254939 0.00066056 0.00179101 0.00985280 0.00529290 0.01365478 0.00177951 0.00139679 0.02235266 0.00902839 0.00222337 0.00335692 0.00130753 
0.04177071 0.05811598 0.01886334 0.00254495 0.00066046 0.00179006 0.00976404 0.00528102 0.01334873 0.00178831 0.00138446 0.02273021 0.00914013 0.00225119 0.00334913 0.00131128 
0.04101184 0.05709635 0.01891921 0.00254191 0.00066036 0.00179095 0.00967478 0.00527996 0.01305923 0.00179735 0.00137118 0.02310178 0.00925238 0.00227878 0.00334325 0.00131498 
0.04022832 0.05602120 0.01895196 0.00254033 0.00066029 0.00179379 0.00958569 0.00529038 0.01278818 0.00180663 0.00135701 0.02346562 0.00936489 0.00230602 0.00333938 0.00131862 
0.03942245 0.05489561 0.01896118 0.00254020 0.00066026 0.00179869 0.00949743 0.00531292 0.01253741 0.00181614 0.00134198 0.02382004 0.00947740 0.00233279 0.00333762 0.00132218 
0.03859665 0.05372497 0.01894658 0.00254157 0.00066027 0.00180572 0.00941066 0.00534813 0.01230866 0.00182590 0.00132615 0.02416344 0.00958965 0.00235896 0.00333807 0.00132565 
0.03775345 0.05251494 0.01890794 0.00254443 0.00066034 0.00181498 0.00932601 0.00539652 0.01210356 0.00183588 0.00130958 0.02449435 0.00970137 0.00238441 0.00334083 0.00132900 
0.03689549 0.05127147 0.01884518 0.00254878 0.00066048 0.00182653 0.00924411 0.00545852 0.01192363 0.00184611 0.00129235 0.02481136 0.00981232 0.00240903 0.00334599 0.00133222 
0.03602548 0.05000070 0.01875828 0.00255463 0.00066071 0.00184042 0.00916557 0.00553448 0.01177026 0.00185658 0.00127454 0.02511320 0.00992224 0.00243271 0.00335364 0.00133530 
0.03514620 0.04870901 0.01864737 0.00256196 0.00066104 0.00185670 0.00909094 0.00562470 0.01164473 0.00186730 0.00125623 0.02539872 0.01003087 0.00245532 0.00336385 0.00133823 
0.03426046 0.04740293 0.01851262 0.00257076 0.00066147 0.00187539 0.00902078 0.00572939 0.01154816 0.00187828 0.00123752 0.02566689 0.01013797 0.00247678 0.00337670 0.00134099 
0.03337112 0.04608910 0.01835436 0.00258099 0.00066204 0.00189652 0.00895559 0.00584868 0.01148152 0.00188953 0.00121851 0.02591679 0.01024330 0.00249696 0.00339226 0.00134357 
0.03248105 0.04477429 0.01817295 0.00259263 0.00066274 0.00192009 0.00889584 0.00598262 0.01144563 0.00190105 0.00119931 0.02614766 0.01034663 0.00251579 0.00341059 0.00134596 
0.03159310 0.04346531 0.01796889 0.00260564 0.00066359 0.00194609 0.00884197 0.00613116 0.01144112 0.00191286 0.00118003 0.02635887 0.01044772 0.00253316 0.00343173 0.00134816 
0.03071013 0.04216901 0.01774275 0.00261996 0.00066460 0.00197448 0.00879438 0.00629420 0.01146849 0.00192496 0.00116078 0.02654991 0.01054636 0.00254901 0.00345575 0.00135015 
0.02983492 0.04089221 0.01749519 0.00263556 0.00066579 0.00200522 0.00875340 0.00647153 0.01152804 0.00193738 0.00114169 0.02672040 0.01064232 0.00256325 0.00348266 0.00135192 
0.02897021 0.03964168 0.01722692 0.00265237 0.00066716 0.00203826 0.00871935 0.00666284 0.01161990 0.00195012 0.00112287 0.02687013 0.01073541 0.00257581 0.00351250 0.00135347 
0.02811867 0.03842412 0.01693877 0.00267033 0.00066873 0.00207352 0.00869247 0.00686776 0.01174401 0.00196319 0.00110445 0.02699898 0.01082543 0.00258665 0.00354527 0.00135480 
0.02728286 0.03724607 0.01663161 0.00268937 0.00067050 0.00211091 0.00867298 0.00708583 0.01190014 0.00197661 0.00108656 0.02710699 0.01091220 0.00259572 0.00358099 0.00135590 
0.02646524 0.03611394 0.01630638 0.00270943 0.00067248 0.00215032 0.00866103 0.00731649 0.01208786 0.00199039 0.00106932 0.02719430 0.01099552 0.00260296 0.00361964 0.00135676 
0.02566813 0.03503390 0.01596408 0.00273042 0.00067469 0.00219163 0.00865673 0.00755911 0.01230659 0.00200453 0.00105285 0.02726119 0.01107523 0.00260836 0.00366120 0.00135740 
0.02489374 0.03401192 0.01560576 0.00275226 0.00067712 0.00223472 0.00866014 0.00781297 0.01255555 0.00201906 0.00103728 0.02730804 0.01115117 0.00261189 0.00370564 0.00135780 
0.02414408 0.03305368 0.01523251 0.00277487 0.00067978 0.00227943 0.00867127 0.00807727 0.01283379 0.00203396 0.00102274 0.02733534 0.01122319 0.00261355 0.00375291 0.00135796 
0.02342102 0.03216455 0.01484548 0.00279816 0.00068268 0.00232559 0.00869007 0.00835115 0.01314019 0.00204926 0.00100933 0.02734369 0.01129115 0.00261332 0.00380294 0.00135790 
0.02272626 0.03134958 0.01444584 0.00282204 0.00068581 0.00237304 0.00871645 0.00863367 0.01347346 0.00206496 0.00099718 0.02733378 0.01135489 0.00261123 0.00385567 0.00135760 
0.02206127 0.03061346 0.01403479 0.00284641 0.00068919 0.00242158 0.00875028 0.00892380 0.01383216 0.00208105 0.00098640 0.02730635 0.01141431 0.00260728 0.00391101 0.00135709 
0.02142737 0.02996045 0.01361356 0.00287119 0.00069279 0.00247101 0.00879137 0.00922049 0.01421470 0.00209755 0.00097710 0.02726226 0.01146928 0.00260151 0.00396885 0.00135635 
0.02082564 0.02939444 0.01318338 0.00289626 0.00069664 0.00252114 0.00883949 0.00952260 0.01461936 0.00211445 0.00096937 0.02720240 0.01151968 0.00259394 0.00402907 0.00135540 
0.02025696 0.02891885 0.01274551 0.00292155 0.00070071 0.00257172 0.00889435 0.00982894 0.01504427 0.00213175 0.00096331 0.02712774 0.01156542 0.00258463 0.00409153 0.00135425 
0.01972199 0.02853665 0.01230120 0.00294694 0.00070500 0.00262255 0.00895566 0.01013828 0.01548744 0.00214945 0.00095901 0.02703927 0.01160639 0.00257363 0.00415610 0.00135290 
0.01922120 0.02825033 0.01185172 0.00297233 0.00070952 0.00267338 0.00902304 0.01044935 0.01594680 0.00216753 0.00095655 0.02693801 0.01164250 0.00256099 0.00422259 0.00135136 
0.01875480 0.02806188 0.01139832 0.00299763 0.00071424 0.00272398 0.00909612 0.01076084 0.01642015 0.00218598 0.00095600 0.02682503 0.01167368 0.00254679 0.00429084 0.00134964 
0.01832282 0.02797279 0.01094224 0.00302274 0.00071916 0.00277411 0.00917446 0.01107142 0.01690522 0.00220480 0.00095743 0.02670139 0.01169983 0.00253109 0.00436065 0.00134775 
0.01792506 0.02798404 0.01048471 0.00304756 0.00072426 0.00282351 0.00925760 0.01137974 0.01739970 0.00222397 0.00096089 0.02656815 0.01172090 0.00251399 0.00443181 0.00134570 
0.01756113 0.02809610 0.01002695 0.00307200 0.00072954 0.00287193 0.00934507 0.01168442 0.01790117 0.00224347 0.00096642 0.02642636 0.01173681 0.00249555 0.00450409 0.00134351 
0.01723043 0.02830888 0.00957014 0.00309595 0.00073498 0.00291914 0.00943635 0.01198409 0.01840723 0.00226328 0.00097406 0.02627706 0.01174750 0.00247588 0.00457726 0.00134118 
0.01693216 0.02862180 0.00911546 0.00311933 0.00074055 0.00296488 0.00953091 0.01227738 0.01891541 0.00228338 0.00098385 0.02612125 0.01175291 0.00245507 0.00465107 0.00133873 
0.01666537 0.02903375 0.00866404 0.00314205 0.00074625 0.00300890 0.00962820 0.01256293 0.01942324 0.00230374 0.00099578 0.02595991 0.01175301 0.00243322 0.00472526 0.00133617 
0.01642890 0.02954310 0.00821699 0.00316402 0.00075204 0.00305097 0.00972766 0.01283939 0.01992829 0.00232434 0.00100988 0.02579395 0.01174773 0.00241042 0.00479954 0.00133351 
0.01622148 0.03014773 0.00777539 0.00318515 0.00075792 0.00309086 0.00982871 0.01310545 0.02042810 0.00234514 0.00102613 0.02562424 0.01173704 0.00238678 0.00487364 0.00133077 
0.01604167 0.03084499 0.00734028 0.00320536 0.00076386 0.00312833 0.00993077 0.01335981 0.02092028 0.00236612 0.00104452 0.02545159 0.01172091 0.00236240 0.00494725 0.00132796 
0.01588792 0.03163180 0.00691266 0.00322459 0.00076983 0.00316316 0.01003327 0.01360124 0.02140249 0.00238723 0.00106502 0.02527674 0.01169931 0.00233738 0.00502008 0.00132509 
0.01575855 0.03250458 0.00649350 0.00324274 0.00077582 0.00319516 0.01013560 0.01382853 0.02187243 0.00240845 0.00108759 0.02510034 0.01167221 0.00231183 0.00509181 0.00132218 
0.01565182 0.03345933 0.00608374 0.00325977 0.00078178 0.00322412 0.01023721 0.01404054 0.02232791 0.00242973 0.00111219 0.02492300 0.01163959 0.00228585 0.00516211 0.00131923 
0.01556592 0.03449161 0.00568426 0.00327560 0.00078771 0.00324986 0.01033750 0.01423619 0.02276682 0.00245103 0.00113877 0.02474522 0.01160145 0.00225954 0.00523067 0.00131627 
0.01549896 0.03559661 0.00529593 0.00329017 0.00079358 0.00327220 0.01043592 0.01441447 0.02318716 0.00247231 0.00116724 0.02456742 0.01155778 0.00223299 0.00529716 0.00131331 
0.01544904 0.03676912 0.00491956 0.00330344 0.00079935 0.00329100 0.01053192 0.01457445 0.02358704 0.00249354 0.00119754 0.02438995 0.01150858 0.00220630 0.00536124 0.00131035 
0.01541426 0.03800362 0.00455594 0.00331535 0.00080500 0.00330612 0.01062498 0.01471527 0.02396471 0.00251466 0.00122958 0.02421307 0.01145386 0.00217956 0.00542259 0.00130741 
0.01539270 0.03929426 0.00420581 0.00332585 0.00081050 0.00331744 0.01071458 0.01483616 0.02431855 0.00253563 0.00126327 0.02403696 0.01139363 0.00215287 0.00548087 0.00130451 
0.01538252 0.04063493 0.00386987 0.00333492 0.00081582 0.00332484 0.01080025 0.01493644 0.02464711 0.00255641 0.00129849 0.02386170 0.01132793 0.00212629 0.00553576 0.00130164 
0.01538187 0.04201925 0.00354882 0.00334252 0.00082094 0.00332826 0.01088152 0.01501555 0.02494907 0.00257695 0.00133513 0.02368731 0.01125678 0.00209991 0.00558694 0.00129883 
0.01538903 0.04344066 0.00324328 0.00334863 0.00082583 0.00332763 0.01095798 0.01507301 0.02522331 0.00259720 0.00137309 0.02351373 0.01118023 0.00207380 0.00563408 0.00129609 
0.01540233 0.04489239 0.00295388 0.00335321 0.00083046 0.00332291 0.01102923 0.01510843 0.02546885 0.00261712 0.00141222 0.02334083 0.01109832 0.00204804 0.00567689 0.00129342 
0.01542023 0.04636756 0.00268119 0.00335627 0.00083481 0.00331407 0.01109491 0.01512157 0.02568490 0.00263666 0.00145239 0.02316841 0.01101113 0.00202267 0.00571506 0.00129083 
0.01544131 0.04785918 0.00242578 0.00335778 0.00083884 0.00330112 0.01115470 0.01511226 0.02587086 0.00265578 0.00149347 0.02299621 0.01091871 0.00199776 0.00574831 0.00128833 
0.01546430 0.04936018 0.00218817 0.00335775 0.00084255 0.00328408 0.01120833 0.01508047 0.02602629 0.00267443 0.00153531 0.02282394 0.01082117 0.00197335 0.00577638 0.00128593 
0.01548810 0.05086348 0.00196886 0.00335617 0.00084589 0.00326300 0.01125555 0.01502626 0.02615097 0.00269256 0.00157775 0.02265123 0.01071858 0.00194949 0.00579900 0.00128363 
0.01551175 0.05236200 0.00176834 0.00335305 0.00084885 0.00323794 0.01129617 0.01494983 0.02624484 0.00271014 0.00162066 0.02247770 0.01061106 0.00192623 0.00581594 0.00128145 
0.01553452 0.05384870 0.00158707 0.00334842 0.00085141 0.00320899 0.01133003 0.01485146 0.02630801 0.00272713 0.00166387 0.02230294 0.01049873 0.00190358 0.00582699 0.00127939 
0.01555584 0.05531661 0.00142548 0.00334227 0.00085355 0.00317626 0.01135702 0.01473156 0.02634081 0.00274347 0.00170722 0.02212652 0.01038171 0.00188157 0.00583195 0.00127744 
0.01557539 0.05675891 0.00128399 0.00333464 0.00085524 0.00313989 0.01137708 0.01459067 0.02634372 0.00275914 0.00175055 0.02194800 0.01026016 0.00186024 0.00583066 0.00127563 
0.01559301 0.05816887 0.00116301 0.00332556 0.00085648 0.00310002 0.01139020 0.01442940 0.02631739 0.00277410 0.00179370 0.02176696 0.01013423 0.00183958 0.00582296 0.00127394 
0.01560881 0.05954000 0.00106291 0.00331505 0.00085725 0.00305684 0.01139640 0.01424850 0.02626264 0.00278831 0.00183652 0.02158296 0.01000408 0.00181962 0.00580875 0.00127239 
0.01562310 0.06086598 0.00098406 0.00330316 0.00085753 0.00301052 0.01139575 0.01404879 0.02618047 0.00280174 0.00187883 0.02139561 0.00986991 0.00180036 0.00578793 0.00127097 
0.01563642 0.06214075 0.00092680 0.00328992 0.00085731 0.00296129 0.01138837 0.01383122 0.02607200 0.00281436 0.00192049 0.02120455 0.00973191 0.00178181 0.00576046 0.00126968 
0.01564954 0.06335851 0.00089148 0.00327539 0.00085659 0.00290936 0.01137443 0.01359681 0.02593850 0.00282614 0.00196134 0.02100944 0.00959028 0.00176395 0.00572629 0.00126854 
0.01566344 0.06451377 0.00087838 0.00325960 0.00085536 0.00285499 0.01135412 0.01334667 0.02578138 0.00283705 0.00200122 0.02081003 0.00944525 0.00174680 0.00568543 0.00126752 
0.01567932 0.06560134 0.00088783 0.00324262 0.00085362 0.00279844 0.01132769 0.01308201 0.02560217 0.00284708 0.00203999 0.02060609 0.00929706 0.00173033 0.00563794 0.00126665 
0.01569861 0.06661640 0.00092007 0.00322450 0.00085135 0.00273997 0.01129544 0.01280410 0.02540249 0.00285620 0.00207749 0.02039748 0.00914595 0.00171454 0.00558387 0.00126591 
0.01572292 0.06755447 0.00097538 0.00320530 0.00084857 0.00267987 0.01125768 0.01251427 0.02518407 0.00286439 0.00211360 0.02018413 0.00899217 0.00169942 0.00552334 0.00126530 
0.01575407 0.06841145 0.00105397 0.00318508 0.00084528 0.00261844 0.01121478 0.01221393 0.02494874 0.00287164 0.00214817 0.01996606 0.00883601 0.00168495 0.00545649 0.00126482 
0.01579403 0.06918367 0.00115607 0.00316391 0.00084147 0.00255599 0.01116712 0.01190454 0.02469836 0.00287794 0.00218108 0.01974337 0.00867773 0.00167112 0.00538350 0.00126448 
0.01584496 0.06986784 0.00128184 0.00314185 0.00083717 0.00249283 0.01111514 0.01158760 0.02443487 0.00288327 0.00221221 0.01951627 0.00851763 0.00165792 0.00530458 0.00126425 
0.01590916 0.07046110 0.00143144 0.00311898 0.00083237 0.00242927 0.01105929 0.01126464 0.02416026 0.00288764 0.00224145 0.01928504 0.00835601 0.00164533 0.00521998 0.00126415 
0.01598906 0.07096103 0.00160499 0.00309536 0.00082709 0.00236564 0.01100006 0.01093724 0.02387653 0.00289103 0.00226869 0.01905008 0.00819317 0.00163334 0.00513000 0.00126417 
0.01608720 0.07136565 0.00180258 0.00307108 0.00082134 0.00230227 0.01093793 0.01060698 0.02358571 0.00289345 0.00229384 0.01881189 0.00802943 0.00162194 0.00503493 0.00126430 
0.01620620 0.07167342 0.00202426 0.00304619 0.00081514 0.00223948 0.01087344 0.01027546 0.02328982 0.00289489 0.00231681 0.01857108 0.00786511 0.00161110 0.00493515 0.00126454 
0.01634876 0.07188325 0.00227003 0.00302079 0.00080852 0.00217759 0.01080712 0.00994427 0.02299086 0.00289537 0.00233751 0.01832835 0.00770054 0.00160083 0.00483103 0.00126489 
0.01651762 0.07199449 0.00253986 0.00299495 0.00080148 0.00211694 0.01073952 0.00961502 0.02269083 0.00289488 0.00235590 0.01808452 0.00753605 0.00159111 0.00472298 0.00126534 
0.01671554 0.07200696 0.00283367 0.00296875 0.00079406 0.00205783 0.01067121 0.00928928 0.02239166 0.00289345 0.00237190 0.01784048 0.00737197 0.00158194 0.00461146 0.00126589 
0.01694528 0.07192088 0.00315133 0.00294226 0.00078628 0.00200058 0.01060274 0.00896860 0.02209525 0.00289107 0.00238547 0.01759726 0.00720863 0.00157332 0.00449693 0.00126653 
0.01720957 0.07173694 0.00349263 0.00291556 0.00077816 0.00194549 0.01053468 0.00865449 0.02180341 0.00288777 0.00239657 0.01735593 0.00704639 0.00156524 0.00437990 0.00126725 
0.01751107 0.07145625 0.00385735 0.00288874 0.00076974 0.00189284 0.01046759 0.00834844 0.02151791 0.00288356 0.00240518 0.01711767 0.00688556 0.00155770 0.00426088 0.00126806 
0.01785239 0.07108032 0.00424516 0.00286186 0.00076104 0.00184293 0.01040204 0.00805187 0.02124041 0.00287846 0.00241127 0.01688375 0.00672650 0.00155071 0.00414041 0.00126895 
0.01823601 0.07061109 0.00465569 0.00283503 0.00075210 0.00179602 0.01033857 0.00776614 0.02097247 0.00287249 0.00241485 0.01665548 0.00656953 0.00154428 0.00401907 0.00126991 
0.01866429 0.07005086 0.00508851 0.00280830 0.00074295 0.00175236 0.01027771 0.00749256 0.02071555 0.00286567 0.00241592 0.01643425 0.00641499 0.00153842 0.00389743 0.00127094 
0.01913944 0.06940234 0.00554308 0.00278176 0.00073362 0.00171219 0.01021999 0.00723234 0.02047100 0.00285803 0.00241450 0.01622148 0.00626319 0.00153313 0.00377608 0.00127203 
0.01966349 0.06866859 0.00601883 0.00275550 0.00072416 0.00167572 0.01016591 0.00698664 0.02024006 0.00284959 0.00241061 0.01601864 0.00611447 0.00152845 0.00365563 0.00127318 
0.02023826 0.06785298 0.00651508 0.00272958 0.00071459 0.00164316 0.01011593 0.00675651 0.02002381 0.00284038 0.00240428 0.01582723 0.00596913 0.00152437 0.00353668 0.00127439 
0.02086536 0.06695926 0.00703108 0.00270409 0.00070495 0.00161469 0.01007052 0.00654292 0.01982323 0.00283044 0.00239557 0.01564876 0.00582748 0.00152093 0.00341985 0.00127565 
0.02154617 0.06599143 0.00756600 0.00267909 0.00069529 0.00159046 0.01003009 0.00634673 0.01963914 0.00281978 0.00238453 0.01548473 0.00568982 0.00151814 0.00330576 0.00127695 
0.02228177 0.06495379 0.00811893 0.00265468 0.00068563 0.00157061 0.00999502 0.00616871 0.01947224 0.00280845 0.00237123 0.01533663 0.00555643 0.00151604 0.00319502 0.00127830 
0.02307300 0.06385091 0.00868887 0.00263092 0.00067603 0.00155526 0.00996569 0.00600952 0.01932308 0.00279647 0.00235574 0.01520595 0.00542760 0.00151463 0.00308823 0.00127969 
0.02392038 0.06268758 0.00927474 0.00260789 0.00066651 0.00154450 0.00994239 0.00586969 0.01919206 0.00278387 0.00233814 0.01509410 0.00530358 0.00151396 0.00298600 0.00128112 
0.02482415 0.06146881 0.00987535 0.00258565 0.00065711 0.00153839 0.00992542 0.00574968 0.01907944 0.00277070 0.00231853 0.01500248 0.00518464 0.00151404 0.00288891 0.00128258 
0.02578420 0.06019977 0.01048946 0.00256428 0.00064788 0.00153699 0.00991501 0.00564978 0.01898535 0.00275698 0.00229700 0.01493237 0.00507101 0.00151490 0.00279754 0.00128407 
0.02680013 0.05888584 0.01111573 0.00254386 0.00063886 0.00154031 0.00991136 0.00557022 0.01890977 0.00274276 0.00227366 0.01488503 0.00496292 0.00151658 0.00271243 0.00128558 
0.02787116 0.05753248 0.01175273 0.00252444 0.00063006 0.00154835 0.00991463 0.00551106 0.01885255 0.00272806 0.00224863 0.01486158 0.00486060 0.00151908 0.00263411 0.00128712 
0.02899620 0.05614531 0.01239896 0.00250609 0.00062155 0.00156108 0.00992492 0.00547229 0.01881339 0.00271292 0.00222202 0.01486306 0.00476423 0.00152244 0.00256308 0.00128868 
0.03017381 0.05473001 0.01305283 0.00248888 0.00061334 0.00157845 0.00994231 0.00545374 0.01879189 0.00269737 0.00219396 0.01489039 0.00467402 0.00152668 0.00249983 0.00129026 
0.03140221 0.05329232 0.01371269 0.00247287 0.00060548 0.00160039 0.00996683 0.00545516 0.01878750 0.00268146 0.00216458 0.01494434 0.00459014 0.00153181 0.00244479 0.00129185 
0.03267927 0.05183802 0.01437682 0.00245813 0.00059799 0.00162679 0.00999844 0.00547617 0.01879959 0.00266522 0.00213401 0.01502558 0.00451274 0.00153786 0.00239837 0.00129346 
0.03400255 0.05037290 0.01504341 0.00244470 0.00059092 0.00165755 0.01003710 0.00551629 0.01882738 0.00264869 0.00210239 0.01513461 0.00444197 0.00154484 0.00236094 0.00129507 
0.03536924 0.04890271 0.01571062 0.00243264 0.00058428 0.00169250 0.01008269 0.00557491 0.01887003 0.00263189 0.00206987 0.01527176 0.00437797 0.00155275 0.00233283 0.00129669 
0.03677626 0.04743321 0.01637653 0.00242200 0.00057810 0.00173151 0.01013507 0.00565136 0.01892658 0.00261487 0.00203658 0.01543724 0.00432085 0.00156161 0.00231434 0.00129832 
0.03822018 0.04597003 0.01703919 0.00241284 0.00057242 0.00177438 0.01019405 0.00574483 0.01899601 0.00259766 0.00200268 0.01563106 0.00427072 0.00157141 0.00230569 0.00129995 
0.03969731 0.04451876 0.01769660 0.00240519 0.00056726 0.00182091 0.01025943 0.00585444 0.01907722 0.00258030 0.00196831 0.01585306 0.00422767 0.00158215 0.00230710 0.00130157 
0.04120367 0.04308486 0.01834673 0.00239911 0.00056264 0.00187089 0.01033093 0.00597922 0.01916904 0.00256281 0.00193362 0.01610292 0.00419178 0.00159381 0.00231870 0.00130319 
0.04273502 0.04167365 0.01898752 0.00239462 0.00055857 0.00192409 0.01040828 0.00611812 0.01927026 0.00254524 0.00189876 0.01638013 0.00416311 0.00160640 0.00234061 0.00130481 
0.04428690 0.04029030 0.01961689 0.00239177 0.00055509 0.00198026 0.01049114 0.00627002 0.01937963 0.00252762 0.00186388 0.01668401 0.00414171 0.00161987 0.00237286 0.00130641 
0.04585462 0.03893980 0.02023276 0.00239057 0.00055219 0.00203914 0.01057919 0.00643373 0.01949586 0.00250997 0.00182913 0.01701369 0.00412764 0.00163422 0.00241546 0.00130800 
0.04743331 0.03762694 0.02083304 0.00239106 0.00054990 0.00210046 0.01067206 0.00660800 0.01961766 0.00249234 0.00179464 0.01736816 0.00412091 0.00164940 0.00246836 0.00130957 
0.04901794 0.03635631 0.02141568 0.00239326 0.00054823 0.00216395 0.01076935 0.00679155 0.01974372 0.00247475 0.00176057 0.01774621 0.00412156 0.00166538 0.00253144 0.00131112 
0.05060334 0.03513225 0.02197860 0.00239718 0.00054718 0.00222931 0.01087066 0.00698304 0.01987273 0.00245723 0.00172706 0.01814647 0.00412958 0.00168211 0.00260455 0.00131264 
0.05218423 0.03395885 0.02251980 0.00240282 0.00054676 0.00229626 0.01097558 0.00718109 0.02000341 0.00243982 0.00169424 0.01856743 0.00414499 0.00169955 0.00268748 0.00131414 
0.05375525 0.03283994 0.02303729 0.00241020 0.00054697 0.00236449 0.01108369 0.00738433 0.02013449 0.00242255 0.00166225 0.01900743 0.00416777 0.00171763 0.00277997 0.00131560 
0.05531101 0.03177907 0.02352914 0.00241931 0.00054781 0.00243371 0.01119456 0.00759134 0.02026474 0.00240544 0.00163122 0.01946464 0.00419790 0.00173629 0.00288170 0.00131702 
0.05684608 0.03077950 0.02399348 0.00243014 0.00054928 0.00250361 0.01130776 0.00780071 0.02039297 0.00238853 0.00160128 0.01993714 0.00423537 0.00175547 0.00299231 0.00131841 
0.05835506 0.02984417 0.02442852 0.00244268 0.00055137 0.00257389 0.01142287 0.00801105 0.02051807 0.00237184 0.00157255 0.02042288 0.00428015 0.00177508 0.00311140 0.00131974 
0.05983259 0.02897573 0.02483254 0.00245691 0.00055407 0.00264426 0.01153948 0.00822095 0.02063895 0.00235540 0.00154515 0.02091971 0.00433219 0.00179506 0.00323850 0.00132103 
0.06127340 0.02817650 0.02520392 0.00247279 0.00055738 0.00271443 0.01165719 0.00842905 0.02075464 0.00233925 0.00151918 0.02142539 0.00439145 0.00181531 0.00337313 0.00132226 
0.06267231 0.02744845 0.02554113 0.00249029 0.00056127 0.00278410 0.01177560 0.00863401 0.02086422 0.00232340 0.00149475 0.02193759 0.00445790 0.00183575 0.00351473 0.00132343 
0.06402431 0.02679324 0.02584276 0.00250937 0.00056574 0.00285301 0.01189436 0.00883454 0.02096686 0.00230788 0.00147197 0.02245395 0.00453146 0.00185629 0.00366273 0.00132453 
0.06532452 0.02621219 0.02610751 0.00252998 0.00057076 0.00292087 0.01201311 0.00902936 0.02106182 0.00229272 0.00145092 0.02297205 0.00461209 0.00187683 0.00381651 0.00132556 
0.06656831 0.02570626 0.02633421 0.00255206 0.00057632 0.00298744 0.01213155 0.00921731 0.02114849 0.00227795 0.00143169 0.02348944 0.00469973 0.00189726 0.00397542 0.00132652 
0.06775123 0.02527609 0.02652183 0.00257555 0.00058238 0.00305246 0.01224937 0.00939724 0.02122633 0.00226359 0.00141437 0.02400366 0.00479430 0.00191749 0.00413879 0.00132740 
0.06886912 0.02492196 0.02666948 0.00260037 0.00058893 0.00311569 0.01236634 0.00956810 0.02129491 0.00224966 0.00139901 0.02451228 0.00489574 0.00193742 0.00430590 0.00132820 
0.06991809 0.02464382 0.02677640 0.00262645 0.00059594 0.00317693 0.01248223 0.00972891 0.02135394 0.00223619 0.00138570 0.02501286 0.00500398 0.00195693 0.00447603 0.00132891 
0.07089456 0.02444128 0.02684202 0.00265369 0.00060337 0.00323596 0.01259684 0.00987877 0.02140322 0.00222319 0.00137448 0.02550303 0.00511894 0.00197593 0.00464843 0.00132952 
0.07179526 0.02431365 0.02686589 0.00268202 0.00061119 0.00329261 0.01271005 0.01001689 0.02144266 0.00221071 0.00136541 0.02598045 0.00524053 0.00199431 0.00482233 0.00133004 
0.07261730 0.02425987 0.02684774 0.00271132 0.00061938 0.00334669 0.01282174 0.01014255 0.02147232 0.00219874 0.00135853 0.02644289 0.00536868 0.00201196 0.00499695 0.00133047 
0.07335812 0.02427861 0.02678747 0.00274150 0.00062789 0.00339805 0.01293184 0.01025515 0.02149233 0.00218732 0.00135388 0.02688817 0.00550330 0.00202878 0.00517153 0.00133079 
0.07401558 0.02436822 0.02668513 0.00277243 0.00063669 0.00344657 0.01304034 0.01035419 0.02150298 0.00217647 0.00135149 0.02731423 0.00564428 0.00204466 0.00534526 0.00133100 
0.07458790 0.02452676 0.02654096 0.00280400 0.00064574 0.00349212 0.01314725 0.01043928 0.02150463 0.00216620 0.00135137 0.02771915 0.00579155 0.00205951 0.00551736 0.00133111 
0.07507375 0.02475201 0.02635536 0.00283609 0.00065500 0.00353461 0.01325262 0.01051014 0.02149778 0.00215653 0.00135354 0.02810110 0.00594498 0.00207324 0.00568706 0.00133110 
0.07547216 0.02504150 0.02612889 0.00286856 0.00066443 0.00357397 0.01335656 0.01056660 0.02148304 0.00214748 0.00135801 0.02845842 0.00610449 0.00208574 0.00585359 0.00133099 
0.07578264 0.02539252 0.02586229 0.00290128 0.00067398 0.00361013 0.01345920 0.01060862 0.02146108 0.00213906 0.00136477 0.02878962 0.00626994 0.00209694 0.00601617 0.00133077 
0.07600509 0.02580212 0.02555645 0.00293412 0.00068363 0.00364305 0.01356071 0.01063625 0.02143271 0.00213129 0.00137380 0.02909333 0.00644123 0.00210675 0.00617409 0.00133044 
0.07613984 0.02626713 0.02521245 0.00296693 0.00069332 0.00367272 0.01366130 0.01064968 0.02139881 0.00212418 0.00138511 0.02936840 0.00661822 0.00211510 0.00632661 0.00132999 
0.07618767 0.02678423 0.02483149 0.00299956 0.00070302 0.00369914 0.01376120 0.01064919 0.02136033 0.00211774 0.00139865 0.02961383 0.00680078 0.00212191 0.00647305 0.00132944 
0.07614974 0.02734989 0.02441494 0.00303187 0.00071267 0.00372232 0.01386070 0.01063520 0.02131833 0.00211197 0.00141440 0.02982882 0.00698876 0.00212712 0.00661274 0.00132879 
0.07602767 0.02796046 0.02396432 0.00306371 0.00072225 0.00374230 0.01396007 0.01060822 0.02127391 0.00210690 0.00143231 0.03001278 0.00718202 0.00213068 0.00674504 0.00132803 
0.07582345 0.02861215 0.02348129 0.00309493 0.00073170 0.00375912 0.01405965 0.01056886 0.02122822 0.00210251 0.00145235 0.03016528 0.00738038 0.00213254 0.00686938 0.00132717 
0.07553949 0.02930109 0.02296761 0.00312537 0.00074098 0.00377286 0.01415975 0.01051786 0.02118248 0.00209881 0.00147445 0.03028611 0.00758366 0.00213265 0.00698518 0.00132622 
0.07517854 0.03002332 0.02242521 0.00315490 0.00075006 0.00378359 0.01426074 0.01045603 0.02113793 0.00209581 0.00149855 0.03037525 0.00779169 0.00213100 0.00709194 0.00132518 
0.07474376 0.03077482 0.02185610 0.00318335 0.00075889 0.00379141 0.01436297 0.01038429 0.02109587 0.00209350 0.00152458 0.03043288 0.00800425 0.00212756 0.00718919 0.00132405 
0.07423863 0.03155155 0.02126239 0.00321059 0.00076744 0.00379642 0.01446681 0.01030364 0.02105757 0.00209188 0.00155248 0.03045936 0.00822114 0.00212231 0.00727651 0.00132285 
0.07366694 0.03234946 0.02064631 0.00323646 0.00077567 0.00379875 0.01457262 0.01021516 0.02102434 0.00209094 0.00158215 0.03045527 0.00844212 0.00211525 0.00735353 0.00132159 
0.07303280 0.03316454 0.02001014 0.00326084 0.00078355 0.00379852 0.01468075 0.01012001 0.02099748 0.00209067 0.00161350 0.03042134 0.00866695 0.00210639 0.00741993 0.00132026 
0.07234059 0.03399278 0.01935626 0.00328358 0.00079103 0.00379587 0.01479157 0.01001940 0.02097827 0.00209106 0.00164645 0.03035849 0.00889536 0.00209574 0.00747545 0.00131889 
0.07159494 0.03483029 0.01868708 0.00330455 0.00079809 0.00379095 0.01490541 0.00991461 0.02096797 0.00209208 0.00168090 0.03026780 0.00912707 0.00208333 0.00751988 0.00131747 
0.07080070 0.03567323 0.01800508 0.00332363 0.00080470 0.00378390 0.01502259 0.00980697 0.02096779 0.00209374 0.00171672 0.03015053 0.00936180 0.00206920 0.00755307 0.00131602 
0.06996292 0.03651790 0.01731275 0.00334070 0.00081083 0.00377489 0.01514340 0.00969783 0.02097891 0.00209599 0.00175382 0.03000805 0.00959922 0.00205339 0.00757492 0.00131456 
0.06908679 0.03736071 0.01661261 0.00335566 0.00081645 0.00376407 0.01526811 0.00958859 0.02100244 0.00209883 0.00179207 0.02984191 0.00983900 0.00203596 0.00758539 0.00131309 
0.06817767 0.03819824 0.01590721 0.00336840 0.00082155 0.00375160 0.01539695 0.00948068 0.02103943 0.00210221 0.00183135 0.02965374 0.01008080 0.00201696 0.00758451 0.00131163 
0.06724100 0.03902726 0.01519907 0.00337884 0.00082610 0.00373765 0.01553013 0.00937550 0.02109083 0.00210612 0.00187154 0.02944532 0.01032423 0.00199647 0.00757236 0.00131018 
0.06628229 0.03984469 0.01449069 0.00338688 0.00083008 0.00372239 0.01566779 0.00927449 0.02115753 0.00211051 0.00191249 0.02921850 0.01056892 0.00197458 0.00754906 0.00130877 
0.06530710 0.04064772 0.01378456 0.00339247 0.00083349 0.00370596 0.01581006 0.00917907 0.02124031 0.00211534 0.00195408 0.02897522 0.01081445 0.00195137 0.00751482 0.00130741 
0.06432097 0.04143371 0.01308312 0.00339553 0.00083630 0.00368854 0.01595699 0.00909064 0.02133984 0.00212059 0.00199616 0.02871748 0.01106040 0.00192694 0.00746987 0.00130610 
0.06332946 0.04220029 0.01238876 0.00339603 0.00083852 0.00367026 0.01610861 0.00901057 0.02145670 0.00212621 0.00203858 0.02844734 0.01130633 0.00190140 0.00741452 0.00130487 
0.06233803 0.04294535 0.01170380 0.00339393 0.00084013 0.00365129 0.01626487 0.00894019 0.02159131 0.00213215 0.00208121 0.02816689 0.01155178 0.00187486 0.00734912 0.00130372 
0.06135209 0.04366702 0.01103048 0.00338921 0.00084114 0.00363177 0.01642569 0.00888079 0.02174401 0.00213837 0.00212389 0.02787823 0.01179627 0.00184745 0.00727408 0.00130268 
0.06037690 0.04436372 0.01037098 0.00338185 0.00084155 0.00361183 0.01659092 0.00883359 0.02191499 0.00214481 0.00216647 0.02758348 0.01203932 0.00181927 0.00718985 0.00130175 
0.05941760 0.04503414 0.00972735 0.00337187 0.00084135 0.00359161 0.01676034 0.00879976 0.02210429 0.00215142 0.00220879 0.02728473 0.01228041 0.00179048 0.00709692 0.00130094 
0.05847914 0.04567726 0.00910156 0.00335928 0.00084057 0.00357121 0.01693371 0.00878040 0.02231183 0.00215815 0.00225071 0.02698406 0.01251903 0.00176119 0.00699584 0.00130028 
0.05756630 0.04629234 0.00849546 0.00334412 0.00083920 0.00355077 0.01711070 0.00877651 0.02253740 0.00216495 0.00229206 0.02668349 0.01275465 0.00173156 0.00688718 0.00129977 
0.05668360 0.04687893 0.00791077 0.00332643 0.00083728 0.00353037 0.01729093 0.00878900 0.02278063 0.00217176 0.00233269 0.02638498 0.01298675 0.00170172 0.00677156 0.00129942 
0.05583534 0.04743687 0.00734908 0.00330627 0.00083480 0.00351011 0.01747397 0.00881871 0.02304100 0.00217851 0.00237244 0.02609044 0.01321476 0.00167183 0.00664963 0.00129925 
0.05502555 0.04796628 0.00681188 0.00328372 0.00083180 0.00349008 0.01765933 0.00886635 0.02331788 0.00218515 0.00241117 0.02580167 0.01343816 0.00164202 0.00652207 0.00129926 
0.05425796 0.04846756 0.00630047 0.00325888 0.00082830 0.00347035 0.01784647 0.00893254 0.02361048 0.00219163 0.00244871 0.02552039 0.01365638 0.00161245 0.00638957 0.00129947 
0.05353600 0.04894138 0.00581604 0.00323183 0.00082432 0.00345099 0.01803480 0.00901778 0.02391788 0.00219787 0.00248493 0.02524819 0.01386889 0.00158326 0.00625288 0.00129988 
0.05286280 0.04938865 0.00535961 0.00320271 0.00081989 0.00343203 0.01822368 0.00912245 0.02423902 0.00220383 0.00251966 0.02498656 0.01407513 0.00155460 0.00611273 0.00130050 
0.05224113 0.04981057 0.00493208 0.00317164 0.00081506 0.00341354 0.01841244 0.00924681 0.02457273 0.00220943 0.00255277 0.02473685 0.01427456 0.00152662 0.00596988 0.00130134 
0.05167345 0.05020854 0.00453415 0.00313877 0.00080984 0.00339554 0.01860033 0.00939100 0.02491769 0.00221463 0.00258412 0.02450028 0.01446666 0.00149947 0.00582509 0.00130240 
0.05116184 0.05058420 0.00416641 0.00310426 0.00080429 0.00337807 0.01878662 0.00955505 0.02527251 0.00221937 0.00261358 0.02427790 0.01465091 0.00147328 0.00567915 0.00130368 
0.05070804 0.05093940 0.00382928 0.00306826 0.00079844 0.00336112 0.01897050 0.00973884 0.02563564 0.00222359 0.00264101 0.02407063 0.01482679 0.00144819 0.00553282 0.00130519 
0.05031342 0.05127617 0.00352301 0.00303097 0.00079232 0.00334472 0.01915116 0.00994214 0.02600549 0.00222724 0.00266630 0.02387922 0.01499384 0.00142433 0.00538688 0.00130692 
0.04997901 0.05159671 0.00324772 0.00299256 0.00078599 0.00332886 0.01932776 0.01016458 0.02638033 0.00223027 0.00268932 0.02370427 0.01515158 0.00140184 0.00524210 0.00130889 
0.04970546 0.05190337 0.00300338 0.00295325 0.00077950 0.00331354 0.01949944 0.01040569 0.02675838 0.00223263 0.00270997 0.02354621 0.01529957 0.00138083 0.00509921 0.00131107 
0.04949308 0.05219863 0.00278979 0.00291325 0.00077287 0.00329873 0.01966534 0.01066486 0.02713780 0.00223428 0.00272815 0.02340530 0.01543740 0.00136142 0.00495898 0.00131347 
0.04934181 0.05248508 0.00260665 0.00287276 0.00076617 0.00328443 0.01982458 0.01094138 0.02751668 0.00223518 0.00274377 0.02328164 0.01556470 0.00134371 0.00482210 0.00131608 
0.04925126 0.05276539 0.00245348 0.00283201 0.00075945 0.00327061 0.01997629 0.01123440 0.02789307 0.00223528 0.00275675 0.02317517 0.01568112 0.00132781 0.00468929 0.00131890 
0.04922072 0.05304229 0.00232969 0.00279123 0.00075274 0.00325724 0.02011961 0.01154299 0.02826501 0.00223456 0.00276701 0.02308565 0.01578635 0.00131380 0.00456120 0.00132190 
0.04924914 0.05331856 0.00223457 0.00275066 0.00074611 0.00324429 0.02025367 0.01186609 0.02863049 0.00223299 0.00277449 0.02301271 0.01588012 0.00130177 0.00443849 0.00132510 
0.04933517 0.05359697 0.00216727 0.00271053 0.00073959 0.00323171 0.02037764 0.01220257 0.02898752 0.00223054 0.00277915 0.02295582 0.01596220 0.00129178 0.00432175 0.00132846 
0.04947717 0.05388031 0.00212687 0.00267109 0.00073324 0.00321949 0.02049071 0.01255118 0.02933413 0.00222721 0.00278093 0.02291427 0.01603243 0.00128390 0.00421156 0.00133197 
0.04967324 0.05417131 0.00211229 0.00263258 0.00072711 0.00320757 0.02059209 0.01291062 0.02966835 0.00222297 0.00277983 0.02288727 0.01609066 0.00127818 0.00410844 0.00133563 
0.04992122 0.05447266 0.00212241 0.00259523 0.00072124 0.00319593 0.02068102 0.01327949 0.02998826 0.00221782 0.00277582 0.02287385 0.01613681 0.00127465 0.00401288 0.00133940 
0.05021869 0.05478697 0.00215599 0.00255930 0.00071568 0.00318452 0.02075678 0.01365633 0.03029201 0.00221176 0.00276889 0.02287295 0.01617085 0.00127336 0.00392534 0.00134327 
0.05056306 0.05511675 0.00221174 0.00252502 0.00071048 0.00317331 0.02081872 0.01403961 0.03057779 0.00220480 0.00275907 0.02288338 0.01619281 0.00127430 0.00384620 0.00134722 
0.05095153 0.05546439 0.00228828 0.00249263 0.00070567 0.00316226 0.02086619 0.01442779 0.03084388 0.00219694 0.00274637 0.02290386 0.01620276 0.00127750 0.00377580 0.00135123 
0.05138114 0.05583214 0.00238418 0.00246236 0.00070131 0.00315135 0.02089864 0.01481923 0.03108865 0.00218820 0.00273083 0.02293301 0.01620083 0.00128294 0.00371446 0.00135527 
0.05184877 0.05622210 0.00249798 0.00243443 0.00069742 0.00314055 0.02091555 0.01521232 0.03131058 0.00217862 0.00271249 0.02296940 0.01618721 0.00129060 0.00366242 0.00135932 
0.05235121 0.05663618 0.00262817 0.00240906 0.00069404 0.00312982 0.02091645 0.01560540 0.03150825 0.00216821 0.00269144 0.02301151 0.01616214 0.00130047 0.00361986 0.00136334 
0.05288514 0.05707610 0.00277321 0.00238645 0.00069121 0.00311915 0.02090096 0.01599679 0.03168040 0.00215701 0.00266773 0.02305779 0.01612592 0.00131249 0.00358692 0.00136732 
0.05344719 0.05754340 0.00293156 0.00236682 0.00068896 0.00310852 0.02086876 0.01638483 0.03182587 0.00214507 0.00264146 0.02310663 0.01607891 0.00132661 0.00356370 0.00137122 
0.05403393 0.05803937 0.00310165 0.00235034 0.00068732 0.00309792 0.02081958 0.01676785 0.03194367 0.00213244 0.00261273 0.02315644 0.01602152 0.00134278 0.00355023 0.00137502 
0.05464192 0.05856511 0.00328195 0.00233719 0.00068630 0.00308734 0.02075323 0.01714423 0.03203295 0.00211917 0.00258166 0.02320558 0.01595421 0.00136092 0.00354647 0.00137869 
0.05526774 0.05912144 0.00347091 0.00232754 0.00068593 0.00307678 0.02066959 0.01751234 0.03209303 0.00210532 0.00254837 0.02325243 0.01587748 0.00138095 0.00355235 0.00138219 
0.05590798 0.05970897 0.00366703 0.00232153 0.00068623 0.00306624 0.02056863 0.01787062 0.03212340 0.00209095 0.00251301 0.02329542 0.01579191 0.00140277 0.00356774 0.00138549 
0.05655930 0.06032805 0.00386882 0.00231930 0.00068720 0.00305572 0.02045037 0.01821753 0.03212372 0.00207615 0.00247572 0.02333296 0.01569810 0.00142628 0.00359247 0.00138857 
0.05721844 0.06097879 0.00407484 0.00232097 0.00068887 0.00304524 0.02031491 0.01855160 0.03209382 0.00206097 0.00243667 0.02336356 0.01559671 0.00145138 0.00362629 0.00139140 
0.05788224 0.06166103 0.00428371 0.00232663 0.00069122 0.00303481 0.02016242 0.01887143 0.03203373 0.00204551 0.00239603 0.02338575 0.01548842 0.00147794 0.00366893 0.00139394 
0.05854764 0.06237437 0.00449410 0.00233637 0.00069426 0.00302446 0.01999315 0.01917568 0.03194363 0.00202984 0.00235397 0.02339817 0.01537397 0.00150584 0.00372005 0.00139616 
0.05921174 0.06311817 0.00470474 0.00235026 0.00069799 0.00301420 0.01980743 0.01946308 0.03182392 0.00201405 0.00231070 0.02339951 0.01525413 0.00153495 0.00377928 0.00139804 
0.05987180 0.06389152 0.00491444 0.00236835 0.00070239 0.00300406 0.01960563 0.01973246 0.03167515 0.00199825 0.00226640 0.02338859 0.01512968 0.00156513 0.00384621 0.00139955 
0.06052524 0.06469331 0.00512209 0.00239065 0.00070746 0.00299408 0.01938822 0.01998274 0.03149806 0.00198251 0.00222128 0.02336430 0.01500144 0.00159624 0.00392037 0.00140066 
0.06116966 0.06552216 0.00532666 0.00241719 0.00071318 0.00298429 0.01915572 0.02021292 0.03129356 0.00196693 0.00217556 0.02332569 0.01487026 0.00162812 0.00400127 0.00140134 
0.06180288 0.06637650 0.00552721 0.00244794 0.00071952 0.00297472 0.01890871 0.02042212 0.03106273 0.00195162 0.00212945 0.02327189 0.01473699 0.00166064 0.00408839 0.00140157 
0.06242293 0.06725454 0.00572288 0.00248289 0.00072647 0.00296541 0.01864783 0.02060955 0.03080682 0.00193667 0.00208316 0.02320219 0.01460248 0.00169363 0.00418115 0.00140133 
0.06302804 0.06815429 0.00591294 0.00252197 0.00073398 0.00295641 0.01837380 0.02077453 0.03052722 0.00192218 0.00203693 0.02311602 0.01446762 0.00172695 0.00427897 0.00140059 
0.06361669 0.06907360 0.00609672 0.00256512 0.00074204 0.00294774 0.01808737 0.02091649 0.03022548 0.00190825 0.00199097 0.02301293 0.01433326 0.00176044 0.00438124 0.00139934 
0.06418759 0.07001011 0.00627368 0.00261225 0.00075059 0.00293946 0.01778934 0.02103497 0.02990328 0.00189498 0.00194551 0.02289265 0.01420028 0.00179394 0.00448731 0.00139755 
0.06473968 0.07096136 0.00644338 0.00266324 0.00075960 0.00293159 0.01748056 0.02112964 0.02956243 0.00188247 0.00190078 0.02275504 0.01406952 0.00182730 0.00459654 0.00139522 
0.06527215 0.07192471 0.00660547 0.00271798 0.00076903 0.00292418 0.01716194 0.02120025 0.02920485 0.00187081 0.00185700 0.02260010 0.01394183 0.00186037 0.00470826 0.00139233 
0.06578441 0.07289744 0.00675971 0.00277631 0.00077883 0.00291727 0.01683441 0.02124669 0.02883257 0.00186010 0.00181438 0.02242802 0.01381801 0.00189301 0.00482178 0.00138887 
0.06627612 0.07387671 0.00690597 0.00283807 0.00078895 0.00291088 0.01649893 0.02126894 0.02844770 0.00185042 0.00177315 0.02223912 0.01369886 0.00192506 0.00493644 0.00138483 
0.06674718 0.07485962 0.00704422 0.00290307 0.00079934 0.00290506 0.01615650 0.02126711 0.02805243 0.00184188 0.00173351 0.02203385 0.01358514 0.00195639 0.00505154 0.00138020 
0.06719770 0.07584318 0.00717452 0.00297113 0.00080994 0.00289982 0.01580814 0.02124140 0.02764900 0.00183454 0.00169566 0.02181285 0.01347756 0.00198686 0.00516639 0.00137499 
0.06762802 0.07682439 0.00729704 0.00304202 0.00082069 0.00289519 0.01545488 0.02119211 0.02723971 0.00182849 0.00165981 0.02157687 0.01337681 0.00201634 0.00528032 0.00136919 
0.06803868 0.07780022 0.00741202 0.00311553 0.00083155 0.00289119 0.01509779 0.02111965 0.02682689 0.00182381 0.00162614 0.02132681 0.01328351 0.00204471 0.00539266 0.00136282 
0.06843043 0.07876762 0.00751981 0.00319140 0.00084244 0.00288784 0.01473793 0.02102451 0.02641286 0.00182055 0.00159482 0.02106369 0.01319826 0.00207186 0.00550275 0.00135586 
0.06880419 0.07972358 0.00762083 0.00326939 0.00085332 0.00288515 0.01437636 0.02090730 0.02599997 0.00181879 0.00156602 0.02078865 0.01312157 0.00209768 0.00560994 0.00134834 
0.06916107 0.08066512 0.00771559 0.00334924 0.00086411 0.00288312 0.01401416 0.02076869 0.02559052 0.00181859 0.00153989 0.02050297 0.01305393 0.00212206 0.00571363 0.00134027 
0.06950231 0.08158929 0.00780467 0.00343067 0.00087476 0.00288176 0.01365240 0.02060941 0.02518681 0.00181998 0.00151658 0.02020801 0.01299573 0.00214493 0.00581320 0.00133166 
0.06982932 0.08249324 0.00788870 0.00351340 0.00088521 0.00288105 0.01329214 0.02043031 0.02479106 0.00182302 0.00149620 0.01990521 0.01294734 0.00216619 0.00590809 0.00132253 
0.07014360 0.08337420 0.00796839 0.00359715 0.00089540 0.00288099 0.01293443 0.02023227 0.02440546 0.00182773 0.00147887 0.01959614 0.01290903 0.00218578 0.00599776 0.00131290 
0.07044678 0.08422947 0.00804448 0.00368162 0.00090527 0.00288156 0.01258029 0.02001623 0.02403209 0.00183415 0.00146469 0.01928238 0.01288101 0.00220363 0.00608169 0.00130280 
0.07074055 0.08505652 0.00811778 0.00376652 0.00091477 0.00288273 0.01223074 0.01978320 0.02367296 0.00184230 0.00145373 0.01896563 0.01286343 0.00221971 0.00615941 0.00129226 
0.07102667 0.08585289 0.00818912 0.00385155 0.00092383 0.00288448 0.01188675 0.01953422 0.02332996 0.00185218 0.00144606 0.01864758 0.01285636 0.00223395 0.00623048 0.00128130 
0.07130694 0.08661631 0.00825935 0.00393641 0.00093241 0.00288677 0.01154930 0.01927038 0.02300488 0.00186379 0.00144172 0.01832999 0.01285980 0.00224634 0.00629451 0.00126997 
0.07158318 0.08734464 0.00832936 0.00402081 0.00094045 0.00288956 0.01121929 0.01899278 0.02269936 0.00187714 0.00144073 0.01801462 0.01287368 0.00225685 0.00635114 0.00125829 
0.07185722 0.08803591 0.00840003 0.00410444 0.00094791 0.00289280 0.01089762 0.01870257 0.02241493 0.00189220 0.00144311 0.01770326 0.01289786 0.00226548 0.00640005 0.00124630 
0.07213085 0.08868830 0.00847228 0.00418703 0.00095474 0.00289645 0.01058514 0.01840089 0.02215294 0.00190896 0.00144885 0.01739766 0.01293214 0.00227222 0.00644098 0.00123405 
0.07240582 0.08930019 0.00854698 0.00426828 0.00096091 0.00290044 0.01028265 0.01808890 0.02191461 0.00192738 0.00145791 0.01709958 0.01297622 0.00227708 0.00647370 0.00122157 
0.07268381 0.08987015 0.00862502 0.00434791 0.00096637 0.00290473 0.00999090 0.01776776 0.02170097 0.00194741 0.00147026 0.01681072 0.01302977 0.00228009 0.00649805 0.00120892 
0.07296643 0.09039692 0.00870726 0.00442566 0.00097110 0.00290924 0.00971063 0.01743863 0.02151292 0.00196902 0.00148582 0.01653277 0.01309238 0.00228127 0.00651390 0.00119614 
0.07325515 0.09087943 0.00879452 0.00450127 0.00097506 0.00291391 0.00944247 0.01710266 0.02135114 0.00199213 0.00150451 0.01626733 0.01316356 0.00228066 0.00652117 0.00118327 
0.07355135 0.09131681 0.00888761 0.00457448 0.00097824 0.00291866 0.00918705 0.01676098 0.02121617 0.00201669 0.00152624 0.01601595 0.01324280 0.00227832 0.00651983 0.00117037 
0.07385624 0.09170841 0.00898725 0.00464506 0.00098061 0.00292342 0.00894492 0.01641469 0.02110836 0.00204262 0.00155088 0.01578008 0.01332950 0.00227429 0.00650990 0.00115748 
0.07417088 0.09205372 0.00909417 0.00471278 0.00098215 0.00292813 0.00871657 0.01606486 0.02102788 0.00206983 0.00157831 0.01556111 0.01342302 0.00226863 0.00649145 0.00114467 
0.07449615 0.09235248 0.00920900 0.00477744 0.00098287 0.00293269 0.00850245 0.01571255 0.02097473 0.00209825 0.00160836 0.01536031 0.01352268 0.00226143 0.00646460 0.00113197 
0.07483271 0.09260457 0.00933231 0.00483885 0.00098276 0.00293704 0.00830293 0.01535877 0.02094873 0.00212776 0.00164088 0.01517886 0.01362776 0.00225276 0.00642950 0.00111944 
0.07518104 0.09281010 0.00946463 0.00489681 0.00098182 0.00294109 0.00811834 0.01500448 0.02094952 0.00215828 0.00167568 0.01501779 0.01373748 0.00224269 0.00638638 0.00110713 
0.07554140 0.09296933 0.00960638 0.00495118 0.00098006 0.00294476 0.00794892 0.01465060 0.02097660 0.00218968 0.00171258 0.01487805 0.01385106 0.00223132 0.00633549 0.00109510 
0.07591381 0.09308270 0.00975792 0.00500181 0.00097748 0.00294798 0.00779488 0.01429801 0.02102930 0.00222185 0.00175136 0.01476044 0.01396766 0.00221875 0.00627711 0.00108339 
0.07629803 0.09315085 0.00991954 0.00504857 0.00097412 0.00295067 0.00765635 0.01394754 0.02110680 0.00225467 0.00179181 0.01466563 0.01408646 0.00220506 0.00621159 0.00107206 
0.07669362 0.09317454 0.01009142 0.00509136 0.00097000 0.00295276 0.00753339 0.01359996 0.02120812 0.00228802 0.00183369 0.01459417 0.01420658 0.00219037 0.00613930 0.00106116 
0.07709984 0.09315471 0.01027367 0.00513008 0.00096513 0.00295417 0.00742602 0.01325599 0.02133217 0.00232176 0.00187679 0.01454645 0.01432717 0.00217477 0.00606066 0.00105073 
0.07751572 0.09309245 0.01046630 0.00516466 0.00095957 0.00295482 0.00733417 0.01291631 0.02147774 0.00235575 0.00192084 0.01452274 0.01444735 0.00215837 0.00597612 0.00104081 
0.07794003 0.09298897 0.01066923 0.00519507 0.00095334 0.00295466 0.00725773 0.01258152 0.02164351 0.00238988 0.00196561 0.01452316 0.01456625 0.00214128 0.00588615 0.00103146 
0.07837128 0.09284562 0.01088230 0.00522125 0.00094649 0.00295362 0.00719651 0.01225219 0.02182804 0.00242398 0.00201084 0.01454770 0.01468303 0.00212361 0.00579127 0.00102271 
0.07880775 0.09266387 0.01110524 0.00524320 0.00093907 0.00295163 0.00715028 0.01192883 0.02202982 0.00245793 0.00205627 0.01459623 0.01479685 0.00210547 0.00569200 0.00101461 
0.07924744 0.09244529 0.01133771 0.00526092 0.00093113 0.00294864 0.00711873 0.01161188 0.02224729 0.00249158 0.00210164 0.01466845 0.01490688 0.00208696 0.00558891 0.00100718 
0.07968813 0.09219156 0.01157927 0.00527444 0.00092273 0.00294460 0.00710150 0.01130175 0.02247880 0.00252478 0.00214669 0.01476397 0.01501233 0.00206820 0.00548257 0.00100047 
0.08012737 0.09190445 0.01182938 0.00528378 0.00091393 0.00293946 0.00709818 0.01099881 0.02272268 0.00255739 0.00219117 0.01488227 0.01511245 0.00204929 0.00537358 0.00099451 
0.08056249 0.09158579 0.01208743 0.00528902 0.00090480 0.00293318 0.00710829 0.01070334 0.02297723 0.00258928 0.00223482 0.01502269 0.01520652 0.00203033 0.00526254 0.00098932 
0.08099062 0.09123749 0.01235273 0.00529021 0.00089539 0.00292571 0.00713130 0.01041563 0.02324072 0.00262030 0.00227740 0.01518448 0.01529387 0.00201142 0.00515007 0.00098493 
0.08140868 0.09086154 0.01262452 0.00528746 0.00088578 0.00291703 0.00716665 0.01013589 0.02351144 0.00265030 0.00231865 0.01536681 0.01537388 0.00199268 0.00503679 0.00098135 
0.08181344 0.09045994 0.01290194 0.00528085 0.00087605 0.00290712 0.00721369 0.00986431 0.02378770 0.00267917 0.00235834 0.01556871 0.01544597 0.00197418 0.00492334 0.00097861 
0.08220151 0.09003475 0.01318409 0.00527050 0.00086626 0.00289594 0.00727177 0.00960103 0.02406781 0.00270676 0.00239625 0.01578916 0.01550964 0.00195603 0.00481033 0.00097671 
0.08256938 0.08958805 0.01346999 0.00525654 0.00085649 0.00288349 0.00734016 0.00934618 0.02435014 0.00273295 0.00243215 0.01602706 0.01556444 0.00193831 0.00469839 0.00097568 
0.08291341 0.08912194 0.01375861 0.00523911 0.00084681 0.00286975 0.00741811 0.00909983 0.02463314 0.00275761 0.00246584 0.01628124 0.01560999 0.00192110 0.00458814 0.00097550 
0.08322988 0.08863853 0.01404887 0.00521835 0.00083730 0.00285472 0.00750482 0.00886207 0.02491528 0.00278064 0.00249712 0.01655047 0.01564598 0.00190450 0.00448018 0.00097618 
0.08351502 0.08813993 0.01433965 0.00519444 0.00082804 0.00283840 0.00759946 0.00863293 0.02519514 0.00280191 0.00252582 0.01683349 0.01567217 0.00188856 0.00437509 0.00097773 
0.08376501 0.08762824 0.01462979 0.00516752 0.00081909 0.00282080 0.00770118 0.00841245 0.02547138 0.00282133 0.00255178 0.01712900 0.01568840 0.00187336 0.00427347 0.00098012 
0.08397605 0.08710554 0.01491809 0.00513779 0.00081054 0.00280194 0.00780909 0.00820063 0.02574276 0.00283879 0.00257483 0.01743568 0.01569457 0.00185898 0.00417585 0.00098336 
0.08414432 0.08657387 0.01520334 0.00510540 0.00080246 0.00278182 0.00792227 0.00799748 0.02600815 0.00285422 0.00259486 0.01775218 0.01569068 0.00184546 0.00408276 0.00098742 
0.08426610 0.08603527 0.01548431 0.00507056 0.00079492 0.00276048 0.00803981 0.00780300 0.02626653 0.00286753 0.00261175 0.01807718 0.01567680 0.00183287 0.00399473 0.00099229 
0.08433769 0.08549169 0.01575978 0.00503345 0.00078798 0.00273794 0.00816075 0.00761720 0.02651700 0.00287864 0.00262540 0.01840934 0.01565305 0.00182125 0.00391221 0.00099794 
0.08435556 0.08494506 0.01602850 0.00499426 0.00078171 0.00271424 0.00828415 0.00744007 0.02675878 0.00288751 0.00263574 0.01874734 0.01561968 0.00181065 0.00383566 0.00100434 
0.08431627 0.08439725 0.01628925 0.00495318 0.00077617 0.00268941 0.00840904 0.00727160 0.02699122 0.00289408 0.00264270 0.01908991 0.01557697 0.00180112 0.00376550 0.00101148 
0.08421657 0.08385005 0.01654082 0.00491041 0.00077143 0.00266350 0.00853446 0.00711182 0.02721382 0.00289830 0.00264626 0.01943579 0.01552529 0.00179269 0.00370209 0.00101931 
0.08405340 0.08330520 0.01678202 0.00486614 0.00076753 0.00263656 0.00865945 0.00696074 0.02742619 0.00290015 0.00264640 0.01978379 0.01546509 0.00178540 0.00364577 0.00102780 
0.08382394 0.08276434 0.01701170 0.00482055 0.00076453 0.00260865 0.00878306 0.00681838 0.02762808 0.00289961 0.00264312 0.02013273 0.01539689 0.00177927 0.00359686 0.00103691 
0.08352560 0.08222904 0.01722872 0.00477385 0.00076246 0.00257981 0.00890436 0.00668479 0.02781935 0.00289667 0.00263645 0.02048153 0.01532125 0.00177432 0.00355561 0.00104659 
0.08315609 0.08170077 0.01743203 0.00472621 0.00076138 0.00255012 0.00902242 0.00656003 0.02800003 0.00289133 0.00262643 0.02082915 0.01523882 0.00177059 0.00352224 0.00105681 
0.08271341 0.08118093 0.01762059 0.00467782 0.00076132 0.00251963 0.00913634 0.00644417 0.02817022 0.00288361 0.00261311 0.02117464 0.01515030 0.00176809 0.00349692 0.00106752 
0.08219591 0.08067078 0.01779343 0.00462886 0.00076230 0.00248842 0.00924525 0.00633730 0.02833018 0.00287354 0.00259660 0.02151710 0.01505643 0.00176682 0.00347980 0.00107866 
0.08160227 0.08017152 0.01794964 0.00457949 0.00076435 0.00245656 0.00934832 0.00623952 0.02848026 0.00286114 0.00257699 0.02185572 0.01495802 0.00176681 0.00347095 0.00109020 
0.08093157 0.07968422 0.01808839 0.00452989 0.00076749 0.00242413 0.00944473 0.00615096 0.02862093 0.00284647 0.00255439 0.02218977 0.01485591 0.00176806 0.00347044 0.00110207 
0.08018326 0.07920985 0.01820891 0.00448021 0.00077172 0.00239120 0.00953373 0.00607176 0.02875272 0.00282960 0.00252895 0.02251860 0.01475097 0.00177058 0.00347824 0.00111423 
0.07935722 0.07874925 0.01831051 0.00443061 0.00077707 0.00235787 0.00961461 0.00600208 0.02887628 0.00281058 0.00250083 0.02284164 0.01464410 0.00177437 0.00349433 0.00112663 
0.07845377 0.07830317 0.01839257 0.00438123 0.00078352 0.00232422 0.00968669 0.00594210 0.02899233 0.00278951 0.00247019 0.02315841 0.01453624 0.00177942 0.00351861 0.00113920 
0.07747363 0.07787223 0.01845458 0.00433221 0.00079107 0.00229034 0.00974937 0.00589198 0.02910165 0.00276648 0.00243723 0.02346850 0.01442833 0.00178575 0.00355096 0.00115191 
0.07641801 0.07745693 0.01849609 0.00428368 0.00079971 0.00225633 0.00980211 0.00585195 0.02920508 0.00274159 0.00240213 0.02377159 0.01432132 0.00179334 0.00359120 0.00116469 
0.07528857 0.07705765 0.01851675 0.00423576 0.00080943 0.00222227 0.00984441 0.00582220 0.02930348 0.00271496 0.00236512 0.02406743 0.01421616 0.00180220 0.00363912 0.00117750 
0.07408743 0.07667467 0.01851631 0.00418858 0.00082019 0.00218826 0.00987586 0.00580294 0.02939776 0.00268670 0.00232642 0.02435584 0.01411380 0.00181231 0.00369446 0.00119028 
0.07281718 0.07630813 0.01849460 0.00414222 0.00083196 0.00215442 0.00989610 0.00579441 0.02948886 0.00265696 0.00228626 0.02463672 0.01401518 0.00182366 0.00375694 0.00120298 
0.07148088 0.07595807 0.01845155 0.00409679 0.00084472 0.00212083 0.00990488 0.00579683 0.02957770 0.00262587 0.00224488 0.02491002 0.01392120 0.00183625 0.00382622 0.00121555 
0.07008205 0.07562439 0.01838719 0.00405238 0.00085842 0.00208761 0.00990198 0.00581041 0.02966521 0.00259358 0.00220254 0.02517576 0.01383277 0.00185006 0.00390193 0.00122795 
0.06862469 0.07530692 0.01830161 0.00400906 0.00087302 0.00205485 0.00988730 0.00583537 0.02975228 0.00256025 0.00215949 0.02543400 0.01375072 0.00186509 0.00398369 0.00124012 
0.06711323 0.07500533 0.01819505 0.00396691 0.00088846 0.00202268 0.00986080 0.00587193 0.02983981 0.00252605 0.00211598 0.02568486 0.01367587 0.00188131 0.00407107 0.00125204 
0.06555256 0.07471921 0.01806779 0.00392599 0.00090470 0.00199119 0.00982252 0.00592028 0.02992861 0.00249114 0.00207230 0.02592849 0.01360898 0.00189871 0.00416361 0.00126365 
0.06394796 0.07444805 0.01792022 0.00388636 0.00092167 0.00196051 0.00977262 0.00598062 0.03001946 0.00245569 0.00202869 0.02616506 0.01355076 0.00191726 0.00426083 0.00127492 
0.06230516 0.07419124 0.01775281 0.00384806 0.00093931 0.00193074 0.00971130 0.00605309 0.03011309 0.00241990 0.00198543 0.02639478 0.01350185 0.00193696 0.00436223 0.00128581 
0.06063025 0.07394807 0.01756614 0.00381113 0.00095755 0.00190199 0.00963888 0.00613784 0.03021013 0.00238393 0.00194277 0.02661786 0.01346283 0.00195778 0.00446728 0.00129628 
0.05892971 0.07371774 0.01736085 0.00377560 0.00097633 0.00187438 0.00955577 0.00623499 0.03031114 0.00234799 0.00190098 0.02683454 0.01343421 0.00197968 0.00457545 0.00130632 
0.05721032 0.07349937 0.01713764 0.00374150 0.00099557 0.00184802 0.00946243 0.00634463 0.03041658 0.00231224 0.00186031 0.02704503 0.01341643 0.00200265 0.00468617 0.00131588 
0.05547921 0.07329203 0.01689733 0.00370884 0.00101520 0.00182303 0.00935946 0.00646680 0.03052684 0.00227689 0.00182102 0.02724955 0.01340982 0.00202665 0.00479888 0.00132495 
0.05374378 0.07309468 0.01664078 0.00367763 0.00103514 0.00179952 0.00924751 0.00660152 0.03064216 0.00224212 0.00178333 0.02744831 0.01341467 0.00205165 0.00491300 0.00133351 
0.05201166 0.07290625 0.01636892 0.00364788 0.00105532 0.00177760 0.00912732 0.00674877 0.03076272 0.00220813 0.00174750 0.02764147 0.01343115 0.00207760 0.00502796 0.00134153 
0.05029071 0.07272562 0.01608275 0.00361958 0.00107566 0.00175739 0.00899973 0.00690847 0.03088856 0.00217509 0.00171374 0.02782918 0.01345936 0.00210448 0.00514316 0.00134900 
0.04858896 0.07255161 0.01578333 0.00359273 0.00109608 0.00173899 0.00886563 0.00708051 0.03101959 0.00214320 0.00168226 0.02801155 0.01349929 0.00213223 0.00525802 0.00135592 
0.04691457 0.07238300 0.01547175 0.00356731 0.00111649 0.00172251 0.00872601 0.00726472 0.03115564 0.00211263 0.00165327 0.02818865 0.01355086 0.00216081 0.00537196 0.00136226 
0.04527580 0.07221857 0.01514917 0.00354330 0.00113683 0.00170807 0.00858194 0.00746090 0.03129639 0.00208357 0.00162695 0.02836049 0.01361389 0.00219017 0.00548441 0.00136804 
0.04368097 0.07205706 0.01481678 0.00352068 0.00115702 0.00169576 0.00843453 0.00766877 0.03144141 0.00205618 0.00160349 0.02852703 0.01368810 0.00222023 0.00559480 0.00137324 
0.04213840 0.07189720 0.01447583 0.00349941 0.00117697 0.00168569 0.00828498 0.00788802 0.03159018 0.00203063 0.00158303 0.02868819 0.01377313 0.00225095 0.00570258 0.00137787 
0.04065637 0.07173773 0.01412755 0.00347946 0.00119661 0.00167794 0.00813453 0.00811827 0.03174202 0.00200708 0.00156573 0.02884380 0.01386853 0.00228225 0.00580721 0.00138193 
0.03924309 0.07157739 0.01377326 0.00346080 0.00121588 0.00167263 0.00798450 0.00835908 0.03189619 0.00198568 0.00155170 0.02899366 0.01397377 0.00231407 0.00590817 0.00138542 
0.03790663 0.07141494 0.01341424 0.00344337 0.00123470 0.00166982 0.00783624 0.00860998 0.03205182 0.00196658 0.00154107 0.02913747 0.01408822 0.00234632 0.00600495 0.00138837 
0.03665490 0.07124918 0.01305183 0.00342714 0.00125299 0.00166962 0.00769114 0.00887043 0.03220794 0.00194991 0.00153392 0.02927491 0.01421119 0.00237892 0.00609707 0.00139077 
0.03549560 0.07107890 0.01268736 0.00341205 0.00127070 0.00167208 0.00755064 0.00913982 0.03236352 0.00193579 0.00153033 0.02940555 0.01434190 0.00241178 0.00618409 0.00139264 
0.03443614 0.07090298 0.01232215 0.00339805 0.00128777 0.00167730 0.00741618 0.00941751 0.03251741 0.00192434 0.00153036 0.02952892 0.01447953 0.00244480 0.00626557 0.00139401 
0.03348363 0.07072033 0.01195756 0.00338508 0.00130413 0.00168533 0.00728926 0.00970279 0.03266842 0.00191567 0.00153405 0.02964449 0.01462315 0.00247790 0.00634112 0.00139488 
0.03264485 0.07052990 0.01159489 0.00337308 0.00131973 0.00169622 0.00717137 0.00999493 0.03281528 0.00190987 0.00154143 0.02975167 0.01477182 0.00251096 0.00641036 0.00139528 
0.03192614 0.07033073 0.01123548 0.00336199 0.00133452 0.00171004 0.00706401 0.01029313 0.03295670 0.00190701 0.00155249 0.02984980 0.01492452 0.00254387 0.00647295 0.00139522 
0.03133343 0.07012192 0.01088062 0.00335175 0.00134846 0.00172681 0.00696867 0.01059654 0.03309130 0.00190716 0.00156723 0.02993820 0.01508020 0.00257652 0.00652860 0.00139474 
0.03087217 0.06990262 0.01053159 0.00334229 0.00136149 0.00174659 0.00688684 0.01090428 0.03321772 0.00191039 0.00158561 0.03001613 0.01523777 0.00260880 0.00657702 0.00139386 
0.03054728 0.06967210 0.01018964 0.00333355 0.00137358 0.00176938 0.00681998 0.01121544 0.03333457 0.00191673 0.00160759 0.03008281 0.01539612 0.00264057 0.00661800 0.00139260 
0.03036312 0.06942969 0.00985600 0.00332544 0.00138470 0.00179520 0.00676954 0.01152907 0.03344044 0.00192621 0.00163310 0.03013743 0.01555410 0.00267172 0.00665133 0.00139099 
0.03032349 0.06917482 0.00953185 0.00331790 0.00139482 0.00182407 0.00673690 0.01184420 0.03353396 0.00193886 0.00166206 0.03017917 0.01571057 0.00270211 0.00667685 0.00138905 
0.03043154 0.06890699 0.00921835 0.00331086 0.00140391 0.00185596 0.00672344 0.01215981 0.03361378 0.00195466 0.00169438 0.03020718 0.01586438 0.00273162 0.00669444 0.00138681 
0.03068978 0.06862581 0.00891660 0.00330425 0.00141195 0.00189088 0.00673043 0.01247491 0.03367856 0.00197362 0.00172994 0.03022062 0.01601438 0.00276010 0.00670401 0.00138430 
0.03110005 0.06833100 0.00862767 0.00329798 0.00141892 0.00192878 0.00675913 0.01278845 0.03372704 0.00199571 0.00176862 0.03021866 0.01615945 0.00278744 0.00670553 0.00138155 
0.03166348 0.06802233 0.00835257 0.00329199 0.00142482 0.00196964 0.00681069 0.01309940 0.03375801 0.00202089 0.00181028 0.03020046 0.01629848 0.00281348 0.00669897 0.00137859 
0.03238051 0.06769972 0.00809226 0.00328620 0.00142963 0.00201339 0.00688620 0.01340672 0.03377035 0.00204911 0.00185477 0.03016523 0.01643039 0.00283810 0.00668439 0.00137543 
0.03325083 0.06736314 0.00784765 0.00328054 0.00143335 0.00205999 0.00698665 0.01370937 0.03376300 0.00208032 0.00190193 0.03011222 0.01655414 0.00286117 0.00666183 0.00137211 
0.03427339 0.06701269 0.00761959 0.00327492 0.00143598 0.00210935 0.00711295 0.01400634 0.03373502 0.00211443 0.00195158 0.03004069 0.01666874 0.00288255 0.00663140 0.00136865 
0.03544638 0.06664854 0.00740886 0.00326929 0.00143752 0.00216140 0.00726589 0.01429661 0.03368559 0.00215136 0.00200354 0.02995001 0.01677327 0.00290212 0.00659326 0.00136508 
0.03676726 0.06627095 0.00721619 0.00326355 0.00143800 0.00221603 0.00744615 0.01457921 0.03361398 0.00219100 0.00205763 0.02983957 0.01686684 0.00291975 0.00654756 0.00136142 
0.03823273 0.06588029 0.00704224 0.00325766 0.00143740 0.00227314 0.00765431 0.01485316 0.03351962 0.00223326 0.00211363 0.02970887 0.01694865 0.00293532 0.00649452 0.00135769 
0.03983873 0.06547699 0.00688761 0.00325152 0.00143576 0.00233262 0.00789080 0.01511755 0.03340206 0.00227801 0.00217135 0.02955749 0.01701797 0.00294872 0.00643439 0.00135392 
0.04158048 0.06506155 0.00675281 0.00324509 0.00143309 0.00239432 0.00815596 0.01537149 0.03326101 0.00232512 0.00223057 0.02938509 0.01707417 0.00295984 0.00636742 0.00135013 
0.04345245 0.06463459 0.00663831 0.00323828 0.00142941 0.00245811 0.00844994 0.01561414 0.03309633 0.00237445 0.00229109 0.02919146 0.01711666 0.00296859 0.00629394 0.00134633 
0.04544843 0.06419674 0.00654448 0.00323104 0.00142475 0.00252383 0.00877281 0.01584470 0.03290803 0.00242585 0.00235267 0.02897650 0.01714499 0.00297487 0.00621425 0.00134255 
0.04756151 0.06374875 0.00647164 0.00322332 0.00141913 0.00259134 0.00912446 0.01606244 0.03269630 0.00247917 0.00241511 0.02874022 0.01715878 0.00297860 0.00612872 0.00133880 
0.04978411 0.06329137 0.00642003 0.00321504 0.00141258 0.00266044 0.00950465 0.01626667 0.03246149 0.00253425 0.00247818 0.02848276 0.01715775 0.00297971 0.00603773 0.00133509 
0.05210805 0.06282544 0.00638981 0.00320616 0.00140514 0.00273098 0.00991298 0.01645678 0.03220411 0.00259091 0.00254167 0.02820442 0.01714171 0.00297814 0.00594168 0.00133144 
0.05452453 0.06235184 0.00638107 0.00319664 0.00139684 0.00280275 0.01034893 0.01663221 0.03192487 0.00264899 0.00260534 0.02790561 0.01711061 0.00297385 0.00584098 0.00132787 
0.05702419 0.06187147 0.00639383 0.00318642 0.00138772 0.00287557 0.01081178 0.01679246 0.03162463 0.00270830 0.00266899 0.02758689 0.01706446 0.00296678 0.00573608 0.00132438 
0.05959718 0.06138528 0.00642804 0.00317546 0.00137780 0.00294923 0.01130072 0.01693714 0.03130443 0.00276866 0.00273240 0.02724898 0.01700340 0.00295693 0.00562742 0.00132099 
0.06223315 0.06089421 0.00648355 0.00316374 0.00136714 0.00302353 0.01181475 0.01706590 0.03096546 0.00282988 0.00279537 0.02689273 0.01692765 0.00294428 0.00551548 0.00131769 
0.06492134 0.06039925 0.00656017 0.00315121 0.00135577 0.00309825 0.01235274 0.01717846 0.03060910 0.00289179 0.00285768 0.02651916 0.01683757 0.00292883 0.00540072 0.00131451 
0.06765062 0.05990138 0.00665762 0.00313787 0.00134374 0.00317318 0.01291341 0.01727464 0.03023689 0.00295419 0.00291913 0.02612940 0.01673357 0.00291061 0.00528363 0.00131143 
0.07040954 0.05940158 0.00677554 0.00312368 0.00133107 0.00324810 0.01349535 0.01735433 0.02985050 0.00301690 0.00297955 0.02572477 0.01661620 0.00288965 0.00516469 0.00130848 
0.07318639 0.05890083 0.00691352 0.00310864 0.00131783 0.00332279 0.01409700 0.01741748 0.02945176 0.00307973 0.00303873 0.02530671 0.01648609 0.00286600 0.00504441 0.00130565 
0.07596925 0.05840008 0.00707106 0.00309274 0.00130405 0.00339703 0.01471668 0.01746413 0.02904266 0.00314250 0.00309651 0.02487678 0.01634394 0.00283971 0.00492326 0.00130294 
0.07874607 0.05790028 0.00724761 0.00307599 0.00128977 0.00347059 0.01535260 0.01749439 0.02862528 0.00320503 0.00315272 0.02443670 0.01619056 0.00281086 0.00480175 0.00130036 
0.08150472 0.05740235 0.00744253 0.00305838 0.00127504 0.00354326 0.01600282 0.01750846 0.02820185 0.00326713 0.00320720 0.02398830 0.01602683 0.00277956 0.00468036 0.00129791 
0.08423305 0.05690714 0.00765513 0.00303993 0.00125990 0.00361483 0.01666531 0.01750658 0.02777469 0.00332865 0.00325980 0.02353352 0.01585370 0.00274589 0.00455958 0.00129558 
0.08691894 0.05641551 0.00788466 0.00302067 0.00124440 0.00368508 0.01733796 0.01748908 0.02734623 0.00338941 0.00331039 0.02307442 0.01567220 0.00270999 0.00443987 0.00129337 
0.08955042 0.05592824 0.00813030 0.00300062 0.00122858 0.00375379 0.01801853 0.01745635 0.02691898 0.00344925 0.00335883 0.02261314 0.01548339 0.00267199 0.00432169 0.00129129 
0.09211565 0.05544607 0.00839116 0.00297982 0.00121249 0.00382079 0.01870472 0.01740884 0.02649551 0.00350803 0.00340502 0.02215192 0.01528842 0.00263203 0.00420550 0.00128932 
0.09460308 0.05496967 0.00866633 0.00295830 0.00119617 0.00388585 0.01939417 0.01734706 0.02607845 0.00356559 0.00344884 0.02169306 0.01508846 0.00259028 0.00409174 0.00128748 
0.09700142 0.05449967 0.00895480 0.00293613 0.00117966 0.00394881 0.02008445 0.01727157 0.02567048 0.00362180 0.00349022 0.02123891 0.01488473 0.00254690 0.00398082 0.00128575 
0.09929976 0.05403661 0.00925555 0.00291334 0.00116301 0.00400949 0.02077308 0.01718299 0.02527428 0.00367653 0.00352906 0.02079187 0.01467846 0.00250207 0.00387314 0.00128413 
0.10148764 0.05358099 0.00956749 0.00289002 0.00114627 0.00406772 0.02145756 0.01708197 0.02489257 0.00372967 0.00356530 0.02035437 0.01447092 0.00245598 0.00376908 0.00128262 
0.10355504 0.05313321 0.00988948 0.00286622 0.00112946 0.00412335 0.02213535 0.01696921 0.02452803 0.00378112 0.00359888 0.01992885 0.01426337 0.00240884 0.00366900 0.00128122 
0.10549252 0.05269360 0.01022036 0.00284202 0.00111265 0.00417623 0.02280392 0.01684542 0.02418334 0.00383076 0.00362976 0.01951774 0.01405710 0.00236084 0.00357325 0.00127991 
0.10729121 0.05226244 0.01055892 0.00281750 0.00109586 0.00422624 0.02346072 0.01671137 0.02386113 0.00387852 0.00365790 0.01912346 0.01385337 0.00231221 0.00348212 0.00127870 
0.10894289 0.05183990 0.01090392 0.00279276 0.00107914 0.00427327 0.02410326 0.01656783 0.02356397 0.00392433 0.00368329 0.01874839 0.01365343 0.00226315 0.00339592 0.00127759 
0.11044004 0.05142608 0.01125407 0.00276787 0.00106254 0.00431721 0.02472904 0.01641559 0.02329437 0.00396812 0.00370592 0.01839485 0.01345851 0.00221389 0.00331489 0.00127657 
0.11177586 0.05102102 0.01160809 0.00274294 0.00104609 0.00435798 0.02533562 0.01625545 0.02305472 0.00400985 0.00372578 0.01806508 0.01326982 0.00216466 0.00323927 0.00127564 
0.11294433 0.05062467 0.01196466 0.00271808 0.00102983 0.00439552 0.02592063 0.01608821 0.02284733 0.00404947 0.00374289 0.01776126 0.01308850 0.00211567 0.00316928 0.00127480 
0.11394024 0.05023690 0.01232244 0.00269337 0.00101381 0.00442977 0.02648176 0.01591468 0.02267438 0.00408696 0.00375728 0.01748544 0.01291566 0.00206715 0.00310508 0.00127404 
0.11475923 0.04985753 0.01268007 0.00266895 0.00099806 0.00446070 0.02701678 0.01573566 0.02253792 0.00412231 0.00376897 0.01723957 0.01275237 0.00201932 0.00304682 0.00127337 
0.11539777 0.04948628 0.01303621 0.00264490 0.00098263 0.00448829 0.02752357 0.01555191 0.02243982 0.00415550 0.00377801 0.01702545 0.01259960 0.00197240 0.00299463 0.00127277 
0.11585326 0.04912283 0.01338948 0.00262136 0.00096754 0.00451255 0.02800011 0.01536422 0.02238183 0.00418656 0.00378445 0.01684473 0.01245829 0.00192661 0.00294858 0.00127226 
0.11612397 0.04876679 0.01373853 0.00259843 0.00095284 0.00453348 0.02844451 0.01517331 0.02236547 0.00421550 0.00378836 0.01669891 0.01232927 0.00188216 0.00290875 0.00127183 
0.11620909 0.04841772 0.01408200 0.00257623 0.00093858 0.00455112 0.02885499 0.01497989 0.02239211 0.00424235 0.00378979 0.01658930 0.01221332 0.00183923 0.00287516 0.00127148 
0.11610873 0.04807513 0.01441855 0.00255488 0.00092477 0.00456553 0.02922995 0.01478466 0.02246290 0.00426715 0.00378884 0.01651703 0.01211111 0.00179804 0.00284781 0.00127122 
0.11582390 0.04773847 0.01474685 0.00253448 0.00091146 0.00457677 0.02956789 0.01458825 0.02257877 0.00428995 0.00378558 0.01648304 0.01202323 0.00175875 0.00282668 0.00127103 
0.11535655 0.04740719 0.01506559 0.00251516 0.00089869 0.00458491 0.02986752 0.01439126 0.02274044 0.00431081 0.00378010 0.01648803 0.01195019 0.00172154 0.00281170 0.00127094 
0.11470950 0.04708068 0.01537349 0.00249703 0.00088649 0.00459007 0.03012769 0.01419426 0.02294840 0.00432980 0.00377249 0.01653252 0.01189237 0.00168658 0.00280280 0.00127092 
0.11388647 0.04675833 0.01566929 0.00248020 0.00087488 0.00459236 0.03034742 0.01399775 0.02320288 0.00434700 0.00376287 0.01661679 0.01185007 0.00165400 0.00279986 0.00127100 
0.11289204 0.04643953 0.01595178 0.00246476 0.00086392 0.00459189 0.03052593 0.01380222 0.02350391 0.00436249 0.00375133 0.01674088 0.01182349 0.00162395 0.00280275 0.00127117 
0.11173161 0.04612363 0.01621979 0.00245084 0.00085362 0.00458882 0.03066261 0.01360808 0.02385122 0.00437635 0.00373798 0.01690461 0.01181273 0.00159653 0.00281131 0.00127142 
0.11041139 0.04581004 0.01647217 0.00243851 0.00084402 0.00458329 0.03075705 0.01341569 0.02424434 0.00438869 0.00372294 0.01710758 0.01181776 0.00157187 0.00282535 0.00127178 
0.10893838 0.04549816 0.01670785 0.00242787 0.00083515 0.00457547 0.03080901 0.01322538 0.02468250 0.00439960 0.00370631 0.01734912 0.01183849 0.00155003 0.00284467 0.00127223 
0.10732027 0.04518743 0.01692579 0.00241901 0.00082704 0.00456553 0.03081847 0.01303741 0.02516473 0.00440918 0.00368822 0.01762836 0.01187467 0.00153109 0.00286903 0.00127279 
0.10556546 0.04487733 0.01712504 0.00241201 0.00081970 0.00455366 0.03078558 0.01285200 0.02568977 0.00441754 0.00366878 0.01794416 0.01192601 0.00151511 0.00289819 0.00127345 
0.10368295 0.04456739 0.01730467 0.00240694 0.00081318 0.00454003 0.03071069 0.01266932 0.02625612 0.00442479 0.00364810 0.01829520 0.01199208 0.00150213 0.00293187 0.00127422 
0.10168235 0.04425722 0.01746385 0.00240386 0.00080748 0.00452486 0.03059434 0.01248950 0.02686204 0.00443104 0.00362631 0.01867988 0.01207235 0.00149216 0.00296981 0.00127509 
0.09957377 0.04394649 0.01760182 0.00240282 0.00080265 0.00450833 0.03043727 0.01231260 0.02750557 0.00443639 0.00360351 0.01909644 0.01216624 0.00148520 0.00301169 0.00127608 
0.09736781 0.04363496 0.01771787 0.00240388 0.00079868 0.00449065 0.03024037 0.01213866 0.02818449 0.00444094 0.00357983 0.01954289 0.01227303 0.00148125 0.00305720 0.00127719 
0.09507544 0.04332248 0.01781140 0.00240707 0.00079561 0.00447203 0.03000475 0.01196768 0.02889637 0.00444481 0.00355538 0.02001703 0.01239194 0.00148027 0.00310601 0.00127841 
0.09270798 0.04300901 0.01788186 0.00241243 0.00079344 0.00445268 0.02973165 0.01179961 0.02963858 0.00444810 0.00353025 0.02051650 0.01252212 0.00148222 0.00315780 0.00127975 
0.09027705 0.04269462 0.01792881 0.00241996 0.00079220 0.00443279 0.02942250 0.01163438 0.03040827 0.00445090 0.00350457 0.02103877 0.01266262 0.00148703 0.00321221 0.00128121 
0.08779443 0.04237953 0.01795188 0.00242968 0.00079189 0.00441257 0.02907888 0.01147188 0.03120242 0.00445330 0.00347843 0.02158114 0.01281243 0.00149462 0.00326890 0.00128279 
0.08527208 0.04206406 0.01795080 0.00244158 0.00079253 0.00439221 0.02870251 0.01131200 0.03201783 0.00445539 0.00345194 0.02214078 0.01297049 0.00150491 0.00332750 0.00128449 
0.08272199 0.04174869 0.01792538 0.00245567 0.00079411 0.00437192 0.02829526 0.01115457 0.03285113 0.00445725 0.00342517 0.02271473 0.01313567 0.00151778 0.00338767 0.00128631 
0.08015619 0.04143403 0.01787555 0.00247191 0.00079665 0.00435186 0.02785911 0.01099944 0.03369882 0.00445895 0.00339823 0.02329994 0.01330681 0.00153311 0.00344902 0.00128825 
0.07758662 0.04112087 0.01780130 0.00249028 0.00080014 0.00433224 0.02739616 0.01084644 0.03455727 0.00446057 0.00337120 0.02389325 0.01348267 0.00155077 0.00351121 0.00129030 
0.07502510 0.04081012 0.01770273 0.00251073 0.00080458 0.00431320 0.02690863 0.01069540 0.03542276 0.00446216 0.00334416 0.02449147 0.01366203 0.00157062 0.00357387 0.00129247 
0.07248324 0.04050289 0.01758005 0.00253323 0.00080998 0.00429490 0.02639880 0.01054614 0.03629146 0.00446376 0.00331717 0.02509133 0.01384359 0.00159251 0.00363665 0.00129476 
0.06997239 0.04020042 0.01743354 0.00255771 0.00081631 0.00427751 0.02586905 0.01039849 0.03715947 0.00446541 0.00329031 0.02568956 0.01402608 0.00161627 0.00369920 0.00129715 
0.06750358 0.03990413 0.01726360 0.00258410 0.00082358 0.00426113 0.02532182 0.01025229 0.03802286 0.00446716 0.00326363 0.02628286 0.01420818 0.00164173 0.00376117 0.00129965 
0.06508745 0.03961561 0.01707071 0.00261234 0.00083177 0.00424591 0.02475959 0.01010740 0.03887767 0.00446901 0.00323720 0.02686798 0.01438860 0.00166872 0.00382223 0.00130224 
0.06273420 0.03933657 0.01685545 0.00264233 0.00084085 0.00423193 0.02418489 0.00996371 0.03971993 0.00447097 0.00321106 0.02744167 0.01456604 0.00169706 0.00388205 0.00130493 
0.06045354 0.03906893 0.01661849 0.00267399 0.00085082 0.00421930 0.02360028 0.00982112 0.04054568 0.00447306 0.00318524 0.02800079 0.01473920 0.00172657 0.00394031 0.00130771 
0.05825463 0.03881472 0.01636059 0.00270723 0.00086165 0.00420808 0.02300831 0.00967956 0.04135101 0.00447525 0.00315979 0.02854223 0.01490683 0.00175705 0.00399673 0.00131057 
0.05614603 0.03857613 0.01608262 0.00274194 0.00087332 0.00419834 0.02241154 0.00953901 0.04213207 0.00447753 0.00313474 0.02906302 0.01506770 0.00178832 0.00405101 0.00131350 
0.05413568 0.03835549 0.01578551 0.00277801 0.00088579 0.00419011 0.02181250 0.00939948 0.04288508 0.00447987 0.00311011 0.02956029 0.01522060 0.00182020 0.00410288 0.00131650 
0.05223083 0.03815524 0.01547027 0.00281533 0.00089904 0.00418342 0.02121371 0.00926100 0.04360638 0.00448224 0.00308592 0.03003133 0.01536440 0.00185249 0.00415209 0.00131956 
0.05043806 0.03797794 0.01513803 0.00285379 0.00091303 0.00417829 0.02061762 0.00912368 0.04429243 0.00448458 0.00306217 0.03047357 0.01549798 0.00188502 0.00419840 0.00132266 
0.04876317 0.03782626 0.01478994 0.00289327 0.00092773 0.00417470 0.02002666 0.00898766 0.04493983 0.00448685 0.00303888 0.03088464 0.01562031 0.00191761 0.00424160 0.00132580 
0.04721123 0.03770293 0.01442727 0.00293365 0.00094309 0.00417262 0.01944314 0.00885312 0.04554534 0.00448897 0.00301605 0.03126234 0.01573041 0.00195008 0.00428149 0.00132897 
0.04578652 0.03761077 0.01405132 0.00297481 0.00095908 0.00417203 0.01886935 0.00872031 0.04610593 0.00449089 0.00299367 0.03160471 0.01582738 0.00198227 0.00431790 0.00133216 
0.04449254 0.03755263 0.01366349 0.00301662 0.00097566 0.00417286 0.01830744 0.00858951 0.04661876 0.00449251 0.00297173 0.03191000 0.01591038 0.00201402 0.00435067 0.00133535 
0.04333197 0.03753142 0.01326519 0.00305896 0.00099277 0.00417505 0.01775949 0.00846108 0.04708120 0.00449378 0.00295022 0.03217668 0.01597868 0.00204517 0.00437967 0.00133854 
0.04230671 0.03755003 0.01285794 0.00310171 0.00101038 0.00417850 0.01722746 0.00833540 0.04749088 0.00449458 0.00292912 0.03240350 0.01603161 0.00207560 0.00440479 0.00134172 
0.04141783 0.03761135 0.01244325 0.00314474 0.00102842 0.00418313 0.01671318 0.00821291 0.04784568 0.00449484 0.00290841 0.03258945 0.01606859 0.00210517 0.00442595 0.00134488 
0.04066562 0.03771824 0.01202269 0.00318795 0.00104686 0.00418882 0.01621838 0.00809412 0.04814372 0.00449446 0.00288807 0.03273380 0.01608916 0.00213375 0.00444309 0.00134800 
0.04004957 0.03787349 0.01159789 0.00323121 0.00106564 0.00419545 0.01574462 0.00797956 0.04838345 0.00449335 0.00286807 0.03283606 0.01609293 0.00216124 0.00445616 0.00135107 
0.03956839 0.03807983 0.01117046 0.00327442 0.00108470 0.00420288 0.01529334 0.00786982 0.04856356 0.00449140 0.00284838 0.03289605 0.01607962 0.00218756 0.00446516 0.00135409 
0.03922006 0.03833987 0.01074206 0.00331747 0.00110400 0.00421098 0.01486585 0.00776553 0.04868308 0.00448853 0.00282896 0.03291386 0.01604905 0.00221260 0.00447008 0.00135703 
0.03900182 0.03865609 0.01031435 0.00336025 0.00112348 0.00421960 0.01446327 0.00766736 0.04874133 0.00448462 0.00280978 0.03288985 0.01600115 0.00223631 0.00447098 0.00135991 
0.03891020 0.03903081 0.00988901 0.00340268 0.00114308 0.00422858 0.01408660 0.00757600 0.04873794 0.00447960 0.00279082 0.03282468 0.01593593 0.00225862 0.00446790 0.00136269 
0.03894108 0.03946618 0.00946771 0.00344466 0.00116276 0.00423775 0.01373668 0.00749218 0.04867287 0.00447336 0.00277202 0.03271925 0.01585353 0.00227949 0.00446092 0.00136538 
0.03908970 0.03996413 0.00905210 0.00348611 0.00118246 0.00424697 0.01341416 0.00741667 0.04854641 0.00446582 0.00275336 0.03257475 0.01575418 0.00229889 0.00445014 0.00136796 
0.03935070 0.04052638 0.00864384 0.00352695 0.00120212 0.00425604 0.01311957 0.00735023 0.04835915 0.00445689 0.00273479 0.03239265 0.01563821 0.00231681 0.00443569 0.00137042 
0.03971818 0.04115439 0.00824455 0.00356712 0.00122169 0.00426482 0.01285326 0.00729364 0.04811201 0.00444649 0.00271628 0.03217464 0.01550605 0.00233324 0.00441771 0.00137277 
0.04018573 0.04184933 0.00785582 0.00360655 0.00124112 0.00427312 0.01261543 0.00724772 0.04780624 0.00443455 0.00269780 0.03192266 0.01535823 0.00234818 0.00439636 0.00137498 
0.04074650 0.04261209 0.00747921 0.00364519 0.00126035 0.00428079 0.01240612 0.00721324 0.04744338 0.00442101 0.00267931 0.03163891 0.01519536 0.00236165 0.00437184 0.00137706 
0.04139320 0.04344324 0.00711624 0.00368299 0.00127935 0.00428765 0.01222521 0.00719100 0.04702529 0.00440581 0.00266077 0.03132577 0.01501815 0.00237369 0.00434433 0.00137900 
0.04211821 0.04434301 0.00676836 0.00371992 0.00129806 0.00429354 0.01207245 0.00718177 0.04655412 0.00438890 0.00264215 0.03098584 0.01482740 0.00238434 0.00431406 0.00138078 
0.04291360 0.04531127 0.00643698 0.00375595 0.00131643 0.00429833 0.01194742 0.00718630 0.04603232 0.00437023 0.00262342 0.03062189 0.01462399 0.00239364 0.00428126 0.00138242 
0.04377120 0.04634755 0.00612345 0.00379106 0.00133442 0.00430184 0.01184958 0.00720533 0.04546259 0.00434979 0.00260456 0.03023687 0.01440887 0.00240166 0.00424618 0.00138389 
0.04468262 0.04745096 0.00582904 0.00382523 0.00135198 0.00430396 0.01177824 0.00723954 0.04484792 0.00432754 0.00258554 0.02983388 0.01418306 0.00240847 0.00420907 0.00138521 
0.04563936 0.04862025 0.00555495 0.00385846 0.00136909 0.00430454 0.01173260 0.00728958 0.04419151 0.00430347 0.00256633 0.02941611 0.01394764 0.00241413 0.00417021 0.00138637 
0.04663280 0.04985376 0.00530230 0.00389075 0.00138569 0.00430346 0.01171173 0.00735606 0.04349680 0.00427760 0.00254692 0.02898688 0.01370375 0.00241875 0.00412987 0.00138736 
0.04765433 0.05114941 0.00507211 0.00392211 0.00140175 0.00430063 0.01171457 0.00743952 0.04276746 0.00424993 0.00252728 0.02854960 0.01345260 0.00242239 0.00408835 0.00138819 
0.04869532 0.05250474 0.00486532 0.00395256 0.00141725 0.00429593 0.01173998 0.00754045 0.04200731 0.00422047 0.00250741 0.02810772 0.01319541 0.00242515 0.00404593 0.00138886 
0.04974724 0.05391686 0.00468279 0.00398211 0.00143215 0.00428929 0.01178672 0.00765926 0.04122035 0.00418927 0.00248729 0.02766471 0.01293346 0.00242714 0.00400292 0.00138936 
0.05080168 0.05538247 0.00452526 0.00401080 0.00144642 0.00428063 0.01185345 0.00779630 0.04041075 0.00415637 0.00246691 0.02722407 0.01266805 0.00242843 0.00395961 0.00138970 
0.05185039 0.05689789 0.00439336 0.00403866 0.00146004 0.00426990 0.01193876 0.00795182 0.03958275 0.00412183 0.00244628 0.02678929 0.01240051 0.00242913 0.00391630 0.00138988 
0.05288536 0.05845903 0.00428764 0.00406573 0.00147299 0.00425705 0.01204119 0.00812602 0.03874073 0.00408570 0.00242539 0.02636381 0.01213217 0.00242934 0.00387328 0.00138990 
0.05389881 0.06006142 0.00420852 0.00409206 0.00148524 0.00424206 0.01215919 0.00831896 0.03788913 0.00404807 0.00240424 0.02595099 0.01186436 0.00242915 0.00383086 0.00138977 
0.05488330 0.06170023 0.00415632 0.00411769 0.00149679 0.00422491 0.01229118 0.00853065 0.03703241 0.00400902 0.00238285 0.02555413 0.01159844 0.00242865 0.00378932 0.00138950 
0.05583172 0.06337028 0.00413124 0.00414266 0.00150761 0.00420560 0.01243555 0.00876100 0.03617509 0.00396865 0.00236122 0.02517640 0.01133572 0.00242793 0.00374894 0.00138907 
0.05673733 0.06506605 0.00413338 0.00416705 0.00151770 0.00418415 0.01259064 0.00900978 0.03532165 0.00392705 0.00233937 0.02482085 0.01107752 0.00242707 0.00371000 0.00138852 
0.05759382 0.06678172 0.00416270 0.00419089 0.00152705 0.00416058 0.01275481 0.00927671 0.03447656 0.00388435 0.00231732 0.02449038 0.01082512 0.00242616 0.00367275 0.00138782 
0.05839530 0.06851120 0.00421907 0.00421426 0.00153565 0.00413494 0.01292637 0.00956137 0.03364423 0.00384065 0.00229508 0.02418769 0.01057976 0.00242526 0.00363745 0.00138701 
0.05913637 0.07024811 0.00430224 0.00423720 0.00154350 0.00410730 0.01310367 0.00986326 0.03282896 0.00379608 0.00227268 0.02391531 0.01034266 0.00242443 0.00360433 0.00138607 
0.05981210 0.07198591 0.00441184 0.00425977 0.00155060 0.00407771 0.01328507 0.01018175 0.03203498 0.00375078 0.00225015 0.02367554 0.01011498 0.00242374 0.00357360 0.00138502 
0.06041808 0.07371780 0.00454739 0.00428204 0.00155694 0.00404627 0.01346892 0.01051613 0.03126635 0.00370489 0.00222752 0.02347046 0.00989783 0.00242322 0.00354548 0.00138387 
0.06095042 0.07543689 0.00470830 0.00430405 0.00156253 0.00401308 0.01365365 0.01086558 0.03052700 0.00365853 0.00220482 0.02330190 0.00969224 0.00242292 0.00352014 0.00138262 
0.06140575 0.07713614 0.00489389 0.00432587 0.00156738 0.00397824 0.01383770 0.01122918 0.02982067 0.00361185 0.00218210 0.02317143 0.00949920 0.00242286 0.00349776 0.00138128 
0.06178125 0.07880843 0.00510335 0.00434754 0.00157149 0.00394188 0.01401957 0.01160591 0.02915087 0.00356501 0.00215938 0.02308036 0.00931962 0.00242306 0.00347846 0.00137986 
0.06207466 0.08044661 0.00533579 0.00436911 0.00157487 0.00390412 0.01419783 0.01199465 0.02852094 0.00351813 0.00213671 0.02302970 0.00915431 0.00242353 0.00346238 0.00137837 
0.06228423 0.08204354 0.00559020 0.00439063 0.00157753 0.00386511 0.01437111 0.01239421 0.02793392 0.00347139 0.00211414 0.02302019 0.00900403 0.00242426 0.00344960 0.00137681 
0.06240877 0.08359213 0.00586551 0.00441213 0.00157948 0.00382499 0.01453812 0.01280330 0.02739262 0.00342491 0.00209170 0.02305226 0.00886944 0.00242524 0.00344021 0.00137520 
0.06244762 0.08508536 0.00616054 0.00443367 0.00158073 0.00378392 0.01469762 0.01322056 0.02689957 0.00337884 0.00206945 0.02312606 0.00875109 0.00242644 0.00343425 0.00137353 
0.06240064 0.08651636 0.00647403 0.00445526 0.00158130 0.00374207 0.01484851 0.01364455 0.02645700 0.00333332 0.00204743 0.02324142 0.00864948 0.00242783 0.00343176 0.00137183 
0.06226820 0.08787843 0.00680466 0.00447693 0.00158119 0.00369959 0.01498974 0.01407377 0.02606683 0.00328851 0.00202570 0.02339789 0.00856497 0.00242936 0.00343272 0.00137009 
0.06205117 0.08916508 0.00715103 0.00449872 0.00158042 0.00365667 0.01512038 0.01450666 0.02573066 0.00324451 0.00200431 0.02359469 0.00849785 0.00243097 0.00343712 0.00136833 
0.06175087 0.09037009 0.00751167 0.00452062 0.00157901 0.00361349 0.01523960 0.01494160 0.02544977 0.00320148 0.00198330 0.02383077 0.00844830 0.00243261 0.00344490 0.00136655 
0.06136909 0.09148755 0.00788506 0.00454265 0.00157697 0.00357021 0.01534665 0.01537695 0.02522511 0.00315952 0.00196273 0.02410480 0.00841640 0.00243420 0.00345600 0.00136475 
0.06090805 0.09251189 0.00826963 0.00456482 0.00157431 0.00352701 0.01544093 0.01581100 0.02505726 0.00311877 0.00194265 0.02441516 0.00840213 0.00243565 0.00347030 0.00136295 
0.06037034 0.09343791 0.00866377 0.00458711 0.00157105 0.00348409 0.01552191 0.01624207 0.02494650 0.00307931 0.00192312 0.02475995 0.00840538 0.00243688 0.00348770 0.00136115 
0.05975897 0.09426084 0.00906583 0.00460953 0.00156721 0.00344162 0.01558920 0.01666840 0.02489271 0.00304127 0.00190419 0.02513704 0.00842591 0.00243780 0.00350804 0.00135936 
0.05907723 0.09497635 0.00947414 0.00463205 0.00156280 0.00339976 0.01564251 0.01708827 0.02489548 0.00300472 0.00188591 0.02554404 0.00846343 0.00243831 0.00353115 0.00135757 
0.05832877 0.09558061 0.00988701 0.00465465 0.00155783 0.00335871 0.01568165 0.01749995 0.02495402 0.00296976 0.00186833 0.02597833 0.00851750 0.00243830 0.00355685 0.00135581 
0.05751750 0.09607030 0.01030273 0.00467730 0.00155233 0.00331863 0.01570657 0.01790171 0.02506721 0.00293645 0.00185150 0.02643711 0.00858764 0.00243768 0.00358493 0.00135406 
0.05664757 0.09644265 0.01071958 0.00469997 0.00154630 0.00327969 0.01571728 0.01829185 0.02523361 0.00290486 0.00183548 0.02691737 0.00867325 0.00243633 0.00361515 0.00135233 
0.05572333 0.09669544 0.01113586 0.00472262 0.00153976 0.00324204 0.01571395 0.01866872 0.02545144 0.00287505 0.00182030 0.02741592 0.00877363 0.00243414 0.00364728 0.00135064 
0.05474933 0.09682704 0.01154988 0.00474520 0.00153272 0.00320584 0.01569682 0.01903067 0.02571863 0.00284706 0.00180603 0.02792946 0.00888803 0.00243102 0.00368104 0.00134897 
0.05373025 0.09683643 0.01195995 0.00476766 0.00152520 0.00317125 0.01566623 0.01937614 0.02603279 0.00282092 0.00179270 0.02845453 0.00901561 0.00242686 0.00371617 0.00134733 
0.05267086 0.09672320 0.01236443 0.00478995 0.00151721 0.00313839 0.01562263 0.01970360 0.02639127 0.00279665 0.00178036 0.02898760 0.00915545 0.00242155 0.00375236 0.00134573 
0.05157603 0.09648758 0.01276169 0.00481199 0.00150876 0.00310741 0.01556654 0.02001159 0.02679113 0.00277426 0.00176905 0.02952505 0.00930656 0.00241501 0.00378933 0.00134416 
0.05045064 0.09613039 0.01315016 0.00483374 0.00149988 0.00307842 0.01549860 0.02029874 0.02722919 0.00275377 0.00175880 0.03006319 0.00946791 0.00240713 0.00382676 0.00134263 
0.04929961 0.09565313 0.01352831 0.00485512 0.00149056 0.00305155 0.01541947 0.02056375 0.02770204 0.00273515 0.00174966 0.03059835 0.00963839 0.00239785 0.00386434 0.00134114 
0.04812781 0.09505789 0.01389466 0.00487606 0.00148083 0.00302688 0.01532995 0.02080541 0.02820607 0.00271839 0.00174166 0.03112682 0.00981685 0.00238708 0.00390175 0.00133968 
0.04694006 0.09434740 0.01424779 0.00489648 0.00147070 0.00300453 0.01523085 0.02102261 0.02873747 0.00270346 0.00173483 0.03164494 0.01000210 0.00237476 0.00393865 0.00133825 
0.04574111 0.09352499 0.01458635 0.00491632 0.00146018 0.00298456 0.01512306 0.02121433 0.02929226 0.00269033 0.00172920 0.03214909 0.01019292 0.00236083 0.00397474 0.00133686 
0.04453559 0.09259459 0.01490906 0.00493549 0.00144929 0.00296705 0.01500753 0.02137967 0.02986634 0.00267895 0.00172479 0.03263573 0.01038804 0.00234527 0.00400968 0.00133550 
0.04332801 0.09156071 0.01521473 0.00495391 0.00143804 0.00295207 0.01488524 0.02151783 0.03045548 0.00266925 0.00172162 0.03310143 0.01058619 0.00232802 0.00404315 0.00133417 
0.04212270 0.09042840 0.01550222 0.00497151 0.00142644 0.00293966 0.01475720 0.02162813 0.03105538 0.00266119 0.00171972 0.03354286 0.01078608 0.00230909 0.00407485 0.00133287 
0.04092383 0.08920323 0.01577050 0.00498821 0.00141452 0.00292987 0.01462446 0.02171001 0.03166164 0.00265469 0.00171910 0.03395687 0.01098640 0.00228847 0.00410445 0.00133160 
0.03973537 0.08789129 0.01601863 0.00500393 0.00140229 0.00292271 0.01448809 0.02176304 0.03226987 0.00264968 0.00171976 0.03434046 0.01118586 0.00226616 0.00413167 0.00133035 
0.03856107 0.08649911 0.01624575 0.00501860 0.00138977 0.00291822 0.01434917 0.02178688 0.03287565 0.00264607 0.00172172 0.03469082 0.01138316 0.00224221 0.00415622 0.00132912 
0.03740448 0.08503364 0.01645111 0.00503214 0.00137696 0.00291638 0.01420876 0.02178135 0.03347456 0.00264378 0.00172499 0.03500537 0.01157704 0.00221664 0.00417782 0.00132791 
0.03626887 0.08350222 0.01663405 0.00504448 0.00136391 0.00291720 0.01406794 0.02174638 0.03406226 0.00264272 0.00172955 0.03528173 0.01176624 0.00218954 0.00419621 0.00132672 
0.03515730 0.08191254 0.01679401 0.00505555 0.00135062 0.00292066 0.01392778 0.02168202 0.03463446 0.00264278 0.00173541 0.03551779 0.01194953 0.00216096 0.00421115 0.00132554 
0.03407254 0.08027257 0.01693053 0.00506527 0.00133711 0.00292673 0.01378931 0.02158844 0.03518697 0.00264389 0.00174256 0.03571168 0.01212573 0.00213100 0.00422242 0.00132437 
0.03301713 0.07859054 0.01704326 0.00507360 0.00132342 0.00293538 0.01365354 0.02146595 0.03571572 0.00264593 0.00175099 0.03586181 0.01229370 0.00209978 0.00422981 0.00132320 
0.03199333 0.07687487 0.01713195 0.00508047 0.00130956 0.00294655 0.01352146 0.02131496 0.03621680 0.00264880 0.00176069 0.03596688 0.01245234 0.00206741 0.00423313 0.00132205 
0.03100314 0.07513413 0.01719646 0.00508583 0.00129556 0.00296019 0.01339401 0.02113601 0.03668646 0.00265241 0.00177163 0.03602587 0.01260061 0.00203404 0.00423222 0.00132089 
0.03004830 0.07337699 0.01723675 0.00508962 0.00128145 0.00297623 0.01327206 0.02092972 0.03712115 0.00265666 0.00178379 0.03603806 0.01273755 0.00199982 0.00422694 0.00131973 
0.02913030 0.07161216 0.01725286 0.00509180 0.00126725 0.00299460 0.01315646 0.02069687 0.03751752 0.00266145 0.00179715 0.03600304 0.01286225 0.00196492 0.00421717 0.00131857 
0.02825036 0.06984837 0.01724498 0.00509232 0.00125300 0.00301521 0.01304800 0.02043830 0.03787248 0.00266668 0.00181167 0.03592069 0.01297387 0.00192951 0.00420282 0.00131740 
0.02740946 0.06809426 0.01721334 0.00509116 0.00123873 0.00303796 0.01294737 0.02015497 0.03818318 0.00267225 0.00182732 0.03579121 0.01307165 0.00189380 0.00418382 0.00131623 
0.02660837 0.06635836 0.01715833 0.00508828 0.00122447 0.00306277 0.01285525 0.01984793 0.03844703 0.00267808 0.00184407 0.03561511 0.01315492 0.00185798 0.00416013 0.00131505 
0.02584760 0.06464906 0.01708037 0.00508365 0.00121025 0.00308951 0.01277219 0.01951830 0.03866174 0.00268407 0.00186188 0.03539318 0.01322309 0.00182228 0.00413173 0.00131386 
0.02512746 0.06297452 0.01698003 0.00507725 0.00119611 0.00311807 0.01269871 0.01916731 0.03882532 0.00269016 0.00188070 0.03512652 0.01327567 0.00178691 0.00409862 0.00131266 
0.02444807 0.06134265 0.01685794 0.00506907 0.00118209 0.00314835 0.01263523 0.01879623 0.03893608 0.00269625 0.00190048 0.03481651 0.01331224 0.00175211 0.00406085 0.00131145 
0.02380936 0.05976104 0.01671481 0.00505910 0.00116822 0.00318020 0.01258211 0.01840644 0.03899267 0.00270228 0.00192118 0.03446480 0.01333250 0.00171810 0.00401847 0.00131023 
0.02321109 0.05823695 0.01655144 0.00504733 0.00115454 0.00321349 0.01253961 0.01799934 0.03899404 0.00270818 0.00194274 0.03407332 0.01333622 0.00168514 0.00397156 0.00130900 
0.02265285 0.05677723 0.01636872 0.00503375 0.00114108 0.00324810 0.01250793 0.01757641 0.03893950 0.00271389 0.00196511 0.03364425 0.01332330 0.00165345 0.00392023 0.00130776 
0.02213412 0.05538831 0.01616760 0.00501838 0.00112790 0.00328388 0.01248718 0.01713917 0.03882869 0.00271935 0.00198824 0.03317998 0.01329370 0.00162329 0.00386462 0.00130652 
0.02165425 0.05407613 0.01594910 0.00500121 0.00111502 0.00332069 0.01247739 0.01668917 0.03866158 0.00272453 0.00201206 0.03268316 0.01324752 0.00159489 0.00380488 0.00130528 
0.02121247 0.05284617 0.01571429 0.00498227 0.00110249 0.00335838 0.01247851 0.01622800 0.03843850 0.00272937 0.00203652 0.03215660 0.01318492 0.00156850 0.00374119 0.00130403 
0.02080795 0.05170333 0.01546434 0.00496157 0.00109034 0.00339680 0.01249043 0.01575728 0.03816008 0.00273386 0.00206155 0.03160333 0.01310618 0.00154434 0.00367375 0.00130278 
0.02043977 0.05065199 0.01520042 0.00493911 0.00107862 0.00343580 0.01251295 0.01527865 0.03782733 0.00273795 0.00208709 0.03102652 0.01301169 0.00152264 0.00360277 0.00130154 
0.02010696 0.04969595 0.01492381 0.00491494 0.00106736 0.00347524 0.01254579 0.01479374 0.03744155 0.00274164 0.00211308 0.03042949 0.01290189 0.00150361 0.00352850 0.00130031 
0.01980852 0.04883839 0.01463577 0.00488907 0.00105660 0.00351495 0.01258864 0.01430422 0.03700436 0.00274491 0.00213946 0.02981565 0.01277736 0.00148748 0.00345119 0.00129909 
0.01954342 0.04808191 0.01433765 0.00486154 0.00104637 0.00355480 0.01264108 0.01381173 0.03651772 0.00274776 0.00216615 0.02918856 0.01263873 0.00147442 0.00337110 0.00129789 
0.01931062 0.04742848 0.01403082 0.00483237 0.00103671 0.00359461 0.01270265 0.01331792 0.03598383 0.00275018 0.00219309 0.02855179 0.01248674 0.00146463 0.00328854 0.00129672 
0.01910911 0.04687945 0.01371665 0.00480159 0.00102766 0.00363425 0.01277285 0.01282442 0.03540522 0.00275219 0.00222022 0.02790901 0.01232221 0.00145827 0.00320380 0.00129557 
0.01893786 0.04643552 0.01339657 0.00476925 0.00101924 0.00367357 0.01285111 0.01233283 0.03478467 0.00275380 0.00224748 0.02726389 0.01214601 0.00145549 0.00311718 0.00129445 
0.01879590 0.04609681 0.01307201 0.00473537 0.00101149 0.00371241 0.01293682 0.01184475 0.03412519 0.00275503 0.00227479 0.02662009 0.01195911 0.00145642 0.00302901 0.00129338 
0.01868229 0.04586279 0.01274442 0.00470000 0.00100443 0.00375063 0.01302933 0.01136173 0.03343004 0.00275591 0.00230210 0.02598128 0.01176254 0.00146117 0.00293963 0.00129235 
0.01859614 0.04573234 0.01241524 0.00466317 0.00099808 0.00378808 0.01312795 0.01088530 0.03270269 0.00275646 0.00232934 0.02535106 0.01155738 0.00146984 0.00284935 0.00129137 
0.01853662 0.04570374 0.01208593 0.00462493 0.00099248 0.00382464 0.01323197 0.01041694 0.03194679 0.00275672 0.00235646 0.02473298 0.01134476 0.00148249 0.00275854 0.00129045 
0.01850297 0.04577471 0.01175793 0.00458532 0.00098763 0.00386016 0.01334066 0.00995809 0.03116616 0.00275672 0.00238339 0.02413048 0.01112589 0.00149917 0.00266753 0.00128959 
0.01849448 0.04594240 0.01143270 0.00454438 0.00098356 0.00389451 0.01345326 0.00951015 0.03036477 0.00275652 0.00241008 0.02354690 0.01090197 0.00151990 0.00257666 0.00128880 
0.01851053 0.04620345 0.01111164 0.00450214 0.00098028 0.00392757 0.01356901 0.00907446 0.02954671 0.00275615 0.00243647 0.02298547 0.01067428 0.00154469 0.00248629 0.00128809 
0.01855057 0.04655399 0.01079619 0.00445866 0.00097779 0.00395922 0.01368713 0.00865231 0.02871615 0.00275565 0.00246251 0.02244924 0.01044410 0.00157350 0.00239676 0.00128747 
0.01861414 0.04698969 0.01048771 0.00441397 0.00097611 0.00398933 0.01380686 0.00824493 0.02787737 0.00275509 0.00248814 0.02194112 0.01021273 0.00160628 0.00230840 0.00128693 
0.01870083 0.04750578 0.01018756 0.00436812 0.00097524 0.00401780 0.01392744 0.00785350 0.02703465 0.00275449 0.00251332 0.02146382 0.00998148 0.00164297 0.00222156 0.00128648 
0.01881032 0.04809709 0.00989708 0.00432115 0.00097517 0.00404453 0.01404810 0.00747912 0.02619232 0.00275393 0.00253800 0.02101985 0.00975167 0.00168345 0.00213656 0.00128613 
0.01894236 0.04875808 0.00961755 0.00427310 0.00097590 0.00406941 0.01416812 0.00712285 0.02535471 0.00275343 0.00256214 0.02061155 0.00952461 0.00172760 0.00205372 0.00128589 
0.01909676 0.04948290 0.00935021 0.00422402 0.00097743 0.00409236 0.01428678 0.00678567 0.02452610 0.00275306 0.00258569 0.02024098 0.00930161 0.00177527 0.00197335 0.00128575 
0.01927342 0.05026541 0.00909626 0.00417394 0.00097975 0.00411329 0.01440339 0.00646848 0.02371073 0.00275285 0.00260861 0.01991001 0.00908393 0.00182630 0.00189576 0.00128573 
0.01947225 0.05109921 0.00885687 0.00412292 0.00098282 0.00413213 0.01451729 0.00617213 0.02291277 0.00275285 0.00263087 0.01962027 0.00887282 0.00188047 0.00182122 0.00128582 
0.01969324 0.05197772 0.00863312 0.00407099 0.00098665 0.00414881 0.01462786 0.00589739 0.02213626 0.00275311 0.00265243 0.01937311 0.00866950 0.00193757 0.00175002 0.00128602 
0.01993642 0.05289419 0.00842606 0.00401821 0.00099121 0.00416327 0.01473451 0.00564495 0.02138516 0.00275366 0.00267326 0.01916967 0.00847513 0.00199737 0.00168240 0.00128635 
0.02020184 0.05384176 0.00823668 0.00396461 0.00099646 0.00417545 0.01483669 0.00541545 0.02066323 0.00275454 0.00269333 0.01901081 0.00829084 0.00205960 0.00161862 0.00128679 
0.02048958 0.05481348 0.00806588 0.00391024 0.00100239 0.00418531 0.01493389 0.00520943 0.01997409 0.00275578 0.00271262 0.01889713 0.00811768 0.00212398 0.00155890 0.00128736 
0.02079972 0.05580238 0.00791453 0.00385515 0.00100895 0.00419282 0.01502567 0.00502736 0.01932119 0.00275740 0.00273109 0.01882899 0.00795666 0.00219022 0.00150345 0.00128804 
0.02113236 0.05680148 0.00778340 0.00379939 0.00101612 0.00419795 0.01511161 0.00486965 0.01870772 0.00275943 0.00274872 0.01880650 0.00780869 0.00225801 0.00145245 0.00128885 
0.02148758 0.05780385 0.00767321 0.00374301 0.00102385 0.00420067 0.01519136 0.00473661 0.01813668 0.00276189 0.00276550 0.01882950 0.00767463 0.00232702 0.00140608 0.00128977 
0.02186545 0.05880267 0.00758458 0.00368605 0.00103211 0.00420097 0.01526459 0.00462849 0.01761083 0.00276479 0.00278140 0.01889759 0.00755524 0.00239692 0.00136448 0.00129081 
0.02226601 0.05979120 0.00751809 0.00362858 0.00104085 0.00419886 0.01533105 0.00454546 0.01713264 0.00276813 0.00279640 0.01901013 0.00745121 0.00246737 0.00132778 0.00129196 
0.02268925 0.06076288 0.00747420 0.00357064 0.00105003 0.00419434 0.01539053 0.00448761 0.01670435 0.00277191 0.00281049 0.01916625 0.00736313 0.00253800 0.00129608 0.00129322 
0.02313513 0.06171133 0.00745332 0.00351230 0.00105960 0.00418742 0.01544287 0.00445494 0.01632787 0.00277613 0.00282365 0.01936487 0.00729150 0.00260847 0.00126948 0.00129458 
0.02360353 0.06263039 0.00745575 0.00345362 0.00106950 0.00417813 0.01548796 0.00444739 0.01600486 0.00278078 0.00283587 0.01960466 0.00723671 0.00267842 0.00124804 0.00129604 
0.02409429 0.06351415 0.00748173 0.00339466 0.00107970 0.00416649 0.01552574 0.00446482 0.01573665 0.00278584 0.00284713 0.01988413 0.00719907 0.00274747 0.00123180 0.00129759 
0.02460714 0.06435697 0.00753140 0.00333549 0.00109014 0.00415255 0.01555620 0.00450701 0.01552427 0.00279129 0.00285741 0.02020157 0.00717877 0.00281528 0.00122077 0.00129923 
0.02514175 0.06515351 0.00760482 0.00327617 0.00110076 0.00413635 0.01557936 0.00457365 0.01536842 0.00279709 0.00286672 0.02055511 0.00717590 0.00288148 0.00121497 0.00130093 
0.02569770 0.06589876 0.00770195 0.00321678 0.00111153 0.00411795 0.01559530 0.00466436 0.01526949 0.00280322 0.00287502 0.02094269 0.00719045 0.00294571 0.00121435 0.00130271 
0.02627447 0.06658803 0.00782269 0.00315741 0.00112237 0.00409740 0.01560414 0.00477871 0.01522758 0.00280963 0.00288232 0.02136214 0.00722230 0.00300765 0.00121888 0.00130454 
0.02687142 0.06721700 0.00796682 0.00309812 0.00113324 0.00407478 0.01560601 0.00491615 0.01524241 0.00281627 0.00288861 0.02181114 0.00727124 0.00306695 0.00122848 0.00130643 
0.02748784 0.06778170 0.00813405 0.00303900 0.00114410 0.00405016 0.01560112 0.00507608 0.01531344 0.00282310 0.00289385 0.02228722 0.00733692 0.00312328 0.00124308 0.00130835 
0.02812289 0.06827856 0.00832401 0.00298015 0.00115488 0.00402362 0.01558968 0.00525782 0.01543979 0.00283006 0.00289806 0.02278786 0.00741894 0.00317635 0.00126257 0.00131029 
0.02877561 0.06870440 0.00853621 0.00292165 0.00116554 0.00399525 0.01557193 0.00546062 0.01562025 0.00283709 0.00290121 0.02331041 0.00751675 0.00322586 0.00128681 0.00131226 
0.02944495 0.06905640 0.00877011 0.00286359 0.00117603 0.00396514 0.01554815 0.00568366 0.01585336 0.00284412 0.00290329 0.02385218 0.00762975 0.00327154 0.00131567 0.00131423 
0.03012975 0.06933219 0.00902507 0.00280609 0.00118630 0.00393340 0.01551861 0.00592604 0.01613732 0.00285109 0.00290428 0.02441039 0.00775720 0.00331313 0.00134897 0.00131619 
0.03082872 0.06952976 0.00930038 0.00274924 0.00119631 0.00390011 0.01548365 0.00618680 0.01647008 0.00285793 0.00290419 0.02498224 0.00789832 0.00335039 0.00138654 0.00131813 
0.03154050 0.06964751 0.00959522 0.00269314 0.00120601 0.00386540 0.01544356 0.00646490 0.01684931 0.00286456 0.00290298 0.02556491 0.00805220 0.00338312 0.00142818 0.00132005 
0.03226359 0.06968425 0.00990873 0.00263792 0.00121536 0.00382937 0.01539869 0.00675926 0.01727240 0.00287090 0.00290066 0.02615556 0.00821790 0.00341113 0.00147369 0.00132192 
0.03299642 0.06963917 0.01023996 0.00258367 0.00122433 0.00379214 0.01534938 0.00706872 0.01773655 0.00287689 0.00289720 0.02675135 0.00839436 0.00343426 0.00152282 0.00132375 
0.03373734 0.06951185 0.01058786 0.00253053 0.00123288 0.00375382 0.01529596 0.00739207 0.01823868 0.00288243 0.00289259 0.02734947 0.00858048 0.00345236 0.00157536 0.00132551 
0.03448458 0.06930224 0.01095136 0.00247860 0.00124097 0.00371454 0.01523877 0.00772802 0.01877553 0.00288746 0.00288682 0.02794713 0.00877511 0.00346534 0.00163104 0.00132719 
0.03523634 0.06901067 0.01132929 0.00242800 0.00124857 0.00367440 0.01517815 0.00807527 0.01934366 0.00289189 0.00287987 0.02854160 0.00897702 0.00347310 0.00168962 0.00132879 
0.03599072 0.06863782 0.01172042 0.00237887 0.00125567 0.00363355 0.01511442 0.00843243 0.01993942 0.00289564 0.00287174 0.02913020 0.00918497 0.00347559 0.00175081 0.00133029 
0.03674581 0.06818472 0.01212350 0.00233131 0.00126223 0.00359210 0.01504791 0.00879808 0.02055906 0.00289865 0.00286241 0.02971030 0.00939764 0.00347278 0.00181435 0.00133169 
0.03749961 0.06765273 0.01253717 0.00228547 0.00126823 0.00355017 0.01497891 0.00917078 0.02119866 0.00290082 0.00285187 0.03027938 0.00961371 0.00346469 0.00187996 0.00133298 
0.03825013 0.06704354 0.01296007 0.00224145 0.00127367 0.00350789 0.01490771 0.00954902 0.02185420 0.00290210 0.00284011 0.03083500 0.00983185 0.00345132 0.00194735 0.00133414 
0.03899533 0.06635912 0.01339078 0.00219939 0.00127851 0.00346538 0.01483459 0.00993127 0.02252159 0.00290242 0.00282712 0.03137480 0.01005069 0.00343276 0.00201623 0.00133518 
0.03973320 0.06560175 0.01382783 0.00215941 0.00128277 0.00342277 0.01475979 0.01031599 0.02319667 0.00290170 0.00281289 0.03189656 0.01026886 0.00340907 0.00208631 0.00133608 
0.04046171 0.06477397 0.01426975 0.00212163 0.00128642 0.00338017 0.01468354 0.01070160 0.02387522 0.00289988 0.00279743 0.03239813 0.01048502 0.00338036 0.00215731 0.00133684 
0.04117886 0.06387858 0.01471501 0.00208618 0.00128946 0.00333770 0.01460605 0.01108651 0.02455304 0.00289692 0.00278072 0.03287752 0.01069781 0.00334679 0.00222893 0.00133745 
0.04188270 0.06291863 0.01516209 0.00205316 0.00129191 0.00329547 0.01452750 0.01146913 0.02522590 0.00289276 0.00276277 0.03333285 0.01090592 0.00330851 0.00230089 0.00133792 
0.04257132 0.06189739 0.01560943 0.00202270 0.00129375 0.00325361 0.01444804 0.01184784 0.02588961 0.00288735 0.00274358 0.03376238 0.01110804 0.00326571 0.00237291 0.00133824 
0.04324286 0.06081832 0.01605550 0.00199490 0.00129500 0.00321221 0.01436781 0.01222107 0.02654005 0.00288065 0.00272316 0.03416449 0.01130293 0.00321860 0.00244471 0.00133841 
0.04389557 0.05968509 0.01649872 0.00196986 0.00129567 0.00317139 0.01428690 0.01258721 0.02717315 0.00287263 0.00270152 0.03453771 0.01148937 0.00316740 0.00251602 0.00133843 
0.04452775 0.05850154 0.01693755 0.00194770 0.00129576 0.00313125 0.01420541 0.01294470 0.02778494 0.00286326 0.00267867 0.03488071 0.01166621 0.00311239 0.00258659 0.00133829 
0.04513783 0.05727166 0.01737046 0.00192849 0.00129530 0.00309188 0.01412338 0.01329200 0.02837159 0.00285254 0.00265463 0.03519231 0.01183235 0.00305381 0.00265616 0.00133801 
0.04572436 0.05599960 0.01779593 0.00191233 0.00129430 0.00305338 0.01404084 0.01362759 0.02892939 0.00284043 0.00262942 0.03547146 0.01198676 0.00299197 0.00272450 0.00133759 
0.04628599 0.05468962 0.01821246 0.00189929 0.00129279 0.00301584 0.01395781 0.01394999 0.02945480 0.00282694 0.00260307 0.03571727 0.01212848 0.00292716 0.00279136 0.00133704 
0.04682152 0.05334610 0.01861860 0.00188944 0.00129078 0.00297934 0.01387427 0.01425778 0.02994444 0.00281208 0.00257561 0.03592899 0.01225665 0.00285971 0.00285655 0.00133635 
0.04732991 0.05197352 0.01901291 0.00188285 0.00128831 0.00294397 0.01379019 0.01454956 0.03039516 0.00279585 0.00254708 0.03610602 0.01237045 0.00278994 0.00291986 0.00133553 
0.04781026 0.05057643 0.01939402 0.00187957 0.00128539 0.00290979 0.01370551 0.01482403 0.03080400 0.00277828 0.00251753 0.03624788 0.01246920 0.00271818 0.00298110 0.00133461 
0.04826184 0.04915946 0.01976059 0.00187963 0.00128206 0.00287688 0.01362017 0.01507993 0.03116826 0.00275939 0.00248698 0.03635427 0.01255229 0.00264479 0.00304010 0.00133358 
0.04868407 0.04772728 0.02011134 0.00188307 0.00127835 0.00284529 0.01353408 0.01531607 0.03148548 0.00273922 0.00245551 0.03642500 0.01261920 0.00257011 0.00309670 0.00133245 
0.04907658 0.04628461 0.02044507 0.00188991 0.00127429 0.00281510 0.01344716 0.01553137 0.03175344 0.00271781 0.00242318 0.03646004 0.01266952 0.00249450 0.00315077 0.00133125 
0.04943915 0.04483621 0.02076061 0.00190015 0.00126990 0.00278634 0.01335929 0.01572479 0.03197024 0.00269522 0.00239003 0.03645948 0.01270294 0.00241831 0.00320218 0.00132997 
0.04977176 0.04338682 0.02105688 0.00191379 0.00126523 0.00275908 0.01327038 0.01589541 0.03213423 0.00267150 0.00235615 0.03642353 0.01271927 0.00234191 0.00325083 0.00132864 
0.05007455 0.04194122 0.02133288 0.00193081 0.00126030 0.00273335 0.01318031 0.01604241 0.03224410 0.00264672 0.00232161 0.03635257 0.01271840 0.00226564 0.00329663 0.00132727 
0.05034788 0.04050413 0.02158767 0.00195119 0.00125515 0.00270919 0.01308897 0.01616506 0.03229882 0.00262095 0.00228649 0.03624705 0.01270035 0.00218985 0.00333952 0.00132588 
0.05059225 0.03908030 0.02182042 0.00197487 0.00124981 0.00268664 0.01299625 0.01626274 0.03229769 0.00259428 0.00225087 0.03610759 0.01266522 0.00211489 0.00337943 0.00132447 
0.05080838 0.03767440 0.02203034 0.00200181 0.00124432 0.00266572 0.01290205 0.01633495 0.03224034 0.00256679 0.00221485 0.03593489 0.01261323 0.00204109 0.00341634 0.00132308 
0.05099712 0.03629106 0.02221678 0.00203194 0.00123870 0.00264645 0.01280626 0.01638128 0.03212671 0.00253857 0.00217852 0.03572978 0.01254471 0.00196878 0.00345023 0.00132171 
0.05115952 0.03493487 0.02237915 0.00206517 0.00123299 0.00262885 0.01270880 0.01640147 0.03195710 0.00250972 0.00214199 0.03549320 0.01246009 0.00189827 0.00348109 0.00132037 
0.05129679 0.03361033 0.02251696 0.00210141 0.00122722 0.00261295 0.01260960 0.01639535 0.03173212 0.00248035 0.00210534 0.03522616 0.01235987 0.00182986 0.00350895 0.00131910 
0.05141029 0.03232183 0.02262980 0.00214055 0.00122142 0.00259874 0.01250860 0.01636291 0.03145272 0.00245055 0.00206871 0.03492981 0.01224468 0.00176384 0.00353383 0.00131790 
0.05150151 0.03107371 0.02271739 0.00218247 0.00121561 0.00258623 0.01240575 0.01630422 0.03112020 0.00242045 0.00203218 0.03460537 0.01211522 0.00170048 0.00355579 0.00131679 
0.05157209 0.02987016 0.02277950 0.00222704 0.00120984 0.00257542 0.01230105 0.01621950 0.03073617 0.00239015 0.00199589 0.03425415 0.01197227 0.00164003 0.00357488 0.00131579 
0.05162378 0.02871525 0.02281603 0.00227412 0.00120411 0.00256631 0.01219449 0.01610910 0.03030257 0.00235978 0.00195994 0.03387754 0.01181672 0.00158273 0.00359118 0.00131491 
0.05165846 0.02761292 0.02282696 0.00232354 0.00119846 0.00255889 0.01208610 0.01597348 0.02982167 0.00232945 0.00192445 0.03347700 0.01164951 0.00152880 0.00360478 0.00131416 
0.05167808 0.02656698 0.02281236 0.00237513 0.00119290 0.00255315 0.01197594 0.01581322 0.02929603 0.00229927 0.00188954 0.03305408 0.01147165 0.00147842 0.00361578 0.00131357 
0.05168468 0.02558104 0.02277241 0.00242873 0.00118747 0.00254907 0.01186409 0.01562903 0.02872854 0.00226938 0.00185534 0.03261037 0.01128422 0.00143179 0.00362428 0.00131314 
0.05168036 0.02465855 0.02270736 0.00248415 0.00118217 0.00254664 0.01175064 0.01542173 0.02812235 0.00223989 0.00182195 0.03214754 0.01108834 0.00138903 0.00363041 0.00131289 
0.05166728 0.02380279 0.02261757 0.00254118 0.00117703 0.00254583 0.01163575 0.01519225 0.02748091 0.00221091 0.00178950 0.03166730 0.01088520 0.00135030 0.00363429 0.00131282 
0.05164761 0.02301681 0.02250346 0.00259963 0.00117206 0.00254662 0.01151958 0.01494165 0.02680794 0.00218258 0.00175811 0.03117143 0.01067601 0.00131570 0.00363607 0.00131296 
0.05162356 0.02230347 0.02236555 0.00265927 0.00116728 0.00254897 0.01140234 0.01467107 0.02610738 0.00215499 0.00172790 0.03066173 0.01046203 0.00128530 0.00363588 0.00131329 
0.05159731 0.02166538 0.02220444 0.00271990 0.00116269 0.00255286 0.01128424 0.01438176 0.02538343 0.00212826 0.00169897 0.03014004 0.01024454 0.00125918 0.00363386 0.00131384 
0.05157106 0.02110493 0.02202081 0.00278129 0.00115830 0.00255825 0.01116554 0.01407504 0.02464049 0.00210251 0.00167143 0.02960824 0.01002482 0.00123737 0.00363017 0.00131460 
0.05154693 0.02062426 0.02181538 0.00284321 0.00115413 0.00256511 0.01104655 0.01375236 0.02388316 0.00207783 0.00164540 0.02906824 0.00980418 0.00121989 0.00362496 0.00131558 
0.05152702 0.02022524 0.02158899 0.00290542 0.00115018 0.00257338 0.01092757 0.01341520 0.02311622 0.00205432 0.00162097 0.02852195 0.00958392 0.00120672 0.00361838 0.00131678 
0.05151333 0.01990946 0.02134249 0.00296770 0.00114646 0.00258303 0.01080894 0.01306515 0.02234459 0.00203208 0.00159825 0.02797131 0.00936534 0.00119785 0.00361059 0.00131819 
0.05150779 0.01967825 0.02107684 0.00302981 0.00114296 0.00259400 0.01069105 0.01270382 0.02157334 0.00201120 0.00157731 0.02741825 0.00914971 0.00119321 0.00360172 0.00131982 
0.05151223 0.01953262 0.02079300 0.00309152 0.00113968 0.00260625 0.01057428 0.01233290 0.02080762 0.00199175 0.00155825 0.02686474 0.00893831 0.00119274 0.00359194 0.00132166 
0.05152836 0.01947330 0.02049203 0.00315258 0.00113664 0.00261973 0.01045906 0.01195413 0.02005268 0.00197381 0.00154115 0.02631270 0.00873234 0.00119634 0.00358138 0.00132370 
0.05155775 0.01950068 0.02017499 0.00321276 0.00113382 0.00263437 0.01034582 0.01156925 0.01931384 0.00195745 0.00152607 0.02576406 0.00853301 0.00120390 0.00357019 0.00132592 
0.05160183 0.01961485 0.01984302 0.00327185 0.00113123 0.00265011 0.01023502 0.01118005 0.01859643 0.00194273 0.00151308 0.02522074 0.00834146 0.00121529 0.00355849 0.00132833 
0.05166187 0.01981557 0.01949727 0.00332960 0.00112885 0.00266690 0.01012714 0.01078833 0.01790578 0.00192969 0.00150223 0.02468463 0.00815878 0.00123035 0.00354641 0.00133090 
0.05173898 0.02010228 0.01913891 0.00338581 0.00112669 0.00268466 0.01002265 0.01039589 0.01724723 0.00191839 0.00149357 0.02415760 0.00798600 0.00124891 0.00353407 0.00133361 
0.05183410 0.02047407 0.01876916 0.00344026 0.00112474 0.00270333 0.00992207 0.01000453 0.01662603 0.00190885 0.00148713 0.02364146 0.00782410 0.00127080 0.00352159 0.00133646 
0.05194795 0.02092969 0.01838924 0.00349274 0.00112299 0.00272284 0.00982589 0.00961601 0.01604740 0.00190110 0.00148295 0.02313802 0.00767397 0.00129581 0.00350905 0.00133941 
0.05208109 0.02146755 0.01800039 0.00354305 0.00112144 0.00274311 0.00973463 0.00923209 0.01551642 0.00189516 0.00148104 0.02264902 0.00753646 0.00132373 0.00349655 0.00134244 
0.05223387 0.02208575 0.01760386 0.00359102 0.00112007 0.00276407 0.00964878 0.00885449 0.01503806 0.00189104 0.00148142 0.02217615 0.00741229 0.00135435 0.00348417 0.00134554 
0.05240643 0.02278201 0.01720089 0.00363645 0.00111889 0.00278563 0.00956887 0.00848487 0.01461711 0.00188873 0.00148407 0.02172104 0.00730215 0.00138741 0.00347198 0.00134866 
0.05259873 0.02355375 0.01679273 0.00367920 0.00111787 0.00280771 0.00949538 0.00812484 0.01425820 0.00188823 0.00148900 0.02128528 0.00720660 0.00142269 0.00346005 0.00135180 
0.05281051 0.02439803 0.01638064 0.00371909 0.00111702 0.00283022 0.00942882 0.00777594 0.01396574 0.00188953 0.00149618 0.02087037 0.00712613 0.00145993 0.00344840 0.00135490 
0.05304128 0.02531161 0.01596585 0.00375600 0.00111633 0.00285309 0.00936966 0.00743966 0.01374390 0.00189258 0.00150559 0.02047773 0.00706115 0.00149887 0.00343708 0.00135795 
0.05329041 0.02629094 0.01554957 0.00378980 0.00111578 0.00287621 0.00931836 0.00711739 0.01359659 0.00189737 0.00151719 0.02010874 0.00701194 0.00153924 0.00342612 0.00136091 
0.05355701 0.02733214 0.01513302 0.00382037 0.00111538 0.00289950 0.00927537 0.00681041 0.01352743 0.00190386 0.00153092 0.01976465 0.00697873 0.00158079 0.00341553 0.00136375 
0.05384003 0.02843106 0.01471737 0.00384763 0.00111510 0.00292286 0.00924112 0.00651995 0.01353974 0.00191199 0.00154674 0.01944666 0.00696160 0.00162324 0.00340531 0.00136643 
0.05413824 0.02958327 0.01430379 0.00387148 0.00111496 0.00294619 0.00921598 0.00624710 0.01363651 0.00192171 0.00156458 0.01915585 0.00696059 0.00166632 0.00339545 0.00136891 
0.05445022 0.03078406 0.01389340 0.00389187 0.00111492 0.00296941 0.00920034 0.00599284 0.01382035 0.00193296 0.00158437 0.01889323 0.00697561 0.00170977 0.00338593 0.00137117 
0.05477440 0.03202850 0.01348730 0.00390874 0.00111500 0.00299240 0.00919452 0.00575807 0.01409354 0.00194567 0.00160603 0.01865969 0.00700648 0.00175332 0.00337672 0.00137317 
0.05510903 0.03331141 0.01308655 0.00392207 0.00111519 0.00301507 0.00919882 0.00554354 0.01445794 0.00195978 0.00162947 0.01845603 0.00705292 0.00179672 0.00336779 0.00137487 
0.05545225 0.03462741 0.01269218 0.00393184 0.00111547 0.00303732 0.00921350 0.00534988 0.01491502 0.00197520 0.00165460 0.01828292 0.00711458 0.00183969 0.00335909 0.00137623 
0.05580205 0.03597096 0.01230518 0.00393806 0.00111585 0.00305905 0.00923878 0.00517761 0.01546582 0.00199186 0.00168132 0.01814094 0.00719101 0.00188199 0.00335057 0.00137723 
0.05615633 0.03733633 0.01192650 0.00394073 0.00111632 0.00308016 0.00927483 0.00502710 0.01611096 0.00200968 0.00170953 0.01803055 0.00728166 0.00192338 0.00334217 0.00137783 
0.05651286 0.03871766 0.01155703 0.00393992 0.00111687 0.00310055 0.00932178 0.00489862 0.01685060 0.00202857 0.00173910 0.01795210 0.00738592 0.00196363 0.00333382 0.00137799 
0.05686936 0.04010900 0.01119762 0.00393566 0.00111750 0.00312013 0.00937972 0.00479229 0.01768446 0.00204844 0.00176994 0.01790580 0.00750310 0.00200251 0.00332545 0.00137769 
0.05722347 0.04150428 0.01084910 0.00392802 0.00111821 0.00313878 0.00944868 0.00470810 0.01861179 0.00206921 0.00180192 0.01789178 0.00763241 0.00203981 0.00331699 0.00137690 
0.05757279 0.04289741 0.01051222 0.00391711 0.00111900 0.00315643 0.00952865 0.00464592 0.01963141 0.00209078 0.00183492 0.01791001 0.00777303 0.00207532 0.00330836 0.00137559 
0.05791490 0.04428227 0.01018769 0.00390301 0.00111985 0.00317297 0.00961954 0.00460549 0.02074163 0.00211307 0.00186882 0.01796036 0.00792404 0.00210887 0.00329949 0.00137374 
0.05824734 0.04565272 0.00987616 0.00388585 0.00112078 0.00318833 0.00972124 0.00458644 0.02194033 0.00213599 0.00190350 0.01804257 0.00808448 0.00214026 0.00329029 0.00137131 
0.05856769 0.04700267 0.00957826 0.00386577 0.00112177 0.00320240 0.00983358 0.00458825 0.02322491 0.00215945 0.00193883 0.01815626 0.00825335 0.00216936 0.00328068 0.00136831 
0.05887355 0.04832610 0.00929452 0.00384292 0.00112282 0.00321512 0.00995632 0.00461031 0.02459232 0.00218338 0.00197469 0.01830093 0.00842957 0.00219600 0.00327059 0.00136470 
0.05916254 0.04961706 0.00902545 0.00381745 0.00112393 0.00322640 0.01008918 0.00465190 0.02603908 0.00220768 0.00201095 0.01847596 0.00861206 0.00222006 0.00325995 0.00136048 
0.05943236 0.05086976 0.00877150 0.00378955 0.00112510 0.00323617 0.01023182 0.00471218 0.02756124 0.00223229 0.00204749 0.01868061 0.00879967 0.00224144 0.00324868 0.00135563 
0.05968079 0.05207852 0.00853307 0.00375941 0.00112633 0.00324437 0.01038384 0.00479022 0.02915446 0.00225712 0.00208419 0.01891402 0.00899125 0.00226002 0.00323673 0.00135015 
0.05990569 0.05323787 0.00831048 0.00372722 0.00112761 0.00325094 0.01054480 0.00488500 0.03081397 0.00228211 0.00212094 0.01917523 0.00918561 0.00227574 0.00322402 0.00134404 
0.06010502 0.05434255 0.00810403 0.00369320 0.00112894 0.00325581 0.01071420 0.00499542 0.03253461 0.00230719 0.00215761 0.01946314 0.00938156 0.00228853 0.00321052 0.00133730 
0.06027689 0.05538751 0.00791394 0.00365757 0.00113031 0.00325896 0.01089149 0.00512028 0.03431085 0.00233230 0.00219411 0.01977658 0.00957789 0.00229835 0.00319617 0.00132994 
0.06041951 0.05636801 0.00774039 0.00362056 0.00113173 0.00326033 0.01107608 0.00525835 0.03613682 0.00235740 0.00223031 0.02011424 0.00977342 0.00230517 0.00318094 0.00132196 
0.06053127 0.05727956 0.00758350 0.00358240 0.00113318 0.00325990 0.01126732 0.00540831 0.03800631 0.00238242 0.00226613 0.02047473 0.00996693 0.00230897 0.00316481 0.00131339 
0.06061069 0.05811800 0.00744335 0.00354333 0.00113466 0.00325764 0.01146451 0.00556881 0.03991284 0.00240732 0.00230145 0.02085658 0.01015726 0.00230977 0.00314776 0.00130423 
0.06065646 0.05887951 0.00731994 0.00350360 0.00113617 0.00325354 0.01166694 0.00573844 0.04184963 0.00243208 0.00233621 0.02125820 0.01034324 0.00230759 0.00312978 0.00129451 
0.06066745 0.05956062 0.00721324 0.00346346 0.00113770 0.00324760 0.01187382 0.00591579 0.04380968 0.00245665 0.00237030 0.02167793 0.01052373 0.00230246 0.00311087 0.00128427 
0.06064271 0.06015822 0.00712315 0.00342316 0.00113924 0.00323983 0.01208434 0.00609939 0.04578579 0.00248102 0.00240366 0.02211405 0.01069764 0.00229445 0.00309107 0.00127353 
0.06058148 0.06066963 0.00704955 0.00338296 0.00114079 0.00323023 0.01229768 0.00628780 0.04777057 0.00250517 0.00243620 0.02256475 0.01086391 0.00228363 0.00307039 0.00126233 
0.06048317 0.06109254 0.00699223 0.00334310 0.00114233 0.00321883 0.01251295 0.00647955 0.04975651 0.00252908 0.00246787 0.02302817 0.01102150 0.00227007 0.00304887 0.00125071 
0.06034739 0.06142506 0.00695096 0.00330384 0.00114387 0.00320567 0.01272927 0.00667319 0.05173601 0.00255274 0.00249860 0.02350238 0.01116946 0.00225389 0.00302658 0.00123872 
0.06017395 0.06166576 0.00692545 0.00326542 0.00114538 0.00319078 0.01294571 0.00686729 0.05370139 0.00257617 0.00252835 0.02398541 0.01130687 0.00223518 0.00300357 0.00122640 
0.05996283 0.06181361 0.00691536 0.00322808 0.00114685 0.00317423 0.01316134 0.00706043 0.05564495 0.00259935 0.00255707 0.02447528 0.01143287 0.00221409 0.00297991 0.00121380 
0.05971421 0.06186803 0.00692033 0.00319207 0.00114829 0.00315608 0.01337522 0.00725126 0.05755903 0.00262231 0.00258472 0.02496993 0.01154668 0.00219075 0.00295571 0.00120099 
0.05942846 0.06182890 0.00693991 0.00315760 0.00114967 0.00313640 0.01358638 0.00743845 0.05943602 0.00264506 0.00261128 0.02546732 0.01164758 0.00216531 0.00293106 0.00118803 
0.05910612 0.06169651 0.00697364 0.00312489 0.00115098 0.00311527 0.01379388 0.00762073 0.06126840 0.00266760 0.00263671 0.02596537 0.01173490 0.00213793 0.00290606 0.00117497 
0.05874788 0.06147164 0.00702101 0.00309417 0.00115221 0.00309279 0.01399676 0.00779690 0.06304879 0.00268998 0.00266100 0.02646202 0.01180808 0.00210878 0.00288085 0.00116188 
0.05835463 0.06115545 0.00708148 0.00306562 0.00115335 0.00306905 0.01419407 0.00796582 0.06477001 0.00271221 0.00268413 0.02695520 0.01186662 0.00207803 0.00285553 0.00114883 
0.05792740 0.06074956 0.00715446 0.00303943 0.00115439 0.00304417 0.01438486 0.00812644 0.06642509 0.00273431 0.00270611 0.02744286 0.01191010 0.00204587 0.00283026 0.00113588 
0.05746735 0.06025601 0.00723932 0.00301578 0.00115531 0.00301826 0.01456822 0.00827777 0.06800731 0.00275633 0.00272693 0.02792297 0.01193818 0.00201249 0.00280518 0.00112312 
0.05697580 0.05967724 0.00733541 0.00299482 0.00115609 0.00299145 0.01474326 0.00841895 0.06951025 0.00277829 0.00274660 0.02839356 0.01195062 0.00197808 0.00278044 0.00111061 
0.05645418 0.05901608 0.00744203 0.00297670 0.00115674 0.00296387 0.01490909 0.00854916 0.07092785 0.00280022 0.00276511 0.02885267 0.01194725 0.00194285 0.00275620 0.00109842 
0.05590403 0.05827574 0.00755848 0.00296154 0.00115723 0.00293566 0.01506488 0.00866774 0.07225439 0.00282216 0.00278250 0.02929841 0.01192798 0.00190700 0.00273262 0.00108663 
0.05532699 0.05745979 0.00768401 0.00294946 0.00115755 0.00290696 0.01520982 0.00877408 0.07348456 0.00284414 0.00279878 0.02972894 0.01189283 0.00187072 0.00270985 0.00107532 
0.05472479 0.05657213 0.00781784 0.00294055 0.00115768 0.00287792 0.01534316 0.00886772 0.07461350 0.00286619 0.00281396 0.03014252 0.01184187 0.00183423 0.00268808 0.00106455 
0.05409923 0.05561698 0.00795920 0.00293488 0.00115763 0.00284870 0.01546418 0.00894826 0.07563680 0.00288833 0.00282807 0.03053745 0.01177530 0.00179773 0.00266746 0.00105440 
0.05345216 0.05459886 0.00810725 0.00293252 0.00115738 0.00281945 0.01557221 0.00901546 0.07655055 0.00291060 0.00284115 0.03091215 0.01169335 0.00176143 0.00264816 0.00104493 
0.05278549 0.05352255 0.00826119 0.00293350 0.00115691 0.00279033 0.01566664 0.00906916 0.07735135 0.00293302 0.00285321 0.03126512 0.01159638 0.00172551 0.00263035 0.00103623 
0.05210115 0.05239307 0.00842018 0.00293784 0.00115622 0.00276150 0.01574693 0.00910932 0.07803636 0.00295561 0.00286430 0.03159496 0.01148480 0.00169019 0.00261419 0.00102834 
0.05140110 0.05121566 0.00858335 0.00294554 0.00115531 0.00273313 0.01581259 0.00913600 0.07860327 0.00297838 0.00287443 0.03190040 0.01135911 0.00165564 0.00259983 0.00102133 
