0.10351918 0.01953336 0.00314420 0.00198941 0.00115530 0.00154664 0.00564988 0.00258115 0.01596319 0.00146916 0.00198019 0.00069445 0.00451226 0.00077034 0.00280946 0.00136309 
0.10135873 0.02072877 0.00314877 0.00201393 0.00115993 0.00155841 0.00547533 0.00253836 0.01573796 0.00149004 0.00202927 0.00073363 0.00460105 0.00077003 0.00278641 0.00135344 
0.09920382 0.02198439 0.00316229 0.00203860 0.00116396 0.00157018 0.00530428 0.00249735 0.01553290 0.00151260 0.00208117 0.00077705 0.00468790 0.00076987 0.00276073 0.00134316 
0.09706449 0.02329814 0.00318473 0.00206336 0.00116737 0.00158192 0.00513757 0.00245817 0.01534988 0.00153673 0.00213569 0.00082479 0.00477244 0.00076984 0.00273254 0.00133227 
0.09495049 0.02466761 0.00321606 0.00208817 0.00117013 0.00159362 0.00497599 0.00242089 0.01519067 0.00156235 0.00219264 0.00087689 0.00485429 0.00076995 0.00270197 0.00132082 
0.09287124 0.02609006 0.00325617 0.00211298 0.00117224 0.00160528 0.00482033 0.00238558 0.01505696 0.00158933 0.00225181 0.00093341 0.00493311 0.00077019 0.00266915 0.00130884 
0.09083574 0.02756243 0.00330494 0.00213772 0.00117369 0.00161687 0.00467135 0.00235228 0.01495030 0.00161757 0.00231302 0.00099439 0.00500855 0.00077055 0.00263427 0.00129638 
0.08885262 0.02908134 0.00336218 0.00216234 0.00117446 0.00162839 0.00452975 0.00232105 0.01487213 0.00164697 0.00237606 0.00105984 0.00508028 0.00077103 0.00259749 0.00128348 
0.08693000 0.03064312 0.00342769 0.00218677 0.00117455 0.00163983 0.00439623 0.00229192 0.01482376 0.00167740 0.00244073 0.00112979 0.00514802 0.00077161 0.00255901 0.00127018 
0.08507551 0.03224380 0.00350122 0.00221094 0.00117397 0.00165116 0.00427142 0.00226494 0.01480633 0.00170874 0.00250683 0.00120425 0.00521148 0.00077230 0.00251905 0.00125656 
0.08329623 0.03387911 0.00358248 0.00223480 0.00117271 0.00166238 0.00415593 0.00224011 0.01482082 0.00174087 0.00257416 0.00128321 0.00527041 0.00077308 0.00247782 0.00124266 
0.08159867 0.03554454 0.00367117 0.00225825 0.00117078 0.00167347 0.00405030 0.00221748 0.01486803 0.00177367 0.00264250 0.00136667 0.00532457 0.00077395 0.00243556 0.00122855 
0.07998874 0.03723531 0.00376693 0.00228124 0.00116820 0.00168441 0.00395504 0.00219705 0.01494861 0.00180702 0.00271165 0.00145460 0.00537377 0.00077491 0.00239251 0.00121428 
0.07847172 0.03894641 0.00386939 0.00230369 0.00116497 0.00169519 0.00387059 0.00217883 0.01506297 0.00184079 0.00278141 0.00154697 0.00541782 0.00077594 0.00234893 0.00119994 
0.07705225 0.04067262 0.00397814 0.00232551 0.00116110 0.00170579 0.00379736 0.00216282 0.01521135 0.00187486 0.00285155 0.00164374 0.00545659 0.00077705 0.00230506 0.00118558 
0.07573432 0.04240853 0.00409277 0.00234662 0.00115662 0.00171620 0.00373569 0.00214902 0.01539380 0.00190910 0.00292187 0.00174485 0.00548996 0.00077822 0.00226118 0.00117128 
0.07452123 0.04414856 0.00421280 0.00236694 0.00115156 0.00172640 0.00368587 0.00213739 0.01561011 0.00194339 0.00299214 0.00185023 0.00551785 0.00077944 0.00221755 0.00115712 
0.07341561 0.04588697 0.00433779 0.00238640 0.00114592 0.00173637 0.00364811 0.00212794 0.01585991 0.00197761 0.00306216 0.00195981 0.00554021 0.00078073 0.00217444 0.00114316 
0.07241941 0.04761793 0.00446723 0.00240490 0.00113973 0.00174609 0.00362259 0.00212061 0.01614259 0.00201164 0.00313169 0.00207350 0.00555703 0.00078205 0.00213211 0.00112949 
0.07153392 0.04933548 0.00460062 0.00242236 0.00113303 0.00175555 0.00360941 0.00211538 0.01645732 0.00204536 0.00320053 0.00219118 0.00556832 0.00078343 0.00209082 0.00111617 
0.07075974 0.05103363 0.00473745 0.00243870 0.00112584 0.00176473 0.00360861 0.00211221 0.01680306 0.00207866 0.00326844 0.00231276 0.00557414 0.00078483 0.00205084 0.00110330 
0.07009681 0.05270632 0.00487719 0.00245383 0.00111820 0.00177361 0.00362019 0.00211103 0.01717857 0.00211143 0.00333521 0.00243809 0.00557458 0.00078627 0.00201243 0.00109094 
0.06954443 0.05434750 0.00501930 0.00246767 0.00111014 0.00178217 0.00364407 0.00211180 0.01758239 0.00214356 0.00340061 0.00256704 0.00556976 0.00078774 0.00197582 0.00107917 
0.06910126 0.05595114 0.00516325 0.00248014 0.00110168 0.00179041 0.00368010 0.00211443 0.01801284 0.00217494 0.00346441 0.00269945 0.00555985 0.00078922 0.00194125 0.00106806 
0.06876537 0.05751126 0.00530850 0.00249115 0.00109288 0.00179831 0.00372809 0.00211888 0.01846808 0.00220549 0.00352639 0.00283517 0.00554502 0.00079072 0.00190896 0.00105768 
0.06853423 0.05902195 0.00545449 0.00250064 0.00108376 0.00180585 0.00378779 0.00212504 0.01894604 0.00223509 0.00358634 0.00297400 0.00552552 0.00079223 0.00187916 0.00104811 
0.06840477 0.06047743 0.00560070 0.00250853 0.00107436 0.00181303 0.00385888 0.00213285 0.01944450 0.00226368 0.00364403 0.00311576 0.00550161 0.00079374 0.00185205 0.00103942 
0.06837339 0.06187204 0.00574659 0.00251474 0.00106473 0.00181983 0.00394100 0.00214220 0.01996106 0.00229116 0.00369925 0.00326025 0.00547358 0.00079525 0.00182782 0.00103166 
0.06843601 0.06320031 0.00589163 0.00251922 0.00105490 0.00182624 0.00403372 0.00215301 0.02049316 0.00231745 0.00375178 0.00340725 0.00544174 0.00079675 0.00180663 0.00102491 
0.06858810 0.06445696 0.00603530 0.00252189 0.00104491 0.00183226 0.00413657 0.00216517 0.02103810 0.00234249 0.00380141 0.00355654 0.00540647 0.00079825 0.00178864 0.00101921 
0.06882473 0.06563694 0.00617709 0.00252271 0.00103480 0.00183788 0.00424903 0.00217858 0.02159305 0.00236621 0.00384795 0.00370787 0.00536814 0.00079973 0.00177398 0.00101462 
0.06914059 0.06673548 0.00631652 0.00252162 0.00102462 0.00184310 0.00437052 0.00219314 0.02215506 0.00238856 0.00389119 0.00386101 0.00532716 0.00080119 0.00176278 0.00101119 
0.06953005 0.06774806 0.00645311 0.00251857 0.00101440 0.00184792 0.00450043 0.00220871 0.02272110 0.00240947 0.00393095 0.00401568 0.00528397 0.00080262 0.00175511 0.00100896 
0.06998720 0.06867048 0.00658640 0.00251354 0.00100418 0.00185234 0.00463811 0.00222521 0.02328804 0.00242891 0.00396706 0.00417163 0.00523902 0.00080402 0.00175107 0.00100798 
0.07050592 0.06949890 0.00671595 0.00250648 0.00099401 0.00185635 0.00478286 0.00224250 0.02385271 0.00244683 0.00399933 0.00432857 0.00519280 0.00080539 0.00175070 0.00100826 
0.07107987 0.07022981 0.00684135 0.00249738 0.00098392 0.00185998 0.00493396 0.00226046 0.02441188 0.00246321 0.00402761 0.00448622 0.00514580 0.00080672 0.00175403 0.00100984 
0.07170261 0.07086008 0.00696219 0.00248621 0.00097395 0.00186321 0.00509064 0.00227898 0.02496231 0.00247802 0.00405175 0.00464429 0.00509852 0.00080801 0.00176109 0.00101274 
0.07236760 0.07138700 0.00707811 0.00247297 0.00096414 0.00186607 0.00525213 0.00229794 0.02550075 0.00249124 0.00407162 0.00480248 0.00505150 0.00080924 0.00177184 0.00101696 
0.07306824 0.07180826 0.00718877 0.00245767 0.00095453 0.00186857 0.00541760 0.00231721 0.02602398 0.00250285 0.00408711 0.00496050 0.00500526 0.00081043 0.00178627 0.00102253 
0.07379797 0.07212198 0.00729385 0.00244029 0.00094516 0.00187071 0.00558625 0.00233667 0.02652881 0.00251287 0.00409809 0.00511802 0.00496035 0.00081155 0.00180431 0.00102943 
0.07455026 0.07232672 0.00739306 0.00242088 0.00093605 0.00187252 0.00575721 0.00235620 0.02701211 0.00252128 0.00410449 0.00527476 0.00491731 0.00081262 0.00182590 0.00103766 
0.07531870 0.07242153 0.00748615 0.00239944 0.00092725 0.00187401 0.00592965 0.00237570 0.02747084 0.00252810 0.00410623 0.00543038 0.00487668 0.00081362 0.00185093 0.00104720 
0.07609701 0.07240588 0.00757287 0.00237602 0.00091878 0.00187519 0.00610269 0.00239502 0.02790205 0.00253333 0.00410325 0.00558460 0.00483900 0.00081455 0.00187930 0.00105804 
0.07687910 0.07227973 0.00765304 0.00235067 0.00091068 0.00187611 0.00627547 0.00241408 0.02830291 0.00253701 0.00409552 0.00573710 0.00480480 0.00081542 0.00191087 0.00107014 
0.07765910 0.07204352 0.00772649 0.00232342 0.00090297 0.00187676 0.00644714 0.00243275 0.02867074 0.00253915 0.00408302 0.00588757 0.00477460 0.00081621 0.00194549 0.00108347 
0.07843142 0.07169816 0.00779308 0.00229435 0.00089569 0.00187718 0.00661683 0.00245093 0.02900303 0.00253980 0.00406575 0.00603573 0.00474892 0.00081692 0.00198299 0.00109800 
0.07919077 0.07124503 0.00785271 0.00226353 0.00088887 0.00187739 0.00678370 0.00246852 0.02929743 0.00253898 0.00404374 0.00618127 0.00472824 0.00081756 0.00202318 0.00111366 
0.07993217 0.07068598 0.00790531 0.00223104 0.00088252 0.00187742 0.00694693 0.00248541 0.02955178 0.00253675 0.00401702 0.00632393 0.00471304 0.00081812 0.00206588 0.00113041 
0.08065104 0.07002332 0.00795084 0.00219696 0.00087667 0.00187729 0.00710569 0.00250153 0.02976415 0.00253314 0.00398565 0.00646342 0.00470377 0.00081860 0.00211086 0.00114818 
0.08134315 0.06925983 0.00798929 0.00216139 0.00087134 0.00187702 0.00725919 0.00251677 0.02993282 0.00252822 0.00394972 0.00659949 0.00470084 0.00081899 0.00215791 0.00116692 
0.08200472 0.06839871 0.00802069 0.00212443 0.00086655 0.00187665 0.00740668 0.00253107 0.03005633 0.00252203 0.00390933 0.00673189 0.00470464 0.00081932 0.00220680 0.00118654 
0.08263238 0.06744359 0.00804509 0.00208619 0.00086232 0.00187620 0.00754742 0.00254435 0.03013346 0.00251465 0.00386461 0.00686039 0.00471553 0.00081956 0.00225728 0.00120697 
0.08322322 0.06639852 0.00806258 0.00204680 0.00085867 0.00187570 0.00768071 0.00255653 0.03016324 0.00250613 0.00381570 0.00698479 0.00473384 0.00081973 0.00230910 0.00122812 
0.08377479 0.06526793 0.00807328 0.00200636 0.00085560 0.00187516 0.00780589 0.00256756 0.03014499 0.00249653 0.00376276 0.00710488 0.00475983 0.00081982 0.00236202 0.00124992 
0.08428510 0.06405662 0.00807733 0.00196502 0.00085313 0.00187461 0.00792234 0.00257739 0.03007831 0.00248595 0.00370599 0.00722049 0.00479376 0.00081985 0.00241578 0.00127227 
0.08475266 0.06276973 0.00807492 0.00192290 0.00085127 0.00187408 0.00802949 0.00258597 0.02996307 0.00247443 0.00364557 0.00733148 0.00483582 0.00081982 0.00247013 0.00129508 
0.08517642 0.06141274 0.00806623 0.00188014 0.00085003 0.00187359 0.00812681 0.00259326 0.02979945 0.00246207 0.00358173 0.00743773 0.00488614 0.00081974 0.00252479 0.00131824 
0.08555584 0.05999138 0.00805151 0.00183689 0.00084940 0.00187315 0.00821381 0.00259923 0.02958791 0.00244893 0.00351472 0.00753912 0.00494485 0.00081960 0.00257953 0.00134168 
0.08589083 0.05851169 0.00803101 0.00179328 0.00084941 0.00187279 0.00829008 0.00260386 0.02932921 0.00243509 0.00344478 0.00763558 0.00501198 0.00081943 0.00263409 0.00136527 
0.08618176 0.05697990 0.00800500 0.00174946 0.00085003 0.00187252 0.00835523 0.00260712 0.02902437 0.00242064 0.00337219 0.00772708 0.00508753 0.00081923 0.00268823 0.00138893 
0.08642943 0.05540245 0.00797379 0.00170558 0.00085128 0.00187235 0.00840897 0.00260902 0.02867475 0.00240565 0.00329722 0.00781359 0.00517146 0.00081901 0.00274170 0.00141254 
0.08663508 0.05378596 0.00793769 0.00166179 0.00085316 0.00187230 0.00845104 0.00260955 0.02828195 0.00239021 0.00322018 0.00789511 0.00526365 0.00081878 0.00279427 0.00143602 
0.08680035 0.05213716 0.00789705 0.00161823 0.00085564 0.00187237 0.00848123 0.00260872 0.02784787 0.00237438 0.00314137 0.00797171 0.00536395 0.00081857 0.00284572 0.00145925 
0.08692727 0.05046288 0.00785223 0.00157505 0.00085874 0.00187258 0.00849942 0.00260654 0.02737465 0.00235826 0.00306110 0.00804343 0.00547214 0.00081838 0.00289584 0.00148214 
0.08701821 0.04877001 0.00780359 0.00153239 0.00086244 0.00187291 0.00850554 0.00260303 0.02686471 0.00234192 0.00297972 0.00811040 0.00558795 0.00081823 0.00294444 0.00150458 
0.08707586 0.04706547 0.00775154 0.00149039 0.00086672 0.00187339 0.00849958 0.00259823 0.02632070 0.00232544 0.00289754 0.00817274 0.00571107 0.00081815 0.00299132 0.00152649 
0.08710322 0.04535616 0.00769646 0.00144919 0.00087158 0.00187400 0.00848159 0.00259216 0.02574551 0.00230888 0.00281490 0.00823062 0.00584111 0.00081814 0.00303632 0.00154777 
0.08710354 0.04364892 0.00763877 0.00140892 0.00087700 0.00187474 0.00845170 0.00258487 0.02514223 0.00229234 0.00273214 0.00828423 0.00597767 0.00081823 0.00307928 0.00156832 
0.08708029 0.04195052 0.00757889 0.00136972 0.00088296 0.00187561 0.00841008 0.00257641 0.02451416 0.00227587 0.00264961 0.00833379 0.00612025 0.00081844 0.00312007 0.00158807 
0.08703712 0.04026761 0.00751724 0.00133169 0.00088944 0.00187660 0.00835698 0.00256683 0.02386477 0.00225955 0.00256765 0.00837957 0.00626835 0.00081880 0.00315855 0.00160693 
0.08697783 0.03860667 0.00745425 0.00129497 0.00089642 0.00187769 0.00829271 0.00255618 0.02319769 0.00224345 0.00248659 0.00842183 0.00642140 0.00081932 0.00319464 0.00162482 
0.08690633 0.03697400 0.00739035 0.00125964 0.00090388 0.00187888 0.00821763 0.00254454 0.02251669 0.00222762 0.00240677 0.00846089 0.00657879 0.00082003 0.00322823 0.00164167 
0.08682658 0.03537569 0.00732597 0.00122582 0.00091179 0.00188014 0.00813217 0.00253198 0.02182565 0.00221213 0.00232852 0.00849709 0.00673988 0.00082097 0.00325925 0.00165742 
0.08674258 0.03381757 0.00726153 0.00119360 0.00092013 0.00188146 0.00803680 0.00251856 0.02112856 0.00219703 0.00225216 0.00853076 0.00690397 0.00082214 0.00328767 0.00167201 
0.08665829 0.03230518 0.00719747 0.00116305 0.00092887 0.00188282 0.00793207 0.00250436 0.02042947 0.00218239 0.00217800 0.00856230 0.00707035 0.00082359 0.00331344 0.00168537 
0.08657764 0.03084376 0.00713420 0.00113426 0.00093797 0.00188420 0.00781856 0.00248948 0.01973248 0.00216824 0.00210635 0.00859210 0.00723828 0.00082533 0.00333654 0.00169747 
0.08650443 0.02943823 0.00707212 0.00110728 0.00094741 0.00188558 0.00769690 0.00247398 0.01904169 0.00215463 0.00203749 0.00862056 0.00740698 0.00082740 0.00335698 0.00170825 
0.08644233 0.02809313 0.00701164 0.00108218 0.00095716 0.00188693 0.00756779 0.00245797 0.01836125 0.00214162 0.00197169 0.00864811 0.00757567 0.00082982 0.00337478 0.00171770 
0.08639486 0.02681265 0.00695314 0.00105899 0.00096718 0.00188823 0.00743195 0.00244152 0.01769523 0.00212922 0.00190922 0.00867520 0.00774352 0.00083262 0.00338996 0.00172578 
0.08636529 0.02560055 0.00689699 0.00103774 0.00097743 0.00188945 0.00729014 0.00242475 0.01704767 0.00211748 0.00185032 0.00870226 0.00790973 0.00083583 0.00340259 0.00173246 
0.08635666 0.02446021 0.00684354 0.00101847 0.00098789 0.00189058 0.00714318 0.00240773 0.01642255 0.00210643 0.00179520 0.00872975 0.00807346 0.00083946 0.00341271 0.00173774 
0.08637173 0.02339456 0.00679314 0.00100118 0.00099850 0.00189158 0.00699189 0.00239057 0.01582373 0.00209609 0.00174409 0.00875811 0.00823389 0.00084355 0.00342041 0.00174161 
0.08641295 0.02240610 0.00674609 0.00098588 0.00100924 0.00189242 0.00683714 0.00237337 0.01525496 0.00208648 0.00169715 0.00878780 0.00839018 0.00084813 0.00342579 0.00174408 
0.08648243 0.02149689 0.00670269 0.00097256 0.00102007 0.00189310 0.00667983 0.00235623 0.01471982 0.00207761 0.00165455 0.00881926 0.00854151 0.00085320 0.00342893 0.00174514 
0.08658192 0.02066854 0.00666322 0.00096120 0.00103093 0.00189357 0.00652085 0.00233924 0.01422176 0.00206950 0.00161644 0.00885294 0.00868708 0.00085880 0.00342995 0.00174482 
0.08671280 0.01992218 0.00662792 0.00095177 0.00104181 0.00189383 0.00636114 0.00232252 0.01376401 0.00206216 0.00158292 0.00888924 0.00882610 0.00086495 0.00342898 0.00174313 
0.08687604 0.01925852 0.00659701 0.00094424 0.00105265 0.00189384 0.00620162 0.00230615 0.01334961 0.00205558 0.00155409 0.00892860 0.00895779 0.00087166 0.00342613 0.00174011 
0.08707219 0.01867779 0.00657069 0.00093857 0.00106341 0.00189359 0.00604324 0.00229025 0.01298135 0.00204976 0.00153002 0.00897139 0.00908141 0.00087896 0.00342155 0.00173578 
0.08730139 0.01817978 0.00654912 0.00093469 0.00107405 0.00189306 0.00588693 0.00227491 0.01266180 0.00204471 0.00151076 0.00901799 0.00919627 0.00088684 0.00341538 0.00173019 
0.08756334 0.01776385 0.00653245 0.00093255 0.00108453 0.00189224 0.00573365 0.00226024 0.01239326 0.00204040 0.00149633 0.00906874 0.00930167 0.00089533 0.00340776 0.00172339 
0.08785730 0.01742891 0.00652078 0.00093208 0.00109481 0.00189111 0.00558431 0.00224633 0.01217774 0.00203682 0.00148671 0.00912396 0.00939700 0.00090444 0.00339883 0.00171542 
0.08818211 0.01717347 0.00651420 0.00093321 0.00110485 0.00188966 0.00543983 0.00223329 0.01201697 0.00203396 0.00148189 0.00918393 0.00948166 0.00091417 0.00338874 0.00170634 
0.08853617 0.01699563 0.00651275 0.00093584 0.00111460 0.00188789 0.00530112 0.00222122 0.01191238 0.00203179 0.00148181 0.00924892 0.00955512 0.00092452 0.00337764 0.00169622 
0.08891746 0.01689310 0.00651646 0.00093990 0.00112403 0.00188579 0.00516904 0.00221022 0.01186510 0.00203029 0.00148640 0.00931911 0.00961689 0.00093550 0.00336568 0.00168511 
0.08932355 0.01686324 0.00652531 0.00094530 0.00113309 0.00188334 0.00504444 0.00220038 0.01187593 0.00202943 0.00149555 0.00939470 0.00966653 0.00094710 0.00335299 0.00167308 
0.08975161 0.01690304 0.00653927 0.00095193 0.00114175 0.00188057 0.00492815 0.00219181 0.01194534 0.00202917 0.00150915 0.00947582 0.00970369 0.00095932 0.00333971 0.00166022 
0.09019845 0.01700919 0.00655826 0.00095971 0.00114997 0.00187746 0.00482094 0.00218460 0.01207348 0.00202948 0.00152706 0.00956254 0.00972805 0.00097214 0.00332597 0.00164658 
0.09066050 0.01717807 0.00658220 0.00096853 0.00115771 0.00187403 0.00472354 0.00217884 0.01226019 0.00203031 0.00154910 0.00965492 0.00973936 0.00098556 0.00331191 0.00163225 
0.09113389 0.01740580 0.00661095 0.00097830 0.00116494 0.00187028 0.00463666 0.00217464 0.01250493 0.00203164 0.00157511 0.00975294 0.00973744 0.00099956 0.00329764 0.00161731 
0.09161443 0.01768824 0.00664437 0.00098891 0.00117162 0.00186623 0.00456092 0.00217208 0.01280689 0.00203341 0.00160487 0.00985656 0.00972219 0.00101412 0.00328328 0.00160184 
0.09209767 0.01802105 0.00668227 0.00100027 0.00117771 0.00186188 0.00449694 0.00217125 0.01316490 0.00203558 0.00163818 0.00996566 0.00969355 0.00102922 0.00326892 0.00158591 
0.09257893 0.01839970 0.00672446 0.00101227 0.00118319 0.00185726 0.00444523 0.00217225 0.01357749 0.00203809 0.00167479 0.01008009 0.00965156 0.00104483 0.00325466 0.00156961 
0.09305332 0.01881950 0.00677071 0.00102482 0.00118803 0.00185239 0.00440627 0.00217517 0.01404286 0.00204091 0.00171445 0.01019966 0.00959631 0.00106093 0.00324060 0.00155303 
0.09351582 0.01927564 0.00682079 0.00103783 0.00119219 0.00184728 0.00438049 0.00218010 0.01455893 0.00204397 0.00175692 0.01032410 0.00952795 0.00107749 0.00322679 0.00153624 
0.09396127 0.01976320 0.00687443 0.00105121 0.00119566 0.00184196 0.00436821 0.00218711 0.01512332 0.00204722 0.00180192 0.01045311 0.00944672 0.00109446 0.00321331 0.00151932 
0.09438443 0.02027722 0.00693135 0.00106487 0.00119841 0.00183645 0.00436972 0.00219631 0.01573337 0.00205061 0.00184915 0.01058634 0.00935292 0.00111182 0.00320021 0.00150235 
0.09478004 0.02081269 0.00699126 0.00107873 0.00120041 0.00183079 0.00438523 0.00220776 0.01638618 0.00205408 0.00189834 0.01072339 0.00924691 0.00112952 0.00318753 0.00148541 
0.09514286 0.02136460 0.00705387 0.00109272 0.00120165 0.00182499 0.00441488 0.00222155 0.01707858 0.00205758 0.00194919 0.01086381 0.00912912 0.00114752 0.00317532 0.00146858 
0.09546769 0.02192798 0.00711885 0.00110678 0.00120212 0.00181910 0.00445872 0.00223777 0.01780718 0.00206104 0.00200140 0.01100711 0.00900004 0.00116579 0.00316358 0.00145193 
0.09574944 0.02249791 0.00718589 0.00112084 0.00120179 0.00181313 0.00451674 0.00225648 0.01856838 0.00206441 0.00205466 0.01115276 0.00886021 0.00118427 0.00315235 0.00143552 
0.09598317 0.02306954 0.00725468 0.00113484 0.00120065 0.00180712 0.00458887 0.00227777 0.01935841 0.00206764 0.00210867 0.01130019 0.00871024 0.00120291 0.00314162 0.00141943 
0.09616411 0.02363815 0.00732488 0.00114875 0.00119871 0.00180109 0.00467493 0.00230169 0.02017330 0.00207066 0.00216313 0.01144880 0.00855079 0.00122168 0.00313139 0.00140372 
0.09628776 0.02419916 0.00739619 0.00116253 0.00119594 0.00179509 0.00477470 0.00232833 0.02100895 0.00207342 0.00221772 0.01159794 0.00838255 0.00124052 0.00312164 0.00138845 
0.09634987 0.02474815 0.00746828 0.00117613 0.00119236 0.00178913 0.00488786 0.00235774 0.02186116 0.00207586 0.00227216 0.01174695 0.00820628 0.00125937 0.00311237 0.00137367 
0.09634651 0.02528089 0.00754086 0.00118955 0.00118795 0.00178324 0.00501402 0.00238998 0.02272558 0.00207792 0.00232615 0.01189514 0.00802275 0.00127820 0.00310353 0.00135944 
0.09627410 0.02579335 0.00761363 0.00120277 0.00118273 0.00177746 0.00515273 0.00242512 0.02359784 0.00207956 0.00237940 0.01204178 0.00783280 0.00129696 0.00309511 0.00134581 
0.09612947 0.02628175 0.00768630 0.00121578 0.00117669 0.00177180 0.00530347 0.00246319 0.02447349 0.00208072 0.00243164 0.01218617 0.00763727 0.00131558 0.00308707 0.00133282 
0.09590985 0.02674255 0.00775863 0.00122858 0.00116985 0.00176630 0.00546564 0.00250425 0.02534805 0.00208135 0.00248259 0.01232754 0.00743704 0.00133403 0.00307936 0.00132051 
0.09561295 0.02717247 0.00783036 0.00124119 0.00116221 0.00176097 0.00563857 0.00254833 0.02621706 0.00208139 0.00253201 0.01246516 0.00723300 0.00135225 0.00307195 0.00130891 
0.09523694 0.02756852 0.00790127 0.00125363 0.00115380 0.00175583 0.00582154 0.00259547 0.02707606 0.00208080 0.00257964 0.01259828 0.00702607 0.00137021 0.00306478 0.00129806 
0.09478052 0.02792800 0.00797117 0.00126591 0.00114464 0.00175090 0.00601377 0.00264568 0.02792066 0.00207954 0.00262525 0.01272616 0.00681716 0.00138784 0.00305781 0.00128797 
0.09424290 0.02824853 0.00803990 0.00127807 0.00113473 0.00174619 0.00621442 0.00269900 0.02874653 0.00207755 0.00266864 0.01284805 0.00660720 0.00140512 0.00305100 0.00127867 
0.09362385 0.02852801 0.00810731 0.00129015 0.00112411 0.00174172 0.00642259 0.00275543 0.02954943 0.00207481 0.00270959 0.01296324 0.00639711 0.00142201 0.00304429 0.00127018 
0.09292368 0.02876469 0.00817329 0.00130219 0.00111281 0.00173749 0.00663735 0.00281496 0.03032526 0.00207127 0.00274793 0.01307103 0.00618780 0.00143845 0.00303766 0.00126250 
0.09214328 0.02895715 0.00823778 0.00131424 0.00110084 0.00173351 0.00685771 0.00287758 0.03107003 0.00206690 0.00278349 0.01317073 0.00598016 0.00145443 0.00303104 0.00125564 
0.09128411 0.02910427 0.00830073 0.00132636 0.00108826 0.00172978 0.00708265 0.00294329 0.03177994 0.00206166 0.00281612 0.01326172 0.00577509 0.00146990 0.00302442 0.00124961 
0.09034821 0.02920530 0.00836214 0.00133861 0.00107508 0.00172630 0.00731111 0.00301204 0.03245136 0.00205553 0.00284569 0.01334338 0.00557344 0.00148483 0.00301775 0.00124440 
0.08933817 0.02925977 0.00842204 0.00135103 0.00106135 0.00172307 0.00754202 0.00308378 0.03308085 0.00204848 0.00287210 0.01341515 0.00537603 0.00149921 0.00301100 0.00124001 
0.08825716 0.02926758 0.00848051 0.00136371 0.00104711 0.00172008 0.00777426 0.00315848 0.03366519 0.00204048 0.00289524 0.01347650 0.00518367 0.00151301 0.00300416 0.00123642 
0.08710887 0.02922893 0.00853765 0.00137670 0.00103240 0.00171732 0.00800671 0.00323605 0.03420141 0.00203154 0.00291506 0.01352697 0.00499711 0.00152622 0.00299721 0.00123363 
0.08589754 0.02914434 0.00859360 0.00139007 0.00101726 0.00171477 0.00823825 0.00331642 0.03468678 0.00202161 0.00293150 0.01356616 0.00481707 0.00153881 0.00299014 0.00123160 
0.08462791 0.02901463 0.00864855 0.00140388 0.00100173 0.00171242 0.00846772 0.00339948 0.03511882 0.00201071 0.00294453 0.01359371 0.00464422 0.00155078 0.00298295 0.00123033 
0.08330521 0.02884092 0.00870273 0.00141820 0.00098588 0.00171026 0.00869400 0.00348513 0.03549532 0.00199882 0.00295413 0.01360934 0.00447917 0.00156213 0.00297564 0.00122978 
0.08193512 0.02862461 0.00875638 0.00143310 0.00096974 0.00170825 0.00891595 0.00357324 0.03581439 0.00198594 0.00296032 0.01361284 0.00432250 0.00157284 0.00296824 0.00122994 
0.08052373 0.02836738 0.00880979 0.00144863 0.00095337 0.00170639 0.00913246 0.00366367 0.03607438 0.00197208 0.00296312 0.01360407 0.00417471 0.00158294 0.00296076 0.00123076 
0.07907753 0.02807116 0.00886329 0.00146485 0.00093681 0.00170464 0.00934242 0.00375626 0.03627398 0.00195723 0.00296258 0.01358296 0.00403625 0.00159241 0.00295323 0.00123221 
0.07760333 0.02773813 0.00891722 0.00148182 0.00092012 0.00170298 0.00954477 0.00385085 0.03641214 0.00194142 0.00295877 0.01354953 0.00390752 0.00160128 0.00294570 0.00123427 
0.07610826 0.02737069 0.00897197 0.00149958 0.00090336 0.00170137 0.00973846 0.00394723 0.03648816 0.00192466 0.00295176 0.01350387 0.00378884 0.00160956 0.00293821 0.00123689 
0.07459969 0.02697144 0.00902793 0.00151817 0.00088657 0.00169981 0.00992250 0.00404521 0.03650161 0.00190697 0.00294165 0.01344617 0.00368048 0.00161727 0.00293081 0.00124003 
0.07308521 0.02654319 0.00908555 0.00153764 0.00086981 0.00169824 0.01009590 0.00414456 0.03645239 0.00188838 0.00292857 0.01337669 0.00358263 0.00162442 0.00292356 0.00124365 
0.07157255 0.02608890 0.00914525 0.00155802 0.00085313 0.00169666 0.01025777 0.00424505 0.03634069 0.00186891 0.00291263 0.01329578 0.00349543 0.00163106 0.00291654 0.00124772 
0.07006956 0.02561170 0.00920749 0.00157932 0.00083660 0.00169502 0.01040723 0.00434643 0.03616700 0.00184861 0.00289398 0.01320386 0.00341894 0.00163720 0.00290982 0.00125219 
0.06858411 0.02511483 0.00927276 0.00160157 0.00082025 0.00169330 0.01054349 0.00444842 0.03593211 0.00182752 0.00287279 0.01310147 0.00335317 0.00164288 0.00290348 0.00125701 
0.06712411 0.02460165 0.00934151 0.00162476 0.00080414 0.00169147 0.01066579 0.00455074 0.03563710 0.00180567 0.00284921 0.01298919 0.00329805 0.00164814 0.00289760 0.00126215 
0.06569737 0.02407562 0.00941423 0.00164890 0.00078833 0.00168951 0.01077347 0.00465311 0.03528332 0.00178312 0.00282344 0.01286773 0.00325346 0.00165302 0.00289227 0.00126756 
0.06431161 0.02354026 0.00949140 0.00167398 0.00077286 0.00168740 0.01086591 0.00475519 0.03487241 0.00175993 0.00279566 0.01273783 0.00321922 0.00165755 0.00288759 0.00127319 
0.06297437 0.02299913 0.00957348 0.00169997 0.00075779 0.00168511 0.01094259 0.00485669 0.03440625 0.00173615 0.00276607 0.01260035 0.00319507 0.00166178 0.00288364 0.00127901 
0.06169299 0.02245583 0.00966093 0.00172686 0.00074315 0.00168263 0.01100304 0.00495725 0.03388697 0.00171184 0.00273489 0.01245620 0.00318072 0.00166576 0.00288053 0.00128497 
0.06047451 0.02191396 0.00975419 0.00175459 0.00072900 0.00167995 0.01104690 0.00505654 0.03331694 0.00168708 0.00270232 0.01230637 0.00317581 0.00166953 0.00287834 0.00129103 
0.05932567 0.02137711 0.00985368 0.00178313 0.00071538 0.00167704 0.01107385 0.00515420 0.03269874 0.00166194 0.00266858 0.01215191 0.00317993 0.00167314 0.00287718 0.00129714 
0.05825283 0.02084883 0.00995978 0.00181242 0.00070232 0.00167390 0.01108371 0.00524988 0.03203518 0.00163650 0.00263390 0.01199393 0.00319262 0.00167663 0.00287714 0.00130328 
0.05726191 0.02033263 0.01007287 0.00184238 0.00068988 0.00167053 0.01107633 0.00534319 0.03132922 0.00161082 0.00259851 0.01183360 0.00321341 0.00168006 0.00287830 0.00130940 
0.05635841 0.01983193 0.01019325 0.00187296 0.00067807 0.00166693 0.01105167 0.00543378 0.03058403 0.00158501 0.00256262 0.01167214 0.00324173 0.00168348 0.00288075 0.00131547 
0.05554730 0.01935008 0.01032122 0.00190406 0.00066694 0.00166310 0.01100979 0.00552126 0.02980290 0.00155915 0.00252648 0.01151079 0.00327704 0.00168692 0.00288457 0.00132145 
0.05483302 0.01889031 0.01045702 0.00193560 0.00065652 0.00165905 0.01095082 0.00560525 0.02898929 0.00153332 0.00249031 0.01135086 0.00331872 0.00169044 0.00288983 0.00132731 
0.05421944 0.01845573 0.01060083 0.00196748 0.00064684 0.00165480 0.01087496 0.00568539 0.02814675 0.00150763 0.00245434 0.01119366 0.00336614 0.00169408 0.00289661 0.00133302 
0.05370984 0.01804931 0.01075279 0.00199960 0.00063791 0.00165037 0.01078252 0.00576130 0.02727896 0.00148218 0.00241878 0.01104054 0.00341867 0.00169789 0.00290496 0.00133855 
0.05330686 0.01767387 0.01091298 0.00203185 0.00062976 0.00164578 0.01067390 0.00583260 0.02638966 0.00145705 0.00238386 0.01089283 0.00347564 0.00170190 0.00291492 0.00134387 
0.05301251 0.01733205 0.01108142 0.00206410 0.00062240 0.00164105 0.01054954 0.00589895 0.02548265 0.00143237 0.00234980 0.01075188 0.00353638 0.00170615 0.00292654 0.00134896 
0.05282813 0.01702633 0.01125806 0.00209625 0.00061586 0.00163623 0.01041000 0.00595997 0.02456180 0.00140822 0.00231680 0.01061905 0.00360020 0.00171069 0.00293985 0.00135380 
0.05275442 0.01675899 0.01144281 0.00212817 0.00061013 0.00163135 0.01025590 0.00601534 0.02363098 0.00138472 0.00228506 0.01049565 0.00366644 0.00171554 0.00295486 0.00135837 
0.05279137 0.01653208 0.01163547 0.00215973 0.00060524 0.00162645 0.01008793 0.00606472 0.02269409 0.00136198 0.00225479 0.01038299 0.00373441 0.00172073 0.00297157 0.00136265 
0.05293833 0.01634749 0.01183582 0.00219081 0.00060117 0.00162160 0.00990686 0.00610781 0.02175502 0.00134010 0.00222616 0.01028233 0.00380346 0.00172628 0.00298999 0.00136662 
0.05319396 0.01620683 0.01204353 0.00222127 0.00059793 0.00161683 0.00971351 0.00614430 0.02081761 0.00131920 0.00219935 0.01019490 0.00387294 0.00173222 0.00301007 0.00137029 
0.05355627 0.01611154 0.01225821 0.00225099 0.00059553 0.00161220 0.00950876 0.00617392 0.01988567 0.00129938 0.00217454 0.01012185 0.00394222 0.00173857 0.00303180 0.00137362 
0.05402263 0.01606278 0.01247941 0.00227983 0.00059394 0.00160779 0.00929358 0.00619641 0.01896297 0.00128075 0.00215188 0.01006429 0.00401070 0.00174532 0.00305512 0.00137663 
0.05458979 0.01606150 0.01270661 0.00230768 0.00059316 0.00160365 0.00906894 0.00621156 0.01805317 0.00126342 0.00213151 0.01002326 0.00407780 0.00175250 0.00307996 0.00137930 
0.05525389 0.01610839 0.01293920 0.00233439 0.00059319 0.00159984 0.00883590 0.00621916 0.01715985 0.00124750 0.00211358 0.00999970 0.00414298 0.00176010 0.00310625 0.00138162 
0.05601052 0.01620390 0.01317652 0.00235986 0.00059399 0.00159645 0.00859554 0.00621903 0.01628651 0.00123310 0.00209821 0.00999448 0.00420573 0.00176811 0.00313390 0.00138361 
0.05685472 0.01634824 0.01341784 0.00238396 0.00059555 0.00159355 0.00834897 0.00621103 0.01543649 0.00122031 0.00208550 0.01000837 0.00426560 0.00177654 0.00316280 0.00138525 
0.05778104 0.01654138 0.01366236 0.00240659 0.00059785 0.00159121 0.00809734 0.00619505 0.01461302 0.00120923 0.00207557 0.01004201 0.00432216 0.00178535 0.00319284 0.00138656 
0.05878357 0.01678301 0.01390924 0.00242763 0.00060087 0.00158950 0.00784183 0.00617102 0.01381918 0.00119997 0.00206849 0.01009595 0.00437504 0.00179454 0.00322388 0.00138753 
0.05985600 0.01707263 0.01415756 0.00244699 0.00060457 0.00158851 0.00758362 0.00613889 0.01305790 0.00119262 0.00206435 0.01017063 0.00442392 0.00180408 0.00325578 0.00138818 
0.06099164 0.01740945 0.01440635 0.00246457 0.00060893 0.00158832 0.00732391 0.00609866 0.01233194 0.00118727 0.00206321 0.01026634 0.00446852 0.00181393 0.00328839 0.00138852 
0.06218352 0.01779249 0.01465462 0.00248031 0.00061391 0.00158900 0.00706390 0.00605036 0.01164388 0.00118400 0.00206511 0.01038327 0.00450863 0.00182406 0.00332154 0.00138854 
0.06342438 0.01822049 0.01490130 0.00249411 0.00061947 0.00159062 0.00680480 0.00599407 0.01099611 0.00118289 0.00207011 0.01052144 0.00454408 0.00183442 0.00335506 0.00138827 
0.06470678 0.01869202 0.01514530 0.00250592 0.00062559 0.00159327 0.00654781 0.00592989 0.01039084 0.00118402 0.00207821 0.01068076 0.00457476 0.00184498 0.00338876 0.00138772 
0.06602313 0.01920539 0.01538550 0.00251568 0.00063222 0.00159701 0.00629410 0.00585797 0.00983007 0.00118746 0.00208943 0.01086100 0.00460063 0.00185567 0.00342245 0.00138690 
0.06736575 0.01975873 0.01562077 0.00252335 0.00063932 0.00160192 0.00604483 0.00577852 0.00931562 0.00119326 0.00210379 0.01106176 0.00462170 0.00186645 0.00345594 0.00138582 
0.06872693 0.02034996 0.01584993 0.00252889 0.00064686 0.00160806 0.00580115 0.00569176 0.00884906 0.00120148 0.00212125 0.01128252 0.00463801 0.00187724 0.00348902 0.00138451 
0.07009901 0.02097682 0.01607180 0.00253230 0.00065478 0.00161549 0.00556417 0.00559797 0.00843178 0.00121217 0.00214181 0.01152262 0.00464971 0.00188799 0.00352149 0.00138297 
0.07147439 0.02163687 0.01628522 0.00253355 0.00066305 0.00162428 0.00533495 0.00549746 0.00806493 0.00122536 0.00216541 0.01178125 0.00465694 0.00189863 0.00355314 0.00138123 
0.07284565 0.02232749 0.01648899 0.00253265 0.00067162 0.00163447 0.00511452 0.00539059 0.00774946 0.00124110 0.00219203 0.01205746 0.00465995 0.00190907 0.00358376 0.00137930 
0.07420553 0.02304594 0.01668197 0.00252961 0.00068045 0.00164611 0.00490386 0.00527776 0.00748608 0.00125940 0.00222160 0.01235015 0.00465901 0.00191925 0.00361314 0.00137720 
0.07554708 0.02378931 0.01686299 0.00252446 0.00068950 0.00165925 0.00470391 0.00515939 0.00727531 0.00128027 0.00225405 0.01265811 0.00465444 0.00192909 0.00364108 0.00137494 
0.07686362 0.02455458 0.01703094 0.00251725 0.00069871 0.00167391 0.00451555 0.00503596 0.00711742 0.00130372 0.00228931 0.01298000 0.00464662 0.00193851 0.00366736 0.00137256 
0.07814884 0.02533862 0.01718473 0.00250800 0.00070805 0.00169012 0.00433958 0.00490798 0.00701247 0.00132975 0.00232728 0.01331434 0.00463596 0.00194742 0.00369181 0.00137005 
0.07939685 0.02613820 0.01732330 0.00249680 0.00071747 0.00170790 0.00417677 0.00477598 0.00696032 0.00135834 0.00236787 0.01365955 0.00462291 0.00195575 0.00371422 0.00136744 
0.08060218 0.02695001 0.01744566 0.00248370 0.00072693 0.00172727 0.00402780 0.00464054 0.00696060 0.00138946 0.00241097 0.01401393 0.00460797 0.00196340 0.00373441 0.00136475 
0.08175988 0.02777066 0.01755086 0.00246879 0.00073639 0.00174822 0.00389329 0.00450225 0.00701274 0.00142309 0.00245647 0.01437571 0.00459165 0.00197029 0.00375221 0.00136199 
0.08286550 0.02859674 0.01763801 0.00245216 0.00074581 0.00177074 0.00377378 0.00436175 0.00711596 0.00145919 0.00250424 0.01474299 0.00457449 0.00197635 0.00376745 0.00135919 
0.08391515 0.02942479 0.01770630 0.00243391 0.00075514 0.00179483 0.00366974 0.00421968 0.00726929 0.00149768 0.00255415 0.01511384 0.00455708 0.00198149 0.00377999 0.00135635 
0.08490553 0.03025134 0.01775498 0.00241415 0.00076434 0.00182045 0.00358157 0.00407674 0.00747157 0.00153852 0.00260607 0.01548623 0.00453999 0.00198562 0.00378969 0.00135349 
0.08583391 0.03107291 0.01778338 0.00239300 0.00077339 0.00184757 0.00350958 0.00393360 0.00772145 0.00158163 0.00265983 0.01585807 0.00452384 0.00198868 0.00379643 0.00135062 
0.08669821 0.03188603 0.01779093 0.00237058 0.00078224 0.00187616 0.00345401 0.00379097 0.00801740 0.00162693 0.00271531 0.01622727 0.00450922 0.00199058 0.00380011 0.00134776 
0.08749695 0.03268730 0.01777715 0.00234702 0.00079085 0.00190615 0.00341503 0.00364959 0.00835773 0.00167432 0.00277233 0.01659166 0.00449674 0.00199125 0.00380062 0.00134492 
0.08822928 0.03347333 0.01774162 0.00232246 0.00079921 0.00193749 0.00339270 0.00351018 0.00874057 0.00172371 0.00283073 0.01694909 0.00448703 0.00199063 0.00379791 0.00134212 
0.08889501 0.03424082 0.01768406 0.00229703 0.00080727 0.00197010 0.00338704 0.00337347 0.00916394 0.00177497 0.00289035 0.01729739 0.00448067 0.00198865 0.00379192 0.00133935 
0.08949452 0.03498653 0.01760427 0.00227088 0.00081500 0.00200391 0.00339797 0.00324021 0.00962567 0.00182801 0.00295102 0.01763442 0.00447825 0.00198525 0.00378261 0.00133664 
0.09002885 0.03570734 0.01750216 0.00224416 0.00082239 0.00203883 0.00342533 0.00311113 0.01012350 0.00188267 0.00301255 0.01795804 0.00448036 0.00198038 0.00376997 0.00133399 
0.09049961 0.03640024 0.01737774 0.00221702 0.00082941 0.00207476 0.00346889 0.00298696 0.01065503 0.00193884 0.00307478 0.01826617 0.00448752 0.00197400 0.00375401 0.00133141 
0.09090897 0.03706232 0.01723114 0.00218961 0.00083603 0.00211160 0.00352836 0.00286842 0.01121776 0.00199637 0.00313752 0.01855678 0.00450027 0.00196607 0.00373475 0.00132890 
0.09125966 0.03769085 0.01706257 0.00216207 0.00084223 0.00214924 0.00360335 0.00275621 0.01180908 0.00205511 0.00320059 0.01882791 0.00451909 0.00195655 0.00371224 0.00132647 
0.09155492 0.03828323 0.01687238 0.00213455 0.00084800 0.00218756 0.00369343 0.00265102 0.01242631 0.00211490 0.00326381 0.01907769 0.00454443 0.00194541 0.00368654 0.00132413 
0.09179845 0.03883704 0.01666100 0.00210720 0.00085332 0.00222644 0.00379809 0.00255352 0.01306669 0.00217558 0.00332700 0.01930432 0.00457670 0.00193265 0.00365775 0.00132187 
0.09199441 0.03935004 0.01642899 0.00208016 0.00085818 0.00226575 0.00391676 0.00246435 0.01372739 0.00223700 0.00338996 0.01950613 0.00461627 0.00191825 0.00362597 0.00131971 
0.09214731 0.03982018 0.01617700 0.00205357 0.00086256 0.00230535 0.00404882 0.00238412 0.01440556 0.00229896 0.00345252 0.01968158 0.00466345 0.00190222 0.00359132 0.00131764 
0.09226203 0.04024561 0.01590577 0.00202756 0.00086645 0.00234511 0.00419357 0.00231341 0.01509828 0.00236132 0.00351449 0.01982924 0.00471850 0.00188455 0.00355395 0.00131566 
0.09234372 0.04062470 0.01561616 0.00200226 0.00086985 0.00238488 0.00435028 0.00225277 0.01580262 0.00242388 0.00357570 0.01994783 0.00478164 0.00186528 0.00351403 0.00131378 
0.09239776 0.04095604 0.01530911 0.00197780 0.00087276 0.00242452 0.00451819 0.00220268 0.01651565 0.00248646 0.00363596 0.02003624 0.00485301 0.00184442 0.00347173 0.00131200 
0.09242972 0.04123846 0.01498566 0.00195428 0.00087516 0.00246388 0.00469645 0.00216363 0.01723441 0.00254890 0.00369511 0.02009350 0.00493271 0.00182202 0.00342726 0.00131030 
0.09244526 0.04147100 0.01464691 0.00193182 0.00087705 0.00250283 0.00488422 0.00213601 0.01795599 0.00261101 0.00375298 0.02011882 0.00502077 0.00179811 0.00338081 0.00130870 
0.09245012 0.04165297 0.01429407 0.00191050 0.00087844 0.00254120 0.00508060 0.00212020 0.01867747 0.00267260 0.00380939 0.02011161 0.00511715 0.00177275 0.00333263 0.00130719 
0.09245003 0.04178390 0.01392840 0.00189043 0.00087933 0.00257886 0.00528467 0.00211650 0.01939599 0.00273351 0.00386419 0.02007144 0.00522176 0.00174601 0.00328294 0.00130576 
0.09245064 0.04186361 0.01355124 0.00187167 0.00087972 0.00261565 0.00549548 0.00212519 0.02010872 0.00279355 0.00391723 0.01999807 0.00533445 0.00171795 0.00323201 0.00130442 
0.09245751 0.04189212 0.01316397 0.00185430 0.00087960 0.00265144 0.00571209 0.00214646 0.02081290 0.00285256 0.00396835 0.01989147 0.00545499 0.00168867 0.00318009 0.00130315 
0.09247596 0.04186976 0.01276805 0.00183837 0.00087900 0.00268610 0.00593350 0.00218046 0.02150584 0.00291036 0.00401742 0.01975179 0.00558310 0.00165824 0.00312745 0.00130196 
0.09251113 0.04179705 0.01236496 0.00182394 0.00087792 0.00271947 0.00615875 0.00222728 0.02218492 0.00296678 0.00406431 0.01957940 0.00571842 0.00162677 0.00307436 0.00130085 
0.09256780 0.04167482 0.01195622 0.00181103 0.00087636 0.00275144 0.00638685 0.00228695 0.02284760 0.00302167 0.00410888 0.01937484 0.00586057 0.00159437 0.00302112 0.00129979 
0.09265045 0.04150412 0.01154340 0.00179968 0.00087434 0.00278188 0.00661681 0.00235943 0.02349146 0.00307487 0.00415103 0.01913887 0.00600906 0.00156114 0.00296800 0.00129881 
0.09276312 0.04128623 0.01112806 0.00178989 0.00087185 0.00281068 0.00684766 0.00244463 0.02411417 0.00312624 0.00419064 0.01887243 0.00616339 0.00152721 0.00291529 0.00129788 
0.09290941 0.04102269 0.01071180 0.00178167 0.00086893 0.00283772 0.00707844 0.00254239 0.02471352 0.00317564 0.00422763 0.01857666 0.00632299 0.00149271 0.00286328 0.00129700 
0.09309244 0.04071526 0.01029621 0.00177501 0.00086557 0.00286291 0.00730820 0.00265250 0.02528742 0.00322293 0.00426191 0.01825289 0.00648722 0.00145776 0.00281226 0.00129617 
0.09331477 0.04036594 0.00988287 0.00176990 0.00086179 0.00288614 0.00753600 0.00277467 0.02583389 0.00326798 0.00429340 0.01790261 0.00665544 0.00142251 0.00276251 0.00129539 
0.09357842 0.03997692 0.00947335 0.00176629 0.00085761 0.00290735 0.00776095 0.00290856 0.02635111 0.00331070 0.00432204 0.01752749 0.00682693 0.00138710 0.00271431 0.00129465 
0.09388480 0.03955061 0.00906922 0.00176416 0.00085303 0.00292645 0.00798217 0.00305378 0.02683737 0.00335096 0.00434779 0.01712937 0.00700096 0.00135169 0.00266793 0.00129394 
0.09423469 0.03908959 0.00867201 0.00176345 0.00084807 0.00294338 0.00819882 0.00320987 0.02729113 0.00338868 0.00437060 0.01671025 0.00717674 0.00131641 0.00262363 0.00129327 
0.09462825 0.03859665 0.00828319 0.00176409 0.00084275 0.00295809 0.00841008 0.00337630 0.02771097 0.00342378 0.00439045 0.01627225 0.00735349 0.00128143 0.00258168 0.00129263 
0.09506498 0.03807472 0.00790422 0.00176603 0.00083708 0.00297054 0.00861520 0.00355253 0.02809564 0.00345617 0.00440732 0.01581765 0.00753038 0.00124689 0.00254230 0.00129202 
0.09554371 0.03752689 0.00753650 0.00176917 0.00083107 0.00298070 0.00881344 0.00373792 0.02844401 0.00348580 0.00442123 0.01534882 0.00770658 0.00121297 0.00250574 0.00129143 
0.09606263 0.03695638 0.00718136 0.00177345 0.00082475 0.00298854 0.00900413 0.00393182 0.02875514 0.00351261 0.00443217 0.01486825 0.00788124 0.00117981 0.00247220 0.00129086 
0.09661926 0.03636652 0.00684008 0.00177875 0.00081812 0.00299407 0.00918662 0.00413350 0.02902820 0.00353658 0.00444019 0.01437854 0.00805353 0.00114757 0.00244189 0.00129032 
0.09721048 0.03576075 0.00651387 0.00178499 0.00081120 0.00299729 0.00936034 0.00434222 0.02926254 0.00355766 0.00444531 0.01388234 0.00822259 0.00111642 0.00241499 0.00128979 
0.09783256 0.03514260 0.00620386 0.00179205 0.00080400 0.00299821 0.00952474 0.00455717 0.02945765 0.00357586 0.00444760 0.01338237 0.00838761 0.00108649 0.00239168 0.00128928 
0.09848114 0.03451564 0.00591110 0.00179982 0.00079655 0.00299687 0.00967935 0.00477754 0.02961316 0.00359115 0.00444711 0.01288140 0.00854774 0.00105795 0.00237208 0.00128878 
0.09915130 0.03388349 0.00563655 0.00180819 0.00078886 0.00299330 0.00982373 0.00500246 0.02972886 0.00360355 0.00444394 0.01238224 0.00870221 0.00103095 0.00235635 0.00128831 
0.09983758 0.03324981 0.00538110 0.00181703 0.00078093 0.00298755 0.00995751 0.00523105 0.02980468 0.00361308 0.00443817 0.01188771 0.00885024 0.00100562 0.00234457 0.00128785 
0.10053404 0.03261825 0.00514553 0.00182623 0.00077280 0.00297968 0.01008038 0.00546241 0.02984067 0.00361978 0.00442991 0.01140061 0.00899110 0.00098211 0.00233684 0.00128740 
0.10123425 0.03199245 0.00493052 0.00183566 0.00076447 0.00296977 0.01019206 0.00569560 0.02983704 0.00362368 0.00441927 0.01092377 0.00912408 0.00096054 0.00233323 0.00128697 
0.10193140 0.03137599 0.00473668 0.00184519 0.00075595 0.00295790 0.01029236 0.00592969 0.02979411 0.00362483 0.00440639 0.01045993 0.00924855 0.00094105 0.00233377 0.00128656 
0.10261833 0.03077243 0.00456450 0.00185469 0.00074727 0.00294417 0.01038112 0.00616375 0.02971234 0.00362330 0.00439140 0.01001182 0.00936389 0.00092376 0.00233848 0.00128617 
0.10328758 0.03018524 0.00441436 0.00186404 0.00073844 0.00292866 0.01045825 0.00639682 0.02959229 0.00361917 0.00437446 0.00958211 0.00946956 0.00090877 0.00234737 0.00128580 
0.10393147 0.02961777 0.00428656 0.00187311 0.00072947 0.00291149 0.01052370 0.00662795 0.02943465 0.00361252 0.00435571 0.00917336 0.00956508 0.00089618 0.00236041 0.00128546 
0.10454213 0.02907329 0.00418129 0.00188178 0.00072039 0.00289279 0.01057749 0.00685622 0.02924020 0.00360345 0.00433534 0.00878806 0.00965002 0.00088610 0.00237755 0.00128514 
0.10511162 0.02855492 0.00409864 0.00188992 0.00071119 0.00287266 0.01061968 0.00708069 0.02900984 0.00359204 0.00431351 0.00842858 0.00972402 0.00087860 0.00239873 0.00128484 
0.10563194 0.02806562 0.00403860 0.00189743 0.00070191 0.00285125 0.01065039 0.00730045 0.02874454 0.00357842 0.00429041 0.00809719 0.00978680 0.00087376 0.00242384 0.00128457 
0.10609516 0.02760820 0.00400105 0.00190418 0.00069255 0.00282868 0.01066980 0.00751462 0.02844537 0.00356271 0.00426623 0.00779601 0.00983816 0.00087164 0.00245279 0.00128433 
0.10649343 0.02718526 0.00398580 0.00191006 0.00068313 0.00280511 0.01067810 0.00772234 0.02811348 0.00354502 0.00424116 0.00752700 0.00987795 0.00087228 0.00248544 0.00128413 
0.10681909 0.02679921 0.00399254 0.00191498 0.00067367 0.00278066 0.01067557 0.00792278 0.02775008 0.00352549 0.00421540 0.00729200 0.00990612 0.00087574 0.00252163 0.00128396 
0.10706474 0.02645226 0.00402089 0.00191884 0.00066418 0.00275550 0.01066252 0.00811513 0.02735646 0.00350426 0.00418915 0.00709265 0.00992269 0.00088204 0.00256119 0.00128383 
0.10722329 0.02614637 0.00407036 0.00192154 0.00065468 0.00272978 0.01063929 0.00829864 0.02693395 0.00348147 0.00416261 0.00693043 0.00992776 0.00089120 0.00260394 0.00128374 
0.10728803 0.02588327 0.00414039 0.00192299 0.00064518 0.00270363 0.01060628 0.00847260 0.02648394 0.00345726 0.00413599 0.00680663 0.00992153 0.00090321 0.00264966 0.00128369 
0.10725271 0.02566442 0.00423034 0.00192314 0.00063570 0.00267723 0.01056391 0.00863634 0.02600787 0.00343180 0.00410950 0.00672235 0.00990425 0.00091807 0.00269813 0.00128368 
0.10711160 0.02549106 0.00433949 0.00192190 0.00062626 0.00265072 0.01051264 0.00878923 0.02550720 0.00340523 0.00408332 0.00667850 0.00987626 0.00093576 0.00274912 0.00128372 
0.10685953 0.02536411 0.00446706 0.00191922 0.00061688 0.00262424 0.01045299 0.00893071 0.02498345 0.00337770 0.00405766 0.00667579 0.00983799 0.00095625 0.00280236 0.00128381 
0.10649196 0.02528426 0.00461218 0.00191504 0.00060756 0.00259796 0.01038547 0.00906028 0.02443812 0.00334939 0.00403271 0.00671470 0.00978993 0.00097948 0.00285761 0.00128394 
0.10600504 0.02525191 0.00477394 0.00190933 0.00059834 0.00257203 0.01031064 0.00917747 0.02387278 0.00332044 0.00400866 0.00679552 0.00973264 0.00100541 0.00291458 0.00128412 
0.10539563 0.02526716 0.00495138 0.00190205 0.00058922 0.00254657 0.01022910 0.00928188 0.02328899 0.00329101 0.00398570 0.00691834 0.00966677 0.00103395 0.00297299 0.00128436 
0.10466139 0.02532985 0.00514346 0.00189319 0.00058023 0.00252175 0.01014145 0.00937320 0.02268830 0.00326127 0.00396399 0.00708303 0.00959301 0.00106503 0.00303255 0.00128464 
0.10380074 0.02543953 0.00534913 0.00188272 0.00057138 0.00249769 0.01004831 0.00945114 0.02207230 0.00323137 0.00394371 0.00728923 0.00951212 0.00109855 0.00309296 0.00128497 
0.10281296 0.02559548 0.00556728 0.00187065 0.00056269 0.00247452 0.00995034 0.00951549 0.02144257 0.00320146 0.00392500 0.00753641 0.00942493 0.00113441 0.00315392 0.00128535 
0.10169818 0.02579670 0.00579678 0.00185698 0.00055418 0.00245237 0.00984820 0.00956612 0.02080068 0.00317171 0.00390801 0.00782381 0.00933230 0.00117248 0.00321512 0.00128578 
0.10045739 0.02604192 0.00603645 0.00184173 0.00054587 0.00243136 0.00974258 0.00960294 0.02014818 0.00314226 0.00389287 0.00815049 0.00923515 0.00121265 0.00327627 0.00128626 
0.09909247 0.02632961 0.00628512 0.00182493 0.00053777 0.00241161 0.00963415 0.00962593 0.01948665 0.00311325 0.00387971 0.00851530 0.00913442 0.00125478 0.00333706 0.00128678 
0.09760620 0.02665800 0.00654159 0.00180661 0.00052991 0.00239321 0.00952362 0.00963514 0.01881763 0.00308483 0.00386862 0.00891690 0.00903111 0.00129871 0.00339718 0.00128734 
0.09600222 0.02702505 0.00680463 0.00178681 0.00052231 0.00237626 0.00941170 0.00963069 0.01814266 0.00305713 0.00385969 0.00935380 0.00892622 0.00134430 0.00345634 0.00128795 
0.09428505 0.02742853 0.00707305 0.00176561 0.00051498 0.00236086 0.00929909 0.00961272 0.01746324 0.00303029 0.00385300 0.00982429 0.00882078 0.00139137 0.00351425 0.00128859 
0.09246006 0.02786598 0.00734562 0.00174305 0.00050794 0.00234708 0.00918651 0.00958148 0.01678090 0.00300442 0.00384861 0.01032653 0.00871583 0.00143977 0.00357062 0.00128927 
0.09053348 0.02833472 0.00762113 0.00171922 0.00050120 0.00233500 0.00907467 0.00953724 0.01609711 0.00297966 0.00384656 0.01085853 0.00861242 0.00148931 0.00362518 0.00128998 
0.08851229 0.02883192 0.00789838 0.00169419 0.00049480 0.00232468 0.00896427 0.00948034 0.01541334 0.00295610 0.00384687 0.01141814 0.00851158 0.00153981 0.00367767 0.00129072 
0.08640428 0.02935457 0.00817619 0.00166805 0.00048874 0.00231617 0.00885602 0.00941117 0.01473106 0.00293386 0.00384955 0.01200308 0.00841435 0.00159109 0.00372783 0.00129148 
0.08421792 0.02989951 0.00845340 0.00164091 0.00048304 0.00230952 0.00875062 0.00933017 0.01405169 0.00291302 0.00385459 0.01261097 0.00832173 0.00164294 0.00377543 0.00129227 
0.08196240 0.03046345 0.00872887 0.00161287 0.00047772 0.00230477 0.00864875 0.00923782 0.01337667 0.00289368 0.00386196 0.01323930 0.00823471 0.00169518 0.00382024 0.00129306 
0.07964747 0.03104301 0.00900149 0.00158403 0.00047279 0.00230193 0.00855110 0.00913465 0.01270740 0.00287591 0.00387162 0.01388547 0.00815424 0.00174761 0.00386205 0.00129387 
0.07728349 0.03163471 0.00927018 0.00155453 0.00046828 0.00230103 0.00845833 0.00902121 0.01204526 0.00285979 0.00388349 0.01454682 0.00808122 0.00180004 0.00390068 0.00129467 
0.07488127 0.03223501 0.00953389 0.00152447 0.00046418 0.00230208 0.00837108 0.00889810 0.01139165 0.00284536 0.00389751 0.01522060 0.00801652 0.00185226 0.00393596 0.00129548 
0.07245207 0.03284033 0.00979162 0.00149400 0.00046052 0.00230506 0.00828998 0.00876596 0.01074793 0.00283269 0.00391357 0.01590402 0.00796094 0.00190407 0.00396773 0.00129628 
0.07000748 0.03344706 0.01004242 0.00146323 0.00045731 0.00230998 0.00821566 0.00862544 0.01011546 0.00282180 0.00393155 0.01659426 0.00791523 0.00195528 0.00399587 0.00129707 
0.06755939 0.03405160 0.01028536 0.00143232 0.00045456 0.00231680 0.00814871 0.00847721 0.00949559 0.00281274 0.00395133 0.01728844 0.00788007 0.00200571 0.00402026 0.00129784 
0.06511987 0.03465037 0.01051957 0.00140139 0.00045227 0.00232551 0.00808969 0.00832198 0.00888965 0.00280553 0.00397276 0.01798371 0.00785606 0.00205515 0.00404082 0.00129858 
0.06270110 0.03523985 0.01074424 0.00137060 0.00045047 0.00233605 0.00803915 0.00816044 0.00829899 0.00280017 0.00399567 0.01867721 0.00784374 0.00210342 0.00405749 0.00129930 
0.06031531 0.03581656 0.01095860 0.00134008 0.00044914 0.00234840 0.00799762 0.00799333 0.00772493 0.00279666 0.00401990 0.01936609 0.00784354 0.00215035 0.00407021 0.00129998 
0.05797468 0.03637713 0.01116192 0.00130997 0.00044831 0.00236248 0.00796558 0.00782137 0.00716880 0.00279499 0.00404525 0.02004754 0.00785582 0.00219576 0.00407898 0.00130062 
0.05569125 0.03691829 0.01135355 0.00128043 0.00044797 0.00237824 0.00794350 0.00764528 0.00663192 0.00279515 0.00407153 0.02071880 0.00788086 0.00223948 0.00408380 0.00130121 
0.05347683 0.03743691 0.01153289 0.00125160 0.00044812 0.00239562 0.00793180 0.00746580 0.00611559 0.00279710 0.00409852 0.02137715 0.00791884 0.00228137 0.00408469 0.00130176 
0.05134297 0.03792998 0.01169938 0.00122361 0.00044877 0.00241452 0.00793090 0.00728364 0.00562115 0.00280080 0.00412601 0.02201997 0.00796983 0.00232126 0.00408171 0.00130224 
0.04930082 0.03839467 0.01185253 0.00119661 0.00044991 0.00243488 0.00794115 0.00709953 0.00514990 0.00280621 0.00415377 0.02264470 0.00803382 0.00235902 0.00407493 0.00130267 
0.04736107 0.03882835 0.01199191 0.00117074 0.00045154 0.00245660 0.00796288 0.00691415 0.00470314 0.00281327 0.00418157 0.02324889 0.00811069 0.00239453 0.00406445 0.00130303 
0.04553388 0.03922855 0.01211714 0.00114612 0.00045366 0.00247958 0.00799639 0.00672819 0.00428217 0.00282190 0.00420916 0.02383018 0.00820025 0.00242767 0.00405039 0.00130333 
0.04382883 0.03959303 0.01222790 0.00112289 0.00045625 0.00250374 0.00804192 0.00654232 0.00388830 0.00283204 0.00423631 0.02438636 0.00830219 0.00245833 0.00403289 0.00130355 
0.04225480 0.03991977 0.01232394 0.00110116 0.00045932 0.00252895 0.00809970 0.00635718 0.00352280 0.00284360 0.00426278 0.02491531 0.00841610 0.00248642 0.00401211 0.00130371 
0.04081996 0.04020698 0.01240505 0.00108107 0.00046284 0.00255512 0.00816989 0.00617338 0.00318696 0.00285648 0.00428831 0.02541508 0.00854149 0.00251186 0.00398822 0.00130378 
0.03953166 0.04045312 0.01247108 0.00106271 0.00046681 0.00258212 0.00825262 0.00599153 0.00288205 0.00287059 0.00431266 0.02588384 0.00867777 0.00253459 0.00396144 0.00130378 
0.03839642 0.04065688 0.01252195 0.00104619 0.00047122 0.00260985 0.00834797 0.00581219 0.00260930 0.00288581 0.00433560 0.02631993 0.00882428 0.00255455 0.00393197 0.00130370 
0.03741987 0.04081722 0.01255762 0.00103160 0.00047604 0.00263818 0.00845600 0.00563588 0.00236996 0.00290205 0.00435689 0.02672184 0.00898025 0.00257170 0.00390005 0.00130353 
0.03660669 0.04093336 0.01257812 0.00101904 0.00048125 0.00266699 0.00857668 0.00546311 0.00216523 0.00291917 0.00437628 0.02708823 0.00914485 0.00258603 0.00386594 0.00130329 
0.03596058 0.04100479 0.01258352 0.00100857 0.00048685 0.00269616 0.00870997 0.00529436 0.00199629 0.00293706 0.00439357 0.02741794 0.00931716 0.00259752 0.00382988 0.00130297 
0.03548427 0.04103124 0.01257394 0.00100027 0.00049281 0.00272556 0.00885578 0.00513004 0.00186428 0.00295559 0.00440853 0.02770997 0.00949622 0.00260618 0.00379217 0.00130258 
0.03517942 0.04101273 0.01254957 0.00099420 0.00049910 0.00275508 0.00901394 0.00497057 0.00177033 0.00297463 0.00442096 0.02796352 0.00968098 0.00261203 0.00375307 0.00130210 
0.03504670 0.04094951 0.01251064 0.00099040 0.00050570 0.00278457 0.00918427 0.00481632 0.00171549 0.00299403 0.00443066 0.02817794 0.00987034 0.00261510 0.00371290 0.00130155 
0.03508571 0.04084211 0.01245741 0.00098891 0.00051259 0.00281392 0.00936651 0.00466760 0.00170077 0.00301367 0.00443745 0.02835280 0.01006317 0.00261544 0.00367194 0.00130093 
0.03529498 0.04069130 0.01239022 0.00098976 0.00051973 0.00284301 0.00956038 0.00452472 0.00172715 0.00303341 0.00444117 0.02848783 0.01025826 0.00261311 0.00363052 0.00130025 
0.03567204 0.04049810 0.01230943 0.00099295 0.00052711 0.00287170 0.00976553 0.00438793 0.00179552 0.00305310 0.00444165 0.02858295 0.01045442 0.00260820 0.00358893 0.00129950 
0.03621338 0.04026374 0.01221545 0.00099849 0.00053470 0.00289988 0.00998157 0.00425747 0.00190670 0.00307261 0.00443877 0.02863827 0.01065038 0.00260079 0.00354749 0.00129869 
0.03691447 0.03998970 0.01210873 0.00100638 0.00054245 0.00292744 0.01020804 0.00413353 0.00206146 0.00309179 0.00443239 0.02865408 0.01084490 0.00259099 0.00350652 0.00129783 
0.03776980 0.03967767 0.01198976 0.00101658 0.00055036 0.00295424 0.01044447 0.00401627 0.00226044 0.00311052 0.00442243 0.02863083 0.01103671 0.00257890 0.00346634 0.00129693 
0.03877294 0.03932953 0.01185906 0.00102908 0.00055837 0.00298019 0.01069031 0.00390583 0.00250423 0.00312866 0.00440878 0.02856917 0.01122453 0.00256466 0.00342724 0.00129598 
0.03991654 0.03894733 0.01171720 0.00104382 0.00056647 0.00300517 0.01094497 0.00380230 0.00279330 0.00314607 0.00439139 0.02846991 0.01140712 0.00254841 0.00338955 0.00129500 
0.04119239 0.03853333 0.01156476 0.00106074 0.00057463 0.00302908 0.01120782 0.00370577 0.00312802 0.00316263 0.00437020 0.02833403 0.01158322 0.00253029 0.00335354 0.00129399 
0.04259149 0.03808990 0.01140237 0.00107979 0.00058280 0.00305181 0.01147819 0.00361628 0.00350864 0.00317820 0.00434520 0.02816266 0.01175164 0.00251047 0.00331953 0.00129296 
0.04410407 0.03761959 0.01123067 0.00110087 0.00059097 0.00307328 0.01175534 0.00353386 0.00393530 0.00319269 0.00431637 0.02795708 0.01191117 0.00248910 0.00328778 0.00129193 
0.04571971 0.03712504 0.01105034 0.00112392 0.00059910 0.00309339 0.01203852 0.00345851 0.00440798 0.00320597 0.00428373 0.02771875 0.01206069 0.00246636 0.00325856 0.00129088 
0.04742735 0.03660900 0.01086206 0.00114881 0.00060716 0.00311206 0.01232693 0.00339023 0.00492656 0.00321793 0.00424730 0.02744922 0.01219911 0.00244244 0.00323214 0.00128985 
0.04921540 0.03607431 0.01066655 0.00117545 0.00061512 0.00312921 0.01261971 0.00332897 0.00549076 0.00322848 0.00420714 0.02715021 0.01232539 0.00241752 0.00320875 0.00128883 
0.05107181 0.03552388 0.01046454 0.00120372 0.00062295 0.00314477 0.01291600 0.00327468 0.00610016 0.00323752 0.00416332 0.02682354 0.01243857 0.00239179 0.00318862 0.00128783 
0.05298414 0.03496065 0.01025677 0.00123350 0.00063064 0.00315868 0.01321487 0.00322731 0.00675416 0.00324498 0.00411592 0.02647115 0.01253776 0.00236544 0.00317197 0.00128686 
0.05493963 0.03438760 0.01004399 0.00126464 0.00063814 0.00317088 0.01351540 0.00318678 0.00745204 0.00325078 0.00406506 0.02609507 0.01262213 0.00233867 0.00315898 0.00128593 
0.05692532 0.03380772 0.00982695 0.00129701 0.00064544 0.00318133 0.01381660 0.00315300 0.00819290 0.00325485 0.00401086 0.02569744 0.01269095 0.00231168 0.00314982 0.00128505 
0.05892809 0.03322399 0.00960642 0.00133045 0.00065251 0.00318997 0.01411749 0.00312588 0.00897564 0.00325714 0.00395346 0.02528048 0.01274358 0.00228467 0.00314466 0.00128422 
0.06093480 0.03263937 0.00938317 0.00136482 0.00065933 0.00319677 0.01441704 0.00310533 0.00979905 0.00325761 0.00389302 0.02484646 0.01277945 0.00225783 0.00314361 0.00128346 
0.06293232 0.03205675 0.00915796 0.00139996 0.00066589 0.00320172 0.01471423 0.00309124 0.01066170 0.00325621 0.00382971 0.02439774 0.01279812 0.00223135 0.00314680 0.00128277 
0.06490764 0.03147899 0.00893154 0.00143571 0.00067215 0.00320478 0.01500801 0.00308351 0.01156200 0.00325293 0.00376372 0.02393670 0.01279921 0.00220543 0.00315432 0.00128216 
0.06684798 0.03090885 0.00870468 0.00147189 0.00067812 0.00320595 0.01529731 0.00308204 0.01249819 0.00324774 0.00369525 0.02346579 0.01278248 0.00218025 0.00316622 0.00128164 
0.06874082 0.03034900 0.00847811 0.00150835 0.00068376 0.00320523 0.01558109 0.00308673 0.01346833 0.00324065 0.00362451 0.02298745 0.01274776 0.00215598 0.00318256 0.00128121 
0.07057402 0.02980200 0.00825256 0.00154491 0.00068908 0.00320262 0.01585825 0.00309746 0.01447031 0.00323165 0.00355171 0.02250416 0.01269502 0.00213281 0.00320336 0.00128088 
0.07233588 0.02927029 0.00802874 0.00158141 0.00069405 0.00319813 0.01612776 0.00311415 0.01550184 0.00322078 0.00347708 0.02201840 0.01262431 0.00211090 0.00322862 0.00128066 
0.07401524 0.02875617 0.00780735 0.00161768 0.00069868 0.00319180 0.01638854 0.00313671 0.01656048 0.00320805 0.00340087 0.02153265 0.01253579 0.00209039 0.00325831 0.00128055 
0.07560152 0.02826178 0.00758907 0.00165355 0.00070295 0.00318364 0.01663956 0.00316505 0.01764362 0.00319351 0.00332332 0.02104935 0.01242972 0.00207144 0.00329239 0.00128055 
0.07708479 0.02778912 0.00737454 0.00168886 0.00070686 0.00317369 0.01687978 0.00319909 0.01874849 0.00317719 0.00324467 0.02057094 0.01230649 0.00205418 0.00333079 0.00128067 
0.07845585 0.02734000 0.00716439 0.00172346 0.00071041 0.00316201 0.01710820 0.00323875 0.01987215 0.00315917 0.00316517 0.02009979 0.01216654 0.00203872 0.00337344 0.00128092 
0.07970630 0.02691607 0.00695921 0.00175718 0.00071360 0.00314864 0.01732383 0.00328397 0.02101156 0.00313950 0.00308508 0.01963824 0.01201047 0.00202519 0.00342021 0.00128129 
0.08082854 0.02651878 0.00675958 0.00178987 0.00071643 0.00313364 0.01752572 0.00333470 0.02216352 0.00311826 0.00300464 0.01918857 0.01183892 0.00201366 0.00347098 0.00128178 
0.08181587 0.02614938 0.00656603 0.00182140 0.00071891 0.00311708 0.01771295 0.00339088 0.02332469 0.00309554 0.00292411 0.01875300 0.01165264 0.00200424 0.00352560 0.00128240 
0.08266248 0.02580895 0.00637906 0.00185163 0.00072104 0.00309903 0.01788466 0.00345246 0.02449165 0.00307143 0.00284373 0.01833363 0.01145248 0.00199697 0.00358391 0.00128314 
0.08336354 0.02549832 0.00619914 0.00188043 0.00072284 0.00307958 0.01804001 0.00351943 0.02566085 0.00304602 0.00276376 0.01793253 0.01123935 0.00199192 0.00364573 0.00128402 
0.08391519 0.02521818 0.00602669 0.00190768 0.00072431 0.00305880 0.01817821 0.00359174 0.02682867 0.00301944 0.00268442 0.01755163 0.01101424 0.00198912 0.00371085 0.00128501 
0.08431454 0.02496896 0.00586211 0.00193327 0.00072547 0.00303678 0.01829855 0.00366937 0.02799139 0.00299177 0.00260595 0.01719277 0.01077822 0.00198859 0.00377908 0.00128613 
0.08455976 0.02475091 0.00570576 0.00195710 0.00072633 0.00301363 0.01840035 0.00375231 0.02914525 0.00296316 0.00252858 0.01685769 0.01053240 0.00199034 0.00385017 0.00128736 
0.08465000 0.02456407 0.00555794 0.00197909 0.00072690 0.00298944 0.01848301 0.00384055 0.03028644 0.00293371 0.00245252 0.01654800 0.01027796 0.00199436 0.00392390 0.00128871 
0.08458544 0.02440829 0.00541894 0.00199914 0.00072720 0.00296431 0.01854601 0.00393408 0.03141111 0.00290356 0.00237797 0.01626519 0.01001612 0.00200061 0.00400003 0.00129016 
0.08436727 0.02428321 0.00528898 0.00201720 0.00072726 0.00293836 0.01858886 0.00403289 0.03251539 0.00287283 0.00230513 0.01601060 0.00974816 0.00200906 0.00407829 0.00129172 
0.08399768 0.02418829 0.00516827 0.00203321 0.00072709 0.00291169 0.01861120 0.00413699 0.03359542 0.00284166 0.00223418 0.01578548 0.00947537 0.00201965 0.00415842 0.00129338 
0.08347984 0.02412279 0.00505695 0.00204712 0.00072670 0.00288442 0.01861272 0.00424637 0.03464736 0.00281018 0.00216529 0.01559088 0.00919907 0.00203231 0.00424016 0.00129513 
0.08281784 0.02408580 0.00495514 0.00205891 0.00072613 0.00285666 0.01859318 0.00436103 0.03566740 0.00277853 0.00209863 0.01542776 0.00892062 0.00204695 0.00432323 0.00129695 
0.08201673 0.02407623 0.00486293 0.00206856 0.00072540 0.00282853 0.01855245 0.00448096 0.03665179 0.00274683 0.00203432 0.01529690 0.00864135 0.00206347 0.00440737 0.00129885 
0.08108240 0.02409285 0.00478034 0.00207605 0.00072452 0.00280015 0.01849050 0.00460616 0.03759686 0.00271523 0.00197250 0.01519893 0.00836262 0.00208175 0.00449229 0.00130082 
0.08002160 0.02413426 0.00470739 0.00208140 0.00072352 0.00277163 0.01840735 0.00473662 0.03849900 0.00268385 0.00191329 0.01513435 0.00808578 0.00210168 0.00457773 0.00130284 
0.07884183 0.02419891 0.00464404 0.00208461 0.00072243 0.00274309 0.01830315 0.00487232 0.03935474 0.00265283 0.00185678 0.01510349 0.00781217 0.00212311 0.00466342 0.00130491 
0.07755134 0.02428514 0.00459023 0.00208573 0.00072126 0.00271465 0.01817813 0.00501323 0.04016071 0.00262228 0.00180306 0.01510652 0.00754309 0.00214589 0.00474908 0.00130701 
0.07615904 0.02439117 0.00454586 0.00208479 0.00072005 0.00268642 0.01803262 0.00515932 0.04091372 0.00259234 0.00175219 0.01514346 0.00727984 0.00216987 0.00483447 0.00130913 
0.07467444 0.02451509 0.00451081 0.00208185 0.00071880 0.00265852 0.01786706 0.00531055 0.04161070 0.00256312 0.00170422 0.01521417 0.00702365 0.00219488 0.00491931 0.00131127 
0.07310758 0.02465491 0.00448492 0.00207697 0.00071755 0.00263106 0.01768195 0.00546687 0.04224878 0.00253472 0.00165920 0.01531838 0.00677574 0.00222074 0.00500338 0.00131341 
0.07146896 0.02480858 0.00446802 0.00207021 0.00071632 0.00260415 0.01747793 0.00562820 0.04282527 0.00250726 0.00161715 0.01545563 0.00653726 0.00224727 0.00508643 0.00131555 
0.06976949 0.02497396 0.00445990 0.00206168 0.00071513 0.00257789 0.01725572 0.00579448 0.04333771 0.00248084 0.00157807 0.01562534 0.00630931 0.00227429 0.00516824 0.00131766 
0.06802036 0.02514885 0.00446035 0.00205145 0.00071399 0.00255238 0.01701613 0.00596560 0.04378386 0.00245554 0.00154197 0.01582677 0.00609294 0.00230161 0.00524860 0.00131974 
0.06623303 0.02533103 0.00446912 0.00203964 0.00071293 0.00252772 0.01676008 0.00614146 0.04416168 0.00243145 0.00150882 0.01605903 0.00588911 0.00232903 0.00532729 0.00132178 
0.06441910 0.02551824 0.00448595 0.00202634 0.00071197 0.00250400 0.01648856 0.00632194 0.04446944 0.00240865 0.00147858 0.01632111 0.00569873 0.00235636 0.00540415 0.00132376 
0.06259025 0.02570822 0.00451059 0.00201169 0.00071111 0.00248131 0.01620266 0.00650690 0.04470563 0.00238721 0.00145123 0.01661184 0.00552261 0.00238340 0.00547898 0.00132569 
0.06075815 0.02589870 0.00454276 0.00199579 0.00071039 0.00245973 0.01590357 0.00669619 0.04486902 0.00236717 0.00142670 0.01692994 0.00536152 0.00240997 0.00555164 0.00132753 
0.05893441 0.02608743 0.00458217 0.00197878 0.00070980 0.00243933 0.01559255 0.00688964 0.04495868 0.00234860 0.00140492 0.01727399 0.00521610 0.00243587 0.00562199 0.00132929 
0.05713047 0.02627219 0.00462853 0.00196079 0.00070937 0.00242019 0.01527093 0.00708705 0.04497396 0.00233153 0.00138582 0.01764246 0.00508693 0.00246091 0.00568988 0.00133096 
0.05535754 0.02645080 0.00468156 0.00194196 0.00070910 0.00240237 0.01494013 0.00728822 0.04491451 0.00231600 0.00136932 0.01803371 0.00497450 0.00248492 0.00575523 0.00133252 
0.05362652 0.02662114 0.00474096 0.00192242 0.00070900 0.00238592 0.01460163 0.00749294 0.04478028 0.00230202 0.00135532 0.01844598 0.00487919 0.00250772 0.00581792 0.00133397 
0.05194793 0.02678113 0.00480645 0.00190232 0.00070908 0.00237090 0.01425697 0.00770097 0.04457153 0.00228961 0.00134372 0.01887742 0.00480131 0.00252915 0.00587788 0.00133531 
0.05033186 0.02692880 0.00487775 0.00188180 0.00070934 0.00235734 0.01390775 0.00791205 0.04428884 0.00227877 0.00133442 0.01932609 0.00474106 0.00254903 0.00593505 0.00133651 
0.04878788 0.02706225 0.00495459 0.00186100 0.00070979 0.00234529 0.01355562 0.00812592 0.04393309 0.00226949 0.00132731 0.01978997 0.00469855 0.00256723 0.00598938 0.00133758 
0.04732497 0.02717969 0.00503669 0.00184005 0.00071043 0.00233477 0.01320228 0.00834231 0.04350548 0.00226176 0.00132227 0.02026696 0.00467380 0.00258360 0.00604083 0.00133851 
0.04595151 0.02727943 0.00512382 0.00181911 0.00071126 0.00232580 0.01284945 0.00856091 0.04300753 0.00225555 0.00131918 0.02075490 0.00466672 0.00259802 0.00608940 0.00133929 
0.04467519 0.02735989 0.00521573 0.00179829 0.00071228 0.00231841 0.01249888 0.00878144 0.04244105 0.00225084 0.00131793 0.02125156 0.00467715 0.00261038 0.00613508 0.00133992 
0.04350295 0.02741965 0.00531219 0.00177773 0.00071348 0.00231259 0.01215235 0.00900356 0.04180815 0.00224757 0.00131840 0.02175468 0.00470482 0.00262056 0.00617788 0.00134040 
0.04244100 0.02745738 0.00541300 0.00175757 0.00071486 0.00230836 0.01181165 0.00922697 0.04111127 0.00224571 0.00132046 0.02226195 0.00474938 0.00262849 0.00621783 0.00134073 
0.04149472 0.02747193 0.00551796 0.00173791 0.00071642 0.00230570 0.01147856 0.00945132 0.04035311 0.00224519 0.00132400 0.02277104 0.00481039 0.00263408 0.00625496 0.00134090 
0.04066865 0.02746228 0.00562689 0.00171888 0.00071813 0.00230459 0.01115485 0.00967630 0.03953666 0.00224596 0.00132889 0.02327958 0.00488732 0.00263729 0.00628931 0.00134091 
0.03996649 0.02742756 0.00573963 0.00170058 0.00072000 0.00230504 0.01084231 0.00990156 0.03866519 0.00224794 0.00133503 0.02378523 0.00497957 0.00263806 0.00632095 0.00134077 
0.03939105 0.02736707 0.00585604 0.00168311 0.00072201 0.00230700 0.01054265 0.01012676 0.03774220 0.00225107 0.00134231 0.02428560 0.00508647 0.00263636 0.00634995 0.00134047 
0.03894423 0.02728025 0.00597599 0.00166656 0.00072415 0.00231045 0.01025759 0.01035157 0.03677148 0.00225526 0.00135062 0.02477835 0.00520724 0.00263219 0.00637637 0.00134002 
0.03862707 0.02716675 0.00609938 0.00165103 0.00072641 0.00231536 0.00998878 0.01057565 0.03575701 0.00226043 0.00135985 0.02526114 0.00534109 0.00262554 0.00640030 0.00133942 
0.03843967 0.02702633 0.00622610 0.00163657 0.00072877 0.00232167 0.00973784 0.01079866 0.03470302 0.00226650 0.00136991 0.02573166 0.00548710 0.00261643 0.00642182 0.00133868 
0.03838127 0.02685895 0.00635608 0.00162326 0.00073121 0.00232936 0.00950631 0.01102029 0.03361392 0.00227338 0.00138072 0.02618767 0.00564435 0.00260490 0.00644103 0.00133779 
0.03845019 0.02666476 0.00648926 0.00161114 0.00073373 0.00233836 0.00929566 0.01124021 0.03249431 0.00228098 0.00139219 0.02662693 0.00581184 0.00259098 0.00645801 0.00133678 
0.03864392 0.02644402 0.00662557 0.00160027 0.00073630 0.00234863 0.00910730 0.01145812 0.03134896 0.00228921 0.00140424 0.02704730 0.00598852 0.00257474 0.00647288 0.00133563 
0.03895909 0.02619722 0.00676499 0.00159068 0.00073890 0.00236010 0.00894253 0.01167373 0.03018278 0.00229797 0.00141681 0.02744669 0.00617330 0.00255626 0.00648572 0.00133437 
0.03939150 0.02592498 0.00690746 0.00158239 0.00074152 0.00237271 0.00880256 0.01188676 0.02900082 0.00230718 0.00142985 0.02782309 0.00636507 0.00253562 0.00649663 0.00133299 
0.03993619 0.02562809 0.00705297 0.00157542 0.00074413 0.00238640 0.00868850 0.01209693 0.02780820 0.00231674 0.00144329 0.02817459 0.00656267 0.00251292 0.00650570 0.00133152 
0.04058746 0.02530750 0.00720149 0.00156976 0.00074673 0.00240111 0.00860135 0.01230402 0.02661016 0.00232657 0.00145709 0.02849934 0.00676492 0.00248827 0.00651304 0.00132995 
0.04133888 0.02496433 0.00735300 0.00156542 0.00074930 0.00241677 0.00854198 0.01250779 0.02541199 0.00233659 0.00147123 0.02879565 0.00697065 0.00246180 0.00651873 0.00132830 
0.04218339 0.02459983 0.00750748 0.00156236 0.00075181 0.00243330 0.00851116 0.01270804 0.02421903 0.00234670 0.00148567 0.02906189 0.00717865 0.00243364 0.00652286 0.00132658 
0.04311331 0.02421540 0.00766490 0.00156058 0.00075424 0.00245063 0.00850950 0.01290458 0.02303663 0.00235683 0.00150039 0.02929659 0.00738772 0.00240393 0.00652551 0.00132480 
0.04412043 0.02381260 0.00782523 0.00156002 0.00075659 0.00246870 0.00853750 0.01309725 0.02187013 0.00236690 0.00151540 0.02949838 0.00759665 0.00237282 0.00652675 0.00132297 
0.04519604 0.02339310 0.00798843 0.00156066 0.00075884 0.00248743 0.00859551 0.01328592 0.02072485 0.00237685 0.00153067 0.02966605 0.00780426 0.00234046 0.00652666 0.00132111 
0.04633098 0.02295871 0.00815446 0.00156242 0.00076096 0.00250676 0.00868372 0.01347047 0.01960607 0.00238661 0.00154623 0.02979851 0.00800936 0.00230703 0.00652530 0.00131923 
0.04751575 0.02251134 0.00832325 0.00156525 0.00076295 0.00252660 0.00880221 0.01365082 0.01851899 0.00239613 0.00156208 0.02989483 0.00821081 0.00227268 0.00652272 0.00131734 
0.04874054 0.02205303 0.00849472 0.00156909 0.00076479 0.00254689 0.00895088 0.01382691 0.01746872 0.00240535 0.00157823 0.02995424 0.00840749 0.00223758 0.00651897 0.00131545 
0.04999530 0.02158591 0.00866877 0.00157385 0.00076648 0.00256756 0.00912949 0.01399870 0.01646026 0.00241423 0.00159472 0.02997612 0.00859829 0.00220192 0.00651410 0.00131358 
0.05126979 0.02111220 0.00884530 0.00157946 0.00076799 0.00258855 0.00933766 0.01416617 0.01549845 0.00242272 0.00161158 0.02996001 0.00878218 0.00216585 0.00650812 0.00131173 
0.05255371 0.02063420 0.00902415 0.00158583 0.00076932 0.00260979 0.00957483 0.01432935 0.01458800 0.00243081 0.00162883 0.02990563 0.00895815 0.00212956 0.00650108 0.00130993 
0.05383669 0.02015429 0.00920516 0.00159286 0.00077046 0.00263121 0.00984032 0.01448826 0.01373344 0.00243846 0.00164653 0.02981287 0.00912524 0.00209322 0.00649297 0.00130817 
0.05510841 0.01967490 0.00938815 0.00160047 0.00077141 0.00265275 0.01013329 0.01464297 0.01293907 0.00244566 0.00166471 0.02968178 0.00928256 0.00205699 0.00648382 0.00130649 
0.05635864 0.01919851 0.00957289 0.00160856 0.00077216 0.00267436 0.01045276 0.01479356 0.01220900 0.00245240 0.00168342 0.02951260 0.00942928 0.00202105 0.00647362 0.00130488 
0.05757732 0.01872766 0.00975914 0.00161703 0.00077270 0.00269598 0.01079759 0.01494012 0.01154711 0.00245869 0.00170271 0.02930575 0.00956462 0.00198556 0.00646236 0.00130335 
0.05875463 0.01826489 0.00994663 0.00162577 0.00077303 0.00271756 0.01116653 0.01508278 0.01095701 0.00246452 0.00172263 0.02906181 0.00968789 0.00195066 0.00645003 0.00130193 
0.05988103 0.01781276 0.01013504 0.00163470 0.00077316 0.00273905 0.01155817 0.01522167 0.01044203 0.00246992 0.00174323 0.02878156 0.00979847 0.00191652 0.00643662 0.00130061 
0.06094733 0.01737385 0.01032404 0.00164370 0.00077307 0.00276041 0.01197100 0.01535694 0.01000523 0.00247491 0.00176456 0.02846595 0.00989581 0.00188327 0.00642209 0.00129941 
0.06194475 0.01695072 0.01051327 0.00165268 0.00077278 0.00278158 0.01240337 0.01548875 0.00964938 0.00247951 0.00178667 0.02811611 0.00997944 0.00185106 0.00640643 0.00129834 
0.06286497 0.01654593 0.01070232 0.00166154 0.00077229 0.00280254 0.01285354 0.01561727 0.00937691 0.00248376 0.00180961 0.02773332 0.01004899 0.00182000 0.00638960 0.00129740 
0.06370019 0.01616198 0.01089078 0.00167019 0.00077160 0.00282325 0.01331964 0.01574267 0.00918993 0.00248771 0.00183343 0.02731906 0.01010415 0.00179022 0.00637156 0.00129660 
0.06444318 0.01580136 0.01107818 0.00167854 0.00077071 0.00284368 0.01379973 0.01586514 0.00909022 0.00249140 0.00185816 0.02687496 0.01014472 0.00176181 0.00635229 0.00129594 
0.06508727 0.01546649 0.01126404 0.00168651 0.00076965 0.00286380 0.01429177 0.01598485 0.00907921 0.00249489 0.00188385 0.02640282 0.01017058 0.00173489 0.00633174 0.00129544 
0.06562649 0.01515973 0.01144787 0.00169401 0.00076841 0.00288358 0.01479366 0.01610199 0.00915797 0.00249823 0.00191053 0.02590459 0.01018170 0.00170952 0.00630988 0.00129510 
0.06605548 0.01488337 0.01162914 0.00170097 0.00076700 0.00290301 0.01530322 0.01621672 0.00932720 0.00250149 0.00193823 0.02538238 0.01017815 0.00168580 0.00628668 0.00129491 
0.06636965 0.01463961 0.01180729 0.00170732 0.00076544 0.00292206 0.01581822 0.01632922 0.00958724 0.00250473 0.00196698 0.02483843 0.01016007 0.00166377 0.00626210 0.00129489 
0.06656508 0.01443056 0.01198177 0.00171300 0.00076374 0.00294073 0.01633642 0.01643964 0.00993806 0.00250803 0.00199678 0.02427512 0.01012771 0.00164350 0.00623613 0.00129503 
0.06663866 0.01425822 0.01215199 0.00171795 0.00076191 0.00295900 0.01685550 0.01654812 0.01037923 0.00251145 0.00202766 0.02369496 0.01008139 0.00162502 0.00620873 0.00129534 
0.06658800 0.01412449 0.01231736 0.00172213 0.00075996 0.00297687 0.01737317 0.01665477 0.01090998 0.00251508 0.00205961 0.02310056 0.01002154 0.00160837 0.00617991 0.00129581 
0.06641150 0.01403114 0.01247730 0.00172551 0.00075791 0.00299432 0.01788712 0.01675972 0.01152912 0.00251898 0.00209264 0.02249467 0.00994867 0.00159355 0.00614965 0.00129644 
0.06610836 0.01397980 0.01263120 0.00172804 0.00075578 0.00301137 0.01839503 0.01686302 0.01223511 0.00252324 0.00212672 0.02188009 0.00986334 0.00158057 0.00611796 0.00129723 
0.06567854 0.01397196 0.01277845 0.00172972 0.00075357 0.00302800 0.01889463 0.01696475 0.01302603 0.00252793 0.00216184 0.02125974 0.00976625 0.00156944 0.00608485 0.00129817 
0.06512280 0.01400899 0.01291848 0.00173051 0.00075131 0.00304423 0.01938367 0.01706493 0.01389959 0.00253312 0.00219797 0.02063661 0.00965812 0.00156013 0.00605034 0.00129927 
0.06444265 0.01409207 0.01305068 0.00173043 0.00074900 0.00306005 0.01985995 0.01716356 0.01485315 0.00253889 0.00223507 0.02001371 0.00953978 0.00155262 0.00601447 0.00130051 
0.06364039 0.01422224 0.01317450 0.00172948 0.00074668 0.00307548 0.02032132 0.01726061 0.01588369 0.00254530 0.00227309 0.01939415 0.00941210 0.00154687 0.00597730 0.00130190 
0.06271904 0.01440039 0.01328937 0.00172767 0.00074434 0.00309052 0.02076571 0.01735601 0.01698788 0.00255243 0.00231199 0.01878104 0.00927605 0.00154285 0.00593888 0.00130341 
0.06168233 0.01462720 0.01339476 0.00172501 0.00074201 0.00310518 0.02119113 0.01744966 0.01816203 0.00256035 0.00235169 0.01817750 0.00913263 0.00154049 0.00589929 0.00130505 
0.06053471 0.01490322 0.01349018 0.00172155 0.00073969 0.00311948 0.02159568 0.01754143 0.01940214 0.00256910 0.00239212 0.01758669 0.00898290 0.00153974 0.00585862 0.00130681 
0.05928126 0.01522879 0.01357513 0.00171731 0.00073742 0.00313343 0.02197757 0.01763115 0.02070391 0.00257874 0.00243321 0.01701171 0.00882798 0.00154054 0.00581698 0.00130868 
0.05792773 0.01560408 0.01364919 0.00171236 0.00073518 0.00314704 0.02233512 0.01771861 0.02206273 0.00258932 0.00247486 0.01645567 0.00866901 0.00154279 0.00577449 0.00131064 
0.05648043 0.01602908 0.01371195 0.00170672 0.00073301 0.00316033 0.02266676 0.01780358 0.02347374 0.00260089 0.00251698 0.01592162 0.00850718 0.00154644 0.00573130 0.00131269 
0.05494624 0.01650360 0.01376305 0.00170048 0.00073091 0.00317331 0.02297107 0.01788578 0.02493181 0.00261348 0.00255947 0.01541257 0.00834372 0.00155139 0.00568754 0.00131482 
0.05333255 0.01702726 0.01380218 0.00169369 0.00072890 0.00318599 0.02324675 0.01796490 0.02643158 0.00262712 0.00260222 0.01493143 0.00817986 0.00155755 0.00564340 0.00131702 
0.05164720 0.01759948 0.01382908 0.00168644 0.00072698 0.00319840 0.02349266 0.01804060 0.02796748 0.00264183 0.00264511 0.01448104 0.00801685 0.00156484 0.00559905 0.00131926 
0.04989847 0.01821954 0.01384352 0.00167878 0.00072516 0.00321055 0.02370782 0.01811250 0.02953374 0.00265763 0.00268802 0.01406414 0.00785597 0.00157316 0.00555469 0.00132156 
0.04809499 0.01888649 0.01384537 0.00167082 0.00072345 0.00322244 0.02389137 0.01818021 0.03112444 0.00267451 0.00273083 0.01368335 0.00769846 0.00158241 0.00551054 0.00132388 
0.04624571 0.01959923 0.01383451 0.00166263 0.00072186 0.00323410 0.02404265 0.01824329 0.03273349 0.00269248 0.00277340 0.01334114 0.00754560 0.00159249 0.00546682 0.00132622 
0.04435986 0.02035649 0.01381092 0.00165430 0.00072039 0.00324554 0.02416115 0.01830130 0.03435471 0.00271152 0.00281560 0.01303986 0.00739862 0.00160331 0.00542376 0.00132857 
0.04244686 0.02115680 0.01377459 0.00164593 0.00071905 0.00325677 0.02424650 0.01835377 0.03598180 0.00273162 0.00285729 0.01278168 0.00725875 0.00161477 0.00538162 0.00133092 
0.04051631 0.02199854 0.01372563 0.00163762 0.00071784 0.00326779 0.02429854 0.01840021 0.03760843 0.00275274 0.00289834 0.01256861 0.00712719 0.00162678 0.00534064 0.00133325 
0.03857789 0.02287993 0.01366417 0.00162945 0.00071676 0.00327863 0.02431725 0.01844012 0.03922820 0.00277485 0.00293861 0.01240246 0.00700508 0.00163923 0.00530111 0.00133555 
0.03664136 0.02379904 0.01359043 0.00162153 0.00071581 0.00328928 0.02430277 0.01847300 0.04083473 0.00279790 0.00297796 0.01228486 0.00689356 0.00165205 0.00526328 0.00133781 
0.03471645 0.02475378 0.01350466 0.00161395 0.00071500 0.00329976 0.02425542 0.01849834 0.04242164 0.00282184 0.00301624 0.01221722 0.00679369 0.00166513 0.00522744 0.00134002 
0.03281285 0.02574191 0.01340720 0.00160681 0.00071431 0.00331006 0.02417566 0.01851563 0.04398262 0.00284660 0.00305332 0.01220075 0.00670648 0.00167839 0.00519387 0.00134217 
0.03094014 0.02676107 0.01329844 0.00160020 0.00071375 0.00332019 0.02406414 0.01852437 0.04551141 0.00287211 0.00308906 0.01223640 0.00663289 0.00169174 0.00516285 0.00134424 
0.02910775 0.02780877 0.01317884 0.00159421 0.00071331 0.00333015 0.02392161 0.01852407 0.04700189 0.00289831 0.00312334 0.01232492 0.00657379 0.00170512 0.00513466 0.00134624 
0.02732490 0.02888240 0.01304889 0.00158894 0.00071299 0.00333994 0.02374902 0.01851427 0.04844805 0.00292509 0.00315602 0.01246680 0.00653000 0.00171844 0.00510958 0.00134814 
0.02560054 0.02997926 0.01290917 0.00158446 0.00071278 0.00334956 0.02354740 0.01849450 0.04984407 0.00295238 0.00318698 0.01266230 0.00650226 0.00173164 0.00508788 0.00134995 
0.02394336 0.03109652 0.01276027 0.00158086 0.00071267 0.00335899 0.02331796 0.01846436 0.05118431 0.00298007 0.00321609 0.01291141 0.00649120 0.00174465 0.00506984 0.00135164 
0.02236167 0.03223129 0.01260287 0.00157821 0.00071265 0.00336824 0.02306200 0.01842346 0.05246334 0.00300806 0.00324326 0.01321388 0.00649740 0.00175741 0.00505572 0.00135322 
0.02086344 0.03338058 0.01243767 0.00157659 0.00071272 0.00337729 0.02278095 0.01837144 0.05367599 0.00303624 0.00326837 0.01356920 0.00652131 0.00176986 0.00504575 0.00135468 
0.01945619 0.03454136 0.01226543 0.00157605 0.00071286 0.00338612 0.02247631 0.01830801 0.05481737 0.00306451 0.00329133 0.01397660 0.00656332 0.00178196 0.00504017 0.00135600 
0.01814701 0.03571051 0.01208691 0.00157666 0.00071307 0.00339473 0.02214972 0.01823290 0.05588288 0.00309274 0.00331204 0.01443507 0.00662370 0.00179366 0.00503920 0.00135719 
0.01694249 0.03688490 0.01190294 0.00157848 0.00071332 0.00340309 0.02180286 0.01814592 0.05686823 0.00312083 0.00333043 0.01494333 0.00670263 0.00180492 0.00504305 0.00135824 
0.01584874 0.03806135 0.01171437 0.00158153 0.00071362 0.00341119 0.02143749 0.01804691 0.05776949 0.00314865 0.00334643 0.01549986 0.00680018 0.00181571 0.00505188 0.00135914 
0.01487129 0.03923664 0.01152205 0.00158587 0.00071395 0.00341901 0.02105544 0.01793581 0.05858309 0.00317608 0.00335999 0.01610289 0.00691633 0.00182600 0.00506587 0.00135990 
0.01401515 0.04040758 0.01132688 0.00159152 0.00071430 0.00342652 0.02065858 0.01781260 0.05930582 0.00320300 0.00337104 0.01675042 0.00705094 0.00183576 0.00508513 0.00136051 
0.01328474 0.04157095 0.01112976 0.00159851 0.00071465 0.00343370 0.02024881 0.01767732 0.05993491 0.00322929 0.00337955 0.01744021 0.00720378 0.00184497 0.00510978 0.00136096 
0.01268387 0.04272355 0.01093158 0.00160684 0.00071499 0.00344053 0.01982804 0.01753012 0.06046796 0.00325484 0.00338550 0.01816980 0.00737451 0.00185361 0.00513990 0.00136125 
0.01221579 0.04386221 0.01073326 0.00161654 0.00071532 0.00344696 0.01939821 0.01737118 0.06090302 0.00327953 0.00338887 0.01893654 0.00756270 0.00186167 0.00517554 0.00136140 
0.01188309 0.04498378 0.01053570 0.00162759 0.00071561 0.00345299 0.01896126 0.01720080 0.06123858 0.00330324 0.00338966 0.01973755 0.00776781 0.00186915 0.00521672 0.00136138 
0.01168777 0.04608517 0.01033979 0.00163998 0.00071587 0.00345856 0.01851910 0.01701932 0.06147355 0.00332587 0.00338787 0.02056978 0.00798919 0.00187603 0.00526343 0.00136121 
0.01163120 0.04716334 0.01014642 0.00165371 0.00071607 0.00346367 0.01807361 0.01682719 0.06160733 0.00334731 0.00338353 0.02143000 0.00822614 0.00188231 0.00531561 0.00136089 
0.01171415 0.04821532 0.00995646 0.00166874 0.00071621 0.00346826 0.01762666 0.01662492 0.06163974 0.00336746 0.00337667 0.02231482 0.00847782 0.00188799 0.00537321 0.00136042 
0.01193675 0.04923821 0.00977074 0.00168505 0.00071628 0.00347231 0.01718006 0.01641310 0.06157107 0.00338624 0.00336734 0.02322072 0.00874333 0.00189307 0.00543609 0.00135980 
0.01229855 0.05022921 0.00959008 0.00170259 0.00071627 0.00347578 0.01673556 0.01619242 0.06140208 0.00340355 0.00335559 0.02414404 0.00902168 0.00189755 0.00550411 0.00135903 
0.01279847 0.05118559 0.00941527 0.00172133 0.00071618 0.00347864 0.01629484 0.01596361 0.06113395 0.00341931 0.00334148 0.02508102 0.00931182 0.00190144 0.00557710 0.00135812 
0.01343489 0.05210475 0.00924704 0.00174120 0.00071599 0.00348086 0.01585952 0.01572750 0.06076833 0.00343346 0.00332510 0.02602780 0.00961261 0.00190474 0.00565482 0.00135708 
0.01420560 0.05298418 0.00908611 0.00176216 0.00071570 0.00348241 0.01543113 0.01548499 0.06030731 0.00344594 0.00330654 0.02698045 0.00992285 0.00190746 0.00573703 0.00135591 
0.01510783 0.05382151 0.00893314 0.00178413 0.00071530 0.00348324 0.01501110 0.01523702 0.05975339 0.00345668 0.00328590 0.02793499 0.01024128 0.00190960 0.00582344 0.00135461 
0.01613831 0.05461449 0.00878875 0.00180706 0.00071480 0.00348334 0.01460079 0.01498462 0.05910949 0.00346565 0.00326329 0.02888741 0.01056659 0.00191117 0.00591373 0.00135319 
0.01729324 0.05536100 0.00865350 0.00183086 0.00071419 0.00348267 0.01420141 0.01472887 0.05837893 0.00347281 0.00323883 0.02983368 0.01089743 0.00191218 0.00600755 0.00135166 
0.01856836 0.05605905 0.00852791 0.00185546 0.00071347 0.00348119 0.01381412 0.01447090 0.05756542 0.00347814 0.00321265 0.03076978 0.01123242 0.00191263 0.00610450 0.00135002 
0.01995895 0.05670682 0.00841245 0.00188078 0.00071264 0.00347889 0.01343994 0.01421188 0.05667302 0.00348162 0.00318488 0.03169171 0.01157011 0.00191253 0.00620419 0.00134828 
0.02145987 0.05730262 0.00830752 0.00190673 0.00071169 0.00347574 0.01307976 0.01395303 0.05570611 0.00348326 0.00315568 0.03259553 0.01190908 0.00191188 0.00630617 0.00134645 
0.02306557 0.05784491 0.00821348 0.00193323 0.00071065 0.00347171 0.01273439 0.01369558 0.05466943 0.00348306 0.00312518 0.03347736 0.01224786 0.00191069 0.00640997 0.00134454 
0.02477014 0.05833233 0.00813062 0.00196019 0.00070949 0.00346679 0.01240451 0.01344082 0.05356796 0.00348104 0.00309356 0.03433340 0.01258498 0.00190896 0.00651510 0.00134256 
0.02656736 0.05876366 0.00805918 0.00198751 0.00070825 0.00346095 0.01209066 0.01319002 0.05240699 0.00347722 0.00306097 0.03515996 0.01291898 0.00190669 0.00662106 0.00134051 
0.02845068 0.05913785 0.00799934 0.00201510 0.00070691 0.00345419 0.01179329 0.01294449 0.05119200 0.00347165 0.00302758 0.03595349 0.01324839 0.00190390 0.00672731 0.00133841 
0.03041332 0.05945400 0.00795122 0.00204288 0.00070549 0.00344649 0.01151273 0.01270552 0.04992870 0.00346437 0.00299356 0.03671055 0.01357178 0.00190058 0.00683332 0.00133626 
0.03244824 0.05971141 0.00791490 0.00207075 0.00070399 0.00343784 0.01124920 0.01247439 0.04862297 0.00345545 0.00295909 0.03742789 0.01388773 0.00189673 0.00693853 0.00133408 
0.03454821 0.05990950 0.00789037 0.00209861 0.00070243 0.00342824 0.01100281 0.01225238 0.04728083 0.00344496 0.00292435 0.03810242 0.01419484 0.00189236 0.00704237 0.00133186 
0.03670585 0.06004790 0.00787761 0.00212638 0.00070081 0.00341770 0.01077355 0.01204074 0.04590841 0.00343297 0.00288950 0.03873125 0.01449176 0.00188746 0.00714429 0.00132963 
0.03891364 0.06012637 0.00787652 0.00215397 0.00069915 0.00340621 0.01056134 0.01184066 0.04451192 0.00341957 0.00285473 0.03931170 0.01477719 0.00188204 0.00724370 0.00132740 
0.04116398 0.06014486 0.00788696 0.00218128 0.00069746 0.00339378 0.01036598 0.01165334 0.04309761 0.00340486 0.00282021 0.03984131 0.01504988 0.00187611 0.00734005 0.00132516 
0.04344920 0.06010346 0.00790874 0.00220824 0.00069575 0.00338043 0.01018720 0.01147987 0.04167174 0.00338894 0.00278611 0.04031784 0.01530862 0.00186967 0.00743277 0.00132294 
0.04576161 0.06000246 0.00794162 0.00223477 0.00069404 0.00336618 0.01002463 0.01132133 0.04024054 0.00337192 0.00275262 0.04073932 0.01555229 0.00186271 0.00752132 0.00132074 
0.04809353 0.05984226 0.00798533 0.00226077 0.00069234 0.00335104 0.00987786 0.01117871 0.03881021 0.00335393 0.00271990 0.04110403 0.01577983 0.00185525 0.00760514 0.00131858 
0.05043732 0.05962345 0.00803955 0.00228618 0.00069066 0.00333505 0.00974638 0.01105291 0.03738684 0.00333509 0.00268811 0.04141049 0.01599023 0.00184730 0.00768373 0.00131645 
0.05278540 0.05934676 0.00810394 0.00231092 0.00068903 0.00331824 0.00962964 0.01094479 0.03597641 0.00331552 0.00265741 0.04165753 0.01618260 0.00183887 0.00775658 0.00131439 
0.05513031 0.05901309 0.00817810 0.00233492 0.00068744 0.00330065 0.00952705 0.01085510 0.03458476 0.00329536 0.00262796 0.04184422 0.01635611 0.00182996 0.00782321 0.00131238 
0.05746470 0.05862347 0.00826163 0.00235813 0.00068593 0.00328232 0.00943795 0.01078448 0.03321755 0.00327476 0.00259991 0.04196996 0.01651002 0.00182059 0.00788318 0.00131045 
0.05978138 0.05817909 0.00835409 0.00238047 0.00068450 0.00326330 0.00936168 0.01073351 0.03188021 0.00325384 0.00257339 0.04203439 0.01664368 0.00181079 0.00793606 0.00130860 
0.06207335 0.05768126 0.00845501 0.00240190 0.00068318 0.00324364 0.00929755 0.01070262 0.03057798 0.00323276 0.00254855 0.04203747 0.01675654 0.00180057 0.00798148 0.00130684 
0.06433383 0.05713144 0.00856393 0.00242236 0.00068196 0.00322339 0.00924484 0.01069218 0.02931582 0.00321166 0.00252550 0.04197944 0.01684814 0.00178996 0.00801909 0.00130518 
0.06655624 0.05653124 0.00868034 0.00244180 0.00068088 0.00320263 0.00920285 0.01070241 0.02809842 0.00319068 0.00250436 0.04186081 0.01691812 0.00177899 0.00804858 0.00130362 
0.06873427 0.05588238 0.00880374 0.00246019 0.00067993 0.00318142 0.00917087 0.01073344 0.02693015 0.00316998 0.00248523 0.04168242 0.01696623 0.00176770 0.00806970 0.00130219 
0.07086189 0.05518670 0.00893361 0.00247748 0.00067914 0.00315983 0.00914821 0.01078527 0.02581510 0.00314968 0.00246822 0.04144534 0.01699230 0.00175611 0.00808222 0.00130088 
0.07293334 0.05444620 0.00906943 0.00249365 0.00067851 0.00313793 0.00913418 0.01085780 0.02475699 0.00312995 0.00245342 0.04115094 0.01699626 0.00174428 0.00808598 0.00129970 
0.07494319 0.05366296 0.00921067 0.00250866 0.00067806 0.00311580 0.00912815 0.01095079 0.02375921 0.00311091 0.00244089 0.04080088 0.01697817 0.00173226 0.00808087 0.00129866 
0.07688631 0.05283918 0.00935682 0.00252249 0.00067779 0.00309354 0.00912950 0.01106390 0.02282478 0.00309270 0.00243070 0.04039704 0.01693815 0.00172009 0.00806680 0.00129777 
0.07875791 0.05197721 0.00950734 0.00253512 0.00067772 0.00307122 0.00913767 0.01119667 0.02195636 0.00307545 0.00242291 0.03994157 0.01687645 0.00170784 0.00804378 0.00129703 
0.08055357 0.05107945 0.00966173 0.00254654 0.00067785 0.00304894 0.00915213 0.01134854 0.02115620 0.00305929 0.00241756 0.03943687 0.01679339 0.00169556 0.00801183 0.00129644 
0.08226918 0.05014844 0.00981947 0.00255674 0.00067819 0.00302678 0.00917241 0.01151881 0.02042621 0.00304433 0.00241469 0.03888556 0.01668940 0.00168333 0.00797105 0.00129602 
0.08390104 0.04918682 0.00998006 0.00256571 0.00067873 0.00300485 0.00919810 0.01170670 0.01976788 0.00303070 0.00241431 0.03829047 0.01656500 0.00167122 0.00792158 0.00129576 
0.08544580 0.04819730 0.01014300 0.00257344 0.00067949 0.00298323 0.00922886 0.01191132 0.01918232 0.00301849 0.00241643 0.03765463 0.01642080 0.00165931 0.00786363 0.00129567 
0.08690047 0.04718271 0.01030784 0.00257994 0.00068047 0.00296203 0.00926440 0.01213167 0.01867026 0.00300781 0.00242106 0.03698128 0.01625748 0.00164767 0.00779745 0.00129575 
0.08826245 0.04614595 0.01047409 0.00258522 0.00068166 0.00294135 0.00930450 0.01236668 0.01823204 0.00299874 0.00242817 0.03627379 0.01607582 0.00163639 0.00772335 0.00129600 
0.08952953 0.04509001 0.01064131 0.00258927 0.00068307 0.00292129 0.00934901 0.01261518 0.01786763 0.00299136 0.00243775 0.03553571 0.01587666 0.00162557 0.00764167 0.00129642 
0.09069987 0.04401795 0.01080906 0.00259212 0.00068469 0.00290194 0.00939786 0.01287593 0.01757664 0.00298574 0.00244977 0.03477072 0.01566094 0.00161529 0.00755284 0.00129702 
0.09177198 0.04293291 0.01097693 0.00259377 0.00068651 0.00288340 0.00945104 0.01314761 0.01735831 0.00298195 0.00246417 0.03398261 0.01542963 0.00160564 0.00745730 0.00129780 
0.09274479 0.04183810 0.01114452 0.00259424 0.00068854 0.00286578 0.00950860 0.01342884 0.01721153 0.00298003 0.00248091 0.03317527 0.01518379 0.00159673 0.00735556 0.00129874 
0.09361756 0.04073680 0.01131143 0.00259356 0.00069075 0.00284917 0.00957068 0.01371819 0.01713488 0.00298002 0.00249991 0.03235266 0.01492453 0.00158865 0.00724815 0.00129985 
0.09438992 0.03963234 0.01147730 0.00259173 0.00069315 0.00283366 0.00963746 0.01401418 0.01712661 0.00298194 0.00252111 0.03151882 0.01465301 0.00158151 0.00713566 0.00130113 
0.09506188 0.03852810 0.01164178 0.00258880 0.00069572 0.00281934 0.00970919 0.01431529 0.01718468 0.00298583 0.00254441 0.03067779 0.01437043 0.00157540 0.00701871 0.00130256 
0.09563377 0.03742753 0.01180453 0.00258477 0.00069845 0.00280632 0.00978619 0.01461997 0.01730676 0.00299167 0.00256974 0.02983365 0.01407805 0.00157042 0.00689795 0.00130416 
0.09610627 0.03633411 0.01196522 0.00257968 0.00070132 0.00279466 0.00986882 0.01492666 0.01749027 0.00299946 0.00259699 0.02899047 0.01377715 0.00156666 0.00677406 0.00130590 
0.09648037 0.03525134 0.01212355 0.00257356 0.00070433 0.00278445 0.00995748 0.01523378 0.01773240 0.00300919 0.00262605 0.02815230 0.01346903 0.00156423 0.00664775 0.00130779 
0.09675740 0.03418277 0.01227922 0.00256644 0.00070744 0.00277576 0.01005264 0.01553976 0.01803010 0.00302082 0.00265680 0.02732313 0.01315502 0.00156322 0.00651974 0.00130981 
0.09693899 0.03313197 0.01243195 0.00255835 0.00071066 0.00276867 0.01015477 0.01584302 0.01838013 0.00303431 0.00268914 0.02650690 0.01283648 0.00156371 0.00639078 0.00131196 
0.09702703 0.03210253 0.01258146 0.00254933 0.00071395 0.00276325 0.01026439 0.01614202 0.01877910 0.00304962 0.00272293 0.02570745 0.01251476 0.00156580 0.00626162 0.00131423 
0.09702373 0.03109803 0.01272750 0.00253940 0.00071730 0.00275954 0.01038203 0.01643524 0.01922344 0.00306667 0.00275803 0.02492852 0.01219122 0.00156955 0.00613303 0.00131660 
0.09693154 0.03012206 0.01286982 0.00252861 0.00072069 0.00275761 0.01050825 0.01672118 0.01970948 0.00308540 0.00279433 0.02417374 0.01186721 0.00157505 0.00600577 0.00131907 
0.09675316 0.02917820 0.01300817 0.00251699 0.00072409 0.00275749 0.01064359 0.01699840 0.02023342 0.00310573 0.00283166 0.02344657 0.01154409 0.00158235 0.00588060 0.00132162 
0.09649151 0.02827000 0.01314231 0.00250459 0.00072750 0.00275923 0.01078862 0.01726550 0.02079142 0.00312755 0.00286989 0.02275033 0.01122318 0.00159153 0.00575828 0.00132425 
0.09614975 0.02740100 0.01327202 0.00249143 0.00073088 0.00276285 0.01094386 0.01752116 0.02137954 0.00315077 0.00290888 0.02208816 0.01090579 0.00160263 0.00563955 0.00132693 
0.09573123 0.02657467 0.01339708 0.00247755 0.00073422 0.00276838 0.01110984 0.01776410 0.02199383 0.00317528 0.00294848 0.02146301 0.01059321 0.00161568 0.00552514 0.00132966 
0.09523948 0.02579446 0.01351726 0.00246301 0.00073750 0.00277583 0.01128705 0.01799314 0.02263033 0.00320096 0.00298853 0.02087761 0.01028669 0.00163074 0.00541576 0.00133242 
0.09467820 0.02506373 0.01363234 0.00244784 0.00074069 0.00278520 0.01147594 0.01820714 0.02328507 0.00322768 0.00302888 0.02033448 0.00998743 0.00164780 0.00531208 0.00133519 
0.09405123 0.02438579 0.01374212 0.00243207 0.00074377 0.00279650 0.01167694 0.01840508 0.02395412 0.00325531 0.00306939 0.01983592 0.00969661 0.00166690 0.00521476 0.00133796 
0.09336256 0.02376385 0.01384639 0.00241577 0.00074672 0.00280971 0.01189040 0.01858603 0.02463362 0.00328372 0.00310990 0.01938396 0.00941534 0.00168802 0.00512441 0.00134073 
0.09261628 0.02320103 0.01394493 0.00239896 0.00074953 0.00282480 0.01211662 0.01874912 0.02531973 0.00331275 0.00315026 0.01898040 0.00914470 0.00171116 0.00504161 0.00134346 
0.09181658 0.02270032 0.01403753 0.00238169 0.00075217 0.00284176 0.01235584 0.01889362 0.02600872 0.00334228 0.00319033 0.01862677 0.00888568 0.00173628 0.00496689 0.00134614 
0.09096774 0.02226460 0.01412400 0.00236401 0.00075463 0.00286053 0.01260822 0.01901886 0.02669697 0.00337214 0.00322996 0.01832433 0.00863924 0.00176337 0.00490074 0.00134877 
0.09007410 0.02189661 0.01420414 0.00234595 0.00075688 0.00288107 0.01287386 0.01912430 0.02738095 0.00340219 0.00326901 0.01807407 0.00840626 0.00179237 0.00484359 0.00135131 
0.08914004 0.02159894 0.01427773 0.00232758 0.00075892 0.00290332 0.01315276 0.01920950 0.02805728 0.00343226 0.00330733 0.01787670 0.00818754 0.00182321 0.00479584 0.00135377 
0.08816997 0.02137402 0.01434457 0.00230893 0.00076073 0.00292722 0.01344483 0.01927411 0.02872269 0.00346222 0.00334480 0.01773266 0.00798382 0.00185584 0.00475782 0.00135612 
0.08716831 0.02122408 0.01440449 0.00229004 0.00076230 0.00295270 0.01374989 0.01931791 0.02937408 0.00349190 0.00338127 0.01764210 0.00779577 0.00189016 0.00472980 0.00135835 
0.08613949 0.02115120 0.01445727 0.00227098 0.00076361 0.00297966 0.01406769 0.01934075 0.03000852 0.00352116 0.00341663 0.01760489 0.00762396 0.00192607 0.00471200 0.00136044 
0.08508789 0.02115720 0.01450273 0.00225177 0.00076466 0.00300803 0.01439784 0.01934263 0.03062321 0.00354984 0.00345076 0.01762062 0.00746891 0.00196349 0.00470457 0.00136239 
0.08401788 0.02124374 0.01454068 0.00223248 0.00076543 0.00303769 0.01473989 0.01932361 0.03121556 0.00357780 0.00348353 0.01768863 0.00733103 0.00200227 0.00470761 0.00136417 
0.08293377 0.02141220 0.01457095 0.00221314 0.00076593 0.00306856 0.01509327 0.01928387 0.03178313 0.00360490 0.00351483 0.01780796 0.00721066 0.00204231 0.00472115 0.00136578 
0.08183978 0.02166377 0.01459337 0.00219381 0.00076613 0.00310050 0.01545732 0.01922369 0.03232368 0.00363099 0.00354457 0.01797741 0.00710805 0.00208345 0.00474517 0.00136720 
0.08074006 0.02199934 0.01460777 0.00217453 0.00076605 0.00313342 0.01583128 0.01914343 0.03283513 0.00365596 0.00357265 0.01819553 0.00702338 0.00212555 0.00477956 0.00136843 
0.07963868 0.02241956 0.01461400 0.00215534 0.00076568 0.00316718 0.01621429 0.01904355 0.03331562 0.00367967 0.00359898 0.01846061 0.00695672 0.00216847 0.00482417 0.00136945 
0.07853955 0.02292481 0.01461191 0.00213630 0.00076503 0.00320165 0.01660540 0.01892461 0.03376345 0.00370200 0.00362348 0.01877073 0.00690808 0.00221203 0.00487879 0.00137027 
0.07744648 0.02351517 0.01460139 0.00211744 0.00076408 0.00323670 0.01700358 0.01878722 0.03417710 0.00372285 0.00364607 0.01912373 0.00687737 0.00225606 0.00494313 0.00137086 
0.07636314 0.02419045 0.01458230 0.00209882 0.00076286 0.00327219 0.01740771 0.01863208 0.03455526 0.00374212 0.00366669 0.01951726 0.00686443 0.00230040 0.00501688 0.00137123 
0.07529304 0.02495014 0.01455456 0.00208048 0.00076135 0.00330798 0.01781657 0.01845998 0.03489676 0.00375970 0.00368528 0.01994877 0.00686901 0.00234487 0.00509963 0.00137137 
0.07423949 0.02579346 0.01451808 0.00206245 0.00075958 0.00334393 0.01822889 0.01827175 0.03520063 0.00377553 0.00370180 0.02041554 0.00689078 0.00238928 0.00519094 0.00137128 
0.07320567 0.02671927 0.01447279 0.00204477 0.00075755 0.00337988 0.01864334 0.01806830 0.03546608 0.00378953 0.00371619 0.02091470 0.00692934 0.00243345 0.00529032 0.00137096 
0.07219454 0.02772617 0.01441865 0.00202749 0.00075528 0.00341570 0.01905851 0.01785056 0.03569245 0.00380163 0.00372843 0.02144323 0.00698421 0.00247720 0.00539722 0.00137041 
0.07120885 0.02881242 0.01435564 0.00201065 0.00075277 0.00345123 0.01947294 0.01761956 0.03587928 0.00381178 0.00373849 0.02199799 0.00705484 0.00252034 0.00551106 0.00136963 
0.07025116 0.02997596 0.01428376 0.00199426 0.00075003 0.00348633 0.01988513 0.01737633 0.03602625 0.00381995 0.00374636 0.02257575 0.00714063 0.00256270 0.00563120 0.00136862 
0.06932379 0.03121442 0.01420302 0.00197837 0.00074710 0.00352085 0.02029356 0.01712195 0.03613316 0.00382610 0.00375202 0.02317317 0.00724088 0.00260409 0.00575699 0.00136740 
0.06842884 0.03252514 0.01411348 0.00196301 0.00074397 0.00355463 0.02069667 0.01685752 0.03620001 0.00383022 0.00375549 0.02378687 0.00735487 0.00264434 0.00588772 0.00136596 
0.06756817 0.03390511 0.01401520 0.00194820 0.00074067 0.00358754 0.02109289 0.01658419 0.03622687 0.00383230 0.00375676 0.02441342 0.00748181 0.00268330 0.00602267 0.00136432 
0.06674341 0.03535105 0.01390830 0.00193395 0.00073723 0.00361945 0.02148062 0.01630309 0.03621400 0.00383235 0.00375586 0.02504937 0.00762085 0.00272078 0.00616108 0.00136249 
0.06595591 0.03685938 0.01379290 0.00192030 0.00073365 0.00365020 0.02185831 0.01601539 0.03616172 0.00383038 0.00375281 0.02569127 0.00777111 0.00275665 0.00630218 0.00136048 
0.06520681 0.03842621 0.01366914 0.00190725 0.00072996 0.00367966 0.02222439 0.01572224 0.03607053 0.00382642 0.00374765 0.02633569 0.00793166 0.00279075 0.00644519 0.00135830 
0.06449696 0.04004740 0.01353723 0.00189482 0.00072618 0.00370772 0.02257733 0.01542482 0.03594098 0.00382050 0.00374041 0.02697924 0.00810154 0.00282297 0.00658932 0.00135597 
0.06382698 0.04171853 0.01339736 0.00188300 0.00072233 0.00373425 0.02291561 0.01512427 0.03577376 0.00381269 0.00373114 0.02761857 0.00827978 0.00285317 0.00673375 0.00135350 
0.06319722 0.04343493 0.01324978 0.00187181 0.00071843 0.00375912 0.02323779 0.01482175 0.03556964 0.00380302 0.00371989 0.02825043 0.00846535 0.00288124 0.00687770 0.00135092 
0.06260777 0.04519170 0.01309476 0.00186125 0.00071451 0.00378224 0.02354246 0.01451837 0.03532949 0.00379159 0.00370673 0.02887166 0.00865724 0.00290710 0.00702036 0.00134823 
0.06205849 0.04698371 0.01293259 0.00185129 0.00071059 0.00380351 0.02382827 0.01421526 0.03505428 0.00377845 0.00369173 0.02947923 0.00885441 0.00293067 0.00716096 0.00134547 
0.06154896 0.04880562 0.01276360 0.00184194 0.00070668 0.00382282 0.02409396 0.01391348 0.03474502 0.00376371 0.00367495 0.03007020 0.00905582 0.00295187 0.00729870 0.00134265 
0.06107854 0.05065192 0.01258814 0.00183318 0.00070282 0.00384010 0.02433833 0.01361409 0.03440285 0.00374745 0.00365648 0.03064183 0.00926043 0.00297066 0.00743285 0.00133979 
0.06064635 0.05251695 0.01240659 0.00182498 0.00069902 0.00385527 0.02456028 0.01331811 0.03402895 0.00372977 0.00363639 0.03119151 0.00946722 0.00298701 0.00756266 0.00133692 
0.06025126 0.05439486 0.01221934 0.00181732 0.00069531 0.00386826 0.02475880 0.01302652 0.03362458 0.00371079 0.00361479 0.03171682 0.00967516 0.00300090 0.00768745 0.00133405 
0.05989194 0.05627974 0.01202683 0.00181016 0.00069169 0.00387902 0.02493299 0.01274026 0.03319107 0.00369062 0.00359176 0.03221551 0.00988326 0.00301233 0.00780652 0.00133122 
0.05956685 0.05816554 0.01182950 0.00180348 0.00068820 0.00388751 0.02508204 0.01246022 0.03272984 0.00366939 0.00356740 0.03268558 0.01009055 0.00302132 0.00791926 0.00132845 
0.05927422 0.06004617 0.01162783 0.00179723 0.00068486 0.00389368 0.02520528 0.01218725 0.03224233 0.00364721 0.00354180 0.03312518 0.01029610 0.00302791 0.00802505 0.00132576 
0.05901214 0.06191547 0.01142229 0.00179137 0.00068167 0.00389751 0.02530213 0.01192217 0.03173007 0.00362421 0.00351509 0.03353273 0.01049900 0.00303215 0.00812335 0.00132317 
0.05877851 0.06376728 0.01121339 0.00178585 0.00067865 0.00389900 0.02537215 0.01166572 0.03119467 0.00360054 0.00348735 0.03390685 0.01069838 0.00303411 0.00821364 0.00132072 
0.05857105 0.06559543 0.01100166 0.00178061 0.00067583 0.00389813 0.02541502 0.01141861 0.03063777 0.00357632 0.00345870 0.03424641 0.01089345 0.00303388 0.00829546 0.00131841 
0.05838739 0.06739381 0.01078763 0.00177560 0.00067321 0.00389491 0.02543054 0.01118148 0.03006108 0.00355169 0.00342926 0.03455050 0.01108344 0.00303156 0.00836841 0.00131628 
0.05822499 0.06915635 0.01057185 0.00177075 0.00067080 0.00388937 0.02541866 0.01095494 0.02946639 0.00352679 0.00339912 0.03481846 0.01126764 0.00302728 0.00843211 0.00131434 
0.05808124 0.07087707 0.01035486 0.00176601 0.00066862 0.00388153 0.02537942 0.01073954 0.02885553 0.00350175 0.00336842 0.03504987 0.01144540 0.00302117 0.00848626 0.00131263 
0.05795345 0.07255011 0.01013725 0.00176131 0.00066668 0.00387144 0.02531304 0.01053575 0.02823041 0.00347672 0.00333725 0.03524455 0.01161615 0.00301338 0.00853062 0.00131115 
0.05783884 0.07416977 0.00991956 0.00175657 0.00066498 0.00385914 0.02521982 0.01034402 0.02759298 0.00345181 0.00330574 0.03540254 0.01177937 0.00300408 0.00856500 0.00130992 
0.05773462 0.07573049 0.00970238 0.00175172 0.00066353 0.00384469 0.02510021 0.01016474 0.02694526 0.00342717 0.00327399 0.03552415 0.01193462 0.00299344 0.00858925 0.00130897 
0.05763795 0.07722692 0.00948628 0.00174670 0.00066233 0.00382818 0.02495479 0.00999824 0.02628935 0.00340292 0.00324213 0.03560988 0.01208151 0.00298166 0.00860330 0.00130830 
0.05754602 0.07865393 0.00927182 0.00174143 0.00066139 0.00380967 0.02478424 0.00984478 0.02562738 0.00337920 0.00321025 0.03566046 0.01221974 0.00296893 0.00860714 0.00130793 
0.05745603 0.08000663 0.00905958 0.00173583 0.00066072 0.00378926 0.02458937 0.00970461 0.02496155 0.00335610 0.00317849 0.03567685 0.01234910 0.00295546 0.00860079 0.00130788 
0.05736523 0.08128041 0.00885012 0.00172983 0.00066030 0.00376706 0.02437111 0.00957790 0.02429413 0.00333376 0.00314693 0.03566019 0.01246942 0.00294148 0.00858436 0.00130814 
0.05727092 0.08247093 0.00864399 0.00172336 0.00066014 0.00374315 0.02413046 0.00946478 0.02362743 0.00331228 0.00311570 0.03561182 0.01258063 0.00292721 0.00855798 0.00130873 
0.05717052 0.08357418 0.00844174 0.00171635 0.00066023 0.00371767 0.02386856 0.00936532 0.02296381 0.00329176 0.00308490 0.03553327 0.01268274 0.00291288 0.00852187 0.00130966 
0.05706154 0.08458647 0.00824390 0.00170871 0.00066058 0.00369073 0.02358662 0.00927958 0.02230570 0.00327230 0.00305462 0.03542620 0.01277581 0.00289872 0.00847629 0.00131091 
0.05694164 0.08550447 0.00805099 0.00170040 0.00066116 0.00366247 0.02328595 0.00920753 0.02165556 0.00325398 0.00302498 0.03529246 0.01285999 0.00288497 0.00842153 0.00131250 
0.05680860 0.08632520 0.00786351 0.00169133 0.00066199 0.00363301 0.02296794 0.00914914 0.02101590 0.00323689 0.00299606 0.03513402 0.01293550 0.00287187 0.00835795 0.00131442 
0.05666040 0.08704607 0.00768196 0.00168145 0.00066305 0.00360249 0.02263403 0.00910430 0.02038926 0.00322108 0.00296796 0.03495296 0.01300264 0.00285966 0.00828596 0.00131666 
0.05649519 0.08766487 0.00750681 0.00167071 0.00066432 0.00357106 0.02228574 0.00907290 0.01977822 0.00320663 0.00294078 0.03475148 0.01306175 0.00284857 0.00820598 0.00131921 
0.05631134 0.08817982 0.00733851 0.00165906 0.00066581 0.00353887 0.02192466 0.00905475 0.01918536 0.00319360 0.00291459 0.03453185 0.01311326 0.00283884 0.00811851 0.00132207 
0.05610743 0.08858954 0.00717749 0.00164644 0.00066749 0.00350607 0.02155238 0.00904968 0.01861332 0.00318201 0.00288948 0.03429641 0.01315765 0.00283068 0.00802406 0.00132521 
0.05588228 0.08889305 0.00702416 0.00163282 0.00066936 0.00347279 0.02117058 0.00905743 0.01806469 0.00317191 0.00286552 0.03404755 0.01319545 0.00282433 0.00792318 0.00132862 
0.05563494 0.08908982 0.00687890 0.00161816 0.00067140 0.00343921 0.02078094 0.00907776 0.01754212 0.00316332 0.00284280 0.03378772 0.01322726 0.00281999 0.00781645 0.00133228 
0.05536475 0.08917975 0.00674209 0.00160245 0.00067360 0.00340547 0.02038515 0.00911035 0.01704820 0.00315625 0.00282139 0.03351933 0.01325370 0.00281786 0.00770447 0.00133617 
0.05507129 0.08916314 0.00661406 0.00158567 0.00067594 0.00337172 0.01998493 0.00915490 0.01658551 0.00315072 0.00280133 0.03324483 0.01327546 0.00281813 0.00758787 0.00134026 
0.05475440 0.08904074 0.00649513 0.00156780 0.00067842 0.00333811 0.01958198 0.00921107 0.01615661 0.00314671 0.00278270 0.03296662 0.01329324 0.00282098 0.00746730 0.00134452 
0.05441424 0.08881372 0.00638559 0.00154885 0.00068101 0.00330479 0.01917802 0.00927847 0.01576400 0.00314421 0.00276555 0.03268709 0.01330780 0.00282657 0.00734339 0.00134892 
0.05405122 0.08848365 0.00628571 0.00152884 0.00068370 0.00327190 0.01877473 0.00935672 0.01541012 0.00314320 0.00274993 0.03240854 0.01331990 0.00283506 0.00721683 0.00135344 
0.05366603 0.08805254 0.00619573 0.00150778 0.00068648 0.00323959 0.01837377 0.00944541 0.01509734 0.00314364 0.00273589 0.03213323 0.01333032 0.00284657 0.00708828 0.00135803 
0.05325965 0.08752276 0.00611587 0.00148571 0.00068933 0.00320797 0.01797675 0.00954412 0.01482794 0.00314549 0.00272345 0.03186330 0.01333987 0.00286122 0.00695842 0.00136266 
0.05283333 0.08689710 0.00604631 0.00146266 0.00069224 0.00317719 0.01758528 0.00965238 0.01460410 0.00314870 0.00271265 0.03160082 0.01334935 0.00287910 0.00682790 0.00136728 
0.05238859 0.08617869 0.00598724 0.00143869 0.00069519 0.00314737 0.01720087 0.00976975 0.01442788 0.00315321 0.00270353 0.03134773 0.01335957 0.00290030 0.00669740 0.00137187 
0.05192721 0.08537103 0.00593878 0.00141387 0.00069817 0.00311861 0.01682501 0.00989574 0.01430121 0.00315893 0.00269609 0.03110583 0.01337131 0.00292487 0.00656757 0.00137638 
0.05145121 0.08447797 0.00590106 0.00138827 0.00070117 0.00309102 0.01645909 0.01002986 0.01422587 0.00316581 0.00269036 0.03087682 0.01338537 0.00295284 0.00643904 0.00138076 
0.05096288 0.08350366 0.00587417 0.00136197 0.00070417 0.00306471 0.01610446 0.01017161 0.01420348 0.00317375 0.00268634 0.03066220 0.01340251 0.00298424 0.00631243 0.00138497 
0.05046471 0.08245253 0.00585820 0.00133508 0.00070716 0.00303974 0.01576237 0.01032047 0.01423549 0.00318266 0.00268403 0.03046335 0.01342346 0.00301906 0.00618834 0.00138897 
0.04995938 0.08132933 0.00585318 0.00130770 0.00071013 0.00301621 0.01543400 0.01047592 0.01432314 0.00319245 0.00268343 0.03028148 0.01344892 0.00305728 0.00606734 0.00139272 
0.04944980 0.08013901 0.00585914 0.00127996 0.00071308 0.00299417 0.01512044 0.01063743 0.01446750 0.00320299 0.00268453 0.03011761 0.01347957 0.00309884 0.00594998 0.00139617 
0.04893903 0.07888676 0.00587610 0.00125198 0.00071598 0.00297368 0.01482267 0.01080444 0.01466938 0.00321419 0.00268730 0.02997261 0.01351601 0.00314367 0.00583677 0.00139927 
0.04843027 0.07757799 0.00590405 0.00122391 0.00071884 0.00295478 0.01454158 0.01097641 0.01492939 0.00322593 0.00269174 0.02984716 0.01355882 0.00319170 0.00572819 0.00140199 
0.04792685 0.07621823 0.00594294 0.00119589 0.00072165 0.00293750 0.01427798 0.01115278 0.01524788 0.00323809 0.00269779 0.02974176 0.01360852 0.00324279 0.00562470 0.00140427 
0.04743220 0.07481319 0.00599273 0.00116808 0.00072440 0.00292186 0.01403255 0.01133298 0.01562495 0.00325053 0.00270543 0.02965673 0.01366555 0.00329683 0.00552670 0.00140609 
0.04694983 0.07336868 0.00605335 0.00114066 0.00072708 0.00290787 0.01380587 0.01151644 0.01606045 0.00326314 0.00271461 0.02959221 0.01373031 0.00335366 0.00543456 0.00140739 
0.04648330 0.07189058 0.00612471 0.00111380 0.00072969 0.00289550 0.01359841 0.01170258 0.01655393 0.00327578 0.00272529 0.02954818 0.01380312 0.00341311 0.00534861 0.00140815 
0.04603617 0.07038484 0.00620672 0.00108768 0.00073223 0.00288476 0.01341055 0.01189081 0.01710469 0.00328833 0.00273739 0.02952442 0.01388423 0.00347498 0.00526913 0.00140832 
0.04561202 0.06885742 0.00629923 0.00106250 0.00073470 0.00287559 0.01324253 0.01208055 0.01771172 0.00330064 0.00275086 0.02952056 0.01397383 0.00353906 0.00519637 0.00140788 
0.04521437 0.06731427 0.00640213 0.00103845 0.00073709 0.00286796 0.01309450 0.01227120 0.01837374 0.00331258 0.00276563 0.02953609 0.01407200 0.00360514 0.00513053 0.00140678 
0.04484670 0.06576132 0.00651526 0.00101572 0.00073941 0.00286181 0.01296651 0.01246217 0.01908917 0.00332402 0.00278162 0.02957031 0.01417876 0.00367296 0.00507175 0.00140501 
0.04451237 0.06420441 0.00663846 0.00099454 0.00074165 0.00285707 0.01285847 0.01265285 0.01985613 0.00333483 0.00279875 0.02962240 0.01429408 0.00374228 0.00502016 0.00140254 
0.04421463 0.06264932 0.00677153 0.00097509 0.00074381 0.00285365 0.01277023 0.01284265 0.02067245 0.00334487 0.00281693 0.02969140 0.01441779 0.00381282 0.00497581 0.00139935 
0.04395659 0.06110169 0.00691430 0.00095760 0.00074591 0.00285147 0.01270150 0.01303095 0.02153569 0.00335403 0.00283606 0.02977624 0.01454968 0.00388430 0.00493872 0.00139542 
0.04374117 0.05956700 0.00706654 0.00094227 0.00074794 0.00285042 0.01265192 0.01321715 0.02244310 0.00336216 0.00285606 0.02987573 0.01468945 0.00395642 0.00490888 0.00139073 
0.04357109 0.05805059 0.00722803 0.00092931 0.00074991 0.00285039 0.01262101 0.01340064 0.02339167 0.00336916 0.00287681 0.02998858 0.01483673 0.00402890 0.00488621 0.00138529 
0.04344884 0.05655757 0.00739855 0.00091892 0.00075182 0.00285125 0.01260822 0.01358082 0.02437810 0.00337490 0.00289821 0.03011343 0.01499105 0.00410141 0.00487060 0.00137908 
0.04337666 0.05509286 0.00757783 0.00091131 0.00075368 0.00285288 0.01261290 0.01375708 0.02539884 0.00337928 0.00292015 0.03024883 0.01515189 0.00417365 0.00486192 0.00137210 
0.04335651 0.05366112 0.00776562 0.00090667 0.00075549 0.00285514 0.01263434 0.01392881 0.02645011 0.00338220 0.00294251 0.03039328 0.01531864 0.00424529 0.00485996 0.00136435 
0.04339006 0.05226677 0.00796164 0.00090520 0.00075726 0.00285789 0.01267174 0.01409542 0.02752786 0.00338354 0.00296518 0.03054525 0.01549062 0.00431602 0.00486451 0.00135586 
0.04347864 0.05091394 0.00816560 0.00090708 0.00075899 0.00286098 0.01272424 0.01425632 0.02862786 0.00338324 0.00298804 0.03070317 0.01566711 0.00438552 0.00487532 0.00134662 
0.04362329 0.04960648 0.00837718 0.00091249 0.00076069 0.00286425 0.01279092 0.01441090 0.02974566 0.00338119 0.00301096 0.03086546 0.01584731 0.00445346 0.00489207 0.00133666 
0.04382465 0.04834791 0.00859608 0.00092159 0.00076237 0.00286756 0.01287081 0.01455859 0.03087662 0.00337734 0.00303383 0.03103054 0.01603036 0.00451953 0.00491447 0.00132601 
0.04408305 0.04714146 0.00882196 0.00093454 0.00076403 0.00287074 0.01296288 0.01469882 0.03201598 0.00337161 0.00305653 0.03119684 0.01621537 0.00458342 0.00494215 0.00131468 
0.04439840 0.04599003 0.00905448 0.00095148 0.00076569 0.00287364 0.01306608 0.01483102 0.03315879 0.00336396 0.00307892 0.03136283 0.01640140 0.00464482 0.00497474 0.00130272 
0.04477027 0.04489618 0.00929326 0.00097254 0.00076733 0.00287611 0.01317934 0.01495464 0.03430003 0.00335434 0.00310090 0.03152702 0.01658746 0.00470344 0.00501185 0.00129016 
0.04519782 0.04386211 0.00953794 0.00099782 0.00076898 0.00287799 0.01330153 0.01506915 0.03543458 0.00334272 0.00312234 0.03168797 0.01677255 0.00475899 0.00505306 0.00127705 
0.04567983 0.04288973 0.00978812 0.00102744 0.00077062 0.00287913 0.01343154 0.01517402 0.03655725 0.00332907 0.00314313 0.03184429 0.01695563 0.00481118 0.00509794 0.00126343 
0.04621471 0.04198054 0.01004340 0.00106146 0.00077228 0.00287939 0.01356826 0.01526875 0.03766283 0.00331340 0.00316316 0.03199471 0.01713566 0.00485977 0.00514604 0.00124935 
0.04680046 0.04113576 0.01030334 0.00109996 0.00077395 0.00287864 0.01371057 0.01535286 0.03874609 0.00329569 0.00318232 0.03213800 0.01731158 0.00490450 0.00519691 0.00123487 
0.04743471 0.04035623 0.01056752 0.00114297 0.00077564 0.00287674 0.01385735 0.01542589 0.03980184 0.00327597 0.00320051 0.03227308 0.01748235 0.00494515 0.00525009 0.00122005 
0.04811475 0.03964247 0.01083547 0.00119052 0.00077734 0.00287359 0.01400754 0.01548740 0.04082493 0.00325426 0.00321762 0.03239892 0.01764691 0.00498149 0.00530511 0.00120496 
0.04883748 0.03899466 0.01110673 0.00124261 0.00077907 0.00286906 0.01416008 0.01553699 0.04181031 0.00323061 0.00323358 0.03251466 0.01780424 0.00501333 0.00536149 0.00118965 
0.04959946 0.03841269 0.01138081 0.00129922 0.00078081 0.00286307 0.01431395 0.01557427 0.04275302 0.00320505 0.00324829 0.03261952 0.01795333 0.00504049 0.00541879 0.00117421 
0.05039696 0.03789611 0.01165720 0.00136031 0.00078258 0.00285554 0.01446819 0.01559890 0.04364825 0.00317767 0.00326169 0.03271285 0.01809321 0.00506283 0.00547653 0.00115871 
0.05122590 0.03744419 0.01193539 0.00142582 0.00078437 0.00284639 0.01462189 0.01561057 0.04449138 0.00314853 0.00327371 0.03279416 0.01822294 0.00508021 0.00553427 0.00114321 
0.05208196 0.03705591 0.01221484 0.00149567 0.00078617 0.00283558 0.01477418 0.01560900 0.04527797 0.00311772 0.00328429 0.03286307 0.01834165 0.00509251 0.00559156 0.00112781 
0.05296054 0.03673000 0.01249501 0.00156975 0.00078799 0.00282307 0.01492429 0.01559395 0.04600381 0.00308535 0.00329339 0.03291933 0.01844850 0.00509966 0.00564797 0.00111257 
0.05385681 0.03646492 0.01277534 0.00164793 0.00078983 0.00280885 0.01507150 0.01556522 0.04666497 0.00305153 0.00330097 0.03296283 0.01854272 0.00510158 0.00570311 0.00109759 
0.05476576 0.03625892 0.01305524 0.00173006 0.00079167 0.00279290 0.01521518 0.01552266 0.04725776 0.00301638 0.00330701 0.03299361 0.01862361 0.00509824 0.00575656 0.00108294 
0.05568219 0.03611000 0.01333413 0.00181596 0.00079352 0.00277527 0.01535478 0.01546615 0.04777885 0.00298005 0.00331149 0.03301182 0.01869056 0.00508962 0.00580797 0.00106870 
0.05660077 0.03601602 0.01361141 0.00190545 0.00079537 0.00275598 0.01548983 0.01539563 0.04822519 0.00294267 0.00331442 0.03301775 0.01874302 0.00507573 0.00585698 0.00105497 
0.05751609 0.03597461 0.01388647 0.00199830 0.00079721 0.00273509 0.01561998 0.01531109 0.04859413 0.00290440 0.00331581 0.03301183 0.01878052 0.00505661 0.00590327 0.00104181 
0.05842265 0.03598329 0.01415869 0.00209427 0.00079904 0.00271269 0.01574494 0.01521256 0.04888337 0.00286541 0.00331569 0.03299457 0.01880272 0.00503231 0.00594654 0.00102932 
0.05931494 0.03603942 0.01442744 0.00219312 0.00080084 0.00268888 0.01586454 0.01510012 0.04909099 0.00282588 0.00331409 0.03296664 0.01880933 0.00500292 0.00598653 0.00101757 
0.06018746 0.03614027 0.01469207 0.00229456 0.00080262 0.00266377 0.01597871 0.01497392 0.04921552 0.00278599 0.00331107 0.03292879 0.01880020 0.00496855 0.00602300 0.00100664 
0.06103474 0.03628302 0.01495196 0.00239830 0.00080437 0.00263750 0.01608748 0.01483414 0.04925587 0.00274593 0.00330668 0.03288188 0.01877525 0.00492931 0.00605574 0.00099660 
0.06185142 0.03646477 0.01520645 0.00250404 0.00080607 0.00261025 0.01619097 0.01468103 0.04921140 0.00270590 0.00330101 0.03282684 0.01873451 0.00488537 0.00608458 0.00098754 
0.06263226 0.03668258 0.01545490 0.00261144 0.00080771 0.00258217 0.01628941 0.01451490 0.04908194 0.00266611 0.00329415 0.03276472 0.01867814 0.00483689 0.00610938 0.00097951 
0.06337220 0.03693349 0.01569665 0.00272017 0.00080930 0.00255348 0.01638313 0.01433608 0.04886772 0.00262675 0.00328620 0.03269659 0.01860637 0.00478407 0.00613003 0.00097259 
0.06406635 0.03721453 0.01593108 0.00282988 0.00081082 0.00252439 0.01647254 0.01414501 0.04856947 0.00258805 0.00327727 0.03262362 0.01851958 0.00472712 0.00614646 0.00096683 
0.06471009 0.03752275 0.01615753 0.00294021 0.00081226 0.00249513 0.01655816 0.01394213 0.04818835 0.00255022 0.00326749 0.03254702 0.01841821 0.00466627 0.00615862 0.00096230 
0.06529908 0.03785523 0.01637537 0.00305079 0.00081363 0.00246595 0.01664059 0.01372798 0.04772599 0.00251348 0.00325700 0.03246802 0.01830283 0.00460176 0.00616650 0.00095905 
0.06582926 0.03820911 0.01658398 0.00316123 0.00081490 0.00243710 0.01672052 0.01350312 0.04718447 0.00247804 0.00324595 0.03238789 0.01817411 0.00453386 0.00617014 0.00095711 
0.06629696 0.03858158 0.01678274 0.00327116 0.00081607 0.00240887 0.01679872 0.01326818 0.04656629 0.00244413 0.00323448 0.03230792 0.01803282 0.00446285 0.00616960 0.00095654 
0.06669884 0.03896993 0.01697105 0.00338019 0.00081715 0.00238154 0.01687602 0.01302384 0.04587443 0.00241195 0.00322277 0.03222939 0.01787982 0.00438900 0.00616496 0.00095737 
0.06703201 0.03937155 0.01714834 0.00348793 0.00081811 0.00235541 0.01695333 0.01277082 0.04511225 0.00238173 0.00321100 0.03215356 0.01771605 0.00431263 0.00615634 0.00095963 
0.06729398 0.03978393 0.01731402 0.00359400 0.00081897 0.00233077 0.01703161 0.01250990 0.04428354 0.00235368 0.00319933 0.03208171 0.01754256 0.00423403 0.00614389 0.00096333 
0.06748272 0.04020469 0.01746756 0.00369801 0.00081971 0.00230793 0.01711187 0.01224190 0.04339249 0.00232799 0.00318796 0.03201504 0.01736046 0.00415352 0.00612780 0.00096850 
0.06759669 0.04063158 0.01760843 0.00379958 0.00082034 0.00228721 0.01719516 0.01196768 0.04244363 0.00230487 0.00317708 0.03195473 0.01717093 0.00407142 0.00610827 0.00097514 
0.06763483 0.04106249 0.01773614 0.00389833 0.00082085 0.00226892 0.01728257 0.01168814 0.04144187 0.00228452 0.00316688 0.03190191 0.01697522 0.00398806 0.00608552 0.00098325 
0.06759662 0.04149548 0.01785022 0.00399392 0.00082124 0.00225337 0.01737522 0.01140423 0.04039243 0.00226712 0.00315756 0.03185764 0.01677464 0.00390375 0.00605982 0.00099283 
0.06748201 0.04192873 0.01795024 0.00408597 0.00082152 0.00224087 0.01747421 0.01111691 0.03930083 0.00225284 0.00314931 0.03182290 0.01657055 0.00381883 0.00603142 0.00100386 
0.06729153 0.04236062 0.01803578 0.00417415 0.00082169 0.00223173 0.01758069 0.01082719 0.03817285 0.00224185 0.00314233 0.03179861 0.01636434 0.00373362 0.00600063 0.00101632 
0.06702622 0.04278965 0.01810648 0.00425814 0.00082175 0.00222624 0.01769576 0.01053611 0.03701452 0.00223431 0.00313682 0.03178558 0.01615744 0.00364843 0.00596775 0.00103019 
0.06668765 0.04321450 0.01816201 0.00433762 0.00082172 0.00222469 0.01782054 0.01024472 0.03583207 0.00223035 0.00313296 0.03178454 0.01595130 0.00356359 0.00593310 0.00104541 
0.06627793 0.04363404 0.01820206 0.00441230 0.00082158 0.00222736 0.01795610 0.00995410 0.03463191 0.00223011 0.00313095 0.03179610 0.01574737 0.00347940 0.00589701 0.00106197 
0.06579969 0.04404725 0.01822640 0.00448191 0.00082136 0.00223451 0.01810349 0.00966533 0.03342058 0.00223371 0.00313095 0.03182078 0.01554711 0.00339616 0.00585982 0.00107979 
0.06525609 0.04445330 0.01823480 0.00454620 0.00082107 0.00224637 0.01826369 0.00937952 0.03220472 0.00224125 0.00313315 0.03185899 0.01535197 0.00331416 0.00582188 0.00109882 
0.06465075 0.04485151 0.01822710 0.00460494 0.00082071 0.00226319 0.01843765 0.00909778 0.03099103 0.00225281 0.00313771 0.03191101 0.01516339 0.00323369 0.00578354 0.00111901 
0.06398781 0.04524134 0.01820318 0.00465793 0.00082030 0.00228517 0.01862623 0.00882121 0.02978624 0.00226847 0.00314478 0.03197702 0.01498276 0.00315500 0.00574514 0.00114028 
0.06327186 0.04562238 0.01816296 0.00470499 0.00081986 0.00231249 0.01883025 0.00855093 0.02859708 0.00228828 0.00315451 0.03205708 0.01481145 0.00307835 0.00570705 0.00116255 
