0.01189825 0.00244740 0.00106582 0.00217859 0.00364843 0.00159602 0.01016140 0.00296293 0.00603207 0.00189429 0.00530608 0.00174177 0.00285961 0.00075538 0.00284172 0.00066647 
0.01200679 0.00248318 0.00106908 0.00217171 0.00367522 0.00160007 0.01013283 0.00297954 0.00609597 0.00190032 0.00548860 0.00174159 0.00289694 0.00073036 0.00278508 0.00066856 
0.01211163 0.00252019 0.00107181 0.00216296 0.00370746 0.00160353 0.01010326 0.00299592 0.00617528 0.00190894 0.00568821 0.00174094 0.00293421 0.00070456 0.00272949 0.00067035 
0.01221320 0.00255838 0.00107401 0.00215241 0.00374514 0.00160639 0.01007287 0.00301205 0.00627087 0.00192025 0.00590460 0.00173989 0.00297141 0.00067807 0.00267513 0.00067184 
0.01231191 0.00259774 0.00107569 0.00214016 0.00378819 0.00160859 0.01004184 0.00302788 0.00638357 0.00193433 0.00613737 0.00173849 0.00300856 0.00065097 0.00262214 0.00067302 
0.01240821 0.00263822 0.00107686 0.00212628 0.00383655 0.00161009 0.01001036 0.00304339 0.00651413 0.00195126 0.00638605 0.00173680 0.00304564 0.00062337 0.00257067 0.00067387 
0.01250255 0.00267978 0.00107754 0.00211088 0.00389011 0.00161087 0.00997864 0.00305854 0.00666323 0.00197108 0.00665007 0.00173487 0.00308266 0.00059537 0.00252085 0.00067437 
0.01259538 0.00272237 0.00107775 0.00209404 0.00394875 0.00161088 0.00994687 0.00307329 0.00683146 0.00199384 0.00692883 0.00173278 0.00311961 0.00056707 0.00247281 0.00067453 
0.01268715 0.00276595 0.00107750 0.00207588 0.00401230 0.00161009 0.00991526 0.00308761 0.00701933 0.00201957 0.00722163 0.00173059 0.00315650 0.00053856 0.00242665 0.00067432 
0.01277832 0.00281046 0.00107681 0.00205647 0.00408059 0.00160845 0.00988403 0.00310146 0.00722725 0.00204826 0.00752769 0.00172837 0.00319333 0.00050998 0.00238246 0.00067373 
0.01286932 0.00285583 0.00107570 0.00203594 0.00415340 0.00160595 0.00985339 0.00311481 0.00745553 0.00207991 0.00784621 0.00172617 0.00323009 0.00048141 0.00234033 0.00067277 
0.01296058 0.00290202 0.00107419 0.00201437 0.00423051 0.00160253 0.00982355 0.00312763 0.00770438 0.00211448 0.00817630 0.00172407 0.00326678 0.00045298 0.00230032 0.00067143 
0.01305252 0.00294894 0.00107231 0.00199187 0.00431165 0.00159819 0.00979472 0.00313987 0.00797391 0.00215192 0.00851703 0.00172212 0.00330340 0.00042480 0.00226250 0.00066969 
0.01314553 0.00299653 0.00107007 0.00196855 0.00439656 0.00159288 0.00976712 0.00315152 0.00826410 0.00219218 0.00886740 0.00172040 0.00333994 0.00039698 0.00222690 0.00066756 
0.01323996 0.00304472 0.00106752 0.00194449 0.00448492 0.00158659 0.00974096 0.00316253 0.00857484 0.00223515 0.00922641 0.00171896 0.00337639 0.00036964 0.00219356 0.00066504 
0.01333617 0.00309342 0.00106466 0.00191980 0.00457641 0.00157929 0.00971644 0.00317289 0.00890587 0.00228073 0.00959297 0.00171787 0.00341275 0.00034290 0.00216249 0.00066211 
0.01343445 0.00314255 0.00106153 0.00189457 0.00467070 0.00157098 0.00969376 0.00318255 0.00925683 0.00232880 0.00996600 0.00171719 0.00344899 0.00031686 0.00213372 0.00065879 
0.01353507 0.00319204 0.00105816 0.00186889 0.00476741 0.00156163 0.00967311 0.00319149 0.00962726 0.00237922 0.01034436 0.00171696 0.00348511 0.00029165 0.00210723 0.00065508 
0.01363828 0.00324179 0.00105458 0.00184286 0.00486618 0.00155125 0.00965468 0.00319970 0.01001655 0.00243181 0.01072691 0.00171725 0.00352108 0.00026737 0.00208301 0.00065097 
0.01374424 0.00329171 0.00105082 0.00181656 0.00496662 0.00153982 0.00963863 0.00320714 0.01042398 0.00248642 0.01111249 0.00171810 0.00355688 0.00024413 0.00206104 0.00064648 
0.01385312 0.00334173 0.00104692 0.00179008 0.00506831 0.00152735 0.00962514 0.00321380 0.01084871 0.00254283 0.01149992 0.00171957 0.00359249 0.00022205 0.00204130 0.00064162 
0.01396500 0.00339174 0.00104290 0.00176350 0.00517083 0.00151385 0.00961434 0.00321966 0.01128980 0.00260084 0.01188803 0.00172169 0.00362787 0.00020122 0.00202373 0.00063638 
0.01407994 0.00344166 0.00103880 0.00173688 0.00527377 0.00149932 0.00960638 0.00322470 0.01174616 0.00266022 0.01227563 0.00172450 0.00366300 0.00018176 0.00200829 0.00063079 
0.01419793 0.00349140 0.00103465 0.00171031 0.00537669 0.00148379 0.00960137 0.00322892 0.01221662 0.00272074 0.01266155 0.00172803 0.00369785 0.00016375 0.00199493 0.00062485 
0.01431891 0.00354086 0.00103051 0.00168385 0.00547914 0.00146726 0.00959942 0.00323230 0.01269989 0.00278214 0.01304465 0.00173232 0.00373236 0.00014728 0.00198358 0.00061858 
0.01444279 0.00358996 0.00102639 0.00165757 0.00558067 0.00144978 0.00960061 0.00323484 0.01319458 0.00284416 0.01342377 0.00173740 0.00376651 0.00013246 0.00197417 0.00061198 
0.01456940 0.00363861 0.00102235 0.00163153 0.00568085 0.00143136 0.00960500 0.00323653 0.01369919 0.00290653 0.01379780 0.00174327 0.00380023 0.00011935 0.00196663 0.00060509 
0.01469851 0.00368672 0.00101841 0.00160578 0.00577922 0.00141206 0.00961264 0.00323738 0.01421216 0.00296897 0.01416565 0.00174996 0.00383350 0.00010804 0.00196086 0.00059790 
0.01482987 0.00373421 0.00101463 0.00158038 0.00587534 0.00139191 0.00962356 0.00323738 0.01473181 0.00303118 0.01452625 0.00175747 0.00386624 0.00009859 0.00195680 0.00059045 
0.01496316 0.00378100 0.00101104 0.00155537 0.00596876 0.00137095 0.00963775 0.00323655 0.01525641 0.00309288 0.01487859 0.00176581 0.00389842 0.00009106 0.00195434 0.00058274 
0.01509799 0.00382702 0.00100768 0.00153080 0.00605905 0.00134925 0.00965519 0.00323489 0.01578413 0.00315377 0.01522169 0.00177497 0.00392996 0.00008551 0.00195339 0.00057481 
0.01523394 0.00387220 0.00100460 0.00150672 0.00614579 0.00132686 0.00967584 0.00323241 0.01631311 0.00321356 0.01555460 0.00178495 0.00396082 0.00008199 0.00195386 0.00056666 
0.01537055 0.00391646 0.00100184 0.00148315 0.00622856 0.00130384 0.00969963 0.00322914 0.01684143 0.00327194 0.01587644 0.00179574 0.00399093 0.00008052 0.00195564 0.00055833 
0.01550729 0.00395976 0.00099944 0.00146014 0.00630696 0.00128025 0.00972648 0.00322508 0.01736711 0.00332863 0.01618636 0.00180732 0.00402022 0.00008115 0.00195864 0.00054983 
0.01564361 0.00400203 0.00099745 0.00143772 0.00638059 0.00125618 0.00975625 0.00322027 0.01788815 0.00338333 0.01648359 0.00181967 0.00404863 0.00008389 0.00196274 0.00054118 
0.01577890 0.00404324 0.00099591 0.00141592 0.00644910 0.00123169 0.00978882 0.00321473 0.01840254 0.00343575 0.01676739 0.00183275 0.00407609 0.00008874 0.00196785 0.00053241 
0.01591252 0.00408334 0.00099486 0.00139477 0.00651213 0.00120687 0.00982401 0.00320848 0.01890825 0.00348563 0.01703709 0.00184654 0.00410254 0.00009570 0.00197384 0.00052353 
0.01604380 0.00412231 0.00099435 0.00137429 0.00656935 0.00118180 0.00986165 0.00320155 0.01940323 0.00353268 0.01729209 0.00186099 0.00412790 0.00010477 0.00198062 0.00051458 
0.01617204 0.00416013 0.00099441 0.00135450 0.00662046 0.00115656 0.00990152 0.00319398 0.01988547 0.00357665 0.01753182 0.00187607 0.00415211 0.00011592 0.00198808 0.00050557 
0.01629652 0.00419678 0.00099510 0.00133543 0.00666517 0.00113124 0.00994340 0.00318581 0.02035296 0.00361730 0.01775580 0.00189173 0.00417509 0.00012911 0.00199611 0.00049652 
0.01641650 0.00423227 0.00099645 0.00131710 0.00670324 0.00110594 0.00998702 0.00317707 0.02080375 0.00365440 0.01796361 0.00190790 0.00419678 0.00014431 0.00200459 0.00048745 
0.01653122 0.00426660 0.00099851 0.00129953 0.00673443 0.00108074 0.01003213 0.00316780 0.02123590 0.00368773 0.01815489 0.00192456 0.00421710 0.00016145 0.00201343 0.00047840 
0.01663990 0.00429980 0.00100130 0.00128274 0.00675855 0.00105574 0.01007843 0.00315804 0.02164756 0.00371710 0.01832932 0.00194162 0.00423600 0.00018048 0.00202250 0.00046936 
0.01674178 0.00433189 0.00100488 0.00126675 0.00677544 0.00103104 0.01012561 0.00314783 0.02203692 0.00374232 0.01848668 0.00195903 0.00425339 0.00020130 0.00203171 0.00046037 
0.01683609 0.00436292 0.00100928 0.00125158 0.00678497 0.00100674 0.01017336 0.00313723 0.02240227 0.00376324 0.01862678 0.00197672 0.00426923 0.00022384 0.00204094 0.00045145 
0.01692207 0.00439295 0.00101453 0.00123723 0.00678703 0.00098292 0.01022134 0.00312628 0.02274198 0.00377972 0.01874952 0.00199464 0.00428345 0.00024800 0.00205010 0.00044260 
0.01699895 0.00442204 0.00102067 0.00122374 0.00678157 0.00095969 0.01026922 0.00311501 0.02305451 0.00379164 0.01885482 0.00201270 0.00429598 0.00027365 0.00205906 0.00043386 
0.01706601 0.00445026 0.00102772 0.00121112 0.00676857 0.00093714 0.01031663 0.00310349 0.02333844 0.00379890 0.01894271 0.00203084 0.00430677 0.00030069 0.00206774 0.00042522 
0.01712253 0.00447771 0.00103572 0.00119938 0.00674802 0.00091536 0.01036323 0.00309175 0.02359247 0.00380145 0.01901323 0.00204899 0.00431576 0.00032898 0.00207602 0.00041671 
0.01716784 0.00450450 0.00104469 0.00118855 0.00671998 0.00089444 0.01040865 0.00307985 0.02381542 0.00379924 0.01906649 0.00206707 0.00432291 0.00035838 0.00208381 0.00040834 
0.01720128 0.00453072 0.00105466 0.00117864 0.00668453 0.00087448 0.01045253 0.00306784 0.02400626 0.00379224 0.01910267 0.00208501 0.00432817 0.00038874 0.00209101 0.00040012 
0.01722225 0.00455652 0.00106563 0.00116967 0.00664180 0.00085556 0.01049451 0.00305575 0.02416408 0.00378046 0.01912197 0.00210274 0.00433149 0.00041991 0.00209751 0.00039207 
0.01723018 0.00458203 0.00107764 0.00116165 0.00659194 0.00083775 0.01053424 0.00304364 0.02428814 0.00376392 0.01912465 0.00212018 0.00433283 0.00045171 0.00210323 0.00038418 
0.01722457 0.00460738 0.00109069 0.00115461 0.00653515 0.00082115 0.01057137 0.00303154 0.02437785 0.00374269 0.01911104 0.00213727 0.00433217 0.00048398 0.00210807 0.00037647 
0.01720494 0.00463276 0.00110479 0.00114855 0.00647166 0.00080582 0.01060557 0.00301952 0.02443277 0.00371684 0.01908147 0.00215393 0.00432946 0.00051655 0.00211194 0.00036895 
0.01717090 0.00465831 0.00111994 0.00114351 0.00640174 0.00079183 0.01063651 0.00300759 0.02445265 0.00368648 0.01903634 0.00217009 0.00432468 0.00054921 0.00211474 0.00036162 
0.01712211 0.00468422 0.00113615 0.00113948 0.00632570 0.00077924 0.01066390 0.00299582 0.02443738 0.00365173 0.01897608 0.00218569 0.00431782 0.00058179 0.00211640 0.00035448 
0.01705830 0.00471067 0.00115342 0.00113650 0.00624386 0.00076812 0.01068744 0.00298423 0.02438704 0.00361274 0.01890117 0.00220067 0.00430886 0.00061410 0.00211683 0.00034754 
0.01697926 0.00473786 0.00117172 0.00113456 0.00615661 0.00075850 0.01070687 0.00297286 0.02430188 0.00356970 0.01881209 0.00221496 0.00429779 0.00064593 0.00211595 0.00034079 
0.01688486 0.00476599 0.00119107 0.00113369 0.00606434 0.00075044 0.01072197 0.00296174 0.02418232 0.00352279 0.01870938 0.00222851 0.00428460 0.00067710 0.00211368 0.00033425 
0.01677504 0.00479527 0.00121142 0.00113389 0.00596748 0.00074397 0.01073251 0.00295092 0.02402894 0.00347223 0.01859359 0.00224127 0.00426930 0.00070740 0.00210995 0.00032791 
0.01664984 0.00482590 0.00123277 0.00113517 0.00586650 0.00073912 0.01073832 0.00294040 0.02384251 0.00341827 0.01846532 0.00225318 0.00425189 0.00073665 0.00210469 0.00032177 
0.01650934 0.00485810 0.00125508 0.00113755 0.00576188 0.00073591 0.01073925 0.00293022 0.02362396 0.00336114 0.01832518 0.00226420 0.00423239 0.00076465 0.00209784 0.00031582 
0.01635373 0.00489210 0.00127832 0.00114101 0.00565413 0.00073436 0.01073519 0.00292041 0.02337438 0.00330113 0.01817378 0.00227430 0.00421081 0.00079121 0.00208933 0.00031006 
0.01618327 0.00492810 0.00130246 0.00114557 0.00554378 0.00073446 0.01072607 0.00291097 0.02309503 0.00323852 0.01801180 0.00228343 0.00418719 0.00081615 0.00207912 0.00030450 
0.01599830 0.00496633 0.00132745 0.00115121 0.00543138 0.00073622 0.01071185 0.00290192 0.02278731 0.00317362 0.01783989 0.00229157 0.00416154 0.00083929 0.00206715 0.00029912 
0.01579924 0.00500701 0.00135324 0.00115795 0.00531749 0.00073962 0.01069254 0.00289329 0.02245277 0.00310673 0.01765874 0.00229869 0.00413392 0.00086046 0.00205338 0.00029392 
0.01558660 0.00505036 0.00137979 0.00116575 0.00520270 0.00074464 0.01066817 0.00288507 0.02209310 0.00303819 0.01746905 0.00230478 0.00410435 0.00087950 0.00203777 0.00028891 
0.01536095 0.00509658 0.00140703 0.00117462 0.00508760 0.00075124 0.01063885 0.00287727 0.02171013 0.00296831 0.01727153 0.00230981 0.00407289 0.00089626 0.00202030 0.00028406 
0.01512296 0.00514588 0.00143491 0.00118452 0.00497278 0.00075940 0.01060470 0.00286989 0.02130581 0.00289745 0.01706690 0.00231379 0.00403959 0.00091059 0.00200093 0.00027938 
0.01487335 0.00519847 0.00146335 0.00119545 0.00485885 0.00076906 0.01056589 0.00286293 0.02088219 0.00282595 0.01685590 0.00231670 0.00400451 0.00092238 0.00197966 0.00027486 
0.01461293 0.00525452 0.00149228 0.00120736 0.00474642 0.00078016 0.01052264 0.00285639 0.02044143 0.00275416 0.01663926 0.00231856 0.00396772 0.00093150 0.00195648 0.00027050 
0.01434257 0.00531424 0.00152163 0.00122023 0.00463608 0.00079264 0.01047521 0.00285025 0.01998578 0.00268241 0.01641774 0.00231936 0.00392929 0.00093787 0.00193138 0.00026629 
0.01406320 0.00537777 0.00155132 0.00123402 0.00452845 0.00080643 0.01042391 0.00284452 0.01951757 0.00261107 0.01619208 0.00231913 0.00388929 0.00094140 0.00190438 0.00026222 
0.01377583 0.00544529 0.00158126 0.00124868 0.00442411 0.00082144 0.01036906 0.00283916 0.01903920 0.00254049 0.01596305 0.00231788 0.00384780 0.00094202 0.00187550 0.00025831 
0.01348151 0.00551694 0.00161136 0.00126416 0.00432365 0.00083758 0.01031107 0.00283417 0.01855310 0.00247099 0.01573139 0.00231563 0.00380491 0.00093970 0.00184477 0.00025453 
0.01318133 0.00559284 0.00164155 0.00128042 0.00422763 0.00085475 0.01025034 0.00282952 0.01806177 0.00240292 0.01549787 0.00231242 0.00376072 0.00093441 0.00181222 0.00025089 
0.01287646 0.00567309 0.00167171 0.00129738 0.00413660 0.00087286 0.01018733 0.00282520 0.01756772 0.00233660 0.01526326 0.00230828 0.00371530 0.00092614 0.00177791 0.00024739 
0.01256808 0.00575781 0.00170176 0.00131499 0.00405111 0.00089178 0.01012253 0.00282118 0.01707348 0.00227236 0.01502831 0.00230325 0.00366877 0.00091492 0.00174189 0.00024402 
0.01225743 0.00584705 0.00173160 0.00133317 0.00397165 0.00091139 0.01005646 0.00281742 0.01658159 0.00221049 0.01479379 0.00229736 0.00362123 0.00090078 0.00170424 0.00024079 
0.01194574 0.00594086 0.00176112 0.00135185 0.00389871 0.00093159 0.00998966 0.00281391 0.01609455 0.00215130 0.01456045 0.00229067 0.00357278 0.00088379 0.00166503 0.00023770 
0.01163431 0.00603929 0.00179023 0.00137094 0.00383275 0.00095222 0.00992271 0.00281062 0.01561485 0.00209507 0.01432904 0.00228322 0.00352352 0.00086403 0.00162437 0.00023474 
0.01132443 0.00614233 0.00181883 0.00139037 0.00377418 0.00097317 0.00985619 0.00280750 0.01514494 0.00204204 0.01410032 0.00227507 0.00347358 0.00084161 0.00158236 0.00023192 
0.01101739 0.00624996 0.00184681 0.00141005 0.00372341 0.00099429 0.00979071 0.00280453 0.01468722 0.00199248 0.01387501 0.00226627 0.00342307 0.00081666 0.00153911 0.00022925 
0.01071451 0.00636215 0.00187407 0.00142987 0.00368078 0.00101545 0.00972690 0.00280168 0.01424401 0.00194661 0.01365387 0.00225687 0.00337210 0.00078935 0.00149475 0.00022673 
0.01041707 0.00647883 0.00190051 0.00144975 0.00364662 0.00103650 0.00966537 0.00279891 0.01381757 0.00190464 0.01343760 0.00224693 0.00332079 0.00075986 0.00144943 0.00022436 
0.01012638 0.00659990 0.00192602 0.00146959 0.00362120 0.00105729 0.00960676 0.00279619 0.01341005 0.00186675 0.01322693 0.00223652 0.00326926 0.00072838 0.00140329 0.00022216 
0.00984370 0.00672524 0.00195052 0.00148928 0.00360475 0.00107769 0.00955170 0.00279348 0.01302352 0.00183312 0.01302255 0.00222569 0.00321763 0.00069514 0.00135649 0.00022012 
0.00957028 0.00685471 0.00197391 0.00150873 0.00359747 0.00109753 0.00950081 0.00279076 0.01265993 0.00180387 0.01282515 0.00221450 0.00316601 0.00066041 0.00130922 0.00021827 
0.00930734 0.00698814 0.00199610 0.00152783 0.00359951 0.00111669 0.00945470 0.00278797 0.01232108 0.00177915 0.01263539 0.00220301 0.00311454 0.00062445 0.00126165 0.00021661 
0.00905604 0.00712532 0.00201699 0.00154647 0.00361096 0.00113502 0.00941398 0.00278511 0.01200869 0.00175903 0.01245394 0.00219128 0.00306331 0.00058755 0.00121398 0.00021514 
0.00881752 0.00726603 0.00203651 0.00156457 0.00363190 0.00115237 0.00937922 0.00278213 0.01172430 0.00174360 0.01228142 0.00217937 0.00301246 0.00055003 0.00116641 0.00021389 
0.00859287 0.00741002 0.00205457 0.00158200 0.00366231 0.00116862 0.00935098 0.00277900 0.01146931 0.00173290 0.01211845 0.00216734 0.00296209 0.00051223 0.00111915 0.00021287 
0.00838311 0.00755701 0.00207111 0.00159868 0.00370218 0.00118362 0.00932979 0.00277570 0.01124499 0.00172697 0.01196560 0.00215523 0.00291232 0.00047449 0.00107242 0.00021208 
0.00818920 0.00770669 0.00208605 0.00161451 0.00375141 0.00119725 0.00931612 0.00277220 0.01105240 0.00172579 0.01182345 0.00214310 0.00286326 0.00043718 0.00102646 0.00021155 
0.00801203 0.00785873 0.00209934 0.00162940 0.00380986 0.00120938 0.00931043 0.00276847 0.01089249 0.00172935 0.01169251 0.00213099 0.00281501 0.00040069 0.00098150 0.00021128 
0.00785244 0.00801279 0.00211092 0.00164325 0.00387737 0.00121992 0.00931314 0.00276450 0.01076599 0.00173759 0.01157329 0.00211895 0.00276768 0.00036541 0.00093778 0.00021130 
0.00771116 0.00816849 0.00212074 0.00165598 0.00395370 0.00122874 0.00932461 0.00276027 0.01067350 0.00175046 0.01146625 0.00210702 0.00272137 0.00033174 0.00089555 0.00021161 
0.00758887 0.00832544 0.00212878 0.00166752 0.00403859 0.00123574 0.00934515 0.00275576 0.01061542 0.00176785 0.01137182 0.00209524 0.00267616 0.00030011 0.00085504 0.00021224 
0.00748613 0.00848322 0.00213500 0.00167779 0.00413171 0.00124085 0.00937502 0.00275095 0.01059196 0.00178964 0.01129041 0.00208364 0.00263214 0.00027093 0.00081653 0.00021319 
0.00740346 0.00864139 0.00213938 0.00168674 0.00423272 0.00124397 0.00941442 0.00274584 0.01060319 0.00181570 0.01122234 0.00207224 0.00258940 0.00024462 0.00078026 0.00021449 
0.00734124 0.00879951 0.00214192 0.00169430 0.00434121 0.00124505 0.00946350 0.00274042 0.01064897 0.00184588 0.01116794 0.00206108 0.00254802 0.00022162 0.00074647 0.00021614 
0.00729979 0.00895711 0.00214261 0.00170044 0.00445674 0.00124402 0.00952234 0.00273468 0.01072901 0.00187998 0.01112746 0.00205015 0.00250805 0.00020235 0.00071544 0.00021816 
0.00727932 0.00911373 0.00214146 0.00170511 0.00457885 0.00124084 0.00959096 0.00272862 0.01084283 0.00191781 0.01110112 0.00203948 0.00246958 0.00018724 0.00068740 0.00022057 
0.00727995 0.00926886 0.00213850 0.00170829 0.00470702 0.00123548 0.00966932 0.00272224 0.01098978 0.00195916 0.01108907 0.00202908 0.00243265 0.00017669 0.00066260 0.00022337 
0.00730170 0.00942202 0.00213376 0.00170997 0.00484070 0.00122790 0.00975729 0.00271556 0.01116906 0.00200380 0.01109143 0.00201894 0.00239731 0.00017113 0.00064128 0.00022658 
0.00734450 0.00957270 0.00212728 0.00171014 0.00497933 0.00121812 0.00985471 0.00270856 0.01137970 0.00205147 0.01110824 0.00200906 0.00236360 0.00017095 0.00062367 0.00023021 
0.00740817 0.00972041 0.00211911 0.00170880 0.00512231 0.00120613 0.00996132 0.00270128 0.01162058 0.00210191 0.01113952 0.00199944 0.00233156 0.00017653 0.00060999 0.00023426 
0.00749244 0.00986462 0.00210932 0.00170599 0.00526901 0.00119195 0.01007682 0.00269371 0.01189042 0.00215485 0.01118518 0.00199005 0.00230122 0.00018823 0.00060047 0.00023875 
0.00759696 0.01000485 0.00209799 0.00170173 0.00541879 0.00117562 0.01020082 0.00268588 0.01218781 0.00221001 0.01124513 0.00198087 0.00227260 0.00020640 0.00059529 0.00024367 
0.00772126 0.01014059 0.00208520 0.00169606 0.00557099 0.00115718 0.01033289 0.00267780 0.01251121 0.00226708 0.01131915 0.00197189 0.00224570 0.00023136 0.00059466 0.00024904 
0.00786479 0.01027134 0.00207106 0.00168905 0.00572493 0.00113670 0.01047251 0.00266950 0.01285895 0.00232576 0.01140703 0.00196306 0.00222053 0.00026342 0.00059874 0.00025486 
0.00802693 0.01039663 0.00205566 0.00168076 0.00587993 0.00111425 0.01061912 0.00266100 0.01322926 0.00238574 0.01150843 0.00195437 0.00219710 0.00030282 0.00060768 0.00026112 
0.00820696 0.01051597 0.00203913 0.00167127 0.00603529 0.00108992 0.01077209 0.00265233 0.01362023 0.00244672 0.01162299 0.00194576 0.00217538 0.00034982 0.00062163 0.00026782 
0.00840407 0.01062891 0.00202160 0.00166069 0.00619031 0.00106381 0.01093075 0.00264351 0.01402989 0.00250835 0.01175028 0.00193720 0.00215538 0.00040462 0.00064072 0.00027497 
0.00861739 0.01073502 0.00200320 0.00164911 0.00634429 0.00103603 0.01109436 0.00263458 0.01445617 0.00257034 0.01188977 0.00192864 0.00213705 0.00046738 0.00066502 0.00028255 
0.00884598 0.01083386 0.00198409 0.00163666 0.00649654 0.00100672 0.01126215 0.00262556 0.01489693 0.00263234 0.01204091 0.00192003 0.00212037 0.00053823 0.00069464 0.00029055 
0.00908880 0.01092503 0.00196442 0.00162347 0.00664636 0.00097602 0.01143330 0.00261649 0.01534996 0.00269405 0.01220307 0.00191132 0.00210532 0.00061726 0.00072961 0.00029896 
0.00934479 0.01100817 0.00194435 0.00160967 0.00679308 0.00094407 0.01160693 0.00260740 0.01581301 0.00275515 0.01237555 0.00190247 0.00209184 0.00070451 0.00076997 0.00030778 
0.00961281 0.01108292 0.00192405 0.00159542 0.00693603 0.00091103 0.01178217 0.00259833 0.01628378 0.00281532 0.01255760 0.00189340 0.00207990 0.00080000 0.00081572 0.00031697 
0.00989168 0.01114896 0.00190371 0.00158088 0.00707455 0.00087708 0.01195809 0.00258931 0.01675993 0.00287425 0.01274840 0.00188407 0.00206945 0.00090367 0.00086684 0.00032653 
0.01018015 0.01120600 0.00188350 0.00156621 0.00720803 0.00084240 0.01213374 0.00258038 0.01723913 0.00293165 0.01294708 0.00187443 0.00206043 0.00101544 0.00092329 0.00033643 
0.01047697 0.01125379 0.00186361 0.00155160 0.00733584 0.00080717 0.01230815 0.00257156 0.01771902 0.00298722 0.01315272 0.00186440 0.00205278 0.00113516 0.00098498 0.00034665 
0.01078081 0.01129210 0.00184424 0.00153722 0.00745742 0.00077159 0.01248037 0.00256291 0.01819725 0.00304068 0.01336435 0.00185395 0.00204646 0.00126266 0.00105182 0.00035715 
0.01109037 0.01132074 0.00182557 0.00152327 0.00757221 0.00073586 0.01264940 0.00255444 0.01867150 0.00309177 0.01358092 0.00184300 0.00204139 0.00139769 0.00112366 0.00036792 
0.01140427 0.01133958 0.00180781 0.00150992 0.00767970 0.00070019 0.01281428 0.00254619 0.01913947 0.00314022 0.01380139 0.00183152 0.00203753 0.00153998 0.00120035 0.00037892 
0.01172116 0.01134849 0.00179114 0.00149739 0.00777939 0.00066479 0.01297403 0.00253820 0.01959888 0.00318579 0.01402464 0.00181944 0.00203480 0.00168919 0.00128170 0.00039011 
0.01203967 0.01134740 0.00177577 0.00148587 0.00787085 0.00062986 0.01312769 0.00253050 0.02004751 0.00322826 0.01424953 0.00180673 0.00203314 0.00184495 0.00136748 0.00040146 
0.01235842 0.01133629 0.00176188 0.00147556 0.00795367 0.00059563 0.01327432 0.00252311 0.02048322 0.00326740 0.01447488 0.00179333 0.00203250 0.00200682 0.00145746 0.00041294 
0.01267605 0.01131517 0.00174967 0.00146664 0.00802748 0.00056230 0.01341303 0.00251607 0.02090390 0.00330303 0.01469951 0.00177920 0.00203282 0.00217432 0.00155136 0.00042449 
0.01299119 0.01128409 0.00173932 0.00145933 0.00809196 0.00053010 0.01354291 0.00250940 0.02130755 0.00333496 0.01492218 0.00176430 0.00203403 0.00234695 0.00164887 0.00043608 
0.01330253 0.01124315 0.00173101 0.00145381 0.00814684 0.00049922 0.01366314 0.00250312 0.02169224 0.00336304 0.01514167 0.00174861 0.00203609 0.00252415 0.00174967 0.00044767 
0.01360874 0.01119248 0.00172492 0.00145026 0.00819190 0.00046987 0.01377292 0.00249725 0.02205613 0.00338713 0.01535675 0.00173210 0.00203894 0.00270530 0.00185341 0.00045921 
0.01390854 0.01113227 0.00172121 0.00144887 0.00822694 0.00044226 0.01387149 0.00249183 0.02239750 0.00340710 0.01556617 0.00171473 0.00204253 0.00288978 0.00195970 0.00047066 
0.01420068 0.01106273 0.00172004 0.00144981 0.00825184 0.00041658 0.01395815 0.00248686 0.02271472 0.00342285 0.01576870 0.00169651 0.00204683 0.00307690 0.00206816 0.00048196 
0.01448398 0.01098413 0.00172155 0.00145325 0.00826653 0.00039301 0.01403227 0.00248235 0.02300630 0.00343430 0.01596312 0.00167741 0.00205179 0.00326598 0.00217836 0.00049308 
0.01475726 0.01089678 0.00172589 0.00145932 0.00827097 0.00037174 0.01409328 0.00247833 0.02327085 0.00344140 0.01614822 0.00165743 0.00205739 0.00345627 0.00228987 0.00050396 
0.01501943 0.01080102 0.00173316 0.00146819 0.00826518 0.00035293 0.01414067 0.00247481 0.02350712 0.00344411 0.01632284 0.00163657 0.00206359 0.00364702 0.00240223 0.00051455 
0.01526943 0.01069722 0.00174348 0.00147997 0.00824924 0.00033673 0.01417399 0.00247178 0.02371399 0.00344240 0.01648581 0.00161486 0.00207038 0.00383746 0.00251498 0.00052481 
0.01550629 0.01058582 0.00175694 0.00149478 0.00822327 0.00032330 0.01419290 0.00246927 0.02389049 0.00343629 0.01663606 0.00159229 0.00207774 0.00402681 0.00262763 0.00053469 
0.01572907 0.01046726 0.00177361 0.00151272 0.00818744 0.00031276 0.01419709 0.00246726 0.02403576 0.00342580 0.01677250 0.00156890 0.00208566 0.00421426 0.00273969 0.00054415 
0.01593693 0.01034204 0.00179357 0.00153386 0.00814198 0.00030523 0.01418638 0.00246577 0.02414913 0.00341097 0.01689415 0.00154471 0.00209414 0.00439902 0.00285067 0.00055312 
0.01612908 0.01021068 0.00181684 0.00155828 0.00808717 0.00030080 0.01416063 0.00246478 0.02423002 0.00339187 0.01700006 0.00151976 0.00210319 0.00458029 0.00296008 0.00056159 
0.01630481 0.01007373 0.00184346 0.00158602 0.00802332 0.00029958 0.01411981 0.00246431 0.02427805 0.00336859 0.01708935 0.00149411 0.00211282 0.00475728 0.00306740 0.00056949 
0.01646349 0.00993178 0.00187343 0.00161710 0.00795080 0.00030162 0.01406396 0.00246434 0.02429295 0.00334123 0.01716121 0.00146779 0.00212305 0.00492921 0.00317214 0.00057678 
0.01660458 0.00978544 0.00190674 0.00165154 0.00787002 0.00030698 0.01399319 0.00246487 0.02427463 0.00330992 0.01721492 0.00144087 0.00213391 0.00509534 0.00327381 0.00058344 
0.01672761 0.00963534 0.00194335 0.00168932 0.00778144 0.00031569 0.01390774 0.00246589 0.02422313 0.00327480 0.01724984 0.00141341 0.00214542 0.00525493 0.00337192 0.00058941 
0.01683218 0.00948215 0.00198321 0.00173041 0.00768555 0.00032777 0.01380788 0.00246739 0.02413864 0.00323605 0.01726541 0.00138549 0.00215762 0.00540728 0.00346601 0.00059467 
0.01691799 0.00932653 0.00202625 0.00177476 0.00758288 0.00034322 0.01369399 0.00246936 0.02402149 0.00319382 0.01726118 0.00135717 0.00217056 0.00555173 0.00355560 0.00059919 
0.01698483 0.00916918 0.00207237 0.00182228 0.00747400 0.00036201 0.01356654 0.00247179 0.02387216 0.00314833 0.01723678 0.00132854 0.00218429 0.00568768 0.00364027 0.00060293 
0.01703255 0.00901082 0.00212145 0.00187289 0.00735951 0.00038411 0.01342605 0.00247466 0.02369128 0.00309977 0.01719195 0.00129970 0.00219885 0.00581457 0.00371960 0.00060587 
0.01706111 0.00885217 0.00217337 0.00192646 0.00724005 0.00040947 0.01327313 0.00247797 0.02347960 0.00304839 0.01712654 0.00127072 0.00221431 0.00593189 0.00379320 0.00060799 
0.01707054 0.00869396 0.00222797 0.00198287 0.00711627 0.00043800 0.01310847 0.00248168 0.02323801 0.00299440 0.01704051 0.00124171 0.00223073 0.00603920 0.00386071 0.00060928 
0.01706095 0.00853693 0.00228507 0.00204194 0.00698886 0.00046961 0.01293282 0.00248580 0.02296754 0.00293807 0.01693391 0.00121276 0.00224817 0.00613615 0.00392180 0.00060971 
0.01703254 0.00838182 0.00234449 0.00210351 0.00685851 0.00050419 0.01274698 0.00249031 0.02266931 0.00287965 0.01680692 0.00118397 0.00226668 0.00622244 0.00397616 0.00060928 
0.01698558 0.00822939 0.00240601 0.00216738 0.00672595 0.00054162 0.01255184 0.00249519 0.02234460 0.00281942 0.01665984 0.00115546 0.00228636 0.00629787 0.00402356 0.00060799 
0.01692042 0.00808037 0.00246941 0.00223334 0.00659191 0.00058175 0.01234832 0.00250042 0.02199477 0.00275765 0.01649306 0.00112732 0.00230724 0.00636233 0.00406376 0.00060583 
0.01683751 0.00793552 0.00253445 0.00230115 0.00645713 0.00062441 0.01213739 0.00250599 0.02162129 0.00269463 0.01630709 0.00109967 0.00232942 0.00641578 0.00409661 0.00060281 
0.01673732 0.00779557 0.00260087 0.00237056 0.00632236 0.00066945 0.01192009 0.00251189 0.02122573 0.00263066 0.01610256 0.00107261 0.00235294 0.00645830 0.00412197 0.00059894 
0.01662044 0.00766124 0.00266840 0.00244132 0.00618835 0.00071665 0.01169747 0.00251810 0.02080977 0.00256603 0.01588020 0.00104625 0.00237788 0.00649006 0.00413978 0.00059422 
0.01648750 0.00753325 0.00273676 0.00251315 0.00605586 0.00076584 0.01147063 0.00252461 0.02037515 0.00250103 0.01564086 0.00102070 0.00240429 0.00651136 0.00415000 0.00058868 
0.01633919 0.00741231 0.00280565 0.00258577 0.00592561 0.00081678 0.01124068 0.00253139 0.01992368 0.00243598 0.01538546 0.00099606 0.00243223 0.00652257 0.00415266 0.00058234 
0.01617628 0.00729910 0.00287477 0.00265887 0.00579835 0.00086926 0.01100877 0.00253845 0.01945726 0.00237118 0.01511506 0.00097243 0.00246175 0.00652421 0.00414785 0.00057523 
0.01599957 0.00719428 0.00294382 0.00273215 0.00567480 0.00092305 0.01077603 0.00254576 0.01897784 0.00230692 0.01483078 0.00094992 0.00249291 0.00651688 0.00413571 0.00056737 
0.01580992 0.00709850 0.00301248 0.00280530 0.00555566 0.00097790 0.01054364 0.00255332 0.01848740 0.00224351 0.01453387 0.00092862 0.00252573 0.00650132 0.00411643 0.00055881 
0.01560824 0.00701238 0.00308043 0.00287799 0.00544161 0.00103357 0.01031274 0.00256111 0.01798799 0.00218125 0.01422563 0.00090862 0.00256025 0.00647837 0.00409026 0.00054958 
0.01539548 0.00693651 0.00314735 0.00294992 0.00533331 0.00108980 0.01008449 0.00256912 0.01748168 0.00212043 0.01390745 0.00089001 0.00259650 0.00644899 0.00405752 0.00053973 
0.01517262 0.00687145 0.00321292 0.00302074 0.00523140 0.00114633 0.00986001 0.00257734 0.01697055 0.00206133 0.01358079 0.00087288 0.00263450 0.00641425 0.00401857 0.00052931 
0.01494067 0.00681774 0.00327683 0.00309014 0.00513647 0.00120291 0.00964042 0.00258576 0.01645672 0.00200423 0.01324718 0.00085729 0.00267424 0.00637535 0.00397385 0.00051837 
0.01470067 0.00677588 0.00333876 0.00315780 0.00504908 0.00125928 0.00942682 0.00259438 0.01594229 0.00194941 0.01290819 0.00084333 0.00271573 0.00633358 0.00392383 0.00050697 
0.01445368 0.00674632 0.00339840 0.00322340 0.00496977 0.00131517 0.00922024 0.00260317 0.01542938 0.00189711 0.01256546 0.00083104 0.00275896 0.00629035 0.00386905 0.00049516 
0.01420077 0.00672950 0.00345546 0.00328663 0.00489902 0.00137034 0.00902170 0.00261214 0.01492008 0.00184760 0.01222064 0.00082050 0.00280390 0.00624715 0.00381011 0.00048302 
0.01394303 0.00672580 0.00350963 0.00334718 0.00483727 0.00142453 0.00883218 0.00262127 0.01441645 0.00180111 0.01187545 0.00081174 0.00285051 0.00620559 0.00374765 0.00047060 
0.01368154 0.00673555 0.00356065 0.00340476 0.00478493 0.00147748 0.00865258 0.00263056 0.01392055 0.00175786 0.01153158 0.00080480 0.00289875 0.00616736 0.00368237 0.00045797 
0.01341739 0.00675906 0.00360826 0.00345909 0.00474234 0.00152897 0.00848377 0.00263999 0.01343437 0.00171807 0.01119078 0.00079972 0.00294857 0.00613425 0.00361501 0.00044520 
0.01315164 0.00679659 0.00365219 0.00350990 0.00470981 0.00157875 0.00832653 0.00264955 0.01295987 0.00168192 0.01085477 0.00079652 0.00299989 0.00610811 0.00354636 0.00043237 
0.01288538 0.00684834 0.00369222 0.00355693 0.00468757 0.00162661 0.00818160 0.00265924 0.01249894 0.00164960 0.01052527 0.00079520 0.00305263 0.00609085 0.00347723 0.00041955 
0.01261964 0.00691448 0.00372814 0.00359994 0.00467584 0.00167232 0.00804964 0.00266904 0.01205341 0.00162126 0.01020399 0.00079578 0.00310670 0.00608447 0.00340851 0.00040682 
0.01235545 0.00699510 0.00375976 0.00363873 0.00467475 0.00171570 0.00793123 0.00267893 0.01162505 0.00159705 0.00989260 0.00079824 0.00316199 0.00609098 0.00334107 0.00039424 
0.01209380 0.00709028 0.00378689 0.00367307 0.00468438 0.00175655 0.00782688 0.00268892 0.01121555 0.00157710 0.00959273 0.00080258 0.00321840 0.00611247 0.00327586 0.00038189 
0.01183565 0.00720002 0.00380940 0.00370280 0.00470476 0.00179470 0.00773702 0.00269897 0.01082649 0.00156151 0.00930599 0.00080876 0.00327579 0.00615103 0.00321380 0.00036986 
0.01158194 0.00732429 0.00382716 0.00372775 0.00473588 0.00182999 0.00766197 0.00270908 0.01045937 0.00155037 0.00903389 0.00081675 0.00333404 0.00620876 0.00315587 0.00035820 
0.01133353 0.00746297 0.00384007 0.00374780 0.00477763 0.00186228 0.00760201 0.00271923 0.01011561 0.00154373 0.00877791 0.00082652 0.00339299 0.00628778 0.00310305 0.00034701 
0.01109127 0.00761593 0.00384806 0.00376281 0.00482990 0.00189145 0.00755730 0.00272940 0.00979649 0.00154166 0.00853945 0.00083800 0.00345250 0.00639018 0.00305632 0.00033635 
0.01085594 0.00778296 0.00385107 0.00377272 0.00489248 0.00191739 0.00752792 0.00273957 0.00950321 0.00154417 0.00831980 0.00085114 0.00351240 0.00651806 0.00301666 0.00032628 
0.01062828 0.00796381 0.00384909 0.00377745 0.00496512 0.00194001 0.00751386 0.00274972 0.00923684 0.00155126 0.00812018 0.00086586 0.00357252 0.00667343 0.00298506 0.00031689 
0.01040894 0.00815818 0.00384213 0.00377696 0.00504752 0.00195924 0.00751504 0.00275982 0.00899832 0.00156292 0.00794171 0.00088209 0.00363270 0.00685830 0.00296247 0.00030823 
0.01019855 0.00836568 0.00383021 0.00377125 0.00513933 0.00197503 0.00753125 0.00276985 0.00878850 0.00157911 0.00778540 0.00089975 0.00369276 0.00707456 0.00294986 0.00030037 
0.00999766 0.00858593 0.00381340 0.00376032 0.00524014 0.00198734 0.00756225 0.00277977 0.00860806 0.00159976 0.00765215 0.00091873 0.00375251 0.00732407 0.00294814 0.00029336 
0.00980674 0.00881844 0.00379179 0.00374421 0.00534950 0.00199617 0.00760767 0.00278957 0.00845759 0.00162481 0.00754274 0.00093894 0.00381176 0.00760855 0.00295821 0.00028727 
0.00962621 0.00906271 0.00376548 0.00372299 0.00546691 0.00200153 0.00766708 0.00279920 0.00833751 0.00165413 0.00745781 0.00096027 0.00387034 0.00792963 0.00298093 0.00028213 
0.00945641 0.00931817 0.00373462 0.00369674 0.00559182 0.00200344 0.00773997 0.00280864 0.00824815 0.00168762 0.00739790 0.00098261 0.00392805 0.00828881 0.00301710 0.00027801 
0.00929763 0.00958421 0.00369937 0.00366558 0.00572366 0.00200194 0.00782573 0.00281786 0.00818965 0.00172513 0.00736339 0.00100583 0.00398471 0.00868745 0.00306749 0.00027494 
0.00915007 0.00986017 0.00365992 0.00362964 0.00586180 0.00199710 0.00792371 0.00282680 0.00816207 0.00176649 0.00735455 0.00102983 0.00404015 0.00912676 0.00313281 0.00027295 
0.00901385 0.01014536 0.00361648 0.00358907 0.00600559 0.00198901 0.00803317 0.00283545 0.00816531 0.00181154 0.00737149 0.00105446 0.00409417 0.00960777 0.00321370 0.00027208 
0.00888905 0.01043902 0.00356928 0.00354406 0.00615435 0.00197776 0.00815331 0.00284375 0.00819912 0.00186006 0.00741419 0.00107960 0.00414661 0.01013135 0.00331073 0.00027236 
0.00877565 0.01074037 0.00351857 0.00349482 0.00630735 0.00196347 0.00828327 0.00285168 0.00826314 0.00191184 0.00748248 0.00110511 0.00419730 0.01069817 0.00342440 0.00027380 
0.00867357 0.01104860 0.00346462 0.00344155 0.00646386 0.00194627 0.00842213 0.00285918 0.00835688 0.00196665 0.00757607 0.00113086 0.00424608 0.01130868 0.00355513 0.00027642 
0.00858268 0.01136285 0.00340772 0.00338449 0.00662313 0.00192632 0.00856894 0.00286623 0.00847970 0.00202425 0.00769451 0.00115672 0.00429281 0.01196313 0.00370326 0.00028022 
0.00850277 0.01168224 0.00334817 0.00332391 0.00678437 0.00190378 0.00872268 0.00287277 0.00863087 0.00208436 0.00783722 0.00118253 0.00433734 0.01266156 0.00386902 0.00028521 
0.00843355 0.01200586 0.00328628 0.00326006 0.00694682 0.00187881 0.00888229 0.00287878 0.00880950 0.00214672 0.00800348 0.00120817 0.00437955 0.01340375 0.00405259 0.00029139 
0.00837469 0.01233277 0.00322238 0.00319323 0.00710967 0.00185162 0.00904672 0.00288420 0.00901462 0.00221104 0.00819246 0.00123350 0.00441931 0.01418927 0.00425400 0.00029872 
0.00832581 0.01266202 0.00315679 0.00312372 0.00727212 0.00182240 0.00921483 0.00288901 0.00924511 0.00227703 0.00840317 0.00125839 0.00445654 0.01501742 0.00447322 0.00030722 
0.00828646 0.01299263 0.00308985 0.00305182 0.00743339 0.00179137 0.00938552 0.00289316 0.00949977 0.00234436 0.00863452 0.00128269 0.00449113 0.01588727 0.00471010 0.00031683 
0.00825614 0.01332362 0.00302192 0.00297784 0.00759267 0.00175873 0.00955764 0.00289662 0.00977730 0.00241274 0.00888530 0.00130628 0.00452303 0.01679763 0.00496439 0.00032754 
0.00823432 0.01365399 0.00295333 0.00290211 0.00774920 0.00172471 0.00973004 0.00289936 0.01007630 0.00248183 0.00915417 0.00132904 0.00455218 0.01774704 0.00523572 0.00033931 
0.00822040 0.01398274 0.00288442 0.00282495 0.00790219 0.00168955 0.00990158 0.00290135 0.01039528 0.00255132 0.00943972 0.00135083 0.00457853 0.01873381 0.00552364 0.00035210 
0.00821378 0.01430888 0.00281555 0.00274667 0.00805091 0.00165348 0.01007111 0.00290255 0.01073268 0.00262086 0.00974042 0.00137155 0.00460207 0.01975598 0.00582757 0.00036585 
0.00821379 0.01463140 0.00274704 0.00266760 0.00819460 0.00161673 0.01023750 0.00290295 0.01108686 0.00269014 0.01005465 0.00139107 0.00462279 0.02081134 0.00614682 0.00038050 
0.00821978 0.01494933 0.00267922 0.00258806 0.00833257 0.00157955 0.01039964 0.00290252 0.01145612 0.00275882 0.01038073 0.00140930 0.00464071 0.02189744 0.00648062 0.00039601 
0.00823103 0.01526167 0.00261242 0.00250837 0.00846414 0.00154217 0.01055645 0.00290124 0.01183871 0.00282656 0.01071690 0.00142614 0.00465586 0.02301158 0.00682807 0.00041229 
0.00824683 0.01556747 0.00254695 0.00242884 0.00858866 0.00150483 0.01070685 0.00289911 0.01223283 0.00289304 0.01106135 0.00144148 0.00466830 0.02415082 0.00718817 0.00042928 
0.00826646 0.01586580 0.00248309 0.00234978 0.00870551 0.00146777 0.01084983 0.00289612 0.01263665 0.00295793 0.01141219 0.00145525 0.00467809 0.02531202 0.00755984 0.00044691 
0.00828920 0.01615573 0.00242114 0.00227148 0.00881412 0.00143121 0.01098440 0.00289226 0.01304830 0.00302091 0.01176754 0.00146738 0.00468532 0.02649179 0.00794188 0.00046509 
0.00831431 0.01643639 0.00236135 0.00219423 0.00891395 0.00139539 0.01110963 0.00288753 0.01346590 0.00308168 0.01212544 0.00147778 0.00469009 0.02768657 0.00833303 0.00048373 
0.00834109 0.01670691 0.00230398 0.00211830 0.00900451 0.00136051 0.01122464 0.00288195 0.01388756 0.00313993 0.01248397 0.00148641 0.00469253 0.02889259 0.00873190 0.00050275 
0.00836881 0.01696649 0.00224924 0.00204396 0.00908535 0.00132679 0.01132858 0.00287553 0.01431141 0.00319537 0.01284115 0.00149320 0.00469277 0.03010591 0.00913707 0.00052207 
0.00839680 0.01721434 0.00219735 0.00197146 0.00915607 0.00129443 0.01142068 0.00286828 0.01473556 0.00324771 0.01319503 0.00149813 0.00469096 0.03132245 0.00954701 0.00054157 
0.00842439 0.01744974 0.00214848 0.00190101 0.00921632 0.00126362 0.01150024 0.00286023 0.01515816 0.00329670 0.01354370 0.00150115 0.00468727 0.03253796 0.00996015 0.00056117 
0.00845094 0.01767200 0.00210280 0.00183285 0.00926579 0.00123454 0.01156662 0.00285141 0.01557738 0.00334207 0.01388523 0.00150225 0.00468188 0.03374810 0.01037482 0.00058076 
0.00847585 0.01788048 0.00206044 0.00176716 0.00930424 0.00120734 0.01161923 0.00284187 0.01599145 0.00338359 0.01421776 0.00150141 0.00467498 0.03494841 0.01078935 0.00060026 
0.00849855 0.01807460 0.00202152 0.00170412 0.00933148 0.00118220 0.01165757 0.00283163 0.01639861 0.00342105 0.01453947 0.00149863 0.00466678 0.03613436 0.01120198 0.00061955 
0.00851852 0.01825384 0.00198612 0.00164390 0.00934735 0.00115924 0.01168122 0.00282074 0.01679720 0.00345423 0.01484862 0.00149392 0.00465748 0.03730136 0.01161096 0.00063854 
0.00853528 0.01841772 0.00195430 0.00158663 0.00935176 0.00113859 0.01168982 0.00280927 0.01718559 0.00348295 0.01514350 0.00148729 0.00464730 0.03844479 0.01201447 0.00065713 
0.00854840 0.01856585 0.00192611 0.00153243 0.00934469 0.00112036 0.01168310 0.00279726 0.01756226 0.00350706 0.01542253 0.00147877 0.00463646 0.03956001 0.01241071 0.00067522 
0.00855752 0.01869785 0.00190154 0.00148139 0.00932614 0.00110465 0.01166086 0.00278478 0.01792572 0.00352640 0.01568417 0.00146839 0.00462521 0.04064240 0.01279786 0.00069270 
0.00856230 0.01881347 0.00188059 0.00143361 0.00929619 0.00109152 0.01162297 0.00277190 0.01827463 0.00354087 0.01592702 0.00145620 0.00461376 0.04168740 0.01317409 0.00070949 
0.00856250 0.01891245 0.00186321 0.00138913 0.00925496 0.00108104 0.01156939 0.00275869 0.01860769 0.00355035 0.01614977 0.00144226 0.00460235 0.04269047 0.01353762 0.00072550 
0.00855792 0.01899466 0.00184936 0.00134800 0.00920262 0.00107325 0.01150017 0.00274522 0.01892374 0.00355478 0.01635122 0.00142662 0.00459121 0.04364719 0.01388666 0.00074062 
0.00854841 0.01905999 0.00183893 0.00131022 0.00913939 0.00106819 0.01141541 0.00273156 0.01922170 0.00355410 0.01653031 0.00140935 0.00458058 0.04455324 0.01421948 0.00075478 
0.00853390 0.01910841 0.00183184 0.00127581 0.00906554 0.00106585 0.01131531 0.00271781 0.01950062 0.00354829 0.01668609 0.00139054 0.00457068 0.04540445 0.01453437 0.00076790 
0.00851440 0.01913996 0.00182794 0.00124474 0.00898139 0.00106624 0.01120012 0.00270405 0.01975966 0.00353733 0.01681775 0.00137027 0.00456172 0.04619680 0.01482970 0.00077989 
0.00848994 0.01915472 0.00182710 0.00121697 0.00888730 0.00106932 0.01107019 0.00269035 0.01999809 0.00352126 0.01692463 0.00134864 0.00455392 0.04692646 0.01510389 0.00079068 
0.00846066 0.01915285 0.00182914 0.00119244 0.00878367 0.00107507 0.01092593 0.00267680 0.02021533 0.00350011 0.01700621 0.00132574 0.00454748 0.04758979 0.01535543 0.00080020 
0.00842673 0.01913457 0.00183390 0.00117109 0.00867094 0.00108342 0.01076780 0.00266349 0.02041089 0.00347395 0.01706210 0.00130167 0.00454259 0.04818342 0.01558292 0.00080840 
0.00838841 0.01910016 0.00184117 0.00115283 0.00854959 0.00109431 0.01059636 0.00265050 0.02058442 0.00344288 0.01709209 0.00127656 0.00453944 0.04870420 0.01578503 0.00081522 
0.00834598 0.01904993 0.00185074 0.00113755 0.00842012 0.00110765 0.01041220 0.00263791 0.02073572 0.00340700 0.01709611 0.00125052 0.00453818 0.04914924 0.01596053 0.00082061 
0.00829983 0.01898429 0.00186240 0.00112514 0.00828309 0.00112333 0.01021600 0.00262581 0.02086468 0.00336647 0.01707422 0.00122367 0.00453896 0.04951598 0.01610833 0.00082453 
0.00825035 0.01890366 0.00187593 0.00111547 0.00813906 0.00114126 0.01000845 0.00261428 0.02097134 0.00332143 0.01702666 0.00119613 0.00454192 0.04980214 0.01622741 0.00082694 
0.00819803 0.01880852 0.00189107 0.00110841 0.00798861 0.00116130 0.00979035 0.00260339 0.02105585 0.00327207 0.01695382 0.00116803 0.00454718 0.05000576 0.01631693 0.00082782 
0.00814339 0.01869942 0.00190759 0.00110380 0.00783238 0.00118332 0.00956250 0.00259321 0.02111851 0.00321860 0.01685624 0.00113951 0.00455483 0.05012521 0.01637613 0.00082716 
0.00808697 0.01857692 0.00192525 0.00110149 0.00767098 0.00120716 0.00932577 0.00258381 0.02115970 0.00316123 0.01673458 0.00111069 0.00456495 0.05015925 0.01640443 0.00082493 
0.00802940 0.01844163 0.00194381 0.00110132 0.00750507 0.00123268 0.00908105 0.00257525 0.02117995 0.00310022 0.01658969 0.00108171 0.00457760 0.05010694 0.01640136 0.00082114 
0.00797131 0.01829420 0.00196301 0.00110312 0.00733530 0.00125971 0.00882928 0.00256760 0.02117989 0.00303582 0.01642251 0.00105270 0.00459282 0.04996775 0.01636661 0.00081580 
0.00791337 0.01813531 0.00198261 0.00110671 0.00716234 0.00128807 0.00857142 0.00256090 0.02116025 0.00296832 0.01623416 0.00102380 0.00461062 0.04974150 0.01630003 0.00080892 
0.00785628 0.01796567 0.00200238 0.00111193 0.00698686 0.00131758 0.00830846 0.00255519 0.02112188 0.00289801 0.01602587 0.00099514 0.00463101 0.04942840 0.01620160 0.00080052 
0.00780076 0.01778600 0.00202209 0.00111860 0.00680952 0.00134807 0.00804142 0.00255053 0.02106570 0.00282519 0.01579898 0.00096685 0.00465396 0.04902904 0.01607147 0.00079064 
0.00774753 0.01759708 0.00204151 0.00112653 0.00663100 0.00137933 0.00777132 0.00254692 0.02099276 0.00275019 0.01555496 0.00093906 0.00467942 0.04854439 0.01590995 0.00077931 
0.00769736 0.01739965 0.00206042 0.00113556 0.00645195 0.00141118 0.00749918 0.00254441 0.02090414 0.00267335 0.01529538 0.00091191 0.00470735 0.04797579 0.01571748 0.00076658 
0.00765097 0.01719451 0.00207863 0.00114552 0.00627303 0.00144343 0.00722607 0.00254300 0.02080105 0.00259500 0.01502192 0.00088550 0.00473765 0.04732496 0.01549468 0.00075250 
0.00760912 0.01698246 0.00209595 0.00115623 0.00609487 0.00147587 0.00695302 0.00254270 0.02068472 0.00251551 0.01473633 0.00085997 0.00477022 0.04659399 0.01524231 0.00073715 
0.00757255 0.01676428 0.00211220 0.00116753 0.00591810 0.00150832 0.00668107 0.00254351 0.02055648 0.00243524 0.01444046 0.00083542 0.00480496 0.04578533 0.01496129 0.00072059 
0.00754198 0.01654078 0.00212722 0.00117926 0.00574333 0.00154058 0.00641125 0.00254541 0.02041767 0.00235454 0.01413621 0.00081197 0.00484172 0.04490179 0.01465267 0.00070290 
0.00751812 0.01631277 0.00214087 0.00119127 0.00557114 0.00157246 0.00614459 0.00254841 0.02026971 0.00227379 0.01382554 0.00078973 0.00488037 0.04394650 0.01431766 0.00068417 
0.00750164 0.01608103 0.00215302 0.00120342 0.00540209 0.00160378 0.00588209 0.00255245 0.02011404 0.00219336 0.01351047 0.00076879 0.00492073 0.04292293 0.01395760 0.00066448 
0.00749320 0.01584635 0.00216358 0.00121558 0.00523672 0.00163435 0.00562474 0.00255752 0.01995212 0.00211362 0.01319305 0.00074924 0.00496264 0.04183486 0.01357395 0.00064395 
0.00749341 0.01560952 0.00217244 0.00122760 0.00507554 0.00166399 0.00537348 0.00256357 0.01978542 0.00203495 0.01287535 0.00073116 0.00500591 0.04068636 0.01316831 0.00062266 
0.00750284 0.01537129 0.00217955 0.00123939 0.00491903 0.00169255 0.00512924 0.00257056 0.01961544 0.00195771 0.01255946 0.00071464 0.00505035 0.03948177 0.01274238 0.00060073 
0.00752202 0.01513241 0.00218485 0.00125083 0.00476763 0.00171985 0.00489293 0.00257842 0.01944366 0.00188226 0.01224744 0.00069975 0.00509577 0.03822570 0.01229800 0.00057827 
0.00755143 0.01489362 0.00218832 0.00126182 0.00462177 0.00174574 0.00466540 0.00258709 0.01927156 0.00180896 0.01194139 0.00068654 0.00514196 0.03692296 0.01183708 0.00055540 
0.00759147 0.01465561 0.00218994 0.00127229 0.00448182 0.00177008 0.00444746 0.00259650 0.01910059 0.00173815 0.01164335 0.00067507 0.00518872 0.03557862 0.01136162 0.00053224 
0.00764253 0.01441908 0.00218974 0.00128215 0.00434812 0.00179274 0.00423988 0.00260658 0.01893219 0.00167018 0.01135532 0.00066538 0.00523584 0.03419788 0.01087372 0.00050891 
0.00770488 0.01418469 0.00218774 0.00129134 0.00422098 0.00181359 0.00404340 0.00261725 0.01876775 0.00160536 0.01107928 0.00065750 0.00528311 0.03278616 0.01037554 0.00048555 
0.00777876 0.01395306 0.00218399 0.00129981 0.00410068 0.00183251 0.00385869 0.00262842 0.01860862 0.00154401 0.01081713 0.00065147 0.00533035 0.03134897 0.00986930 0.00046227 
0.00786433 0.01372480 0.00217857 0.00130753 0.00398744 0.00184942 0.00368637 0.00264001 0.01845610 0.00148643 0.01057071 0.00064730 0.00537735 0.02989195 0.00935727 0.00043922 
0.00796169 0.01350049 0.00217156 0.00131445 0.00388147 0.00186421 0.00352700 0.00265191 0.01831145 0.00143289 0.01034178 0.00064499 0.00542392 0.02842084 0.00884175 0.00041651 
0.00807085 0.01328068 0.00216306 0.00132057 0.00378291 0.00187682 0.00338111 0.00266404 0.01817583 0.00138366 0.01013200 0.00064455 0.00546989 0.02694141 0.00832507 0.00039427 
0.00819174 0.01306588 0.00215319 0.00132587 0.00369189 0.00188717 0.00324915 0.00267629 0.01805036 0.00133899 0.00994292 0.00064595 0.00551508 0.02545947 0.00780957 0.00037264 
0.00832423 0.01285657 0.00214209 0.00133035 0.00360848 0.00189522 0.00313150 0.00268858 0.01793608 0.00129909 0.00977602 0.00064919 0.00555935 0.02398086 0.00729759 0.00035174 
0.00846811 0.01265321 0.00212990 0.00133403 0.00353273 0.00190093 0.00302850 0.00270079 0.01783393 0.00126416 0.00963262 0.00065423 0.00560254 0.02251136 0.00679148 0.00033168 
0.00862309 0.01245621 0.00211678 0.00133692 0.00346465 0.00190428 0.00294042 0.00271283 0.01774479 0.00123440 0.00951394 0.00066102 0.00564455 0.02105672 0.00629353 0.00031260 
0.00878879 0.01226597 0.00210290 0.00133905 0.00340420 0.00190524 0.00286746 0.00272461 0.01766943 0.00120995 0.00942104 0.00066953 0.00568524 0.01962261 0.00580601 0.00029461 
0.00896478 0.01208284 0.00208844 0.00134047 0.00335133 0.00190383 0.00280977 0.00273602 0.01760853 0.00119094 0.00935487 0.00067969 0.00572455 0.01821461 0.00533117 0.00027782 
0.00915054 0.01190714 0.00207359 0.00134120 0.00330593 0.00190005 0.00276741 0.00274698 0.01756268 0.00117748 0.00931620 0.00069143 0.00576238 0.01683816 0.00487116 0.00026234 
0.00934547 0.01173916 0.00205853 0.00134130 0.00326787 0.00189393 0.00274041 0.00275738 0.01753237 0.00116966 0.00930569 0.00070469 0.00579870 0.01549856 0.00442808 0.00024826 
0.00954893 0.01157917 0.00204345 0.00134082 0.00323699 0.00188550 0.00272872 0.00276715 0.01751798 0.00116753 0.00932381 0.00071938 0.00583346 0.01420093 0.00400395 0.00023569 
0.00976017 0.01142740 0.00202856 0.00133983 0.00321312 0.00187481 0.00273221 0.00277620 0.01751980 0.00117111 0.00937088 0.00073541 0.00586666 0.01295020 0.00360070 0.00022471 
0.00997841 0.01128404 0.00201405 0.00133838 0.00319601 0.00186193 0.00275072 0.00278446 0.01753799 0.00118041 0.00944709 0.00075268 0.00589830 0.01175108 0.00322016 0.00021540 
0.01020280 0.01114926 0.00200010 0.00133654 0.00318545 0.00184692 0.00278400 0.00279185 0.01757263 0.00119541 0.00955242 0.00077110 0.00592841 0.01060806 0.00286404 0.00020783 
0.01043243 0.01102322 0.00198693 0.00133438 0.00318115 0.00182986 0.00283177 0.00279830 0.01762369 0.00121605 0.00968673 0.00079054 0.00595704 0.00952533 0.00253394 0.00020207 
0.01066635 0.01090602 0.00197470 0.00133197 0.00318284 0.00181085 0.00289366 0.00280376 0.01769104 0.00124226 0.00984971 0.00081091 0.00598426 0.00850687 0.00223132 0.00019818 
0.01090354 0.01079775 0.00196359 0.00132938 0.00319021 0.00178997 0.00296928 0.00280817 0.01777443 0.00127394 0.01004087 0.00083207 0.00601015 0.00755631 0.00195753 0.00019619 
0.01114297 0.01069847 0.00195379 0.00132667 0.00320293 0.00176734 0.00305814 0.00281149 0.01787353 0.00131096 0.01025960 0.00085391 0.00603481 0.00667701 0.00171375 0.00019615 
0.01138356 0.01060821 0.00194544 0.00132393 0.00322067 0.00174307 0.00315975 0.00281367 0.01798789 0.00135317 0.01050511 0.00087630 0.00605836 0.00587201 0.00150103 0.00019809 
0.01162419 0.01052700 0.00193870 0.00132121 0.00324307 0.00171727 0.00327354 0.00281470 0.01811699 0.00140040 0.01077648 0.00089911 0.00608095 0.00514401 0.00132026 0.00020202 
0.01186374 0.01045481 0.00193371 0.00131859 0.00326977 0.00169008 0.00339889 0.00281455 0.01826018 0.00145244 0.01107263 0.00092220 0.00610271 0.00449539 0.00117217 0.00020795 
0.01210106 0.01039161 0.00193057 0.00131612 0.00330040 0.00166163 0.00353517 0.00281320 0.01841675 0.00150907 0.01139238 0.00094544 0.00612380 0.00392816 0.00105734 0.00021587 
0.01233499 0.01033734 0.00192941 0.00131387 0.00333459 0.00163205 0.00368166 0.00281065 0.01858590 0.00157007 0.01173438 0.00096869 0.00614440 0.00344398 0.00097616 0.00022579 
0.01256437 0.01029192 0.00193032 0.00131188 0.00337196 0.00160148 0.00383766 0.00280691 0.01876673 0.00163515 0.01209720 0.00099183 0.00616468 0.00304417 0.00092890 0.00023766 
0.01278804 0.01025524 0.00193335 0.00131022 0.00341212 0.00157005 0.00400239 0.00280198 0.01895827 0.00170406 0.01247927 0.00101472 0.00618482 0.00272967 0.00091560 0.00025147 
0.01300486 0.01022720 0.00193858 0.00130892 0.00345470 0.00153793 0.00417507 0.00279588 0.01915950 0.00177650 0.01287893 0.00103721 0.00620501 0.00250105 0.00093619 0.00026716 
0.01321370 0.01020764 0.00194604 0.00130803 0.00349931 0.00150524 0.00435488 0.00278865 0.01936929 0.00185215 0.01329443 0.00105920 0.00622544 0.00235853 0.00099039 0.00028469 
0.01341346 0.01019640 0.00195574 0.00130758 0.00354558 0.00147213 0.00454099 0.00278031 0.01958647 0.00193069 0.01372393 0.00108053 0.00624628 0.00230196 0.00107778 0.00030399 
0.01360306 0.01019330 0.00196769 0.00130760 0.00359314 0.00143875 0.00473254 0.00277092 0.01980983 0.00201180 0.01416555 0.00110110 0.00626773 0.00233081 0.00119777 0.00032500 
0.01378148 0.01019814 0.00198186 0.00130812 0.00364163 0.00140524 0.00492866 0.00276052 0.02003807 0.00209513 0.01461731 0.00112077 0.00628996 0.00244422 0.00134961 0.00034762 
0.01394771 0.01021070 0.00199822 0.00130915 0.00369070 0.00137174 0.00512849 0.00274918 0.02026988 0.00218033 0.01507722 0.00113944 0.00631313 0.00264096 0.00153238 0.00037179 
0.01410083 0.01023074 0.00201671 0.00131069 0.00374002 0.00133839 0.00533112 0.00273695 0.02050388 0.00226704 0.01554323 0.00115700 0.00633741 0.00291946 0.00174504 0.00039739 
0.01423994 0.01025801 0.00203725 0.00131277 0.00378925 0.00130532 0.00553569 0.00272391 0.02073870 0.00235490 0.01601329 0.00117333 0.00636293 0.00327782 0.00198637 0.00042433 
0.01436424 0.01029224 0.00205974 0.00131536 0.00383808 0.00127267 0.00574131 0.00271015 0.02097289 0.00244356 0.01648532 0.00118836 0.00638984 0.00371381 0.00225504 0.00045249 
0.01447298 0.01033314 0.00208407 0.00131848 0.00388622 0.00124056 0.00594710 0.00269574 0.02120503 0.00253266 0.01695726 0.00120198 0.00641823 0.00422489 0.00254957 0.00048176 
0.01456547 0.01038039 0.00211011 0.00132209 0.00393339 0.00120911 0.00615221 0.00268077 0.02143367 0.00262182 0.01742706 0.00121412 0.00644821 0.00480820 0.00286836 0.00051202 
0.01464112 0.01043368 0.00213771 0.00132618 0.00397933 0.00117844 0.00635577 0.00266535 0.02165735 0.00271070 0.01789268 0.00122470 0.00647986 0.00546061 0.00320970 0.00054313 
0.01469942 0.01049266 0.00216672 0.00133073 0.00402380 0.00114866 0.00655697 0.00264956 0.02187462 0.00279895 0.01835216 0.00123367 0.00651322 0.00617871 0.00357177 0.00057498 
0.01473994 0.01055699 0.00219696 0.00133571 0.00406656 0.00111986 0.00675498 0.00263352 0.02208403 0.00288623 0.01880354 0.00124097 0.00654832 0.00695885 0.00395265 0.00060741 
0.01476234 0.01062628 0.00222824 0.00134107 0.00410743 0.00109215 0.00694904 0.00261733 0.02228417 0.00297220 0.01924497 0.00124656 0.00658517 0.00779712 0.00435033 0.00064030 
0.01476637 0.01070016 0.00226037 0.00134678 0.00414621 0.00106562 0.00713838 0.00260109 0.02247363 0.00305654 0.01967463 0.00125041 0.00662376 0.00868940 0.00476275 0.00067350 
0.01475190 0.01077822 0.00229313 0.00135280 0.00418275 0.00104034 0.00732228 0.00258493 0.02265104 0.00313895 0.02009082 0.00125250 0.00666404 0.00963137 0.00518775 0.00070688 
0.01471887 0.01086005 0.00232632 0.00135908 0.00421691 0.00101639 0.00750006 0.00256896 0.02281508 0.00321914 0.02049190 0.00125281 0.00670594 0.01061851 0.00562314 0.00074028 
0.01466733 0.01094522 0.00235971 0.00136557 0.00424855 0.00099383 0.00767106 0.00255329 0.02296447 0.00329682 0.02087635 0.00125135 0.00674937 0.01164617 0.00606669 0.00077358 
0.01459743 0.01103330 0.00239308 0.00137221 0.00427760 0.00097272 0.00783469 0.00253804 0.02309797 0.00337174 0.02124276 0.00124813 0.00679421 0.01270953 0.00651611 0.00080662 
0.01450942 0.01112384 0.00242620 0.00137895 0.00430397 0.00095311 0.00799038 0.00252334 0.02321443 0.00344366 0.02158983 0.00124317 0.00684031 0.01380368 0.00696914 0.00083927 
0.01440364 0.01121637 0.00245885 0.00138574 0.00432760 0.00093503 0.00813761 0.00250929 0.02331274 0.00351236 0.02191637 0.00123651 0.00688750 0.01492360 0.00742347 0.00087138 
0.01428055 0.01131044 0.00249079 0.00139251 0.00434845 0.00091852 0.00827591 0.00249602 0.02339188 0.00357764 0.02222134 0.00122820 0.00693561 0.01606419 0.00787683 0.00090284 
0.01414068 0.01140558 0.00252180 0.00139921 0.00436652 0.00090361 0.00840487 0.00248365 0.02345090 0.00363932 0.02250382 0.00121829 0.00698440 0.01722032 0.00832694 0.00093351 
0.01398468 0.01150129 0.00255166 0.00140578 0.00438180 0.00089029 0.00852411 0.00247229 0.02348895 0.00369724 0.02276302 0.00120685 0.00703365 0.01838682 0.00877157 0.00096325 
0.01381328 0.01159711 0.00258016 0.00141217 0.00439432 0.00087859 0.00863332 0.00246206 0.02350527 0.00375128 0.02299831 0.00119396 0.00708311 0.01955853 0.00920853 0.00099197 
0.01362731 0.01169254 0.00260709 0.00141831 0.00440410 0.00086850 0.00873224 0.00245306 0.02349919 0.00380133 0.02320919 0.00117971 0.00713250 0.02073031 0.00963569 0.00101953 
0.01342765 0.01178711 0.00263227 0.00142415 0.00441122 0.00086000 0.00882066 0.00244543 0.02347015 0.00384730 0.02339529 0.00116419 0.00718155 0.02189705 0.01005096 0.00104584 
0.01321531 0.01188034 0.00265549 0.00142965 0.00441573 0.00085309 0.00889842 0.00243925 0.02341770 0.00388914 0.02355639 0.00114752 0.00722996 0.02305372 0.01045235 0.00107079 
0.01299134 0.01197175 0.00267660 0.00143475 0.00441772 0.00084773 0.00896543 0.00243464 0.02334151 0.00392680 0.02369241 0.00112981 0.00727742 0.02419538 0.01083795 0.00109429 
0.01275688 0.01206087 0.00269544 0.00143940 0.00441729 0.00084390 0.00902164 0.00243170 0.02324136 0.00396028 0.02380341 0.00111118 0.00732363 0.02531722 0.01120595 0.00111626 
0.01251312 0.01214724 0.00271186 0.00144357 0.00441456 0.00084155 0.00906706 0.00243052 0.02311715 0.00398958 0.02388959 0.00109176 0.00736828 0.02641453 0.01155465 0.00113662 
0.01226132 0.01223041 0.00272574 0.00144721 0.00440963 0.00084063 0.00910176 0.00243121 0.02296891 0.00401474 0.02395126 0.00107170 0.00741103 0.02748279 0.01188245 0.00115530 
0.01200278 0.01230995 0.00273698 0.00145030 0.00440265 0.00084111 0.00912584 0.00243385 0.02279680 0.00403583 0.02398888 0.00105114 0.00745159 0.02851764 0.01218788 0.00117225 
0.01173885 0.01238544 0.00274549 0.00145279 0.00439375 0.00084291 0.00913949 0.00243853 0.02260110 0.00405291 0.02400301 0.00103022 0.00748964 0.02951494 0.01246962 0.00118742 
0.01147093 0.01245648 0.00275120 0.00145467 0.00438308 0.00084597 0.00914290 0.00244532 0.02238224 0.00406608 0.02399434 0.00100910 0.00752488 0.03047074 0.01272645 0.00120076 
0.01120043 0.01252270 0.00275407 0.00145591 0.00437079 0.00085024 0.00913635 0.00245430 0.02214075 0.00407547 0.02396366 0.00098794 0.00755702 0.03138135 0.01295733 0.00121225 
0.01092879 0.01258373 0.00275407 0.00145651 0.00435704 0.00085562 0.00912015 0.00246554 0.02187732 0.00408122 0.02391187 0.00096689 0.00758579 0.03224332 0.01316136 0.00122186 
0.01065746 0.01263926 0.00275119 0.00145644 0.00434198 0.00086206 0.00909465 0.00247909 0.02159277 0.00408347 0.02383993 0.00094611 0.00761093 0.03305347 0.01333778 0.00122959 
0.01038790 0.01268899 0.00274546 0.00145571 0.00432578 0.00086947 0.00906025 0.00249502 0.02128804 0.00408241 0.02374893 0.00092576 0.00763221 0.03380891 0.01348600 0.00123543 
0.01012156 0.01273265 0.00273691 0.00145432 0.00430860 0.00087777 0.00901739 0.00251337 0.02096420 0.00407820 0.02363999 0.00090601 0.00764939 0.03450705 0.01360559 0.00123939 
0.00985989 0.01277000 0.00272560 0.00145228 0.00429060 0.00088688 0.00896652 0.00253419 0.02062245 0.00407107 0.02351432 0.00088700 0.00766231 0.03514559 0.01369628 0.00124148 
0.00960432 0.01280085 0.00271161 0.00144959 0.00427193 0.00089670 0.00890817 0.00255749 0.02026410 0.00406121 0.02337318 0.00086890 0.00767079 0.03572257 0.01375795 0.00124174 
0.00935623 0.01282504 0.00269505 0.00144627 0.00425276 0.00090715 0.00884286 0.00258332 0.01989061 0.00404884 0.02321786 0.00085185 0.00767471 0.03623636 0.01379067 0.00124019 
0.00911699 0.01284244 0.00267603 0.00144235 0.00423322 0.00091814 0.00877115 0.00261168 0.01950353 0.00403420 0.02304972 0.00083601 0.00767396 0.03668563 0.01379465 0.00123687 
0.00888791 0.01285299 0.00265471 0.00143785 0.00421348 0.00092959 0.00869364 0.00264259 0.01910451 0.00401751 0.02287010 0.00082150 0.00766849 0.03706944 0.01377026 0.00123184 
0.00867026 0.01285664 0.00263123 0.00143281 0.00419366 0.00094141 0.00861092 0.00267603 0.01869533 0.00399903 0.02268038 0.00080847 0.00765827 0.03738715 0.01371804 0.00122515 
0.00846524 0.01285339 0.00260577 0.00142726 0.00417391 0.00095350 0.00852363 0.00271200 0.01827784 0.00397898 0.02248194 0.00079704 0.00764330 0.03763850 0.01363868 0.00121687 
0.00827399 0.01284330 0.00257854 0.00142125 0.00415433 0.00096578 0.00843239 0.00275049 0.01785400 0.00395762 0.02227616 0.00078733 0.00762363 0.03782356 0.01353301 0.00120705 
0.00809757 0.01282647 0.00254973 0.00141481 0.00413505 0.00097817 0.00833786 0.00279144 0.01742584 0.00393518 0.02206439 0.00077944 0.00759936 0.03794273 0.01340201 0.00119579 
0.00793696 0.01280304 0.00251957 0.00140800 0.00411617 0.00099058 0.00824070 0.00283483 0.01699545 0.00391191 0.02184797 0.00077348 0.00757061 0.03799679 0.01324679 0.00118315 
0.00779306 0.01277318 0.00248829 0.00140087 0.00409779 0.00100293 0.00814156 0.00288060 0.01656501 0.00388805 0.02162821 0.00076954 0.00753754 0.03798681 0.01306859 0.00116923 
0.00766667 0.01273714 0.00245614 0.00139347 0.00407998 0.00101515 0.00804109 0.00292869 0.01613673 0.00386381 0.02140636 0.00076768 0.00750037 0.03791422 0.01286880 0.00115410 
0.00755850 0.01269520 0.00242338 0.00138586 0.00406284 0.00102716 0.00793996 0.00297903 0.01571287 0.00383944 0.02118363 0.00076798 0.00745935 0.03778075 0.01264889 0.00113787 
0.00746916 0.01264767 0.00239025 0.00137809 0.00404640 0.00103889 0.00783881 0.00303152 0.01529572 0.00381513 0.02096118 0.00077049 0.00741475 0.03758846 0.01241044 0.00112063 
0.00739914 0.01259493 0.00235703 0.00137023 0.00403074 0.00105028 0.00773829 0.00308608 0.01488759 0.00379111 0.02074010 0.00077524 0.00736691 0.03733967 0.01215514 0.00110247 
0.00734884 0.01253738 0.00232399 0.00136233 0.00401588 0.00106127 0.00763901 0.00314258 0.01449080 0.00376754 0.02052141 0.00078226 0.00731618 0.03703702 0.01188476 0.00108349 
0.00731853 0.01247546 0.00229140 0.00135446 0.00400186 0.00107179 0.00754159 0.00320093 0.01410767 0.00374463 0.02030607 0.00079157 0.00726297 0.03668340 0.01160114 0.00106379 
0.00730837 0.01240968 0.00225952 0.00134667 0.00398868 0.00108179 0.00744662 0.00326097 0.01374050 0.00372253 0.02009492 0.00080315 0.00720769 0.03628193 0.01130618 0.00104348 
0.00731842 0.01234056 0.00222864 0.00133903 0.00397637 0.00109124 0.00735467 0.00332258 0.01339157 0.00370140 0.01988876 0.00081701 0.00715081 0.03583600 0.01100184 0.00102264 
0.00734860 0.01226864 0.00219900 0.00133159 0.00396491 0.00110009 0.00726630 0.00338559 0.01306312 0.00368136 0.01968828 0.00083310 0.00709282 0.03534917 0.01069012 0.00100137 
0.00739873 0.01219453 0.00217088 0.00132441 0.00395428 0.00110829 0.00718201 0.00344985 0.01275733 0.00366254 0.01949408 0.00085139 0.00703422 0.03482522 0.01037306 0.00097978 
0.00746852 0.01211885 0.00214452 0.00131755 0.00394447 0.00111584 0.00710231 0.00351517 0.01247633 0.00364503 0.01930667 0.00087181 0.00697555 0.03426807 0.01005268 0.00095795 
0.00755753 0.01204223 0.00212017 0.00131105 0.00393544 0.00112269 0.00702766 0.00358139 0.01222216 0.00362892 0.01912648 0.00089430 0.00691737 0.03368182 0.00973105 0.00093599 
0.00766526 0.01196536 0.00209806 0.00130498 0.00392715 0.00112883 0.00695850 0.00364829 0.01199679 0.00361427 0.01895382 0.00091878 0.00686023 0.03307066 0.00941020 0.00091397 
0.00779105 0.01188891 0.00207840 0.00129936 0.00391955 0.00113426 0.00689521 0.00371569 0.01180208 0.00360113 0.01878892 0.00094515 0.00680473 0.03243889 0.00909216 0.00089200 
0.00793418 0.01181359 0.00206141 0.00129426 0.00391257 0.00113896 0.00683818 0.00378336 0.01163978 0.00358952 0.01863193 0.00097330 0.00675143 0.03179088 0.00877893 0.00087014 
0.00809378 0.01174012 0.00204727 0.00128969 0.00390617 0.00114295 0.00678772 0.00385109 0.01151154 0.00357945 0.01848289 0.00100311 0.00670095 0.03113105 0.00847245 0.00084849 
0.00826892 0.01166921 0.00203616 0.00128571 0.00390027 0.00114621 0.00674413 0.00391865 0.01141884 0.00357091 0.01834175 0.00103446 0.00665385 0.03046382 0.00817462 0.00082711 
0.00845855 0.01160159 0.00202824 0.00128234 0.00389479 0.00114878 0.00670768 0.00398581 0.01136305 0.00356386 0.01820839 0.00106720 0.00661074 0.02979364 0.00788728 0.00080609 
0.00866157 0.01153799 0.00202363 0.00127961 0.00388967 0.00115067 0.00667857 0.00405234 0.01134540 0.00355825 0.01808259 0.00110118 0.00657218 0.02912490 0.00761219 0.00078549 
0.00887676 0.01147913 0.00202246 0.00127753 0.00388483 0.00115190 0.00665699 0.00411799 0.01136692 0.00355403 0.01796407 0.00113625 0.00653873 0.02846196 0.00735103 0.00076537 
0.00910284 0.01142571 0.00202483 0.00127613 0.00388018 0.00115251 0.00664309 0.00418252 0.01142853 0.00355111 0.01785247 0.00117224 0.00651095 0.02780908 0.00710538 0.00074581 
0.00933849 0.01137845 0.00203081 0.00127541 0.00387565 0.00115252 0.00663698 0.00424568 0.01153092 0.00354938 0.01774734 0.00120898 0.00648935 0.02717042 0.00687671 0.00072685 
0.00958228 0.01133802 0.00204046 0.00127538 0.00387117 0.00115200 0.00663872 0.00430722 0.01167465 0.00354873 0.01764820 0.00124629 0.00647443 0.02655002 0.00666641 0.00070854 
0.00983278 0.01130508 0.00205380 0.00127604 0.00386665 0.00115097 0.00664834 0.00436690 0.01186006 0.00354904 0.01755449 0.00128399 0.00646666 0.02595177 0.00647573 0.00069095 
0.01008850 0.01128027 0.00207086 0.00127738 0.00386203 0.00114950 0.00666585 0.00442448 0.01208733 0.00355016 0.01746561 0.00132190 0.00646648 0.02537937 0.00630580 0.00067411 
0.01034790 0.01126421 0.00209162 0.00127939 0.00385723 0.00114763 0.00669120 0.00447970 0.01235643 0.00355194 0.01738091 0.00135982 0.00647427 0.02483637 0.00615761 0.00065807 
0.01060944 0.01125746 0.00211604 0.00128206 0.00385219 0.00114544 0.00672434 0.00453235 0.01266715 0.00355421 0.01729971 0.00139757 0.00649039 0.02432605 0.00603205 0.00064287 
0.01087155 0.01126056 0.00214408 0.00128537 0.00384686 0.00114298 0.00676514 0.00458217 0.01301907 0.00355680 0.01722128 0.00143497 0.00651516 0.02385151 0.00592982 0.00062854 
0.01113268 0.01127403 0.00217565 0.00128930 0.00384118 0.00114032 0.00681348 0.00462896 0.01341157 0.00355952 0.01714489 0.00147182 0.00654884 0.02341557 0.00585153 0.00061513 
0.01139125 0.01129831 0.00221065 0.00129380 0.00383511 0.00113753 0.00686918 0.00467249 0.01384387 0.00356220 0.01706978 0.00150794 0.00659164 0.02302082 0.00579760 0.00060265 
0.01164571 0.01133383 0.00224899 0.00129886 0.00382861 0.00113469 0.00693206 0.00471256 0.01431496 0.00356462 0.01699517 0.00154315 0.00664373 0.02266955 0.00576834 0.00059115 
0.01189454 0.01138094 0.00229051 0.00130443 0.00382167 0.00113188 0.00700188 0.00474897 0.01482365 0.00356660 0.01692030 0.00157728 0.00670520 0.02236378 0.00576388 0.00058064 
0.01213623 0.01143998 0.00233506 0.00131047 0.00381426 0.00112916 0.00707840 0.00478155 0.01536856 0.00356795 0.01684440 0.00161014 0.00677612 0.02210523 0.00578424 0.00057117 
0.01236934 0.01151119 0.00238247 0.00131694 0.00380637 0.00112662 0.00716135 0.00481013 0.01594815 0.00356845 0.01676671 0.00164158 0.00685647 0.02189531 0.00582927 0.00056275 
0.01259245 0.01159479 0.00243256 0.00132380 0.00379802 0.00112434 0.00725043 0.00483456 0.01656068 0.00356792 0.01668649 0.00167144 0.00694619 0.02173513 0.00589868 0.00055541 
0.01280422 0.01169094 0.00248513 0.00133098 0.00378921 0.00112240 0.00734532 0.00485470 0.01720425 0.00356616 0.01660303 0.00169958 0.00704515 0.02162548 0.00599204 0.00054917 
0.01300337 0.01179973 0.00253995 0.00133844 0.00377999 0.00112088 0.00744569 0.00487043 0.01787679 0.00356299 0.01651564 0.00172585 0.00715316 0.02156685 0.00610878 0.00054407 
0.01318868 0.01192121 0.00259680 0.00134613 0.00377037 0.00111986 0.00755118 0.00488167 0.01857609 0.00355823 0.01642367 0.00175012 0.00727000 0.02155939 0.00624821 0.00054013 
0.01335902 0.01205535 0.00265545 0.00135400 0.00376043 0.00111942 0.00766143 0.00488832 0.01929979 0.00355170 0.01632650 0.00177228 0.00739534 0.02160295 0.00640949 0.00053738 
0.01351336 0.01220209 0.00271565 0.00136198 0.00375022 0.00111963 0.00777605 0.00489034 0.02004539 0.00354324 0.01622358 0.00179222 0.00752882 0.02169708 0.00659169 0.00053583 
0.01365074 0.01236128 0.00277714 0.00137002 0.00373981 0.00112057 0.00789466 0.00488768 0.02081030 0.00353270 0.01611440 0.00180985 0.00767004 0.02184100 0.00679372 0.00053553 
0.01377031 0.01253275 0.00283967 0.00137808 0.00372929 0.00112231 0.00801683 0.00488033 0.02159177 0.00351995 0.01599849 0.00182509 0.00781852 0.02203367 0.00701443 0.00053650 
0.01387133 0.01271622 0.00290297 0.00138608 0.00371877 0.00112493 0.00814217 0.00486831 0.02238701 0.00350485 0.01587546 0.00183787 0.00797373 0.02227373 0.00725254 0.00053878 
0.01395316 0.01291142 0.00296678 0.00139399 0.00370834 0.00112848 0.00827025 0.00485164 0.02319309 0.00348731 0.01574497 0.00184814 0.00813509 0.02255955 0.00750669 0.00054240 
0.01401527 0.01311796 0.00303083 0.00140175 0.00369814 0.00113304 0.00840065 0.00483037 0.02400706 0.00346723 0.01560675 0.00185585 0.00830199 0.02288924 0.00777541 0.00054738 
0.01405725 0.01333545 0.00309487 0.00140932 0.00368829 0.00113865 0.00853294 0.00480458 0.02482588 0.00344454 0.01546060 0.00186098 0.00847375 0.02326068 0.00805721 0.00055378 
0.01407880 0.01356341 0.00315861 0.00141664 0.00367892 0.00114538 0.00866669 0.00477439 0.02564650 0.00341918 0.01530638 0.00186353 0.00864967 0.02367148 0.00835048 0.00056163 
0.01407974 0.01380133 0.00322182 0.00142367 0.00367020 0.00115327 0.00880146 0.00473990 0.02646581 0.00339112 0.01514403 0.00186348 0.00882900 0.02411906 0.00865359 0.00057096 
0.01406002 0.01404867 0.00328423 0.00143038 0.00366228 0.00116236 0.00893682 0.00470127 0.02728072 0.00336035 0.01497356 0.00186087 0.00901098 0.02460063 0.00896486 0.00058182 
0.01401969 0.01430480 0.00334561 0.00143672 0.00365532 0.00117269 0.00907235 0.00465866 0.02808814 0.00332688 0.01479503 0.00185571 0.00919479 0.02511323 0.00928255 0.00059425 
0.01395893 0.01456910 0.00340571 0.00144268 0.00364949 0.00118430 0.00920762 0.00461228 0.02888498 0.00329073 0.01460861 0.00184806 0.00937961 0.02565373 0.00960494 0.00060829 
0.01387804 0.01484087 0.00346431 0.00144821 0.00364498 0.00119720 0.00934221 0.00456232 0.02966821 0.00325195 0.01441451 0.00183796 0.00956458 0.02621887 0.00993026 0.00062399 
0.01377742 0.01511940 0.00352119 0.00145330 0.00364196 0.00121141 0.00947569 0.00450902 0.03043484 0.00321063 0.01421302 0.00182549 0.00974886 0.02680527 0.01025675 0.00064140 
0.01365760 0.01540395 0.00357616 0.00145792 0.00364061 0.00122696 0.00960767 0.00445264 0.03118196 0.00316684 0.01400450 0.00181074 0.00993158 0.02740947 0.01058267 0.00066055 
0.01351919 0.01569375 0.00362902 0.00146208 0.00364114 0.00124383 0.00973773 0.00439343 0.03190672 0.00312073 0.01378936 0.00179378 0.01011186 0.02802792 0.01090626 0.00068148 
0.01336294 0.01598798 0.00367960 0.00146575 0.00364371 0.00126203 0.00986548 0.00433169 0.03260640 0.00307241 0.01356809 0.00177474 0.01028883 0.02865704 0.01122584 0.00070425 
0.01318966 0.01628583 0.00372774 0.00146894 0.00364853 0.00128155 0.00999054 0.00426772 0.03327835 0.00302206 0.01334122 0.00175372 0.01046163 0.02929322 0.01153972 0.00072890 
0.01300029 0.01658647 0.00377330 0.00147165 0.00365577 0.00130237 0.01011253 0.00420182 0.03392008 0.00296986 0.01310936 0.00173084 0.01062942 0.02993285 0.01184629 0.00075545 
0.01279583 0.01688905 0.00381615 0.00147390 0.00366563 0.00132446 0.01023109 0.00413432 0.03452922 0.00291601 0.01287315 0.00170625 0.01079135 0.03057233 0.01214396 0.00078395 
0.01257737 0.01719271 0.00385618 0.00147569 0.00367829 0.00134780 0.01034587 0.00406556 0.03510355 0.00286073 0.01263328 0.00168007 0.01094663 0.03120814 0.01243124 0.00081444 
0.01234608 0.01749659 0.00389329 0.00147705 0.00369392 0.00137233 0.01045651 0.00399588 0.03564101 0.00280427 0.01239050 0.00165246 0.01109446 0.03183679 0.01270669 0.00084693 
0.01210319 0.01779981 0.00392742 0.00147800 0.00371269 0.00139802 0.01056270 0.00392562 0.03613973 0.00274688 0.01214558 0.00162358 0.01123411 0.03245490 0.01296895 0.00088146 
0.01184998 0.01810153 0.00395851 0.00147857 0.00373476 0.00142482 0.01066413 0.00385515 0.03659801 0.00268884 0.01189932 0.00159357 0.01136485 0.03305920 0.01321675 0.00091805 
0.01158780 0.01840088 0.00398650 0.00147881 0.00376030 0.00145265 0.01076048 0.00378480 0.03701432 0.00263043 0.01165256 0.00156260 0.01148603 0.03364654 0.01344891 0.00095670 
0.01131803 0.01869701 0.00401140 0.00147875 0.00378943 0.00148145 0.01085147 0.00371494 0.03738735 0.00257197 0.01140617 0.00153084 0.01159700 0.03421392 0.01366436 0.00099744 
0.01104208 0.01898909 0.00403318 0.00147844 0.00382231 0.00151115 0.01093684 0.00364593 0.03771600 0.00251376 0.01116101 0.00149844 0.01169720 0.03475852 0.01386211 0.00104025 
0.01076141 0.01927629 0.00405186 0.00147793 0.00385904 0.00154166 0.01101632 0.00357809 0.03799938 0.00245613 0.01091797 0.00146559 0.01178610 0.03527768 0.01404128 0.00108513 
0.01047745 0.01955782 0.00406747 0.00147728 0.00389973 0.00157290 0.01108967 0.00351179 0.03823678 0.00239941 0.01067794 0.00143244 0.01186324 0.03576897 0.01420113 0.00113207 
0.01019170 0.01983288 0.00408006 0.00147653 0.00394449 0.00160478 0.01115667 0.00344734 0.03842775 0.00234393 0.01044181 0.00139917 0.01192820 0.03623014 0.01434099 0.00118105 
0.00990560 0.02010073 0.00408968 0.00147577 0.00399339 0.00163719 0.01121712 0.00338508 0.03857205 0.00229006 0.01021048 0.00136593 0.01198065 0.03665918 0.01446034 0.00123203 
0.00962061 0.02036062 0.00409640 0.00147504 0.00404650 0.00167004 0.01127081 0.00332532 0.03866964 0.00223812 0.00998480 0.00133289 0.01202029 0.03705432 0.01455876 0.00128496 
0.00933818 0.02061187 0.00410033 0.00147442 0.00410386 0.00170322 0.01131758 0.00326834 0.03872071 0.00218846 0.00976564 0.00130020 0.01204690 0.03741402 0.01463594 0.00133980 
0.00905971 0.02085379 0.00410155 0.00147398 0.00416550 0.00173661 0.01135726 0.00321442 0.03872569 0.00214144 0.00955384 0.00126803 0.01206034 0.03773700 0.01469171 0.00139649 
0.00878658 0.02108574 0.00410017 0.00147378 0.00423144 0.00177011 0.01138973 0.00316384 0.03868518 0.00209738 0.00935021 0.00123650 0.01206052 0.03802223 0.01472600 0.00145494 
0.00852013 0.02130712 0.00409634 0.00147391 0.00430168 0.00180360 0.01141486 0.00311683 0.03860003 0.00205662 0.00915551 0.00120577 0.01204742 0.03826895 0.01473885 0.00151508 
0.00826165 0.02151736 0.00409016 0.00147443 0.00437618 0.00183695 0.01143254 0.00307361 0.03847128 0.00201949 0.00897050 0.00117596 0.01202110 0.03847666 0.01473044 0.00157681 
0.00801236 0.02171593 0.00408179 0.00147541 0.00445492 0.00187005 0.01144270 0.00303439 0.03830016 0.00198629 0.00879587 0.00114721 0.01198165 0.03864512 0.01470102 0.00164001 
0.00777343 0.02190232 0.00407138 0.00147693 0.00453783 0.00190277 0.01144527 0.00299933 0.03808810 0.00195734 0.00863228 0.00111962 0.01192929 0.03877435 0.01465098 0.00170458 
0.00754597 0.02207609 0.00405908 0.00147906 0.00462484 0.00193499 0.01144020 0.00296858 0.03783671 0.00193291 0.00848034 0.00109331 0.01186424 0.03886464 0.01458080 0.00177038 
0.00733099 0.02223682 0.00404506 0.00148187 0.00471585 0.00196660 0.01142748 0.00294228 0.03754776 0.00191329 0.00834059 0.00106838 0.01178682 0.03891653 0.01449106 0.00183727 
0.00712945 0.02238412 0.00402947 0.00148542 0.00481074 0.00199746 0.01140708 0.00292052 0.03722319 0.00189871 0.00821355 0.00104491 0.01169741 0.03893079 0.01438243 0.00190509 
0.00694220 0.02251768 0.00401248 0.00148979 0.00490940 0.00202746 0.01137904 0.00290336 0.03686509 0.00188941 0.00809965 0.00102298 0.01159644 0.03890846 0.01425568 0.00197369 
0.00677002 0.02263718 0.00399427 0.00149503 0.00501166 0.00205647 0.01134338 0.00289086 0.03647568 0.00188560 0.00799927 0.00100266 0.01148440 0.03885079 0.01411165 0.00204289 
0.00661359 0.02274238 0.00397501 0.00150120 0.00511737 0.00208440 0.01130016 0.00288303 0.03605729 0.00188747 0.00791274 0.00098401 0.01136183 0.03875926 0.01395126 0.00211251 
0.00647350 0.02283307 0.00395486 0.00150836 0.00522635 0.00211111 0.01124945 0.00287986 0.03561238 0.00189516 0.00784031 0.00096707 0.01122934 0.03863555 0.01377550 0.00218235 
0.00635024 0.02290908 0.00393400 0.00151655 0.00533840 0.00213651 0.01119135 0.00288131 0.03514349 0.00190882 0.00778219 0.00095188 0.01108755 0.03848154 0.01358541 0.00225221 
0.00624421 0.02297028 0.00391259 0.00152583 0.00545332 0.00216048 0.01112598 0.00288731 0.03465324 0.00192855 0.00773849 0.00093847 0.01093716 0.03829930 0.01338213 0.00232189 
0.00615570 0.02301658 0.00389079 0.00153623 0.00557089 0.00218294 0.01105347 0.00289776 0.03414430 0.00195442 0.00770928 0.00092684 0.01077890 0.03809104 0.01316678 0.00239116 
0.00608493 0.02304793 0.00386876 0.00154779 0.00569087 0.00220378 0.01097398 0.00291255 0.03361940 0.00198647 0.00769457 0.00091702 0.01061351 0.03785913 0.01294059 0.00245981 
0.00603199 0.02306434 0.00384666 0.00156054 0.00581303 0.00222292 0.01088770 0.00293154 0.03308130 0.00202472 0.00769428 0.00090897 0.01044179 0.03760609 0.01270478 0.00252760 
0.00599688 0.02306582 0.00382463 0.00157449 0.00593712 0.00224028 0.01079481 0.00295455 0.03253276 0.00206914 0.00770829 0.00090270 0.01026457 0.03733451 0.01246061 0.00259431 
0.00597953 0.02305247 0.00380282 0.00158967 0.00606287 0.00225579 0.01069554 0.00298139 0.03197655 0.00211969 0.00773642 0.00089818 0.01008267 0.03704711 0.01220935 0.00265969 
0.00597976 0.02302439 0.00378135 0.00160609 0.00619003 0.00226937 0.01059013 0.00301184 0.03141542 0.00217628 0.00777841 0.00089537 0.00989696 0.03674667 0.01195231 0.00272351 
0.00599729 0.02298173 0.00376036 0.00162374 0.00631832 0.00228098 0.01047885 0.00304567 0.03085209 0.00223879 0.00783396 0.00089422 0.00970831 0.03643602 0.01169077 0.00278553 
0.00603177 0.02292470 0.00373996 0.00164262 0.00644747 0.00229055 0.01036196 0.00308262 0.03028922 0.00230708 0.00790270 0.00089469 0.00951759 0.03611805 0.01142604 0.00284551 
0.00608277 0.02285350 0.00372027 0.00166273 0.00657722 0.00229805 0.01023977 0.00312242 0.02972942 0.00238096 0.00798423 0.00089671 0.00932569 0.03579563 0.01115938 0.00290322 
0.00614977 0.02276843 0.00370137 0.00168405 0.00670728 0.00230345 0.01011260 0.00316479 0.02917521 0.00246021 0.00807808 0.00090022 0.00913349 0.03547165 0.01089208 0.00295840 
0.00623219 0.02266978 0.00368337 0.00170654 0.00683739 0.00230672 0.00998079 0.00320942 0.02862902 0.00254459 0.00818374 0.00090515 0.00894187 0.03514898 0.01062538 0.00301085 
0.00632937 0.02255789 0.00366635 0.00173018 0.00696727 0.00230786 0.00984469 0.00325600 0.02809319 0.00263384 0.00830066 0.00091140 0.00875169 0.03483042 0.01036049 0.00306032 
0.00644060 0.02243314 0.00365037 0.00175493 0.00709665 0.00230685 0.00970466 0.00330421 0.02756992 0.00272763 0.00842827 0.00091891 0.00856381 0.03451875 0.01009861 0.00310660 
0.00656511 0.02229596 0.00363550 0.00178075 0.00722528 0.00230370 0.00956110 0.00335372 0.02706132 0.00282565 0.00856592 0.00092757 0.00837906 0.03421665 0.00984087 0.00314948 
0.00670207 0.02214678 0.00362179 0.00180757 0.00735291 0.00229842 0.00941442 0.00340419 0.02656932 0.00292753 0.00871298 0.00093730 0.00819827 0.03392669 0.00958838 0.00318874 
0.00685061 0.02198610 0.00360929 0.00183535 0.00747928 0.00229105 0.00926502 0.00345528 0.02609574 0.00303290 0.00886876 0.00094799 0.00802221 0.03365136 0.00934219 0.00322421 
0.00700985 0.02181444 0.00359802 0.00186402 0.00760416 0.00228161 0.00911334 0.00350667 0.02564222 0.00314133 0.00903257 0.00095955 0.00785166 0.03339300 0.00910331 0.00325569 
0.00717883 0.02163234 0.00358802 0.00189351 0.00772733 0.00227016 0.00895983 0.00355800 0.02521026 0.00325242 0.00920369 0.00097187 0.00768734 0.03315382 0.00887266 0.00328302 
0.00735661 0.02144041 0.00357928 0.00192374 0.00784858 0.00225673 0.00880493 0.00360894 0.02480117 0.00336572 0.00938139 0.00098485 0.00752995 0.03293586 0.00865115 0.00330603 
0.00754221 0.02123924 0.00357183 0.00195464 0.00796769 0.00224141 0.00864911 0.00365917 0.02441613 0.00348076 0.00956495 0.00099840 0.00738015 0.03274103 0.00843959 0.00332459 
0.00773464 0.02102951 0.00356565 0.00198613 0.00808448 0.00222425 0.00849285 0.00370837 0.02405609 0.00359706 0.00975363 0.00101239 0.00723855 0.03257102 0.00823874 0.00333857 
0.00793290 0.02081188 0.00356074 0.00201810 0.00819878 0.00220534 0.00833661 0.00375622 0.02372187 0.00371415 0.00994670 0.00102673 0.00710574 0.03242736 0.00804930 0.00334786 
0.00813602 0.02058707 0.00355708 0.00205048 0.00831043 0.00218477 0.00818089 0.00380242 0.02341410 0.00383153 0.01014342 0.00104132 0.00698225 0.03231139 0.00787188 0.00335236 
0.00834300 0.02035582 0.00355463 0.00208316 0.00841928 0.00216263 0.00802617 0.00384670 0.02313321 0.00394869 0.01034308 0.00105606 0.00686856 0.03222424 0.00770705 0.00335199 
0.00855289 0.02011888 0.00355337 0.00211606 0.00852520 0.00213903 0.00787294 0.00388878 0.02287950 0.00406513 0.01054498 0.00107085 0.00676513 0.03216683 0.00755529 0.00334671 
0.00876473 0.01987705 0.00355325 0.00214906 0.00862808 0.00211408 0.00772168 0.00392840 0.02265305 0.00418035 0.01074843 0.00108559 0.00667234 0.03213990 0.00741703 0.00333647 
0.00897760 0.01963115 0.00355422 0.00218208 0.00872782 0.00208791 0.00757289 0.00396534 0.02245380 0.00429384 0.01095279 0.00110019 0.00659054 0.03214395 0.00729262 0.00332125 
0.00919061 0.01938199 0.00355623 0.00221501 0.00882433 0.00206062 0.00742704 0.00399938 0.02228152 0.00440511 0.01115741 0.00111457 0.00652003 0.03217931 0.00718233 0.00330104 
0.00940291 0.01913044 0.00355923 0.00224775 0.00891756 0.00203235 0.00728462 0.00403033 0.02213582 0.00451365 0.01136169 0.00112864 0.00646105 0.03224606 0.00708641 0.00327588 
0.00961367 0.01887736 0.00356314 0.00228020 0.00900744 0.00200325 0.00714608 0.00405801 0.02201616 0.00461901 0.01156506 0.00114232 0.00641382 0.03234413 0.00700499 0.00324581 
0.00982214 0.01862363 0.00356791 0.00231226 0.00909394 0.00197343 0.00701188 0.00408229 0.02192186 0.00472070 0.01176700 0.00115554 0.00637846 0.03247320 0.00693819 0.00321087 
0.01002758 0.01837016 0.00357345 0.00234383 0.00917703 0.00194305 0.00688247 0.00410304 0.02185209 0.00481829 0.01196699 0.00116824 0.00635510 0.03263281 0.00688603 0.00317115 
0.01022931 0.01811783 0.00357969 0.00237482 0.00925671 0.00191224 0.00675828 0.00412016 0.02180591 0.00491134 0.01216459 0.00118034 0.00634377 0.03282229 0.00684850 0.00312676 
0.01042673 0.01786756 0.00358656 0.00240514 0.00933298 0.00188116 0.00663971 0.00413359 0.02178227 0.00499944 0.01235939 0.00119179 0.00634450 0.03304080 0.00682552 0.00307780 
0.01061925 0.01762026 0.00359396 0.00243470 0.00940584 0.00184996 0.00652716 0.00414328 0.02177999 0.00508222 0.01255101 0.00120253 0.00635723 0.03328734 0.00681698 0.00302443 
0.01080638 0.01737682 0.00360183 0.00246341 0.00947533 0.00181877 0.00642101 0.00414921 0.02179781 0.00515931 0.01273914 0.00121253 0.00638188 0.03356078 0.00682271 0.00296679 
0.01098767 0.01713816 0.00361006 0.00249118 0.00954148 0.00178774 0.00632159 0.00415138 0.02183440 0.00523040 0.01292350 0.00122174 0.00641833 0.03385982 0.00684250 0.00290507 
0.01116272 0.01690516 0.00361857 0.00251796 0.00960432 0.00175702 0.00622923 0.00414985 0.02188833 0.00529518 0.01310385 0.00123013 0.00646640 0.03418307 0.00687610 0.00283945 
0.01133120 0.01667869 0.00362728 0.00254366 0.00966392 0.00172676 0.00614423 0.00414466 0.02195814 0.00535339 0.01328001 0.00123767 0.00652588 0.03452902 0.00692322 0.00277015 
0.01149285 0.01645963 0.00363609 0.00256822 0.00972032 0.00169709 0.00606685 0.00413589 0.02204231 0.00540481 0.01345185 0.00124435 0.00659653 0.03489607 0.00698355 0.00269740 
0.01164745 0.01624879 0.00364491 0.00259157 0.00977358 0.00166816 0.00599733 0.00412367 0.02213928 0.00544925 0.01361928 0.00125013 0.00667805 0.03528254 0.00705676 0.00262143 
0.01179484 0.01604700 0.00365365 0.00261368 0.00982378 0.00164008 0.00593586 0.00410812 0.02224748 0.00548655 0.01378224 0.00125502 0.00677013 0.03568670 0.00714246 0.00254250 
0.01193493 0.01585502 0.00366222 0.00263449 0.00987096 0.00161300 0.00588260 0.00408940 0.02236532 0.00551660 0.01394075 0.00125900 0.00687241 0.03610679 0.00724029 0.00246089 
0.01206768 0.01567361 0.00367054 0.00265396 0.00991521 0.00158704 0.00583770 0.00406769 0.02249121 0.00553932 0.01409483 0.00126208 0.00698450 0.03654101 0.00734984 0.00237687 
0.01219308 0.01550346 0.00367850 0.00267206 0.00995658 0.00156230 0.00580125 0.00404319 0.02262360 0.00555469 0.01424458 0.00126427 0.00710600 0.03698756 0.00747070 0.00229074 
0.01231120 0.01534522 0.00368602 0.00268877 0.00999514 0.00153890 0.00577329 0.00401612 0.02276091 0.00556271 0.01439010 0.00126558 0.00723646 0.03744466 0.00760245 0.00220280 
0.01242214 0.01519950 0.00369302 0.00270406 0.01003095 0.00151693 0.00575384 0.00398671 0.02290165 0.00556343 0.01453155 0.00126601 0.00737541 0.03791055 0.00774466 0.00211337 
0.01252605 0.01506686 0.00369940 0.00271792 0.01006407 0.00149650 0.00574287 0.00395521 0.02304433 0.00555694 0.01466913 0.00126560 0.00752237 0.03838352 0.00789692 0.00202277 
0.01262311 0.01494778 0.00370508 0.00273036 0.01009453 0.00147768 0.00574032 0.00392190 0.02318755 0.00554337 0.01480305 0.00126436 0.00767683 0.03886192 0.00805879 0.00193131 
0.01271354 0.01484269 0.00370997 0.00274137 0.01012240 0.00146054 0.00574609 0.00388706 0.02332995 0.00552289 0.01493354 0.00126232 0.00783827 0.03934418 0.00822986 0.00183935 
0.01279761 0.01475197 0.00371399 0.00275097 0.01014770 0.00144516 0.00576000 0.00385097 0.02347024 0.00549573 0.01506089 0.00125952 0.00800614 0.03982882 0.00840971 0.00174721 
0.01287560 0.01467590 0.00371706 0.00275916 0.01017046 0.00143158 0.00578189 0.00381393 0.02360722 0.00546211 0.01518538 0.00125598 0.00817990 0.04031447 0.00859794 0.00165523 
0.01294780 0.01461471 0.00371909 0.00276598 0.01019071 0.00141985 0.00581151 0.00377625 0.02373977 0.00542233 0.01530730 0.00125175 0.00835897 0.04079987 0.00879416 0.00156376 
0.01301456 0.01456854 0.00372002 0.00277144 0.01020844 0.00140999 0.00584858 0.00373825 0.02386685 0.00537672 0.01542697 0.00124686 0.00854278 0.04128389 0.00899797 0.00147314 
0.01307621 0.01453745 0.00371976 0.00277560 0.01022366 0.00140204 0.00589281 0.00370023 0.02398753 0.00532563 0.01554472 0.00124135 0.00873075 0.04176552 0.00920903 0.00138370 
0.01313311 0.01452144 0.00371824 0.00277848 0.01023635 0.00139601 0.00594382 0.00366252 0.02410096 0.00526943 0.01566086 0.00123526 0.00892230 0.04224393 0.00942696 0.00129580 
0.01318562 0.01452040 0.00371539 0.00278012 0.01024649 0.00139188 0.00600123 0.00362543 0.02420641 0.00520856 0.01577573 0.00122865 0.00911684 0.04271841 0.00965143 0.00120976 
0.01323412 0.01453415 0.00371114 0.00278059 0.01025406 0.00138965 0.00606462 0.00358927 0.02430324 0.00514346 0.01588964 0.00122155 0.00931378 0.04318843 0.00988211 0.00112592 
0.01327896 0.01456243 0.00370542 0.00277993 0.01025899 0.00138930 0.00613353 0.00355435 0.02439092 0.00507458 0.01600291 0.00121400 0.00951253 0.04365359 0.01011870 0.00104461 
0.01332051 0.01460489 0.00369818 0.00277820 0.01026124 0.00139079 0.00620745 0.00352097 0.02446903 0.00500242 0.01611583 0.00120606 0.00971251 0.04411366 0.01036090 0.00096614 
0.01335913 0.01466108 0.00368934 0.00277545 0.01026074 0.00139408 0.00628587 0.00348941 0.02453724 0.00492750 0.01622868 0.00119776 0.00991315 0.04456860 0.01060843 0.00089082 
0.01339517 0.01473050 0.00367886 0.00277176 0.01025741 0.00139911 0.00636824 0.00345996 0.02459534 0.00485032 0.01634172 0.00118916 0.01011387 0.04501848 0.01086101 0.00081897 
0.01342894 0.01481253 0.00366668 0.00276717 0.01025118 0.00140581 0.00645397 0.00343288 0.02464322 0.00477143 0.01645520 0.00118030 0.01031411 0.04546354 0.01111839 0.00075087 
0.01346078 0.01490651 0.00365274 0.00276177 0.01024194 0.00141411 0.00654247 0.00340843 0.02468084 0.00469137 0.01656931 0.00117121 0.01051333 0.04590418 0.01138032 0.00068680 
0.01349097 0.01501166 0.00363702 0.00275561 0.01022960 0.00142393 0.00663313 0.00338684 0.02470830 0.00461070 0.01668425 0.00116194 0.01071100 0.04634092 0.01164656 0.00062704 
0.01351980 0.01512715 0.00361945 0.00274876 0.01021405 0.00143517 0.00672530 0.00336833 0.02472576 0.00452996 0.01680014 0.00115254 0.01090658 0.04677443 0.01191687 0.00057183 
0.01354750 0.01525208 0.00360001 0.00274129 0.01019517 0.00144772 0.00681835 0.00335310 0.02473347 0.00444972 0.01691710 0.00114304 0.01109958 0.04720547 0.01219103 0.00052144 
0.01357432 0.01538548 0.00357867 0.00273325 0.01017287 0.00146149 0.00691161 0.00334133 0.02473178 0.00437051 0.01703519 0.00113347 0.01128951 0.04763494 0.01246880 0.00047608 
0.01360046 0.01552631 0.00355539 0.00272471 0.01014701 0.00147634 0.00700444 0.00333317 0.02472110 0.00429287 0.01715444 0.00112388 0.01147591 0.04806380 0.01274996 0.00043596 
0.01362608 0.01567349 0.00353017 0.00271574 0.01011749 0.00149217 0.00709616 0.00332875 0.02470190 0.00421735 0.01727483 0.00111429 0.01165833 0.04849311 0.01303426 0.00040129 
0.01365135 0.01582589 0.00350297 0.00270638 0.01008418 0.00150883 0.00718613 0.00332820 0.02467473 0.00414444 0.01739629 0.00110474 0.01183635 0.04892400 0.01332147 0.00037224 
0.01367638 0.01598231 0.00347379 0.00269669 0.01004699 0.00152620 0.00727368 0.00333159 0.02464019 0.00407465 0.01751873 0.00109525 0.01200957 0.04935761 0.01361134 0.00034897 
0.01370126 0.01614155 0.00344264 0.00268673 0.01000578 0.00154414 0.00735818 0.00333899 0.02459894 0.00400846 0.01764197 0.00108586 0.01217763 0.04979515 0.01390362 0.00033163 
0.01372607 0.01630236 0.00340952 0.00267654 0.00996048 0.00156251 0.00743900 0.00335042 0.02455166 0.00394631 0.01776583 0.00107659 0.01234017 0.05023782 0.01419801 0.00032035 
0.01375085 0.01646348 0.00337443 0.00266616 0.00991098 0.00158116 0.00751554 0.00336591 0.02449908 0.00388864 0.01789004 0.00106745 0.01249687 0.05068681 0.01449425 0.00031522 
0.01377561 0.01662363 0.00333740 0.00265563 0.00985721 0.00159996 0.00758720 0.00338543 0.02444196 0.00383583 0.01801432 0.00105847 0.01264745 0.05114328 0.01479201 0.00031633 
0.01380036 0.01678153 0.00329847 0.00264498 0.00979910 0.00161876 0.00765343 0.00340894 0.02438106 0.00378825 0.01813832 0.00104967 0.01279165 0.05160837 0.01509097 0.00032374 
0.01382505 0.01693590 0.00325766 0.00263425 0.00973659 0.00163742 0.00771370 0.00343637 0.02431719 0.00374624 0.01826166 0.00104107 0.01292924 0.05208312 0.01539077 0.00033751 
0.01384966 0.01708549 0.00321502 0.00262346 0.00966964 0.00165580 0.00776751 0.00346762 0.02425112 0.00371009 0.01838391 0.00103267 0.01306001 0.05256851 0.01569106 0.00035765 
0.01387411 0.01722905 0.00317062 0.00261262 0.00959823 0.00167375 0.00781440 0.00350259 0.02418366 0.00368004 0.01850461 0.00102449 0.01318380 0.05306542 0.01599141 0.00038416 
0.01389833 0.01736538 0.00312451 0.00260174 0.00952237 0.00169115 0.00785395 0.00354112 0.02411560 0.00365632 0.01862324 0.00101654 0.01330047 0.05357460 0.01629141 0.00041701 
0.01392222 0.01749332 0.00307678 0.00259084 0.00944207 0.00170786 0.00788579 0.00358305 0.02404770 0.00363911 0.01873928 0.00100884 0.01340991 0.05409667 0.01659061 0.00045618 
0.01394568 0.01761174 0.00302751 0.00257992 0.00935737 0.00172375 0.00790958 0.00362819 0.02398073 0.00362852 0.01885216 0.00100138 0.01351206 0.05463212 0.01688851 0.00050159 
0.01396860 0.01771960 0.00297680 0.00256897 0.00926835 0.00173871 0.00792505 0.00367633 0.02391540 0.00362465 0.01896128 0.00099417 0.01360686 0.05518126 0.01718462 0.00055316 
0.01399086 0.01781591 0.00292475 0.00255799 0.00917510 0.00175262 0.00793197 0.00372724 0.02385244 0.00362755 0.01906603 0.00098723 0.01369431 0.05574422 0.01747839 0.00061077 
0.01401236 0.01789977 0.00287150 0.00254696 0.00907774 0.00176537 0.00793015 0.00378067 0.02379249 0.00363721 0.01916576 0.00098056 0.01377443 0.05632096 0.01776926 0.00067430 
0.01403296 0.01797033 0.00281715 0.00253588 0.00897640 0.00177687 0.00791947 0.00383636 0.02373620 0.00365359 0.01925985 0.00097415 0.01384727 0.05691123 0.01805664 0.00074360 
0.01405255 0.01802688 0.00276187 0.00252471 0.00887128 0.00178703 0.00789988 0.00389401 0.02368415 0.00367660 0.01934762 0.00096803 0.01391291 0.05751460 0.01833992 0.00081850 
0.01407104 0.01806878 0.00270580 0.00251344 0.00876257 0.00179577 0.00787135 0.00395334 0.02363689 0.00370610 0.01942842 0.00096218 0.01397146 0.05813042 0.01861844 0.00089879 
0.01408831 0.01809550 0.00264910 0.00250204 0.00865050 0.00180301 0.00783394 0.00401405 0.02359491 0.00374192 0.01950161 0.00095662 0.01402305 0.05875780 0.01889157 0.00098428 
0.01410428 0.01810664 0.00259194 0.00249048 0.00853534 0.00180871 0.00778776 0.00407580 0.02355866 0.00378385 0.01956652 0.00095135 0.01406785 0.05939570 0.01915861 0.00107472 
0.01411886 0.01810189 0.00253452 0.00247873 0.00841738 0.00181280 0.00773296 0.00413828 0.02352854 0.00383162 0.01962253 0.00094637 0.01410605 0.06004280 0.01941887 0.00116986 
0.01413201 0.01808109 0.00247702 0.00246676 0.00829693 0.00181524 0.00766978 0.00420116 0.02350489 0.00388494 0.01966903 0.00094170 0.01413786 0.06069761 0.01967164 0.00126944 
0.01414367 0.01804419 0.00241965 0.00245454 0.00817436 0.00181602 0.00759849 0.00426411 0.02348801 0.00394347 0.01970544 0.00093733 0.01416352 0.06135843 0.01991621 0.00137316 
0.01415382 0.01799128 0.00236262 0.00244203 0.00805003 0.00181512 0.00751942 0.00432678 0.02347813 0.00400685 0.01973119 0.00093329 0.01418329 0.06202334 0.02015186 0.00148073 
0.01416245 0.01792258 0.00230615 0.00242920 0.00792436 0.00181253 0.00743298 0.00438884 0.02347545 0.00407467 0.01974578 0.00092957 0.01419743 0.06269026 0.02037785 0.00159181 
0.01416958 0.01783845 0.00225048 0.00241603 0.00779776 0.00180825 0.00733959 0.00444997 0.02348011 0.00414651 0.01974874 0.00092618 0.01420625 0.06335689 0.02059347 0.00170609 
0.01417525 0.01773937 0.00219583 0.00240247 0.00767069 0.00180231 0.00723976 0.00450983 0.02349219 0.00422191 0.01973963 0.00092314 0.01421006 0.06402080 0.02079799 0.00182320 
0.01417952 0.01762598 0.00214244 0.00238850 0.00754364 0.00179473 0.00713402 0.00456810 0.02351173 0.00430038 0.01971809 0.00092047 0.01420916 0.06467939 0.02099072 0.00194280 
0.01418247 0.01749902 0.00209057 0.00237410 0.00741709 0.00178555 0.00702297 0.00462448 0.02353873 0.00438142 0.01968381 0.00091817 0.01420391 0.06532990 0.02117097 0.00206450 
0.01418421 0.01735940 0.00204047 0.00235925 0.00729157 0.00177483 0.00690722 0.00467866 0.02357314 0.00446452 0.01963655 0.00091627 0.01419463 0.06596950 0.02133806 0.00218793 
0.01418488 0.01720814 0.00199239 0.00234392 0.00716761 0.00176262 0.00678746 0.00473036 0.02361487 0.00454914 0.01957613 0.00091477 0.01418168 0.06659520 0.02149135 0.00231269 
0.01418462 0.01704638 0.00194658 0.00232811 0.00704575 0.00174900 0.00666437 0.00477931 0.02366378 0.00463473 0.01950245 0.00091371 0.01416540 0.06720398 0.02163024 0.00243840 
0.01418363 0.01687538 0.00190331 0.00231181 0.00692656 0.00173404 0.00653869 0.00482526 0.02371971 0.00472074 0.01941547 0.00091310 0.01414616 0.06779272 0.02175413 0.00256466 
0.01418210 0.01669654 0.00186282 0.00229501 0.00681060 0.00171783 0.00641118 0.00486798 0.02378246 0.00480662 0.01931525 0.00091296 0.01412430 0.06835830 0.02186249 0.00269105 
0.01418024 0.01651133 0.00182537 0.00227772 0.00669845 0.00170048 0.00628262 0.00490725 0.02385181 0.00489180 0.01920192 0.00091332 0.01410018 0.06889754 0.02195483 0.00281717 
0.01417831 0.01632134 0.00179122 0.00225995 0.00659069 0.00168208 0.00615382 0.00494288 0.02392750 0.00497576 0.01907570 0.00091420 0.01407414 0.06940731 0.02203070 0.00294262 
0.01417655 0.01612825 0.00176061 0.00224172 0.00648788 0.00166274 0.00602557 0.00497470 0.02400925 0.00505793 0.01893688 0.00091563 0.01404651 0.06988450 0.02208970 0.00306700 
0.01417524 0.01593382 0.00173377 0.00222304 0.00639062 0.00164259 0.00589870 0.00500258 0.02409676 0.00513778 0.01878587 0.00091763 0.01401764 0.07032604 0.02213150 0.00318989 
0.01417466 0.01573989 0.00171094 0.00220395 0.00629946 0.00162173 0.00577404 0.00502640 0.02418973 0.00521481 0.01862313 0.00092024 0.01398783 0.07072897 0.02215581 0.00331091 
0.01417512 0.01554834 0.00169233 0.00218448 0.00621497 0.00160031 0.00565241 0.00504606 0.02428781 0.00528852 0.01844923 0.00092348 0.01395739 0.07109042 0.02216242 0.00342966 
0.01417692 0.01536111 0.00167818 0.00216468 0.00613769 0.00157844 0.00553461 0.00506151 0.02439069 0.00535843 0.01826482 0.00092737 0.01392660 0.07140764 0.02215119 0.00354576 
0.01418038 0.01518019 0.00166866 0.00214459 0.00606814 0.00155626 0.00542146 0.00507272 0.02449800 0.00542409 0.01807061 0.00093195 0.01389574 0.07167805 0.02212202 0.00365884 
0.01418581 0.01500757 0.00166396 0.00212428 0.00600685 0.00153390 0.00531373 0.00507967 0.02460940 0.00548509 0.01786743 0.00093725 0.01386505 0.07189925 0.02207493 0.00376855 
0.01419354 0.01484528 0.00166426 0.00210381 0.00595428 0.00151150 0.00521220 0.00508239 0.02472453 0.00554103 0.01765617 0.00094328 0.01383476 0.07206900 0.02200996 0.00387453 
0.01420388 0.01469533 0.00166971 0.00208324 0.00591090 0.00148918 0.00511760 0.00508094 0.02484305 0.00559156 0.01743779 0.00095009 0.01380507 0.07218531 0.02192725 0.00397645 
0.01421715 0.01455971 0.00168044 0.00206266 0.00587714 0.00146709 0.00503064 0.00507539 0.02496460 0.00563637 0.01721333 0.00095768 0.01377618 0.07224641 0.02182702 0.00407401 
0.01423368 0.01444040 0.00169658 0.00204215 0.00585340 0.00144534 0.00495198 0.00506585 0.02508883 0.00567519 0.01698388 0.00096609 0.01374822 0.07225078 0.02170956 0.00416689 
0.01425374 0.01433933 0.00171821 0.00202178 0.00584003 0.00142407 0.00488227 0.00505245 0.02521541 0.00570777 0.01675060 0.00097533 0.01372133 0.07219716 0.02157523 0.00425483 
0.01427765 0.01425838 0.00174540 0.00200166 0.00583736 0.00140341 0.00482208 0.00503537 0.02534399 0.00573393 0.01651472 0.00098543 0.01369561 0.07208459 0.02142446 0.00433757 
0.01430569 0.01419934 0.00177822 0.00198188 0.00584566 0.00138345 0.00477196 0.00501477 0.02547426 0.00575352 0.01627749 0.00099640 0.01367113 0.07191239 0.02125776 0.00441486 
0.01433811 0.01416395 0.00181669 0.00196254 0.00586516 0.00136433 0.00473239 0.00499089 0.02560589 0.00576645 0.01604022 0.00100826 0.01364793 0.07168016 0.02107572 0.00448651 
0.01437517 0.01415384 0.00186081 0.00194373 0.00589607 0.00134614 0.00470382 0.00496394 0.02573858 0.00577267 0.01580423 0.00102101 0.01362601 0.07138783 0.02087897 0.00455232 
0.01441709 0.01417052 0.00191056 0.00192556 0.00593851 0.00132899 0.00468661 0.00493419 0.02587203 0.00577217 0.01557089 0.00103466 0.01360537 0.07103564 0.02066825 0.00461212 
0.01446410 0.01421540 0.00196589 0.00190814 0.00599258 0.00131296 0.00468107 0.00490191 0.02600596 0.00576500 0.01534157 0.00104922 0.01358595 0.07062415 0.02044432 0.00466578 
0.01451637 0.01428976 0.00202673 0.00189156 0.00605831 0.00129814 0.00468747 0.00486739 0.02614009 0.00575126 0.01511765 0.00106468 0.01356768 0.07015421 0.02020803 0.00471318 
0.01457408 0.01439472 0.00209299 0.00187594 0.00613568 0.00128460 0.00470599 0.00483095 0.02627416 0.00573109 0.01490051 0.00108104 0.01355043 0.06962701 0.01996027 0.00475424 
0.01463736 0.01453127 0.00216453 0.00186137 0.00622462 0.00127241 0.00473674 0.00479291 0.02640792 0.00570468 0.01469152 0.00109828 0.01353407 0.06904405 0.01970197 0.00478890 
0.01470634 0.01470024 0.00224120 0.00184795 0.00632501 0.00126161 0.00477978 0.00475360 0.02654114 0.00567228 0.01449203 0.00111640 0.01351843 0.06840711 0.01943413 0.00481711 
0.01478111 0.01490228 0.00232283 0.00183577 0.00643666 0.00125227 0.00483510 0.00471338 0.02667357 0.00563416 0.01430335 0.00113538 0.01350331 0.06771830 0.01915779 0.00483889 
0.01486172 0.01513787 0.00240921 0.00182494 0.00655932 0.00124440 0.00490261 0.00467258 0.02680500 0.00559067 0.01412677 0.00115518 0.01348849 0.06697998 0.01887399 0.00485424 
0.01494824 0.01540732 0.00250011 0.00181553 0.00669270 0.00123803 0.00498215 0.00463157 0.02693522 0.00554216 0.01396351 0.00117578 0.01347370 0.06619481 0.01858385 0.00486321 
0.01504067 0.01571074 0.00259528 0.00180762 0.00683644 0.00123318 0.00507350 0.00459072 0.02706403 0.00548906 0.01381476 0.00119715 0.01345868 0.06536569 0.01828847 0.00486587 
0.01513900 0.01604806 0.00269444 0.00180129 0.00699014 0.00122985 0.00517636 0.00455037 0.02719123 0.00543181 0.01368161 0.00121924 0.01344312 0.06449576 0.01798899 0.00486232 
0.01524321 0.01641903 0.00279729 0.00179660 0.00715333 0.00122802 0.00529038 0.00451088 0.02731666 0.00537090 0.01356511 0.00124202 0.01342670 0.06358841 0.01768656 0.00485267 
0.01535323 0.01682319 0.00290351 0.00179362 0.00732549 0.00122769 0.00541512 0.00447261 0.02744012 0.00530685 0.01346619 0.00126542 0.01340907 0.06264719 0.01738233 0.00483708 
0.01546900 0.01725991 0.00301276 0.00179238 0.00750604 0.00122881 0.00555011 0.00443591 0.02756146 0.00524020 0.01338572 0.00128940 0.01338988 0.06167587 0.01707744 0.00481571 
0.01559039 0.01772834 0.00312467 0.00179292 0.00769438 0.00123135 0.00569478 0.00440110 0.02768051 0.00517152 0.01332446 0.00131389 0.01336873 0.06067835 0.01677303 0.00478875 
0.01571731 0.01822748 0.00323887 0.00179528 0.00788983 0.00123527 0.00584851 0.00436851 0.02779712 0.00510142 0.01328305 0.00133882 0.01334525 0.05965868 0.01647022 0.00475640 
0.01584960 0.01875611 0.00335496 0.00179947 0.00809168 0.00124049 0.00601066 0.00433845 0.02791115 0.00503050 0.01326205 0.00136414 0.01331903 0.05862103 0.01617013 0.00471890 
0.01598712 0.01931287 0.00347254 0.00180549 0.00829917 0.00124695 0.00618048 0.00431121 0.02802246 0.00495940 0.01326187 0.00138977 0.01328965 0.05756963 0.01587381 0.00467648 
0.01612967 0.01989621 0.00359119 0.00181334 0.00851151 0.00125457 0.00635721 0.00428705 0.02813093 0.00488874 0.01328281 0.00141562 0.01325670 0.05650878 0.01558231 0.00462941 
0.01627709 0.02050440 0.00371048 0.00182299 0.00872787 0.00126327 0.00654002 0.00426624 0.02823641 0.00481919 0.01332505 0.00144161 0.01321975 0.05544283 0.01529664 0.00457796 
0.01642917 0.02113559 0.00382997 0.00183442 0.00894738 0.00127296 0.00672807 0.00424901 0.02833882 0.00475137 0.01338864 0.00146767 0.01317839 0.05437610 0.01501774 0.00452241 
0.01658570 0.02178777 0.00394921 0.00184759 0.00916916 0.00128353 0.00692044 0.00423554 0.02843804 0.00468594 0.01347348 0.00149370 0.01313219 0.05331293 0.01474652 0.00446307 
0.01674645 0.02245879 0.00406777 0.00186243 0.00939229 0.00129489 0.00711620 0.00422603 0.02853398 0.00462354 0.01357935 0.00151962 0.01308074 0.05225759 0.01448383 0.00440023 
0.01691120 0.02314638 0.00418520 0.00187888 0.00961583 0.00130691 0.00731440 0.00422063 0.02862655 0.00456479 0.01370591 0.00154532 0.01302364 0.05121428 0.01423047 0.00433422 
0.01707971 0.02384817 0.00430106 0.00189686 0.00983883 0.00131950 0.00751404 0.00421946 0.02871569 0.00451031 0.01385264 0.00157073 0.01296048 0.05018712 0.01398714 0.00426536 
0.01725174 0.02456170 0.00441489 0.00191627 0.01006033 0.00133252 0.00771413 0.00422262 0.02880134 0.00446070 0.01401893 0.00159574 0.01289090 0.04918007 0.01375452 0.00419395 
0.01742706 0.02528442 0.00452627 0.00193701 0.01027936 0.00134586 0.00791365 0.00423017 0.02888346 0.00441652 0.01420401 0.00162026 0.01281453 0.04819700 0.01353318 0.00412034 
0.01760540 0.02601370 0.00463477 0.00195897 0.01049495 0.00135940 0.00811157 0.00424214 0.02896201 0.00437832 0.01440700 0.00164420 0.01273104 0.04724157 0.01332365 0.00404483 
0.01778653 0.02674689 0.00473998 0.00198202 0.01070612 0.00137301 0.00830686 0.00425854 0.02903700 0.00434662 0.01462689 0.00166746 0.01264010 0.04631728 0.01312635 0.00396777 
0.01797020 0.02748129 0.00484148 0.00200603 0.01091193 0.00138657 0.00849850 0.00427934 0.02910844 0.00432190 0.01486253 0.00168994 0.01254143 0.04542741 0.01294166 0.00388945 
0.01815617 0.02821417 0.00493889 0.00203085 0.01111141 0.00139996 0.00868547 0.00430448 0.02917634 0.00430459 0.01511269 0.00171157 0.01243478 0.04457502 0.01276984 0.00381020 
0.01834417 0.02894283 0.00503185 0.00205633 0.01130365 0.00141305 0.00886676 0.00433388 0.02924077 0.00429511 0.01537599 0.00173224 0.01231991 0.04376293 0.01261111 0.00373033 
0.01853398 0.02966455 0.00511999 0.00208231 0.01148773 0.00142574 0.00904140 0.00436742 0.02930180 0.00429380 0.01565098 0.00175188 0.01219665 0.04299372 0.01246558 0.00365014 
0.01872535 0.03037667 0.00520298 0.00210863 0.01166277 0.00143790 0.00920841 0.00440494 0.02935953 0.00430099 0.01593611 0.00177040 0.01206485 0.04226968 0.01233331 0.00356990 
0.01891804 0.03107655 0.00528052 0.00213511 0.01182793 0.00144943 0.00936686 0.00444628 0.02941409 0.00431693 0.01622973 0.00178772 0.01192439 0.04159285 0.01221426 0.00348992 
0.01911181 0.03176162 0.00535231 0.00216159 0.01198239 0.00146023 0.00951586 0.00449123 0.02946562 0.00434184 0.01653012 0.00180378 0.01177523 0.04096497 0.01210831 0.00341044 
0.01930642 0.03242941 0.00541811 0.00218787 0.01212538 0.00147018 0.00965454 0.00453956 0.02951432 0.00437587 0.01683551 0.00181849 0.01161733 0.04038750 0.01201530 0.00333173 
0.01950164 0.03307752 0.00547767 0.00221379 0.01225618 0.00147921 0.00978208 0.00459102 0.02956038 0.00441912 0.01714405 0.00183181 0.01145074 0.03986160 0.01193497 0.00325402 
0.01969724 0.03370366 0.00553080 0.00223917 0.01237410 0.00148723 0.00989772 0.00464534 0.02960406 0.00447165 0.01745387 0.00184366 0.01127554 0.03938816 0.01186700 0.00317755 
0.01989298 0.03430567 0.00557731 0.00226382 0.01247852 0.00149415 0.01000074 0.00470222 0.02964560 0.00453344 0.01776304 0.00185401 0.01109186 0.03896773 0.01181100 0.00310251 
0.02008861 0.03488150 0.00561706 0.00228757 0.01256887 0.00149992 0.01009047 0.00476135 0.02968533 0.00460443 0.01806964 0.00186281 0.01089989 0.03860062 0.01176653 0.00302912 
0.02028392 0.03542927 0.00564993 0.00231025 0.01264465 0.00150447 0.01016632 0.00482239 0.02972356 0.00468449 0.01837172 0.00187003 0.01069987 0.03828683 0.01173310 0.00295753 
0.02047864 0.03594726 0.00567585 0.00233168 0.01270540 0.00150775 0.01022775 0.00488501 0.02976065 0.00477343 0.01866732 0.00187562 0.01049211 0.03802606 0.01171015 0.00288792 
0.02067254 0.03643388 0.00569475 0.00235171 0.01275073 0.00150973 0.01027427 0.00494885 0.02979698 0.00487102 0.01895453 0.00187959 0.01027696 0.03781779 0.01169709 0.00282042 
0.02086537 0.03688774 0.00570662 0.00237018 0.01278035 0.00151037 0.01030550 0.00501354 0.02983298 0.00497696 0.01923144 0.00188190 0.01005482 0.03766119 0.01169328 0.00275517 
0.02105687 0.03730763 0.00571146 0.00238694 0.01279399 0.00150965 0.01032109 0.00507871 0.02986908 0.00509090 0.01949619 0.00188256 0.00982617 0.03755521 0.01169806 0.00269226 
0.02124676 0.03769253 0.00570931 0.00240186 0.01279148 0.00150756 0.01032080 0.00514399 0.02990574 0.00521243 0.01974698 0.00188157 0.00959153 0.03749856 0.01171072 0.00263180 
0.02143477 0.03804159 0.00570025 0.00241480 0.01277272 0.00150412 0.01030442 0.00520900 0.02994345 0.00534109 0.01998205 0.00187894 0.00935147 0.03748973 0.01173055 0.00257386 
0.02162062 0.03835417 0.00568437 0.00242566 0.01273768 0.00149932 0.01027186 0.00527335 0.02998271 0.00547637 0.02019974 0.00187470 0.00910663 0.03752700 0.01175680 0.00251850 
0.02180400 0.03862983 0.00566180 0.00243433 0.01268638 0.00149319 0.01022308 0.00533668 0.03002406 0.00561773 0.02039845 0.00186887 0.00885769 0.03760848 0.01178874 0.00246576 
0.02198460 0.03886831 0.00563270 0.00244071 0.01261895 0.00148577 0.01015812 0.00539863 0.03006802 0.00576455 0.02057670 0.00186149 0.00860539 0.03773210 0.01182561 0.00241566 
0.02216208 0.03906957 0.00559725 0.00244475 0.01253558 0.00147709 0.01007713 0.00545883 0.03011514 0.00591619 0.02073312 0.00185261 0.00835052 0.03789565 0.01186667 0.00236823 
0.02233611 0.03923375 0.00555565 0.00244636 0.01243651 0.00146721 0.00998028 0.00551693 0.03016599 0.00607198 0.02086642 0.00184228 0.00809391 0.03809679 0.01191117 0.00232345 
0.02250631 0.03936118 0.00550815 0.00244552 0.01232207 0.00145620 0.00986787 0.00557261 0.03022113 0.00623121 0.02097548 0.00183057 0.00783644 0.03833309 0.01195840 0.00228132 
0.02267231 0.03945237 0.00545498 0.00244219 0.01219266 0.00144412 0.00974024 0.00562555 0.03028111 0.00639311 0.02105928 0.00181754 0.00757902 0.03860201 0.01200764 0.00224181 
0.02283372 0.03950803 0.00539643 0.00243636 0.01204875 0.00143106 0.00959782 0.00567544 0.03034649 0.00655693 0.02111695 0.00180327 0.00732261 0.03890097 0.01205822 0.00220488 
0.02299011 0.03952901 0.00533280 0.00242803 0.01189085 0.00141711 0.00944111 0.00572201 0.03041783 0.00672187 0.02114778 0.00178786 0.00706820 0.03922733 0.01210950 0.00217049 
0.02314106 0.03951637 0.00526438 0.00241723 0.01171956 0.00140235 0.00927068 0.00576501 0.03049566 0.00688711 0.02115119 0.00177137 0.00681682 0.03957844 0.01216087 0.00213856 
0.02328610 0.03947127 0.00519150 0.00240399 0.01153552 0.00138690 0.00908717 0.00580420 0.03058050 0.00705182 0.02112678 0.00175393 0.00656951 0.03995166 0.01221175 0.00210904 
0.02342478 0.03939506 0.00511450 0.00238837 0.01133943 0.00137087 0.00889128 0.00583937 0.03067285 0.00721517 0.02107428 0.00173562 0.00632734 0.04034436 0.01226162 0.00208185 
0.02355660 0.03928920 0.00503373 0.00237043 0.01113205 0.00135437 0.00868377 0.00587035 0.03077319 0.00737632 0.02099361 0.00171657 0.00609140 0.04075394 0.01231002 0.00205691 
0.02368106 0.03915527 0.00494955 0.00235027 0.01091419 0.00133751 0.00846546 0.00589698 0.03088196 0.00753443 0.02088484 0.00169687 0.00586278 0.04117788 0.01235652 0.00203414 
0.02379764 0.03899497 0.00486231 0.00232799 0.01068668 0.00132043 0.00823722 0.00591915 0.03099958 0.00768865 0.02074821 0.00167665 0.00564260 0.04161374 0.01240076 0.00201343 
0.02390583 0.03881008 0.00477239 0.00230371 0.01045040 0.00130326 0.00799999 0.00593676 0.03112642 0.00783818 0.02058412 0.00165604 0.00543195 0.04205914 0.01244242 0.00199470 
0.02400507 0.03860248 0.00468015 0.00227755 0.01020629 0.00128611 0.00775472 0.00594976 0.03126281 0.00798218 0.02039313 0.00163514 0.00523195 0.04251186 0.01248128 0.00197785 
0.02409481 0.03837408 0.00458598 0.00224967 0.00995528 0.00126913 0.00750244 0.00595812 0.03140905 0.00811988 0.02017597 0.00161410 0.00504367 0.04296976 0.01251715 0.00196277 
0.02417451 0.03812689 0.00449023 0.00222022 0.00969835 0.00125243 0.00724418 0.00596185 0.03156537 0.00825051 0.01993351 0.00159304 0.00486821 0.04343087 0.01254989 0.00194936 
0.02424359 0.03786292 0.00439327 0.00218937 0.00943649 0.00123616 0.00698104 0.00596098 0.03173197 0.00837333 0.01966680 0.00157208 0.00470661 0.04389335 0.01257948 0.00193753 
0.02430151 0.03758422 0.00429547 0.00215731 0.00917072 0.00122045 0.00671410 0.00595558 0.03190898 0.00848764 0.01937700 0.00155137 0.00455990 0.04435553 0.01260590 0.00192716 
0.02434770 0.03729285 0.00419718 0.00212421 0.00890204 0.00120541 0.00644451 0.00594577 0.03209648 0.00859276 0.01906543 0.00153102 0.00442907 0.04481590 0.01262923 0.00191816 
0.02438161 0.03699084 0.00409875 0.00209029 0.00863148 0.00119118 0.00617340 0.00593166 0.03229449 0.00868808 0.01873354 0.00151116 0.00431508 0.04527313 0.01264960 0.00191043 
0.02440269 0.03668023 0.00400052 0.00205575 0.00836006 0.00117788 0.00590194 0.00591344 0.03250299 0.00877301 0.01838291 0.00149193 0.00421884 0.04572607 0.01266721 0.00190387 
0.02441043 0.03636301 0.00390280 0.00202079 0.00808878 0.00116561 0.00563127 0.00589129 0.03272188 0.00884703 0.01801523 0.00147345 0.00414120 0.04617375 0.01268231 0.00189838 
0.02440430 0.03604114 0.00380591 0.00198563 0.00781866 0.00115450 0.00536255 0.00586543 0.03295099 0.00890966 0.01763229 0.00145583 0.00408295 0.04661538 0.01269519 0.00189388 
0.02438382 0.03571649 0.00371016 0.00195048 0.00755068 0.00114464 0.00509696 0.00583614 0.03319012 0.00896046 0.01723598 0.00143919 0.00404485 0.04705037 0.01270623 0.00189028 
0.02434852 0.03539089 0.00361582 0.00191558 0.00728580 0.00113614 0.00483562 0.00580367 0.03343899 0.00899909 0.01682827 0.00142366 0.00402754 0.04747829 0.01271583 0.00188748 
0.02429797 0.03506607 0.00352317 0.00188112 0.00702496 0.00112907 0.00457967 0.00576835 0.03369726 0.00902524 0.01641123 0.00140934 0.00403164 0.04789890 0.01272443 0.00188542 
0.02423175 0.03474369 0.00343245 0.00184734 0.00676907 0.00112353 0.00433022 0.00573049 0.03396455 0.00903867 0.01598695 0.00139632 0.00405765 0.04831214 0.01273253 0.00188401 
0.02414952 0.03442528 0.00334391 0.00181443 0.00651900 0.00111959 0.00408835 0.00569045 0.03424041 0.00903921 0.01555761 0.00138471 0.00410600 0.04871812 0.01274066 0.00188318 
0.02405094 0.03411230 0.00325777 0.00178262 0.00627557 0.00111731 0.00385512 0.00564859 0.03452434 0.00902674 0.01512540 0.00137461 0.00417704 0.04911709 0.01274937 0.00188288 
0.02393574 0.03380606 0.00317422 0.00175210 0.00603959 0.00111673 0.00363154 0.00560532 0.03481578 0.00900122 0.01469254 0.00136608 0.00427103 0.04950947 0.01275924 0.00188303 
0.02380370 0.03350777 0.00309345 0.00172306 0.00581178 0.00111792 0.00341860 0.00556102 0.03511415 0.00896269 0.01426128 0.00135922 0.00438811 0.04989579 0.01277087 0.00188357 
0.02365464 0.03321850 0.00301563 0.00169569 0.00559285 0.00112089 0.00321722 0.00551612 0.03541880 0.00891124 0.01383386 0.00135408 0.00452836 0.05027676 0.01278488 0.00188447 
0.02348846 0.03293922 0.00294091 0.00167017 0.00538343 0.00112568 0.00302831 0.00547104 0.03572905 0.00884703 0.01341249 0.00135073 0.00469173 0.05065314 0.01280189 0.00188567 
0.02330509 0.03267073 0.00286941 0.00164666 0.00518411 0.00113229 0.00285270 0.00542623 0.03604419 0.00877030 0.01299938 0.00134923 0.00487808 0.05102584 0.01282252 0.00188712 
0.02310456 0.03241373 0.00280127 0.00162531 0.00499541 0.00114072 0.00269117 0.00538212 0.03636347 0.00868134 0.01259670 0.00134961 0.00508716 0.05139584 0.01284740 0.00188879 
0.02288693 0.03216878 0.00273657 0.00160626 0.00481779 0.00115097 0.00254445 0.00533916 0.03668613 0.00858052 0.01220656 0.00135191 0.00531862 0.05176417 0.01287712 0.00189065 
0.02265236 0.03193630 0.00267540 0.00158964 0.00465167 0.00116300 0.00241320 0.00529780 0.03701136 0.00846826 0.01183100 0.00135615 0.00557199 0.05213195 0.01291228 0.00189267 
0.02240107 0.03171658 0.00261784 0.00157554 0.00449738 0.00117680 0.00229803 0.00525849 0.03733837 0.00834506 0.01147202 0.00136235 0.00584672 0.05250031 0.01295346 0.00189482 
0.02213335 0.03150980 0.00256394 0.00156407 0.00435520 0.00119232 0.00219947 0.00522168 0.03766633 0.00821146 0.01113151 0.00137052 0.00614212 0.05287040 0.01300118 0.00189708 
0.02184958 0.03131602 0.00251374 0.00155531 0.00422535 0.00120950 0.00211800 0.00518778 0.03799443 0.00806807 0.01081128 0.00138066 0.00645742 0.05324338 0.01305596 0.00189944 
0.02155019 0.03113515 0.00246727 0.00154930 0.00410798 0.00122828 0.00205400 0.00515725 0.03832184 0.00791555 0.01051303 0.00139275 0.00679175 0.05362041 0.01311827 0.00190189 
0.02123571 0.03096703 0.00242455 0.00154609 0.00400317 0.00124858 0.00200782 0.00513049 0.03864774 0.00775461 0.01023834 0.00140677 0.00714412 0.05400258 0.01318852 0.00190440 
0.02090673 0.03081137 0.00238561 0.00154570 0.00391095 0.00127034 0.00197971 0.00510792 0.03897134 0.00758601 0.00998870 0.00142268 0.00751346 0.05439098 0.01326708 0.00190699 
0.02056394 0.03066781 0.00235042 0.00154815 0.00383129 0.00129345 0.00196985 0.00508991 0.03929185 0.00741055 0.00976543 0.00144046 0.00789859 0.05478660 0.01335428 0.00190964 
0.02020808 0.03053586 0.00231900 0.00155342 0.00376408 0.00131782 0.00197837 0.00507685 0.03960849 0.00722906 0.00956976 0.00146005 0.00829826 0.05519035 0.01345036 0.00191236 
0.01983997 0.03041500 0.00229132 0.00156148 0.00370917 0.00134333 0.00200529 0.00506908 0.03992053 0.00704242 0.00940275 0.00148139 0.00871112 0.05560306 0.01355554 0.00191516 
0.01946050 0.03030461 0.00226736 0.00157228 0.00366636 0.00136989 0.00205060 0.00506693 0.04022725 0.00685153 0.00926532 0.00150441 0.00913574 0.05602544 0.01366992 0.00191803 
0.01907066 0.03020401 0.00224711 0.00158577 0.00363537 0.00139737 0.00211418 0.00507072 0.04052799 0.00665732 0.00915823 0.00152905 0.00957062 0.05645807 0.01379357 0.00192098 
0.01867146 0.03011248 0.00223053 0.00160186 0.00361589 0.00142564 0.00219586 0.00508071 0.04082210 0.00646074 0.00908212 0.00155522 0.01001421 0.05690140 0.01392649 0.00192404 
0.01826400 0.03002925 0.00221760 0.00162045 0.00360756 0.00145457 0.00229539 0.00509717 0.04110899 0.00626274 0.00903745 0.00158282 0.01046486 0.05735574 0.01406857 0.00192721 
0.01784945 0.02995353 0.00220827 0.00164143 0.00360997 0.00148404 0.00241248 0.00512031 0.04138812 0.00606429 0.00902450 0.00161177 0.01092091 0.05782122 0.01421967 0.00193050 
0.01742901 0.02988450 0.00220252 0.00166469 0.00362267 0.00151390 0.00254673 0.00515033 0.04165897 0.00586638 0.00904345 0.00164196 0.01138062 0.05829780 0.01437953 0.00193394 
0.01700394 0.02982133 0.00220031 0.00169007 0.00364517 0.00154403 0.00269770 0.00518739 0.04192111 0.00566998 0.00909426 0.00167327 0.01184223 0.05878529 0.01454784 0.00193755 
0.01657557 0.02976320 0.00220160 0.00171744 0.00367696 0.00157428 0.00286489 0.00523161 0.04217413 0.00547606 0.00917678 0.00170560 0.01230394 0.05928329 0.01472422 0.00194135 
0.01614523 0.02970929 0.00220636 0.00174661 0.00371748 0.00160451 0.00304773 0.00528310 0.04241769 0.00528557 0.00929067 0.00173883 0.01276395 0.05979123 0.01490817 0.00194535 
0.01571432 0.02965880 0.00221456 0.00177743 0.00376616 0.00163458 0.00324561 0.00534192 0.04265150 0.00509946 0.00943546 0.00177282 0.01322043 0.06030834 0.01509918 0.00194959 
0.01528425 0.02961094 0.00222616 0.00180970 0.00382241 0.00166436 0.00345783 0.00540807 0.04287533 0.00491865 0.00961052 0.00180745 0.01367155 0.06083367 0.01529660 0.00195409 
0.01485647 0.02956499 0.00224114 0.00184325 0.00388560 0.00169370 0.00368368 0.00548156 0.04308900 0.00474403 0.00981509 0.00184260 0.01411548 0.06136605 0.01549976 0.00195887 
0.01443242 0.02952025 0.00225946 0.00187786 0.00395511 0.00172249 0.00392238 0.00556232 0.04329237 0.00457648 0.01004824 0.00187812 0.01455043 0.06190416 0.01570788 0.00196397 
0.01401358 0.02947607 0.00228110 0.00191334 0.00403031 0.00175059 0.00417310 0.00565029 0.04348539 0.00441680 0.01030894 0.00191387 0.01497462 0.06244647 0.01592016 0.00196941 
0.01360141 0.02943185 0.00230604 0.00194947 0.00411055 0.00177788 0.00443499 0.00574532 0.04366803 0.00426581 0.01059600 0.00194973 0.01538629 0.06299126 0.01613570 0.00197521 
0.01319739 0.02938708 0.00233425 0.00198606 0.00419520 0.00180424 0.00470715 0.00584727 0.04384033 0.00412423 0.01090814 0.00198555 0.01578376 0.06353667 0.01635357 0.00198142 
0.01280296 0.02934129 0.00236571 0.00202289 0.00428362 0.00182956 0.00498863 0.00595593 0.04400235 0.00399278 0.01124394 0.00202119 0.01616537 0.06408064 0.01657276 0.00198805 
0.01241957 0.02929408 0.00240040 0.00205975 0.00437519 0.00185374 0.00527849 0.00607107 0.04415423 0.00387208 0.01160190 0.00205651 0.01652954 0.06462099 0.01679224 0.00199513 
0.01204862 0.02924514 0.00243829 0.00209642 0.00446927 0.00187667 0.00557572 0.00619242 0.04429614 0.00376275 0.01198041 0.00209138 0.01687475 0.06515536 0.01701093 0.00200269 
0.01169150 0.02919422 0.00247937 0.00213271 0.00456528 0.00189827 0.00587933 0.00631969 0.04442826 0.00366531 0.01237777 0.00212566 0.01719958 0.06568129 0.01722771 0.00201077 
0.01134955 0.02914117 0.00252362 0.00216841 0.00466262 0.00191845 0.00618828 0.00645252 0.04455086 0.00358023 0.01279221 0.00215922 0.01750267 0.06619620 0.01744144 0.00201938 
0.01102406 0.02908589 0.00257100 0.00220332 0.00476075 0.00193715 0.00650152 0.00659057 0.04466419 0.00350792 0.01322190 0.00219193 0.01778277 0.06669741 0.01765095 0.00202855 
0.01071627 0.02902838 0.00262150 0.00223726 0.00485911 0.00195430 0.00681801 0.00673342 0.04476855 0.00344874 0.01366493 0.00222366 0.01803872 0.06718215 0.01785507 0.00203831 
0.01042737 0.02896870 0.00267508 0.00227003 0.00495720 0.00196985 0.00713669 0.00688064 0.04486427 0.00340296 0.01411936 0.00225428 0.01826950 0.06764761 0.01805260 0.00204867 
0.01015848 0.02890700 0.00273171 0.00230146 0.00505454 0.00198375 0.00745649 0.00703178 0.04495168 0.00337080 0.01458321 0.00228369 0.01847415 0.06809093 0.01824237 0.00205967 
0.00991063 0.02884351 0.00279135 0.00233139 0.00515069 0.00199598 0.00777636 0.00718636 0.04503112 0.00335239 0.01505448 0.00231177 0.01865189 0.06850923 0.01842319 0.00207130 
0.00968481 0.02877849 0.00285395 0.00235966 0.00524522 0.00200650 0.00809525 0.00734386 0.04510297 0.00334782 0.01553114 0.00233841 0.01880201 0.06889962 0.01859391 0.00208360 
0.00948190 0.02871232 0.00291947 0.00238613 0.00533775 0.00201531 0.00841211 0.00750376 0.04516758 0.00335709 0.01601117 0.00236351 0.01892396 0.06925924 0.01875339 0.00209658 
