0.03286105 0.03589059 0.00778987 0.00376236 0.00085973 0.00208271 0.01095860 0.00460011 0.03267823 0.00261007 0.00382743 0.02437940 0.00349458 0.00169514 0.00179489 0.00123602 
0.03219526 0.03613199 0.00766932 0.00374759 0.00088773 0.00209802 0.01077751 0.00461353 0.03297486 0.00262393 0.00377363 0.02508018 0.00365819 0.00172361 0.00171990 0.00122989 
0.03158693 0.03634891 0.00754301 0.00372763 0.00091807 0.00211195 0.01059047 0.00462662 0.03326829 0.00263486 0.00371911 0.02575211 0.00382655 0.00175387 0.00165300 0.00122396 
0.03103884 0.03654203 0.00741168 0.00370262 0.00095063 0.00212444 0.01039811 0.00463944 0.03355755 0.00264283 0.00366401 0.02639282 0.00399919 0.00178589 0.00159449 0.00121826 
0.03055355 0.03671213 0.00727610 0.00367269 0.00098527 0.00213545 0.01020103 0.00465203 0.03384166 0.00264780 0.00360847 0.02700006 0.00417564 0.00181966 0.00154458 0.00121281 
0.03013335 0.03686014 0.00713706 0.00363803 0.00102184 0.00214494 0.00999988 0.00466444 0.03411960 0.00264975 0.00355260 0.02757170 0.00435542 0.00185511 0.00150346 0.00120763 
0.02978026 0.03698705 0.00699534 0.00359885 0.00106018 0.00215287 0.00979526 0.00467670 0.03439035 0.00264868 0.00349653 0.02810578 0.00453800 0.00189220 0.00147125 0.00120275 
0.02949603 0.03709400 0.00685174 0.00355538 0.00110013 0.00215922 0.00958783 0.00468886 0.03465285 0.00264460 0.00344039 0.02860047 0.00472284 0.00193086 0.00144803 0.00119819 
0.02928211 0.03718221 0.00670707 0.00350789 0.00114150 0.00216398 0.00937818 0.00470094 0.03490601 0.00263754 0.00338430 0.02905412 0.00490939 0.00197100 0.00143380 0.00119396 
0.02913964 0.03725297 0.00656214 0.00345668 0.00118410 0.00216712 0.00916694 0.00471296 0.03514876 0.00262753 0.00332837 0.02946525 0.00509708 0.00201253 0.00142856 0.00119008 
0.02906942 0.03730768 0.00641771 0.00340205 0.00122775 0.00216864 0.00895471 0.00472494 0.03537998 0.00261463 0.00327271 0.02983258 0.00528532 0.00205534 0.00143221 0.00118657 
0.02907194 0.03734781 0.00627459 0.00334435 0.00127224 0.00216855 0.00874207 0.00473688 0.03559857 0.00259888 0.00321743 0.03015503 0.00547350 0.00209932 0.00144463 0.00118344 
0.02914733 0.03737488 0.00613353 0.00328392 0.00131736 0.00216686 0.00852959 0.00474878 0.03580342 0.00258036 0.00316263 0.03043169 0.00566104 0.00214434 0.00146565 0.00118070 
0.02929537 0.03739047 0.00599528 0.00322114 0.00136292 0.00216357 0.00831782 0.00476065 0.03599341 0.00255915 0.00310839 0.03066189 0.00584729 0.00219026 0.00149504 0.00117837 
0.02951551 0.03739622 0.00586055 0.00315640 0.00140869 0.00215872 0.00810727 0.00477246 0.03616744 0.00253535 0.00305483 0.03084516 0.00603166 0.00223694 0.00153253 0.00117644 
0.02980680 0.03739378 0.00573004 0.00309009 0.00145447 0.00215232 0.00789844 0.00478420 0.03632442 0.00250905 0.00300200 0.03098127 0.00621351 0.00228422 0.00157783 0.00117493 
0.03016797 0.03738485 0.00560441 0.00302262 0.00150004 0.00214442 0.00769181 0.00479583 0.03646326 0.00248036 0.00295000 0.03107018 0.00639223 0.00233195 0.00163058 0.00117384 
0.03059737 0.03737113 0.00548427 0.00295440 0.00154519 0.00213505 0.00748781 0.00480733 0.03658293 0.00244941 0.00289888 0.03111209 0.00656720 0.00237995 0.00169041 0.00117318 
0.03109299 0.03735433 0.00537023 0.00288585 0.00158970 0.00212426 0.00728685 0.00481865 0.03668240 0.00241630 0.00284872 0.03110741 0.00673781 0.00242805 0.00175690 0.00117293 
0.03165250 0.03733614 0.00526282 0.00281739 0.00163338 0.00211211 0.00708932 0.00482976 0.03676067 0.00238119 0.00279957 0.03105679 0.00690345 0.00247608 0.00182960 0.00117309 
0.03227317 0.03731826 0.00516255 0.00274943 0.00167602 0.00209864 0.00689554 0.00484059 0.03681681 0.00234419 0.00275148 0.03096108 0.00706354 0.00252384 0.00190804 0.00117368 
0.03295200 0.03730233 0.00506988 0.00268240 0.00171741 0.00208392 0.00670584 0.00485110 0.03684992 0.00230546 0.00270449 0.03082134 0.00721750 0.00257116 0.00199172 0.00117466 
0.03368563 0.03728998 0.00498522 0.00261669 0.00175736 0.00206802 0.00652049 0.00486122 0.03685915 0.00226514 0.00265863 0.03063885 0.00736477 0.00261784 0.00208012 0.00117605 
0.03447039 0.03728278 0.00490894 0.00255270 0.00179570 0.00205100 0.00633974 0.00487089 0.03684373 0.00222338 0.00261394 0.03041509 0.00750482 0.00266370 0.00217271 0.00117781 
0.03530234 0.03728223 0.00484135 0.00249081 0.00183224 0.00203295 0.00616380 0.00488003 0.03680294 0.00218033 0.00257044 0.03015172 0.00763712 0.00270854 0.00226891 0.00117996 
0.03617724 0.03728979 0.00478272 0.00243141 0.00186681 0.00201393 0.00599285 0.00488859 0.03673615 0.00213616 0.00252814 0.02985059 0.00776119 0.00275218 0.00236819 0.00118246 
0.03709062 0.03730682 0.00473327 0.00237484 0.00189926 0.00199403 0.00582703 0.00489648 0.03664281 0.00209101 0.00248706 0.02951374 0.00787657 0.00279442 0.00246995 0.00118530 
0.03803775 0.03733461 0.00469317 0.00232144 0.00192944 0.00197334 0.00566647 0.00490364 0.03652245 0.00204505 0.00244721 0.02914334 0.00798282 0.00283509 0.00257362 0.00118847 
0.03901373 0.03737434 0.00466252 0.00227152 0.00195721 0.00195194 0.00551125 0.00490998 0.03637470 0.00199844 0.00240857 0.02874173 0.00807954 0.00287401 0.00267862 0.00119195 
0.04001345 0.03742711 0.00464140 0.00222538 0.00198245 0.00192992 0.00536142 0.00491544 0.03619928 0.00195133 0.00237115 0.02831138 0.00816636 0.00291099 0.00278438 0.00119571 
0.04103165 0.03749390 0.00462982 0.00218330 0.00200504 0.00190737 0.00521704 0.00491994 0.03599604 0.00190390 0.00233493 0.02785489 0.00824296 0.00294586 0.00289032 0.00119974 
0.04206294 0.03757558 0.00462776 0.00214550 0.00202490 0.00188438 0.00507810 0.00492341 0.03576491 0.00185630 0.00229990 0.02737494 0.00830905 0.00297846 0.00299587 0.00120401 
0.04310185 0.03767290 0.00463513 0.00211222 0.00204193 0.00186106 0.00494459 0.00492578 0.03550596 0.00180868 0.00226605 0.02687432 0.00836437 0.00300863 0.00310049 0.00120850 
0.04414283 0.03778648 0.00465181 0.00208363 0.00205606 0.00183748 0.00481649 0.00492699 0.03521936 0.00176121 0.00223335 0.02635591 0.00840871 0.00303623 0.00320364 0.00121317 
0.04518031 0.03791683 0.00467764 0.00205990 0.00206724 0.00181375 0.00469374 0.00492698 0.03490541 0.00171404 0.00220178 0.02582260 0.00844191 0.00306110 0.00330478 0.00121802 
0.04620870 0.03806431 0.00471241 0.00204116 0.00207543 0.00178996 0.00457628 0.00492568 0.03456455 0.00166733 0.00217130 0.02527737 0.00846384 0.00308313 0.00340343 0.00122301 
0.04722247 0.03822915 0.00475587 0.00202751 0.00208060 0.00176620 0.00446403 0.00492306 0.03419732 0.00162121 0.00214190 0.02472320 0.00847442 0.00310219 0.00349909 0.00122811 
0.04821613 0.03841145 0.00480774 0.00201902 0.00208274 0.00174257 0.00435691 0.00491906 0.03380441 0.00157584 0.00211354 0.02416306 0.00847363 0.00311816 0.00359132 0.00123331 
0.04918431 0.03861117 0.00486770 0.00201573 0.00208185 0.00171916 0.00425481 0.00491365 0.03338663 0.00153136 0.00208620 0.02359994 0.00846147 0.00313097 0.00367967 0.00123856 
0.05012175 0.03882814 0.00493541 0.00201763 0.00207796 0.00169607 0.00415765 0.00490680 0.03294492 0.00148791 0.00205982 0.02303677 0.00843801 0.00314051 0.00376376 0.00124385 
0.05102339 0.03906205 0.00501048 0.00202471 0.00207109 0.00167338 0.00406530 0.00489848 0.03248037 0.00144563 0.00203440 0.02247646 0.00840335 0.00314672 0.00384321 0.00124916 
0.05188435 0.03931245 0.00509251 0.00203692 0.00206128 0.00165118 0.00397767 0.00488868 0.03199416 0.00140463 0.00200989 0.02192185 0.00835765 0.00314954 0.00391767 0.00125444 
0.05269996 0.03957877 0.00518108 0.00205416 0.00204861 0.00162955 0.00389466 0.00487740 0.03148762 0.00136506 0.00198626 0.02137568 0.00830110 0.00314894 0.00398684 0.00125968 
0.05346585 0.03986030 0.00527573 0.00207633 0.00203314 0.00160859 0.00381615 0.00486464 0.03096219 0.00132701 0.00196348 0.02084062 0.00823395 0.00314487 0.00405045 0.00126486 
0.05417791 0.04015622 0.00537600 0.00210328 0.00201497 0.00158836 0.00374205 0.00485041 0.03041945 0.00129062 0.00194152 0.02031922 0.00815650 0.00313734 0.00410826 0.00126994 
0.05483235 0.04046558 0.00548142 0.00213485 0.00199419 0.00156895 0.00367228 0.00483473 0.02986106 0.00125599 0.00192036 0.01981391 0.00806906 0.00312634 0.00416006 0.00127491 
0.05542574 0.04078733 0.00559149 0.00217083 0.00197091 0.00155044 0.00360675 0.00481764 0.02928880 0.00122322 0.00189996 0.01932697 0.00797203 0.00311189 0.00420570 0.00127974 
0.05595499 0.04112028 0.00570572 0.00221100 0.00194525 0.00153289 0.00354539 0.00479917 0.02870456 0.00119241 0.00188032 0.01886056 0.00786582 0.00309403 0.00424503 0.00128442 
0.05641741 0.04146317 0.00582360 0.00225513 0.00191736 0.00151637 0.00348815 0.00477937 0.02811031 0.00116365 0.00186139 0.01841664 0.00775088 0.00307280 0.00427798 0.00128891 
0.05681072 0.04181463 0.00594462 0.00230295 0.00188737 0.00150094 0.00343496 0.00475831 0.02750810 0.00113702 0.00184318 0.01799704 0.00762772 0.00304828 0.00430447 0.00129321 
0.05713305 0.04217321 0.00606829 0.00235417 0.00185544 0.00148668 0.00338580 0.00473604 0.02690007 0.00111260 0.00182565 0.01760337 0.00749685 0.00302055 0.00432449 0.00129729 
0.05738297 0.04253739 0.00619411 0.00240850 0.00182172 0.00147362 0.00334065 0.00471265 0.02628842 0.00109046 0.00180881 0.01723709 0.00735885 0.00298970 0.00433806 0.00130114 
0.05755951 0.04290555 0.00632156 0.00246560 0.00178638 0.00146183 0.00329949 0.00468821 0.02567539 0.00107067 0.00179263 0.01689944 0.00721432 0.00295586 0.00434523 0.00130474 
0.05766213 0.04327605 0.00645018 0.00252516 0.00174959 0.00145136 0.00326234 0.00466282 0.02506328 0.00105328 0.00177712 0.01659147 0.00706387 0.00291916 0.00434607 0.00130809 
0.05769077 0.04364715 0.00657947 0.00258681 0.00171154 0.00144224 0.00322921 0.00463658 0.02445443 0.00103833 0.00176227 0.01631403 0.00690816 0.00287973 0.00434071 0.00131116 
0.05764581 0.04401712 0.00670898 0.00265022 0.00167241 0.00143452 0.00320014 0.00460958 0.02385117 0.00102587 0.00174807 0.01606776 0.00674786 0.00283775 0.00432930 0.00131396 
0.05752813 0.04438416 0.00683824 0.00271500 0.00163238 0.00142822 0.00317517 0.00458193 0.02325588 0.00101594 0.00173454 0.01585311 0.00658367 0.00279340 0.00431202 0.00131647 
0.05733903 0.04474645 0.00696683 0.00278080 0.00159164 0.00142339 0.00315437 0.00455375 0.02267090 0.00100856 0.00172168 0.01567030 0.00641630 0.00274685 0.00428907 0.00131868 
0.05708027 0.04510219 0.00709433 0.00284724 0.00155037 0.00142005 0.00313781 0.00452516 0.02209858 0.00100375 0.00170948 0.01551936 0.00624647 0.00269832 0.00426069 0.00132059 
0.05675405 0.04544954 0.00722033 0.00291395 0.00150878 0.00141822 0.00312556 0.00449626 0.02154122 0.00100151 0.00169798 0.01540012 0.00607493 0.00264802 0.00422715 0.00132221 
0.05636300 0.04578667 0.00734445 0.00298054 0.00146705 0.00141792 0.00311772 0.00446719 0.02100110 0.00100185 0.00168716 0.01531221 0.00590242 0.00259619 0.00418874 0.00132352 
0.05591014 0.04611180 0.00746634 0.00304665 0.00142536 0.00141915 0.00311439 0.00443807 0.02048044 0.00100477 0.00167706 0.01525508 0.00572968 0.00254306 0.00414576 0.00132453 
0.05539892 0.04642314 0.00758566 0.00311190 0.00138390 0.00142193 0.00311566 0.00440901 0.01998138 0.00101024 0.00166768 0.01522797 0.00555748 0.00248888 0.00409854 0.00132524 
0.05483311 0.04671896 0.00770208 0.00317594 0.00134286 0.00142626 0.00312164 0.00438014 0.01950601 0.00101825 0.00165904 0.01522996 0.00538655 0.00243391 0.00404743 0.00132565 
0.05421684 0.04699757 0.00781532 0.00323840 0.00130241 0.00143214 0.00313245 0.00435158 0.01905629 0.00102876 0.00165115 0.01525998 0.00521764 0.00237842 0.00399279 0.00132578 
0.05355457 0.04725731 0.00792510 0.00329895 0.00126271 0.00143957 0.00314819 0.00432344 0.01863412 0.00104174 0.00164404 0.01531678 0.00505148 0.00232269 0.00393501 0.00132562 
0.05285103 0.04749663 0.00803118 0.00335724 0.00122394 0.00144852 0.00316896 0.00429584 0.01824125 0.00105714 0.00163773 0.01539896 0.00488880 0.00226700 0.00387447 0.00132519 
0.05211120 0.04771401 0.00813332 0.00341297 0.00118626 0.00145900 0.00319488 0.00426888 0.01787934 0.00107489 0.00163221 0.01550501 0.00473031 0.00221163 0.00381157 0.00132450 
0.05134030 0.04790804 0.00823132 0.00346581 0.00114981 0.00147098 0.00322604 0.00424268 0.01754990 0.00109494 0.00162752 0.01563326 0.00457668 0.00215687 0.00374672 0.00132355 
0.05054371 0.04807736 0.00832499 0.00351549 0.00111473 0.00148443 0.00326252 0.00421731 0.01725430 0.00111722 0.00162367 0.01578198 0.00442858 0.00210302 0.00368033 0.00132237 
0.04972696 0.04822075 0.00841419 0.00356173 0.00108117 0.00149933 0.00330440 0.00419288 0.01699375 0.00114164 0.00162066 0.01594931 0.00428666 0.00205035 0.00361282 0.00132096 
0.04889572 0.04833704 0.00849875 0.00360427 0.00104924 0.00151565 0.00335174 0.00416947 0.01676932 0.00116811 0.00161851 0.01613331 0.00415152 0.00199918 0.00354460 0.00131934 
0.04805570 0.04842522 0.00857856 0.00364287 0.00101906 0.00153335 0.00340460 0.00414714 0.01658191 0.00119654 0.00161723 0.01633199 0.00402374 0.00194977 0.00347610 0.00131753 
0.04721266 0.04848434 0.00865352 0.00367734 0.00099073 0.00155240 0.00346301 0.00412596 0.01643224 0.00122682 0.00161682 0.01654329 0.00390387 0.00190242 0.00340772 0.00131554 
0.04637233 0.04851360 0.00872353 0.00370746 0.00096434 0.00157274 0.00352697 0.00410598 0.01632088 0.00125884 0.00161728 0.01676513 0.00379242 0.00185741 0.00333986 0.00131340 
0.04554043 0.04851230 0.00878852 0.00373307 0.00093997 0.00159434 0.00359649 0.00408725 0.01624819 0.00129249 0.00161861 0.01699539 0.00368986 0.00181501 0.00327294 0.00131111 
0.04472255 0.04847987 0.00884844 0.00375402 0.00091769 0.00161713 0.00367153 0.00406980 0.01621436 0.00132765 0.00162080 0.01723196 0.00359663 0.00177548 0.00320734 0.00130871 
0.04392420 0.04841587 0.00890326 0.00377018 0.00089757 0.00164107 0.00375204 0.00405365 0.01621941 0.00136417 0.00162384 0.01747272 0.00351310 0.00173907 0.00314344 0.00130621 
0.04315068 0.04831998 0.00895293 0.00378146 0.00087964 0.00166609 0.00383793 0.00403882 0.01626317 0.00140192 0.00162771 0.01771558 0.00343962 0.00170604 0.00308161 0.00130363 
0.04240713 0.04819201 0.00899744 0.00378777 0.00086393 0.00169214 0.00392912 0.00402530 0.01634528 0.00144077 0.00163239 0.01795848 0.00337648 0.00167660 0.00302220 0.00130099 
0.04169843 0.04803191 0.00903679 0.00378906 0.00085048 0.00171914 0.00402546 0.00401309 0.01646521 0.00148056 0.00163786 0.01819942 0.00332395 0.00165098 0.00296555 0.00129832 
0.04102919 0.04783973 0.00907098 0.00378529 0.00083928 0.00174703 0.00412680 0.00400216 0.01662223 0.00152115 0.00164408 0.01843645 0.00328220 0.00162937 0.00291198 0.00129563 
0.04040374 0.04761570 0.00910003 0.00377646 0.00083034 0.00177574 0.00423296 0.00399248 0.01681546 0.00156237 0.00165102 0.01866769 0.00325140 0.00161196 0.00286179 0.00129295 
0.03982605 0.04736012 0.00912395 0.00376258 0.00082364 0.00180520 0.00434371 0.00398402 0.01704384 0.00160408 0.00165864 0.01889135 0.00323164 0.00159891 0.00281526 0.00129030 
0.03929976 0.04707345 0.00914278 0.00374370 0.00081915 0.00183531 0.00445882 0.00397671 0.01730615 0.00164611 0.00166688 0.01910574 0.00322297 0.00159036 0.00277266 0.00128769 
0.03882810 0.04675627 0.00915654 0.00371987 0.00081684 0.00186601 0.00457802 0.00397049 0.01760099 0.00168829 0.00167570 0.01930926 0.00322539 0.00158645 0.00273422 0.00128516 
0.03841391 0.04640927 0.00916529 0.00369118 0.00081666 0.00189721 0.00470101 0.00396531 0.01792682 0.00173047 0.00168504 0.01950044 0.00323884 0.00158726 0.00270015 0.00128271 
0.03805959 0.04603326 0.00916906 0.00365774 0.00081855 0.00192882 0.00482747 0.00396107 0.01828198 0.00177248 0.00169483 0.01967793 0.00326321 0.00159288 0.00267065 0.00128037 
0.03776713 0.04562916 0.00916790 0.00361966 0.00082244 0.00196076 0.00495706 0.00395769 0.01866464 0.00181416 0.00170501 0.01984049 0.00329835 0.00160337 0.00264588 0.00127816 
0.03753803 0.04519800 0.00916188 0.00357711 0.00082827 0.00199294 0.00508939 0.00395509 0.01907286 0.00185534 0.00171550 0.01998703 0.00334406 0.00161876 0.00262598 0.00127609 
0.03737334 0.04474090 0.00915104 0.00353024 0.00083593 0.00202527 0.00522408 0.00395315 0.01950459 0.00189586 0.00172623 0.02011661 0.00340008 0.00163905 0.00261106 0.00127418 
0.03727366 0.04425909 0.00913544 0.00347924 0.00084533 0.00205765 0.00536071 0.00395179 0.01995767 0.00193556 0.00173712 0.02022841 0.00346611 0.00166422 0.00260123 0.00127246 
0.03723909 0.04375388 0.00911517 0.00342431 0.00085638 0.00208999 0.00549885 0.00395089 0.02042984 0.00197429 0.00174808 0.02032178 0.00354181 0.00169423 0.00259653 0.00127093 
0.03726928 0.04322667 0.00909028 0.00336567 0.00086896 0.00212220 0.00563805 0.00395034 0.02091876 0.00201190 0.00175903 0.02039619 0.00362679 0.00172900 0.00259701 0.00126960 
0.03736339 0.04267892 0.00906084 0.00330356 0.00088296 0.00215418 0.00577785 0.00395003 0.02142204 0.00204824 0.00176989 0.02045128 0.00372062 0.00176844 0.00260267 0.00126850 
0.03752016 0.04211216 0.00902695 0.00323823 0.00089826 0.00218583 0.00591776 0.00394986 0.02193720 0.00208317 0.00178056 0.02048684 0.00382282 0.00181242 0.00261349 0.00126763 
0.03773785 0.04152799 0.00898868 0.00316993 0.00091473 0.00221706 0.00605732 0.00394970 0.02246173 0.00211655 0.00179094 0.02050280 0.00393288 0.00186080 0.00262944 0.00126701 
0.03801430 0.04092806 0.00894613 0.00309895 0.00093224 0.00224778 0.00619601 0.00394944 0.02299310 0.00214826 0.00180096 0.02049923 0.00405028 0.00191339 0.00265045 0.00126663 
0.03834694 0.04031405 0.00889938 0.00302558 0.00095066 0.00227789 0.00633336 0.00394899 0.02352873 0.00217817 0.00181052 0.02047635 0.00417444 0.00196999 0.00267642 0.00126652 
0.03873280 0.03968768 0.00884855 0.00295010 0.00096985 0.00230730 0.00646887 0.00394822 0.02406606 0.00220618 0.00181952 0.02043451 0.00430474 0.00203038 0.00270723 0.00126667 
0.03916855 0.03905071 0.00879375 0.00287282 0.00098968 0.00233590 0.00660203 0.00394705 0.02460251 0.00223218 0.00182788 0.02037421 0.00444057 0.00209431 0.00274274 0.00126709 
0.03965050 0.03840490 0.00873509 0.00279406 0.00101000 0.00236363 0.00673237 0.00394538 0.02513552 0.00225608 0.00183551 0.02029605 0.00458128 0.00216150 0.00278279 0.00126778 
0.04017468 0.03775202 0.00867270 0.00271413 0.00103068 0.00239037 0.00685941 0.00394312 0.02566258 0.00227780 0.00184233 0.02020078 0.00472620 0.00223166 0.00282718 0.00126874 
0.04073681 0.03709386 0.00860674 0.00263336 0.00105159 0.00241606 0.00698267 0.00394018 0.02618118 0.00229727 0.00184826 0.02008925 0.00487463 0.00230448 0.00287572 0.00126998 
0.04133237 0.03643217 0.00853734 0.00255207 0.00107258 0.00244060 0.00710170 0.00393650 0.02668889 0.00231442 0.00185322 0.01996242 0.00502590 0.00237963 0.00292817 0.00127149 
0.04195663 0.03576873 0.00846467 0.00247060 0.00109352 0.00246392 0.00721607 0.00393200 0.02718334 0.00232920 0.00185715 0.01982134 0.00517928 0.00245675 0.00298429 0.00127326 
0.04260471 0.03510524 0.00838891 0.00238927 0.00111428 0.00248594 0.00732535 0.00392663 0.02766220 0.00234159 0.00185997 0.01966716 0.00533406 0.00253548 0.00304381 0.00127530 
0.04327155 0.03444341 0.00831025 0.00230841 0.00113473 0.00250658 0.00742915 0.00392035 0.02812325 0.00235155 0.00186162 0.01950110 0.00548954 0.00261544 0.00310645 0.00127759 
0.04395203 0.03378491 0.00822889 0.00222835 0.00115475 0.00252578 0.00752711 0.00391312 0.02856435 0.00235907 0.00186206 0.01932448 0.00564501 0.00269623 0.00317193 0.00128012 
0.04464097 0.03313133 0.00814506 0.00214942 0.00117421 0.00254348 0.00761886 0.00390490 0.02898345 0.00236415 0.00186125 0.01913864 0.00579974 0.00277747 0.00323992 0.00128288 
0.04533315 0.03248424 0.00805899 0.00207193 0.00119301 0.00255962 0.00770411 0.00389570 0.02937863 0.00236680 0.00185913 0.01894502 0.00595305 0.00285874 0.00331013 0.00128587 
0.04602341 0.03184514 0.00797094 0.00199620 0.00121104 0.00257413 0.00778257 0.00388549 0.02974804 0.00236705 0.00185569 0.01874506 0.00610426 0.00293964 0.00338221 0.00128906 
0.04670663 0.03121546 0.00788116 0.00192255 0.00122819 0.00258699 0.00785398 0.00387430 0.03009000 0.00236493 0.00185090 0.01854026 0.00625268 0.00301974 0.00345584 0.00129244 
0.04737782 0.03059656 0.00778995 0.00185127 0.00124437 0.00259814 0.00791812 0.00386213 0.03040291 0.00236049 0.00184475 0.01833215 0.00639766 0.00309863 0.00353067 0.00129600 
0.04803212 0.02998974 0.00769762 0.00178265 0.00125949 0.00260755 0.00797483 0.00384902 0.03068532 0.00235379 0.00183724 0.01812224 0.00653858 0.00317591 0.00360636 0.00129971 
0.04866486 0.02939619 0.00760447 0.00171698 0.00127348 0.00261519 0.00802394 0.00383501 0.03093593 0.00234491 0.00182838 0.01791209 0.00667482 0.00325117 0.00368257 0.00130356 
0.04927159 0.02881704 0.00751084 0.00165453 0.00128625 0.00262103 0.00806537 0.00382014 0.03115356 0.00233391 0.00181819 0.01770323 0.00680580 0.00332400 0.00375895 0.00130752 
0.04984810 0.02825332 0.00741709 0.00159555 0.00129775 0.00262507 0.00809903 0.00380447 0.03133718 0.00232091 0.00180668 0.01749718 0.00693097 0.00339403 0.00383516 0.00131158 
0.05039049 0.02770598 0.00732358 0.00154030 0.00130792 0.00262730 0.00812489 0.00378807 0.03148589 0.00230599 0.00179390 0.01729544 0.00704982 0.00346088 0.00391085 0.00131570 
0.05089517 0.02717587 0.00723069 0.00148901 0.00131671 0.00262771 0.00814297 0.00377102 0.03159897 0.00228927 0.00177988 0.01709948 0.00716185 0.00352419 0.00398569 0.00131987 
0.05135888 0.02666375 0.00713882 0.00144188 0.00132408 0.00262631 0.00815331 0.00375341 0.03167582 0.00227088 0.00176469 0.01691073 0.00726662 0.00358362 0.00405935 0.00132405 
0.05177875 0.02617029 0.00704836 0.00139913 0.00133001 0.00262312 0.00815599 0.00373531 0.03171600 0.00225093 0.00174839 0.01673060 0.00736372 0.00363885 0.00413152 0.00132823 
0.05215230 0.02569605 0.00695974 0.00136093 0.00133448 0.00261815 0.00815113 0.00371684 0.03171923 0.00222957 0.00173105 0.01656042 0.00745276 0.00368959 0.00420189 0.00133238 
0.05247744 0.02524151 0.00687337 0.00132746 0.00133746 0.00261143 0.00813888 0.00369809 0.03168537 0.00220693 0.00171274 0.01640146 0.00753343 0.00373556 0.00427017 0.00133646 
0.05275253 0.02480705 0.00678970 0.00129886 0.00133896 0.00260300 0.00811943 0.00367918 0.03161444 0.00218316 0.00169356 0.01625495 0.00760543 0.00377654 0.00433608 0.00134046 
0.05297636 0.02439297 0.00670916 0.00127525 0.00133899 0.00259290 0.00809301 0.00366020 0.03150659 0.00215842 0.00167360 0.01612204 0.00766852 0.00381230 0.00439935 0.00134434 
0.05314816 0.02399946 0.00663219 0.00125675 0.00133754 0.00258118 0.00805987 0.00364129 0.03136215 0.00213285 0.00165297 0.01600379 0.00772248 0.00384266 0.00445975 0.00134808 
0.05326763 0.02362664 0.00655922 0.00124345 0.00133465 0.00256790 0.00802028 0.00362254 0.03118156 0.00210662 0.00163176 0.01590121 0.00776717 0.00386748 0.00451704 0.00135165 
0.05333491 0.02327455 0.00649071 0.00123542 0.00133035 0.00255312 0.00797456 0.00360407 0.03096543 0.00207987 0.00161010 0.01581521 0.00780246 0.00388665 0.00457103 0.00135502 
0.05335059 0.02294313 0.00642708 0.00123270 0.00132467 0.00253690 0.00792305 0.00358600 0.03071451 0.00205278 0.00158809 0.01574663 0.00782829 0.00390009 0.00462153 0.00135816 
0.05331572 0.02263227 0.00636876 0.00123532 0.00131764 0.00251933 0.00786609 0.00356845 0.03042967 0.00202549 0.00156587 0.01569619 0.00784462 0.00390778 0.00466839 0.00136106 
0.05323176 0.02234176 0.00631617 0.00124328 0.00130933 0.00250048 0.00780407 0.00355151 0.03011193 0.00199817 0.00154355 0.01566455 0.00785147 0.00390971 0.00471147 0.00136368 
0.05310062 0.02207136 0.00626972 0.00125657 0.00129979 0.00248044 0.00773737 0.00353529 0.02976245 0.00197096 0.00152126 0.01565228 0.00784890 0.00390593 0.00475066 0.00136600 
0.05292461 0.02182073 0.00622979 0.00127515 0.00128908 0.00245930 0.00766641 0.00351989 0.02938251 0.00194402 0.00149912 0.01565983 0.00783699 0.00389653 0.00478588 0.00136799 
0.05270642 0.02158952 0.00619677 0.00129895 0.00127726 0.00243716 0.00759161 0.00350542 0.02897350 0.00191750 0.00147727 0.01568759 0.00781590 0.00388162 0.00481708 0.00136964 
0.05244910 0.02137728 0.00617100 0.00132790 0.00126441 0.00241411 0.00751340 0.00349194 0.02853696 0.00189152 0.00145584 0.01573583 0.00778580 0.00386137 0.00484422 0.00137093 
0.05215607 0.02118355 0.00615281 0.00136188 0.00125060 0.00239027 0.00743221 0.00347956 0.02807451 0.00186624 0.00143493 0.01580474 0.00774690 0.00383600 0.00486730 0.00137182 
0.05183103 0.02100783 0.00614250 0.00140079 0.00123592 0.00236572 0.00734849 0.00346833 0.02758792 0.00184177 0.00141469 0.01589441 0.00769945 0.00380575 0.00488635 0.00137232 
0.05147796 0.02084959 0.00614034 0.00144445 0.00122045 0.00234059 0.00726268 0.00345832 0.02707904 0.00181824 0.00139522 0.01600486 0.00764372 0.00377089 0.00490143 0.00137240 
0.05110112 0.02070825 0.00614658 0.00149272 0.00120426 0.00231499 0.00717521 0.00344959 0.02654984 0.00179576 0.00137664 0.01613599 0.00758004 0.00373177 0.00491260 0.00137204 
0.05070493 0.02058324 0.00616142 0.00154540 0.00118746 0.00228902 0.00708654 0.00344218 0.02600235 0.00177442 0.00135907 0.01628764 0.00750875 0.00368873 0.00491998 0.00137124 
0.05029404 0.02047397 0.00618502 0.00160228 0.00117013 0.00226279 0.00699708 0.00343612 0.02543875 0.00175434 0.00134260 0.01645955 0.00743021 0.00364218 0.00492370 0.00136999 
0.04987321 0.02037983 0.00621753 0.00166315 0.00115237 0.00223643 0.00690725 0.00343145 0.02486124 0.00173558 0.00132734 0.01665139 0.00734482 0.00359254 0.00492392 0.00136829 
0.04944729 0.02030022 0.00625902 0.00172774 0.00113425 0.00221005 0.00681748 0.00342816 0.02427214 0.00171822 0.00131338 0.01686272 0.00725300 0.00354027 0.00492083 0.00136612 
0.04902120 0.02023453 0.00630954 0.00179581 0.00111589 0.00218375 0.00672816 0.00342627 0.02367384 0.00170233 0.00130080 0.01709308 0.00715517 0.00348587 0.00491462 0.00136348 
0.04859987 0.02018219 0.00636910 0.00186707 0.00109736 0.00215765 0.00663967 0.00342577 0.02306878 0.00168796 0.00128966 0.01734188 0.00705179 0.00342984 0.00490553 0.00136038 
0.04818823 0.02014260 0.00643764 0.00194124 0.00107875 0.00213186 0.00655237 0.00342663 0.02245946 0.00167515 0.00128005 0.01760851 0.00694332 0.00337274 0.00489382 0.00135682 
0.04779112 0.02011521 0.00651509 0.00201799 0.00106016 0.00210647 0.00646662 0.00342883 0.02184844 0.00166393 0.00127201 0.01789227 0.00683024 0.00331511 0.00487974 0.00135281 
0.04741327 0.02009948 0.00660130 0.00209702 0.00104168 0.00208161 0.00638273 0.00343233 0.02123832 0.00165432 0.00126560 0.01819239 0.00671303 0.00325754 0.00486359 0.00134835 
0.04705931 0.02009490 0.00669608 0.00217799 0.00102339 0.00205736 0.00630103 0.00343708 0.02063174 0.00164633 0.00126083 0.01850808 0.00659219 0.00320061 0.00484567 0.00134346 
0.04673363 0.02010097 0.00679920 0.00226055 0.00100536 0.00203382 0.00622178 0.00344303 0.02003137 0.00163996 0.00125775 0.01883847 0.00646821 0.00314492 0.00482631 0.00133816 
0.04644046 0.02011725 0.00691038 0.00234436 0.00098769 0.00201109 0.00614526 0.00345010 0.01943988 0.00163519 0.00125637 0.01918265 0.00634158 0.00309109 0.00480582 0.00133245 
0.04618373 0.02014330 0.00702929 0.00242906 0.00097045 0.00198925 0.00607169 0.00345822 0.01885998 0.00163200 0.00125668 0.01953968 0.00621280 0.00303972 0.00478457 0.00132636 
0.04596711 0.02017876 0.00715555 0.00251427 0.00095370 0.00196838 0.00600128 0.00346730 0.01829436 0.00163036 0.00125869 0.01990858 0.00608235 0.00299142 0.00476288 0.00131991 
0.04579395 0.02022325 0.00728875 0.00259963 0.00093753 0.00194856 0.00593424 0.00347727 0.01774570 0.00163023 0.00126237 0.02028832 0.00595072 0.00294678 0.00474113 0.00131313 
0.04566726 0.02027648 0.00742842 0.00268476 0.00092198 0.00192986 0.00587071 0.00348802 0.01721669 0.00163155 0.00126769 0.02067786 0.00581838 0.00290641 0.00471968 0.00130605 
0.04558968 0.02033815 0.00757405 0.00276930 0.00090714 0.00191235 0.00581083 0.00349945 0.01670996 0.00163427 0.00127463 0.02107613 0.00568579 0.00287089 0.00469887 0.00129868 
0.04556343 0.02040803 0.00772510 0.00285286 0.00089304 0.00189608 0.00575472 0.00351145 0.01622811 0.00163832 0.00128312 0.02148206 0.00555341 0.00284077 0.00467908 0.00129108 
0.04559037 0.02048592 0.00788100 0.00293507 0.00087975 0.00188110 0.00570247 0.00352393 0.01577371 0.00164363 0.00129311 0.02189455 0.00542166 0.00281660 0.00466067 0.00128327 
0.04567188 0.02057165 0.00804112 0.00301556 0.00086731 0.00186746 0.00565413 0.00353677 0.01534925 0.00165012 0.00130452 0.02231249 0.00529096 0.00279890 0.00464398 0.00127528 
0.04580895 0.02066507 0.00820483 0.00309398 0.00085575 0.00185520 0.00560974 0.00354986 0.01495715 0.00165770 0.00131729 0.02273478 0.00516172 0.00278815 0.00462936 0.00126716 
0.04600209 0.02076609 0.00837145 0.00316996 0.00084513 0.00184434 0.00556933 0.00356308 0.01459976 0.00166628 0.00133133 0.02316031 0.00503432 0.00278480 0.00461714 0.00125895 
0.04625135 0.02087462 0.00854029 0.00324316 0.00083548 0.00183492 0.00553288 0.00357633 0.01427933 0.00167576 0.00134654 0.02358799 0.00490911 0.00278928 0.00460765 0.00125068 
0.04655636 0.02099062 0.00871064 0.00331324 0.00082681 0.00182694 0.00550038 0.00358949 0.01399800 0.00168605 0.00136282 0.02401672 0.00478643 0.00280197 0.00460121 0.00124241 
0.04691625 0.02111407 0.00888177 0.00337988 0.00081915 0.00182042 0.00547178 0.00360246 0.01375781 0.00169706 0.00138006 0.02444544 0.00466660 0.00282319 0.00459808 0.00123416 
0.04732974 0.02124495 0.00905294 0.00344276 0.00081254 0.00181535 0.00544700 0.00361514 0.01356064 0.00170866 0.00139815 0.02487308 0.00454991 0.00285326 0.00459856 0.00122599 
0.04779508 0.02138329 0.00922342 0.00350161 0.00080697 0.00181175 0.00542598 0.00362741 0.01340827 0.00172077 0.00141697 0.02529863 0.00443664 0.00289239 0.00460290 0.00121794 
0.04831011 0.02152910 0.00939247 0.00355613 0.00080245 0.00180958 0.00540861 0.00363918 0.01330231 0.00173328 0.00143640 0.02572108 0.00432702 0.00294081 0.00461132 0.00121005 
0.04887226 0.02168243 0.00955935 0.00360607 0.00079901 0.00180884 0.00539478 0.00365038 0.01324421 0.00174609 0.00145631 0.02613946 0.00422127 0.00299863 0.00462404 0.00120237 
0.04947854 0.02184332 0.00972333 0.00365119 0.00079663 0.00180951 0.00538437 0.00366090 0.01323524 0.00175909 0.00147658 0.02655282 0.00411960 0.00306595 0.00464124 0.00119495 
0.05012563 0.02201182 0.00988371 0.00369128 0.00079532 0.00181155 0.00537723 0.00367067 0.01327651 0.00177219 0.00149706 0.02696028 0.00402218 0.00314281 0.00466307 0.00118782 
0.05080982 0.02218796 0.01003979 0.00372615 0.00079507 0.00181492 0.00537322 0.00367962 0.01336892 0.00178529 0.00151764 0.02736098 0.00392915 0.00322918 0.00468966 0.00118103 
0.05152711 0.02237180 0.01019092 0.00375562 0.00079587 0.00181960 0.00537217 0.00368769 0.01351318 0.00179830 0.00153817 0.02775410 0.00384065 0.00332498 0.00472112 0.00117462 
0.05227319 0.02256336 0.01033646 0.00377956 0.00079771 0.00182552 0.00537393 0.00369483 0.01370978 0.00181112 0.00155852 0.02813889 0.00375677 0.00343006 0.00475751 0.00116863 
0.05304352 0.02276267 0.01047581 0.00379785 0.00080058 0.00183264 0.00537832 0.00370098 0.01395901 0.00182368 0.00157858 0.02851462 0.00367761 0.00354424 0.00479889 0.00116310 
0.05383331 0.02296974 0.01060841 0.00381039 0.00080446 0.00184090 0.00538516 0.00370612 0.01426092 0.00183589 0.00159820 0.02888065 0.00360323 0.00366726 0.00484525 0.00115807 
0.05463759 0.02318454 0.01073377 0.00381713 0.00080933 0.00185025 0.00539427 0.00371021 0.01461535 0.00184768 0.00161727 0.02923636 0.00353366 0.00379882 0.00489658 0.00115357 
0.05545125 0.02340704 0.01085141 0.00381803 0.00081517 0.00186063 0.00540547 0.00371323 0.01502188 0.00185898 0.00163566 0.02958120 0.00346894 0.00393854 0.00495284 0.00114963 
0.05626906 0.02363720 0.01096093 0.00381308 0.00082196 0.00187195 0.00541857 0.00371517 0.01547988 0.00186973 0.00165325 0.02991470 0.00340907 0.00408602 0.00501395 0.00114628 
0.05708571 0.02387491 0.01106199 0.00380231 0.00082967 0.00188416 0.00543339 0.00371604 0.01598845 0.00187988 0.00166995 0.03023643 0.00335406 0.00424078 0.00507979 0.00114355 
0.05789588 0.02412007 0.01115429 0.00378578 0.00083827 0.00189719 0.00544973 0.00371584 0.01654648 0.00188936 0.00168564 0.03054601 0.00330387 0.00440232 0.00515024 0.00114146 
0.05869423 0.02437253 0.01123761 0.00376357 0.00084774 0.00191096 0.00546743 0.00371458 0.01715259 0.00189815 0.00170023 0.03084315 0.00325848 0.00457006 0.00522513 0.00114003 
0.05947548 0.02463211 0.01131181 0.00373578 0.00085805 0.00192540 0.00548628 0.00371230 0.01780516 0.00190621 0.00171362 0.03112761 0.00321784 0.00474339 0.00530427 0.00113928 
0.06023444 0.02489859 0.01137680 0.00370256 0.00086916 0.00194043 0.00550613 0.00370903 0.01850234 0.00191350 0.00172573 0.03139923 0.00318190 0.00492168 0.00538744 0.00113922 
0.06096604 0.02517173 0.01143256 0.00366408 0.00088105 0.00195597 0.00552680 0.00370480 0.01924204 0.00192001 0.00173649 0.03165788 0.00315060 0.00510424 0.00547441 0.00113987 
0.06166536 0.02545124 0.01147916 0.00362054 0.00089368 0.00197196 0.00554812 0.00369967 0.02002193 0.00192572 0.00174584 0.03190355 0.00312387 0.00529034 0.00556491 0.00114122 
0.06232769 0.02573680 0.01151674 0.00357215 0.00090703 0.00198831 0.00556994 0.00369369 0.02083946 0.00193062 0.00175370 0.03213623 0.00310165 0.00547925 0.00565866 0.00114328 
0.06294855 0.02602804 0.01154551 0.00351917 0.00092106 0.00200496 0.00559209 0.00368693 0.02169186 0.00193472 0.00176005 0.03235604 0.00308386 0.00567019 0.00575536 0.00114605 
0.06352372 0.02632457 0.01156575 0.00346186 0.00093574 0.00202182 0.00561443 0.00367944 0.02257615 0.00193802 0.00176483 0.03256311 0.00307042 0.00586238 0.00585469 0.00114953 
0.06404927 0.02662594 0.01157784 0.00340054 0.00095104 0.00203883 0.00563683 0.00367131 0.02348915 0.00194053 0.00176803 0.03275766 0.00306126 0.00605500 0.00595633 0.00115369 
0.06452160 0.02693169 0.01158221 0.00333552 0.00096692 0.00205591 0.00565915 0.00366261 0.02442750 0.00194226 0.00176961 0.03293998 0.00305631 0.00624724 0.00605992 0.00115854 
0.06493745 0.02724130 0.01157936 0.00326713 0.00098336 0.00207300 0.00568128 0.00365342 0.02538764 0.00194325 0.00176958 0.03311040 0.00305549 0.00643827 0.00616511 0.00116405 
0.06529395 0.02755423 0.01156987 0.00319574 0.00100031 0.00209004 0.00570309 0.00364383 0.02636587 0.00194352 0.00176793 0.03326931 0.00305874 0.00662727 0.00627154 0.00117020 
0.06558858 0.02786990 0.01155440 0.00312172 0.00101776 0.00210696 0.00572450 0.00363393 0.02735835 0.00194311 0.00176467 0.03341716 0.00306600 0.00681342 0.00637886 0.00117697 
0.06581927 0.02818770 0.01153363 0.00304546 0.00103566 0.00212371 0.00574539 0.00362380 0.02836109 0.00194204 0.00175982 0.03355447 0.00307721 0.00699591 0.00648667 0.00118433 
0.06598434 0.02850699 0.01150835 0.00296738 0.00105398 0.00214023 0.00576569 0.00361353 0.02937001 0.00194037 0.00175342 0.03368179 0.00309232 0.00717392 0.00659463 0.00119224 
0.06608254 0.02882709 0.01147938 0.00288787 0.00107270 0.00215647 0.00578532 0.00360321 0.03038091 0.00193814 0.00174549 0.03379972 0.00311131 0.00734669 0.00670237 0.00120068 
0.06611309 0.02914731 0.01144759 0.00280737 0.00109177 0.00217238 0.00580422 0.00359295 0.03138955 0.00193539 0.00173609 0.03390891 0.00313413 0.00751345 0.00680952 0.00120960 
0.06607560 0.02946693 0.01141389 0.00272631 0.00111118 0.00218793 0.00582233 0.00358282 0.03239161 0.00193218 0.00172528 0.03401005 0.00316077 0.00767347 0.00691573 0.00121896 
0.06597015 0.02978519 0.01137924 0.00264512 0.00113088 0.00220307 0.00583960 0.00357292 0.03338275 0.00192857 0.00171310 0.03410387 0.00319121 0.00782605 0.00702066 0.00122873 
0.06579727 0.03010132 0.01134464 0.00256423 0.00115085 0.00221778 0.00585599 0.00356333 0.03435863 0.00192460 0.00169965 0.03419114 0.00322547 0.00797052 0.00712399 0.00123885 
0.06555789 0.03041455 0.01131109 0.00248409 0.00117105 0.00223202 0.00587148 0.00355414 0.03531489 0.00192033 0.00168499 0.03427265 0.00326355 0.00810626 0.00722540 0.00124927 
0.06525337 0.03072407 0.01127964 0.00240512 0.00119145 0.00224577 0.00588604 0.00354543 0.03624725 0.00191583 0.00166920 0.03434920 0.00330548 0.00823268 0.00732459 0.00125995 
0.06488549 0.03102906 0.01125134 0.00232775 0.00121202 0.00225901 0.00589967 0.00353729 0.03715144 0.00191114 0.00165239 0.03442165 0.00335129 0.00834924 0.00742127 0.00127084 
0.06445643 0.03132869 0.01122722 0.00225240 0.00123273 0.00227172 0.00591236 0.00352978 0.03802331 0.00190633 0.00163464 0.03449084 0.00340103 0.00845546 0.00751520 0.00128188 
0.06396870 0.03162212 0.01120835 0.00217948 0.00125354 0.00228391 0.00592412 0.00352299 0.03885878 0.00190144 0.00161606 0.03455765 0.00345475 0.00855090 0.00760613 0.00129302 
0.06342522 0.03190851 0.01119575 0.00210938 0.00127441 0.00229557 0.00593496 0.00351697 0.03965392 0.00189655 0.00159675 0.03462293 0.00351253 0.00863517 0.00769385 0.00130421 
0.06282921 0.03218702 0.01119046 0.00204248 0.00129533 0.00230668 0.00594490 0.00351178 0.04040492 0.00189169 0.00157681 0.03468757 0.00357444 0.00870796 0.00777818 0.00131539 
0.06218418 0.03245679 0.01119346 0.00197914 0.00131625 0.00231727 0.00595397 0.00350750 0.04110817 0.00188693 0.00155637 0.03475244 0.00364057 0.00876899 0.00785894 0.00132651 
0.06149395 0.03271697 0.01120571 0.00191971 0.00133713 0.00232734 0.00596221 0.00350416 0.04176022 0.00188231 0.00153552 0.03481839 0.00371102 0.00881806 0.00793599 0.00133752 
0.06076256 0.03296672 0.01122813 0.00186451 0.00135794 0.00233691 0.00596966 0.00350182 0.04235784 0.00187788 0.00151440 0.03488627 0.00378590 0.00885502 0.00800924 0.00134836 
0.05999427 0.03320520 0.01126159 0.00181384 0.00137865 0.00234598 0.00597636 0.00350052 0.04289802 0.00187369 0.00149310 0.03495689 0.00386531 0.00887977 0.00807859 0.00135898 
0.05919353 0.03343158 0.01130688 0.00176797 0.00139921 0.00235459 0.00598237 0.00350030 0.04337802 0.00186979 0.00147175 0.03503108 0.00394938 0.00889229 0.00814399 0.00136933 
0.05836493 0.03364503 0.01136477 0.00172714 0.00141960 0.00236276 0.00598774 0.00350118 0.04379533 0.00186620 0.00145046 0.03510958 0.00403823 0.00889261 0.00820542 0.00137937 
0.05751318 0.03384476 0.01143591 0.00169157 0.00143977 0.00237051 0.00599254 0.00350319 0.04414774 0.00186296 0.00142934 0.03519314 0.00413199 0.00888082 0.00826286 0.00138904 
0.05664305 0.03402997 0.01152091 0.00166146 0.00145968 0.00237789 0.00599684 0.00350635 0.04443331 0.00186012 0.00140850 0.03528244 0.00423079 0.00885707 0.00831635 0.00139830 
0.05575938 0.03419990 0.01162027 0.00163695 0.00147930 0.00238492 0.00600070 0.00351068 0.04465042 0.00185770 0.00138805 0.03537814 0.00433477 0.00882157 0.00836593 0.00140712 
0.05486700 0.03435379 0.01173442 0.00161817 0.00149859 0.00239165 0.00600420 0.00351618 0.04479776 0.00185571 0.00136809 0.03548083 0.00444406 0.00877457 0.00841168 0.00141545 
0.05397072 0.03449092 0.01186368 0.00160520 0.00151750 0.00239810 0.00600741 0.00352286 0.04487434 0.00185420 0.00134872 0.03559106 0.00455879 0.00871640 0.00845370 0.00142325 
0.05307527 0.03461060 0.01200827 0.00159812 0.00153600 0.00240433 0.00601042 0.00353071 0.04487952 0.00185316 0.00133004 0.03570930 0.00467909 0.00864741 0.00849211 0.00143050 
0.05218532 0.03471217 0.01216832 0.00159693 0.00155405 0.00241038 0.00601329 0.00353973 0.04481296 0.00185262 0.00131214 0.03583599 0.00480509 0.00856802 0.00852705 0.00143716 
0.05130537 0.03479498 0.01234385 0.00160163 0.00157161 0.00241628 0.00601612 0.00354991 0.04467468 0.00185259 0.00129510 0.03597147 0.00493691 0.00847869 0.00855868 0.00144320 
0.05043981 0.03485844 0.01253475 0.00161217 0.00158863 0.00242210 0.00601897 0.00356124 0.04446505 0.00185307 0.00127899 0.03611604 0.00507465 0.00837991 0.00858718 0.00144862 
0.04959279 0.03490201 0.01274083 0.00162847 0.00160508 0.00242786 0.00602193 0.00357368 0.04418476 0.00185406 0.00126390 0.03626990 0.00521843 0.00827222 0.00861275 0.00145338 
0.04876827 0.03492517 0.01296176 0.00165041 0.00162092 0.00243362 0.00602508 0.00358723 0.04383485 0.00185557 0.00124987 0.03643320 0.00536834 0.00815620 0.00863558 0.00145747 
0.04796998 0.03492745 0.01319712 0.00167784 0.00163611 0.00243942 0.00602849 0.00360184 0.04341669 0.00185758 0.00123698 0.03660601 0.00552445 0.00803244 0.00865590 0.00146089 
0.04720136 0.03490843 0.01344637 0.00171059 0.00165062 0.00244530 0.00603223 0.00361748 0.04293199 0.00186009 0.00122527 0.03678830 0.00568683 0.00790158 0.00867393 0.00146362 
0.04646558 0.03486777 0.01370883 0.00174844 0.00166440 0.00245130 0.00603639 0.00363413 0.04238276 0.00186308 0.00121477 0.03698000 0.00585554 0.00776428 0.00868990 0.00146566 
0.04576548 0.03480514 0.01398377 0.00179114 0.00167742 0.00245748 0.00604101 0.00365174 0.04177132 0.00186653 0.00120553 0.03718093 0.00603060 0.00762120 0.00870405 0.00146702 
0.04510359 0.03472030 0.01427029 0.00183842 0.00168965 0.00246386 0.00604618 0.00367026 0.04110031 0.00187043 0.00119756 0.03739084 0.00621204 0.00747303 0.00871661 0.00146769 
0.04448212 0.03461308 0.01456743 0.00188998 0.00170105 0.00247048 0.00605194 0.00368966 0.04037264 0.00187475 0.00119089 0.03760941 0.00639983 0.00732047 0.00872782 0.00146769 
0.04390290 0.03448335 0.01487412 0.00194548 0.00171160 0.00247738 0.00605835 0.00370988 0.03959147 0.00187947 0.00118551 0.03783623 0.00659396 0.00716423 0.00873793 0.00146704 
0.04336742 0.03433109 0.01518918 0.00200458 0.00172126 0.00248458 0.00606546 0.00373087 0.03876025 0.00188455 0.00118143 0.03807085 0.00679438 0.00700502 0.00874714 0.00146573 
0.04287680 0.03415630 0.01551136 0.00206690 0.00173001 0.00249212 0.00607331 0.00375258 0.03788264 0.00188996 0.00117864 0.03831270 0.00700100 0.00684354 0.00875569 0.00146380 
0.04243180 0.03395912 0.01583931 0.00213204 0.00173782 0.00250001 0.00608193 0.00377495 0.03696250 0.00189567 0.00117712 0.03856117 0.00721372 0.00668049 0.00876378 0.00146127 
0.04203281 0.03373972 0.01617164 0.00219958 0.00174467 0.00250828 0.00609135 0.00379793 0.03600393 0.00190164 0.00117684 0.03881558 0.00743242 0.00651658 0.00877162 0.00145817 
0.04167986 0.03349839 0.01650684 0.00226910 0.00175055 0.00251693 0.00610160 0.00382145 0.03501116 0.00190783 0.00117777 0.03907520 0.00765693 0.00635249 0.00877938 0.00145451 
0.04137260 0.03323549 0.01684339 0.00234015 0.00175542 0.00252599 0.00611267 0.00384545 0.03398858 0.00191419 0.00117987 0.03933922 0.00788706 0.00618888 0.00878725 0.00145034 
0.04111037 0.03295147 0.01717968 0.00241227 0.00175929 0.00253545 0.00612459 0.00386987 0.03294071 0.00192068 0.00118308 0.03960680 0.00812259 0.00602639 0.00879536 0.00144569 
0.04089212 0.03264688 0.01751407 0.00248500 0.00176214 0.00254531 0.00613733 0.00389464 0.03187217 0.00192725 0.00118734 0.03987704 0.00836328 0.00586567 0.00880386 0.00144059 
0.04071651 0.03232238 0.01784491 0.00255787 0.00176395 0.00255557 0.00615089 0.00391969 0.03078766 0.00193386 0.00119260 0.04014901 0.00860883 0.00570730 0.00881286 0.00143508 
0.04058187 0.03197870 0.01817050 0.00263041 0.00176474 0.00256621 0.00616524 0.00394497 0.02969192 0.00194045 0.00119877 0.04042174 0.00885893 0.00555186 0.00882245 0.00142920 
0.04048624 0.03161669 0.01848912 0.00270214 0.00176449 0.00257723 0.00618035 0.00397039 0.02858972 0.00194697 0.00120579 0.04069425 0.00911323 0.00539990 0.00883271 0.00142300 
0.04042738 0.03123731 0.01879907 0.00277260 0.00176321 0.00258859 0.00619618 0.00399588 0.02748583 0.00195338 0.00121357 0.04096550 0.00937135 0.00525192 0.00884367 0.00141651 
0.04040278 0.03084160 0.01909865 0.00284131 0.00176091 0.00260028 0.00621267 0.00402139 0.02638501 0.00195961 0.00122203 0.04123449 0.00963286 0.00510842 0.00885536 0.00140977 
0.04040973 0.03043073 0.01938616 0.00290782 0.00175759 0.00261225 0.00622977 0.00404682 0.02529195 0.00196562 0.00123106 0.04150017 0.00989732 0.00496983 0.00886779 0.00140284 
0.04044527 0.03000597 0.01965994 0.00297169 0.00175326 0.00262446 0.00624740 0.00407211 0.02421126 0.00197135 0.00124057 0.04176152 0.01016424 0.00483655 0.00888092 0.00139575 
0.04050629 0.02956867 0.01991838 0.00303249 0.00174795 0.00263688 0.00626549 0.00409719 0.02314749 0.00197675 0.00125047 0.04201751 0.01043310 0.00470896 0.00889471 0.00138855 
0.04058951 0.02912033 0.02015990 0.00308978 0.00174168 0.00264944 0.00628394 0.00412198 0.02210501 0.00198175 0.00126065 0.04226714 0.01070336 0.00458738 0.00890909 0.00138128 
0.04069151 0.02866251 0.02038297 0.00314319 0.00173446 0.00266210 0.00630266 0.00414641 0.02108810 0.00198632 0.00127100 0.04250943 0.01097444 0.00447211 0.00892396 0.00137399 
0.04080878 0.02819693 0.02058614 0.00319232 0.00172632 0.00267480 0.00632155 0.00417040 0.02010084 0.00199039 0.00128142 0.04274342 0.01124572 0.00436340 0.00893920 0.00136672 
0.04093773 0.02772534 0.02076802 0.00323683 0.00171730 0.00268745 0.00634048 0.00419389 0.01914714 0.00199392 0.00129181 0.04296822 0.01151657 0.00426145 0.00895466 0.00135950 
0.04107473 0.02724966 0.02092733 0.00327638 0.00170743 0.00270001 0.00635934 0.00421679 0.01823070 0.00199684 0.00130205 0.04318294 0.01178632 0.00416643 0.00897019 0.00135239 
0.04121614 0.02677186 0.02106286 0.00331068 0.00169674 0.00271238 0.00637800 0.00423904 0.01735498 0.00199912 0.00131203 0.04338677 0.01205428 0.00407848 0.00898560 0.00134541 
0.04135830 0.02629402 0.02117349 0.00333945 0.00168528 0.00272449 0.00639633 0.00426056 0.01652322 0.00200071 0.00132167 0.04357896 0.01231975 0.00399769 0.00900069 0.00133860 
0.04149763 0.02581830 0.02125823 0.00336245 0.00167309 0.00273627 0.00641418 0.00428129 0.01573841 0.00200155 0.00133083 0.04375880 0.01258198 0.00392411 0.00901523 0.00133200 
0.04163060 0.02534696 0.02131618 0.00337947 0.00166021 0.00274761 0.00643142 0.00430116 0.01500324 0.00200162 0.00133944 0.04392567 0.01284023 0.00385774 0.00902900 0.00132565 
0.04175376 0.02488232 0.02134659 0.00339035 0.00164669 0.00275843 0.00644790 0.00432010 0.01432015 0.00200085 0.00134739 0.04407901 0.01309372 0.00379858 0.00904174 0.00131957 
0.04186381 0.02442678 0.02134879 0.00339493 0.00163259 0.00276865 0.00646346 0.00433805 0.01369128 0.00199923 0.00135459 0.04421834 0.01334169 0.00374657 0.00905319 0.00131378 
0.04195758 0.02398281 0.02132226 0.00339311 0.00161794 0.00277816 0.00647795 0.00435495 0.01311846 0.00199670 0.00136095 0.04434326 0.01358335 0.00370161 0.00906308 0.00130832 
0.04203208 0.02355292 0.02126662 0.00338483 0.00160282 0.00278687 0.00649122 0.00437075 0.01260323 0.00199325 0.00136639 0.04445346 0.01381789 0.00366357 0.00907112 0.00130321 
0.04208448 0.02313970 0.02118159 0.00337006 0.00158727 0.00279469 0.00650312 0.00438538 0.01214680 0.00198884 0.00137083 0.04454869 0.01404453 0.00363232 0.00907703 0.00129847 
0.04211221 0.02274574 0.02106707 0.00334881 0.00157136 0.00280153 0.00651349 0.00439881 0.01175009 0.00198346 0.00137419 0.04462883 0.01426247 0.00360765 0.00908053 0.00129411 
0.04211289 0.02237371 0.02092306 0.00332113 0.00155514 0.00280728 0.00652218 0.00441098 0.01141369 0.00197707 0.00137642 0.04469381 0.01447092 0.00358937 0.00908130 0.00129015 
0.04208442 0.02202625 0.02074971 0.00328709 0.00153866 0.00281185 0.00652906 0.00442185 0.01113787 0.00196967 0.00137746 0.04474366 0.01466912 0.00357724 0.00907908 0.00128660 
0.04202495 0.02170607 0.02054730 0.00324682 0.00152201 0.00281515 0.00653396 0.00443139 0.01092261 0.00196126 0.00137725 0.04477851 0.01485628 0.00357100 0.00907356 0.00128347 
0.04193291 0.02141582 0.02031625 0.00320048 0.00150522 0.00281710 0.00653677 0.00443956 0.01076756 0.00195181 0.00137577 0.04479855 0.01503167 0.00357038 0.00906446 0.00128076 
0.04180701 0.02115819 0.02005711 0.00314827 0.00148837 0.00281760 0.00653735 0.00444635 0.01067208 0.00194135 0.00137298 0.04480408 0.01519455 0.00357507 0.00905152 0.00127848 
0.04164627 0.02093582 0.01977056 0.00309041 0.00147152 0.00281657 0.00653558 0.00445172 0.01063522 0.00192986 0.00136886 0.04479549 0.01534425 0.00358476 0.00903446 0.00127663 
0.04145003 0.02075133 0.01945742 0.00302718 0.00145473 0.00281393 0.00653135 0.00445567 0.01065578 0.00191737 0.00136339 0.04477321 0.01548007 0.00359912 0.00901303 0.00127519 
0.04121790 0.02060728 0.01911860 0.00295886 0.00143805 0.00280960 0.00652456 0.00445819 0.01073225 0.00190390 0.00135658 0.04473779 0.01560140 0.00361783 0.00898700 0.00127418 
0.04094985 0.02050618 0.01875515 0.00288579 0.00142156 0.00280353 0.00651513 0.00445928 0.01086286 0.00188946 0.00134843 0.04468983 0.01570764 0.00364051 0.00895614 0.00127357 
0.04064613 0.02045048 0.01836824 0.00280833 0.00140530 0.00279564 0.00650298 0.00445894 0.01104561 0.00187409 0.00133896 0.04463002 0.01579825 0.00366682 0.00892026 0.00127336 
0.04030732 0.02044252 0.01795912 0.00272686 0.00138935 0.00278587 0.00648805 0.00445718 0.01127825 0.00185782 0.00132820 0.04455908 0.01587271 0.00369640 0.00887918 0.00127353 
0.03993431 0.02048456 0.01752916 0.00264181 0.00137374 0.00277418 0.00647029 0.00445402 0.01155832 0.00184071 0.00131619 0.04447783 0.01593059 0.00372888 0.00883274 0.00127407 
0.03952828 0.02057875 0.01707981 0.00255359 0.00135855 0.00276053 0.00644969 0.00444949 0.01188315 0.00182279 0.00130297 0.04438711 0.01597148 0.00376389 0.00878081 0.00127497 
0.03909072 0.02072712 0.01661262 0.00246268 0.00134382 0.00274487 0.00642622 0.00444362 0.01224988 0.00180413 0.00128860 0.04428783 0.01599504 0.00380106 0.00872329 0.00127619 
0.03862338 0.02093153 0.01612919 0.00236954 0.00132960 0.00272719 0.00639990 0.00443644 0.01265551 0.00178478 0.00127316 0.04418095 0.01600101 0.00384004 0.00866011 0.00127772 
0.03812832 0.02119374 0.01563121 0.00227468 0.00131594 0.00270746 0.00637075 0.00442800 0.01309685 0.00176482 0.00125672 0.04406743 0.01598918 0.00388046 0.00859122 0.00127954 
0.03760782 0.02151530 0.01512043 0.00217860 0.00130290 0.00268568 0.00633881 0.00441835 0.01357062 0.00174431 0.00123937 0.04394831 0.01595940 0.00392198 0.00851662 0.00128161 
0.03706443 0.02189763 0.01459863 0.00208180 0.00129052 0.00266185 0.00630416 0.00440755 0.01407343 0.00172334 0.00122121 0.04382462 0.01591160 0.00396424 0.00843632 0.00128393 
0.03650091 0.02234193 0.01406767 0.00198483 0.00127883 0.00263596 0.00626688 0.00439565 0.01460177 0.00170200 0.00120234 0.04369743 0.01584577 0.00400692 0.00835038 0.00128645 
0.03592024 0.02284922 0.01352939 0.00188820 0.00126788 0.00260806 0.00622707 0.00438271 0.01515211 0.00168036 0.00118288 0.04356780 0.01576200 0.00404969 0.00825890 0.00128915 
0.03532557 0.02342031 0.01298570 0.00179246 0.00125770 0.00257816 0.00618487 0.00436882 0.01572084 0.00165853 0.00116295 0.04343683 0.01566043 0.00409226 0.00816199 0.00129200 
0.03472022 0.02405577 0.01243851 0.00169812 0.00124834 0.00254630 0.00614043 0.00435404 0.01630435 0.00163661 0.00114268 0.04330559 0.01554129 0.00413431 0.00805982 0.00129498 
0.03410765 0.02475598 0.01188972 0.00160572 0.00123982 0.00251253 0.00609391 0.00433846 0.01689901 0.00161470 0.00112219 0.04317518 0.01540486 0.00417559 0.00795259 0.00129805 
0.03349144 0.02552104 0.01134125 0.00151577 0.00123216 0.00247690 0.00604551 0.00432215 0.01750121 0.00159291 0.00110165 0.04304666 0.01525154 0.00421583 0.00784053 0.00130119 
0.03287525 0.02635085 0.01079499 0.00142879 0.00122540 0.00243950 0.00599543 0.00430519 0.01810740 0.00157135 0.00108119 0.04292110 0.01508176 0.00425479 0.00772392 0.00130436 
0.03226283 0.02724501 0.01025282 0.00134527 0.00121956 0.00240038 0.00594391 0.00428767 0.01871405 0.00155013 0.00106095 0.04279954 0.01489606 0.00429225 0.00760305 0.00130754 
0.03165795 0.02820290 0.00971657 0.00126570 0.00121466 0.00235965 0.00589120 0.00426968 0.01931773 0.00152937 0.00104111 0.04268301 0.01469503 0.00432800 0.00747827 0.00131070 
0.03106439 0.02922362 0.00918806 0.00119053 0.00121071 0.00231739 0.00583757 0.00425131 0.01991510 0.00150918 0.00102181 0.04257251 0.01447935 0.00436188 0.00734996 0.00131382 
0.03048592 0.03030600 0.00866904 0.00112020 0.00120773 0.00227371 0.00578330 0.00423263 0.02050293 0.00148969 0.00100321 0.04246901 0.01424974 0.00439372 0.00721851 0.00131685 
0.02992629 0.03144860 0.00816123 0.00105514 0.00120573 0.00222872 0.00572870 0.00421374 0.02107812 0.00147101 0.00098547 0.04237345 0.01400702 0.00442339 0.00708438 0.00131979 
0.02938916 0.03264972 0.00766625 0.00099573 0.00120472 0.00218254 0.00567408 0.00419472 0.02163770 0.00145326 0.00096875 0.04228674 0.01375205 0.00445078 0.00694802 0.00132261 
0.02887810 0.03390737 0.00718570 0.00094233 0.00120470 0.00213530 0.00561977 0.00417564 0.02217889 0.00143656 0.00095320 0.04220976 0.01348575 0.00447580 0.00680994 0.00132527 
0.02839657 0.03521930 0.00672107 0.00089528 0.00120568 0.00208713 0.00556611 0.00415660 0.02269905 0.00142102 0.00093899 0.04214334 0.01320911 0.00449838 0.00667066 0.00132777 
0.02794787 0.03658299 0.00627378 0.00085488 0.00120765 0.00203818 0.00551346 0.00413766 0.02319573 0.00140676 0.00092627 0.04208829 0.01292316 0.00451850 0.00653073 0.00133007 
0.02753514 0.03799564 0.00584517 0.00082138 0.00121062 0.00198858 0.00546217 0.00411889 0.02366668 0.00139388 0.00091518 0.04204538 0.01262897 0.00453612 0.00639070 0.00133217 
0.02716133 0.03945419 0.00543649 0.00079502 0.00121458 0.00193849 0.00541261 0.00410037 0.02410986 0.00138250 0.00090587 0.04201532 0.01232766 0.00455126 0.00625118 0.00133404 
0.02682917 0.04095535 0.00504888 0.00077598 0.00121951 0.00188807 0.00536516 0.00408215 0.02452343 0.00137272 0.00089847 0.04199882 0.01202038 0.00456395 0.00611276 0.00133567 
0.02654116 0.04249554 0.00468340 0.00076442 0.00122542 0.00183747 0.00532018 0.00406428 0.02490578 0.00136462 0.00089311 0.04199652 0.01170832 0.00457424 0.00597606 0.00133704 
0.02629953 0.04407098 0.00434099 0.00076043 0.00123229 0.00178685 0.00527805 0.00404682 0.02525552 0.00135831 0.00088993 0.04200905 0.01139266 0.00458221 0.00584171 0.00133815 
0.02610625 0.04567763 0.00402250 0.00076410 0.00124010 0.00173639 0.00523914 0.00402982 0.02557149 0.00135387 0.00088902 0.04203699 0.01107465 0.00458796 0.00571033 0.00133898 
0.02596299 0.04731124 0.00372867 0.00077545 0.00124885 0.00168624 0.00520382 0.00401330 0.02585276 0.00135137 0.00089049 0.04208089 0.01075549 0.00459160 0.00558257 0.00133953 
0.02587113 0.04896736 0.00346012 0.00079445 0.00125850 0.00163658 0.00517244 0.00399731 0.02609864 0.00135089 0.00089444 0.04214127 0.01043644 0.00459327 0.00545906 0.00133979 
0.02583171 0.05064136 0.00321737 0.00082106 0.00126905 0.00158756 0.00514536 0.00398185 0.02630867 0.00135247 0.00090094 0.04221862 0.01011871 0.00459314 0.00534043 0.00133975 
0.02584544 0.05232840 0.00300084 0.00085517 0.00128046 0.00153936 0.00512292 0.00396696 0.02648262 0.00135619 0.00091007 0.04231340 0.00980354 0.00459139 0.00522730 0.00133943 
0.02591273 0.05402351 0.00281080 0.00089664 0.00129272 0.00149214 0.00510543 0.00395263 0.02662049 0.00136207 0.00092188 0.04242605 0.00949212 0.00458821 0.00512030 0.00133881 
0.02603359 0.05572156 0.00264747 0.00094529 0.00130581 0.00144606 0.00509322 0.00393888 0.02672251 0.00137015 0.00093642 0.04255698 0.00918565 0.00458380 0.00502003 0.00133789 
0.02620772 0.05741732 0.00251090 0.00100089 0.00131969 0.00140128 0.00508656 0.00392569 0.02678913 0.00138046 0.00095371 0.04270658 0.00888528 0.00457841 0.00492705 0.00133669 
0.02643447 0.05910543 0.00240107 0.00106317 0.00133433 0.00135795 0.00508574 0.00391306 0.02682102 0.00139300 0.00097376 0.04287522 0.00859213 0.00457226 0.00484194 0.00133521 
0.02671280 0.06078046 0.00231784 0.00113184 0.00134972 0.00131623 0.00509099 0.00390098 0.02681904 0.00140777 0.00099659 0.04306324 0.00830728 0.00456562 0.00476523 0.00133345 
0.02704137 0.06243694 0.00226098 0.00120656 0.00136581 0.00127626 0.00510253 0.00388941 0.02678427 0.00142476 0.00102217 0.04327099 0.00803176 0.00455873 0.00469743 0.00133143 
0.02741846 0.06406933 0.00223013 0.00128694 0.00138258 0.00123818 0.00512058 0.00387835 0.02671796 0.00144396 0.00105047 0.04349876 0.00776655 0.00455189 0.00463900 0.00132915 
0.02784203 0.06567209 0.00222487 0.00137259 0.00139999 0.00120212 0.00514528 0.00386774 0.02662155 0.00146531 0.00108145 0.04374686 0.00751258 0.00454536 0.00459038 0.00132664 
0.02830970 0.06723969 0.00224466 0.00146307 0.00141802 0.00116821 0.00517679 0.00385757 0.02649663 0.00148879 0.00111505 0.04401557 0.00727070 0.00453943 0.00455198 0.00132389 
0.02881879 0.06876665 0.00228887 0.00155790 0.00143662 0.00113657 0.00521519 0.00384780 0.02634497 0.00151433 0.00115119 0.04430515 0.00704171 0.00453439 0.00452416 0.00132093 
0.02936631 0.07024752 0.00235680 0.00165661 0.00145575 0.00110731 0.00526058 0.00383838 0.02616846 0.00154187 0.00118978 0.04461584 0.00682634 0.00453053 0.00450722 0.00131778 
0.02994896 0.07167696 0.00244765 0.00175866 0.00147540 0.00108052 0.00531298 0.00382927 0.02596912 0.00157131 0.00123072 0.04494787 0.00662522 0.00452813 0.00450144 0.00131444 
0.03056320 0.07304972 0.00256055 0.00186353 0.00149551 0.00105632 0.00537240 0.00382044 0.02574909 0.00160258 0.00127388 0.04530144 0.00643893 0.00452749 0.00450703 0.00131095 
0.03120522 0.07436072 0.00269457 0.00197065 0.00151604 0.00103477 0.00543881 0.00381183 0.02551059 0.00163556 0.00131913 0.04567673 0.00626795 0.00452888 0.00452416 0.00130732 
0.03187099 0.07560501 0.00284869 0.00207947 0.00153697 0.00101595 0.00551213 0.00380342 0.02525596 0.00167015 0.00136632 0.04607391 0.00611270 0.00453259 0.00455295 0.00130356 
0.03255627 0.07677783 0.00302185 0.00218940 0.00155824 0.00099992 0.00559228 0.00379515 0.02498756 0.00170623 0.00141530 0.04649309 0.00597349 0.00453889 0.00459345 0.00129971 
0.03325664 0.07787464 0.00321291 0.00229985 0.00157982 0.00098675 0.00567910 0.00378700 0.02470784 0.00174365 0.00146588 0.04693437 0.00585057 0.00454803 0.00464568 0.00129577 
0.03396752 0.07889115 0.00342071 0.00241023 0.00160166 0.00097646 0.00577241 0.00377894 0.02441925 0.00178229 0.00151790 0.04739780 0.00574407 0.00456026 0.00470958 0.00129178 
0.03468419 0.07982330 0.00364402 0.00251995 0.00162373 0.00096911 0.00587201 0.00377092 0.02412430 0.00182198 0.00157114 0.04788341 0.00565406 0.00457581 0.00478504 0.00128775 
0.03540184 0.08066733 0.00388157 0.00262841 0.00164597 0.00096470 0.00597765 0.00376294 0.02382546 0.00186258 0.00162542 0.04839115 0.00558053 0.00459490 0.00487191 0.00128371 
0.03611559 0.08141978 0.00413208 0.00273503 0.00166836 0.00096326 0.00608904 0.00375496 0.02352523 0.00190392 0.00168051 0.04892094 0.00552336 0.00461773 0.00496995 0.00127968 
0.03682050 0.08207753 0.00439422 0.00283924 0.00169083 0.00096478 0.00620587 0.00374699 0.02322605 0.00194584 0.00173621 0.04947263 0.00548236 0.00464448 0.00507889 0.00127568 
0.03751163 0.08263779 0.00466664 0.00294048 0.00171335 0.00096925 0.00632778 0.00373901 0.02293034 0.00198816 0.00179227 0.05004601 0.00545726 0.00467531 0.00519841 0.00127173 
0.03818405 0.08309812 0.00494800 0.00303818 0.00173587 0.00097666 0.00645441 0.00373103 0.02264045 0.00203070 0.00184849 0.05064081 0.00544771 0.00471036 0.00532811 0.00126785 
0.03883288 0.08345650 0.00523690 0.00313184 0.00175834 0.00098698 0.00658533 0.00372306 0.02235867 0.00207328 0.00190461 0.05125666 0.00545328 0.00474974 0.00546755 0.00126407 
0.03945331 0.08371127 0.00553199 0.00322094 0.00178072 0.00100016 0.00672012 0.00371513 0.02208719 0.00211571 0.00196040 0.05189311 0.00547346 0.00479353 0.00561625 0.00126040 
0.04004064 0.08386120 0.00583188 0.00330501 0.00180295 0.00101617 0.00685832 0.00370725 0.02182813 0.00215783 0.00201564 0.05254963 0.00550771 0.00484179 0.00577367 0.00125686 
0.04059030 0.08390546 0.00613520 0.00338359 0.00182500 0.00103494 0.00699943 0.00369947 0.02158349 0.00219943 0.00207008 0.05322559 0.00555537 0.00489457 0.00593922 0.00125348 
0.04109790 0.08384368 0.00644060 0.00345628 0.00184681 0.00105641 0.00714297 0.00369183 0.02135513 0.00224035 0.00212348 0.05392024 0.00561575 0.00495185 0.00611227 0.00125026 
0.04155924 0.08367590 0.00674673 0.00352268 0.00186833 0.00108050 0.00728839 0.00368440 0.02114481 0.00228039 0.00217562 0.05463273 0.00568811 0.00501362 0.00629217 0.00124724 
0.04197031 0.08340263 0.00705226 0.00358246 0.00188951 0.00110713 0.00743518 0.00367723 0.02095414 0.00231939 0.00222626 0.05536211 0.00577165 0.00507981 0.00647820 0.00124442 
0.04232739 0.08302481 0.00735592 0.00363530 0.00191031 0.00113621 0.00758278 0.00367040 0.02078459 0.00235716 0.00227519 0.05610730 0.00586552 0.00515035 0.00666963 0.00124181 
0.04262700 0.08254383 0.00765642 0.00368094 0.00193067 0.00116764 0.00773063 0.00366398 0.02063747 0.00239355 0.00232219 0.05686707 0.00596884 0.00522510 0.00686570 0.00123944 
0.04286597 0.08196153 0.00795254 0.00371916 0.00195055 0.00120132 0.00787817 0.00365808 0.02051392 0.00242838 0.00236705 0.05764010 0.00608070 0.00530394 0.00706560 0.00123731 
0.04304141 0.08128019 0.00824308 0.00374978 0.00196990 0.00123715 0.00802483 0.00365278 0.02041493 0.00246151 0.00240958 0.05842493 0.00620015 0.00538666 0.00726853 0.00123544 
0.04315081 0.08050254 0.00852691 0.00377268 0.00198866 0.00127500 0.00817004 0.00364820 0.02034133 0.00249278 0.00244958 0.05921995 0.00632622 0.00547307 0.00747367 0.00123383 
0.04319198 0.07963173 0.00880290 0.00378777 0.00200679 0.00131475 0.00831323 0.00364443 0.02029374 0.00252207 0.00248689 0.06002343 0.00645794 0.00556292 0.00768016 0.00123250 
0.04316310 0.07867132 0.00907002 0.00379502 0.00202423 0.00135629 0.00845384 0.00364160 0.02027266 0.00254924 0.00252135 0.06083351 0.00659433 0.00565594 0.00788717 0.00123146 
0.04306273 0.07762529 0.00932725 0.00379444 0.00204095 0.00139948 0.00859133 0.00363983 0.02027836 0.00257417 0.00255280 0.06164821 0.00673437 0.00575184 0.00809383 0.00123070 
0.04288982 0.07649801 0.00957366 0.00378609 0.00205690 0.00144419 0.00872516 0.00363922 0.02031098 0.00259677 0.00258110 0.06246539 0.00687709 0.00585029 0.00829931 0.00123023 
0.04264371 0.07529421 0.00980835 0.00377009 0.00207203 0.00149029 0.00885479 0.00363992 0.02037047 0.00261693 0.00260615 0.06328282 0.00702151 0.00595093 0.00850276 0.00123006 
0.04232417 0.07401898 0.01003050 0.00374660 0.00208629 0.00153765 0.00897973 0.00364204 0.02045660 0.00263457 0.00262785 0.06409814 0.00716665 0.00605340 0.00870335 0.00123019 
0.04193134 0.07267774 0.01023935 0.00371583 0.00209965 0.00158613 0.00909948 0.00364571 0.02056899 0.00264964 0.00264610 0.06490887 0.00731157 0.00615729 0.00890027 0.00123061 
0.04146580 0.07127622 0.01043420 0.00367803 0.00211205 0.00163559 0.00921359 0.00365104 0.02070710 0.00266206 0.00266083 0.06571244 0.00745535 0.00626219 0.00909271 0.00123134 
0.04092851 0.06982041 0.01061441 0.00363350 0.00212348 0.00168589 0.00932162 0.00365817 0.02087021 0.00267181 0.00267202 0.06650618 0.00759710 0.00636765 0.00927993 0.00123236 
0.04032087 0.06831658 0.01077941 0.00358260 0.00213387 0.00173691 0.00942316 0.00366719 0.02105748 0.00267885 0.00267961 0.06728734 0.00773594 0.00647322 0.00946116 0.00123367 
0.03964464 0.06677119 0.01092872 0.00352571 0.00214321 0.00178849 0.00951783 0.00367822 0.02126792 0.00268317 0.00268360 0.06805310 0.00787108 0.00657844 0.00963572 0.00123527 
0.03890199 0.06519093 0.01106190 0.00346326 0.00215146 0.00184051 0.00960528 0.00369136 0.02150038 0.00268477 0.00268399 0.06880058 0.00800173 0.00668283 0.00980293 0.00123715 
0.03809548 0.06358261 0.01117859 0.00339571 0.00215858 0.00189284 0.00968521 0.00370670 0.02175362 0.00268368 0.00268082 0.06952686 0.00812716 0.00678589 0.00996216 0.00123931 
0.03722801 0.06195320 0.01127851 0.00332358 0.00216456 0.00194534 0.00975734 0.00372433 0.02202626 0.00267991 0.00267412 0.07022900 0.00824669 0.00688713 0.01011284 0.00124173 
0.03630284 0.06030974 0.01136143 0.00324738 0.00216937 0.00199789 0.00982142 0.00374431 0.02231681 0.00267352 0.00266395 0.07090404 0.00835970 0.00698605 0.01025443 0.00124441 
0.03532359 0.05865932 0.01142720 0.00316770 0.00217299 0.00205036 0.00987727 0.00376670 0.02262372 0.00266457 0.00265040 0.07154903 0.00846563 0.00708217 0.01038645 0.00124733 
0.03429416 0.05700907 0.01147575 0.00308512 0.00217540 0.00210263 0.00992472 0.00379154 0.02294530 0.00265312 0.00263357 0.07216106 0.00856395 0.00717497 0.01050846 0.00125049 
0.03321876 0.05536609 0.01150706 0.00300026 0.00217659 0.00215459 0.00996366 0.00381887 0.02327983 0.00263926 0.00261357 0.07273725 0.00865423 0.00726396 0.01062009 0.00125388 
0.03210188 0.05373743 0.01152119 0.00291374 0.00217655 0.00220612 0.00999399 0.00384870 0.02362550 0.00262309 0.00259052 0.07327478 0.00873606 0.00734868 0.01072103 0.00125747 
0.03094825 0.05213005 0.01151825 0.00282622 0.00217529 0.00225711 0.01001569 0.00388103 0.02398046 0.00260471 0.00256459 0.07377094 0.00880913 0.00742864 0.01081101 0.00126126 
0.02976281 0.05055081 0.01149844 0.00273836 0.00217279 0.00230746 0.01002876 0.00391583 0.02434282 0.00258426 0.00253592 0.07422311 0.00887316 0.00750339 0.01088985 0.00126522 
0.02855072 0.04900636 0.01146199 0.00265083 0.00216906 0.00235706 0.01003324 0.00395306 0.02471066 0.00256186 0.00250470 0.07462880 0.00892796 0.00757250 0.01095738 0.00126936 
0.02731730 0.04750321 0.01140923 0.00256431 0.00216411 0.00240583 0.01002921 0.00399267 0.02508203 0.00253765 0.00247111 0.07498566 0.00897338 0.00763553 0.01101355 0.00127365 
0.02606801 0.04604760 0.01134050 0.00247946 0.00215796 0.00245368 0.01001680 0.00403459 0.02545500 0.00251178 0.00243535 0.07529152 0.00900935 0.00769211 0.01105834 0.00127807 
0.02480840 0.04464554 0.01125625 0.00239695 0.00215063 0.00250051 0.00999617 0.00407871 0.02582761 0.00248442 0.00239764 0.07554439 0.00903585 0.00774185 0.01109178 0.00128260 
0.02354414 0.04330273 0.01115694 0.00231746 0.00214213 0.00254625 0.00996751 0.00412491 0.02619794 0.00245573 0.00235819 0.07574249 0.00905293 0.00778441 0.01111399 0.00128724 
0.02228093 0.04202457 0.01104311 0.00224161 0.00213250 0.00259083 0.00993107 0.00417307 0.02656409 0.00242588 0.00231723 0.07588425 0.00906067 0.00781949 0.01112512 0.00129196 
0.02102447 0.04081610 0.01091532 0.00217006 0.00212177 0.00263417 0.00988711 0.00422302 0.02692419 0.00239505 0.00227501 0.07596836 0.00905924 0.00784681 0.01112539 0.00129675 
0.01978048 0.03968198 0.01077421 0.00210340 0.00210998 0.00267621 0.00983592 0.00427459 0.02727643 0.00236342 0.00223175 0.07599376 0.00904884 0.00786611 0.01111508 0.00130159 
0.01855462 0.03862649 0.01062044 0.00204224 0.00209717 0.00271689 0.00977785 0.00432759 0.02761904 0.00233117 0.00218770 0.07595966 0.00902974 0.00787720 0.01109451 0.00130645 
0.01735249 0.03765348 0.01045471 0.00198712 0.00208339 0.00275616 0.00971325 0.00438181 0.02795032 0.00229850 0.00214312 0.07586557 0.00900222 0.00787990 0.01106405 0.00131134 
0.01617958 0.03676639 0.01027777 0.00193858 0.00206869 0.00279396 0.00964250 0.00443703 0.02826862 0.00226559 0.00209824 0.07571128 0.00896664 0.00787408 0.01102414 0.00131621 
0.01504126 0.03596818 0.01009037 0.00189712 0.00205313 0.00283025 0.00956602 0.00449298 0.02857239 0.00223263 0.00205333 0.07549691 0.00892338 0.00785965 0.01097524 0.00132107 
0.01394273 0.03526135 0.00989333 0.00186319 0.00203677 0.00286499 0.00948422 0.00454943 0.02886017 0.00219980 0.00200862 0.07522288 0.00887287 0.00783656 0.01091786 0.00132590 
0.01288901 0.03464794 0.00968747 0.00183721 0.00201967 0.00289813 0.00939757 0.00460608 0.02913056 0.00216728 0.00196436 0.07488995 0.00881557 0.00780481 0.01085254 0.00133067 
0.01188490 0.03412949 0.00947363 0.00181955 0.00200190 0.00292966 0.00930651 0.00466267 0.02938227 0.00213527 0.00192079 0.07449920 0.00875195 0.00776443 0.01077987 0.00133537 
0.01093498 0.03370707 0.00925269 0.00181053 0.00198354 0.00295952 0.00921153 0.00471889 0.02961411 0.00210393 0.00187815 0.07405203 0.00868252 0.00771550 0.01070044 0.00133998 
0.01004356 0.03338125 0.00902551 0.00181045 0.00196465 0.00298771 0.00911310 0.00477444 0.02982500 0.00207343 0.00183665 0.07355021 0.00860782 0.00765815 0.01061490 0.00134449 
0.00921466 0.03315211 0.00879299 0.00181952 0.00194532 0.00301420 0.00901171 0.00482901 0.03001395 0.00204394 0.00179654 0.07299580 0.00852839 0.00759253 0.01052389 0.00134889 
0.00845201 0.03301923 0.00855603 0.00183792 0.00192562 0.00303896 0.00890787 0.00488227 0.03018007 0.00201561 0.00175800 0.07239121 0.00844478 0.00751886 0.01042808 0.00135317 
0.00775901 0.03298175 0.00831551 0.00186578 0.00190564 0.00306198 0.00880207 0.00493392 0.03032260 0.00198860 0.00172125 0.07173918 0.00835757 0.00743737 0.01032817 0.00135729 
0.00713872 0.03303831 0.00807234 0.00190317 0.00188546 0.00308324 0.00869479 0.00498362 0.03044089 0.00196303 0.00168646 0.07104273 0.00826731 0.00734837 0.01022483 0.00136127 
0.00659386 0.03318709 0.00782741 0.00195009 0.00186517 0.00310274 0.00858653 0.00503105 0.03053438 0.00193904 0.00165383 0.07030521 0.00817459 0.00725216 0.01011876 0.00136507 
0.00612677 0.03342584 0.00758161 0.00200651 0.00184484 0.00312046 0.00847777 0.00507590 0.03060263 0.00191675 0.00162350 0.06953026 0.00807996 0.00714912 0.01001066 0.00136870 
0.00573940 0.03375189 0.00733581 0.00207233 0.00182456 0.00313640 0.00836898 0.00511785 0.03064531 0.00189626 0.00159563 0.06872178 0.00798399 0.00703964 0.00990121 0.00137213 
0.00543335 0.03416214 0.00709085 0.00214739 0.00180443 0.00315055 0.00826062 0.00515659 0.03066220 0.00187767 0.00157036 0.06788394 0.00788722 0.00692415 0.00979108 0.00137537 
0.00520978 0.03465312 0.00684760 0.00223150 0.00178451 0.00316290 0.00815313 0.00519183 0.03065318 0.00186106 0.00154779 0.06702114 0.00779018 0.00680312 0.00968094 0.00137840 
0.00506949 0.03522100 0.00660686 0.00232438 0.00176489 0.00317346 0.00804695 0.00522328 0.03061823 0.00184650 0.00152804 0.06613802 0.00769340 0.00667702 0.00957144 0.00138121 
0.00501286 0.03586162 0.00636942 0.00242573 0.00174565 0.00318223 0.00794249 0.00525068 0.03055744 0.00183405 0.00151119 0.06523938 0.00759737 0.00654638 0.00946320 0.00138379 
0.00503985 0.03657049 0.00613606 0.00253517 0.00172688 0.00318920 0.00784013 0.00527375 0.03047098 0.00182374 0.00149730 0.06433023 0.00750257 0.00641173 0.00935683 0.00138614 
0.00515004 0.03734287 0.00590751 0.00265229 0.00170863 0.00319437 0.00774024 0.00529227 0.03035914 0.00181562 0.00148644 0.06341572 0.00740943 0.00627364 0.00925289 0.00138825 
0.00534261 0.03817374 0.00568448 0.00277663 0.00169099 0.00319776 0.00764317 0.00530601 0.03022227 0.00180969 0.00147864 0.06250110 0.00731839 0.00613268 0.00915193 0.00139012 
0.00561634 0.03905789 0.00546764 0.00290767 0.00167401 0.00319936 0.00754923 0.00531478 0.03006083 0.00180596 0.00147391 0.06159173 0.00722984 0.00598943 0.00905446 0.00139174 
0.00596962 0.03998991 0.00525762 0.00304487 0.00165777 0.00319919 0.00745873 0.00531840 0.02987535 0.00180442 0.00147226 0.06069303 0.00714413 0.00584450 0.00896094 0.00139311 
0.00640048 0.04096425 0.00505502 0.00318764 0.00164232 0.00319725 0.00737192 0.00531673 0.02966643 0.00180505 0.00147367 0.05981047 0.00706159 0.00569850 0.00887183 0.00139422 
0.00690656 0.04197521 0.00486039 0.00333534 0.00162771 0.00319355 0.00728905 0.00530964 0.02943476 0.00180780 0.00147812 0.05894948 0.00698254 0.00555205 0.00878750 0.00139507 
0.00748517 0.04301705 0.00467425 0.00348732 0.00161399 0.00318811 0.00721033 0.00529704 0.02918109 0.00181263 0.00148555 0.05811552 0.00690721 0.00540574 0.00870832 0.00139567 
0.00813328 0.04408395 0.00449707 0.00364289 0.00160120 0.00318094 0.00713594 0.00527886 0.02890622 0.00181948 0.00149591 0.05731394 0.00683585 0.00526020 0.00863459 0.00139600 
0.00884751 0.04517006 0.00432928 0.00380132 0.00158937 0.00317204 0.00706605 0.00525506 0.02861104 0.00182827 0.00150911 0.05655003 0.00676866 0.00511603 0.00856660 0.00139608 
0.00962422 0.04626958 0.00417126 0.00396188 0.00157854 0.00316145 0.00700077 0.00522564 0.02829646 0.00183891 0.00152507 0.05582894 0.00670578 0.00497383 0.00850455 0.00139589 
0.01045946 0.04737673 0.00402335 0.00412382 0.00156872 0.00314918 0.00694021 0.00519063 0.02796347 0.00185132 0.00154367 0.05515568 0.00664735 0.00483417 0.00844863 0.00139545 
0.01134902 0.04848581 0.00388584 0.00428636 0.00155994 0.00313526 0.00688445 0.00515008 0.02761308 0.00186538 0.00156481 0.05453507 0.00659346 0.00469764 0.00839898 0.00139476 
0.01228845 0.04959123 0.00375898 0.00444872 0.00155220 0.00311970 0.00683354 0.00510409 0.02724635 0.00188098 0.00158835 0.05397170 0.00654417 0.00456477 0.00835569 0.00139381 
0.01327310 0.05068755 0.00364297 0.00461011 0.00154550 0.00310254 0.00678748 0.00505276 0.02686439 0.00189800 0.00161416 0.05346995 0.00649951 0.00443610 0.00831880 0.00139262 
0.01429809 0.05176946 0.00353797 0.00476975 0.00153983 0.00308382 0.00674630 0.00499627 0.02646832 0.00191631 0.00164207 0.05303388 0.00645949 0.00431213 0.00828834 0.00139117 
0.01535841 0.05283188 0.00344409 0.00492684 0.00153520 0.00306356 0.00670995 0.00493478 0.02605930 0.00193577 0.00167194 0.05266729 0.00642407 0.00419333 0.00826427 0.00138949 
0.01644888 0.05386991 0.00336140 0.00508062 0.00153157 0.00304180 0.00667839 0.00486852 0.02563852 0.00195624 0.00170360 0.05237364 0.00639321 0.00408015 0.00824651 0.00138758 
0.01756422 0.05487891 0.00328992 0.00523031 0.00152893 0.00301859 0.00665156 0.00479773 0.02520719 0.00197756 0.00173686 0.05215601 0.00636681 0.00397300 0.00823495 0.00138544 
0.01869906 0.05585448 0.00322964 0.00537516 0.00152725 0.00299397 0.00662936 0.00472268 0.02476651 0.00199959 0.00177156 0.05201715 0.00634478 0.00387226 0.00822947 0.00138307 
0.01984795 0.05679250 0.00318050 0.00551443 0.00152648 0.00296801 0.00661169 0.00464367 0.02431773 0.00202218 0.00180750 0.05195938 0.00632699 0.00377827 0.00822986 0.00138049 
0.02100543 0.05768914 0.00314239 0.00564743 0.00152659 0.00294074 0.00659844 0.00456103 0.02386210 0.00204516 0.00184450 0.05198462 0.00631329 0.00369133 0.00823594 0.00137771 
0.02216602 0.05854085 0.00311519 0.00577347 0.00152753 0.00291224 0.00658945 0.00447511 0.02340085 0.00206838 0.00188237 0.05209435 0.00630354 0.00361170 0.00824747 0.00137472 
0.02332426 0.05934444 0.00309872 0.00589189 0.00152924 0.00288256 0.00658458 0.00438628 0.02293526 0.00209169 0.00192092 0.05228960 0.00629755 0.00353960 0.00826418 0.00137155 
0.02447473 0.06009700 0.00309278 0.00600208 0.00153168 0.00285179 0.00658367 0.00429493 0.02246657 0.00211492 0.00195996 0.05257095 0.00629513 0.00347522 0.00828579 0.00136819 
0.02561209 0.06079597 0.00309712 0.00610346 0.00153477 0.00282000 0.00658655 0.00420148 0.02199605 0.00213792 0.00199929 0.05293849 0.00629609 0.00341868 0.00831199 0.00136466 
0.02673111 0.06143912 0.00311148 0.00619550 0.00153846 0.00278726 0.00659304 0.00410635 0.02152494 0.00216055 0.00203872 0.05339186 0.00630022 0.00337006 0.00834248 0.00136096 
0.02782666 0.06202455 0.00313556 0.00627769 0.00154269 0.00275366 0.00660294 0.00400998 0.02105448 0.00218265 0.00207807 0.05393018 0.00630731 0.00332942 0.00837691 0.00135712 
0.02889377 0.06255069 0.00316902 0.00634959 0.00154737 0.00271930 0.00661607 0.00391283 0.02058592 0.00220408 0.00211716 0.05455211 0.00631713 0.00329675 0.00841494 0.00135313 
0.02992766 0.06301632 0.00321152 0.00641080 0.00155244 0.00268428 0.00663222 0.00381534 0.02012048 0.00222471 0.00215581 0.05525581 0.00632948 0.00327200 0.00845622 0.00134900 
0.03092373 0.06342054 0.00326269 0.00646097 0.00155783 0.00264869 0.00665120 0.00371799 0.01965936 0.00224441 0.00219385 0.05603897 0.00634413 0.00325508 0.00850038 0.00134476 
0.03187757 0.06376275 0.00332212 0.00649981 0.00156346 0.00261264 0.00667280 0.00362124 0.01920375 0.00226305 0.00223111 0.05689879 0.00636086 0.00324586 0.00854708 0.00134040 
0.03278507 0.06404269 0.00338941 0.00652706 0.00156927 0.00257624 0.00669682 0.00352557 0.01875484 0.00228052 0.00226743 0.05783201 0.00637947 0.00324416 0.00859596 0.00133595 
0.03364231 0.06426038 0.00346413 0.00654253 0.00157518 0.00253961 0.00672306 0.00343142 0.01831377 0.00229671 0.00230266 0.05883491 0.00639973 0.00324975 0.00864665 0.00133141 
0.03444568 0.06441614 0.00354582 0.00654611 0.00158111 0.00250288 0.00675130 0.00333926 0.01788167 0.00231152 0.00233667 0.05990333 0.00642146 0.00326238 0.00869882 0.00132679 
0.03519186 0.06451057 0.00363405 0.00653770 0.00158700 0.00246616 0.00678137 0.00324955 0.01745965 0.00232486 0.00236931 0.06103269 0.00644446 0.00328174 0.00875212 0.00132211 
0.03587781 0.06454450 0.00372833 0.00651728 0.00159279 0.00242958 0.00681305 0.00316271 0.01704879 0.00233667 0.00240047 0.06221800 0.00646854 0.00330750 0.00880623 0.00131738 
0.03650083 0.06451905 0.00382821 0.00648491 0.00159840 0.00239327 0.00684615 0.00307917 0.01665012 0.00234686 0.00243002 0.06345389 0.00649352 0.00333929 0.00886084 0.00131261 
0.03705854 0.06443552 0.00393318 0.00644065 0.00160378 0.00235737 0.00688049 0.00299934 0.01626467 0.00235537 0.00245787 0.06473463 0.00651925 0.00337671 0.00891566 0.00130781 
0.03754888 0.06429544 0.00404278 0.00638467 0.00160887 0.00232202 0.00691588 0.00292360 0.01589342 0.00236217 0.00248392 0.06605418 0.00654556 0.00341933 0.00897040 0.00130299 
0.03797015 0.06410053 0.00415652 0.00631717 0.00161362 0.00228734 0.00695213 0.00285232 0.01553732 0.00236722 0.00250809 0.06740618 0.00657232 0.00346668 0.00902482 0.00129817 
0.03832101 0.06385268 0.00427390 0.00623839 0.00161797 0.00225348 0.00698908 0.00278584 0.01519726 0.00237049 0.00253031 0.06878401 0.00659940 0.00351828 0.00907867 0.00129336 
0.03860043 0.06355391 0.00439445 0.00614866 0.00162190 0.00222058 0.00702656 0.00272447 0.01487411 0.00237196 0.00255051 0.07018083 0.00662669 0.00357364 0.00913175 0.00128857 
0.03880778 0.06320638 0.00451767 0.00604832 0.00162535 0.00218877 0.00706438 0.00266850 0.01456870 0.00237163 0.00256864 0.07158960 0.00665408 0.00363222 0.00918387 0.00128381 
0.03894276 0.06281237 0.00464310 0.00593779 0.00162830 0.00215819 0.00710241 0.00261819 0.01428181 0.00236951 0.00258467 0.07300313 0.00668148 0.00369351 0.00923487 0.00127910 
0.03900541 0.06237424 0.00477024 0.00581751 0.00163073 0.00212897 0.00714047 0.00257375 0.01401416 0.00236561 0.00259856 0.07441409 0.00670881 0.00375696 0.00928463 0.00127445 
0.03899615 0.06189440 0.00489865 0.00568799 0.00163261 0.00210126 0.00717842 0.00253539 0.01376643 0.00235996 0.00261029 0.07581511 0.00673601 0.00382201 0.00933304 0.00126986 
0.03891572 0.06137535 0.00502785 0.00554976 0.00163392 0.00207518 0.00721610 0.00250326 0.01353924 0.00235261 0.00261985 0.07719876 0.00676303 0.00388811 0.00938002 0.00126536 
0.03876519 0.06081959 0.00515741 0.00540339 0.00163467 0.00205085 0.00725338 0.00247749 0.01333318 0.00234359 0.00262725 0.07855763 0.00678982 0.00395472 0.00942553 0.00126094 
0.03854597 0.06022963 0.00528687 0.00524951 0.00163486 0.00202839 0.00729011 0.00245815 0.01314875 0.00233296 0.00263249 0.07988435 0.00681635 0.00402128 0.00946956 0.00125663 
0.03825978 0.05960801 0.00541582 0.00508874 0.00163448 0.00200793 0.00732615 0.00244529 0.01298641 0.00232079 0.00263558 0.08117167 0.00684260 0.00408726 0.00951212 0.00125243 
0.03790863 0.05895723 0.00554384 0.00492177 0.00163355 0.00198957 0.00736137 0.00243894 0.01284657 0.00230715 0.00263656 0.08241246 0.00686857 0.00415213 0.00955326 0.00124836 
0.03749484 0.05827974 0.00567053 0.00474930 0.00163209 0.00197341 0.00739563 0.00243907 0.01272954 0.00229212 0.00263546 0.08359979 0.00689423 0.00421537 0.00959304 0.00124442 
0.03702099 0.05757797 0.00579549 0.00457204 0.00163012 0.00195954 0.00742880 0.00244562 0.01263559 0.00227578 0.00263232 0.08472694 0.00691960 0.00427651 0.00963157 0.00124062 
0.03648991 0.05685429 0.00591835 0.00439074 0.00162767 0.00194807 0.00746076 0.00245850 0.01256494 0.00225822 0.00262719 0.08578748 0.00694468 0.00433507 0.00966897 0.00123698 
0.03590468 0.05611098 0.00603876 0.00420615 0.00162479 0.00193905 0.00749137 0.00247756 0.01251770 0.00223956 0.00262012 0.08677526 0.00696949 0.00439060 0.00970542 0.00123351 
0.03526860 0.05535026 0.00615638 0.00401903 0.00162150 0.00193257 0.00752050 0.00250266 0.01249394 0.00221988 0.00261117 0.08768452 0.00699405 0.00444270 0.00974108 0.00123020 
0.03458517 0.05457426 0.00627086 0.00383018 0.00161785 0.00192867 0.00754804 0.00253359 0.01249366 0.00219930 0.00260042 0.08850986 0.00701837 0.00449099 0.00977618 0.00122708 
0.03385806 0.05378500 0.00638192 0.00364035 0.00161390 0.00192742 0.00757385 0.00257013 0.01251677 0.00217793 0.00258792 0.08924631 0.00704248 0.00453511 0.00981093 0.00122414 
0.03309110 0.05298444 0.00648924 0.00345035 0.00160970 0.00192883 0.00759780 0.00261202 0.01256311 0.00215587 0.00257376 0.08988937 0.00706640 0.00457476 0.00984561 0.00122141 
0.03228828 0.05217440 0.00659255 0.00326094 0.00160529 0.00193294 0.00761978 0.00265896 0.01263247 0.00213326 0.00255801 0.09043503 0.00709015 0.00460968 0.00988048 0.00121887 
0.03145367 0.05135661 0.00669160 0.00307290 0.00160075 0.00193976 0.00763966 0.00271066 0.01272452 0.00211020 0.00254075 0.09087980 0.00711376 0.00463963 0.00991585 0.00121654 
0.03059145 0.05053272 0.00678614 0.00288700 0.00159614 0.00194930 0.00765732 0.00276677 0.01283890 0.00208681 0.00252208 0.09122074 0.00713725 0.00466444 0.00995202 0.00121443 
0.02970588 0.04970424 0.00687595 0.00270398 0.00159151 0.00196153 0.00767264 0.00282693 0.01297516 0.00206321 0.00250206 0.09145549 0.00716062 0.00468397 0.00998934 0.00121254 
0.02880125 0.04887262 0.00696082 0.00252459 0.00158693 0.00197644 0.00768550 0.00289077 0.01313277 0.00203952 0.00248080 0.09158225 0.00718389 0.00469813 0.01002815 0.00121088 
0.02788187 0.04803919 0.00704055 0.00234955 0.00158247 0.00199399 0.00769578 0.00295790 0.01331113 0.00201586 0.00245838 0.09159988 0.00720707 0.00470688 0.01006880 0.00120944 
0.02695206 0.04720519 0.00711498 0.00217955 0.00157819 0.00201413 0.00770337 0.00302791 0.01350956 0.00199233 0.00243489 0.09150783 0.00723016 0.00471022 0.01011167 0.00120823 
0.02601613 0.04637180 0.00718396 0.00201526 0.00157416 0.00203680 0.00770816 0.00310037 0.01372733 0.00196905 0.00241041 0.09130619 0.00725315 0.00470822 0.01015713 0.00120727 
0.02507832 0.04554011 0.00724734 0.00185733 0.00157045 0.00206191 0.00771004 0.00317488 0.01396363 0.00194612 0.00238505 0.09099570 0.00727603 0.00470098 0.01020557 0.00120653 
0.02414283 0.04471114 0.00730500 0.00170639 0.00156710 0.00208939 0.00770892 0.00325098 0.01421758 0.00192366 0.00235888 0.09057773 0.00729877 0.00468865 0.01025736 0.00120604 
0.02321377 0.04388585 0.00735685 0.00156300 0.00156419 0.00211914 0.00770470 0.00332825 0.01448823 0.00190177 0.00233200 0.09005430 0.00732137 0.00467142 0.01031291 0.00120578 
0.02229515 0.04306518 0.00740279 0.00142774 0.00156177 0.00215103 0.00769729 0.00340626 0.01477458 0.00188053 0.00230450 0.08942806 0.00734377 0.00464956 0.01037259 0.00120577 
0.02139084 0.04224999 0.00744276 0.00130111 0.00155989 0.00218496 0.00768661 0.00348456 0.01507557 0.00186004 0.00227645 0.08870228 0.00736593 0.00462334 0.01043679 0.00120599 
0.02050460 0.04144115 0.00747671 0.00118359 0.00155861 0.00222079 0.00767259 0.00356275 0.01539008 0.00184040 0.00224794 0.08788086 0.00738780 0.00459311 0.01050589 0.00120644 
0.01964001 0.04063950 0.00750460 0.00107562 0.00155797 0.00225836 0.00765518 0.00364039 0.01571694 0.00182167 0.00221906 0.08696828 0.00740933 0.00455924 0.01058026 0.00120713 
0.01880049 0.03984588 0.00752641 0.00097760 0.00155801 0.00229754 0.00763432 0.00371710 0.01605494 0.00180393 0.00218989 0.08596959 0.00743045 0.00452214 0.01066025 0.00120805 
0.01798929 0.03906113 0.00754214 0.00088989 0.00155877 0.00233815 0.00760997 0.00379246 0.01640283 0.00178726 0.00216050 0.08489040 0.00745108 0.00448228 0.01074621 0.00120920 
0.01720942 0.03828614 0.00755179 0.00081281 0.00156028 0.00238003 0.00758211 0.00386611 0.01675930 0.00177171 0.00213097 0.08373684 0.00747114 0.00444012 0.01083847 0.00121057 
0.01646374 0.03752179 0.00755541 0.00074662 0.00156256 0.00242299 0.00755073 0.00393770 0.01712303 0.00175734 0.00210138 0.08251551 0.00749055 0.00439620 0.01093735 0.00121216 
0.01575484 0.03676903 0.00755302 0.00069156 0.00156564 0.00246685 0.00751583 0.00400689 0.01749266 0.00174420 0.00207179 0.08123348 0.00750921 0.00435105 0.01104314 0.00121395 
0.01508512 0.03602887 0.00754470 0.00064779 0.00156953 0.00251142 0.00747744 0.00407336 0.01786682 0.00173233 0.00204228 0.07989823 0.00752703 0.00430523 0.01115611 0.00121596 
0.01445672 0.03530235 0.00753050 0.00061547 0.00157425 0.00255649 0.00743558 0.00413684 0.01824412 0.00172178 0.00201291 0.07851761 0.00754390 0.00425934 0.01127651 0.00121815 
0.01387157 0.03459061 0.00751052 0.00059469 0.00157978 0.00260188 0.00739032 0.00419705 0.01862317 0.00171256 0.00198375 0.07709979 0.00755972 0.00421396 0.01140457 0.00122054 
0.01333134 0.03389486 0.00748485 0.00058548 0.00158613 0.00264738 0.00734173 0.00425377 0.01900254 0.00170470 0.00195486 0.07565323 0.00757438 0.00416972 0.01154046 0.00122311 
0.01283746 0.03321639 0.00745362 0.00058786 0.00159329 0.00269277 0.00728990 0.00430679 0.01938085 0.00169822 0.00192630 0.07418663 0.00758778 0.00412723 0.01168436 0.00122584 
0.01239110 0.03255659 0.00741693 0.00060177 0.00160124 0.00273787 0.00723494 0.00435594 0.01975671 0.00169313 0.00189812 0.07270887 0.00759981 0.00408710 0.01183640 0.00122874 
0.01199320 0.03191695 0.00737494 0.00062713 0.00160995 0.00278244 0.00717699 0.00440108 0.02012874 0.00168943 0.00187039 0.07122894 0.00761037 0.00404997 0.01199668 0.00123179 
0.01164447 0.03129906 0.00732779 0.00066382 0.00161941 0.00282631 0.00711619 0.00444210 0.02049559 0.00168713 0.00184315 0.06975593 0.00761936 0.00401643 0.01216526 0.00123497 
0.01134535 0.03070460 0.00727565 0.00071165 0.00162958 0.00286925 0.00705271 0.00447892 0.02085593 0.00168620 0.00181646 0.06829895 0.00762667 0.00398710 0.01234217 0.00123829 
0.01109606 0.03013536 0.00721868 0.00077041 0.00164041 0.00291107 0.00698676 0.00451151 0.02120849 0.00168665 0.00179037 0.06686708 0.00763222 0.00396255 0.01252741 0.00124171 
0.01089659 0.02959324 0.00715708 0.00083985 0.00165187 0.00295157 0.00691853 0.00453984 0.02155201 0.00168844 0.00176492 0.06546931 0.00763593 0.00394335 0.01272091 0.00124524 
0.01074670 0.02908023 0.00709102 0.00091966 0.00166391 0.00299057 0.00684826 0.00456393 0.02188529 0.00169156 0.00174016 0.06411448 0.00763771 0.00393004 0.01292261 0.00124886 
0.01064594 0.02859842 0.00702073 0.00100953 0.00167647 0.00302788 0.00677620 0.00458385 0.02220720 0.00169598 0.00171613 0.06281127 0.00763752 0.00392313 0.01313237 0.00125256 
0.01059364 0.02814999 0.00694641 0.00110907 0.00168949 0.00306333 0.00670262 0.00459967 0.02251665 0.00170167 0.00169287 0.06156808 0.00763528 0.00392311 0.01335002 0.00125632 
0.01058895 0.02773719 0.00686827 0.00121788 0.00170292 0.00309674 0.00662781 0.00461150 0.02281261 0.00170859 0.00167043 0.06039304 0.00763096 0.00393043 0.01357537 0.00126012 
0.01063082 0.02736237 0.00678656 0.00133554 0.00171670 0.00312795 0.00655206 0.00461949 0.02309414 0.00171669 0.00164884 0.05929390 0.00762455 0.00394547 0.01380817 0.00126396 
0.01071802 0.02702793 0.00670151 0.00146156 0.00173075 0.00315683 0.00647569 0.00462382 0.02336037 0.00172594 0.00162814 0.05827804 0.00761601 0.00396862 0.01404813 0.00126782 
0.01084916 0.02673631 0.00661335 0.00159545 0.00174501 0.00318323 0.00639904 0.00462467 0.02361049 0.00173629 0.00160836 0.05735239 0.00760536 0.00400017 0.01429493 0.00127169 
0.01102270 0.02649001 0.00652235 0.00173669 0.00175941 0.00320702 0.00632245 0.00462226 0.02384380 0.00174768 0.00158955 0.05652339 0.00759263 0.00404041 0.01454820 0.00127555 
0.01123694 0.02629156 0.00642875 0.00188472 0.00177388 0.00322809 0.00624628 0.00461685 0.02405966 0.00176007 0.00157172 0.05579696 0.00757784 0.00408955 0.01480754 0.00127938 
0.01149009 0.02614347 0.00633281 0.00203898 0.00178834 0.00324634 0.00617089 0.00460870 0.02425754 0.00177340 0.00155492 0.05517845 0.00756107 0.00414776 0.01507251 0.00128317 
0.01178019 0.02604827 0.00623481 0.00219886 0.00180273 0.00326168 0.00609666 0.00459809 0.02443700 0.00178762 0.00153917 0.05467262 0.00754238 0.00421513 0.01534264 0.00128692 
0.01210523 0.02600846 0.00613500 0.00236376 0.00181698 0.00327404 0.00602397 0.00458531 0.02459766 0.00180266 0.00152449 0.05428359 0.00752189 0.00429172 0.01561743 0.00129059 
0.01246306 0.02602650 0.00603367 0.00253306 0.00183100 0.00328336 0.00595319 0.00457070 0.02473929 0.00181848 0.00151093 0.05401484 0.00749971 0.00437754 0.01589632 0.00129418 
0.01285150 0.02610477 0.00593108 0.00270610 0.00184474 0.00328959 0.00588471 0.00455456 0.02486171 0.00183501 0.00149849 0.05386916 0.00747598 0.00447250 0.01617875 0.00129768 
0.01326826 0.02624560 0.00582751 0.00288224 0.00185813 0.00329271 0.00581893 0.00453724 0.02496486 0.00185219 0.00148720 0.05384864 0.00745085 0.00457650 0.01646412 0.00130107 
0.01371104 0.02645118 0.00572324 0.00306082 0.00187110 0.00329270 0.00575621 0.00451908 0.02504876 0.00186997 0.00147708 0.05395467 0.00742453 0.00468935 0.01675179 0.00130434 
0.01417746 0.02672362 0.00561855 0.00324116 0.00188359 0.00328955 0.00569694 0.00450043 0.02511354 0.00188829 0.00146816 0.05418790 0.00739719 0.00481082 0.01704113 0.00130747 
0.01466515 0.02706485 0.00551372 0.00342261 0.00189554 0.00328330 0.00564148 0.00448164 0.02515941 0.00190708 0.00146045 0.05454828 0.00736908 0.00494060 0.01733145 0.00131045 
0.01517168 0.02747666 0.00540902 0.00360448 0.00190690 0.00327396 0.00559019 0.00446304 0.02518668 0.00192630 0.00145396 0.05503501 0.00734042 0.00507836 0.01762207 0.00131328 
0.01569465 0.02796064 0.00530473 0.00378612 0.00191761 0.00326159 0.00554342 0.00444499 0.02519573 0.00194589 0.00144871 0.05564658 0.00731147 0.00522368 0.01791227 0.00131593 
0.01623164 0.02851818 0.00520112 0.00396686 0.00192762 0.00324625 0.00550150 0.00442783 0.02518704 0.00196578 0.00144470 0.05638075 0.00728252 0.00537612 0.01820135 0.00131841 
0.01678026 0.02915045 0.00509847 0.00414604 0.00193690 0.00322801 0.00546475 0.00441188 0.02516118 0.00198594 0.00144196 0.05723458 0.00725384 0.00553518 0.01848858 0.00132069 
0.01733813 0.02985837 0.00499703 0.00432301 0.00194540 0.00320696 0.00543347 0.00439747 0.02511878 0.00200630 0.00144047 0.05820446 0.00722575 0.00570029 0.01877321 0.00132276 
0.01790291 0.03064261 0.00489708 0.00449715 0.00195309 0.00318320 0.00540792 0.00438490 0.02506054 0.00202682 0.00144025 0.05928608 0.00719855 0.00587088 0.01905451 0.00132463 
0.01847228 0.03150354 0.00479887 0.00466782 0.00195994 0.00315686 0.00538837 0.00437446 0.02498725 0.00204745 0.00144130 0.06047454 0.00717259 0.00604631 0.01933174 0.00132628 
0.01904399 0.03244126 0.00470266 0.00483443 0.00196593 0.00312805 0.00537503 0.00436643 0.02489973 0.00206816 0.00144362 0.06176428 0.00714818 0.00622592 0.01960416 0.00132770 
0.01961582 0.03345553 0.00460868 0.00499640 0.00197104 0.00309692 0.00536812 0.00436106 0.02479888 0.00208888 0.00144719 0.06314919 0.00712567 0.00640899 0.01987105 0.00132889 
0.02018564 0.03454582 0.00451719 0.00515316 0.00197525 0.00306363 0.00536779 0.00435860 0.02468564 0.00210959 0.00145202 0.06462263 0.00710542 0.00659482 0.02013170 0.00132984 
0.02075134 0.03571124 0.00442840 0.00530417 0.00197855 0.00302833 0.00537419 0.00435925 0.02456100 0.00213024 0.00145809 0.06617744 0.00708775 0.00678265 0.02038539 0.00133055 
0.02131092 0.03695057 0.00434255 0.00544894 0.00198095 0.00299119 0.00538744 0.00436320 0.02442598 0.00215081 0.00146539 0.06780602 0.00707303 0.00697172 0.02063143 0.00133101 
0.02186242 0.03826224 0.00425984 0.00558697 0.00198244 0.00295239 0.00540759 0.00437062 0.02428163 0.00217126 0.00147390 0.06950036 0.00706159 0.00716123 0.02086917 0.00133121 
0.02240398 0.03964430 0.00418049 0.00571781 0.00198304 0.00291213 0.00543469 0.00438165 0.02412904 0.00219156 0.00148361 0.07125209 0.00705376 0.00735041 0.02109794 0.00133117 
0.02293380 0.04109447 0.00410468 0.00584104 0.00198275 0.00287059 0.00546875 0.00439640 0.02396931 0.00221168 0.00149448 0.07305254 0.00704989 0.00753845 0.02131715 0.00133086 
0.02345018 0.04261008 0.00403260 0.00595628 0.00198160 0.00282797 0.00550973 0.00441497 0.02380353 0.00223160 0.00150650 0.07489278 0.00705028 0.00772458 0.02152618 0.00133030 
0.02395150 0.04418811 0.00396442 0.00606319 0.00197959 0.00278447 0.00555756 0.00443740 0.02363282 0.00225129 0.00151963 0.07676369 0.00705524 0.00790799 0.02172449 0.00132949 
0.02443621 0.04582518 0.00390030 0.00616144 0.00197677 0.00274031 0.00561214 0.00446373 0.02345828 0.00227075 0.00153384 0.07865602 0.00706506 0.00808791 0.02191155 0.00132842 
0.02490286 0.04751754 0.00384038 0.00625076 0.00197316 0.00269569 0.00567333 0.00449396 0.02328103 0.00228995 0.00154910 0.08056042 0.00708000 0.00826358 0.02208687 0.00132710 
0.02535009 0.04926111 0.00378480 0.00633092 0.00196880 0.00265082 0.00574093 0.00452807 0.02310213 0.00230887 0.00156537 0.08246752 0.00710031 0.00843427 0.02225001 0.00132552 
0.02577663 0.05105146 0.00373367 0.00640173 0.00196372 0.00260592 0.00581473 0.00456602 0.02292266 0.00232752 0.00158261 0.08436799 0.00712622 0.00859924 0.02240054 0.00132370 
0.02618131 0.05288384 0.00368710 0.00646302 0.00195796 0.00256118 0.00589448 0.00460771 0.02274364 0.00234587 0.00160077 0.08625260 0.00715791 0.00875783 0.02253812 0.00132164 
0.02656301 0.05475319 0.00364517 0.00651470 0.00195158 0.00251683 0.00597987 0.00465305 0.02256609 0.00236392 0.00161980 0.08811225 0.00719557 0.00890937 0.02266241 0.00131934 
0.02692076 0.05665413 0.00360796 0.00655669 0.00194462 0.00247306 0.00607059 0.00470191 0.02239097 0.00238166 0.00163967 0.08993806 0.00723934 0.00905324 0.02277313 0.00131681 
0.02725363 0.05858103 0.00357553 0.00658896 0.00193713 0.00243008 0.00616627 0.00475414 0.02221920 0.00239910 0.00166031 0.09172141 0.00728931 0.00918889 0.02287007 0.00131406 
0.02756081 0.06052799 0.00354792 0.00661154 0.00192916 0.00238808 0.00626652 0.00480956 0.02205166 0.00241623 0.00168167 0.09345399 0.00734557 0.00931576 0.02295303 0.00131109 
0.02784157 0.06248888 0.00352514 0.00662448 0.00192077 0.00234725 0.00637091 0.00486797 0.02188918 0.00243305 0.00170370 0.09512786 0.00740816 0.00943339 0.02302189 0.00130791 
0.02809529 0.06445735 0.00350721 0.00662788 0.00191201 0.00230778 0.00647898 0.00492917 0.02173252 0.00244956 0.00172635 0.09673549 0.00747708 0.00954133 0.02307655 0.00130454 
0.02832142 0.06642689 0.00349412 0.00662188 0.00190295 0.00226984 0.00659026 0.00499292 0.02158241 0.00246576 0.00174955 0.09826980 0.00755231 0.00963922 0.02311698 0.00130098 
0.02851951 0.06839082 0.00348583 0.00660668 0.00189364 0.00223361 0.00670423 0.00505897 0.02143950 0.00248167 0.00177325 0.09972423 0.00763378 0.00972672 0.02314320 0.00129723 
0.02868921 0.07034232 0.00348230 0.00658248 0.00188415 0.00219923 0.00682037 0.00512705 0.02130438 0.00249728 0.00179739 0.10109275 0.00772139 0.00980357 0.02315526 0.00129332 
0.02883025 0.07227450 0.00348347 0.00654955 0.00187452 0.00216687 0.00693812 0.00519690 0.02117759 0.00251259 0.00182190 0.10236991 0.00781500 0.00986956 0.02315326 0.00128926 
0.02894246 0.07418040 0.00348925 0.00650819 0.00186484 0.00213665 0.00705691 0.00526821 0.02105959 0.00252763 0.00184674 0.10355087 0.00791443 0.00992453 0.02313737 0.00128505 
0.02902577 0.07605303 0.00349955 0.00645874 0.00185514 0.00210871 0.00717617 0.00534070 0.02095077 0.00254239 0.00187184 0.10463140 0.00801948 0.00996841 0.02310778 0.00128071 
0.02908019 0.07788539 0.00351423 0.00640155 0.00184551 0.00208316 0.00729528 0.00541406 0.02085148 0.00255687 0.00189714 0.10560797 0.00812990 0.01000116 0.02306473 0.00127624 
0.02910585 0.07967056 0.00353318 0.00633703 0.00183598 0.00206011 0.00741366 0.00548799 0.02076198 0.00257110 0.00192259 0.10647769 0.00824541 0.01002280 0.02300851 0.00127168 
0.02910293 0.08140164 0.00355624 0.00626561 0.00182663 0.00203965 0.00753069 0.00556218 0.02068248 0.00258506 0.00194814 0.10723839 0.00836571 0.01003342 0.02293944 0.00126702 
0.02907176 0.08307190 0.00358323 0.00618774 0.00181752 0.00202186 0.00764576 0.00563631 0.02061311 0.00259878 0.00197373 0.10788856 0.00849044 0.01003317 0.02285788 0.00126228 
0.02901273 0.08467471 0.00361397 0.00610391 0.00180869 0.00200680 0.00775825 0.00571008 0.02055395 0.00261225 0.00199931 0.10842745 0.00861925 0.01002225 0.02276422 0.00125747 
0.02892634 0.08620366 0.00364826 0.00601461 0.00180020 0.00199454 0.00786756 0.00578318 0.02050502 0.00262549 0.00202484 0.10885495 0.00875173 0.01000091 0.02265891 0.00125262 
0.02881317 0.08765251 0.00368589 0.00592037 0.00179210 0.00198510 0.00797308 0.00585531 0.02046627 0.00263850 0.00205028 0.10917169 0.00888748 0.00996947 0.02254239 0.00124772 
0.02867394 0.08901533 0.00372661 0.00582172 0.00178445 0.00197853 0.00807424 0.00592618 0.02043760 0.00265127 0.00207558 0.10937898 0.00902604 0.00992827 0.02241516 0.00124281 
0.02850943 0.09028644 0.00377019 0.00571922 0.00177730 0.00197483 0.00817044 0.00599550 0.02041886 0.00266383 0.00210071 0.10947879 0.00916696 0.00987772 0.02227773 0.00123789 
0.02832052 0.09146048 0.00381637 0.00561343 0.00177069 0.00197401 0.00826115 0.00606299 0.02040985 0.00267616 0.00212564 0.10947376 0.00930977 0.00981828 0.02213062 0.00123297 
0.02810821 0.09253247 0.00386488 0.00550493 0.00176466 0.00197606 0.00834581 0.00612840 0.02041031 0.00268827 0.00215035 0.10936714 0.00945398 0.00975042 0.02197440 0.00122807 
0.02787359 0.09349778 0.00391544 0.00539428 0.00175926 0.00198095 0.00842392 0.00619147 0.02041993 0.00270016 0.00217481 0.10916280 0.00959910 0.00967467 0.02180961 0.00122321 
0.02761785 0.09435221 0.00396776 0.00528207 0.00175452 0.00198865 0.00849500 0.00625196 0.02043839 0.00271183 0.00219901 0.10886516 0.00974462 0.00959160 0.02163685 0.00121839 
0.02734225 0.09509201 0.00402154 0.00516887 0.00175048 0.00199911 0.00855859 0.00630966 0.02046531 0.00272328 0.00222294 0.10847920 0.00989004 0.00950178 0.02145668 0.00121364 
0.02704819 0.09571388 0.00407650 0.00505525 0.00174717 0.00201228 0.00861428 0.00636435 0.02050026 0.00273450 0.00224661 0.10801036 0.01003486 0.00940583 0.02126970 0.00120896 
0.02673714 0.09621501 0.00413231 0.00494176 0.00174463 0.00202807 0.00866167 0.00641585 0.02054282 0.00274550 0.00227001 0.10746455 0.01017859 0.00930437 0.02107650 0.00120438 
0.02641066 0.09659310 0.00418867 0.00482897 0.00174287 0.00204643 0.00870042 0.00646400 0.02059252 0.00275625 0.00229315 0.10684809 0.01032073 0.00919807 0.02087766 0.00119989 
0.02607040 0.09684641 0.00424527 0.00471741 0.00174193 0.00206724 0.00873024 0.00650863 0.02064886 0.00276676 0.00231606 0.10616763 0.01046079 0.00908757 0.02067376 0.00119552 
0.02571812 0.09697371 0.00430181 0.00460759 0.00174181 0.00209042 0.00875086 0.00654962 0.02071134 0.00277702 0.00233875 0.10543017 0.01059833 0.00897354 0.02046537 0.00119128 
0.02535563 0.09697434 0.00435797 0.00450002 0.00174253 0.00211585 0.00876206 0.00658685 0.02077943 0.00278701 0.00236126 0.10464290 0.01073288 0.00885666 0.02025305 0.00118718 
0.02498485 0.09684823 0.00441345 0.00439518 0.00174411 0.00214341 0.00876369 0.00662022 0.02085259 0.00279673 0.00238362 0.10381327 0.01086402 0.00873758 0.02003734 0.00118323 
0.02460775 0.09659588 0.00446797 0.00429350 0.00174656 0.00217299 0.00875563 0.00664967 0.02093028 0.00280616 0.00240588 0.10294884 0.01099134 0.00861697 0.01981877 0.00117945 
0.02422639 0.09621839 0.00452123 0.00419543 0.00174987 0.00220445 0.00873780 0.00667514 0.02101196 0.00281528 0.00242809 0.10205726 0.01111447 0.00849549 0.01959784 0.00117583 
0.02384288 0.09571742 0.00457296 0.00410136 0.00175405 0.00223764 0.00871020 0.00669659 0.02109707 0.00282409 0.00245030 0.10114622 0.01123305 0.00837377 0.01937505 0.00117241 
0.02345941 0.09509524 0.00462290 0.00401164 0.00175909 0.00227243 0.00867287 0.00671400 0.02118506 0.00283257 0.00247258 0.10022338 0.01134676 0.00825242 0.01915085 0.00116917 
0.02307820 0.09435473 0.00467080 0.00392662 0.00176499 0.00230866 0.00862589 0.00672738 0.02127539 0.00284069 0.00249501 0.09929633 0.01145531 0.00813206 0.01892567 0.00116614 
0.02270152 0.09349930 0.00471644 0.00384657 0.00177174 0.00234619 0.00856940 0.00673675 0.02136752 0.00284845 0.00251764 0.09837250 0.01155845 0.00801325 0.01869992 0.00116333 
0.02233169 0.09253298 0.00475961 0.00377177 0.00177931 0.00238485 0.00850362 0.00674213 0.02146093 0.00285582 0.00254056 0.09745916 0.01165595 0.00789655 0.01847399 0.00116074 
0.02197103 0.09146031 0.00480011 0.00370243 0.00178768 0.00242448 0.00842878 0.00674359 0.02155511 0.00286278 0.00256386 0.09656334 0.01174763 0.00778246 0.01824822 0.00115837 
0.02162190 0.09028640 0.00483780 0.00363874 0.00179684 0.00246493 0.00834519 0.00674120 0.02164954 0.00286931 0.00258763 0.09569176 0.01183335 0.00767148 0.01802293 0.00115624 
0.02128668 0.08901689 0.00487253 0.00358084 0.00180675 0.00250601 0.00825321 0.00673504 0.02174375 0.00287540 0.00261194 0.09485084 0.01191300 0.00756404 0.01779842 0.00115436 
0.02096772 0.08765789 0.00490418 0.00352884 0.00181738 0.00254758 0.00815324 0.00672520 0.02183727 0.00288101 0.00263691 0.09404659 0.01198650 0.00746057 0.01757494 0.00115272 
0.02066738 0.08621600 0.00493270 0.00348279 0.00182868 0.00258946 0.00804573 0.00671181 0.02192966 0.00288613 0.00266262 0.09328462 0.01205384 0.00736144 0.01735274 0.00115135 
0.02038799 0.08469827 0.00495801 0.00344274 0.00184063 0.00263150 0.00793118 0.00669499 0.02202049 0.00289075 0.00268917 0.09257009 0.01211501 0.00726699 0.01713201 0.00115023 
0.02013184 0.08311217 0.00498011 0.00340866 0.00185317 0.00267351 0.00781013 0.00667488 0.02210936 0.00289482 0.00271667 0.09190766 0.01217006 0.00717751 0.01691293 0.00114938 
0.01990120 0.08146553 0.00499903 0.00338051 0.00186624 0.00271536 0.00768318 0.00665162 0.02219588 0.00289834 0.00274520 0.09130148 0.01221907 0.00709325 0.01669565 0.00114879 
0.01969825 0.07976654 0.00501480 0.00335820 0.00187981 0.00275686 0.00755095 0.00662538 0.02227971 0.00290128 0.00277487 0.09075515 0.01226217 0.00701444 0.01648031 0.00114848 
0.01952512 0.07802369 0.00502752 0.00334160 0.00189379 0.00279788 0.00741411 0.00659632 0.02236050 0.00290363 0.00280576 0.09027173 0.01229950 0.00694125 0.01626701 0.00114844 
0.01938386 0.07624576 0.00503733 0.00333056 0.00190814 0.00283825 0.00727335 0.00656461 0.02243794 0.00290535 0.00283798 0.08985367 0.01233126 0.00687381 0.01605583 0.00114868 
0.01927642 0.07444171 0.00504438 0.00332488 0.00192279 0.00287783 0.00712939 0.00653045 0.02251176 0.00290644 0.00287160 0.08950284 0.01235766 0.00681223 0.01584685 0.00114920 
0.01920464 0.07262073 0.00504889 0.00332435 0.00193765 0.00291647 0.00698300 0.00649401 0.02258169 0.00290686 0.00290671 0.08922054 0.01237896 0.00675658 0.01564012 0.00115000 
0.01917027 0.07079209 0.00505109 0.00332872 0.00195267 0.00295404 0.00683495 0.00645549 0.02264749 0.00290660 0.00294340 0.08900743 0.01239543 0.00670688 0.01543567 0.00115108 
0.01917490 0.06896520 0.00505126 0.00333770 0.00196775 0.00299040 0.00668604 0.00641510 0.02270896 0.00290565 0.00298171 0.08886360 0.01240737 0.00666312 0.01523355 0.00115243 
0.01922000 0.06714945 0.00504974 0.00335100 0.00198283 0.00302543 0.00653709 0.00637302 0.02276591 0.00290398 0.00302173 0.08878853 0.01241511 0.00662529 0.01503378 0.00115407 
0.01930687 0.06535427 0.00504687 0.00336829 0.00199780 0.00305901 0.00638891 0.00632948 0.02281818 0.00290158 0.00306350 0.08878114 0.01241900 0.00659330 0.01483639 0.00115597 
0.01943668 0.06358900 0.00504306 0.00338923 0.00201259 0.00309103 0.00624233 0.00628467 0.02286561 0.00289844 0.00310707 0.08883978 0.01241940 0.00656709 0.01464139 0.00115816 
0.01961039 0.06186287 0.00503874 0.00341345 0.00202709 0.00312139 0.00609820 0.00623881 0.02290811 0.00289453 0.00315247 0.08896225 0.01241669 0.00654654 0.01444881 0.00116061 
0.01982882 0.06018495 0.00503436 0.00344060 0.00204123 0.00314998 0.00595734 0.00619210 0.02294555 0.00288985 0.00319972 0.08914583 0.01241127 0.00653153 0.01425869 0.00116332 
0.02009258 0.05856410 0.00503044 0.00347027 0.00205491 0.00317673 0.00582057 0.00614475 0.02297789 0.00288439 0.00324884 0.08938733 0.01240355 0.00652190 0.01407107 0.00116630 
0.02040207 0.05700891 0.00502750 0.00350209 0.00206802 0.00320156 0.00568871 0.00609699 0.02300504 0.00287813 0.00329982 0.08968309 0.01239393 0.00651752 0.01388600 0.00116954 
0.02075753 0.05552767 0.00502611 0.00353565 0.00208048 0.00322439 0.00556257 0.00604901 0.02302699 0.00287106 0.00335264 0.09002900 0.01238284 0.00651821 0.01370355 0.00117303 
0.02115895 0.05412830 0.00502684 0.00357056 0.00209217 0.00324517 0.00544291 0.00600103 0.02304370 0.00286318 0.00340728 0.09042060 0.01237069 0.00652380 0.01352380 0.00117676 
0.02160614 0.05281833 0.00503032 0.00360642 0.00210301 0.00326384 0.00533049 0.00595326 0.02305519 0.00285449 0.00346368 0.09085307 0.01235790 0.00653412 0.01334685 0.00118072 
0.02209867 0.05160484 0.00503716 0.00364284 0.00211290 0.00328038 0.00522605 0.00590590 0.02306147 0.00284497 0.00352180 0.09132129 0.01234489 0.00654899 0.01317283 0.00118492 
0.02263591 0.05049440 0.00504802 0.00367943 0.00212173 0.00329475 0.00513028 0.00585916 0.02306257 0.00283463 0.00358156 0.09181986 0.01233207 0.00656824 0.01300188 0.00118934 
0.02321701 0.04949308 0.00506356 0.00371583 0.00212941 0.00330692 0.00504383 0.00581325 0.02305854 0.00282347 0.00364287 0.09234321 0.01231984 0.00659172 0.01283418 0.00119397 
0.02384090 0.04860636 0.00508445 0.00375167 0.00213584 0.00331690 0.00496734 0.00576837 0.02304944 0.00281148 0.00370561 0.09288557 0.01230861 0.00661926 0.01266992 0.00119880 
0.02450629 0.04783914 0.00511137 0.00378659 0.00214092 0.00332469 0.00490136 0.00572471 0.02303535 0.00279867 0.00376968 0.09344107 0.01229875 0.00665072 0.01250932 0.00120382 
0.02521169 0.04719566 0.00514500 0.00382029 0.00214458 0.00333028 0.00484644 0.00568248 0.02301636 0.00278505 0.00383493 0.09400377 0.01229063 0.00668597 0.01235263 0.00120902 
0.02595540 0.04667953 0.00518602 0.00385243 0.00214672 0.00333372 0.00480306 0.00564187 0.02299257 0.00277062 0.00390121 0.09456772 0.01228460 0.00672490 0.01220012 0.00121439 
0.02673551 0.04629365 0.00523511 0.00388275 0.00214725 0.00333503 0.00477164 0.00560307 0.02296409 0.00275540 0.00396836 0.09512700 0.01228101 0.00676742 0.01205210 0.00121992 
0.02754994 0.04604024 0.00529291 0.00391098 0.00214610 0.00333425 0.00475256 0.00556628 0.02293105 0.00273938 0.00403619 0.09567576 0.01228017 0.00681343 0.01190889 0.00122559 
0.02839641 0.04592078 0.00536009 0.00393688 0.00214318 0.00333144 0.00474613 0.00553167 0.02289357 0.00272260 0.00410451 0.09620829 0.01228237 0.00686290 0.01177084 0.00123139 
0.02927246 0.04593602 0.00543726 0.00396024 0.00213844 0.00332666 0.00475261 0.00549944 0.02285180 0.00270506 0.00417310 0.09671904 0.01228790 0.00691579 0.01163833 0.00123731 
0.03017549 0.04608597 0.00552504 0.00398088 0.00213180 0.00331999 0.00477219 0.00546977 0.02280589 0.00268678 0.00424176 0.09720270 0.01229701 0.00697208 0.01151174 0.00124333 
0.03110275 0.04636990 0.00562398 0.00399867 0.00212322 0.00331151 0.00480500 0.00544284 0.02275599 0.00266778 0.00431024 0.09765419 0.01230993 0.00703178 0.01139150 0.00124944 
0.03205133 0.04678633 0.00573464 0.00401346 0.00211263 0.00330130 0.00485112 0.00541881 0.02270226 0.00264809 0.00437830 0.09806874 0.01232687 0.00709494 0.01127803 0.00125562 
0.03301824 0.04733303 0.00585751 0.00402519 0.00210000 0.00328947 0.00491055 0.00539787 0.02264487 0.00262774 0.00444569 0.09844193 0.01234802 0.00716159 0.01117178 0.00126185 
0.03400037 0.04800706 0.00599305 0.00403379 0.00208529 0.00327613 0.00498322 0.00538017 0.02258400 0.00260673 0.00451215 0.09876969 0.01237354 0.00723183 0.01107320 0.00126813 
0.03499453 0.04880475 0.00614167 0.00403925 0.00206847 0.00326139 0.00506902 0.00536588 0.02251981 0.00258512 0.00457740 0.09904835 0.01240357 0.00730575 0.01098276 0.00127443 
0.03599745 0.04972172 0.00630373 0.00404156 0.00204953 0.00324539 0.00516776 0.00535516 0.02245250 0.00256293 0.00464118 0.09927468 0.01243821 0.00738346 0.01090092 0.00128073 
0.03700585 0.05075295 0.00647954 0.00404077 0.00202846 0.00322824 0.00527918 0.00534815 0.02238224 0.00254019 0.00470321 0.09944590 0.01247756 0.00746510 0.01082817 0.00128702 
0.03801640 0.05189275 0.00666935 0.00403696 0.00200527 0.00321009 0.00540297 0.00534502 0.02230922 0.00251695 0.00476320 0.09955968 0.01252168 0.00755081 0.01076495 0.00129329 
0.03902577 0.05313480 0.00687334 0.00403022 0.00197995 0.00319108 0.00553876 0.00534589 0.02223361 0.00249324 0.00482088 0.09961421 0.01257061 0.00764076 0.01071174 0.00129951 
0.04003063 0.05447223 0.00709163 0.00402069 0.00195254 0.00317136 0.00568611 0.00535090 0.02215562 0.00246911 0.00487595 0.09960816 0.01262437 0.00773511 0.01066898 0.00130566 
0.04102773 0.05589762 0.00732427 0.00400852 0.00192307 0.00315107 0.00584452 0.00536017 0.02207541 0.00244460 0.00492816 0.09954070 0.01268295 0.00783404 0.01063712 0.00131174 
0.04201383 0.05740303 0.00757126 0.00399391 0.00189158 0.00313039 0.00601345 0.00537384 0.02199317 0.00241976 0.00497721 0.09941154 0.01274633 0.00793774 0.01061656 0.00131771 
0.04298580 0.05898009 0.00783249 0.00397706 0.00185812 0.00310945 0.00619231 0.00539200 0.02190908 0.00239463 0.00502284 0.09922088 0.01281445 0.00804639 0.01060770 0.00132357 
0.04394061 0.06062004 0.00810781 0.00395822 0.00182276 0.00308844 0.00638044 0.00541475 0.02182331 0.00236927 0.00506479 0.09896945 0.01288725 0.00816017 0.01061092 0.00132929 
0.04487532 0.06231375 0.00839698 0.00393763 0.00178557 0.00306750 0.00657714 0.00544219 0.02173605 0.00234374 0.00510281 0.09865847 0.01296462 0.00827925 0.01062655 0.00133487 
0.04578716 0.06405179 0.00869969 0.00391557 0.00174664 0.00304680 0.00678168 0.00547440 0.02164744 0.00231808 0.00513664 0.09828968 0.01304647 0.00840381 0.01065490 0.00134027 
0.04667352 0.06582453 0.00901555 0.00389235 0.00170608 0.00302650 0.00699328 0.00551145 0.02155767 0.00229236 0.00516607 0.09786526 0.01313266 0.00853399 0.01069625 0.00134549 
0.04753194 0.06762213 0.00934409 0.00386827 0.00166398 0.00300676 0.00721113 0.00555338 0.02146687 0.00226664 0.00519088 0.09738788 0.01322304 0.00866995 0.01075081 0.00135050 
0.04836019 0.06943466 0.00968478 0.00384365 0.00162046 0.00298775 0.00743438 0.00560025 0.02137521 0.00224098 0.00521087 0.09686065 0.01331744 0.00881180 0.01081880 0.00135530 
0.04915622 0.07125212 0.01003701 0.00381882 0.00157567 0.00296961 0.00766215 0.00565207 0.02128281 0.00221545 0.00522585 0.09628710 0.01341570 0.00895963 0.01090033 0.00135986 
0.04991822 0.07306452 0.01040007 0.00379413 0.00152972 0.00295249 0.00789355 0.00570887 0.02118982 0.00219011 0.00523566 0.09567115 0.01351760 0.00911353 0.01099553 0.00136418 
0.05064462 0.07486197 0.01077324 0.00376992 0.00148278 0.00293656 0.00812767 0.00577065 0.02109635 0.00216502 0.00524015 0.09501707 0.01362293 0.00927353 0.01110442 0.00136823 
0.05133408 0.07663469 0.01115567 0.00374654 0.00143499 0.00292193 0.00836357 0.00583737 0.02100252 0.00214026 0.00523920 0.09432949 0.01373147 0.00943964 0.01122702 0.00137200 
0.05198556 0.07837311 0.01154648 0.00372435 0.00138653 0.00290876 0.00860032 0.00590902 0.02090844 0.00211590 0.00523270 0.09361332 0.01384298 0.00961185 0.01136326 0.00137549 
0.05259823 0.08006793 0.01194472 0.00370368 0.00133757 0.00289716 0.00883696 0.00598554 0.02081419 0.00209201 0.00522058 0.09287372 0.01395719 0.00979010 0.01151305 0.00137867 
0.05317159 0.08171016 0.01234939 0.00368488 0.00128830 0.00288727 0.00907255 0.00606685 0.02071986 0.00206865 0.00520278 0.09211611 0.01407386 0.00997429 0.01167621 0.00138154 
0.05370539 0.08329120 0.01275942 0.00366829 0.00123889 0.00287918 0.00930616 0.00615288 0.02062554 0.00204592 0.00517926 0.09134608 0.01419269 0.01016427 0.01185254 0.00138409 
0.05419964 0.08480289 0.01317371 0.00365423 0.00118954 0.00287300 0.00953683 0.00624351 0.02053127 0.00202387 0.00515003 0.09056937 0.01431339 0.01035987 0.01204176 0.00138631 
0.05465468 0.08623756 0.01359111 0.00364302 0.00114046 0.00286882 0.00976365 0.00633862 0.02043712 0.00200258 0.00511508 0.08979184 0.01443567 0.01056086 0.01224356 0.00138818 
0.05507108 0.08758807 0.01401043 0.00363495 0.00109184 0.00286673 0.00998571 0.00643807 0.02034312 0.00198214 0.00507447 0.08901940 0.01455922 0.01076698 0.01245757 0.00138972 
0.05544970 0.08884790 0.01443045 0.00363031 0.00104390 0.00286678 0.01020213 0.00654169 0.02024932 0.00196260 0.00502827 0.08825801 0.01468371 0.01097790 0.01268336 0.00139090 
0.05579169 0.09001115 0.01484991 0.00362936 0.00099684 0.00286905 0.01041205 0.00664930 0.02015573 0.00194406 0.00497656 0.08751362 0.01480882 0.01119327 0.01292046 0.00139172 
0.05609841 0.09107258 0.01526756 0.00363236 0.00095087 0.00287357 0.01061462 0.00676071 0.02006238 0.00192657 0.00491947 0.08679212 0.01493420 0.01141268 0.01316835 0.00139219 
0.05637150 0.09202769 0.01568210 0.00363952 0.00090621 0.00288038 0.01080906 0.00687569 0.01996926 0.00191022 0.00485713 0.08609931 0.01505952 0.01163567 0.01342646 0.00139230 
0.05661284 0.09287269 0.01609226 0.00365105 0.00086307 0.00288950 0.01099459 0.00699402 0.01987638 0.00189507 0.00478972 0.08544087 0.01518442 0.01186177 0.01369420 0.00139204 
0.05682451 0.09360459 0.01649674 0.00366712 0.00082167 0.00290094 0.01117049 0.00711544 0.01978374 0.00188121 0.00471742 0.08482233 0.01530855 0.01209042 0.01397091 0.00139143 
0.05700880 0.09422115 0.01689426 0.00368789 0.00078219 0.00291469 0.01133608 0.00723968 0.01969133 0.00186869 0.00464045 0.08424898 0.01543153 0.01232104 0.01425591 0.00139047 
0.05716818 0.09472098 0.01728354 0.00371348 0.00074487 0.00293073 0.01149072 0.00736646 0.01959912 0.00185759 0.00455903 0.08372593 0.01555299 0.01255303 0.01454848 0.00138915 
0.05730530 0.09510345 0.01766334 0.00374399 0.00070988 0.00294904 0.01163382 0.00749549 0.01950711 0.00184797 0.00447343 0.08325798 0.01567257 0.01278572 0.01484787 0.00138748 
0.05742293 0.09536880 0.01803243 0.00377949 0.00067743 0.00296956 0.01176484 0.00762646 0.01941527 0.00183990 0.00438391 0.08284966 0.01578988 0.01301843 0.01515331 0.00138548 
0.05752399 0.09551803 0.01838960 0.00382002 0.00064771 0.00299225 0.01188328 0.00775905 0.01932360 0.00183344 0.00429077 0.08250517 0.01590455 0.01325044 0.01546400 0.00138315 
0.05761148 0.09555301 0.01873371 0.00386560 0.00062090 0.00301702 0.01198872 0.00789293 0.01923206 0.00182865 0.00419431 0.08222834 0.01601619 0.01348100 0.01577911 0.00138050 
0.05768847 0.09547635 0.01906365 0.00391621 0.00059717 0.00304380 0.01208077 0.00802777 0.01914065 0.00182559 0.00409485 0.08202266 0.01612442 0.01370933 0.01609780 0.00137754 
0.05775807 0.09529148 0.01937834 0.00397182 0.00057668 0.00307250 0.01215912 0.00816321 0.01904937 0.00182430 0.00399273 0.08189119 0.01622885 0.01393465 0.01641923 0.00137429 
0.05782343 0.09500255 0.01967679 0.00403234 0.00055959 0.00310301 0.01222348 0.00829892 0.01895821 0.00182484 0.00388829 0.08183661 0.01632911 0.01415613 0.01674253 0.00137075 
0.05788767 0.09461446 0.01995804 0.00409769 0.00054603 0.00313522 0.01227365 0.00843454 0.01886718 0.00182725 0.00378189 0.08186113 0.01642481 0.01437297 0.01706683 0.00136695 
0.05795389 0.09413279 0.02022122 0.00416775 0.00053613 0.00316900 0.01230949 0.00856971 0.01877630 0.00183157 0.00367389 0.08196656 0.01651560 0.01458432 0.01739125 0.00136290 
0.05802513 0.09356377 0.02046550 0.00424236 0.00053002 0.00320422 0.01233089 0.00870410 0.01868561 0.00183784 0.00356465 0.08215421 0.01660109 0.01478935 0.01771493 0.00135862 
0.05810432 0.09291423 0.02069015 0.00432136 0.00052778 0.00324073 0.01233783 0.00883735 0.01859515 0.00184609 0.00345455 0.08242497 0.01668094 0.01498722 0.01803699 0.00135413 
0.05819431 0.09219157 0.02089451 0.00440455 0.00052951 0.00327840 0.01233032 0.00896912 0.01850498 0.00185635 0.00334396 0.08277923 0.01675479 0.01517709 0.01835657 0.00134945 
0.05829778 0.09140368 0.02107799 0.00449171 0.00053527 0.00331705 0.01230843 0.00909908 0.01841519 0.00186864 0.00323325 0.08321692 0.01682231 0.01535814 0.01867280 0.00134461 
0.05841725 0.09055890 0.02124009 0.00458261 0.00054512 0.00335653 0.01227231 0.00922689 0.01832587 0.00188298 0.00312279 0.08373752 0.01688318 0.01552957 0.01898485 0.00133961 
0.05855506 0.08966595 0.02138039 0.00467699 0.00055910 0.00339669 0.01222214 0.00935225 0.01823714 0.00189938 0.00301295 0.08434003 0.01693708 0.01569057 0.01929187 0.00133450 
0.05871334 0.08873389 0.02149856 0.00477459 0.00057723 0.00343733 0.01215816 0.00947486 0.01814915 0.00191783 0.00290409 0.08502297 0.01698373 0.01584037 0.01959306 0.00132928 
0.05889396 0.08777203 0.02159434 0.00487512 0.00059951 0.00347831 0.01208065 0.00959442 0.01806205 0.00193835 0.00279655 0.08578446 0.01702285 0.01597823 0.01988761 0.00132399 
0.05909858 0.08678984 0.02166758 0.00497827 0.00062593 0.00351944 0.01198996 0.00971067 0.01797605 0.00196092 0.00269068 0.08662213 0.01705420 0.01610343 0.02017474 0.00131866 
0.05932857 0.08579695 0.02171821 0.00508375 0.00065645 0.00356056 0.01188647 0.00982336 0.01789135 0.00198553 0.00258682 0.08753323 0.01707755 0.01621529 0.02045369 0.00131330 
0.05958500 0.08480302 0.02174622 0.00519123 0.00069102 0.00360149 0.01177061 0.00993226 0.01780819 0.00201216 0.00248527 0.08851457 0.01709270 0.01631316 0.02072374 0.00130794 
0.05986867 0.08381768 0.02175172 0.00530038 0.00072958 0.00364207 0.01164285 0.01003716 0.01772684 0.00204079 0.00238635 0.08956261 0.01709947 0.01639644 0.02098417 0.00130262 
0.06018006 0.08285046 0.02173488 0.00541088 0.00077203 0.00368214 0.01150369 0.01013787 0.01764759 0.00207137 0.00229033 0.09067340 0.01709773 0.01646457 0.02123430 0.00129735 
0.06051934 0.08191075 0.02169595 0.00552239 0.00081828 0.00372152 0.01135368 0.01023422 0.01757075 0.00210388 0.00219749 0.09184269 0.01708737 0.01651705 0.02147347 0.00129217 
0.06088633 0.08100767 0.02163526 0.00563458 0.00086819 0.00376009 0.01119340 0.01032609 0.01749667 0.00213827 0.00210807 0.09306590 0.01706829 0.01655342 0.02170106 0.00128710 
0.06128055 0.08015005 0.02155323 0.00574712 0.00092163 0.00379767 0.01102345 0.01041336 0.01742571 0.00217447 0.00202231 0.09433815 0.01704048 0.01657326 0.02191646 0.00128216 
0.06170120 0.07934635 0.02145032 0.00585967 0.00097845 0.00383414 0.01084447 0.01049593 0.01735827 0.00221245 0.00194043 0.09565434 0.01700391 0.01657624 0.02211911 0.00127739 
0.06214713 0.07860460 0.02132708 0.00597192 0.00103846 0.00386937 0.01065712 0.01057376 0.01729476 0.00225212 0.00186260 0.09700910 0.01695862 0.01656206 0.02230847 0.00127280 
0.06261689 0.07793230 0.02118411 0.00608354 0.00110149 0.00390324 0.01046207 0.01064681 0.01723561 0.00229342 0.00178900 0.09839691 0.01690468 0.01653049 0.02248404 0.00126843 
0.06310870 0.07733642 0.02102209 0.00619423 0.00116732 0.00393563 0.01026002 0.01071507 0.01718128 0.00233626 0.00171976 0.09981207 0.01684221 0.01648137 0.02264534 0.00126429 
0.06362048 0.07682332 0.02084171 0.00630369 0.00123574 0.00396645 0.01005169 0.01077856 0.01713223 0.00238058 0.00165502 0.10124876 0.01677136 0.01641458 0.02279195 0.00126042 
0.06414987 0.07639870 0.02064375 0.00641163 0.00130652 0.00399562 0.00983778 0.01083732 0.01708896 0.00242627 0.00159487 0.10270108 0.01669234 0.01633010 0.02292345 0.00125682 
0.06469423 0.07606753 0.02042902 0.00651778 0.00137942 0.00402305 0.00961903 0.01089143 0.01705195 0.00247324 0.00153938 0.10416308 0.01660536 0.01622793 0.02303948 0.00125353 
0.06525063 0.07583406 0.02019836 0.00662188 0.00145418 0.00404869 0.00939616 0.01094098 0.01702172 0.00252140 0.00148861 0.10562881 0.01651073 0.01610816 0.02313971 0.00125057 
0.06581594 0.07570175 0.01995265 0.00672368 0.00153053 0.00407249 0.00916993 0.01098608 0.01699878 0.00257063 0.00144259 0.10709232 0.01640877 0.01597096 0.02322384 0.00124794 
0.06638680 0.07567327 0.01969279 0.00682297 0.00160821 0.00409442 0.00894104 0.01102687 0.01698365 0.00262083 0.00140131 0.10854776 0.01629984 0.01581654 0.02329163 0.00124568 
0.06695962 0.07575042 0.01941971 0.00691953 0.00168694 0.00411445 0.00871024 0.01106352 0.01697684 0.00267189 0.00136477 0.10998936 0.01618434 0.01564518 0.02334286 0.00124379 
0.06753069 0.07593419 0.01913436 0.00701317 0.00176642 0.00413257 0.00847824 0.01109620 0.01697885 0.00272369 0.00133293 0.11141150 0.01606274 0.01545723 0.02337734 0.00124229 
0.06809612 0.07622468 0.01883770 0.00710372 0.00184638 0.00414880 0.00824574 0.01112510 0.01699020 0.00277611 0.00130572 0.11280872 0.01593552 0.01525310 0.02339496 0.00124119 
0.06865191 0.07662115 0.01853068 0.00719104 0.00192651 0.00416315 0.00801345 0.01115043 0.01701138 0.00282902 0.00128307 0.11417578 0.01580321 0.01503325 0.02339563 0.00124050 
