0.01813487 0.00308451 0.00323814 0.00716038 0.00659775 0.01066218 0.00202932 0.00306093 0.00886388 0.00974445 0.00151668 0.00377125 0.00339263 0.00689253 0.00323282 0.00125896 
0.01790248 0.00307414 0.00325629 0.00714187 0.00652027 0.01055678 0.00202052 0.00307510 0.00897256 0.00964022 0.00152771 0.00374444 0.00346747 0.00674036 0.00319569 0.00126085 
0.01777734 0.00306848 0.00327039 0.00711558 0.00643208 0.01043469 0.00201251 0.00309011 0.00906965 0.00952381 0.00153752 0.00371768 0.00354060 0.00658561 0.00317021 0.00126274 
0.01775974 0.00306768 0.00328036 0.00708136 0.00633360 0.01029654 0.00200531 0.00310577 0.00915437 0.00939577 0.00154601 0.00369104 0.00361172 0.00642878 0.00315617 0.00126460 
0.01784953 0.00307187 0.00328611 0.00703910 0.00622530 0.01014301 0.00199889 0.00312189 0.00922600 0.00925667 0.00155305 0.00366454 0.00368052 0.00627036 0.00315326 0.00126641 
0.01804611 0.00308116 0.00328759 0.00698873 0.00610767 0.00997486 0.00199325 0.00313828 0.00928393 0.00910712 0.00155855 0.00363821 0.00374672 0.00611085 0.00316112 0.00126816 
0.01834846 0.00309565 0.00328477 0.00693023 0.00598127 0.00979290 0.00198836 0.00315476 0.00932765 0.00894778 0.00156241 0.00361206 0.00381005 0.00595072 0.00317936 0.00126982 
0.01875509 0.00311545 0.00327765 0.00686360 0.00584667 0.00959797 0.00198420 0.00317113 0.00935671 0.00877931 0.00156452 0.00358610 0.00387025 0.00579044 0.00320750 0.00127137 
0.01926408 0.00314062 0.00326625 0.00678892 0.00570447 0.00939098 0.00198073 0.00318722 0.00937081 0.00860243 0.00156482 0.00356033 0.00392707 0.00563045 0.00324501 0.00127279 
0.01987306 0.00317122 0.00325062 0.00670628 0.00555530 0.00917286 0.00197793 0.00320283 0.00936970 0.00841787 0.00156322 0.00353472 0.00398030 0.00547119 0.00329135 0.00127406 
0.02057923 0.00320728 0.00323085 0.00661582 0.00539983 0.00894458 0.00197576 0.00321778 0.00935329 0.00822636 0.00155968 0.00350924 0.00402974 0.00531307 0.00334590 0.00127516 
0.02137935 0.00324883 0.00320703 0.00651773 0.00523872 0.00870715 0.00197417 0.00323191 0.00932156 0.00802867 0.00155412 0.00348387 0.00407520 0.00515650 0.00340802 0.00127606 
0.02226975 0.00329586 0.00317931 0.00641223 0.00507266 0.00846158 0.00197312 0.00324504 0.00927462 0.00782557 0.00154653 0.00345856 0.00411653 0.00500185 0.00347703 0.00127676 
0.02324636 0.00334836 0.00314785 0.00629959 0.00490236 0.00820891 0.00197259 0.00325701 0.00921268 0.00761783 0.00153688 0.00343325 0.00415359 0.00484948 0.00355222 0.00127722 
0.02430470 0.00340628 0.00311284 0.00618010 0.00472854 0.00795022 0.00197252 0.00326768 0.00913607 0.00740624 0.00152516 0.00340789 0.00418626 0.00469972 0.00363287 0.00127742 
0.02543993 0.00346955 0.00307452 0.00605410 0.00455189 0.00768654 0.00197287 0.00327689 0.00904521 0.00719158 0.00151136 0.00338242 0.00421446 0.00455288 0.00371823 0.00127736 
0.02664682 0.00353810 0.00303313 0.00592196 0.00437315 0.00741896 0.00197361 0.00328452 0.00894064 0.00697461 0.00149552 0.00335676 0.00423812 0.00440925 0.00380755 0.00127700 
0.02791981 0.00361181 0.00298895 0.00578407 0.00419301 0.00714853 0.00197471 0.00329044 0.00882301 0.00675610 0.00147767 0.00333083 0.00425718 0.00426910 0.00390004 0.00127634 
0.02925301 0.00369054 0.00294231 0.00564088 0.00401218 0.00687631 0.00197613 0.00329454 0.00869306 0.00653681 0.00145785 0.00330457 0.00427164 0.00413267 0.00399494 0.00127536 
0.03064024 0.00377414 0.00289353 0.00549282 0.00383137 0.00660334 0.00197784 0.00329673 0.00855162 0.00631748 0.00143614 0.00327789 0.00428150 0.00400017 0.00409148 0.00127404 
0.03207506 0.00386243 0.00284299 0.00534040 0.00365123 0.00633065 0.00197983 0.00329692 0.00839963 0.00609883 0.00141260 0.00325072 0.00428679 0.00387180 0.00418891 0.00127237 
0.03355075 0.00395522 0.00279107 0.00518410 0.00347245 0.00605923 0.00198207 0.00329503 0.00823809 0.00588155 0.00138735 0.00322297 0.00428755 0.00374773 0.00428646 0.00127034 
0.03506043 0.00405226 0.00273820 0.00502445 0.00329566 0.00579006 0.00198457 0.00329101 0.00806810 0.00566633 0.00136050 0.00319458 0.00428387 0.00362810 0.00438340 0.00126793 
0.03659699 0.00415332 0.00268482 0.00486199 0.00312147 0.00552409 0.00198731 0.00328481 0.00789083 0.00545381 0.00133216 0.00316546 0.00427583 0.00351305 0.00447902 0.00126515 
0.03815322 0.00425812 0.00263137 0.00469726 0.00295049 0.00526223 0.00199031 0.00327639 0.00770751 0.00524462 0.00130249 0.00313556 0.00426357 0.00340267 0.00457263 0.00126197 
0.03972176 0.00436639 0.00257835 0.00453084 0.00278328 0.00500536 0.00199357 0.00326575 0.00751943 0.00503935 0.00127163 0.00310480 0.00424722 0.00329704 0.00466357 0.00125840 
0.04129519 0.00447780 0.00252626 0.00436329 0.00262036 0.00475430 0.00199712 0.00325287 0.00732793 0.00483856 0.00123977 0.00307313 0.00422694 0.00319623 0.00475122 0.00125443 
0.04286605 0.00459204 0.00247560 0.00419519 0.00246224 0.00450985 0.00200100 0.00323776 0.00713438 0.00464277 0.00120708 0.00304050 0.00420292 0.00310027 0.00483499 0.00125005 
0.04442687 0.00470876 0.00242690 0.00402710 0.00230939 0.00427274 0.00200524 0.00322044 0.00694021 0.00445248 0.00117375 0.00300687 0.00417534 0.00300919 0.00491433 0.00124528 
0.04597021 0.00482759 0.00238071 0.00385962 0.00216222 0.00404368 0.00200989 0.00320095 0.00674684 0.00426814 0.00114000 0.00297222 0.00414444 0.00292300 0.00498873 0.00124012 
0.04748872 0.00494818 0.00233756 0.00369330 0.00202114 0.00382329 0.00201502 0.00317934 0.00655572 0.00409016 0.00110604 0.00293653 0.00411043 0.00284168 0.00505773 0.00123456 
0.04897513 0.00507012 0.00229801 0.00352872 0.00188650 0.00361217 0.00202069 0.00315567 0.00636832 0.00391893 0.00107210 0.00289978 0.00407357 0.00276522 0.00512092 0.00122861 
0.05042235 0.00519304 0.00226261 0.00336643 0.00175859 0.00341085 0.00202697 0.00313001 0.00618608 0.00375479 0.00103840 0.00286200 0.00403412 0.00269357 0.00517794 0.00122229 
0.05182345 0.00531652 0.00223191 0.00320697 0.00163770 0.00321981 0.00203396 0.00310243 0.00601043 0.00359803 0.00100520 0.00282318 0.00399234 0.00262669 0.00522849 0.00121560 
0.05317173 0.00544015 0.00220646 0.00305088 0.00152405 0.00303947 0.00204175 0.00307304 0.00584278 0.00344893 0.00097272 0.00278338 0.00394852 0.00256452 0.00527230 0.00120857 
0.05446074 0.00556352 0.00218681 0.00289866 0.00141784 0.00287020 0.00205044 0.00304194 0.00568452 0.00330771 0.00094123 0.00274264 0.00390295 0.00250698 0.00530917 0.00120120 
0.05568433 0.00568622 0.00217349 0.00275081 0.00131920 0.00271229 0.00206013 0.00300924 0.00553698 0.00317455 0.00091096 0.00270103 0.00385592 0.00245402 0.00533895 0.00119351 
0.05683667 0.00580783 0.00216701 0.00260780 0.00122824 0.00256600 0.00207095 0.00297507 0.00540144 0.00304961 0.00088217 0.00265861 0.00380773 0.00240554 0.00536156 0.00118553 
0.05791228 0.00592792 0.00216789 0.00247008 0.00114503 0.00243152 0.00208300 0.00293954 0.00527913 0.00293299 0.00085511 0.00261549 0.00375869 0.00236146 0.00537695 0.00117728 
0.05890608 0.00604611 0.00217660 0.00233807 0.00106959 0.00230899 0.00209641 0.00290280 0.00517120 0.00282477 0.00083002 0.00257178 0.00370911 0.00232170 0.00538514 0.00116879 
0.05981340 0.00616198 0.00219360 0.00221217 0.00100190 0.00219849 0.00211131 0.00286498 0.00507873 0.00272499 0.00080713 0.00252759 0.00365928 0.00228616 0.00538620 0.00116007 
0.06062999 0.00627514 0.00221934 0.00209274 0.00094193 0.00210004 0.00212781 0.00282624 0.00500273 0.00263366 0.00078669 0.00248307 0.00360951 0.00225476 0.00538025 0.00115117 
0.06135209 0.00638521 0.00225421 0.00198012 0.00088957 0.00201362 0.00214605 0.00278672 0.00494410 0.00255075 0.00076892 0.00243838 0.00356010 0.00222741 0.00536745 0.00114212 
0.06197642 0.00649183 0.00229860 0.00187463 0.00084471 0.00193915 0.00216615 0.00274658 0.00490364 0.00247620 0.00075403 0.00239367 0.00351135 0.00220403 0.00534804 0.00113294 
0.06250019 0.00659463 0.00235283 0.00177652 0.00080720 0.00187650 0.00218823 0.00270597 0.00488207 0.00240991 0.00074221 0.00234912 0.00346354 0.00218453 0.00532227 0.00112367 
0.06292115 0.00669329 0.00241722 0.00168605 0.00077684 0.00182550 0.00221241 0.00266505 0.00487998 0.00235179 0.00073367 0.00230494 0.00341694 0.00216884 0.00529045 0.00111436 
0.06323756 0.00678749 0.00249202 0.00160342 0.00075343 0.00178593 0.00223879 0.00262397 0.00489785 0.00230166 0.00072857 0.00226132 0.00337184 0.00215688 0.00525294 0.00110504 
0.06344823 0.00687694 0.00257744 0.00152879 0.00073672 0.00175753 0.00226748 0.00258290 0.00493607 0.00225937 0.00072707 0.00221847 0.00332847 0.00214860 0.00521011 0.00109575 
0.06355252 0.00696136 0.00267367 0.00146231 0.00072645 0.00174000 0.00229857 0.00254198 0.00499488 0.00222472 0.00072930 0.00217661 0.00328709 0.00214395 0.00516240 0.00108653 
0.06355035 0.00704051 0.00278082 0.00140408 0.00072232 0.00173299 0.00233214 0.00250137 0.00507440 0.00219750 0.00073538 0.00213598 0.00324792 0.00214286 0.00511025 0.00107742 
0.06344218 0.00711416 0.00289898 0.00135417 0.00072404 0.00173613 0.00236826 0.00246121 0.00517464 0.00217745 0.00074541 0.00209681 0.00321117 0.00214531 0.00505414 0.00106847 
0.06322902 0.00718212 0.00302815 0.00131259 0.00073127 0.00174902 0.00240699 0.00242166 0.00529547 0.00216432 0.00075946 0.00205933 0.00317704 0.00215127 0.00499458 0.00105972 
0.06291243 0.00724423 0.00316833 0.00127936 0.00074368 0.00177121 0.00244835 0.00238286 0.00543666 0.00215784 0.00077757 0.00202380 0.00314571 0.00216072 0.00493208 0.00105122 
0.06249450 0.00730034 0.00331941 0.00125442 0.00076092 0.00180225 0.00249237 0.00234493 0.00559782 0.00215772 0.00079978 0.00199045 0.00311732 0.00217365 0.00486720 0.00104301 
0.06197783 0.00735035 0.00348128 0.00123771 0.00078261 0.00184165 0.00253906 0.00230802 0.00577846 0.00216365 0.00082608 0.00195952 0.00309202 0.00219006 0.00480048 0.00103514 
0.06136554 0.00739416 0.00365372 0.00122912 0.00080839 0.00188890 0.00258838 0.00227224 0.00597797 0.00217531 0.00085645 0.00193126 0.00306992 0.00220996 0.00473247 0.00102764 
0.06066124 0.00743175 0.00383650 0.00122851 0.00083789 0.00194348 0.00264031 0.00223770 0.00619560 0.00219237 0.00089082 0.00190590 0.00305111 0.00223338 0.00466375 0.00102057 
0.05986898 0.00746308 0.00402931 0.00123571 0.00087073 0.00200485 0.00269477 0.00220452 0.00643049 0.00221450 0.00092913 0.00188368 0.00303568 0.00226035 0.00459487 0.00101396 
0.05899328 0.00748816 0.00423180 0.00125052 0.00090653 0.00207246 0.00275167 0.00217280 0.00668169 0.00224134 0.00097125 0.00186480 0.00302367 0.00229091 0.00452638 0.00100786 
0.05803904 0.00750703 0.00444354 0.00127271 0.00094491 0.00214575 0.00281092 0.00214262 0.00694813 0.00227256 0.00101706 0.00184950 0.00301512 0.00232512 0.00445885 0.00100231 
0.05701158 0.00751976 0.00466408 0.00130202 0.00098551 0.00222416 0.00287236 0.00211406 0.00722861 0.00230778 0.00106638 0.00183796 0.00301002 0.00236302 0.00439279 0.00099734 
0.05591654 0.00752645 0.00489290 0.00133817 0.00102796 0.00230711 0.00293584 0.00208721 0.00752189 0.00234666 0.00111904 0.00183038 0.00300836 0.00240468 0.00432875 0.00099300 
0.05475989 0.00752722 0.00512942 0.00138085 0.00107190 0.00239404 0.00300116 0.00206212 0.00782658 0.00238883 0.00117482 0.00182692 0.00301011 0.00245018 0.00426721 0.00098932 
0.05354787 0.00752223 0.00537304 0.00142973 0.00111699 0.00248439 0.00306812 0.00203884 0.00814127 0.00243392 0.00123347 0.00182775 0.00301520 0.00249960 0.00420865 0.00098634 
0.05228699 0.00751164 0.00562309 0.00148446 0.00116289 0.00257758 0.00313647 0.00201743 0.00846442 0.00248158 0.00129473 0.00183300 0.00302357 0.00255300 0.00415353 0.00098408 
0.05098391 0.00749566 0.00587887 0.00154466 0.00120928 0.00267306 0.00320595 0.00199790 0.00879446 0.00253144 0.00135831 0.00184278 0.00303511 0.00261049 0.00410228 0.00098256 
0.04964551 0.00747451 0.00613963 0.00160994 0.00125586 0.00277029 0.00327627 0.00198030 0.00912975 0.00258315 0.00142391 0.00185721 0.00304970 0.00267214 0.00405529 0.00098183 
0.04827876 0.00744845 0.00640459 0.00167991 0.00130234 0.00286873 0.00334712 0.00196462 0.00946861 0.00263636 0.00149119 0.00187633 0.00306721 0.00273804 0.00401291 0.00098189 
0.04689070 0.00741772 0.00667295 0.00175414 0.00134844 0.00296786 0.00341816 0.00195087 0.00980930 0.00269072 0.00155981 0.00190022 0.00308748 0.00280827 0.00397548 0.00098277 
0.04548843 0.00738262 0.00694384 0.00183221 0.00139392 0.00306718 0.00348904 0.00193905 0.01015008 0.00274588 0.00162939 0.00192889 0.00311034 0.00288291 0.00394327 0.00098448 
0.04407903 0.00734345 0.00721643 0.00191367 0.00143854 0.00316618 0.00355938 0.00192915 0.01048917 0.00280151 0.00169957 0.00196234 0.00313561 0.00296204 0.00391654 0.00098704 
0.04266952 0.00730051 0.00748980 0.00199808 0.00148208 0.00326440 0.00362879 0.00192114 0.01082479 0.00285729 0.00176995 0.00200054 0.00316310 0.00304573 0.00389548 0.00099045 
0.04126684 0.00725414 0.00776307 0.00208499 0.00152435 0.00336140 0.00369686 0.00191498 0.01115517 0.00291289 0.00184013 0.00204345 0.00319258 0.00313404 0.00388028 0.00099471 
0.03987780 0.00720468 0.00803531 0.00217395 0.00156519 0.00345672 0.00376318 0.00191064 0.01147853 0.00296801 0.00190971 0.00209097 0.00322385 0.00322700 0.00387104 0.00099982 
0.03850902 0.00715246 0.00830561 0.00226449 0.00160443 0.00354998 0.00382731 0.00190806 0.01179312 0.00302235 0.00197827 0.00214299 0.00325668 0.00332468 0.00386786 0.00100579 
0.03716692 0.00709785 0.00857306 0.00235618 0.00164194 0.00364077 0.00388881 0.00190719 0.01209724 0.00307561 0.00204540 0.00219939 0.00329082 0.00342708 0.00387075 0.00101260 
0.03585765 0.00704120 0.00883672 0.00244855 0.00167763 0.00372875 0.00394725 0.00190798 0.01238922 0.00312753 0.00211069 0.00225999 0.00332604 0.00353421 0.00387973 0.00102024 
0.03458709 0.00698288 0.00909571 0.00254117 0.00171139 0.00381357 0.00400218 0.00191033 0.01266744 0.00317784 0.00217373 0.00232461 0.00336209 0.00364608 0.00389475 0.00102870 
0.03336079 0.00692324 0.00934913 0.00263360 0.00174317 0.00389493 0.00405315 0.00191420 0.01293034 0.00322629 0.00223412 0.00239302 0.00339873 0.00376263 0.00391571 0.00103795 
0.03218393 0.00686265 0.00959611 0.00272540 0.00177290 0.00397253 0.00409975 0.00191948 0.01317644 0.00327263 0.00229148 0.00246497 0.00343571 0.00388384 0.00394248 0.00104797 
0.03106132 0.00680147 0.00983580 0.00281617 0.00180056 0.00404612 0.00414153 0.00192609 0.01340436 0.00331665 0.00234542 0.00254020 0.00347277 0.00400962 0.00397490 0.00105874 
0.02999736 0.00674005 0.01006740 0.00290550 0.00182615 0.00411548 0.00417809 0.00193396 0.01361277 0.00335813 0.00239559 0.00261842 0.00350969 0.00413988 0.00401276 0.00107021 
0.02899601 0.00667875 0.01029012 0.00299299 0.00184965 0.00418039 0.00420903 0.00194297 0.01380048 0.00339688 0.00244165 0.00269930 0.00354622 0.00427450 0.00405583 0.00108236 
0.02806075 0.00661791 0.01050324 0.00307829 0.00187110 0.00424067 0.00423397 0.00195305 0.01396638 0.00343271 0.00248327 0.00278251 0.00358214 0.00441334 0.00410381 0.00109515 
0.02719463 0.00655785 0.01070605 0.00316103 0.00189054 0.00429618 0.00425258 0.00196409 0.01410949 0.00346547 0.00252018 0.00286768 0.00361721 0.00455621 0.00415642 0.00110853 
0.02640015 0.00649891 0.01089793 0.00324088 0.00190800 0.00434679 0.00426452 0.00197599 0.01422895 0.00349500 0.00255209 0.00295445 0.00365122 0.00470292 0.00421330 0.00112245 
0.02567936 0.00644139 0.01107829 0.00331752 0.00192357 0.00439239 0.00426951 0.00198865 0.01432403 0.00352118 0.00257879 0.00304242 0.00368398 0.00485323 0.00427411 0.00113688 
0.02503376 0.00638560 0.01124659 0.00339066 0.00193731 0.00443293 0.00426729 0.00200199 0.01439414 0.00354387 0.00260007 0.00313119 0.00371530 0.00500689 0.00433845 0.00115176 
0.02446435 0.00633181 0.01140238 0.00346003 0.00194930 0.00446834 0.00425767 0.00201589 0.01443881 0.00356300 0.00261576 0.00322034 0.00374499 0.00516361 0.00440591 0.00116703 
0.02397162 0.00628029 0.01154527 0.00352538 0.00195965 0.00449860 0.00424046 0.00203027 0.01445774 0.00357846 0.00262574 0.00330944 0.00377289 0.00532306 0.00447607 0.00118265 
0.02355551 0.00623129 0.01167491 0.00358649 0.00196846 0.00452371 0.00421555 0.00204503 0.01445076 0.00359021 0.00262993 0.00339807 0.00379887 0.00548489 0.00454848 0.00119854 
0.02321550 0.00618506 0.01179106 0.00364316 0.00197583 0.00454370 0.00418286 0.00206008 0.01441786 0.00359819 0.00262828 0.00348579 0.00382280 0.00564873 0.00462269 0.00121467 
0.02295051 0.00614180 0.01189352 0.00369523 0.00198189 0.00455861 0.00414240 0.00207533 0.01435919 0.00360236 0.00262078 0.00357217 0.00384455 0.00581418 0.00469824 0.00123095 
0.02275902 0.00610171 0.01198220 0.00374255 0.00198674 0.00456850 0.00409418 0.00209072 0.01427503 0.00360273 0.00260750 0.00365677 0.00386405 0.00598079 0.00477466 0.00124734 
0.02263901 0.00606497 0.01205706 0.00378499 0.00199051 0.00457346 0.00403832 0.00210615 0.01416584 0.00359930 0.00258850 0.00373917 0.00388122 0.00614811 0.00485146 0.00126377 
0.02258800 0.00603173 0.01211815 0.00382248 0.00199332 0.00457360 0.00397498 0.00212156 0.01403222 0.00359209 0.00256394 0.00381895 0.00389600 0.00631565 0.00492819 0.00128018 
0.02260310 0.00600214 0.01216558 0.00385493 0.00199529 0.00456903 0.00390438 0.00213689 0.01387493 0.00358114 0.00253399 0.00389570 0.00390836 0.00648290 0.00500436 0.00129652 
0.02268099 0.00597630 0.01219958 0.00388232 0.00199655 0.00455990 0.00382681 0.00215208 0.01369488 0.00356651 0.00249890 0.00396902 0.00391829 0.00664933 0.00507952 0.00131271 
0.02281798 0.00595432 0.01222040 0.00390463 0.00199720 0.00454636 0.00374263 0.00216708 0.01349313 0.00354828 0.00245892 0.00403854 0.00392580 0.00681440 0.00515321 0.00132870 
0.02301002 0.00593626 0.01222841 0.00392188 0.00199736 0.00452858 0.00365226 0.00218185 0.01327086 0.00352655 0.00241440 0.00410391 0.00393090 0.00697753 0.00522498 0.00134443 
0.02325275 0.00592218 0.01222404 0.00393410 0.00199715 0.00450676 0.00355620 0.00219635 0.01302943 0.00350142 0.00236570 0.00416480 0.00393365 0.00713814 0.00529440 0.00135984 
0.02354153 0.00591210 0.01220779 0.00394136 0.00199666 0.00448107 0.00345501 0.00221057 0.01277031 0.00347303 0.00231325 0.00422088 0.00393410 0.00729564 0.00536106 0.00137487 
0.02387145 0.00590605 0.01218022 0.00394375 0.00199599 0.00445174 0.00334930 0.00222449 0.01249508 0.00344152 0.00225749 0.00427190 0.00393235 0.00744943 0.00542457 0.00138949 
0.02423743 0.00590400 0.01214199 0.00394137 0.00199523 0.00441897 0.00323977 0.00223810 0.01220548 0.00340705 0.00219893 0.00431760 0.00392848 0.00759889 0.00548455 0.00140362 
0.02463417 0.00590592 0.01209377 0.00393436 0.00199448 0.00438300 0.00312719 0.00225140 0.01190333 0.00336981 0.00213812 0.00435776 0.00392262 0.00774343 0.00554066 0.00141722 
0.02505629 0.00591176 0.01203635 0.00392286 0.00199379 0.00434405 0.00301236 0.00226442 0.01159057 0.00332997 0.00207563 0.00439222 0.00391490 0.00788242 0.00559258 0.00143026 
0.02549829 0.00592144 0.01197051 0.00390706 0.00199324 0.00430236 0.00289617 0.00227717 0.01126922 0.00328775 0.00201207 0.00442084 0.00390546 0.00801527 0.00564000 0.00144268 
0.02595463 0.00593488 0.01189713 0.00388714 0.00199289 0.00425818 0.00277956 0.00228968 0.01094141 0.00324337 0.00194810 0.00444351 0.00389447 0.00814138 0.00568266 0.00145444 
0.02641978 0.00595195 0.01181711 0.00386331 0.00199278 0.00421175 0.00266351 0.00230201 0.01060930 0.00319706 0.00188438 0.00446018 0.00388210 0.00826016 0.00572033 0.00146552 
0.02688824 0.00597253 0.01173138 0.00383579 0.00199295 0.00416333 0.00254908 0.00231419 0.01027516 0.00314906 0.00182161 0.00447084 0.00386854 0.00837105 0.00575280 0.00147587 
0.02735459 0.00599647 0.01164094 0.00380481 0.00199342 0.00411315 0.00243734 0.00232630 0.00994128 0.00309963 0.00176052 0.00447552 0.00385397 0.00847349 0.00577990 0.00148547 
0.02781353 0.00602360 0.01154676 0.00377063 0.00199423 0.00406147 0.00232943 0.00233840 0.00961000 0.00304903 0.00170184 0.00447431 0.00383861 0.00856696 0.00580149 0.00149430 
0.02825992 0.00605374 0.01144989 0.00373351 0.00199537 0.00400854 0.00222651 0.00235058 0.00928369 0.00299754 0.00164631 0.00446731 0.00382265 0.00865095 0.00581746 0.00150234 
0.02868883 0.00608668 0.01135133 0.00369371 0.00199685 0.00395460 0.00212978 0.00236292 0.00896473 0.00294544 0.00159470 0.00445471 0.00380631 0.00872501 0.00582775 0.00150956 
0.02909556 0.00612221 0.01125214 0.00365151 0.00199865 0.00389990 0.00204046 0.00237552 0.00865549 0.00289302 0.00154778 0.00443672 0.00378980 0.00878869 0.00583230 0.00151596 
0.02947569 0.00616012 0.01115335 0.00360718 0.00200077 0.00384467 0.00195979 0.00238848 0.00835835 0.00284057 0.00150629 0.00441361 0.00377336 0.00884159 0.00583113 0.00152153 
0.02982511 0.00620014 0.01105599 0.00356102 0.00200316 0.00378914 0.00188902 0.00240192 0.00807565 0.00278838 0.00147099 0.00438567 0.00375718 0.00888335 0.00582425 0.00152627 
0.03014003 0.00624203 0.01096108 0.00351330 0.00200580 0.00373353 0.00182940 0.00241595 0.00780971 0.00273676 0.00144264 0.00435328 0.00374149 0.00891366 0.00581173 0.00153017 
0.03041706 0.00628554 0.01086961 0.00346433 0.00200865 0.00367807 0.00178219 0.00243069 0.00756278 0.00268601 0.00142196 0.00431681 0.00372650 0.00893225 0.00579366 0.00153324 
0.03065317 0.00633037 0.01078253 0.00341437 0.00201165 0.00362297 0.00174863 0.00244628 0.00733705 0.00263642 0.00140965 0.00427672 0.00371241 0.00893890 0.00577016 0.00153548 
0.03084576 0.00637625 0.01070080 0.00336372 0.00201475 0.00356842 0.00172994 0.00246284 0.00713465 0.00258830 0.00140641 0.00423347 0.00369942 0.00893342 0.00574139 0.00153691 
0.03099269 0.00642289 0.01062528 0.00331265 0.00201789 0.00351461 0.00172732 0.00248051 0.00695762 0.00254194 0.00141289 0.00418759 0.00368774 0.00891571 0.00570752 0.00153755 
0.03109223 0.00646999 0.01055683 0.00326144 0.00202099 0.00346172 0.00174195 0.00249943 0.00680788 0.00249763 0.00142970 0.00413961 0.00367752 0.00888569 0.00566876 0.00153740 
0.03114316 0.00651725 0.01049623 0.00321035 0.00202400 0.00340992 0.00177494 0.00251974 0.00668726 0.00245565 0.00145742 0.00409012 0.00366896 0.00884336 0.00562534 0.00153650 
0.03114470 0.00656436 0.01044422 0.00315963 0.00202683 0.00335936 0.00182737 0.00254158 0.00659746 0.00241627 0.00149660 0.00403972 0.00366219 0.00878876 0.00557752 0.00153486 
0.03109659 0.00661101 0.01040145 0.00310954 0.00202940 0.00331020 0.00190026 0.00256508 0.00654005 0.00237978 0.00154771 0.00398905 0.00365738 0.00872199 0.00552556 0.00153252 
0.03099903 0.00665690 0.01036852 0.00306030 0.00203165 0.00326255 0.00199456 0.00259040 0.00651647 0.00234641 0.00161119 0.00393876 0.00365463 0.00864321 0.00546975 0.00152949 
0.03085272 0.00670172 0.01034596 0.00301214 0.00203348 0.00321654 0.00211116 0.00261766 0.00652798 0.00231642 0.00168743 0.00388952 0.00365407 0.00855263 0.00541041 0.00152583 
0.03065882 0.00674514 0.01033421 0.00296527 0.00203481 0.00317228 0.00225086 0.00264700 0.00657572 0.00229003 0.00177672 0.00384199 0.00365579 0.00845052 0.00534785 0.00152155 
0.03041900 0.00678688 0.01033364 0.00291988 0.00203557 0.00312985 0.00241438 0.00267855 0.00666064 0.00226746 0.00187934 0.00379688 0.00365987 0.00833720 0.00528241 0.00151670 
0.03013536 0.00682662 0.01034452 0.00287616 0.00203566 0.00308933 0.00260234 0.00271243 0.00678353 0.00224890 0.00199546 0.00375487 0.00366636 0.00821305 0.00521442 0.00151131 
0.02981046 0.00686407 0.01036706 0.00283425 0.00203503 0.00305080 0.00281526 0.00274876 0.00694499 0.00223453 0.00212522 0.00371663 0.00367530 0.00807851 0.00514422 0.00150542 
0.02944728 0.00689895 0.01040136 0.00279431 0.00203358 0.00301428 0.00305358 0.00278765 0.00714546 0.00222453 0.00226864 0.00368286 0.00368671 0.00793403 0.00507218 0.00149907 
0.02904921 0.00693096 0.01044743 0.00275646 0.00203124 0.00297984 0.00331758 0.00282922 0.00738517 0.00221902 0.00242572 0.00365421 0.00370059 0.00778016 0.00499862 0.00149230 
0.02862003 0.00695983 0.01050522 0.00272082 0.00202795 0.00294748 0.00360747 0.00287354 0.00766418 0.00221813 0.00259634 0.00363133 0.00371692 0.00761745 0.00492390 0.00148515 
0.02816385 0.00698531 0.01057455 0.00268748 0.00202364 0.00291722 0.00392333 0.00292071 0.00798237 0.00222196 0.00278034 0.00361484 0.00373566 0.00744651 0.00484837 0.00147766 
0.02768513 0.00700714 0.01065518 0.00265651 0.00201825 0.00288906 0.00426509 0.00297079 0.00833941 0.00223058 0.00297746 0.00360533 0.00375675 0.00726799 0.00477234 0.00146988 
0.02718860 0.00702508 0.01074678 0.00262798 0.00201173 0.00286298 0.00463258 0.00302386 0.00873479 0.00224405 0.00318738 0.00360337 0.00378011 0.00708258 0.00469616 0.00146183 
0.02667925 0.00703892 0.01084892 0.00260191 0.00200402 0.00283897 0.00502550 0.00307997 0.00916783 0.00226240 0.00340969 0.00360947 0.00380564 0.00689097 0.00462013 0.00145357 
0.02616229 0.00704845 0.01096109 0.00257832 0.00199509 0.00281697 0.00544341 0.00313915 0.00963764 0.00228563 0.00364391 0.00362412 0.00383322 0.00669390 0.00454455 0.00144513 
0.02564309 0.00705347 0.01108271 0.00255723 0.00198490 0.00279694 0.00588573 0.00320142 0.01014318 0.00231372 0.00388949 0.00364775 0.00386273 0.00649213 0.00446971 0.00143655 
0.02512718 0.00705382 0.01121311 0.00253861 0.00197343 0.00277883 0.00635177 0.00326681 0.01068322 0.00234664 0.00414580 0.00368072 0.00389402 0.00628643 0.00439586 0.00142787 
0.02462017 0.00704934 0.01135156 0.00252244 0.00196065 0.00276257 0.00684068 0.00333530 0.01125636 0.00238431 0.00441216 0.00372337 0.00392691 0.00607759 0.00432326 0.00141912 
0.02412772 0.00703991 0.01149725 0.00250867 0.00194656 0.00274807 0.00735151 0.00340688 0.01186106 0.00242665 0.00468780 0.00377595 0.00396123 0.00586639 0.00425213 0.00141033 
0.02365551 0.00702541 0.01164931 0.00249723 0.00193115 0.00273526 0.00788317 0.00348152 0.01249561 0.00247353 0.00497189 0.00383866 0.00399678 0.00565363 0.00418266 0.00140154 
0.02320916 0.00700575 0.01180682 0.00248805 0.00191442 0.00272404 0.00843442 0.00355917 0.01315816 0.00252482 0.00526354 0.00391163 0.00403337 0.00544010 0.00411504 0.00139278 
0.02279424 0.00698088 0.01196878 0.00248103 0.00189640 0.00271431 0.00900394 0.00363977 0.01384675 0.00258035 0.00556182 0.00399493 0.00407078 0.00522659 0.00404942 0.00138408 
0.02241618 0.00695074 0.01213419 0.00247608 0.00187710 0.00270597 0.00959026 0.00372324 0.01455926 0.00263993 0.00586573 0.00408854 0.00410878 0.00501388 0.00398593 0.00137546 
0.02208024 0.00691532 0.01230196 0.00247308 0.00185655 0.00269891 0.01019181 0.00380948 0.01529348 0.00270337 0.00617423 0.00419239 0.00414715 0.00480272 0.00392466 0.00136695 
0.02179148 0.00687463 0.01247099 0.00247190 0.00183480 0.00269301 0.01080692 0.00389839 0.01604711 0.00277044 0.00648622 0.00430631 0.00418565 0.00459385 0.00386568 0.00135857 
0.02155471 0.00682872 0.01264017 0.00247241 0.00181190 0.00268816 0.01143381 0.00398985 0.01681775 0.00284088 0.00680059 0.00443009 0.00422404 0.00438799 0.00380906 0.00135034 
0.02137447 0.00677763 0.01280833 0.00247446 0.00178789 0.00268424 0.01207060 0.00408371 0.01760294 0.00291443 0.00711617 0.00456341 0.00426208 0.00418581 0.00375480 0.00134228 
0.02125495 0.00672146 0.01297433 0.00247790 0.00176286 0.00268112 0.01271535 0.00417982 0.01840014 0.00299080 0.00743180 0.00470590 0.00429952 0.00398798 0.00370290 0.00133440 
0.02119999 0.00666033 0.01313701 0.00248258 0.00173686 0.00267870 0.01336603 0.00427801 0.01920679 0.00306971 0.00774625 0.00485711 0.00433614 0.00379510 0.00365334 0.00132672 
0.02121305 0.00659438 0.01329519 0.00248833 0.00170999 0.00267683 0.01402053 0.00437811 0.02002028 0.00315083 0.00805833 0.00501652 0.00437168 0.00360776 0.00360605 0.00131924 
0.02129717 0.00652378 0.01344773 0.00249498 0.00168232 0.00267542 0.01467671 0.00447991 0.02083798 0.00323385 0.00836680 0.00518354 0.00440592 0.00342649 0.00356095 0.00131199 
0.02145494 0.00644875 0.01359349 0.00250238 0.00165397 0.00267433 0.01533237 0.00458321 0.02165729 0.00331842 0.00867045 0.00535753 0.00443862 0.00325178 0.00351795 0.00130496 
0.02168846 0.00636949 0.01373138 0.00251035 0.00162502 0.00267344 0.01598527 0.00468779 0.02247558 0.00340420 0.00896805 0.00553776 0.00446957 0.00308407 0.00347692 0.00129816 
0.02199937 0.00628628 0.01386030 0.00251873 0.00159560 0.00267266 0.01663315 0.00479342 0.02329026 0.00349084 0.00925839 0.00572347 0.00449856 0.00292376 0.00343772 0.00129160 
0.02238879 0.00619939 0.01397923 0.00252734 0.00156580 0.00267187 0.01727373 0.00489986 0.02409880 0.00357798 0.00954030 0.00591382 0.00452539 0.00277118 0.00340020 0.00128527 
0.02285732 0.00610914 0.01408717 0.00253602 0.00153577 0.00267095 0.01790475 0.00500685 0.02489870 0.00366526 0.00981260 0.00610795 0.00454987 0.00262662 0.00336416 0.00127917 
0.02340502 0.00601587 0.01418319 0.00254462 0.00150561 0.00266982 0.01852393 0.00511414 0.02568752 0.00375231 0.01007416 0.00630495 0.00457182 0.00249033 0.00332943 0.00127331 
0.02403144 0.00591993 0.01426640 0.00255297 0.00147546 0.00266838 0.01912902 0.00522146 0.02646293 0.00383877 0.01032390 0.00650386 0.00459109 0.00236247 0.00329580 0.00126768 
0.02473556 0.00582173 0.01433598 0.00256094 0.00144545 0.00266655 0.01971783 0.00532853 0.02722265 0.00392428 0.01056076 0.00670370 0.00460752 0.00224318 0.00326307 0.00126228 
0.02551584 0.00572166 0.01439119 0.00256837 0.00141572 0.00266422 0.02028817 0.00543506 0.02796455 0.00400849 0.01078374 0.00690346 0.00462100 0.00213254 0.00323102 0.00125710 
0.02637020 0.00562018 0.01443136 0.00257513 0.00138640 0.00266135 0.02083793 0.00554079 0.02868657 0.00409104 0.01099189 0.00710214 0.00463140 0.00203056 0.00319941 0.00125213 
0.02729606 0.00551774 0.01445588 0.00258110 0.00135763 0.00265785 0.02136507 0.00564541 0.02938679 0.00417158 0.01118434 0.00729870 0.00463863 0.00193721 0.00316804 0.00124738 
0.02829030 0.00541481 0.01446425 0.00258617 0.00132956 0.00265366 0.02186763 0.00574863 0.03006343 0.00424979 0.01136026 0.00749212 0.00464263 0.00185242 0.00313668 0.00124282 
0.02934933 0.00531190 0.01445604 0.00259021 0.00130232 0.00264873 0.02234373 0.00585016 0.03071485 0.00432534 0.01151890 0.00768137 0.00464332 0.00177604 0.00310510 0.00123845 
0.03046908 0.00520951 0.01443091 0.00259315 0.00127605 0.00264301 0.02279160 0.00594970 0.03133953 0.00439792 0.01165958 0.00786546 0.00464068 0.00170792 0.00307310 0.00123426 
0.03164502 0.00510819 0.01438863 0.00259489 0.00125090 0.00263647 0.02320956 0.00604695 0.03193614 0.00446724 0.01178171 0.00804339 0.00463467 0.00164782 0.00304045 0.00123025 
0.03287222 0.00500848 0.01432904 0.00259537 0.00122698 0.00262907 0.02359606 0.00614163 0.03250349 0.00453301 0.01188477 0.00821423 0.00462531 0.00159547 0.00300698 0.00122640 
0.03414533 0.00491094 0.01425208 0.00259452 0.00120445 0.00262079 0.02394970 0.00623345 0.03304055 0.00459497 0.01196833 0.00837706 0.00461261 0.00155059 0.00297249 0.00122270 
0.03545868 0.00481612 0.01415781 0.00259230 0.00118343 0.00261162 0.02426918 0.00632211 0.03354647 0.00465288 0.01203204 0.00853101 0.00459661 0.00151283 0.00293681 0.00121915 
0.03680624 0.00472461 0.01404636 0.00258866 0.00116404 0.00260154 0.02455335 0.00640734 0.03402055 0.00470652 0.01207564 0.00867529 0.00457736 0.00148183 0.00289979 0.00121574 
0.03818170 0.00463697 0.01391796 0.00258360 0.00114640 0.00259055 0.02480124 0.00648886 0.03446228 0.00475567 0.01209896 0.00880913 0.00455494 0.00145717 0.00286129 0.00121245 
0.03957852 0.00455380 0.01377295 0.00257709 0.00113062 0.00257865 0.02501200 0.00656641 0.03487130 0.00480016 0.01210194 0.00893187 0.00452944 0.00143845 0.00282119 0.00120928 
0.04098994 0.00447567 0.01361175 0.00256915 0.00111683 0.00256586 0.02518494 0.00663972 0.03524742 0.00483983 0.01208457 0.00904291 0.00450097 0.00142522 0.00277942 0.00120623 
0.04240903 0.00440316 0.01343488 0.00255977 0.00110510 0.00255220 0.02531956 0.00670855 0.03559063 0.00487453 0.01204696 0.00914171 0.00446964 0.00141701 0.00273588 0.00120328 
0.04382877 0.00433682 0.01324295 0.00254900 0.00109555 0.00253768 0.02541551 0.00677267 0.03590106 0.00490417 0.01198931 0.00922785 0.00443561 0.00141334 0.00269054 0.00120043 
0.04524204 0.00427724 0.01303664 0.00253687 0.00108825 0.00252234 0.02547261 0.00683183 0.03617901 0.00492863 0.01191191 0.00930098 0.00439901 0.00141375 0.00264338 0.00119768 
0.04664170 0.00422494 0.01281674 0.00252342 0.00108327 0.00250621 0.02549084 0.00688584 0.03642494 0.00494787 0.01181511 0.00936086 0.00436002 0.00141773 0.00259440 0.00119502 
0.04802064 0.00418048 0.01258410 0.00250872 0.00108069 0.00248933 0.02547037 0.00693449 0.03663943 0.00496184 0.01169938 0.00940734 0.00431882 0.00142479 0.00254364 0.00119244 
0.04937179 0.00414435 0.01233966 0.00249284 0.00108056 0.00247173 0.02541153 0.00697760 0.03682321 0.00497051 0.01156526 0.00944038 0.00427559 0.00143445 0.00249114 0.00118995 
0.05068822 0.00411706 0.01208441 0.00247585 0.00108292 0.00245347 0.02531480 0.00701501 0.03697715 0.00497390 0.01141335 0.00946005 0.00423052 0.00144623 0.00243701 0.00118755 
0.05196313 0.00409907 0.01181941 0.00245785 0.00108782 0.00243460 0.02518086 0.00704655 0.03710223 0.00497204 0.01124436 0.00946651 0.00418383 0.00145965 0.00238136 0.00118523 
0.05318992 0.00409083 0.01154581 0.00243892 0.00109528 0.00241516 0.02501052 0.00707209 0.03719956 0.00496497 0.01105905 0.00946004 0.00413573 0.00147425 0.00232431 0.00118299 
0.05436225 0.00409274 0.01126476 0.00241917 0.00110530 0.00239522 0.02480475 0.00709153 0.03727032 0.00495277 0.01085824 0.00944104 0.00408644 0.00148960 0.00226604 0.00118085 
0.05547404 0.00410519 0.01097750 0.00239871 0.00111790 0.00237483 0.02456470 0.00710477 0.03731581 0.00493555 0.01064285 0.00940998 0.00403617 0.00150528 0.00220675 0.00117879 
0.05651954 0.00412853 0.01068530 0.00237766 0.00113306 0.00235404 0.02429162 0.00711173 0.03733740 0.00491341 0.01041381 0.00936748 0.00398516 0.00152089 0.00214664 0.00117682 
0.05749335 0.00416304 0.01038945 0.00235612 0.00115076 0.00233292 0.02398692 0.00711235 0.03733654 0.00488649 0.01017213 0.00931423 0.00393363 0.00153605 0.00208595 0.00117496 
0.05839046 0.00420901 0.01009128 0.00233423 0.00117097 0.00231152 0.02365216 0.00710660 0.03731473 0.00485494 0.00991886 0.00925103 0.00388181 0.00155043 0.00202494 0.00117320 
0.05920627 0.00426664 0.00979214 0.00231210 0.00119364 0.00228992 0.02328897 0.00709447 0.03727352 0.00481895 0.00965510 0.00917878 0.00382992 0.00156371 0.00196389 0.00117155 
0.05993666 0.00433612 0.00949339 0.00228986 0.00121871 0.00226815 0.02289914 0.00707597 0.03721450 0.00477870 0.00938196 0.00909846 0.00377819 0.00157562 0.00190309 0.00117002 
0.06057795 0.00441757 0.00919640 0.00226764 0.00124613 0.00224630 0.02248454 0.00705113 0.03713929 0.00473440 0.00910062 0.00901115 0.00372684 0.00158591 0.00184287 0.00116862 
0.06112698 0.00451108 0.00890253 0.00224557 0.00127580 0.00222441 0.02204714 0.00702001 0.03704950 0.00468627 0.00881224 0.00891800 0.00367608 0.00159437 0.00178353 0.00116735 
0.06158108 0.00461668 0.00861313 0.00222376 0.00130765 0.00220254 0.02158897 0.00698268 0.03694677 0.00463453 0.00851802 0.00882022 0.00362613 0.00160083 0.00172543 0.00116623 
0.06193814 0.00473434 0.00832956 0.00220235 0.00134156 0.00218076 0.02111215 0.00693924 0.03683273 0.00457943 0.00821916 0.00871909 0.00357719 0.00160515 0.00166890 0.00116526 
0.06219655 0.00486399 0.00805313 0.00218145 0.00137743 0.00215910 0.02061886 0.00688982 0.03670897 0.00452123 0.00791687 0.00861596 0.00352946 0.00160724 0.00161430 0.00116446 
0.06235529 0.00500550 0.00778512 0.00216117 0.00141514 0.00213764 0.02011131 0.00683456 0.03657707 0.00446018 0.00761235 0.00851222 0.00348312 0.00160703 0.00156199 0.00116383 
0.06241387 0.00515871 0.00752680 0.00214164 0.00145456 0.00211641 0.01959176 0.00677363 0.03643857 0.00439655 0.00730680 0.00840927 0.00343835 0.00160451 0.00151231 0.00116339 
0.06237234 0.00532337 0.00727937 0.00212295 0.00149555 0.00209547 0.01906248 0.00670722 0.03629495 0.00433062 0.00700140 0.00830858 0.00339531 0.00159968 0.00146562 0.00116314 
0.06223132 0.00549920 0.00704400 0.00210520 0.00153796 0.00207487 0.01852577 0.00663554 0.03614764 0.00426266 0.00669731 0.00821160 0.00335417 0.00159260 0.00142227 0.00116310 
0.06199197 0.00568588 0.00682180 0.00208849 0.00158165 0.00205464 0.01798391 0.00655882 0.03599802 0.00419295 0.00639566 0.00811982 0.00331506 0.00158335 0.00138261 0.00116328 
0.06165597 0.00588301 0.00661381 0.00207291 0.00162645 0.00203483 0.01743917 0.00647732 0.03584739 0.00412176 0.00609755 0.00803470 0.00327811 0.00157204 0.00134697 0.00116368 
0.06122551 0.00609017 0.00642102 0.00205853 0.00167220 0.00201548 0.01689381 0.00639131 0.03569696 0.00404939 0.00580404 0.00795769 0.00324345 0.00155883 0.00131566 0.00116432 
0.06070330 0.00630687 0.00624435 0.00204542 0.00171872 0.00199663 0.01635003 0.00630108 0.03554787 0.00397610 0.00551616 0.00789023 0.00321117 0.00154389 0.00128899 0.00116521 
0.06009251 0.00653260 0.00608461 0.00203364 0.00176584 0.00197830 0.01581000 0.00620694 0.03540118 0.00390216 0.00523487 0.00783372 0.00318137 0.00152742 0.00126725 0.00116634 
0.05939677 0.00676678 0.00594259 0.00202325 0.00181339 0.00196053 0.01527584 0.00610922 0.03525783 0.00382786 0.00496110 0.00778951 0.00315412 0.00150967 0.00125069 0.00116774 
0.05862015 0.00700883 0.00581895 0.00201429 0.00186118 0.00194336 0.01474958 0.00600826 0.03511870 0.00375344 0.00469572 0.00775889 0.00312949 0.00149087 0.00123957 0.00116940 
0.05776709 0.00725810 0.00571428 0.00200679 0.00190904 0.00192680 0.01423319 0.00590442 0.03498455 0.00367917 0.00443952 0.00774310 0.00310751 0.00147130 0.00123409 0.00117134 
0.05684244 0.00751392 0.00562908 0.00200078 0.00195677 0.00191088 0.01372856 0.00579806 0.03485604 0.00360529 0.00419327 0.00774330 0.00308824 0.00145125 0.00123445 0.00117355 
0.05585133 0.00777560 0.00556376 0.00199626 0.00200420 0.00189561 0.01323745 0.00568956 0.03473375 0.00353205 0.00395764 0.00776056 0.00307167 0.00143102 0.00124080 0.00117604 
0.05479925 0.00804242 0.00551864 0.00199326 0.00205114 0.00188103 0.01276157 0.00557933 0.03461813 0.00345967 0.00373325 0.00779587 0.00305782 0.00141093 0.00125328 0.00117882 
0.05369190 0.00831365 0.00549393 0.00199175 0.00209743 0.00186714 0.01230248 0.00546776 0.03450956 0.00338838 0.00352063 0.00785011 0.00304668 0.00139128 0.00127199 0.00118188 
0.05253523 0.00858854 0.00548977 0.00199173 0.00214287 0.00185397 0.01186164 0.00535525 0.03440831 0.00331837 0.00332027 0.00792406 0.00303822 0.00137240 0.00129698 0.00118523 
0.05133537 0.00886632 0.00550618 0.00199318 0.00218731 0.00184152 0.01144039 0.00524222 0.03431454 0.00324985 0.00313258 0.00801839 0.00303240 0.00135462 0.00132828 0.00118886 
0.05009860 0.00914624 0.00554309 0.00199605 0.00223056 0.00182980 0.01103993 0.00512908 0.03422835 0.00318300 0.00295787 0.00813365 0.00302918 0.00133826 0.00136588 0.00119276 
0.04883131 0.00942755 0.00560034 0.00200032 0.00227248 0.00181883 0.01066136 0.00501626 0.03414971 0.00311799 0.00279642 0.00827026 0.00302850 0.00132364 0.00140975 0.00119694 
0.04753993 0.00970948 0.00567768 0.00200594 0.00231290 0.00180860 0.01030561 0.00490417 0.03407855 0.00305498 0.00264841 0.00842854 0.00303027 0.00131105 0.00145980 0.00120139 
0.04623095 0.00999131 0.00577475 0.00201285 0.00235167 0.00179913 0.00997350 0.00479322 0.03401468 0.00299411 0.00251396 0.00860864 0.00303442 0.00130080 0.00151591 0.00120610 
0.04491081 0.01027231 0.00589113 0.00202098 0.00238867 0.00179042 0.00966571 0.00468384 0.03395786 0.00293552 0.00239311 0.00881062 0.00304084 0.00129317 0.00157792 0.00121106 
0.04358592 0.01055179 0.00602627 0.00203027 0.00242374 0.00178248 0.00938277 0.00457641 0.03390776 0.00287931 0.00228585 0.00903437 0.00304943 0.00128842 0.00164566 0.00121625 
0.04226259 0.01082910 0.00617956 0.00204065 0.00245677 0.00177529 0.00912508 0.00447135 0.03386401 0.00282560 0.00219207 0.00927969 0.00306008 0.00128680 0.00171888 0.00122168 
0.04094702 0.01110360 0.00635032 0.00205203 0.00248765 0.00176887 0.00889290 0.00436903 0.03382615 0.00277447 0.00211164 0.00954621 0.00307265 0.00128852 0.00179733 0.00122731 
0.03964522 0.01137470 0.00653776 0.00206433 0.00251627 0.00176320 0.00868637 0.00426985 0.03379370 0.00272600 0.00204432 0.00983346 0.00308703 0.00129379 0.00188072 0.00123314 
0.03836302 0.01164188 0.00674104 0.00207747 0.00254254 0.00175829 0.00850546 0.00417415 0.03376611 0.00268025 0.00198985 0.01014082 0.00310306 0.00130277 0.00196871 0.00123915 
0.03710602 0.01190463 0.00695924 0.00209135 0.00256637 0.00175413 0.00835005 0.00408230 0.03374282 0.00263728 0.00194789 0.01046757 0.00312062 0.00131560 0.00206095 0.00124532 
0.03587956 0.01216253 0.00719138 0.00210588 0.00258769 0.00175072 0.00821987 0.00399462 0.03372319 0.00259712 0.00191806 0.01081285 0.00313954 0.00133240 0.00215705 0.00125163 
0.03468869 0.01241521 0.00743641 0.00212096 0.00260645 0.00174804 0.00811452 0.00391142 0.03370660 0.00255979 0.00189991 0.01117571 0.00315968 0.00135325 0.00225659 0.00125805 
0.03353817 0.01266235 0.00769324 0.00213651 0.00262259 0.00174608 0.00803351 0.00383300 0.03369240 0.00252532 0.00189296 0.01155508 0.00318088 0.00137820 0.00235913 0.00126457 
0.03243242 0.01290373 0.00796072 0.00215241 0.00263608 0.00174484 0.00797622 0.00375964 0.03367991 0.00249371 0.00189670 0.01194979 0.00320299 0.00140726 0.00246422 0.00127115 
0.03137549 0.01313917 0.00823768 0.00216858 0.00264689 0.00174431 0.00794192 0.00369157 0.03366845 0.00246495 0.00191054 0.01235859 0.00322585 0.00144041 0.00257137 0.00127778 
0.03037110 0.01336857 0.00852287 0.00218493 0.00265500 0.00174446 0.00792978 0.00362903 0.03365736 0.00243902 0.00193390 0.01278014 0.00324929 0.00147760 0.00268008 0.00128442 
0.02942257 0.01359192 0.00881505 0.00220135 0.00266042 0.00174528 0.00793889 0.00357222 0.03364597 0.00241591 0.00196614 0.01321304 0.00327317 0.00151875 0.00278984 0.00129105 
0.02853281 0.01380929 0.00911294 0.00221777 0.00266316 0.00174676 0.00796824 0.00352131 0.03363361 0.00239556 0.00200662 0.01365580 0.00329734 0.00156373 0.00290013 0.00129763 
0.02770436 0.01402081 0.00941525 0.00223408 0.00266322 0.00174887 0.00801675 0.00347643 0.03361965 0.00237795 0.00205465 0.01410691 0.00332163 0.00161241 0.00301040 0.00130415 
0.02693933 0.01422670 0.00972066 0.00225022 0.00266065 0.00175159 0.00808326 0.00343772 0.03360347 0.00236302 0.00210955 0.01456480 0.00334590 0.00166458 0.00312013 0.00131057 
0.02623945 0.01442726 0.01002787 0.00226609 0.00265548 0.00175490 0.00816655 0.00340526 0.03358447 0.00235072 0.00217060 0.01502786 0.00337002 0.00172004 0.00322877 0.00131685 
0.02560601 0.01462287 0.01033558 0.00228163 0.00264776 0.00175877 0.00826535 0.00337911 0.03356209 0.00234098 0.00223709 0.01549449 0.00339384 0.00177855 0.00333578 0.00132297 
0.02503991 0.01481400 0.01064247 0.00229676 0.00263755 0.00176318 0.00837833 0.00335929 0.03353580 0.00233374 0.00230830 0.01596304 0.00341724 0.00183983 0.00344062 0.00132890 
0.02454166 0.01500117 0.01094728 0.00231142 0.00262492 0.00176809 0.00850413 0.00334581 0.03350511 0.00232892 0.00238352 0.01643190 0.00344009 0.00190359 0.00354278 0.00133460 
0.02411135 0.01518499 0.01124875 0.00232555 0.00260995 0.00177347 0.00864136 0.00333864 0.03346957 0.00232645 0.00246203 0.01689946 0.00346228 0.00196951 0.00364173 0.00134004 
0.02374872 0.01536614 0.01154563 0.00233910 0.00259272 0.00177928 0.00878861 0.00333771 0.03342877 0.00232624 0.00254312 0.01736412 0.00348370 0.00203724 0.00373698 0.00134520 
0.02345312 0.01554537 0.01183673 0.00235202 0.00257333 0.00178549 0.00894444 0.00334293 0.03338235 0.00232822 0.00262609 0.01782434 0.00350427 0.00210643 0.00382803 0.00135004 
0.02322355 0.01572348 0.01212091 0.00236427 0.00255186 0.00179206 0.00910741 0.00335419 0.03332999 0.00233228 0.00271025 0.01827861 0.00352389 0.00217669 0.00391442 0.00135453 
0.02305868 0.01590134 0.01239704 0.00237582 0.00252842 0.00179894 0.00927609 0.00337133 0.03327141 0.00233836 0.00279496 0.01872548 0.00354249 0.00224765 0.00399570 0.00135865 
0.02295684 0.01607987 0.01266408 0.00238664 0.00250313 0.00180609 0.00944904 0.00339418 0.03320640 0.00234634 0.00287956 0.01916356 0.00356000 0.00231890 0.00407147 0.00136236 
0.02291608 0.01626001 0.01292102 0.00239671 0.00247608 0.00181347 0.00962486 0.00342254 0.03313479 0.00235614 0.00296344 0.01959154 0.00357638 0.00239002 0.00414133 0.00136564 
0.02293417 0.01644278 0.01316692 0.00240601 0.00244741 0.00182101 0.00980214 0.00345618 0.03305644 0.00236767 0.00304599 0.02000820 0.00359158 0.00246061 0.00420492 0.00136847 
0.02300862 0.01662921 0.01340091 0.00241455 0.00241722 0.00182868 0.00997953 0.00349483 0.03297129 0.00238083 0.00312667 0.02041240 0.00360558 0.00253026 0.00426191 0.00137082 
0.02313670 0.01682034 0.01362219 0.00242232 0.00238563 0.00183641 0.01015569 0.00353823 0.03287931 0.00239552 0.00320493 0.02080310 0.00361836 0.00259854 0.00431202 0.00137266 
0.02331548 0.01701725 0.01383004 0.00242933 0.00235277 0.00184416 0.01032933 0.00358608 0.03278051 0.00241164 0.00328028 0.02117936 0.00362991 0.00266506 0.00435499 0.00137399 
0.02354185 0.01722101 0.01402379 0.00243559 0.00231875 0.00185185 0.01049922 0.00363805 0.03267495 0.00242911 0.00335226 0.02154036 0.00364024 0.00272941 0.00439060 0.00137478 
0.02381254 0.01743269 0.01420289 0.00244111 0.00228370 0.00185945 0.01066416 0.00369380 0.03256275 0.00244781 0.00342044 0.02188539 0.00364937 0.00279120 0.00441867 0.00137502 
0.02412414 0.01765336 0.01436685 0.00244592 0.00224774 0.00186688 0.01082302 0.00375299 0.03244405 0.00246766 0.00348443 0.02221385 0.00365733 0.00285007 0.00443907 0.00137469 
0.02447315 0.01788405 0.01451527 0.00245006 0.00221099 0.00187408 0.01097471 0.00381523 0.03231904 0.00248856 0.00354389 0.02252525 0.00366417 0.00290564 0.00445170 0.00137378 
0.02485598 0.01812578 0.01464782 0.00245354 0.00217356 0.00188100 0.01111823 0.00388015 0.03218796 0.00251040 0.00359849 0.02281925 0.00366994 0.00295759 0.00445651 0.00137229 
0.02526898 0.01837951 0.01476429 0.00245642 0.00213556 0.00188757 0.01125264 0.00394735 0.03205105 0.00253310 0.00364797 0.02309561 0.00367469 0.00300560 0.00445348 0.00137022 
0.02570848 0.01864617 0.01486453 0.00245873 0.00209710 0.00189374 0.01137706 0.00401643 0.03190862 0.00255654 0.00369210 0.02335421 0.00367851 0.00304938 0.00444266 0.00136755 
0.02617079 0.01892663 0.01494849 0.00246053 0.00205830 0.00189943 0.01149068 0.00408697 0.03176099 0.00258064 0.00373069 0.02359505 0.00368148 0.00308866 0.00442410 0.00136430 
0.02665226 0.01922166 0.01501621 0.00246185 0.00201925 0.00190460 0.01159278 0.00415857 0.03160852 0.00260529 0.00376359 0.02381826 0.00368369 0.00312321 0.00439793 0.00136046 
0.02714926 0.01953199 0.01506781 0.00246275 0.00198004 0.00190918 0.01168272 0.00423080 0.03145158 0.00263040 0.00379069 0.02402406 0.00368524 0.00315283 0.00436431 0.00135605 
0.02765824 0.01985826 0.01510349 0.00246328 0.00194077 0.00191311 0.01175991 0.00430325 0.03129057 0.00265587 0.00381191 0.02421279 0.00368623 0.00317735 0.00432343 0.00135107 
0.02817570 0.02020100 0.01512355 0.00246350 0.00190153 0.00191635 0.01182386 0.00437551 0.03112591 0.00268160 0.00382722 0.02438490 0.00368678 0.00319664 0.00427553 0.00134555 
0.02869828 0.02056064 0.01512836 0.00246347 0.00186239 0.00191885 0.01187416 0.00444715 0.03095804 0.00270749 0.00383662 0.02454093 0.00368700 0.00321059 0.00422088 0.00133950 
0.02922271 0.02093752 0.01511836 0.00246324 0.00182343 0.00192054 0.01191046 0.00451779 0.03078740 0.00273344 0.00384015 0.02468150 0.00368702 0.00321915 0.00415979 0.00133294 
0.02974588 0.02133184 0.01509408 0.00246288 0.00178472 0.00192140 0.01193250 0.00458702 0.03061445 0.00275935 0.00383789 0.02480733 0.00368696 0.00322228 0.00409261 0.00132589 
0.03026480 0.02174369 0.01505612 0.00246243 0.00174632 0.00192138 0.01194011 0.00465446 0.03043966 0.00278513 0.00382993 0.02491920 0.00368694 0.00322001 0.00401972 0.00131840 
0.03077668 0.02217304 0.01500512 0.00246196 0.00170829 0.00192044 0.01193316 0.00471974 0.03026350 0.00281067 0.00381642 0.02501796 0.00368710 0.00321238 0.00394152 0.00131048 
0.03127887 0.02261970 0.01494181 0.00246151 0.00167067 0.00191856 0.01191164 0.00478249 0.03008644 0.00283588 0.00379752 0.02510453 0.00368756 0.00319949 0.00385845 0.00130218 
0.03176893 0.02308339 0.01486697 0.00246115 0.00163351 0.00191571 0.01187556 0.00484239 0.02990896 0.00286064 0.00377342 0.02517984 0.00368845 0.00318145 0.00377097 0.00129353 
0.03224462 0.02356364 0.01478143 0.00246092 0.00159685 0.00191187 0.01182505 0.00489910 0.02973152 0.00288488 0.00374434 0.02524490 0.00368988 0.00315844 0.00367956 0.00128457 
0.03270387 0.02405988 0.01468606 0.00246087 0.00156072 0.00190703 0.01176028 0.00495233 0.02955458 0.00290847 0.00371053 0.02530071 0.00369198 0.00313065 0.00358472 0.00127535 
0.03314486 0.02457137 0.01458179 0.00246105 0.00152515 0.00190119 0.01168149 0.00500179 0.02937859 0.00293134 0.00367224 0.02534831 0.00369485 0.00309832 0.00348699 0.00126592 
0.03356595 0.02509725 0.01446955 0.00246150 0.00149015 0.00189435 0.01158899 0.00504722 0.02920401 0.00295337 0.00362976 0.02538872 0.00369862 0.00306172 0.00338688 0.00125632 
0.03396572 0.02563651 0.01435034 0.00246226 0.00145576 0.00188652 0.01148313 0.00508840 0.02903126 0.00297447 0.00358339 0.02542298 0.00370337 0.00302115 0.00328494 0.00124660 
0.03434298 0.02618801 0.01422514 0.00246336 0.00142197 0.00187771 0.01136434 0.00512511 0.02886074 0.00299454 0.00353344 0.02545209 0.00370920 0.00297693 0.00318173 0.00123683 
0.03469675 0.02675045 0.01409498 0.00246483 0.00138879 0.00186795 0.01123309 0.00515716 0.02869286 0.00301349 0.00348024 0.02547705 0.00371619 0.00292943 0.00307780 0.00122705 
0.03502624 0.02732242 0.01396087 0.00246669 0.00135624 0.00185727 0.01108989 0.00518440 0.02852798 0.00303123 0.00342413 0.02549879 0.00372442 0.00287902 0.00297371 0.00121733 
0.03533090 0.02790238 0.01382385 0.00246897 0.00132431 0.00184571 0.01093532 0.00520671 0.02836646 0.00304765 0.00336545 0.02551823 0.00373394 0.00282612 0.00287002 0.00120772 
0.03561037 0.02848868 0.01368494 0.00247167 0.00129300 0.00183333 0.01076998 0.00522397 0.02820862 0.00306269 0.00330455 0.02553621 0.00374481 0.00277115 0.00276727 0.00119827 
0.03586450 0.02907953 0.01354515 0.00247481 0.00126230 0.00182018 0.01059452 0.00523612 0.02805476 0.00307623 0.00324178 0.02555353 0.00375706 0.00271455 0.00266601 0.00118906 
0.03609331 0.02967306 0.01340547 0.00247839 0.00123221 0.00180632 0.01040961 0.00524312 0.02790515 0.00308822 0.00317750 0.02557088 0.00377071 0.00265679 0.00256677 0.00118013 
0.03629703 0.03026728 0.01326687 0.00248241 0.00120273 0.00179182 0.01021596 0.00524493 0.02776002 0.00309856 0.00311206 0.02558892 0.00378579 0.00259832 0.00247008 0.00117155 
0.03647604 0.03086015 0.01313030 0.00248686 0.00117384 0.00177677 0.01001430 0.00524159 0.02761958 0.00310718 0.00304583 0.02560821 0.00380228 0.00253963 0.00237642 0.00116337 
0.03663092 0.03144952 0.01299667 0.00249173 0.00114553 0.00176125 0.00980540 0.00523312 0.02748401 0.00311401 0.00297913 0.02562920 0.00382016 0.00248121 0.00228628 0.00115566 
0.03676237 0.03203319 0.01286683 0.00249699 0.00111780 0.00174536 0.00959001 0.00521959 0.02735343 0.00311899 0.00291232 0.02565227 0.00383941 0.00242353 0.00220013 0.00114847 
0.03687125 0.03260890 0.01274161 0.00250262 0.00109064 0.00172919 0.00936893 0.00520110 0.02722795 0.00312205 0.00284572 0.02567771 0.00385997 0.00236708 0.00211839 0.00114186 
0.03695854 0.03317436 0.01262178 0.00250859 0.00106404 0.00171285 0.00914295 0.00517777 0.02710762 0.00312314 0.00277966 0.02570569 0.00388179 0.00231234 0.00204148 0.00113587 
0.03702537 0.03372724 0.01250805 0.00251486 0.00103799 0.00169646 0.00891287 0.00514973 0.02699246 0.00312222 0.00271445 0.02573629 0.00390478 0.00225978 0.00196977 0.00113055 
0.03707293 0.03426520 0.01240109 0.00252138 0.00101250 0.00168012 0.00867949 0.00511717 0.02688245 0.00311923 0.00265038 0.02576949 0.00392886 0.00220986 0.00190361 0.00112596 
0.03710253 0.03478592 0.01230147 0.00252812 0.00098755 0.00166396 0.00844362 0.00508026 0.02677754 0.00311415 0.00258774 0.02580518 0.00395391 0.00216302 0.00184332 0.00112214 
0.03711556 0.03528705 0.01220973 0.00253501 0.00096315 0.00164810 0.00820604 0.00503923 0.02667761 0.00310696 0.00252679 0.02584313 0.00397983 0.00211970 0.00178919 0.00111912 
0.03711346 0.03576632 0.01212632 0.00254200 0.00093931 0.00163266 0.00796753 0.00499430 0.02658251 0.00309762 0.00246779 0.02588304 0.00400647 0.00208030 0.00174145 0.00111694 
0.03709774 0.03622146 0.01205162 0.00254902 0.00091603 0.00161778 0.00772888 0.00494573 0.02649207 0.00308613 0.00241097 0.02592449 0.00403369 0.00204521 0.00170032 0.00111563 
0.03706991 0.03665028 0.01198596 0.00255601 0.00089332 0.00160358 0.00749084 0.00489379 0.02640603 0.00307249 0.00235653 0.02596701 0.00406134 0.00201480 0.00166598 0.00111523 
0.03703154 0.03705065 0.01192956 0.00256289 0.00087120 0.00159018 0.00725413 0.00483875 0.02632413 0.00305670 0.00230468 0.02601002 0.00408925 0.00198938 0.00163855 0.00111575 
0.03698420 0.03742053 0.01188259 0.00256959 0.00084968 0.00157772 0.00701949 0.00478091 0.02624605 0.00303878 0.00225558 0.02605287 0.00411723 0.00196927 0.00161814 0.00111720 
0.03692944 0.03775796 0.01184514 0.00257603 0.00082879 0.00156631 0.00678759 0.00472059 0.02617142 0.00301875 0.00220939 0.02609486 0.00414512 0.00195474 0.00160480 0.00111960 
0.03686880 0.03806113 0.01181721 0.00258212 0.00080854 0.00155608 0.00655910 0.00465810 0.02609986 0.00299664 0.00216624 0.02613521 0.00417270 0.00194602 0.00159857 0.00112296 
0.03680379 0.03832830 0.01179873 0.00258779 0.00078898 0.00154715 0.00633464 0.00459377 0.02603091 0.00297250 0.00212624 0.02617312 0.00419979 0.00194332 0.00159941 0.00112727 
0.03673588 0.03855792 0.01178958 0.00259294 0.00077013 0.00153963 0.00611483 0.00452792 0.02596410 0.00294636 0.00208948 0.02620771 0.00422617 0.00194681 0.00160728 0.00113254 
0.03666647 0.03874854 0.01178954 0.00259749 0.00075203 0.00153362 0.00590022 0.00446091 0.02589892 0.00291830 0.00205602 0.02623810 0.00425163 0.00195660 0.00162208 0.00113873 
0.03659692 0.03889889 0.01179833 0.00260135 0.00073473 0.00152923 0.00569134 0.00439305 0.02583482 0.00288837 0.00202591 0.02626339 0.00427597 0.00197280 0.00164370 0.00114585 
0.03652848 0.03900787 0.01181561 0.00260442 0.00071826 0.00152655 0.00548869 0.00432470 0.02577123 0.00285666 0.00199917 0.02628267 0.00429897 0.00199544 0.00167196 0.00115386 
0.03646234 0.03907454 0.01184096 0.00260662 0.00070267 0.00152567 0.00529271 0.00425619 0.02570754 0.00282323 0.00197581 0.02629503 0.00432042 0.00202454 0.00170668 0.00116274 
0.03639957 0.03909816 0.01187392 0.00260785 0.00068802 0.00152665 0.00510382 0.00418785 0.02564313 0.00278819 0.00195580 0.02629957 0.00434011 0.00206007 0.00174764 0.00117244 
0.03634115 0.03907817 0.01191395 0.00260803 0.00067435 0.00152956 0.00492239 0.00412001 0.02557736 0.00275164 0.00193912 0.02629543 0.00435782 0.00210196 0.00179457 0.00118293 
0.03628794 0.03901420 0.01196049 0.00260706 0.00066173 0.00153446 0.00474875 0.00405299 0.02550954 0.00271366 0.00192570 0.02628178 0.00437336 0.00215011 0.00184719 0.00119416 
0.03624069 0.03890611 0.01201290 0.00260488 0.00065020 0.00154139 0.00458318 0.00398709 0.02543902 0.00267439 0.00191547 0.02625786 0.00438654 0.00220436 0.00190520 0.00120608 
0.03620001 0.03875392 0.01207052 0.00260138 0.00063983 0.00155039 0.00442592 0.00392263 0.02536511 0.00263392 0.00190834 0.02622295 0.00439715 0.00226454 0.00196827 0.00121863 
0.03616639 0.03855791 0.01213263 0.00259649 0.00063067 0.00156146 0.00427717 0.00385988 0.02528711 0.00259239 0.00190419 0.02617641 0.00440502 0.00233041 0.00203603 0.00123174 
0.03614019 0.03831852 0.01219851 0.00259014 0.00062279 0.00157462 0.00413710 0.00379913 0.02520435 0.00254992 0.00190291 0.02611770 0.00440998 0.00240174 0.00210813 0.00124536 
0.03612163 0.03803643 0.01226739 0.00258225 0.00061624 0.00158985 0.00400580 0.00374062 0.02511616 0.00250664 0.00190435 0.02604634 0.00441187 0.00247823 0.00218418 0.00125940 
0.03611078 0.03771251 0.01233848 0.00257276 0.00061107 0.00160715 0.00388335 0.00368460 0.02502186 0.00246269 0.00190837 0.02596200 0.00441055 0.00255956 0.00226376 0.00127379 
0.03610759 0.03734787 0.01241098 0.00256161 0.00060736 0.00162647 0.00376979 0.00363130 0.02492082 0.00241819 0.00191479 0.02586442 0.00440588 0.00264539 0.00234647 0.00128847 
0.03611186 0.03694377 0.01248409 0.00254875 0.00060514 0.00164776 0.00366508 0.00358092 0.02481242 0.00237329 0.00192344 0.02575349 0.00439775 0.00273534 0.00243190 0.00130333 
0.03612325 0.03650172 0.01255698 0.00253412 0.00060448 0.00167097 0.00356919 0.00353365 0.02469606 0.00232813 0.00193413 0.02562923 0.00438605 0.00282901 0.00251960 0.00131831 
0.03614130 0.03602340 0.01262887 0.00251769 0.00060542 0.00169601 0.00348202 0.00348964 0.02457120 0.00228284 0.00194668 0.02549176 0.00437070 0.00292598 0.00260916 0.00133332 
0.03616541 0.03551067 0.01269893 0.00249943 0.00060801 0.00172281 0.00340344 0.00344905 0.02443733 0.00223757 0.00196088 0.02534138 0.00435164 0.00302582 0.00270015 0.00134826 
0.03619485 0.03496558 0.01276639 0.00247931 0.00061229 0.00175126 0.00333329 0.00341200 0.02429400 0.00219245 0.00197652 0.02517851 0.00432882 0.00312806 0.00279214 0.00136306 
0.03622876 0.03439036 0.01283048 0.00245732 0.00061829 0.00178124 0.00327136 0.00337858 0.02414078 0.00214762 0.00199339 0.02500374 0.00430221 0.00323224 0.00288472 0.00137763 
0.03626619 0.03378738 0.01289045 0.00243345 0.00062605 0.00181263 0.00321743 0.00334887 0.02397734 0.00210321 0.00201128 0.02481777 0.00427180 0.00333788 0.00297746 0.00139188 
0.03630606 0.03315918 0.01294560 0.00240771 0.00063559 0.00184531 0.00317123 0.00332292 0.02380340 0.00205936 0.00202998 0.02462148 0.00423760 0.00344449 0.00306997 0.00140572 
0.03634720 0.03250844 0.01299525 0.00238011 0.00064692 0.00187911 0.00313247 0.00330078 0.02361874 0.00201620 0.00204926 0.02441590 0.00419964 0.00355159 0.00316186 0.00141907 
0.03638834 0.03183795 0.01303876 0.00235068 0.00066007 0.00191388 0.00310083 0.00328243 0.02342323 0.00197383 0.00206892 0.02420218 0.00415799 0.00365867 0.00325276 0.00143185 
0.03642813 0.03115063 0.01307554 0.00231944 0.00067503 0.00194946 0.00307598 0.00326788 0.02321681 0.00193239 0.00208873 0.02398162 0.00411270 0.00376525 0.00334231 0.00144399 
0.03646516 0.03044950 0.01310505 0.00228645 0.00069180 0.00198568 0.00305754 0.00325708 0.02299952 0.00189198 0.00210850 0.02375568 0.00406387 0.00387084 0.00343018 0.00145540 
0.03649793 0.02973767 0.01312680 0.00225177 0.00071037 0.00202236 0.00304513 0.00324998 0.02277146 0.00185271 0.00212801 0.02352593 0.00401161 0.00397497 0.00351605 0.00146602 
0.03652493 0.02901832 0.01314033 0.00221545 0.00073073 0.00205930 0.00303837 0.00324650 0.02253283 0.00181468 0.00214708 0.02329407 0.00395606 0.00407717 0.00359965 0.00147578 
0.03654458 0.02829469 0.01314529 0.00217759 0.00075284 0.00209633 0.00303682 0.00324653 0.02228394 0.00177798 0.00216549 0.02306190 0.00389737 0.00417699 0.00368069 0.00148462 
0.03655528 0.02757007 0.01314134 0.00213826 0.00077666 0.00213325 0.00304007 0.00324997 0.02202516 0.00174269 0.00218308 0.02283135 0.00383570 0.00427399 0.00375895 0.00149248 
0.03655542 0.02684775 0.01312822 0.00209758 0.00080216 0.00216987 0.00304769 0.00325668 0.02175700 0.00170890 0.00219966 0.02260442 0.00377125 0.00436776 0.00383421 0.00149932 
0.03654338 0.02613107 0.01310574 0.00205565 0.00082927 0.00220599 0.00305922 0.00326650 0.02148002 0.00167666 0.00221508 0.02238321 0.00370422 0.00445789 0.00390630 0.00150508 
0.03651758 0.02542335 0.01307378 0.00201260 0.00085794 0.00224141 0.00307422 0.00327926 0.02119491 0.00164605 0.00222916 0.02216987 0.00363484 0.00454403 0.00397506 0.00150974 
0.03647642 0.02472788 0.01303225 0.00196856 0.00088809 0.00227595 0.00309225 0.00329478 0.02090243 0.00161710 0.00224177 0.02196663 0.00356334 0.00462582 0.00404039 0.00151326 
0.03641836 0.02404793 0.01298117 0.00192368 0.00091964 0.00230942 0.00311286 0.00331287 0.02060345 0.00158987 0.00225278 0.02177573 0.00348997 0.00470294 0.00410218 0.00151562 
0.03634192 0.02338671 0.01292060 0.00187811 0.00095251 0.00234163 0.00313560 0.00333331 0.02029892 0.00156438 0.00226206 0.02159945 0.00341500 0.00477511 0.00416039 0.00151681 
0.03624567 0.02274737 0.01285066 0.00183200 0.00098659 0.00237241 0.00316004 0.00335588 0.01998987 0.00154067 0.00226950 0.02144007 0.00333871 0.00484207 0.00421498 0.00151681 
0.03612823 0.02213296 0.01277154 0.00178555 0.00102179 0.00240158 0.00318573 0.00338035 0.01967745 0.00151875 0.00227501 0.02129987 0.00326138 0.00490361 0.00426597 0.00151562 
0.03598835 0.02154647 0.01268349 0.00173892 0.00105798 0.00242898 0.00321227 0.00340650 0.01936284 0.00149862 0.00227850 0.02118110 0.00318331 0.00495952 0.00431340 0.00151326 
0.03582485 0.02099073 0.01258683 0.00169230 0.00109506 0.00245446 0.00323925 0.00343406 0.01904732 0.00148028 0.00227990 0.02108595 0.00310482 0.00500965 0.00435734 0.00150974 
0.03563665 0.02046847 0.01248191 0.00164589 0.00113289 0.00247787 0.00326626 0.00346281 0.01873223 0.00146373 0.00227915 0.02101657 0.00302621 0.00505388 0.00439788 0.00150508 
0.03542280 0.01998229 0.01236915 0.00159989 0.00117134 0.00249909 0.00329293 0.00349248 0.01841899 0.00144895 0.00227622 0.02097500 0.00294780 0.00509213 0.00443515 0.00149932 
0.03518249 0.01953462 0.01224903 0.00155452 0.00121027 0.00251800 0.00331890 0.00352282 0.01810904 0.00143591 0.00227107 0.02096321 0.00286992 0.00512435 0.00446931 0.00149248 
0.03491501 0.01912772 0.01212205 0.00150997 0.00124954 0.00253450 0.00334383 0.00355358 0.01780388 0.00142458 0.00226367 0.02098305 0.00279289 0.00515053 0.00450054 0.00148462 
0.03461982 0.01876370 0.01198878 0.00146646 0.00128900 0.00254849 0.00336739 0.00358452 0.01750505 0.00141492 0.00225403 0.02103623 0.00271703 0.00517068 0.00452905 0.00147578 
0.03429653 0.01844445 0.01184981 0.00142423 0.00132851 0.00255989 0.00338929 0.00361539 0.01721411 0.00140688 0.00224215 0.02112431 0.00264268 0.00518486 0.00455507 0.00146603 
0.03394488 0.01817170 0.01170577 0.00138347 0.00136790 0.00256867 0.00340925 0.00364594 0.01693266 0.00140040 0.00222805 0.02124870 0.00257016 0.00519317 0.00457885 0.00145543 
0.03356481 0.01794693 0.01155731 0.00134442 0.00140702 0.00257476 0.00342702 0.00367593 0.01666226 0.00139544 0.00221176 0.02141061 0.00249979 0.00519573 0.00460067 0.00144404 
0.03315640 0.01777144 0.01140513 0.00130728 0.00144571 0.00257814 0.00344238 0.00370515 0.01640452 0.00139191 0.00219332 0.02161107 0.00243189 0.00519269 0.00462081 0.00143194 
0.03271990 0.01764630 0.01124991 0.00127230 0.00148382 0.00257881 0.00345512 0.00373336 0.01616101 0.00138976 0.00217278 0.02185090 0.00236676 0.00518424 0.00463959 0.00141922 
0.03225575 0.01757235 0.01109240 0.00123966 0.00152119 0.00257677 0.00346508 0.00376036 0.01593327 0.00138891 0.00215021 0.02213071 0.00230472 0.00517060 0.00465731 0.00140595 
0.03176452 0.01755020 0.01093330 0.00120960 0.00155765 0.00257205 0.00347210 0.00378596 0.01572283 0.00138927 0.00212567 0.02245089 0.00224605 0.00515200 0.00467431 0.00139222 
0.03124701 0.01758021 0.01077335 0.00118231 0.00159306 0.00256468 0.00347607 0.00380995 0.01553115 0.00139077 0.00209924 0.02281156 0.00219105 0.00512872 0.00469092 0.00137812 
0.03070414 0.01766252 0.01061330 0.00115799 0.00162727 0.00255474 0.00347691 0.00383218 0.01535965 0.00139332 0.00207101 0.02321264 0.00213998 0.00510105 0.00470750 0.00136374 
0.03013703 0.01779702 0.01045385 0.00113685 0.00166012 0.00254228 0.00347454 0.00385247 0.01520968 0.00139683 0.00204107 0.02365376 0.00209312 0.00506929 0.00472437 0.00134918 
0.02954697 0.01798337 0.01029574 0.00111905 0.00169147 0.00252741 0.00346893 0.00387069 0.01508251 0.00140122 0.00200952 0.02413432 0.00205070 0.00503378 0.00474190 0.00133452 
0.02893538 0.01822096 0.01013967 0.00110479 0.00172119 0.00251022 0.00346007 0.00388669 0.01497933 0.00140639 0.00197648 0.02465347 0.00201296 0.00499486 0.00476042 0.00131987 
0.02830387 0.01850898 0.00998631 0.00109421 0.00174913 0.00249083 0.00344798 0.00390038 0.01490123 0.00141225 0.00194204 0.02521008 0.00198013 0.00495290 0.00478028 0.00130532 
0.02765419 0.01884635 0.00983633 0.00108748 0.00177518 0.00246939 0.00343271 0.00391165 0.01484918 0.00141871 0.00190632 0.02580278 0.00195241 0.00490826 0.00480180 0.00129096 
0.02698823 0.01923177 0.00969037 0.00108473 0.00179922 0.00244603 0.00341431 0.00392042 0.01482406 0.00142568 0.00186945 0.02642995 0.00192997 0.00486132 0.00482532 0.00127688 
0.02630804 0.01966372 0.00954903 0.00108608 0.00182113 0.00242091 0.00339289 0.00392662 0.01482661 0.00143306 0.00183154 0.02708972 0.00191300 0.00481247 0.00485113 0.00126317 
0.02561576 0.02014044 0.00941286 0.00109165 0.00184081 0.00239421 0.00336855 0.00393021 0.01485744 0.00144076 0.00179271 0.02777996 0.00190164 0.00476209 0.00487954 0.00124991 
0.02491369 0.02065997 0.00928241 0.00110154 0.00185817 0.00236608 0.00334144 0.00393116 0.01491704 0.00144870 0.00175309 0.02849833 0.00189603 0.00471058 0.00491082 0.00123719 
0.02420421 0.02122014 0.00915816 0.00111581 0.00187313 0.00233673 0.00331170 0.00392946 0.01500574 0.00145679 0.00171281 0.02924226 0.00189627 0.00465831 0.00494524 0.00122509 
0.02348981 0.02181857 0.00904055 0.00113454 0.00188562 0.00230635 0.00327952 0.00392510 0.01512373 0.00146495 0.00167199 0.03000897 0.00190246 0.00460568 0.00498303 0.00121367 
0.02277308 0.02245270 0.00892998 0.00115775 0.00189557 0.00227512 0.00324509 0.00391812 0.01527103 0.00147308 0.00163075 0.03079548 0.00191468 0.00455305 0.00502440 0.00120301 
0.02205667 0.02311980 0.00882680 0.00118548 0.00190294 0.00224325 0.00320863 0.00390855 0.01544752 0.00148112 0.00158922 0.03159863 0.00193297 0.00450079 0.00506955 0.00119317 
0.02134329 0.02381696 0.00873132 0.00121773 0.00190768 0.00221095 0.00317035 0.00389644 0.01565293 0.00148899 0.00154752 0.03241508 0.00195736 0.00444925 0.00511864 0.00118420 
0.02063571 0.02454113 0.00864378 0.00125449 0.00190977 0.00217841 0.00313049 0.00388186 0.01588681 0.00149661 0.00150576 0.03324137 0.00198788 0.00439877 0.00517180 0.00117615 
0.01993675 0.02528912 0.00856438 0.00129572 0.00190919 0.00214584 0.00308930 0.00386490 0.01614855 0.00150392 0.00146407 0.03407388 0.00202450 0.00434966 0.00522914 0.00116906 
0.01924923 0.02605759 0.00849328 0.00134135 0.00190594 0.00211345 0.00304704 0.00384566 0.01643740 0.00151086 0.00142256 0.03490890 0.00206719 0.00430223 0.00529073 0.00116297 
0.01857600 0.02684312 0.00843056 0.00139133 0.00190002 0.00208142 0.00300399 0.00382424 0.01675243 0.00151736 0.00138135 0.03574263 0.00211592 0.00425676 0.00535662 0.00115791 
0.01791989 0.02764217 0.00837629 0.00144555 0.00189146 0.00204996 0.00296040 0.00380078 0.01709256 0.00152336 0.00134053 0.03657119 0.00217060 0.00421351 0.00542680 0.00115390 
0.01728374 0.02845113 0.00833045 0.00150389 0.00188030 0.00201925 0.00291656 0.00377542 0.01745657 0.00152883 0.00130021 0.03739068 0.00223114 0.00417271 0.00550127 0.00115094 
0.01667033 0.02926633 0.00829300 0.00156622 0.00186656 0.00198946 0.00287276 0.00374829 0.01784307 0.00153370 0.00126049 0.03819716 0.00229744 0.00413457 0.00557996 0.00114904 
0.01608242 0.03008404 0.00826384 0.00163238 0.00185031 0.00196078 0.00282926 0.00371957 0.01825056 0.00153795 0.00122148 0.03898671 0.00236936 0.00409928 0.00566279 0.00114821 
0.01552270 0.03090050 0.00824283 0.00170220 0.00183161 0.00193335 0.00278636 0.00368941 0.01867736 0.00154153 0.00118325 0.03975542 0.00244674 0.00406699 0.00574962 0.00114843 
0.01499380 0.03171194 0.00822978 0.00177547 0.00181054 0.00190733 0.00274432 0.00365801 0.01912171 0.00154442 0.00114590 0.04049945 0.00252943 0.00403783 0.00584032 0.00114967 
0.01449825 0.03251459 0.00822447 0.00185199 0.00178720 0.00188285 0.00270343 0.00362553 0.01958170 0.00154658 0.00110951 0.04121502 0.00261724 0.00401190 0.00593468 0.00115193 
0.01403850 0.03330470 0.00822663 0.00193152 0.00176166 0.00186004 0.00266396 0.00359218 0.02005531 0.00154800 0.00107417 0.04189847 0.00270996 0.00398927 0.00603250 0.00115516 
0.01361690 0.03407855 0.00823598 0.00201381 0.00173404 0.00183901 0.00262616 0.00355815 0.02054045 0.00154866 0.00103993 0.04254625 0.00280737 0.00396997 0.00613352 0.00115932 
0.01323565 0.03483247 0.00825218 0.00209860 0.00170446 0.00181985 0.00259030 0.00352364 0.02103492 0.00154855 0.00100688 0.04315494 0.00290924 0.00395403 0.00623747 0.00116437 
0.01289684 0.03556289 0.00827487 0.00218562 0.00167304 0.00180263 0.00255662 0.00348886 0.02153643 0.00154766 0.00097509 0.04372133 0.00301531 0.00394143 0.00634404 0.00117027 
0.01260243 0.03626628 0.00830369 0.00227456 0.00163991 0.00178743 0.00252534 0.00345400 0.02204266 0.00154599 0.00094461 0.04424235 0.00312532 0.00393211 0.00645290 0.00117694 
0.01235421 0.03693926 0.00833822 0.00236512 0.00160520 0.00177429 0.00249671 0.00341929 0.02255121 0.00154355 0.00091549 0.04471518 0.00323898 0.00392601 0.00656371 0.00118433 
0.01215382 0.03757853 0.00837805 0.00245699 0.00156907 0.00176324 0.00247092 0.00338492 0.02305966 0.00154035 0.00088781 0.04513720 0.00335602 0.00392303 0.00667608 0.00119238 
0.01200271 0.03818096 0.00842274 0.00254983 0.00153165 0.00175430 0.00244817 0.00335110 0.02356556 0.00153639 0.00086161 0.04550605 0.00347612 0.00392305 0.00678964 0.00120100 
0.01190218 0.03874353 0.00847186 0.00264331 0.00149311 0.00174745 0.00242864 0.00331804 0.02406644 0.00153170 0.00083693 0.04581963 0.00359897 0.00392591 0.00690396 0.00121013 
0.01185333 0.03926343 0.00852496 0.00273709 0.00145360 0.00174269 0.00241251 0.00328593 0.02455984 0.00152629 0.00081383 0.04607610 0.00372425 0.00393144 0.00701863 0.00121970 
0.01185709 0.03973800 0.00858158 0.00283082 0.00141327 0.00173998 0.00239992 0.00325498 0.02504334 0.00152020 0.00079234 0.04627393 0.00385162 0.00393946 0.00713322 0.00122961 
0.01191417 0.04016477 0.00864128 0.00292415 0.00137230 0.00173926 0.00239100 0.00322538 0.02551452 0.00151345 0.00077251 0.04641189 0.00398076 0.00394974 0.00724728 0.00123979 
0.01202508 0.04054149 0.00870360 0.00301672 0.00133085 0.00174047 0.00238588 0.00319731 0.02597103 0.00150607 0.00075436 0.04648903 0.00411130 0.00396206 0.00736037 0.00125016 
0.01219016 0.04086613 0.00876812 0.00310817 0.00128908 0.00174353 0.00238465 0.00317096 0.02641058 0.00149812 0.00073795 0.04650475 0.00424292 0.00397618 0.00747205 0.00126064 
0.01240950 0.04113686 0.00883440 0.00319816 0.00124715 0.00174835 0.00238740 0.00314649 0.02683093 0.00148962 0.00072329 0.04645875 0.00437524 0.00399183 0.00758186 0.00127113 
0.01268302 0.04135211 0.00890202 0.00328632 0.00120524 0.00175482 0.00239418 0.00312408 0.02722997 0.00148063 0.00071041 0.04635107 0.00450793 0.00400874 0.00768937 0.00128157 
0.01301040 0.04151055 0.00897060 0.00337232 0.00116349 0.00176281 0.00240506 0.00310387 0.02760567 0.00147118 0.00069935 0.04618208 0.00464061 0.00402665 0.00779415 0.00129186 
0.01339114 0.04161112 0.00903973 0.00345580 0.00112208 0.00177221 0.00242007 0.00308602 0.02795611 0.00146134 0.00069014 0.04595245 0.00477295 0.00404525 0.00789578 0.00130194 
0.01382450 0.04165299 0.00910907 0.00353644 0.00108115 0.00178286 0.00243920 0.00307066 0.02827951 0.00145116 0.00068278 0.04566321 0.00490458 0.00406427 0.00799384 0.00131172 
0.01430957 0.04163562 0.00917828 0.00361392 0.00104087 0.00179463 0.00246248 0.00305791 0.02857423 0.00144069 0.00067732 0.04531569 0.00503515 0.00408341 0.00808796 0.00132113 
0.01484521 0.04155873 0.00924703 0.00368791 0.00100137 0.00180735 0.00248987 0.00304789 0.02883877 0.00143000 0.00067377 0.04491154 0.00516433 0.00410238 0.00817775 0.00133011 
0.01543010 0.04142234 0.00931504 0.00375812 0.00096280 0.00182086 0.00252134 0.00304070 0.02907179 0.00141914 0.00067214 0.04445272 0.00529176 0.00412090 0.00826289 0.00133858 
0.01606270 0.04122670 0.00938204 0.00382426 0.00092529 0.00183500 0.00255685 0.00303643 0.02927213 0.00140817 0.00067246 0.04394147 0.00541712 0.00413869 0.00834304 0.00134650 
0.01674132 0.04097240 0.00944779 0.00388606 0.00088898 0.00184960 0.00259633 0.00303516 0.02943881 0.00139718 0.00067473 0.04338033 0.00554008 0.00415547 0.00841792 0.00135379 
0.01746406 0.04066025 0.00951208 0.00394327 0.00085400 0.00186449 0.00263970 0.00303694 0.02957101 0.00138621 0.00067898 0.04277212 0.00566033 0.00417098 0.00848727 0.00136042 
0.01822884 0.04029138 0.00957473 0.00399564 0.00082045 0.00187950 0.00268688 0.00304184 0.02966812 0.00137533 0.00068522 0.04211991 0.00577756 0.00418498 0.00855087 0.00136633 
0.01903343 0.03986717 0.00963557 0.00404297 0.00078844 0.00189445 0.00273775 0.00304989 0.02972971 0.00136463 0.00069344 0.04142700 0.00589149 0.00419722 0.00860854 0.00137149 
0.01987544 0.03938928 0.00969448 0.00408505 0.00075808 0.00190918 0.00279222 0.00306110 0.02975557 0.00135415 0.00070367 0.04069692 0.00600183 0.00420750 0.00866011 0.00137586 
0.02075231 0.03885965 0.00975133 0.00412172 0.00072946 0.00192353 0.00285015 0.00307550 0.02974566 0.00134398 0.00071590 0.03993341 0.00610832 0.00421561 0.00870548 0.00137942 
0.02166137 0.03828045 0.00980606 0.00415281 0.00070267 0.00193733 0.00291142 0.00309308 0.02970017 0.00133418 0.00073014 0.03914039 0.00621073 0.00422137 0.00874458 0.00138214 
0.02259980 0.03765412 0.00985860 0.00417820 0.00067777 0.00195044 0.00297587 0.00311381 0.02961948 0.00132482 0.00074638 0.03832196 0.00630881 0.00422463 0.00877739 0.00138402 
0.02356467 0.03698334 0.00990892 0.00419778 0.00065483 0.00196272 0.00304337 0.00313768 0.02950417 0.00131597 0.00076462 0.03748233 0.00640235 0.00422526 0.00880392 0.00138504 
0.02455295 0.03627102 0.00995698 0.00421148 0.00063391 0.00197401 0.00311376 0.00316462 0.02935501 0.00130769 0.00078484 0.03662587 0.00649118 0.00422315 0.00882422 0.00138519 
0.02556149 0.03552029 0.01000279 0.00421923 0.00061505 0.00198422 0.00318688 0.00319459 0.02917298 0.00130005 0.00080705 0.03575702 0.00657511 0.00421821 0.00883841 0.00138450 
0.02658710 0.03473449 0.01004636 0.00422101 0.00059829 0.00199321 0.00326256 0.00322750 0.02895924 0.00129311 0.00083122 0.03488031 0.00665399 0.00421040 0.00884662 0.00138295 
0.02762647 0.03391716 0.01008773 0.00421681 0.00058367 0.00200089 0.00334064 0.00326328 0.02871515 0.00128694 0.00085732 0.03400031 0.00672770 0.00419968 0.00884904 0.00138057 
0.02867629 0.03307200 0.01012692 0.00420665 0.00057119 0.00200717 0.00342094 0.00330181 0.02844221 0.00128158 0.00088534 0.03312162 0.00679613 0.00418606 0.00884592 0.00137739 
0.02973315 0.03220291 0.01016398 0.00419057 0.00056087 0.00201198 0.00350330 0.00334300 0.02814213 0.00127711 0.00091525 0.03224885 0.00685920 0.00416957 0.00883750 0.00137342 
0.03079366 0.03131390 0.01019898 0.00416864 0.00055270 0.00201525 0.00358754 0.00338672 0.02781675 0.00127357 0.00094700 0.03138660 0.00691684 0.00415026 0.00882412 0.00136869 
0.03185438 0.03040913 0.01023196 0.00414095 0.00054668 0.00201694 0.00367350 0.00343282 0.02746808 0.00127100 0.00098056 0.03053941 0.00696903 0.00412821 0.00880612 0.00136325 
0.03291189 0.02949286 0.01026299 0.00410763 0.00054279 0.00201703 0.00376099 0.00348116 0.02709825 0.00126947 0.00101588 0.02971177 0.00701575 0.00410356 0.00878388 0.00135712 
0.03396276 0.02856946 0.01029212 0.00406881 0.00054100 0.00201549 0.00384986 0.00353159 0.02670954 0.00126900 0.00105290 0.02890807 0.00705701 0.00407642 0.00875782 0.00135036 
0.03500359 0.02764335 0.01031942 0.00402465 0.00054128 0.00201232 0.00393994 0.00358392 0.02630432 0.00126965 0.00109158 0.02813261 0.00709286 0.00404698 0.00872839 0.00134301 
0.03603102 0.02671902 0.01034493 0.00397534 0.00054357 0.00200755 0.00403106 0.00363798 0.02588506 0.00127143 0.00113183 0.02738956 0.00712335 0.00401543 0.00869607 0.00133512 
0.03704175 0.02580097 0.01036869 0.00392109 0.00054784 0.00200121 0.00412308 0.00369359 0.02545435 0.00127438 0.00117360 0.02668294 0.00714858 0.00398199 0.00866137 0.00132673 
0.03803251 0.02489373 0.01039075 0.00386212 0.00055402 0.00199333 0.00421583 0.00375053 0.02501481 0.00127853 0.00121679 0.02601660 0.00716864 0.00394689 0.00862480 0.00131791 
0.03900015 0.02400181 0.01041112 0.00379867 0.00056205 0.00198399 0.00430917 0.00380861 0.02456914 0.00128388 0.00126134 0.02539423 0.00718367 0.00391040 0.00858691 0.00130870 
0.03994155 0.02312968 0.01042983 0.00373100 0.00057184 0.00197327 0.00440296 0.00386761 0.02412009 0.00129046 0.00130714 0.02481931 0.00719383 0.00387282 0.00854826 0.00129916 
0.04085374 0.02228176 0.01044685 0.00365939 0.00058334 0.00196124 0.00449706 0.00392731 0.02367042 0.00129827 0.00135409 0.02429509 0.00719930 0.00383443 0.00850942 0.00128935 
0.04173382 0.02146239 0.01046219 0.00358412 0.00059644 0.00194802 0.00459134 0.00398748 0.02322292 0.00130731 0.00140210 0.02382464 0.00720026 0.00379555 0.00847096 0.00127931 
0.04257902 0.02067580 0.01047581 0.00350550 0.00061106 0.00193372 0.00468569 0.00404789 0.02278035 0.00131757 0.00145105 0.02341076 0.00719694 0.00375653 0.00843346 0.00126911 
0.04338670 0.01992613 0.01048766 0.00342383 0.00062711 0.00191847 0.00477999 0.00410830 0.02234548 0.00132906 0.00150083 0.02305602 0.00718958 0.00371771 0.00839750 0.00125879 
0.04415436 0.01921733 0.01049768 0.00333945 0.00064448 0.00190241 0.00487412 0.00416848 0.02192103 0.00134174 0.00155131 0.02276272 0.00717842 0.00367944 0.00836365 0.00124841 
0.04487962 0.01855323 0.01050579 0.00325268 0.00066308 0.00188568 0.00496800 0.00422817 0.02150968 0.00135560 0.00160237 0.02253293 0.00716374 0.00364209 0.00833248 0.00123801 
0.04556029 0.01793745 0.01051188 0.00316385 0.00068280 0.00186844 0.00506152 0.00428715 0.02111403 0.00137061 0.00165387 0.02236841 0.00714582 0.00360602 0.00830453 0.00122765 
0.04619430 0.01737341 0.01051586 0.00307330 0.00070353 0.00185085 0.00515460 0.00434516 0.02073664 0.00138673 0.00170567 0.02227068 0.00712495 0.00357160 0.00828034 0.00121736 
0.04677977 0.01686432 0.01051758 0.00298138 0.00072516 0.00183307 0.00524717 0.00440196 0.02037993 0.00140392 0.00175764 0.02224099 0.00710145 0.00353922 0.00826043 0.00120719 
0.04731498 0.01641314 0.01051692 0.00288843 0.00074757 0.00181529 0.00533915 0.00445732 0.02004626 0.00142214 0.00180962 0.02228029 0.00707563 0.00350923 0.00824528 0.00119717 
0.04779838 0.01602258 0.01051371 0.00279479 0.00077066 0.00179768 0.00543047 0.00451098 0.01973784 0.00144134 0.00186147 0.02238928 0.00704781 0.00348201 0.00823535 0.00118733 
0.04822861 0.01569507 0.01050779 0.00270079 0.00079430 0.00178041 0.00552109 0.00456271 0.01945679 0.00146145 0.00191304 0.02256837 0.00701833 0.00345791 0.00823107 0.00117772 
0.04860449 0.01543276 0.01049899 0.00260678 0.00081839 0.00176367 0.00561093 0.00461230 0.01920505 0.00148241 0.00196418 0.02281771 0.00698752 0.00343728 0.00823284 0.00116834 
0.04892501 0.01523749 0.01048713 0.00251308 0.00084281 0.00174762 0.00569997 0.00465950 0.01898444 0.00150417 0.00201473 0.02313718 0.00695572 0.00342045 0.00824102 0.00115924 
0.04918936 0.01511081 0.01047201 0.00242001 0.00086745 0.00173245 0.00578816 0.00470410 0.01879662 0.00152664 0.00206453 0.02352641 0.00692327 0.00340776 0.00825592 0.00115041 
0.04939690 0.01505393 0.01045345 0.00232789 0.00089219 0.00171832 0.00587546 0.00474589 0.01864307 0.00154974 0.00211343 0.02398477 0.00689049 0.00339950 0.00827783 0.00114189 
0.04954720 0.01506773 0.01043125 0.00223702 0.00091693 0.00170540 0.00596184 0.00478468 0.01852512 0.00157341 0.00216129 0.02451139 0.00685773 0.00339596 0.00830697 0.00113367 
0.04964000 0.01515277 0.01040524 0.00214768 0.00094157 0.00169385 0.00604727 0.00482026 0.01844390 0.00159754 0.00220794 0.02510515 0.00682531 0.00339742 0.00834354 0.00112576 
0.04967521 0.01530923 0.01037521 0.00206016 0.00096598 0.00168382 0.00613174 0.00485247 0.01840038 0.00162207 0.00225325 0.02576473 0.00679354 0.00340411 0.00838767 0.00111817 
0.04965296 0.01553698 0.01034101 0.00197472 0.00099009 0.00167546 0.00621520 0.00488113 0.01839531 0.00164689 0.00229706 0.02648857 0.00676275 0.00341626 0.00843947 0.00111089 
0.04957353 0.01583552 0.01030245 0.00189160 0.00101378 0.00166888 0.00629766 0.00490608 0.01842930 0.00167192 0.00233924 0.02727492 0.00673321 0.00343406 0.00849897 0.00110392 
0.04943738 0.01620401 0.01025939 0.00181105 0.00103697 0.00166423 0.00637908 0.00492720 0.01850272 0.00169706 0.00237964 0.02812184 0.00670524 0.00345768 0.00856619 0.00109725 
0.04924516 0.01664125 0.01021169 0.00173328 0.00105957 0.00166160 0.00645945 0.00494435 0.01861577 0.00172222 0.00241815 0.02902720 0.00667909 0.00348727 0.00864106 0.00109086 
0.04899767 0.01714571 0.01015922 0.00165849 0.00108149 0.00166110 0.00653875 0.00495742 0.01876847 0.00174729 0.00245464 0.02998871 0.00665502 0.00352292 0.00872350 0.00108474 
0.04869589 0.01771550 0.01010189 0.00158685 0.00110266 0.00166281 0.00661697 0.00496633 0.01896062 0.00177220 0.00248899 0.03100393 0.00663328 0.00356473 0.00881337 0.00107888 
0.04834095 0.01834841 0.01003962 0.00151853 0.00112301 0.00166679 0.00669408 0.00497098 0.01919186 0.00179683 0.00252109 0.03207027 0.00661409 0.00361274 0.00891047 0.00107326 
0.04793413 0.01904190 0.00997236 0.00145368 0.00114247 0.00167310 0.00677007 0.00497134 0.01946164 0.00182109 0.00255086 0.03318502 0.00659766 0.00366698 0.00901458 0.00106784 
0.04747689 0.01979310 0.00990008 0.00139241 0.00116098 0.00168178 0.00684490 0.00496735 0.01976922 0.00184490 0.00257819 0.03434536 0.00658417 0.00372742 0.00912543 0.00106263 
0.04697079 0.02059887 0.00982280 0.00133483 0.00117850 0.00169286 0.00691856 0.00495900 0.02011369 0.00186816 0.00260302 0.03554837 0.00657378 0.00379402 0.00924270 0.00105757 
0.04641756 0.02145574 0.00974053 0.00128103 0.00119496 0.00170633 0.00699101 0.00494628 0.02049398 0.00189078 0.00262527 0.03679105 0.00656665 0.00386671 0.00936606 0.00105267 
0.04581905 0.02235999 0.00965336 0.00123107 0.00121034 0.00172219 0.00706222 0.00492922 0.02090886 0.00191266 0.00264488 0.03807030 0.00656291 0.00394537 0.00949512 0.00104788 
0.04517723 0.02330764 0.00956139 0.00118501 0.00122461 0.00174042 0.00713214 0.00490785 0.02135693 0.00193374 0.00266181 0.03938300 0.00656264 0.00402987 0.00962948 0.00104318 
0.04449419 0.02429446 0.00946474 0.00114285 0.00123773 0.00176097 0.00720074 0.00488224 0.02183667 0.00195393 0.00267603 0.04072595 0.00656595 0.00412003 0.00976870 0.00103856 
0.04377215 0.02531599 0.00936360 0.00110463 0.00124970 0.00178380 0.00726796 0.00485245 0.02234641 0.00197315 0.00268751 0.04209594 0.00657289 0.00421566 0.00991232 0.00103399 
0.04301339 0.02636759 0.00925816 0.00107032 0.00126049 0.00180881 0.00733375 0.00481860 0.02288435 0.00199134 0.00269624 0.04348972 0.00658351 0.00431652 0.01005986 0.00102945 
0.04222034 0.02744444 0.00914866 0.00103990 0.00127012 0.00183594 0.00739804 0.00478079 0.02344860 0.00200842 0.00270222 0.04490405 0.00659783 0.00442237 0.01021083 0.00102492 
0.04139549 0.02854154 0.00903538 0.00101333 0.00127858 0.00186507 0.00746077 0.00473917 0.02403714 0.00202433 0.00270546 0.04633567 0.00661586 0.00453291 0.01036472 0.00102037 
0.04054143 0.02965379 0.00891862 0.00099054 0.00128589 0.00189609 0.00752184 0.00469390 0.02464786 0.00203903 0.00270600 0.04778134 0.00663759 0.00464784 0.01052102 0.00101581 
0.03966080 0.03077596 0.00879873 0.00097147 0.00129207 0.00192887 0.00758119 0.00464514 0.02527860 0.00205245 0.00270386 0.04923783 0.00666298 0.00476684 0.01067922 0.00101121 
0.03875635 0.03190274 0.00867607 0.00095603 0.00129715 0.00196327 0.00763872 0.00459311 0.02592708 0.00206455 0.00269910 0.05070196 0.00669201 0.00488953 0.01083879 0.00100656 
0.03783086 0.03302879 0.00855105 0.00094411 0.00130115 0.00199915 0.00769432 0.00453800 0.02659101 0.00207530 0.00269177 0.05217057 0.00672459 0.00501557 0.01099923 0.00100186 
0.03688720 0.03414870 0.00842408 0.00093559 0.00130413 0.00203632 0.00774790 0.00448005 0.02726802 0.00208466 0.00268195 0.05364055 0.00676068 0.00514455 0.01116003 0.00099712 
0.03592826 0.03525711 0.00829562 0.00093036 0.00130613 0.00207463 0.00779933 0.00441951 0.02795572 0.00209260 0.00266972 0.05510885 0.00680017 0.00527608 0.01132070 0.00099232 
0.03495700 0.03634864 0.00816615 0.00092827 0.00130720 0.00211389 0.00784849 0.00435663 0.02865169 0.00209911 0.00265516 0.05657249 0.00684298 0.00540972 0.01148077 0.00098747 
0.03397641 0.03741800 0.00803614 0.00092918 0.00130741 0.00215392 0.00789526 0.00429170 0.02935352 0.00210417 0.00263838 0.05802853 0.00688902 0.00554506 0.01163979 0.00098258 
0.03298950 0.03845996 0.00790612 0.00093293 0.00130682 0.00219452 0.00793950 0.00422499 0.03005878 0.00210778 0.00261949 0.05947412 0.00693816 0.00568166 0.01179731 0.00097767 
0.03199933 0.03946940 0.00777659 0.00093937 0.00130550 0.00223549 0.00798107 0.00415680 0.03076505 0.00210993 0.00259860 0.06090649 0.00699029 0.00581907 0.01195293 0.00097275 
0.03100897 0.04044134 0.00764809 0.00094832 0.00130354 0.00227664 0.00801981 0.00408745 0.03146994 0.00211063 0.00257584 0.06232296 0.00704530 0.00595684 0.01210629 0.00096784 
0.03002150 0.04137099 0.00752116 0.00095962 0.00130101 0.00231775 0.00805558 0.00401726 0.03217109 0.00210988 0.00255133 0.06372093 0.00710307 0.00609451 0.01225702 0.00096297 
0.02904003 0.04225369 0.00739631 0.00097308 0.00129800 0.00235862 0.00808821 0.00394654 0.03286619 0.00210771 0.00252522 0.06509788 0.00716348 0.00623165 0.01240483 0.00095815 
0.02806763 0.04308505 0.00727410 0.00098854 0.00129460 0.00239906 0.00811754 0.00387564 0.03355295 0.00210413 0.00249764 0.06645141 0.00722640 0.00636778 0.01254944 0.00095343 
0.02710742 0.04386089 0.00715503 0.00100581 0.00129091 0.00243885 0.00814341 0.00380488 0.03422919 0.00209917 0.00246875 0.06777920 0.00729172 0.00650248 0.01269061 0.00094884 
0.02616248 0.04457729 0.00703964 0.00102472 0.00128702 0.00247779 0.00816565 0.00373461 0.03489275 0.00209286 0.00243867 0.06907905 0.00735932 0.00663530 0.01282814 0.00094441 
0.02523587 0.04523064 0.00692841 0.00104507 0.00128303 0.00251570 0.00818409 0.00366518 0.03554157 0.00208524 0.00240758 0.07034885 0.00742909 0.00676581 0.01296187 0.00094019 
0.02433066 0.04581759 0.00682183 0.00106670 0.00127904 0.00255238 0.00819855 0.00359691 0.03617367 0.00207635 0.00237562 0.07158661 0.00750092 0.00689360 0.01309169 0.00093622 
0.02344987 0.04633516 0.00672037 0.00108944 0.00127515 0.00258764 0.00820886 0.00353014 0.03678714 0.00206623 0.00234293 0.07279044 0.00757472 0.00701824 0.01321752 0.00093253 
0.02259649 0.04678069 0.00662445 0.00111311 0.00127146 0.00262131 0.00821486 0.00346523 0.03738019 0.00205492 0.00230968 0.07395856 0.00765039 0.00713937 0.01333933 0.00092918 
0.02177348 0.04715187 0.00653448 0.00113754 0.00126808 0.00265322 0.00821639 0.00340248 0.03795111 0.00204248 0.00227601 0.07508932 0.00772783 0.00725659 0.01345711 0.00092622 
0.02098375 0.04744678 0.00645083 0.00116258 0.00126511 0.00268321 0.00821326 0.00334224 0.03849828 0.00202896 0.00224206 0.07618118 0.00780699 0.00736955 0.01357091 0.00092369 
0.02023016 0.04766388 0.00637383 0.00118807 0.00126264 0.00271113 0.00820534 0.00328480 0.03902021 0.00201442 0.00220799 0.07723270 0.00788777 0.00747791 0.01368081 0.00092164 
0.01951552 0.04780202 0.00630379 0.00121386 0.00126078 0.00273684 0.00819246 0.00323049 0.03951550 0.00199890 0.00217394 0.07824258 0.00797011 0.00758135 0.01378692 0.00092011 
0.01884255 0.04786046 0.00624096 0.00123982 0.00125961 0.00276021 0.00817448 0.00317958 0.03998285 0.00198247 0.00214003 0.07920963 0.00805397 0.00767958 0.01388940 0.00091917 
0.01821393 0.04783888 0.00618554 0.00126580 0.00125923 0.00278114 0.00815127 0.00313236 0.04042110 0.00196518 0.00210641 0.08013278 0.00813928 0.00777232 0.01398842 0.00091884 
0.01763224 0.04773736 0.00613770 0.00129170 0.00125974 0.00279952 0.00812271 0.00308910 0.04082916 0.00194710 0.00207319 0.08101109 0.00822600 0.00785933 0.01408421 0.00091919 
0.01709998 0.04755641 0.00609756 0.00131738 0.00126120 0.00281525 0.00808867 0.00305003 0.04120607 0.00192828 0.00204050 0.08184374 0.00831410 0.00794038 0.01417698 0.00092024 
0.01661957 0.04729695 0.00606518 0.00134275 0.00126369 0.00282827 0.00804905 0.00301540 0.04155097 0.00190878 0.00200845 0.08263004 0.00840353 0.00801527 0.01426701 0.00092205 
0.01619330 0.04696034 0.00604058 0.00136771 0.00126730 0.00283851 0.00800377 0.00298542 0.04186312 0.00188866 0.00197714 0.08336940 0.00849426 0.00808384 0.01435457 0.00092465 
0.01582339 0.04654832 0.00602373 0.00139218 0.00127208 0.00284592 0.00795276 0.00296027 0.04214187 0.00186797 0.00194667 0.08406139 0.00858627 0.00814592 0.01443996 0.00092807 
0.01551189 0.04606306 0.00601453 0.00141607 0.00127810 0.00285047 0.00789595 0.00294013 0.04238667 0.00184677 0.00191713 0.08470569 0.00867951 0.00820140 0.01452348 0.00093235 
0.01526079 0.04550710 0.00601286 0.00143933 0.00128539 0.00285214 0.00783331 0.00292514 0.04259707 0.00182512 0.00188860 0.08530211 0.00877397 0.00825020 0.01460545 0.00093751 
0.01507188 0.04488341 0.00601852 0.00146190 0.00129401 0.00285092 0.00776482 0.00291544 0.04277273 0.00180307 0.00186115 0.08585059 0.00886959 0.00829223 0.01468618 0.00094357 
0.01494685 0.04419528 0.00603129 0.00148373 0.00130399 0.00284682 0.00769048 0.00291111 0.04291338 0.00178066 0.00183483 0.08635118 0.00896635 0.00832746 0.01476601 0.00095055 
0.01488724 0.04344639 0.00605086 0.00150478 0.00131535 0.00283985 0.00761030 0.00291224 0.04301885 0.00175795 0.00180972 0.08680408 0.00906419 0.00835587 0.01484524 0.00095847 
0.01489440 0.04264075 0.00607693 0.00152504 0.00132812 0.00283006 0.00752433 0.00291887 0.04308906 0.00173497 0.00178584 0.08720961 0.00916307 0.00837748 0.01492419 0.00096733 
0.01496954 0.04178269 0.00610910 0.00154448 0.00134228 0.00281748 0.00743263 0.00293103 0.04312398 0.00171179 0.00176325 0.08756820 0.00926291 0.00839231 0.01500314 0.00097712 
0.01511368 0.04087683 0.00614696 0.00156309 0.00135785 0.00280217 0.00733527 0.00294871 0.04312370 0.00168843 0.00174195 0.08788043 0.00936364 0.00840043 0.01508239 0.00098786 
0.01532767 0.03992807 0.00619007 0.00158089 0.00137480 0.00278420 0.00723238 0.00297189 0.04308835 0.00166494 0.00172198 0.08814699 0.00946517 0.00840192 0.01516220 0.00099951 
0.01561214 0.03894156 0.00623792 0.00159788 0.00139312 0.00276365 0.00712408 0.00300050 0.04301813 0.00164135 0.00170334 0.08836869 0.00956740 0.00839688 0.01524282 0.00101208 
0.01596754 0.03792266 0.00628999 0.00161407 0.00141276 0.00274060 0.00701053 0.00303447 0.04291332 0.00161770 0.00168603 0.08854646 0.00967020 0.00838544 0.01532444 0.00102553 
0.01639411 0.03687695 0.00634573 0.00162950 0.00143368 0.00271516 0.00689191 0.00307368 0.04277423 0.00159402 0.00167005 0.08868134 0.00977343 0.00836773 0.01540727 0.00103984 
0.01689187 0.03581015 0.00640458 0.00164421 0.00145583 0.00268743 0.00676841 0.00311799 0.04260126 0.00157034 0.00165538 0.08877451 0.00987693 0.00834394 0.01549146 0.00105497 
0.01746061 0.03472811 0.00646592 0.00165822 0.00147913 0.00265752 0.00664028 0.00316725 0.04239484 0.00154668 0.00164200 0.08882722 0.00998052 0.00831423 0.01557713 0.00107088 
0.01809990 0.03363680 0.00652915 0.00167160 0.00150352 0.00262556 0.00650775 0.00322126 0.04215544 0.00152308 0.00162989 0.08884087 0.01008400 0.00827882 0.01566437 0.00108753 
0.01880907 0.03254224 0.00659365 0.00168438 0.00152890 0.00259168 0.00637111 0.00327980 0.04188360 0.00149957 0.00161901 0.08881693 0.01018714 0.00823791 0.01575324 0.00110486 
0.01958720 0.03145051 0.00665878 0.00169663 0.00155518 0.00255600 0.00623066 0.00334265 0.04157990 0.00147616 0.00160932 0.08875696 0.01028969 0.00819173 0.01584373 0.00112282 
0.02043313 0.03036767 0.00672392 0.00170842 0.00158224 0.00251866 0.00608671 0.00340955 0.04124493 0.00145288 0.00160078 0.08866265 0.01039138 0.00814053 0.01593583 0.00114134 
0.02134546 0.02929976 0.00678844 0.00171980 0.00160999 0.00247981 0.00593961 0.00348020 0.04087936 0.00142975 0.00159334 0.08853574 0.01049191 0.00808457 0.01602947 0.00116036 
0.02232252 0.02825274 0.00685171 0.00173085 0.00163828 0.00243959 0.00578972 0.00355431 0.04048386 0.00140680 0.00158694 0.08837806 0.01059097 0.00802409 0.01612453 0.00117981 
0.02336240 0.02723251 0.00691313 0.00174164 0.00166700 0.00239814 0.00563743 0.00363155 0.04005917 0.00138405 0.00158153 0.08819152 0.01068821 0.00795938 0.01622088 0.00119962 
0.02446291 0.02624478 0.00697212 0.00175224 0.00169600 0.00235562 0.00548314 0.00371159 0.03960603 0.00136152 0.00157705 0.08797808 0.01078328 0.00789072 0.01631832 0.00121970 
0.02562164 0.02529515 0.00702810 0.00176273 0.00172513 0.00231216 0.00532726 0.00379408 0.03912525 0.00133924 0.00157344 0.08773976 0.01087577 0.00781840 0.01641663 0.00123999 
0.02683588 0.02438899 0.00708053 0.00177318 0.00175425 0.00226793 0.00517024 0.00387864 0.03861765 0.00131724 0.00157064 0.08747864 0.01096530 0.00774270 0.01651555 0.00126038 
0.02810269 0.02353145 0.00712891 0.00178367 0.00178320 0.00222306 0.00501253 0.00396489 0.03808409 0.00129555 0.00156858 0.08719682 0.01105144 0.00766393 0.01661478 0.00128082 
0.02941889 0.02272744 0.00717275 0.00179428 0.00181182 0.00217771 0.00485458 0.00405244 0.03752548 0.00127419 0.00156720 0.08689645 0.01113375 0.00758237 0.01671400 0.00130119 
0.03078104 0.02198157 0.00721164 0.00180508 0.00183995 0.00213201 0.00469688 0.00414089 0.03694274 0.00125320 0.00156644 0.08657969 0.01121178 0.00749834 0.01681285 0.00132144 
0.03218544 0.02129813 0.00724517 0.00181614 0.00186741 0.00208612 0.00453991 0.00422984 0.03633685 0.00123261 0.00156624 0.08624872 0.01128506 0.00741213 0.01691093 0.00134146 
0.03362820 0.02068110 0.00727300 0.00182753 0.00189405 0.00204016 0.00438416 0.00431887 0.03570882 0.00121246 0.00156653 0.08590571 0.01135312 0.00732403 0.01700785 0.00136118 
0.03510517 0.02013407 0.00729484 0.00183933 0.00191969 0.00199428 0.00423014 0.00440757 0.03505972 0.00119280 0.00156726 0.08555284 0.01141550 0.00723436 0.01710317 0.00138051 
0.03661200 0.01966026 0.00731045 0.00185160 0.00194417 0.00194861 0.00407834 0.00449554 0.03439064 0.00117367 0.00156838 0.08519225 0.01147170 0.00714340 0.01719645 0.00139938 
0.03814414 0.01926251 0.00731964 0.00186439 0.00196732 0.00190327 0.00392927 0.00458236 0.03370272 0.00115511 0.00156983 0.08482608 0.01152125 0.00705145 0.01728723 0.00141770 
0.03969684 0.01894321 0.00732227 0.00187777 0.00198899 0.00185839 0.00378344 0.00466763 0.03299716 0.00113719 0.00157156 0.08445640 0.01156368 0.00695878 0.01737503 0.00143540 
0.04126517 0.01870435 0.00731829 0.00189179 0.00200901 0.00181409 0.00364135 0.00475095 0.03227521 0.00111996 0.00157353 0.08408526 0.01159851 0.00686569 0.01745938 0.00145241 
0.04284406 0.01854745 0.00730768 0.00190650 0.00202723 0.00177048 0.00350350 0.00483193 0.03153816 0.00110348 0.00157571 0.08371464 0.01162530 0.00677245 0.01753982 0.00146867 
0.04442828 0.01847359 0.00729049 0.00192194 0.00204351 0.00172767 0.00337038 0.00491021 0.03078737 0.00108782 0.00157805 0.08334646 0.01164360 0.00667933 0.01761586 0.00148410 
0.04601247 0.01848341 0.00726684 0.00193815 0.00205771 0.00168577 0.00324248 0.00498541 0.03002424 0.00107304 0.00158053 0.08298255 0.01165300 0.00658660 0.01768704 0.00149867 
0.04759116 0.01857706 0.00723689 0.00195517 0.00206970 0.00164486 0.00312027 0.00505720 0.02925024 0.00105923 0.00158312 0.08262466 0.01165310 0.00649450 0.01775290 0.00151230 
0.04915882 0.01875425 0.00720088 0.00197301 0.00207935 0.00160506 0.00300421 0.00512525 0.02846691 0.00104645 0.00158581 0.08227445 0.01164354 0.00640328 0.01781301 0.00152497 
0.05070983 0.01901420 0.00715911 0.00199171 0.00208656 0.00156644 0.00289475 0.00518924 0.02767583 0.00103479 0.00158859 0.08193349 0.01162397 0.00631318 0.01786694 0.00153663 
0.05223853 0.01935571 0.00711192 0.00201128 0.00209123 0.00152909 0.00279232 0.00524891 0.02687867 0.00102434 0.00159145 0.08160320 0.01159409 0.00622443 0.01791429 0.00154726 
0.05373924 0.01977710 0.00705973 0.00203172 0.00209328 0.00149308 0.00269734 0.00530398 0.02607713 0.00101519 0.00159439 0.08128492 0.01155364 0.00613724 0.01795469 0.00155682 
0.05520630 0.02027628 0.00700301 0.00205304 0.00209262 0.00145849 0.00261019 0.00535421 0.02527301 0.00100741 0.00159741 0.08097985 0.01150240 0.00605184 0.01798779 0.00156529 
0.05663405 0.02085070 0.00694226 0.00207524 0.00208920 0.00142537 0.00253126 0.00539942 0.02446814 0.00100112 0.00160054 0.08068906 0.01144019 0.00596841 0.01801328 0.00157268 
0.05801691 0.02149743 0.00687807 0.00209831 0.00208298 0.00139381 0.00246089 0.00543940 0.02366444 0.00099640 0.00160378 0.08041348 0.01136689 0.00588715 0.01803088 0.00157897 
0.05934936 0.02221313 0.00681103 0.00212223 0.00207393 0.00136384 0.00239939 0.00547401 0.02286388 0.00099335 0.00160717 0.08015390 0.01128240 0.00580823 0.01804034 0.00158417 
0.06062602 0.02299409 0.00674180 0.00214698 0.00206203 0.00133553 0.00234708 0.00550314 0.02206847 0.00099208 0.00161073 0.07991097 0.01118671 0.00573182 0.01804145 0.00158830 
0.06184159 0.02383626 0.00667108 0.00217253 0.00204729 0.00130892 0.00230421 0.00552669 0.02128030 0.00099267 0.00161450 0.07968519 0.01107985 0.00565808 0.01803406 0.00159137 
0.06299098 0.02473524 0.00659959 0.00219885 0.00202973 0.00128405 0.00227103 0.00554461 0.02050151 0.00099523 0.00161852 0.07947690 0.01096190 0.00558716 0.01801803 0.00159341 
0.06406926 0.02568635 0.00652809 0.00222590 0.00200938 0.00126096 0.00224776 0.00555688 0.01973428 0.00099985 0.00162284 0.07928630 0.01083301 0.00551920 0.01799328 0.00159445 
0.06507170 0.02668463 0.00645736 0.00225364 0.00198630 0.00123968 0.00223455 0.00556350 0.01898082 0.00100663 0.00162750 0.07911343 0.01069338 0.00545430 0.01795977 0.00159453 
0.06599382 0.02772487 0.00638820 0.00228202 0.00196056 0.00122025 0.00223158 0.00556451 0.01824341 0.00101567 0.00163257 0.07895818 0.01054328 0.00539260 0.01791749 0.00159371 
0.06683141 0.02880168 0.00632142 0.00231098 0.00193225 0.00120268 0.00223894 0.00555999 0.01752434 0.00102705 0.00163810 0.07882027 0.01038304 0.00533419 0.01786651 0.00159202 
0.06758052 0.02990945 0.00625784 0.00234046 0.00190148 0.00118700 0.00225673 0.00555006 0.01682591 0.00104087 0.00164414 0.07869929 0.01021303 0.00527916 0.01780690 0.00158954 
0.06823753 0.03104246 0.00619829 0.00237040 0.00186836 0.00117323 0.00228498 0.00553484 0.01615046 0.00105719 0.00165077 0.07859468 0.01003371 0.00522759 0.01773878 0.00158632 
0.06879913 0.03219485 0.00614359 0.00240074 0.00183304 0.00116138 0.00232372 0.00551450 0.01550033 0.00107610 0.00165805 0.07850572 0.00984556 0.00517955 0.01766234 0.00158244 
0.06926237 0.03336071 0.00609455 0.00243139 0.00179566 0.00115146 0.00237292 0.00548926 0.01487785 0.00109767 0.00166604 0.07843158 0.00964917 0.00513510 0.01757778 0.00157796 
0.06962466 0.03453407 0.00605197 0.00246229 0.00175641 0.00114347 0.00243253 0.00545934 0.01428535 0.00112196 0.00167482 0.07837126 0.00944513 0.00509429 0.01748534 0.00157297 
0.06988381 0.03570897 0.00601663 0.00249336 0.00171547 0.00113743 0.00250246 0.00542499 0.01372512 0.00114903 0.00168444 0.07832365 0.00923411 0.00505714 0.01738531 0.00156753 
0.07003802 0.03687946 0.00598928 0.00252451 0.00167303 0.00113331 0.00258258 0.00538651 0.01319943 0.00117891 0.00169499 0.07828753 0.00901684 0.00502368 0.01727800 0.00156174 
0.07008592 0.03803968 0.00597065 0.00255566 0.00162931 0.00113113 0.00267275 0.00534420 0.01271051 0.00121166 0.00170652 0.07826153 0.00879407 0.00499392 0.01716378 0.00155567 
0.07002655 0.03918383 0.00596141 0.00258672 0.00158453 0.00113087 0.00277276 0.00529839 0.01226052 0.00124729 0.00171910 0.07824422 0.00856661 0.00496787 0.01704301 0.00154942 
0.06985941 0.04030630 0.00596222 0.00261761 0.00153892 0.00113252 0.00288241 0.00524944 0.01185157 0.00128582 0.00173278 0.07823404 0.00833530 0.00494551 0.01691611 0.00154307 
0.06958443 0.04140158 0.00597365 0.00264824 0.00149273 0.00113606 0.00300143 0.00519771 0.01148566 0.00132726 0.00174764 0.07822936 0.00810102 0.00492682 0.01678351 0.00153670 
0.06920201 0.04246441 0.00599625 0.00267852 0.00144621 0.00114148 0.00312955 0.00514360 0.01116473 0.00137159 0.00176372 0.07822847 0.00786469 0.00491177 0.01664567 0.00153040 
0.06871299 0.04348972 0.00603052 0.00270835 0.00139963 0.00114875 0.00326645 0.00508751 0.01089059 0.00141881 0.00178107 0.07822959 0.00762724 0.00490031 0.01650307 0.00152425 
0.06811869 0.04447271 0.00607686 0.00273765 0.00135324 0.00115784 0.00341178 0.00502985 0.01066494 0.00146887 0.00179974 0.07823090 0.00738963 0.00489239 0.01635621 0.00151833 
0.06742086 0.04540886 0.00613564 0.00276633 0.00130731 0.00116872 0.00356519 0.00497105 0.01048937 0.00152174 0.00181977 0.07823052 0.00715283 0.00488795 0.01620560 0.00151272 
0.06662173 0.04629396 0.00620714 0.00279429 0.00126213 0.00118136 0.00372627 0.00491154 0.01036528 0.00157736 0.00184120 0.07822657 0.00691781 0.00488690 0.01605179 0.00150751 
0.06572397 0.04712413 0.00629158 0.00282144 0.00121796 0.00119571 0.00389460 0.00485174 0.01029397 0.00163564 0.00186404 0.07821712 0.00668558 0.00488917 0.01589530 0.00150275 
0.06473068 0.04789581 0.00638910 0.00284770 0.00117507 0.00121175 0.00406976 0.00479210 0.01027652 0.00169652 0.00188833 0.07820027 0.00645711 0.00489465 0.01573671 0.00149851 
0.06364542 0.04860583 0.00649975 0.00287298 0.00113374 0.00122941 0.00425126 0.00473305 0.01031387 0.00175988 0.00191407 0.07817409 0.00623338 0.00490323 0.01557656 0.00149487 
0.06247212 0.04925142 0.00662353 0.00289719 0.00109424 0.00124864 0.00443863 0.00467502 0.01040677 0.00182563 0.00194127 0.07813672 0.00601536 0.00491481 0.01541544 0.00149187 
0.06121517 0.04983017 0.00676033 0.00292025 0.00105683 0.00126940 0.00463137 0.00461844 0.01055573 0.00189362 0.00196993 0.07808630 0.00580399 0.00492926 0.01525393 0.00148957 
0.05987928 0.05034009 0.00690997 0.00294208 0.00102176 0.00129163 0.00482897 0.00456371 0.01076111 0.00196372 0.00200003 0.07802103 0.00560021 0.00494643 0.01509260 0.00148801 
0.05846958 0.05077960 0.00707218 0.00296260 0.00098927 0.00131525 0.00503088 0.00451125 0.01102301 0.00203579 0.00203156 0.07793918 0.00540491 0.00496620 0.01493205 0.00148723 
0.05699150 0.05114755 0.00724662 0.00298175 0.00095962 0.00134021 0.00523658 0.00446143 0.01134133 0.00210964 0.00206448 0.07783909 0.00521894 0.00498840 0.01477288 0.00148726 
0.05545082 0.05144320 0.00743285 0.00299943 0.00093302 0.00136642 0.00544550 0.00441464 0.01171571 0.00218512 0.00209876 0.07771919 0.00504313 0.00501288 0.01461566 0.00148813 
0.05385360 0.05166622 0.00763036 0.00301560 0.00090969 0.00139382 0.00565709 0.00437123 0.01214559 0.00226202 0.00213436 0.07757800 0.00487826 0.00503948 0.01446101 0.00148985 
0.05220615 0.05181671 0.00783856 0.00303018 0.00088982 0.00142233 0.00587078 0.00433152 0.01263014 0.00234016 0.00217122 0.07741417 0.00472505 0.00506801 0.01430951 0.00149244 
0.05051502 0.05189518 0.00805678 0.00304311 0.00087359 0.00145186 0.00608600 0.00429583 0.01316831 0.00241932 0.00220927 0.07722647 0.00458418 0.00509831 0.01416178 0.00149588 
0.04878700 0.05190253 0.00828428 0.00305434 0.00086119 0.00148233 0.00630218 0.00426444 0.01375877 0.00249928 0.00224845 0.07701378 0.00445627 0.00513019 0.01401841 0.00150019 
0.04702899 0.05184008 0.00852023 0.00306382 0.00085274 0.00151364 0.00651875 0.00423761 0.01439998 0.00257982 0.00228867 0.07677515 0.00434186 0.00516346 0.01388001 0.00150534 
0.04524808 0.05170948 0.00876376 0.00307151 0.00084837 0.00154570 0.00673513 0.00421557 0.01509013 0.00266070 0.00232985 0.07650978 0.00424144 0.00519794 0.01374719 0.00151131 
0.04345144 0.05151279 0.00901390 0.00307735 0.00084821 0.00157841 0.00695076 0.00419852 0.01582717 0.00274169 0.00237189 0.07621702 0.00415544 0.00523342 0.01362054 0.00151808 
0.04164631 0.05125237 0.00926965 0.00308132 0.00085232 0.00161168 0.00716508 0.00418663 0.01660882 0.00282255 0.00241469 0.07589640 0.00408421 0.00526972 0.01350069 0.00152561 
0.03983997 0.05093095 0.00952995 0.00308338 0.00086078 0.00164539 0.00737754 0.00418005 0.01743255 0.00290301 0.00245813 0.07554763 0.00402803 0.00530663 0.01338824 0.00153385 
0.03803969 0.05055151 0.00979368 0.00308350 0.00087363 0.00167945 0.00758759 0.00417887 0.01829560 0.00298283 0.00250211 0.07517059 0.00398709 0.00534396 0.01328381 0.00154277 
0.03625271 0.05011735 0.01005968 0.00308167 0.00089089 0.00171373 0.00779470 0.00418316 0.01919501 0.00306176 0.00254650 0.07476534 0.00396153 0.00538152 0.01318801 0.00155229 
0.03448617 0.04963201 0.01032675 0.00307787 0.00091255 0.00174815 0.00799836 0.00419299 0.02012759 0.00313955 0.00259117 0.07433217 0.00395140 0.00541911 0.01310146 0.00156238 
0.03274713 0.04909923 0.01059366 0.00307210 0.00093858 0.00178257 0.00819806 0.00420834 0.02108996 0.00321594 0.00263600 0.07387152 0.00395667 0.00545653 0.01302480 0.00157294 
0.03104248 0.04852299 0.01085916 0.00306433 0.00096893 0.00181690 0.00839331 0.00422919 0.02207853 0.00329069 0.00268085 0.07338405 0.00397724 0.00549361 0.01295863 0.00158392 
0.02937894 0.04790740 0.01112198 0.00305459 0.00100353 0.00185100 0.00858365 0.00425549 0.02308957 0.00336354 0.00272558 0.07287060 0.00401293 0.00553016 0.01290359 0.00159524 
0.02776300 0.04725674 0.01138083 0.00304288 0.00104227 0.00188478 0.00876863 0.00428715 0.02411916 0.00343425 0.00277006 0.07233221 0.00406349 0.00556599 0.01286029 0.00160681 
0.02620093 0.04657538 0.01163443 0.00302920 0.00108503 0.00191811 0.00894783 0.00432405 0.02516325 0.00350260 0.00281413 0.07177013 0.00412859 0.00560095 0.01282938 0.00161856 
0.02469867 0.04586777 0.01188149 0.00301359 0.00113167 0.00195089 0.00912082 0.00436603 0.02621766 0.00356835 0.00285767 0.07118578 0.00420784 0.00563487 0.01281147 0.00163040 
0.02326189 0.04513842 0.01212074 0.00299606 0.00118202 0.00198299 0.00928724 0.00441291 0.02727812 0.00363129 0.00290053 0.07058076 0.00430076 0.00566759 0.01280718 0.00164224 
0.02189589 0.04439183 0.01235093 0.00297664 0.00123589 0.00201431 0.00944672 0.00446448 0.02834023 0.00369121 0.00294256 0.06995688 0.00440682 0.00569897 0.01281713 0.00165399 
0.02060564 0.04363252 0.01257083 0.00295538 0.00129306 0.00204474 0.00959892 0.00452051 0.02939957 0.00374790 0.00298363 0.06931608 0.00452543 0.00572888 0.01284192 0.00166556 
0.01939567 0.04286494 0.01277925 0.00293231 0.00135332 0.00207417 0.00974355 0.00458073 0.03045165 0.00380118 0.00302359 0.06866051 0.00465594 0.00575719 0.01288217 0.00167686 
0.01827012 0.04209349 0.01297503 0.00290749 0.00141640 0.00210249 0.00988031 0.00464486 0.03149195 0.00385088 0.00306233 0.06799245 0.00479762 0.00578378 0.01293845 0.00168780 
0.01723270 0.04132244 0.01315706 0.00288096 0.00148205 0.00212960 0.01000896 0.00471259 0.03251597 0.00389684 0.00309969 0.06731433 0.00494972 0.00580857 0.01301134 0.00169829 
0.01628664 0.04055597 0.01332429 0.00285279 0.00154998 0.00215541 0.01012926 0.00478360 0.03351920 0.00393892 0.00313557 0.06662872 0.00511143 0.00583145 0.01310138 0.00170825 
0.01543473 0.03979806 0.01347574 0.00282305 0.00161990 0.00217982 0.01024101 0.00485753 0.03449721 0.00397698 0.00316983 0.06593832 0.00528189 0.00585237 0.01320912 0.00171759 
0.01467924 0.03905256 0.01361047 0.00279180 0.00169150 0.00220275 0.01034404 0.00493404 0.03544560 0.00401091 0.00320236 0.06524592 0.00546023 0.00587126 0.01333505 0.00172622 
0.01402198 0.03832309 0.01372763 0.00275913 0.00176445 0.00222411 0.01043821 0.00501275 0.03636010 0.00404062 0.00323306 0.06455443 0.00564552 0.00588808 0.01347965 0.00173408 
0.01346423 0.03761304 0.01382646 0.00272511 0.00183844 0.00224381 0.01052340 0.00509326 0.03723653 0.00406603 0.00326181 0.06386683 0.00583681 0.00590280 0.01364335 0.00174109 
0.01300678 0.03692559 0.01390626 0.00268984 0.00191311 0.00226180 0.01059951 0.00517520 0.03807085 0.00408707 0.00328853 0.06318618 0.00603314 0.00591540 0.01382655 0.00174718 
0.01264989 0.03626364 0.01396644 0.00265341 0.00198813 0.00227801 0.01066648 0.00525816 0.03885918 0.00410371 0.00331313 0.06251557 0.00623352 0.00592589 0.01402959 0.00175229 
0.01239333 0.03562981 0.01400648 0.00261591 0.00206315 0.00229237 0.01072428 0.00534174 0.03959783 0.00411592 0.00333553 0.06185815 0.00643697 0.00593427 0.01425278 0.00175635 
0.01223636 0.03502645 0.01402599 0.00257745 0.00213782 0.00230484 0.01077290 0.00542553 0.04028331 0.00412368 0.00335566 0.06121707 0.00664249 0.00594059 0.01449635 0.00175932 
0.01217772 0.03445560 0.01402464 0.00253815 0.00221178 0.00231536 0.01081235 0.00550913 0.04091234 0.00412702 0.00337346 0.06059551 0.00684908 0.00594488 0.01476049 0.00176116 
0.01221568 0.03391899 0.01400223 0.00249811 0.00228470 0.00232392 0.01084268 0.00559214 0.04148191 0.00412596 0.00338887 0.05999660 0.00705576 0.00594721 0.01504531 0.00176182 
0.01234801 0.03341806 0.01395866 0.00245745 0.00235622 0.00233047 0.01086393 0.00567416 0.04198925 0.00412054 0.00340186 0.05942345 0.00726155 0.00594765 0.01535085 0.00176128 
0.01257205 0.03295390 0.01389393 0.00241629 0.00242600 0.00233500 0.01087621 0.00575480 0.04243188 0.00411083 0.00341239 0.05887914 0.00746550 0.00594628 0.01567708 0.00175951 
0.01288464 0.03252731 0.01380814 0.00237477 0.00249371 0.00233749 0.01087963 0.00583368 0.04280760 0.00409691 0.00342044 0.05836665 0.00766667 0.00594320 0.01602387 0.00175649 
0.01328224 0.03213876 0.01370153 0.00233301 0.00255903 0.00233795 0.01087430 0.00591044 0.04311454 0.00407887 0.00342599 0.05788891 0.00786415 0.00593854 0.01639103 0.00175222 
0.01376085 0.03178839 0.01357440 0.00229115 0.00262163 0.00233638 0.01086039 0.00598471 0.04335113 0.00405683 0.00342905 0.05744872 0.00805708 0.00593241 0.01677825 0.00174669 
0.01431614 0.03147606 0.01342719 0.00224933 0.00268123 0.00233279 0.01083806 0.00605616 0.04351614 0.00403091 0.00342961 0.05704877 0.00824462 0.00592494 0.01718515 0.00173992 
0.01494338 0.03120130 0.01326043 0.00220768 0.00273754 0.00232721 0.01080749 0.00612446 0.04360870 0.00400126 0.00342770 0.05669162 0.00842597 0.00591629 0.01761122 0.00173192 
0.01563752 0.03096337 0.01307476 0.00216636 0.00279028 0.00231968 0.01076890 0.00618932 0.04362826 0.00396802 0.00342334 0.05637970 0.00860039 0.00590659 0.01805588 0.00172270 
0.01639323 0.03076122 0.01287091 0.00212551 0.00283920 0.00231022 0.01072251 0.00625043 0.04357463 0.00393136 0.00341655 0.05611524 0.00876718 0.00589602 0.01851843 0.00171231 
0.01720489 0.03059355 0.01264970 0.00208527 0.00288407 0.00229889 0.01066854 0.00630755 0.04344800 0.00389147 0.00340739 0.05590032 0.00892568 0.00588474 0.01899807 0.00170077 
0.01806663 0.03045881 0.01241207 0.00204580 0.00292466 0.00228575 0.01060724 0.00636042 0.04324889 0.00384851 0.00339591 0.05573681 0.00907530 0.00587292 0.01949387 0.00168813 
0.01897242 0.03035519 0.01215902 0.00200726 0.00296080 0.00227086 0.01053887 0.00640882 0.04297819 0.00380270 0.00338216 0.05562640 0.00921552 0.00586073 0.02000481 0.00167443 
0.01991603 0.03028069 0.01189163 0.00196978 0.00299230 0.00225431 0.01046371 0.00645257 0.04263715 0.00375423 0.00336622 0.05557055 0.00934585 0.00584836 0.02052977 0.00165975 
0.02089110 0.03023308 0.01161107 0.00193353 0.00301901 0.00223616 0.01038202 0.00649148 0.04222737 0.00370332 0.00334815 0.05557051 0.00946588 0.00583599 0.02106750 0.00164413 
0.02189119 0.03020997 0.01131859 0.00189866 0.00304082 0.00221652 0.01029409 0.00652543 0.04175080 0.00365018 0.00332805 0.05562728 0.00957527 0.00582379 0.02161666 0.00162764 
0.02290978 0.03020881 0.01101547 0.00186531 0.00305762 0.00219547 0.01020022 0.00655427 0.04120970 0.00359502 0.00330599 0.05574164 0.00967372 0.00581195 0.02217579 0.00161036 
0.02394035 0.03022691 0.01070308 0.00183365 0.00306933 0.00217312 0.01010071 0.00657793 0.04060668 0.00353808 0.00328207 0.05591411 0.00976101 0.00580063 0.02274334 0.00159236 
0.02497638 0.03026147 0.01038282 0.00180381 0.00307591 0.00214959 0.00999585 0.00659633 0.03994467 0.00347958 0.00325640 0.05614497 0.00983698 0.00579002 0.02331767 0.00157373 
0.02601141 0.03030960 0.01005614 0.00177594 0.00307734 0.00212498 0.00988597 0.00660943 0.03922687 0.00341975 0.00322907 0.05643425 0.00990155 0.00578028 0.02389702 0.00155454 
0.02703907 0.03036836 0.00972452 0.00175019 0.00307360 0.00209942 0.00977137 0.00661722 0.03845678 0.00335880 0.00320020 0.05678171 0.00995468 0.00577157 0.02447959 0.00153488 
0.02805311 0.03043476 0.00938947 0.00172669 0.00306474 0.00207303 0.00965235 0.00661970 0.03763817 0.00329698 0.00316989 0.05718686 0.00999641 0.00576405 0.02506345 0.00151485 
0.02904743 0.03050579 0.00905253 0.00170558 0.00305081 0.00204595 0.00952925 0.00661693 0.03677504 0.00323449 0.00313828 0.05764896 0.01002683 0.00575786 0.02564665 0.00149452 
0.03001614 0.03057846 0.00871522 0.00168698 0.00303187 0.00201831 0.00940237 0.00660894 0.03587163 0.00317155 0.00310547 0.05816702 0.01004610 0.00575313 0.02622712 0.00147400 
0.03095356 0.03064982 0.00837908 0.00167102 0.00300805 0.00199025 0.00927202 0.00659584 0.03493238 0.00310839 0.00307159 0.05873979 0.01005443 0.00575000 0.02680278 0.00145338 
0.03185427 0.03071697 0.00804565 0.00165781 0.00297945 0.00196190 0.00913852 0.00657774 0.03396190 0.00304521 0.00303675 0.05936577 0.01005209 0.00574857 0.02737150 0.00143273 
0.03271313 0.03077709 0.00771645 0.00164746 0.00294624 0.00193342 0.00900218 0.00655475 0.03296497 0.00298222 0.00300110 0.06004324 0.01003939 0.00574895 0.02793109 0.00141217 
0.03352531 0.03082748 0.00739296 0.00164007 0.00290859 0.00190494 0.00886331 0.00652705 0.03194648 0.00291961 0.00296474 0.06077024 0.01001672 0.00575123 0.02847936 0.00139176 
0.03428634 0.03086555 0.00707664 0.00163574 0.00286669 0.00187661 0.00872223 0.00649481 0.03091145 0.00285757 0.00292781 0.06154458 0.00998448 0.00575547 0.02901410 0.00137161 
0.03499207 0.03088887 0.00676893 0.00163453 0.00282075 0.00184858 0.00857922 0.00645821 0.02986496 0.00279628 0.00289043 0.06236386 0.00994315 0.00576174 0.02953310 0.00135179 
0.03563877 0.03089516 0.00647118 0.00163654 0.00277102 0.00182099 0.00843460 0.00641749 0.02881215 0.00273592 0.00285272 0.06322550 0.00989321 0.00577009 0.03003416 0.00133239 
0.03622308 0.03088234 0.00618473 0.00164181 0.00271774 0.00179399 0.00828866 0.00637287 0.02775819 0.00267664 0.00281481 0.06412670 0.00983521 0.00578053 0.03051512 0.00131349 
0.03674206 0.03084852 0.00591082 0.00165040 0.00266119 0.00176772 0.00814170 0.00632460 0.02670822 0.00261861 0.00277681 0.06506449 0.00976972 0.00579309 0.03097384 0.00129516 
0.03719323 0.03079205 0.00565064 0.00166234 0.00260164 0.00174231 0.00799400 0.00627294 0.02566739 0.00256196 0.00273884 0.06603576 0.00969733 0.00580776 0.03140823 0.00127747 
0.03757450 0.03071149 0.00540530 0.00167766 0.00253940 0.00171791 0.00784586 0.00621819 0.02464074 0.00250683 0.00270102 0.06703722 0.00961867 0.00582453 0.03181628 0.00126048 
0.03788428 0.03060563 0.00517583 0.00169638 0.00247478 0.00169465 0.00769754 0.00616063 0.02363328 0.00245334 0.00266347 0.06806547 0.00953437 0.00584337 0.03219605 0.00124427 
0.03812139 0.03047356 0.00496318 0.00171848 0.00240810 0.00167265 0.00754934 0.00610056 0.02264988 0.00240161 0.00262628 0.06911698 0.00944510 0.00586421 0.03254567 0.00122887 
0.03828513 0.03031458 0.00476819 0.00174397 0.00233968 0.00165205 0.00740152 0.00603830 0.02169527 0.00235173 0.00258955 0.07018814 0.00935152 0.00588701 0.03286340 0.00121435 
0.03837527 0.03012829 0.00459161 0.00177281 0.00226987 0.00163295 0.00725434 0.00597417 0.02077403 0.00230380 0.00255340 0.07127522 0.00925430 0.00591169 0.03314759 0.00120074 
0.03839202 0.02991456 0.00443410 0.00180496 0.00219900 0.00161547 0.00710808 0.00590850 0.01989055 0.00225790 0.00251792 0.07237446 0.00915413 0.00593814 0.03339673 0.00118809 
0.03833602 0.02967354 0.00429621 0.00184036 0.00212741 0.00159973 0.00696299 0.00584163 0.01904902 0.00221409 0.00248318 0.07348204 0.00905168 0.00596627 0.03360944 0.00117643 
0.03820840 0.02940565 0.00417836 0.00187894 0.00205546 0.00158580 0.00681932 0.00577389 0.01825339 0.00217244 0.00244929 0.07459410 0.00894763 0.00599596 0.03378447 0.00116578 
0.03801069 0.02911159 0.00408091 0.00192061 0.00198349 0.00157379 0.00667733 0.00570563 0.01750736 0.00213300 0.00241631 0.07570678 0.00884263 0.00602708 0.03392075 0.00115616 
0.03774484 0.02879233 0.00400406 0.00196529 0.00191185 0.00156378 0.00653725 0.00563719 0.01681436 0.00209579 0.00238432 0.07681620 0.00873734 0.00605948 0.03401737 0.00114759 
0.03741322 0.02844913 0.00394794 0.00201284 0.00184086 0.00155583 0.00639933 0.00556892 0.01617756 0.00206086 0.00235339 0.07791853 0.00863239 0.00609302 0.03407356 0.00114007 
0.03701859 0.02808351 0.00391253 0.00206315 0.00177087 0.00155002 0.00626379 0.00550115 0.01559979 0.00202822 0.00232358 0.07900996 0.00852840 0.00612753 0.03408877 0.00113361 
0.03656405 0.02769722 0.00389773 0.00211608 0.00170221 0.00154640 0.00613087 0.00543423 0.01508360 0.00199789 0.00229494 0.08008675 0.00842596 0.00616285 0.03406260 0.00112820 
0.03605309 0.02729230 0.00390332 0.00217147 0.00163518 0.00154501 0.00600078 0.00536850 0.01463119 0.00196985 0.00226752 0.08114521 0.00832563 0.00619881 0.03399485 0.00112383 
0.03548949 0.02687100 0.00392896 0.00222915 0.00157010 0.00154588 0.00587375 0.00530427 0.01424443 0.00194412 0.00224137 0.08218175 0.00822795 0.00623521 0.03388551 0.00112049 
0.03487734 0.02643580 0.00397423 0.00228894 0.00150726 0.00154905 0.00574999 0.00524187 0.01392484 0.00192067 0.00221651 0.08319289 0.00813342 0.00627187 0.03373477 0.00111815 
0.03422101 0.02598939 0.00403858 0.00235066 0.00144695 0.00155451 0.00562971 0.00518163 0.01367360 0.00189948 0.00219299 0.08417524 0.00804252 0.00630862 0.03354299 0.00111680 
0.03352510 0.02553465 0.00412139 0.00241411 0.00138943 0.00156228 0.00551309 0.00512383 0.01349153 0.00188052 0.00217082 0.08512557 0.00795568 0.00634525 0.03331075 0.00111639 
0.03279443 0.02507465 0.00422193 0.00247907 0.00133494 0.00157234 0.00540035 0.00506878 0.01337909 0.00186376 0.00215002 0.08604077 0.00787330 0.00638157 0.03303880 0.00111689 
0.03203402 0.02461260 0.00433938 0.00254532 0.00128374 0.00158467 0.00529165 0.00501676 0.01333637 0.00184915 0.00213061 0.08691791 0.00779574 0.00641739 0.03272810 0.00111827 
0.03124902 0.02415187 0.00447283 0.00261265 0.00123602 0.00159924 0.00518719 0.00496804 0.01336312 0.00183665 0.00211258 0.08775419 0.00772331 0.00645253 0.03237976 0.00112049 
0.03044471 0.02369594 0.00462132 0.00268081 0.00119198 0.00161601 0.00508714 0.00492287 0.01345873 0.00182620 0.00209593 0.08854703 0.00765630 0.00648679 0.03199512 0.00112349 
0.02962647 0.02324838 0.00478379 0.00274957 0.00115181 0.00163492 0.00499166 0.00488150 0.01362224 0.00181775 0.00208067 0.08929401 0.00759493 0.00652000 0.03157563 0.00112722 
0.02879973 0.02281286 0.00495913 0.00281869 0.00111565 0.00165591 0.00490090 0.00484414 0.01385236 0.00181123 0.00206678 0.08999291 0.00753940 0.00655198 0.03112296 0.00113164 
0.02796995 0.02239309 0.00514617 0.00288792 0.00108364 0.00167890 0.00481502 0.00481102 0.01414746 0.00180657 0.00205423 0.09064171 0.00748986 0.00658254 0.03063892 0.00113668 
0.02714256 0.02199281 0.00534369 0.00295703 0.00105589 0.00170380 0.00473416 0.00478230 0.01450558 0.00180371 0.00204301 0.09123862 0.00744640 0.00661154 0.03012544 0.00114231 
0.02632298 0.02161578 0.00555044 0.00302575 0.00103249 0.00173053 0.00465845 0.00475818 0.01492447 0.00180257 0.00203310 0.09178204 0.00740910 0.00663882 0.02958462 0.00114844 
0.02551653 0.02126573 0.00576510 0.00309385 0.00101350 0.00175896 0.00458801 0.00473880 0.01540158 0.00180308 0.00202445 0.09227061 0.00737797 0.00666422 0.02901867 0.00115504 
0.02472846 0.02094638 0.00598638 0.00316109 0.00099897 0.00178899 0.00452294 0.00472430 0.01593409 0.00180516 0.00201704 0.09270318 0.00735300 0.00668762 0.02842991 0.00116203 
0.02396387 0.02066137 0.00621293 0.00322724 0.00098892 0.00182050 0.00446336 0.00471478 0.01651890 0.00180872 0.00201082 0.09307883 0.00733411 0.00670889 0.02782078 0.00116937 
0.02322768 0.02041427 0.00644340 0.00329205 0.00098335 0.00185334 0.00440934 0.00471035 0.01715268 0.00181369 0.00200575 0.09339689 0.00732120 0.00672792 0.02719377 0.00117699 
0.02252465 0.02020853 0.00667647 0.00335531 0.00098223 0.00188738 0.00436098 0.00471106 0.01783189 0.00181998 0.00200178 0.09365689 0.00731414 0.00674460 0.02655148 0.00118483 
0.02185930 0.02004749 0.00691078 0.00341681 0.00098552 0.00192247 0.00431832 0.00471698 0.01855277 0.00182751 0.00199886 0.09385860 0.00731275 0.00675885 0.02589654 0.00119283 
