0.03038319 0.00257998 0.00147818 0.00682213 0.00105697 0.00621993 0.00194606 0.00362829 0.00695402 0.00939003 0.00098569 0.00146313 0.00173206 0.00219981 0.00271677 0.00134392 
0.03009943 0.00252397 0.00147668 0.00670779 0.00103563 0.00609302 0.00194024 0.00365865 0.00676003 0.00921244 0.00098247 0.00145709 0.00171312 0.00219294 0.00270258 0.00134623 
0.02976980 0.00246780 0.00147452 0.00659350 0.00101379 0.00596708 0.00193299 0.00368565 0.00656943 0.00903012 0.00097908 0.00144967 0.00169534 0.00218646 0.00268771 0.00134853 
0.02939544 0.00241171 0.00147172 0.00647966 0.00099157 0.00584282 0.00192438 0.00370930 0.00638334 0.00884406 0.00097555 0.00144091 0.00167882 0.00218046 0.00267222 0.00135082 
0.02897771 0.00235597 0.00146830 0.00636665 0.00096905 0.00572093 0.00191448 0.00372961 0.00620284 0.00865529 0.00097189 0.00143089 0.00166366 0.00217498 0.00265618 0.00135309 
0.02851821 0.00230085 0.00146428 0.00625486 0.00094637 0.00560208 0.00190336 0.00374665 0.00602901 0.00846483 0.00096811 0.00141967 0.00164995 0.00217009 0.00263966 0.00135534 
0.02801874 0.00224661 0.00145968 0.00614467 0.00092361 0.00548695 0.00189113 0.00376048 0.00586289 0.00827373 0.00096425 0.00140734 0.00163778 0.00216585 0.00262273 0.00135756 
0.02748128 0.00219352 0.00145451 0.00603647 0.00090089 0.00537615 0.00187786 0.00377118 0.00570548 0.00808305 0.00096033 0.00139397 0.00162722 0.00216233 0.00260547 0.00135975 
0.02690804 0.00214188 0.00144880 0.00593061 0.00087831 0.00527030 0.00186367 0.00377885 0.00555776 0.00789383 0.00095637 0.00137967 0.00161834 0.00215958 0.00258795 0.00136188 
0.02630139 0.00209194 0.00144257 0.00582747 0.00085597 0.00516998 0.00184866 0.00378361 0.00542065 0.00770713 0.00095240 0.00136453 0.00161119 0.00215767 0.00257027 0.00136397 
0.02566386 0.00204400 0.00143584 0.00572739 0.00083396 0.00507574 0.00183294 0.00378559 0.00529503 0.00752397 0.00094845 0.00134866 0.00160581 0.00215663 0.00255249 0.00136600 
0.02499817 0.00199831 0.00142864 0.00563072 0.00081239 0.00498811 0.00181662 0.00378494 0.00518172 0.00734536 0.00094456 0.00133216 0.00160225 0.00215653 0.00253472 0.00136797 
0.02430717 0.00195517 0.00142099 0.00553777 0.00079133 0.00490755 0.00179982 0.00378182 0.00508150 0.00717231 0.00094076 0.00131516 0.00160052 0.00215741 0.00251703 0.00136986 
0.02359384 0.00191483 0.00141292 0.00544886 0.00077088 0.00483452 0.00178266 0.00377638 0.00499505 0.00700577 0.00093708 0.00129776 0.00160064 0.00215931 0.00249952 0.00137168 
0.02286127 0.00187757 0.00140446 0.00536427 0.00075111 0.00476943 0.00176527 0.00376882 0.00492302 0.00684666 0.00093355 0.00128010 0.00160261 0.00216226 0.00248228 0.00137342 
0.02211268 0.00184363 0.00139565 0.00528426 0.00073210 0.00471262 0.00174777 0.00375932 0.00486597 0.00669587 0.00093022 0.00126229 0.00160643 0.00216630 0.00246540 0.00137507 
0.02135134 0.00181328 0.00138649 0.00520910 0.00071391 0.00466443 0.00173028 0.00374807 0.00482440 0.00655423 0.00092711 0.00124445 0.00161207 0.00217145 0.00244896 0.00137663 
0.02058063 0.00178676 0.00137705 0.00513899 0.00069661 0.00462512 0.00171293 0.00373527 0.00479872 0.00642254 0.00092427 0.00122671 0.00161952 0.00217773 0.00243306 0.00137810 
0.01980395 0.00176429 0.00136733 0.00507415 0.00068025 0.00459493 0.00169583 0.00372114 0.00478927 0.00630152 0.00092172 0.00120920 0.00162872 0.00218514 0.00241779 0.00137946 
0.01902476 0.00174611 0.00135739 0.00501474 0.00066488 0.00457403 0.00167912 0.00370587 0.00479633 0.00619185 0.00091950 0.00119203 0.00163963 0.00219369 0.00240322 0.00138072 
0.01824652 0.00173242 0.00134726 0.00496090 0.00065054 0.00456255 0.00166291 0.00368968 0.00482006 0.00609413 0.00091765 0.00117534 0.00165219 0.00220337 0.00238945 0.00138187 
0.01747270 0.00172342 0.00133698 0.00491277 0.00063727 0.00456059 0.00164730 0.00367278 0.00486056 0.00600890 0.00091619 0.00115922 0.00166634 0.00221415 0.00237656 0.00138291 
0.01670677 0.00171929 0.00132658 0.00487043 0.00062510 0.00456819 0.00163242 0.00365536 0.00491785 0.00593663 0.00091516 0.00114380 0.00168201 0.00222602 0.00236462 0.00138384 
0.01595214 0.00172019 0.00131612 0.00483394 0.00061403 0.00458532 0.00161836 0.00363764 0.00499187 0.00587773 0.00091458 0.00112920 0.00169910 0.00223894 0.00235370 0.00138466 
0.01521217 0.00172626 0.00130564 0.00480334 0.00060411 0.00461194 0.00160522 0.00361980 0.00508246 0.00583251 0.00091449 0.00111550 0.00171753 0.00225287 0.00234388 0.00138535 
0.01449019 0.00173765 0.00129518 0.00477862 0.00059531 0.00464794 0.00159310 0.00360205 0.00518940 0.00580122 0.00091489 0.00110281 0.00173720 0.00226776 0.00233521 0.00138593 
0.01378940 0.00175445 0.00128481 0.00475975 0.00058766 0.00469316 0.00158208 0.00358456 0.00531238 0.00578402 0.00091582 0.00109123 0.00175802 0.00228353 0.00232775 0.00138639 
0.01311292 0.00177676 0.00127456 0.00474668 0.00058115 0.00474741 0.00157223 0.00356750 0.00545100 0.00578100 0.00091729 0.00108084 0.00177986 0.00230013 0.00232156 0.00138674 
0.01246375 0.00180463 0.00126450 0.00473931 0.00057575 0.00481045 0.00156364 0.00355105 0.00560481 0.00579216 0.00091931 0.00107170 0.00180262 0.00231747 0.00231667 0.00138697 
0.01184475 0.00183811 0.00125468 0.00473752 0.00057146 0.00488198 0.00155634 0.00353535 0.00577327 0.00581743 0.00092190 0.00106391 0.00182619 0.00233547 0.00231312 0.00138708 
0.01125865 0.00187723 0.00124516 0.00474117 0.00056825 0.00496168 0.00155041 0.00352054 0.00595576 0.00585665 0.00092506 0.00105750 0.00185043 0.00235402 0.00231094 0.00138707 
0.01070800 0.00192196 0.00123602 0.00475008 0.00056610 0.00504918 0.00154587 0.00350674 0.00615161 0.00590959 0.00092881 0.00105254 0.00187523 0.00237303 0.00231016 0.00138695 
0.01019519 0.00197230 0.00122730 0.00476404 0.00056496 0.00514407 0.00154276 0.00349406 0.00636008 0.00597592 0.00093313 0.00104906 0.00190047 0.00239238 0.00231078 0.00138673 
0.00972241 0.00202817 0.00121909 0.00478281 0.00056480 0.00524591 0.00154109 0.00348260 0.00658036 0.00605526 0.00093802 0.00104710 0.00192602 0.00241195 0.00231281 0.00138639 
0.00929166 0.00208951 0.00121145 0.00480614 0.00056559 0.00535421 0.00154089 0.00347244 0.00681161 0.00614715 0.00094349 0.00104667 0.00195175 0.00243163 0.00231624 0.00138595 
0.00890472 0.00215620 0.00120446 0.00483374 0.00056726 0.00546846 0.00154214 0.00346364 0.00705290 0.00625104 0.00094950 0.00104779 0.00197755 0.00245129 0.00232106 0.00138541 
0.00856317 0.00222811 0.00119819 0.00486530 0.00056977 0.00558812 0.00154484 0.00345624 0.00730329 0.00636632 0.00095606 0.00105045 0.00200329 0.00247078 0.00232725 0.00138477 
0.00826836 0.00230510 0.00119273 0.00490050 0.00057307 0.00571262 0.00154896 0.00345027 0.00756178 0.00649233 0.00096314 0.00105466 0.00202885 0.00248998 0.00233477 0.00138404 
0.00802138 0.00238697 0.00118813 0.00493899 0.00057710 0.00584135 0.00155448 0.00344574 0.00782732 0.00662831 0.00097071 0.00106037 0.00205411 0.00250875 0.00234359 0.00138322 
0.00782313 0.00247353 0.00118450 0.00498039 0.00058180 0.00597371 0.00156134 0.00344264 0.00809885 0.00677349 0.00097876 0.00106758 0.00207896 0.00252695 0.00235364 0.00138231 
0.00767423 0.00256455 0.00118191 0.00502433 0.00058712 0.00610905 0.00156951 0.00344096 0.00837529 0.00692699 0.00098724 0.00107622 0.00210330 0.00254444 0.00236489 0.00138133 
0.00757505 0.00265978 0.00118044 0.00507041 0.00059299 0.00624672 0.00157891 0.00344064 0.00865552 0.00708793 0.00099613 0.00108626 0.00212702 0.00256108 0.00237725 0.00138028 
0.00752575 0.00275895 0.00118018 0.00511822 0.00059935 0.00638604 0.00158947 0.00344164 0.00893841 0.00725536 0.00100539 0.00109763 0.00215003 0.00257673 0.00239065 0.00137916 
0.00752620 0.00286178 0.00118121 0.00516734 0.00060614 0.00652633 0.00160112 0.00344388 0.00922282 0.00742830 0.00101498 0.00111027 0.00217223 0.00259125 0.00240501 0.00137798 
0.00757604 0.00296795 0.00118360 0.00521735 0.00061329 0.00666692 0.00161375 0.00344728 0.00950763 0.00760571 0.00102485 0.00112409 0.00219354 0.00260452 0.00242024 0.00137674 
0.00767467 0.00307715 0.00118745 0.00526781 0.00062074 0.00680709 0.00162728 0.00345173 0.00979170 0.00778656 0.00103496 0.00113901 0.00221390 0.00261641 0.00243623 0.00137546 
0.00782125 0.00318904 0.00119282 0.00531830 0.00062844 0.00694615 0.00164161 0.00345712 0.01007390 0.00796977 0.00104526 0.00115493 0.00223321 0.00262680 0.00245289 0.00137413 
0.00801467 0.00330327 0.00119980 0.00536838 0.00063632 0.00708342 0.00165661 0.00346333 0.01035312 0.00815425 0.00105570 0.00117176 0.00225144 0.00263558 0.00247011 0.00137276 
0.00825364 0.00341950 0.00120845 0.00541762 0.00064433 0.00721820 0.00167217 0.00347021 0.01062827 0.00833889 0.00106623 0.00118939 0.00226853 0.00264263 0.00248776 0.00137137 
0.00853660 0.00353735 0.00121885 0.00546559 0.00065240 0.00734980 0.00168816 0.00347762 0.01089830 0.00852259 0.00107680 0.00120771 0.00228443 0.00264787 0.00250573 0.00136995 
0.00886180 0.00365647 0.00123106 0.00551188 0.00066049 0.00747755 0.00170447 0.00348542 0.01116216 0.00870424 0.00108734 0.00122660 0.00229911 0.00265120 0.00252390 0.00136852 
0.00922727 0.00377650 0.00124513 0.00555607 0.00066854 0.00760080 0.00172096 0.00349343 0.01141887 0.00888274 0.00109782 0.00124594 0.00231255 0.00265256 0.00254213 0.00136707 
0.00963087 0.00389707 0.00126113 0.00559778 0.00067650 0.00771890 0.00173749 0.00350149 0.01166746 0.00905699 0.00110816 0.00126561 0.00232474 0.00265186 0.00256029 0.00136562 
0.01007024 0.00401783 0.00127909 0.00563662 0.00068433 0.00783122 0.00175394 0.00350943 0.01190704 0.00922593 0.00111831 0.00128548 0.00233566 0.00264907 0.00257826 0.00136416 
0.01054288 0.00413844 0.00129905 0.00567221 0.00069199 0.00793717 0.00177015 0.00351708 0.01213675 0.00938851 0.00112823 0.00130542 0.00234532 0.00264414 0.00259590 0.00136272 
0.01104612 0.00425858 0.00132105 0.00570422 0.00069944 0.00803616 0.00178601 0.00352426 0.01235578 0.00954370 0.00113785 0.00132532 0.00235374 0.00263705 0.00261308 0.00136128 
0.01157716 0.00437793 0.00134509 0.00573232 0.00070663 0.00812765 0.00180136 0.00353080 0.01256339 0.00969053 0.00114712 0.00134503 0.00236092 0.00262777 0.00262966 0.00135986 
0.01213305 0.00449620 0.00137120 0.00575621 0.00071355 0.00821112 0.00181608 0.00353654 0.01275890 0.00982804 0.00115598 0.00136444 0.00236691 0.00261631 0.00264553 0.00135846 
0.01271076 0.00461315 0.00139936 0.00577560 0.00072016 0.00828608 0.00183003 0.00354130 0.01294169 0.00995535 0.00116440 0.00138343 0.00237174 0.00260269 0.00266055 0.00135708 
0.01330716 0.00472852 0.00142958 0.00579023 0.00072643 0.00835207 0.00184309 0.00354493 0.01311122 0.01007159 0.00117231 0.00140187 0.00237545 0.00258693 0.00267459 0.00135574 
0.01391902 0.00484214 0.00146181 0.00579990 0.00073235 0.00840869 0.00185513 0.00354726 0.01326700 0.01017597 0.00117967 0.00141964 0.00237809 0.00256908 0.00268754 0.00135443 
0.01454310 0.00495384 0.00149602 0.00580438 0.00073790 0.00845555 0.00186604 0.00354816 0.01340863 0.01026776 0.00118643 0.00143665 0.00237973 0.00254919 0.00269929 0.00135315 
0.01517608 0.00506350 0.00153217 0.00580353 0.00074307 0.00849231 0.00187569 0.00354749 0.01353578 0.01034628 0.00119257 0.00145277 0.00238043 0.00252733 0.00270973 0.00135192 
0.01581464 0.00517105 0.00157018 0.00579720 0.00074784 0.00851868 0.00188399 0.00354512 0.01364817 0.01041092 0.00119802 0.00146792 0.00238026 0.00250359 0.00271875 0.00135073 
0.01645547 0.00527649 0.00160998 0.00578528 0.00075222 0.00853440 0.00189083 0.00354093 0.01374563 0.01046114 0.00120277 0.00148199 0.00237930 0.00247808 0.00272626 0.00134958 
0.01709525 0.00537983 0.00165147 0.00576771 0.00075620 0.00853928 0.00189613 0.00353484 0.01382805 0.01049648 0.00120678 0.00149491 0.00237762 0.00245089 0.00273218 0.00134849 
0.01773073 0.00548117 0.00169454 0.00574444 0.00075978 0.00853313 0.00189979 0.00352674 0.01389538 0.01051654 0.00121002 0.00150660 0.00237531 0.00242216 0.00273643 0.00134744 
0.01835869 0.00558066 0.00173907 0.00571546 0.00076297 0.00851585 0.00190176 0.00351657 0.01394766 0.01052099 0.00121247 0.00151698 0.00237245 0.00239201 0.00273893 0.00134643 
0.01897600 0.00567853 0.00178492 0.00568081 0.00076577 0.00848737 0.00190196 0.00350426 0.01398499 0.01050960 0.00121410 0.00152600 0.00236914 0.00236060 0.00273964 0.00134548 
0.01957962 0.00577505 0.00183192 0.00564054 0.00076820 0.00844765 0.00190034 0.00348979 0.01400757 0.01048220 0.00121491 0.00153361 0.00236546 0.00232808 0.00273850 0.00134458 
0.02016662 0.00587057 0.00187993 0.00559474 0.00077027 0.00839673 0.00189686 0.00347312 0.01401562 0.01043871 0.00121487 0.00153977 0.00236150 0.00229462 0.00273547 0.00134373 
0.02073420 0.00596552 0.00192874 0.00554355 0.00077200 0.00833467 0.00189148 0.00345424 0.01400946 0.01037912 0.00121398 0.00154444 0.00235736 0.00226039 0.00273053 0.00134293 
0.02127970 0.00606039 0.00197816 0.00548711 0.00077340 0.00826159 0.00188420 0.00343316 0.01398947 0.01030351 0.00121223 0.00154761 0.00235312 0.00222557 0.00272365 0.00134218 
0.02180064 0.00615577 0.00202798 0.00542561 0.00077449 0.00817764 0.00187498 0.00340992 0.01395608 0.01021202 0.00120963 0.00154927 0.00234887 0.00219035 0.00271483 0.00134147 
0.02229469 0.00625229 0.00207797 0.00535928 0.00077530 0.00808303 0.00186385 0.00338454 0.01390978 0.01010488 0.00120618 0.00154941 0.00234470 0.00215491 0.00270409 0.00134080 
0.02275973 0.00635069 0.00212790 0.00528834 0.00077585 0.00797801 0.00185080 0.00335710 0.01385113 0.00998240 0.00120189 0.00154805 0.00234068 0.00211945 0.00269142 0.00134018 
0.02319382 0.00645176 0.00217751 0.00521309 0.00077617 0.00786288 0.00183587 0.00332765 0.01378070 0.00984494 0.00119676 0.00154520 0.00233689 0.00208416 0.00267686 0.00133959 
0.02359527 0.00655638 0.00222655 0.00513382 0.00077628 0.00773795 0.00181908 0.00329630 0.01369914 0.00969296 0.00119083 0.00154090 0.00233341 0.00204925 0.00266045 0.00133904 
0.02396257 0.00666551 0.00227476 0.00505084 0.00077621 0.00760361 0.00180049 0.00326315 0.01360713 0.00952696 0.00118409 0.00153518 0.00233030 0.00201489 0.00264223 0.00133852 
0.02429449 0.00678019 0.00232185 0.00496451 0.00077598 0.00746027 0.00178015 0.00322832 0.01350538 0.00934754 0.00117659 0.00152809 0.00232763 0.00198130 0.00262226 0.00133803 
0.02459001 0.00690150 0.00236754 0.00487519 0.00077563 0.00730835 0.00175813 0.00319193 0.01339465 0.00915531 0.00116835 0.00151969 0.00232545 0.00194865 0.00260061 0.00133757 
0.02484838 0.00703062 0.00241156 0.00478327 0.00077519 0.00714835 0.00173451 0.00315413 0.01327570 0.00895099 0.00115939 0.00151005 0.00232380 0.00191714 0.00257736 0.00133712 
0.02506908 0.00716880 0.00245360 0.00468914 0.00077467 0.00698076 0.00170936 0.00311509 0.01314932 0.00873532 0.00114975 0.00149923 0.00232273 0.00188693 0.00255259 0.00133668 
0.02525189 0.00731733 0.00249339 0.00459322 0.00077412 0.00680612 0.00168279 0.00307496 0.01301634 0.00850910 0.00113947 0.00148732 0.00232226 0.00185821 0.00252640 0.00133626 
0.02539681 0.00747758 0.00253063 0.00449593 0.00077355 0.00662499 0.00165491 0.00303391 0.01287757 0.00827318 0.00112859 0.00147441 0.00232243 0.00183113 0.00249888 0.00133584 
0.02550412 0.00765095 0.00256504 0.00439772 0.00077299 0.00643795 0.00162581 0.00299213 0.01273384 0.00802843 0.00111715 0.00146058 0.00232324 0.00180584 0.00247015 0.00133542 
0.02557436 0.00783892 0.00259633 0.00429902 0.00077248 0.00624561 0.00159563 0.00294980 0.01258599 0.00777577 0.00110519 0.00144593 0.00232470 0.00178249 0.00244032 0.00133499 
0.02560832 0.00804299 0.00262425 0.00420028 0.00077203 0.00604857 0.00156448 0.00290712 0.01243486 0.00751616 0.00109275 0.00143056 0.00232681 0.00176120 0.00240951 0.00133456 
0.02560707 0.00826470 0.00264851 0.00410195 0.00077166 0.00584747 0.00153250 0.00286428 0.01228125 0.00725056 0.00107990 0.00141459 0.00232955 0.00174210 0.00237784 0.00133411 
0.02557188 0.00850562 0.00266887 0.00400448 0.00077141 0.00564295 0.00149983 0.00282147 0.01212599 0.00697996 0.00106667 0.00139812 0.00233291 0.00172528 0.00234545 0.00133364 
0.02550432 0.00876735 0.00268509 0.00390831 0.00077128 0.00543566 0.00146661 0.00277889 0.01196988 0.00670536 0.00105312 0.00138125 0.00233684 0.00171083 0.00231246 0.00133315 
0.02540615 0.00905150 0.00269695 0.00381389 0.00077131 0.00522625 0.00143298 0.00273672 0.01181368 0.00642777 0.00103930 0.00136410 0.00234132 0.00169882 0.00227902 0.00133262 
0.02527937 0.00935966 0.00270426 0.00372165 0.00077150 0.00501538 0.00139909 0.00269517 0.01165816 0.00614822 0.00102526 0.00134679 0.00234628 0.00168931 0.00224525 0.00133207 
0.02512618 0.00969345 0.00270681 0.00363201 0.00077188 0.00480369 0.00136509 0.00265442 0.01150403 0.00586770 0.00101105 0.00132942 0.00235168 0.00168234 0.00221128 0.00133147 
0.02494901 0.01005446 0.00270447 0.00354538 0.00077245 0.00459184 0.00133114 0.00261464 0.01135200 0.00558723 0.00099674 0.00131211 0.00235745 0.00167792 0.00217727 0.00133084 
0.02475043 0.01044425 0.00269709 0.00346216 0.00077324 0.00438046 0.00129738 0.00257600 0.01120271 0.00530778 0.00098237 0.00129496 0.00236351 0.00167607 0.00214333 0.00133017 
0.02453320 0.01086436 0.00268458 0.00338272 0.00077424 0.00417017 0.00126396 0.00253868 0.01105679 0.00503035 0.00096799 0.00127809 0.00236978 0.00167677 0.00210960 0.00132944 
0.02430025 0.01131627 0.00266685 0.00330744 0.00077548 0.00396160 0.00123105 0.00250282 0.01091482 0.00475587 0.00095367 0.00126159 0.00237618 0.00167999 0.00207621 0.00132867 
0.02405462 0.01180141 0.00264386 0.00323664 0.00077695 0.00375535 0.00119878 0.00246856 0.01077734 0.00448526 0.00093945 0.00124556 0.00238261 0.00168568 0.00204328 0.00132786 
0.02379947 0.01232116 0.00261561 0.00317064 0.00077866 0.00355198 0.00116731 0.00243604 0.01064484 0.00421942 0.00092539 0.00123009 0.00238898 0.00169378 0.00201093 0.00132699 
0.02353807 0.01287680 0.00258212 0.00310974 0.00078062 0.00335205 0.00113678 0.00240538 0.01051775 0.00395921 0.00091154 0.00121529 0.00239518 0.00170421 0.00197928 0.00132607 
0.02327375 0.01346953 0.00254345 0.00305421 0.00078283 0.00315611 0.00110734 0.00237666 0.01039648 0.00370543 0.00089794 0.00120122 0.00240109 0.00171686 0.00194844 0.00132510 
0.02300990 0.01410045 0.00249971 0.00300427 0.00078528 0.00296465 0.00107910 0.00234999 0.01028136 0.00345886 0.00088466 0.00118796 0.00240663 0.00173163 0.00191850 0.00132408 
0.02274996 0.01477057 0.00245104 0.00296015 0.00078797 0.00277816 0.00105222 0.00232544 0.01017269 0.00322022 0.00087173 0.00117560 0.00241167 0.00174838 0.00188957 0.00132302 
0.02249736 0.01548075 0.00239762 0.00292203 0.00079091 0.00259708 0.00102681 0.00230306 0.01007070 0.00299019 0.00085921 0.00116418 0.00241609 0.00176698 0.00186172 0.00132192 
0.02225554 0.01623173 0.00233968 0.00289004 0.00079408 0.00242185 0.00100299 0.00228290 0.00997557 0.00276938 0.00084714 0.00115376 0.00241980 0.00178725 0.00183504 0.00132077 
0.02202790 0.01702413 0.00227748 0.00286433 0.00079749 0.00225284 0.00098089 0.00226498 0.00988745 0.00255838 0.00083556 0.00114439 0.00242267 0.00180904 0.00180961 0.00131959 
0.02181779 0.01785840 0.00221134 0.00284496 0.00080111 0.00209040 0.00096059 0.00224931 0.00980639 0.00235769 0.00082452 0.00113611 0.00242460 0.00183216 0.00178547 0.00131838 
0.02162848 0.01873483 0.00214160 0.00283200 0.00080495 0.00193486 0.00094220 0.00223588 0.00973242 0.00216775 0.00081406 0.00112895 0.00242549 0.00185642 0.00176268 0.00131714 
0.02146316 0.01965355 0.00206866 0.00282547 0.00080900 0.00178651 0.00092582 0.00222467 0.00966551 0.00198898 0.00080422 0.00112293 0.00242522 0.00188163 0.00174128 0.00131589 
0.02132487 0.02061454 0.00199297 0.00282536 0.00081323 0.00164558 0.00091153 0.00221565 0.00960557 0.00182169 0.00079504 0.00111806 0.00242371 0.00190756 0.00172131 0.00131463 
0.02121655 0.02161754 0.00191500 0.00283162 0.00081765 0.00151229 0.00089939 0.00220875 0.00955246 0.00166616 0.00078654 0.00111435 0.00242086 0.00193402 0.00170279 0.00131337 
0.02114097 0.02266217 0.00183527 0.00284418 0.00082224 0.00138681 0.00088948 0.00220391 0.00950600 0.00152261 0.00077877 0.00111180 0.00241660 0.00196077 0.00168574 0.00131212 
0.02110072 0.02374781 0.00175435 0.00286294 0.00082698 0.00126930 0.00088186 0.00220106 0.00946594 0.00139118 0.00077176 0.00111038 0.00241084 0.00198760 0.00167014 0.00131088 
0.02109820 0.02487365 0.00167282 0.00288776 0.00083186 0.00115984 0.00087657 0.00220008 0.00943200 0.00127196 0.00076554 0.00111010 0.00240352 0.00201428 0.00165601 0.00130968 
0.02113559 0.02603870 0.00159134 0.00291847 0.00083687 0.00105850 0.00087364 0.00220088 0.00940385 0.00116498 0.00076013 0.00111090 0.00239460 0.00204058 0.00164331 0.00130852 
0.02121487 0.02724174 0.00151057 0.00295487 0.00084198 0.00096533 0.00087313 0.00220334 0.00938111 0.00107022 0.00075557 0.00111276 0.00238401 0.00206629 0.00163204 0.00130741 
0.02133775 0.02848136 0.00143120 0.00299674 0.00084720 0.00088031 0.00087503 0.00220732 0.00936336 0.00098759 0.00075188 0.00111564 0.00237173 0.00209117 0.00162215 0.00130636 
0.02150571 0.02975595 0.00135398 0.00304383 0.00085249 0.00080341 0.00087937 0.00221270 0.00935016 0.00091695 0.00074908 0.00111948 0.00235775 0.00211501 0.00161360 0.00130540 
0.02171996 0.03106367 0.00127966 0.00309586 0.00085785 0.00073457 0.00088616 0.00221932 0.00934100 0.00085811 0.00074720 0.00112423 0.00234205 0.00213759 0.00160634 0.00130453 
0.02198142 0.03240250 0.00120903 0.00315253 0.00086326 0.00067369 0.00089537 0.00222703 0.00933538 0.00081082 0.00074626 0.00112983 0.00232463 0.00215872 0.00160032 0.00130376 
0.02229077 0.03377020 0.00114287 0.00321352 0.00086870 0.00062064 0.00090701 0.00223567 0.00933273 0.00077478 0.00074628 0.00113620 0.00230553 0.00217818 0.00159546 0.00130311 
0.02264835 0.03516435 0.00108202 0.00327850 0.00087415 0.00057526 0.00092105 0.00224509 0.00933249 0.00074967 0.00074727 0.00114327 0.00228477 0.00219580 0.00159170 0.00130260 
0.02305425 0.03658233 0.00102730 0.00334709 0.00087961 0.00053738 0.00093745 0.00225512 0.00933405 0.00073509 0.00074926 0.00115096 0.00226240 0.00221139 0.00158896 0.00130223 
0.02350825 0.03802132 0.00097955 0.00341893 0.00088505 0.00050679 0.00095618 0.00226559 0.00933680 0.00073063 0.00075225 0.00115920 0.00223849 0.00222478 0.00158716 0.00130203 
0.02400983 0.03947836 0.00093961 0.00349362 0.00089047 0.00048326 0.00097720 0.00227634 0.00934010 0.00073583 0.00075627 0.00116789 0.00221311 0.00223582 0.00158621 0.00130200 
0.02455819 0.04095029 0.00090832 0.00357077 0.00089584 0.00046654 0.00100044 0.00228720 0.00934333 0.00075020 0.00076133 0.00117695 0.00218636 0.00224437 0.00158602 0.00130216 
0.02515221 0.04243378 0.00088653 0.00364996 0.00090115 0.00045636 0.00102585 0.00229801 0.00934582 0.00077322 0.00076743 0.00118629 0.00215835 0.00225031 0.00158649 0.00130253 
0.02579051 0.04392540 0.00087506 0.00373078 0.00090639 0.00045244 0.00105335 0.00230862 0.00934695 0.00080434 0.00077460 0.00119581 0.00212920 0.00225351 0.00158754 0.00130310 
0.02647142 0.04542152 0.00087472 0.00381280 0.00091154 0.00045448 0.00108288 0.00231888 0.00934606 0.00084299 0.00078285 0.00120542 0.00209904 0.00225389 0.00158906 0.00130391 
0.02719299 0.04691844 0.00088631 0.00389559 0.00091659 0.00046216 0.00111435 0.00232863 0.00934253 0.00088858 0.00079217 0.00121503 0.00206802 0.00225137 0.00159095 0.00130494 
0.02795302 0.04841232 0.00091059 0.00397874 0.00092153 0.00047515 0.00114767 0.00233774 0.00933574 0.00094052 0.00080259 0.00122455 0.00203630 0.00224589 0.00159312 0.00130623 
0.02874905 0.04989924 0.00094832 0.00406182 0.00092635 0.00049313 0.00118275 0.00234609 0.00932508 0.00099819 0.00081412 0.00123388 0.00200407 0.00223739 0.00159547 0.00130777 
0.02957839 0.05137518 0.00100018 0.00414441 0.00093104 0.00051575 0.00121949 0.00235354 0.00930998 0.00106097 0.00082675 0.00124293 0.00197149 0.00222586 0.00159790 0.00130956 
0.03043810 0.05283607 0.00106685 0.00422610 0.00093558 0.00054268 0.00125779 0.00235999 0.00928989 0.00112822 0.00084050 0.00125162 0.00193877 0.00221128 0.00160033 0.00131163 
0.03132505 0.05427780 0.00114895 0.00430648 0.00093996 0.00057355 0.00129755 0.00236534 0.00926429 0.00119933 0.00085537 0.00125985 0.00190611 0.00219367 0.00160266 0.00131397 
0.03223594 0.05569622 0.00124705 0.00438516 0.00094418 0.00060802 0.00133864 0.00236950 0.00923272 0.00127367 0.00087137 0.00126756 0.00187372 0.00217304 0.00160480 0.00131658 
0.03316725 0.05708716 0.00136168 0.00446177 0.00094823 0.00064573 0.00138095 0.00237239 0.00919473 0.00135061 0.00088850 0.00127465 0.00184182 0.00214943 0.00160668 0.00131947 
0.03411534 0.05844648 0.00149330 0.00453593 0.00095209 0.00068635 0.00142437 0.00237396 0.00914994 0.00142956 0.00090676 0.00128105 0.00181062 0.00212292 0.00160822 0.00132263 
0.03507643 0.05977003 0.00164229 0.00460731 0.00095577 0.00072953 0.00146878 0.00237416 0.00909802 0.00150991 0.00092616 0.00128670 0.00178036 0.00209356 0.00160934 0.00132606 
0.03604661 0.06105374 0.00180900 0.00467556 0.00095925 0.00077492 0.00151404 0.00237293 0.00903870 0.00159108 0.00094670 0.00129153 0.00175126 0.00206146 0.00160999 0.00132976 
0.03702190 0.06229357 0.00199370 0.00474038 0.00096253 0.00082220 0.00156004 0.00237027 0.00897176 0.00167250 0.00096839 0.00129547 0.00172356 0.00202671 0.00161010 0.00133372 
0.03799825 0.06348559 0.00219655 0.00480149 0.00096561 0.00087104 0.00160664 0.00236615 0.00889706 0.00175364 0.00099120 0.00129849 0.00169748 0.00198944 0.00160963 0.00133793 
0.03897154 0.06462593 0.00241769 0.00485861 0.00096847 0.00092113 0.00165372 0.00236059 0.00881452 0.00183397 0.00101516 0.00130053 0.00167325 0.00194977 0.00160854 0.00134238 
0.03993766 0.06571088 0.00265713 0.00491151 0.00097112 0.00097216 0.00170115 0.00235359 0.00872415 0.00191298 0.00104024 0.00130154 0.00165109 0.00190785 0.00160679 0.00134705 
0.04089247 0.06673682 0.00291483 0.00495997 0.00097354 0.00102384 0.00174879 0.00234518 0.00862602 0.00199021 0.00106646 0.00130151 0.00163122 0.00186384 0.00160435 0.00135193 
0.04183186 0.06770031 0.00319064 0.00500380 0.00097575 0.00107589 0.00179652 0.00233541 0.00852030 0.00206522 0.00109378 0.00130039 0.00161385 0.00181790 0.00160121 0.00135700 
0.04275177 0.06859807 0.00348435 0.00504284 0.00097774 0.00112804 0.00184420 0.00232432 0.00840722 0.00213760 0.00112222 0.00129817 0.00159918 0.00177020 0.00159736 0.00136223 
0.04364821 0.06942699 0.00379564 0.00507695 0.00097950 0.00118005 0.00189171 0.00231197 0.00828714 0.00220695 0.00115176 0.00129483 0.00158740 0.00172093 0.00159280 0.00136762 
0.04451727 0.07018418 0.00412411 0.00510603 0.00098103 0.00123166 0.00193891 0.00229845 0.00816046 0.00227293 0.00118237 0.00129037 0.00157870 0.00167027 0.00158755 0.00137312 
0.04535516 0.07086695 0.00446926 0.00512999 0.00098234 0.00128266 0.00198568 0.00228382 0.00802770 0.00233522 0.00121406 0.00128480 0.00157325 0.00161842 0.00158161 0.00137871 
0.04615820 0.07147281 0.00483053 0.00514878 0.00098342 0.00133284 0.00203189 0.00226818 0.00788949 0.00239354 0.00124679 0.00127811 0.00157118 0.00156558 0.00157503 0.00138436 
0.04692287 0.07199955 0.00520723 0.00516238 0.00098428 0.00138200 0.00207742 0.00225163 0.00774651 0.00244763 0.00128054 0.00127032 0.00157265 0.00151195 0.00156783 0.00139004 
0.04764583 0.07244517 0.00559861 0.00517079 0.00098492 0.00142997 0.00212214 0.00223428 0.00759957 0.00249728 0.00131530 0.00126145 0.00157777 0.00145772 0.00156006 0.00139571 
0.04832392 0.07280796 0.00600382 0.00517404 0.00098534 0.00147658 0.00216595 0.00221625 0.00744957 0.00254231 0.00135103 0.00125154 0.00158665 0.00140311 0.00155177 0.00140135 
0.04895417 0.07308643 0.00642193 0.00517219 0.00098554 0.00152169 0.00220871 0.00219763 0.00729749 0.00258256 0.00138771 0.00124061 0.00159937 0.00134830 0.00154303 0.00140690 
0.04953385 0.07327940 0.00685194 0.00516532 0.00098552 0.00156516 0.00225034 0.00217858 0.00714442 0.00261793 0.00142529 0.00122870 0.00161600 0.00129351 0.00153390 0.00141233 
0.05006043 0.07338596 0.00729275 0.00515353 0.00098530 0.00160688 0.00229070 0.00215920 0.00699154 0.00264831 0.00146374 0.00121587 0.00163657 0.00123893 0.00152446 0.00141759 
0.05053165 0.07340546 0.00774319 0.00513696 0.00098487 0.00164675 0.00232972 0.00213963 0.00684012 0.00267368 0.00150303 0.00120217 0.00166111 0.00118475 0.00151479 0.00142266 
0.05094550 0.07333755 0.00820203 0.00511576 0.00098425 0.00168468 0.00236728 0.00212000 0.00669150 0.00269399 0.00154309 0.00118764 0.00168962 0.00113116 0.00150498 0.00142748 
0.05130024 0.07318218 0.00866797 0.00509010 0.00098342 0.00172060 0.00240329 0.00210044 0.00654712 0.00270927 0.00158390 0.00117236 0.00172207 0.00107833 0.00149513 0.00143200 
0.05159439 0.07293955 0.00913963 0.00506019 0.00098241 0.00175445 0.00243768 0.00208109 0.00640852 0.00271955 0.00162538 0.00115638 0.00175844 0.00102644 0.00148531 0.00143619 
0.05182674 0.07261018 0.00961558 0.00502623 0.00098121 0.00178618 0.00247036 0.00206207 0.00627728 0.00272489 0.00166750 0.00113979 0.00179864 0.00097566 0.00147565 0.00143999 
0.05199641 0.07219484 0.01009437 0.00498845 0.00097984 0.00181576 0.00250125 0.00204352 0.00615506 0.00272539 0.00171018 0.00112265 0.00184258 0.00092613 0.00146624 0.00144337 
0.05210275 0.07169460 0.01057446 0.00494710 0.00097830 0.00184317 0.00253030 0.00202557 0.00604361 0.00272115 0.00175337 0.00110504 0.00189017 0.00087801 0.00145719 0.00144627 
0.05214544 0.07111080 0.01105431 0.00490244 0.00097659 0.00186840 0.00255745 0.00200834 0.00594471 0.00271232 0.00179699 0.00108705 0.00194126 0.00083142 0.00144861 0.00144865 
0.05212444 0.07044504 0.01153231 0.00485473 0.00097473 0.00189144 0.00258265 0.00199196 0.00586019 0.00269906 0.00184098 0.00106874 0.00199570 0.00078650 0.00144060 0.00145047 
0.05203999 0.06969918 0.01200686 0.00480427 0.00097272 0.00191231 0.00260585 0.00197653 0.00579195 0.00268154 0.00188527 0.00105021 0.00205332 0.00074336 0.00143327 0.00145169 
0.05189262 0.06887532 0.01247634 0.00475133 0.00097057 0.00193103 0.00262704 0.00196218 0.00574191 0.00265996 0.00192977 0.00103154 0.00211393 0.00070209 0.00142673 0.00145226 
0.05168315 0.06797583 0.01293910 0.00469622 0.00096829 0.00194763 0.00264618 0.00194902 0.00571201 0.00263453 0.00197440 0.00101282 0.00217730 0.00066278 0.00142108 0.00145214 
0.05141268 0.06700326 0.01339351 0.00463923 0.00096589 0.00196213 0.00266327 0.00193714 0.00570423 0.00260546 0.00201909 0.00099413 0.00224321 0.00062551 0.00141642 0.00145130 
0.05108256 0.06596043 0.01383793 0.00458068 0.00096337 0.00197458 0.00267830 0.00192664 0.00572054 0.00257300 0.00206374 0.00097555 0.00231142 0.00059035 0.00141284 0.00144970 
0.05069441 0.06485033 0.01427076 0.00452085 0.00096075 0.00198504 0.00269130 0.00191762 0.00576291 0.00253740 0.00210826 0.00095717 0.00238166 0.00055734 0.00141044 0.00144730 
0.05025012 0.06367615 0.01469040 0.00446007 0.00095803 0.00199355 0.00270227 0.00191016 0.00583331 0.00249889 0.00215258 0.00093907 0.00245366 0.00052651 0.00140931 0.00144407 
0.04975179 0.06244127 0.01509529 0.00439862 0.00095522 0.00200018 0.00271126 0.00190435 0.00593367 0.00245775 0.00219659 0.00092134 0.00252712 0.00049791 0.00140952 0.00144000 
0.04920178 0.06114921 0.01548392 0.00433681 0.00095233 0.00200499 0.00271831 0.00190025 0.00606591 0.00241424 0.00224021 0.00090404 0.00260176 0.00047153 0.00141115 0.00143505 
0.04860265 0.05980366 0.01585482 0.00427492 0.00094937 0.00200805 0.00272348 0.00189793 0.00623189 0.00236862 0.00228334 0.00088726 0.00267726 0.00044737 0.00141425 0.00142920 
0.04795717 0.05840843 0.01620657 0.00421325 0.00094634 0.00200943 0.00272685 0.00189747 0.00643340 0.00232116 0.00232588 0.00087108 0.00275331 0.00042544 0.00141889 0.00142243 
0.04726830 0.05696746 0.01653782 0.00415207 0.00094326 0.00200920 0.00272849 0.00189890 0.00667219 0.00227213 0.00236774 0.00085554 0.00282960 0.00040569 0.00142511 0.00141474 
0.04653918 0.05548478 0.01684730 0.00409163 0.00094013 0.00200746 0.00272851 0.00190229 0.00694992 0.00222179 0.00240884 0.00084073 0.00290581 0.00038811 0.00143294 0.00140612 
0.04577309 0.05396452 0.01713381 0.00403221 0.00093696 0.00200427 0.00272703 0.00190768 0.00726814 0.00217041 0.00244907 0.00082671 0.00298160 0.00037264 0.00144241 0.00139655 
0.04497348 0.05241088 0.01739623 0.00397404 0.00093376 0.00199971 0.00272415 0.00191512 0.00762832 0.00211824 0.00248836 0.00081352 0.00305667 0.00035924 0.00145353 0.00138605 
0.04414390 0.05082811 0.01763354 0.00391735 0.00093054 0.00199388 0.00272004 0.00192463 0.00803181 0.00206554 0.00252660 0.00080121 0.00313069 0.00034783 0.00146631 0.00137461 
0.04328804 0.04922050 0.01784483 0.00386236 0.00092730 0.00198686 0.00271483 0.00193626 0.00847981 0.00201254 0.00256372 0.00078985 0.00320335 0.00033834 0.00148074 0.00136225 
0.04240966 0.04759238 0.01802926 0.00380925 0.00092405 0.00197872 0.00270870 0.00195003 0.00897342 0.00195948 0.00259964 0.00077945 0.00327435 0.00033070 0.00149679 0.00134898 
0.04151260 0.04594808 0.01818613 0.00375822 0.00092080 0.00196956 0.00270183 0.00196597 0.00951356 0.00190660 0.00263427 0.00077006 0.00334338 0.00032482 0.00151443 0.00133482 
0.04060077 0.04429193 0.01831485 0.00370944 0.00091755 0.00195946 0.00269441 0.00198409 0.01010100 0.00185410 0.00266755 0.00076171 0.00341016 0.00032060 0.00153362 0.00131979 
0.03967809 0.04262826 0.01841493 0.00366304 0.00091430 0.00194852 0.00268665 0.00200443 0.01073634 0.00180220 0.00269940 0.00075442 0.00347442 0.00031795 0.00155430 0.00130393 
0.03874854 0.04096134 0.01848602 0.00361916 0.00091108 0.00193681 0.00267876 0.00202700 0.01142000 0.00175109 0.00272976 0.00074819 0.00353589 0.00031675 0.00157640 0.00128726 
0.03781608 0.03929544 0.01852787 0.00357791 0.00090787 0.00192443 0.00267097 0.00205182 0.01215222 0.00170095 0.00275859 0.00074306 0.00359433 0.00031690 0.00159983 0.00126983 
0.03688467 0.03763474 0.01854037 0.00353938 0.00090469 0.00191145 0.00266353 0.00207890 0.01293303 0.00165196 0.00278582 0.00073900 0.00364951 0.00031829 0.00162451 0.00125168 
0.03595824 0.03598337 0.01852355 0.00350366 0.00090153 0.00189798 0.00265670 0.00210825 0.01376226 0.00160428 0.00281141 0.00073603 0.00370123 0.00032080 0.00165033 0.00123285 
0.03504068 0.03434540 0.01847753 0.00347079 0.00089841 0.00188409 0.00265072 0.00213989 0.01463953 0.00155805 0.00283533 0.00073414 0.00374930 0.00032432 0.00167718 0.00121339 
0.03413580 0.03272480 0.01840260 0.00344081 0.00089533 0.00186987 0.00264587 0.00217382 0.01556424 0.00151341 0.00285755 0.00073331 0.00379354 0.00032872 0.00170493 0.00119337 
0.03324736 0.03112544 0.01829915 0.00341375 0.00089228 0.00185540 0.00264244 0.00221007 0.01653558 0.00147049 0.00287804 0.00073351 0.00383382 0.00033390 0.00173344 0.00117284 
0.03237902 0.02955110 0.01816769 0.00338960 0.00088928 0.00184079 0.00264070 0.00224864 0.01755250 0.00142939 0.00289681 0.00073473 0.00387001 0.00033972 0.00176259 0.00115186 
0.03153432 0.02800545 0.01800887 0.00336834 0.00088632 0.00182610 0.00264094 0.00228954 0.01861373 0.00139021 0.00291383 0.00073692 0.00390201 0.00034608 0.00179220 0.00113049 
0.03071672 0.02649202 0.01782345 0.00334995 0.00088342 0.00181142 0.00264347 0.00233279 0.01971777 0.00135303 0.00292912 0.00074006 0.00392976 0.00035286 0.00182213 0.00110881 
0.02992951 0.02501424 0.01761231 0.00333437 0.00088056 0.00179684 0.00264857 0.00237838 0.02086288 0.00131794 0.00294269 0.00074409 0.00395320 0.00035994 0.00185222 0.00108688 
0.02917585 0.02357540 0.01737643 0.00332153 0.00087775 0.00178245 0.00265655 0.00242633 0.02204710 0.00128500 0.00295457 0.00074898 0.00397231 0.00036722 0.00188229 0.00106478 
0.02845876 0.02217866 0.01711691 0.00331135 0.00087500 0.00176833 0.00266770 0.00247666 0.02326824 0.00125425 0.00296477 0.00075466 0.00398710 0.00037460 0.00191217 0.00104258 
0.02778108 0.02082701 0.01683495 0.00330374 0.00087230 0.00175456 0.00268233 0.00252935 0.02452388 0.00122574 0.00297335 0.00076109 0.00399759 0.00038196 0.00194169 0.00102035 
0.02714548 0.01952334 0.01653184 0.00329857 0.00086966 0.00174123 0.00270073 0.00258443 0.02581139 0.00119949 0.00298034 0.00076819 0.00400383 0.00038922 0.00197067 0.00099816 
0.02655445 0.01827034 0.01620895 0.00329572 0.00086707 0.00172842 0.00272317 0.00264189 0.02712793 0.00117555 0.00298581 0.00077592 0.00400591 0.00039627 0.00199893 0.00097610 
0.02601030 0.01707058 0.01586776 0.00329506 0.00086454 0.00171621 0.00274996 0.00270174 0.02847042 0.00115390 0.00298981 0.00078419 0.00400392 0.00040304 0.00202629 0.00095423 
0.02551511 0.01592646 0.01550979 0.00329644 0.00086206 0.00170468 0.00278136 0.00276397 0.02983561 0.00113456 0.00299242 0.00079294 0.00399800 0.00040944 0.00205258 0.00093264 
0.02507081 0.01484022 0.01513664 0.00329969 0.00085964 0.00169392 0.00281763 0.00282858 0.03122005 0.00111753 0.00299372 0.00080210 0.00398828 0.00041540 0.00207762 0.00091138 
0.02467907 0.01381395 0.01474997 0.00330464 0.00085728 0.00168400 0.00285902 0.00289555 0.03262012 0.00110280 0.00299378 0.00081159 0.00397494 0.00042085 0.00210125 0.00089053 
0.02434139 0.01284954 0.01435148 0.00331112 0.00085497 0.00167500 0.00290578 0.00296489 0.03403202 0.00109033 0.00299269 0.00082133 0.00395817 0.00042573 0.00212329 0.00087016 
0.02405904 0.01194876 0.01394292 0.00331894 0.00085272 0.00166700 0.00295813 0.00303656 0.03545181 0.00108012 0.00299056 0.00083126 0.00393818 0.00042998 0.00214361 0.00085034 
0.02383307 0.01111317 0.01352606 0.00332790 0.00085053 0.00166008 0.00301626 0.00311055 0.03687539 0.00107213 0.00298748 0.00084129 0.00391520 0.00043355 0.00216204 0.00083112 
0.02366431 0.01034419 0.01310270 0.00333781 0.00084839 0.00165430 0.00308036 0.00318682 0.03829855 0.00106633 0.00298356 0.00085135 0.00388946 0.00043640 0.00217844 0.00081256 
0.02355340 0.00964304 0.01267464 0.00334847 0.00084630 0.00164973 0.00315061 0.00326533 0.03971698 0.00106267 0.00297889 0.00086135 0.00386122 0.00043850 0.00219269 0.00079471 
0.02350073 0.00901080 0.01224368 0.00335967 0.00084428 0.00164645 0.00322713 0.00334605 0.04112626 0.00106112 0.00297359 0.00087122 0.00383076 0.00043982 0.00220465 0.00077764 
0.02350651 0.00844834 0.01181163 0.00337120 0.00084230 0.00164452 0.00331006 0.00342891 0.04252192 0.00106162 0.00296777 0.00088090 0.00379836 0.00044034 0.00221423 0.00076137 
0.02357072 0.00795639 0.01138026 0.00338285 0.00084039 0.00164400 0.00339948 0.00351386 0.04389941 0.00106412 0.00296154 0.00089029 0.00376429 0.00044004 0.00222133 0.00074595 
0.02369312 0.00753548 0.01095132 0.00339442 0.00083852 0.00164495 0.00349545 0.00360082 0.04525418 0.00106857 0.00295501 0.00089934 0.00372887 0.00043891 0.00222586 0.00073142 
0.02387331 0.00718597 0.01052655 0.00340570 0.00083671 0.00164742 0.00359803 0.00368970 0.04658165 0.00107490 0.00294828 0.00090797 0.00369239 0.00043697 0.00222775 0.00071780 
0.02411064 0.00690804 0.01010760 0.00341649 0.00083496 0.00165146 0.00370722 0.00378042 0.04787724 0.00108307 0.00294147 0.00091612 0.00365516 0.00043420 0.00222694 0.00070511 
0.02440432 0.00670171 0.00969610 0.00342658 0.00083326 0.00165711 0.00382299 0.00387287 0.04913643 0.00109301 0.00293467 0.00092372 0.00361748 0.00043062 0.00222340 0.00069338 
0.02475332 0.00656679 0.00929360 0.00343577 0.00083161 0.00166442 0.00394530 0.00396693 0.05035472 0.00110465 0.00292799 0.00093071 0.00357965 0.00042625 0.00221710 0.00068260 
0.02515648 0.00650294 0.00890160 0.00344389 0.00083003 0.00167342 0.00407408 0.00406247 0.05152769 0.00111793 0.00292153 0.00093704 0.00354198 0.00042111 0.00220802 0.00067279 
0.02561244 0.00650963 0.00852150 0.00345073 0.00082849 0.00168414 0.00420919 0.00415937 0.05265105 0.00113278 0.00291537 0.00094266 0.00350477 0.00041523 0.00219618 0.00066393 
0.02611969 0.00658614 0.00815464 0.00345613 0.00082702 0.00169659 0.00435050 0.00425745 0.05372059 0.00114914 0.00290959 0.00094752 0.00346830 0.00040863 0.00218159 0.00065603 
0.02667657 0.00673159 0.00780224 0.00345991 0.00082560 0.00171080 0.00449784 0.00435657 0.05473225 0.00116694 0.00290428 0.00095157 0.00343285 0.00040136 0.00216428 0.00064907 
0.02728126 0.00694490 0.00746546 0.00346192 0.00082424 0.00172678 0.00465099 0.00445654 0.05568213 0.00118610 0.00289950 0.00095478 0.00339869 0.00039346 0.00214432 0.00064302 
0.02793182 0.00722483 0.00714533 0.00346200 0.00082294 0.00174451 0.00480971 0.00455718 0.05656654 0.00120656 0.00289532 0.00095712 0.00336608 0.00038496 0.00212175 0.00063785 
0.02862618 0.00756995 0.00684278 0.00346002 0.00082170 0.00176401 0.00497372 0.00465829 0.05738195 0.00122824 0.00289177 0.00095855 0.00333526 0.00037593 0.00209668 0.00063354 
0.02936216 0.00797866 0.00655866 0.00345585 0.00082053 0.00178525 0.00514273 0.00475966 0.05812507 0.00125107 0.00288892 0.00095905 0.00330646 0.00036640 0.00206918 0.00063005 
0.03013746 0.00844918 0.00629366 0.00344937 0.00081941 0.00180821 0.00531640 0.00486108 0.05879287 0.00127498 0.00288679 0.00095861 0.00327988 0.00035643 0.00203937 0.00062732 
0.03094971 0.00897956 0.00604839 0.00344049 0.00081837 0.00183286 0.00549436 0.00496230 0.05938255 0.00129990 0.00288539 0.00095722 0.00325572 0.00034608 0.00200737 0.00062531 
0.03179643 0.00956766 0.00582333 0.00342910 0.00081739 0.00185917 0.00567622 0.00506310 0.05989160 0.00132574 0.00288475 0.00095486 0.00323416 0.00033541 0.00197331 0.00062397 
0.03267510 0.01021119 0.00561884 0.00341514 0.00081647 0.00188708 0.00586156 0.00516322 0.06031780 0.00135244 0.00288487 0.00095154 0.00321533 0.00032447 0.00193734 0.00062323 
0.03358311 0.01090768 0.00543517 0.00339855 0.00081563 0.00191655 0.00604994 0.00526243 0.06065922 0.00137991 0.00288573 0.00094726 0.00319937 0.00031332 0.00189961 0.00062304 
0.03451781 0.01165450 0.00527245 0.00337927 0.00081486 0.00194752 0.00624089 0.00536045 0.06091429 0.00140809 0.00288732 0.00094203 0.00318639 0.00030202 0.00186029 0.00062332 
0.03547650 0.01244888 0.00513069 0.00335728 0.00081416 0.00197990 0.00643392 0.00545702 0.06108171 0.00143688 0.00288960 0.00093587 0.00317647 0.00029064 0.00181955 0.00062402 
0.03645647 0.01328784 0.00500979 0.00333256 0.00081354 0.00201362 0.00662851 0.00555188 0.06116056 0.00146622 0.00289253 0.00092879 0.00316967 0.00027923 0.00177756 0.00062505 
0.03745496 0.01416831 0.00490952 0.00330510 0.00081300 0.00204860 0.00682414 0.00564477 0.06115026 0.00149603 0.00289606 0.00092083 0.00316603 0.00026785 0.00173452 0.00062635 
0.03846923 0.01508704 0.00482956 0.00327492 0.00081253 0.00208473 0.00702026 0.00573540 0.06105056 0.00152622 0.00290012 0.00091200 0.00316557 0.00025657 0.00169061 0.00062784 
0.03949652 0.01604064 0.00476947 0.00324204 0.00081215 0.00212192 0.00721631 0.00582351 0.06086160 0.00155672 0.00290464 0.00090235 0.00316826 0.00024544 0.00164603 0.00062946 
0.04053407 0.01702560 0.00472873 0.00320651 0.00081184 0.00216006 0.00741171 0.00590884 0.06058386 0.00158743 0.00290955 0.00089192 0.00317409 0.00023453 0.00160098 0.00063111 
0.04157916 0.01803829 0.00470669 0.00316839 0.00081162 0.00219903 0.00760590 0.00599113 0.06021817 0.00161830 0.00291475 0.00088075 0.00318298 0.00022387 0.00155566 0.00063274 
0.04262908 0.01907496 0.00470263 0.00312775 0.00081148 0.00223871 0.00779827 0.00607011 0.05976573 0.00164922 0.00292014 0.00086888 0.00319488 0.00021354 0.00151026 0.00063426 
0.04368115 0.02013174 0.00471575 0.00308466 0.00081143 0.00227897 0.00798825 0.00614554 0.05922811 0.00168012 0.00292561 0.00085638 0.00320966 0.00020358 0.00146497 0.00063561 
0.04473274 0.02120469 0.00474514 0.00303924 0.00081146 0.00231967 0.00817523 0.00621718 0.05860719 0.00171091 0.00293105 0.00084329 0.00322722 0.00019404 0.00142001 0.00063673 
0.04578127 0.02228975 0.00478984 0.00299160 0.00081158 0.00236068 0.00835863 0.00628479 0.05790522 0.00174152 0.00293635 0.00082967 0.00324741 0.00018497 0.00137554 0.00063753 
0.04682420 0.02338283 0.00484883 0.00294185 0.00081178 0.00240185 0.00853786 0.00634815 0.05712478 0.00177187 0.00294138 0.00081559 0.00327008 0.00017641 0.00133177 0.00063796 
0.04785907 0.02447974 0.00492101 0.00289015 0.00081207 0.00244304 0.00871234 0.00640707 0.05626877 0.00180186 0.00294601 0.00080110 0.00329504 0.00016840 0.00128887 0.00063797 
0.04888347 0.02557626 0.00500523 0.00283663 0.00081245 0.00248408 0.00888150 0.00646133 0.05534040 0.00183142 0.00295011 0.00078628 0.00332210 0.00016099 0.00124701 0.00063750 
0.04989507 0.02666814 0.00510032 0.00278146 0.00081290 0.00252484 0.00904477 0.00651078 0.05434316 0.00186048 0.00295355 0.00077119 0.00335105 0.00015420 0.00120637 0.00063650 
0.05089163 0.02775110 0.00520505 0.00272480 0.00081344 0.00256515 0.00920162 0.00655524 0.05328083 0.00188894 0.00295619 0.00075590 0.00338168 0.00014808 0.00116709 0.00063493 
0.05187097 0.02882085 0.00531817 0.00266684 0.00081406 0.00260487 0.00935151 0.00659457 0.05215746 0.00191674 0.00295790 0.00074048 0.00341374 0.00014264 0.00112931 0.00063275 
0.05283100 0.02987314 0.00543841 0.00260776 0.00081475 0.00264382 0.00949394 0.00662866 0.05097732 0.00194380 0.00295855 0.00072500 0.00344701 0.00013791 0.00109319 0.00062993 
0.05376974 0.03090371 0.00556449 0.00254777 0.00081552 0.00268186 0.00962841 0.00665739 0.04974493 0.00197004 0.00295801 0.00070954 0.00348121 0.00013392 0.00105884 0.00062645 
0.05468529 0.03190836 0.00569513 0.00248704 0.00081636 0.00271884 0.00975447 0.00668068 0.04846496 0.00199539 0.00295615 0.00069417 0.00351611 0.00013068 0.00102637 0.00062228 
0.05557585 0.03288296 0.00582904 0.00242580 0.00081727 0.00275460 0.00987168 0.00669847 0.04714231 0.00201979 0.00295284 0.00067895 0.00355143 0.00012821 0.00099588 0.00061741 
0.05643971 0.03382344 0.00596496 0.00236426 0.00081824 0.00278898 0.00997964 0.00671073 0.04578201 0.00204317 0.00294798 0.00066396 0.00358692 0.00012652 0.00096747 0.00061184 
0.05727527 0.03472583 0.00610163 0.00230263 0.00081928 0.00282185 0.01007795 0.00671742 0.04438920 0.00206546 0.00294144 0.00064927 0.00362230 0.00012561 0.00094119 0.00060558 
0.05808105 0.03558628 0.00623784 0.00224112 0.00082036 0.00285307 0.01016628 0.00671856 0.04296915 0.00208661 0.00293313 0.00063494 0.00365731 0.00012549 0.00091712 0.00059863 
0.05885564 0.03640107 0.00637239 0.00217996 0.00082149 0.00288249 0.01024432 0.00671417 0.04152719 0.00210656 0.00292294 0.00062104 0.00369170 0.00012617 0.00089530 0.00059101 
0.05959778 0.03716663 0.00650415 0.00211936 0.00082266 0.00290998 0.01031178 0.00670430 0.04006870 0.00212526 0.00291080 0.00060763 0.00372519 0.00012763 0.00087576 0.00058274 
0.06030629 0.03787954 0.00663202 0.00205954 0.00082387 0.00293542 0.01036842 0.00668901 0.03859909 0.00214266 0.00289663 0.00059478 0.00375755 0.00012987 0.00085851 0.00057385 
0.06098012 0.03853658 0.00675494 0.00200072 0.00082510 0.00295870 0.01041405 0.00666841 0.03712378 0.00215873 0.00288035 0.00058254 0.00378853 0.00013288 0.00084357 0.00056439 
0.06161830 0.03913472 0.00687194 0.00194311 0.00082635 0.00297970 0.01044849 0.00664261 0.03564812 0.00217341 0.00286192 0.00057096 0.00381789 0.00013665 0.00083092 0.00055439 
0.06222003 0.03967116 0.00698210 0.00188693 0.00082761 0.00299831 0.01047163 0.00661173 0.03417745 0.00218669 0.00284130 0.00056010 0.00384542 0.00014117 0.00082053 0.00054391 
0.06278456 0.04014332 0.00708455 0.00183237 0.00082888 0.00301446 0.01048337 0.00657592 0.03271701 0.00219854 0.00281845 0.00055000 0.00387091 0.00014640 0.00081238 0.00053300 
0.06331130 0.04054888 0.00717854 0.00177965 0.00083014 0.00302805 0.01048366 0.00653538 0.03127192 0.00220893 0.00279337 0.00054071 0.00389416 0.00015234 0.00080641 0.00052173 
0.06379975 0.04088577 0.00726335 0.00172896 0.00083138 0.00303902 0.01047252 0.00649027 0.02984719 0.00221785 0.00276604 0.00053226 0.00391498 0.00015896 0.00080256 0.00051016 
0.06424955 0.04115221 0.00733836 0.00168048 0.00083260 0.00304729 0.01044997 0.00644081 0.02844766 0.00222529 0.00273648 0.00052468 0.00393323 0.00016622 0.00080076 0.00049836 
0.06466043 0.04134669 0.00740305 0.00163440 0.00083378 0.00305283 0.01041609 0.00638721 0.02707801 0.00223125 0.00270472 0.00051800 0.00394875 0.00017410 0.00080092 0.00048641 
0.06503225 0.04146802 0.00745696 0.00159088 0.00083492 0.00305558 0.01037100 0.00632972 0.02574272 0.00223572 0.00267079 0.00051225 0.00396142 0.00018257 0.00080295 0.00047440 
0.06536499 0.04151532 0.00749971 0.00155011 0.00083601 0.00305551 0.01031485 0.00626857 0.02444604 0.00223873 0.00263475 0.00050745 0.00397113 0.00019159 0.00080675 0.00046240 
0.06565872 0.04148801 0.00753105 0.00151222 0.00083704 0.00305262 0.01024786 0.00620403 0.02319198 0.00224029 0.00259667 0.00050359 0.00397779 0.00020113 0.00081220 0.00045050 
0.06591367 0.04138588 0.00755077 0.00147736 0.00083799 0.00304689 0.01017024 0.00613636 0.02198432 0.00224041 0.00255663 0.00050070 0.00398133 0.00021114 0.00081919 0.00043879 
0.06613014 0.04120900 0.00755878 0.00144568 0.00083886 0.00303833 0.01008229 0.00606583 0.02082655 0.00223912 0.00251473 0.00049877 0.00398172 0.00022159 0.00082758 0.00042735 
0.06630858 0.04095783 0.00755506 0.00141729 0.00083964 0.00302695 0.00998431 0.00599274 0.01972189 0.00223646 0.00247108 0.00049779 0.00397892 0.00023244 0.00083725 0.00041629 
0.06644953 0.04063314 0.00753969 0.00139230 0.00084032 0.00301278 0.00987664 0.00591735 0.01867323 0.00223247 0.00242579 0.00049775 0.00397293 0.00024364 0.00084806 0.00040569 
0.06655366 0.04023605 0.00751282 0.00137082 0.00084089 0.00299587 0.00975967 0.00583996 0.01768321 0.00222719 0.00237901 0.00049865 0.00396378 0.00025514 0.00085986 0.00039564 
0.06662174 0.03976804 0.00747468 0.00135294 0.00084135 0.00297626 0.00963382 0.00576085 0.01675410 0.00222067 0.00233087 0.00050044 0.00395149 0.00026692 0.00087251 0.00038623 
0.06665466 0.03923093 0.00742560 0.00133874 0.00084168 0.00295402 0.00949953 0.00568032 0.01588787 0.00221297 0.00228155 0.00050311 0.00393614 0.00027890 0.00088587 0.00037755 
0.06665341 0.03862685 0.00736597 0.00132827 0.00084189 0.00292923 0.00935727 0.00559864 0.01508618 0.00220415 0.00223119 0.00050663 0.00391781 0.00029106 0.00089978 0.00036969 
0.06661908 0.03795830 0.00729625 0.00132160 0.00084195 0.00290195 0.00920754 0.00551610 0.01435032 0.00219427 0.00217999 0.00051094 0.00389658 0.00030335 0.00091409 0.00036272 
0.06655289 0.03722809 0.00721698 0.00131878 0.00084187 0.00287230 0.00905088 0.00543296 0.01368128 0.00218341 0.00212812 0.00051601 0.00387260 0.00031571 0.00092867 0.00035673 
0.06645614 0.03643935 0.00712875 0.00131982 0.00084165 0.00284037 0.00888783 0.00534951 0.01307970 0.00217163 0.00207578 0.00052179 0.00384599 0.00032810 0.00094337 0.00035180 
0.06633023 0.03559552 0.00703222 0.00132475 0.00084127 0.00280627 0.00871896 0.00526599 0.01254589 0.00215901 0.00202316 0.00052822 0.00381691 0.00034047 0.00095803 0.00034799 
0.06617666 0.03470031 0.00692810 0.00133358 0.00084074 0.00277014 0.00854486 0.00518266 0.01207985 0.00214563 0.00197047 0.00053524 0.00378554 0.00035278 0.00097253 0.00034537 
0.06599701 0.03375776 0.00681715 0.00134630 0.00084006 0.00273209 0.00836613 0.00509976 0.01168123 0.00213158 0.00191792 0.00054280 0.00375206 0.00036499 0.00098673 0.00034401 
0.06579296 0.03277212 0.00670016 0.00136291 0.00083922 0.00269227 0.00818340 0.00501750 0.01134939 0.00211693 0.00186571 0.00055082 0.00371668 0.00037703 0.00100050 0.00034395 
0.06556626 0.03174792 0.00657799 0.00138336 0.00083822 0.00265081 0.00799729 0.00493611 0.01108339 0.00210178 0.00181405 0.00055923 0.00367961 0.00038888 0.00101371 0.00034526 
0.06531873 0.03068991 0.00645149 0.00140764 0.00083707 0.00260788 0.00780844 0.00485578 0.01088197 0.00208621 0.00176316 0.00056796 0.00364109 0.00040049 0.00102626 0.00034796 
0.06505226 0.02960305 0.00632157 0.00143569 0.00083576 0.00256361 0.00761749 0.00477670 0.01074360 0.00207030 0.00171324 0.00057694 0.00360134 0.00041182 0.00103803 0.00035210 
0.06476881 0.02849247 0.00618913 0.00146746 0.00083430 0.00251818 0.00742509 0.00469902 0.01066649 0.00205416 0.00166450 0.00058608 0.00356062 0.00042282 0.00104892 0.00035770 
0.06447039 0.02736347 0.00605512 0.00150289 0.00083270 0.00247174 0.00723188 0.00462292 0.01064859 0.00203785 0.00161715 0.00059531 0.00351918 0.00043346 0.00105883 0.00036479 
0.06415906 0.02622150 0.00592045 0.00154189 0.00083096 0.00242447 0.00703852 0.00454851 0.01068760 0.00202147 0.00157138 0.00060454 0.00347728 0.00044370 0.00106770 0.00037338 
0.06383689 0.02507210 0.00578608 0.00158439 0.00082909 0.00237652 0.00684563 0.00447592 0.01078102 0.00200511 0.00152739 0.00061370 0.00343517 0.00045351 0.00107543 0.00038348 
0.06350602 0.02392091 0.00565292 0.00163030 0.00082709 0.00232807 0.00665385 0.00440526 0.01092611 0.00198885 0.00148535 0.00062270 0.00339313 0.00046285 0.00108197 0.00039508 
0.06316858 0.02277362 0.00552190 0.00167951 0.00082498 0.00227929 0.00646381 0.00433659 0.01111998 0.00197277 0.00144545 0.00063146 0.00335141 0.00047170 0.00108726 0.00040818 
0.06282672 0.02163595 0.00539392 0.00173193 0.00082275 0.00223034 0.00627611 0.00427000 0.01135956 0.00195694 0.00140785 0.00063991 0.00331028 0.00048002 0.00109126 0.00042276 
0.06248258 0.02051363 0.00526986 0.00178744 0.00082044 0.00218141 0.00609134 0.00420553 0.01164161 0.00194145 0.00137271 0.00064796 0.00327001 0.00048780 0.00109394 0.00043879 
0.06213831 0.01941235 0.00515058 0.00184591 0.00081804 0.00213264 0.00591009 0.00414322 0.01196279 0.00192635 0.00134017 0.00065554 0.00323084 0.00049500 0.00109526 0.00045625 
0.06179601 0.01833775 0.00503689 0.00190723 0.00081557 0.00208420 0.00573292 0.00408308 0.01231964 0.00191174 0.00131036 0.00066258 0.00319302 0.00050161 0.00109523 0.00047510 
0.06145776 0.01729539 0.00492957 0.00197126 0.00081304 0.00203627 0.00556035 0.00402512 0.01270862 0.00189765 0.00128340 0.00066900 0.00315679 0.00050762 0.00109383 0.00049528 
0.06112560 0.01629070 0.00482938 0.00203787 0.00081047 0.00198898 0.00539291 0.00396932 0.01312610 0.00188416 0.00125939 0.00067474 0.00312239 0.00051300 0.00109107 0.00051675 
0.06080151 0.01532898 0.00473699 0.00210691 0.00080787 0.00194249 0.00523107 0.00391566 0.01356844 0.00187132 0.00123843 0.00067974 0.00309003 0.00051775 0.00108698 0.00053945 
0.06048737 0.01441536 0.00465306 0.00217824 0.00080526 0.00189694 0.00507530 0.00386410 0.01403194 0.00185917 0.00122057 0.00068394 0.00305993 0.00052186 0.00108158 0.00056331 
0.06018504 0.01355475 0.00457817 0.00225170 0.00080265 0.00185248 0.00492602 0.00381458 0.01451291 0.00184776 0.00120589 0.00068730 0.00303227 0.00052532 0.00107491 0.00058827 
0.05989622 0.01275187 0.00451285 0.00232714 0.00080005 0.00180923 0.00478364 0.00376704 0.01500767 0.00183713 0.00119442 0.00068976 0.00300724 0.00052814 0.00106701 0.00061423 
0.05962256 0.01201115 0.00445758 0.00240440 0.00079750 0.00176733 0.00464852 0.00372141 0.01551257 0.00182730 0.00118618 0.00069129 0.00298499 0.00053031 0.00105794 0.00064114 
0.05936556 0.01133676 0.00441276 0.00248332 0.00079499 0.00172687 0.00452099 0.00367760 0.01602402 0.00181831 0.00118118 0.00069186 0.00296567 0.00053184 0.00104777 0.00066889 
0.05912660 0.01073258 0.00437875 0.00256373 0.00079255 0.00168799 0.00440134 0.00363553 0.01653849 0.00181016 0.00117941 0.00069144 0.00294942 0.00053273 0.00103657 0.00069739 
0.05890694 0.01020215 0.00435582 0.00264547 0.00079020 0.00165076 0.00428985 0.00359508 0.01705252 0.00180289 0.00118084 0.00069002 0.00293633 0.00053301 0.00102441 0.00072656 
0.05870766 0.00974868 0.00434418 0.00272835 0.00078795 0.00161528 0.00418672 0.00355616 0.01756279 0.00179649 0.00118544 0.00068759 0.00292650 0.00053267 0.00101138 0.00075630 
0.05852971 0.00937499 0.00434398 0.00281221 0.00078581 0.00158164 0.00409216 0.00351865 0.01806607 0.00179096 0.00119313 0.00068414 0.00292000 0.00053174 0.00099758 0.00078650 
0.05837385 0.00908356 0.00435531 0.00289687 0.00078380 0.00154989 0.00400631 0.00348245 0.01855926 0.00178631 0.00120384 0.00067969 0.00291686 0.00053024 0.00098310 0.00081707 
0.05824068 0.00887644 0.00437816 0.00298216 0.00078194 0.00152011 0.00392927 0.00344742 0.01903940 0.00178251 0.00121748 0.00067425 0.00291712 0.00052819 0.00096806 0.00084791 
0.05813060 0.00875530 0.00441248 0.00306788 0.00078024 0.00149234 0.00386114 0.00341347 0.01950372 0.00177956 0.00123394 0.00066784 0.00292078 0.00052561 0.00095255 0.00087890 
0.05804384 0.00872136 0.00445815 0.00315387 0.00077872 0.00146661 0.00380193 0.00338046 0.01994958 0.00177744 0.00125309 0.00066051 0.00292783 0.00052254 0.00093669 0.00090995 
0.05798042 0.00877543 0.00451499 0.00323994 0.00077738 0.00144297 0.00375165 0.00334829 0.02037453 0.00177611 0.00127481 0.00065228 0.00293822 0.00051900 0.00092059 0.00094096 
0.05794016 0.00891788 0.00458273 0.00332591 0.00077624 0.00142143 0.00371026 0.00331683 0.02077630 0.00177554 0.00129894 0.00064321 0.00295190 0.00051503 0.00090437 0.00097181 
0.05792268 0.00914864 0.00466106 0.00341159 0.00077531 0.00140199 0.00367768 0.00328598 0.02115283 0.00177570 0.00132533 0.00063337 0.00296879 0.00051066 0.00088816 0.00100241 
0.05792738 0.00946719 0.00474962 0.00349680 0.00077460 0.00138466 0.00365381 0.00325562 0.02150223 0.00177654 0.00135378 0.00062281 0.00298879 0.00050592 0.00087207 0.00103266 
0.05795346 0.00987256 0.00484797 0.00358135 0.00077411 0.00136943 0.00363849 0.00322565 0.02182283 0.00177802 0.00138414 0.00061160 0.00301176 0.00050086 0.00085622 0.00106246 
0.05799993 0.01036336 0.00495564 0.00366507 0.00077386 0.00135627 0.00363154 0.00319598 0.02211317 0.00178010 0.00141619 0.00059984 0.00303759 0.00049552 0.00084074 0.00109172 
0.05806556 0.01093775 0.00507208 0.00374776 0.00077386 0.00134515 0.00363276 0.00316651 0.02237200 0.00178270 0.00144975 0.00058761 0.00306610 0.00048993 0.00082574 0.00112033 
0.05814894 0.01159347 0.00519673 0.00382926 0.00077409 0.00133603 0.00364190 0.00313717 0.02259826 0.00178579 0.00148460 0.00057501 0.00309713 0.00048415 0.00081135 0.00114823 
0.05824845 0.01232781 0.00532896 0.00390937 0.00077458 0.00132887 0.00365870 0.00310786 0.02279111 0.00178929 0.00152053 0.00056212 0.00313048 0.00047820 0.00079768 0.00117531 
0.05836230 0.01313770 0.00546811 0.00398792 0.00077532 0.00132360 0.00368284 0.00307853 0.02294993 0.00179315 0.00155733 0.00054907 0.00316595 0.00047215 0.00078485 0.00120150 
0.05848847 0.01401964 0.00561348 0.00406474 0.00077631 0.00132017 0.00371401 0.00304911 0.02307428 0.00179730 0.00159478 0.00053597 0.00320331 0.00046602 0.00077296 0.00122673 
0.05862482 0.01496977 0.00576434 0.00413966 0.00077756 0.00131849 0.00375186 0.00301956 0.02316396 0.00180167 0.00163264 0.00052292 0.00324234 0.00045988 0.00076214 0.00125093 
0.05876898 0.01598387 0.00591995 0.00421249 0.00077905 0.00131849 0.00379602 0.00298983 0.02321892 0.00180619 0.00167071 0.00051004 0.00328279 0.00045375 0.00075247 0.00127403 
0.05891849 0.01705737 0.00607953 0.00428309 0.00078080 0.00132009 0.00384611 0.00295990 0.02323934 0.00181080 0.00170876 0.00049747 0.00332442 0.00044769 0.00074406 0.00129596 
0.05907069 0.01818541 0.00624228 0.00435128 0.00078279 0.00132319 0.00390170 0.00292973 0.02322557 0.00181543 0.00174656 0.00048530 0.00336695 0.00044174 0.00073700 0.00131669 
0.05922285 0.01936281 0.00640739 0.00441691 0.00078501 0.00132769 0.00396239 0.00289932 0.02317814 0.00182000 0.00178391 0.00047368 0.00341013 0.00043595 0.00073139 0.00133616 
0.05937207 0.02058414 0.00657406 0.00447983 0.00078747 0.00133349 0.00402774 0.00286866 0.02309774 0.00182444 0.00182059 0.00046272 0.00345369 0.00043035 0.00072730 0.00135433 
0.05951541 0.02184374 0.00674146 0.00453990 0.00079015 0.00134048 0.00409730 0.00283775 0.02298525 0.00182868 0.00185639 0.00045254 0.00349736 0.00042499 0.00072481 0.00137116 
0.05964981 0.02313574 0.00690877 0.00459697 0.00079305 0.00134856 0.00417064 0.00280662 0.02284166 0.00183266 0.00189111 0.00044327 0.00354086 0.00041991 0.00072398 0.00138663 
0.05977219 0.02445408 0.00707518 0.00465091 0.00079615 0.00135762 0.00424728 0.00277529 0.02266814 0.00183631 0.00192457 0.00043501 0.00358391 0.00041515 0.00072490 0.00140072 
0.05987941 0.02579257 0.00723988 0.00470161 0.00079945 0.00136753 0.00432677 0.00274379 0.02246597 0.00183956 0.00195658 0.00042787 0.00362626 0.00041075 0.00072760 0.00141341 
0.05996832 0.02714490 0.00740208 0.00474894 0.00080292 0.00137819 0.00440866 0.00271215 0.02223656 0.00184234 0.00198696 0.00042197 0.00366763 0.00040673 0.00073213 0.00142469 
0.06003579 0.02850467 0.00756101 0.00479280 0.00080657 0.00138947 0.00449248 0.00268043 0.02198142 0.00184460 0.00201556 0.00041741 0.00370777 0.00040313 0.00073855 0.00143455 
0.06007871 0.02986545 0.00771591 0.00483309 0.00081038 0.00140125 0.00457779 0.00264867 0.02170216 0.00184627 0.00204222 0.00041426 0.00374643 0.00039998 0.00074687 0.00144301 
0.06009401 0.03122080 0.00786604 0.00486973 0.00081433 0.00141343 0.00466413 0.00261695 0.02140049 0.00184729 0.00206680 0.00041263 0.00378337 0.00039731 0.00075714 0.00145008 
0.06007874 0.03256429 0.00801072 0.00490263 0.00081840 0.00142588 0.00475108 0.00258531 0.02107818 0.00184762 0.00208918 0.00041258 0.00381835 0.00039514 0.00076935 0.00145576 
0.06003000 0.03388954 0.00814926 0.00493173 0.00082259 0.00143850 0.00483819 0.00255384 0.02073707 0.00184720 0.00210924 0.00041418 0.00385116 0.00039350 0.00078353 0.00146008 
0.05994504 0.03519029 0.00828104 0.00495697 0.00082688 0.00145116 0.00492507 0.00252261 0.02037904 0.00184598 0.00212690 0.00041748 0.00388160 0.00039239 0.00079967 0.00146308 
0.05982127 0.03646037 0.00840545 0.00497831 0.00083125 0.00146376 0.00501132 0.00249168 0.02000601 0.00184393 0.00214205 0.00042253 0.00390947 0.00039185 0.00081778 0.00146477 
0.05965625 0.03769379 0.00852195 0.00499573 0.00083569 0.00147620 0.00509655 0.00246115 0.01961996 0.00184099 0.00215465 0.00042936 0.00393461 0.00039187 0.00083782 0.00146521 
0.05944775 0.03888474 0.00863000 0.00500919 0.00084018 0.00148836 0.00518040 0.00243109 0.01922284 0.00183715 0.00216462 0.00043798 0.00395686 0.00039247 0.00085979 0.00146444 
0.05919376 0.04002762 0.00872914 0.00501869 0.00084471 0.00150016 0.00526254 0.00240157 0.01881664 0.00183236 0.00217193 0.00044841 0.00397609 0.00039366 0.00088365 0.00146250 
0.05889249 0.04111710 0.00881896 0.00502424 0.00084926 0.00151150 0.00534263 0.00237270 0.01840333 0.00182660 0.00217657 0.00046062 0.00399218 0.00039543 0.00090936 0.00145944 
0.05854244 0.04214812 0.00889906 0.00502586 0.00085382 0.00152229 0.00542039 0.00234453 0.01798488 0.00181985 0.00217851 0.00047460 0.00400503 0.00039778 0.00093689 0.00145533 
0.05814237 0.04311592 0.00896912 0.00502358 0.00085837 0.00153246 0.00549555 0.00231715 0.01756322 0.00181210 0.00217777 0.00049031 0.00401458 0.00040070 0.00096617 0.00145023 
0.05769137 0.04401608 0.00902886 0.00501743 0.00086290 0.00154191 0.00556785 0.00229065 0.01714025 0.00180332 0.00217436 0.00050769 0.00402077 0.00040419 0.00099714 0.00144419 
0.05718881 0.04484451 0.00907806 0.00500749 0.00086740 0.00155059 0.00563708 0.00226508 0.01671785 0.00179352 0.00216833 0.00052668 0.00402356 0.00040823 0.00102975 0.00143729 
0.05663443 0.04559753 0.00911653 0.00499382 0.00087184 0.00155844 0.00570305 0.00224051 0.01629782 0.00178269 0.00215972 0.00054718 0.00402295 0.00041281 0.00106391 0.00142960 
0.05602829 0.04627182 0.00914416 0.00497649 0.00087623 0.00156538 0.00576558 0.00221702 0.01588192 0.00177083 0.00214859 0.00056911 0.00401895 0.00041791 0.00109955 0.00142119 
0.05537084 0.04686449 0.00916086 0.00495562 0.00088054 0.00157138 0.00582454 0.00219466 0.01547185 0.00175796 0.00213502 0.00059235 0.00401159 0.00042350 0.00113658 0.00141214 
0.05466289 0.04737307 0.00916661 0.00493129 0.00088477 0.00157639 0.00587982 0.00217349 0.01506924 0.00174407 0.00211910 0.00061677 0.00400094 0.00042956 0.00117490 0.00140251 
0.05390562 0.04779553 0.00916145 0.00490364 0.00088890 0.00158038 0.00593133 0.00215354 0.01467564 0.00172920 0.00210094 0.00064223 0.00398705 0.00043605 0.00121443 0.00139239 
0.05310063 0.04813028 0.00914543 0.00487278 0.00089293 0.00158332 0.00597903 0.00213486 0.01429252 0.00171336 0.00208063 0.00066858 0.00397005 0.00044294 0.00125505 0.00138185 
0.05224987 0.04837617 0.00911868 0.00483887 0.00089685 0.00158519 0.00602288 0.00211749 0.01392128 0.00169658 0.00205830 0.00069564 0.00395003 0.00045020 0.00129667 0.00137098 
0.05135572 0.04853255 0.00908138 0.00480203 0.00090065 0.00158597 0.00606289 0.00210145 0.01356321 0.00167889 0.00203409 0.00072325 0.00392713 0.00045779 0.00133916 0.00135985 
0.05042094 0.04859917 0.00903373 0.00476245 0.00090433 0.00158567 0.00609907 0.00208675 0.01321955 0.00166033 0.00200813 0.00075120 0.00390152 0.00046566 0.00138241 0.00134853 
0.04944870 0.04857629 0.00897599 0.00472027 0.00090787 0.00158427 0.00613149 0.00207341 0.01289140 0.00164093 0.00198057 0.00077929 0.00387335 0.00047378 0.00142630 0.00133711 
0.04844253 0.04846459 0.00890846 0.00467568 0.00091128 0.00158180 0.00616022 0.00206142 0.01257980 0.00162074 0.00195156 0.00080733 0.00384283 0.00048210 0.00147071 0.00132566 
0.04740635 0.04826520 0.00883148 0.00462885 0.00091456 0.00157827 0.00618536 0.00205079 0.01228570 0.00159980 0.00192126 0.00083509 0.00381014 0.00049056 0.00151550 0.00131426 
0.04634446 0.04797970 0.00874540 0.00457996 0.00091769 0.00157370 0.00620704 0.00204149 0.01200994 0.00157817 0.00188983 0.00086235 0.00377550 0.00049913 0.00156056 0.00130297 
0.04526151 0.04761009 0.00865066 0.00452922 0.00092068 0.00156812 0.00622540 0.00203351 0.01175326 0.00155589 0.00185745 0.00088888 0.00373915 0.00050774 0.00160575 0.00129187 
0.04416250 0.04715879 0.00854767 0.00447680 0.00092352 0.00156157 0.00624060 0.00202682 0.01151633 0.00153304 0.00182428 0.00091445 0.00370131 0.00051635 0.00165092 0.00128102 
0.04305273 0.04662859 0.00843692 0.00442291 0.00092622 0.00155408 0.00625282 0.00202136 0.01129971 0.00150965 0.00179049 0.00093884 0.00366222 0.00052491 0.00169596 0.00127049 
0.04193783 0.04602268 0.00831890 0.00436775 0.00092878 0.00154572 0.00626228 0.00201711 0.01110389 0.00148581 0.00175625 0.00096180 0.00362215 0.00053336 0.00174073 0.00126034 
0.04082370 0.04534460 0.00819412 0.00431151 0.00093121 0.00153652 0.00626918 0.00201401 0.01092925 0.00146157 0.00172175 0.00098312 0.00358135 0.00054165 0.00178508 0.00125062 
0.03971651 0.04459823 0.00806312 0.00425440 0.00093350 0.00152656 0.00627376 0.00201199 0.01077609 0.00143700 0.00168713 0.00100256 0.00354008 0.00054973 0.00182888 0.00124140 
0.03862266 0.04378774 0.00792647 0.00419659 0.00093565 0.00151589 0.00627625 0.00201099 0.01064464 0.00141217 0.00165258 0.00101990 0.00349860 0.00055754 0.00187200 0.00123271 
0.03754873 0.04291760 0.00778474 0.00413830 0.00093768 0.00150459 0.00627690 0.00201094 0.01053504 0.00138714 0.00161826 0.00103493 0.00345717 0.00056503 0.00191430 0.00122461 
0.03650151 0.04199252 0.00763851 0.00407971 0.00093959 0.00149272 0.00627598 0.00201177 0.01044736 0.00136199 0.00158432 0.00104744 0.00341605 0.00057215 0.00195566 0.00121714 
0.03548790 0.04101745 0.00748839 0.00402101 0.00094138 0.00148036 0.00627376 0.00201338 0.01038158 0.00133679 0.00155093 0.00105726 0.00337551 0.00057885 0.00199593 0.00121034 
0.03451493 0.03999753 0.00733496 0.00396237 0.00094307 0.00146759 0.00627049 0.00201569 0.01033763 0.00131161 0.00151822 0.00106418 0.00333578 0.00058509 0.00203499 0.00120423 
0.03358967 0.03893806 0.00717885 0.00390397 0.00094466 0.00145449 0.00626647 0.00201862 0.01031537 0.00128653 0.00148635 0.00106806 0.00329713 0.00059082 0.00207272 0.00119884 
0.03271927 0.03784446 0.00702067 0.00384598 0.00094615 0.00144114 0.00626195 0.00202208 0.01031460 0.00126161 0.00145545 0.00106874 0.00325977 0.00059600 0.00210899 0.00119421 
0.03191084 0.03672229 0.00686101 0.00378854 0.00094756 0.00142763 0.00625722 0.00202595 0.01033506 0.00123693 0.00142564 0.00106609 0.00322395 0.00060057 0.00214369 0.00119033 
0.03117148 0.03557712 0.00670049 0.00373182 0.00094890 0.00141405 0.00625254 0.00203016 0.01037642 0.00121255 0.00139704 0.00106000 0.00318988 0.00060452 0.00217669 0.00118724 
0.03050817 0.03441461 0.00653970 0.00367595 0.00095017 0.00140048 0.00624819 0.00203461 0.01043833 0.00118855 0.00136976 0.00105039 0.00315775 0.00060780 0.00220790 0.00118493 
0.02992782 0.03324038 0.00637924 0.00362107 0.00095138 0.00138701 0.00624442 0.00203918 0.01052038 0.00116499 0.00134390 0.00103720 0.00312777 0.00061039 0.00223720 0.00118341 
0.02943715 0.03206004 0.00621969 0.00356728 0.00095255 0.00137373 0.00624148 0.00204380 0.01062211 0.00114194 0.00131955 0.00102037 0.00310010 0.00061225 0.00226451 0.00118268 
0.02904269 0.03087912 0.00606162 0.00351469 0.00095368 0.00136073 0.00623963 0.00204837 0.01074304 0.00111946 0.00129678 0.00099991 0.00307490 0.00061336 0.00228971 0.00118273 
0.02875074 0.02970307 0.00590558 0.00346341 0.00095478 0.00134808 0.00623910 0.00205279 0.01088263 0.00109762 0.00127567 0.00097582 0.00305232 0.00061371 0.00231274 0.00118355 
0.02856732 0.02853721 0.00575211 0.00341352 0.00095587 0.00133588 0.00624010 0.00205698 0.01104034 0.00107647 0.00125626 0.00094816 0.00303247 0.00061327 0.00233351 0.00118512 
0.02849813 0.02738670 0.00560173 0.00336509 0.00095695 0.00132421 0.00624285 0.00206084 0.01121558 0.00105607 0.00123860 0.00091698 0.00301547 0.00061205 0.00235195 0.00118743 
0.02854853 0.02625653 0.00545494 0.00331818 0.00095802 0.00131314 0.00624754 0.00206430 0.01140774 0.00103646 0.00122273 0.00088239 0.00300140 0.00061004 0.00236799 0.00119045 
0.02872349 0.02515146 0.00531222 0.00327284 0.00095911 0.00130275 0.00625435 0.00206727 0.01161619 0.00101771 0.00120866 0.00084453 0.00299033 0.00060723 0.00238157 0.00119414 
0.02902757 0.02407603 0.00517403 0.00322911 0.00096021 0.00129312 0.00626344 0.00206970 0.01184029 0.00099985 0.00119641 0.00080357 0.00298230 0.00060363 0.00239266 0.00119848 
0.02946485 0.02303453 0.00504080 0.00318701 0.00096134 0.00128432 0.00627496 0.00207150 0.01207936 0.00098293 0.00118598 0.00075969 0.00297736 0.00059925 0.00240120 0.00120344 
0.03003895 0.02203094 0.00491295 0.00314656 0.00096251 0.00127641 0.00628904 0.00207263 0.01233274 0.00096698 0.00117735 0.00071312 0.00297550 0.00059412 0.00240717 0.00120897 
0.03075296 0.02106897 0.00479085 0.00310777 0.00096371 0.00126946 0.00630579 0.00207302 0.01259972 0.00095204 0.00117050 0.00066412 0.00297671 0.00058824 0.00241054 0.00121502 
0.03160946 0.02015200 0.00467486 0.00307061 0.00096497 0.00126352 0.00632529 0.00207263 0.01287962 0.00093814 0.00116540 0.00061299 0.00298097 0.00058164 0.00241131 0.00122157 
0.03261043 0.01928308 0.00456532 0.00303509 0.00096627 0.00125865 0.00634762 0.00207143 0.01317171 0.00092530 0.00116200 0.00056003 0.00298824 0.00057436 0.00240946 0.00122855 
0.03375729 0.01846493 0.00446253 0.00300116 0.00096763 0.00125489 0.00637282 0.00206939 0.01347530 0.00091354 0.00116024 0.00050560 0.00299844 0.00056643 0.00240501 0.00123592 
0.03505084 0.01769988 0.00436676 0.00296881 0.00096905 0.00125229 0.00640094 0.00206647 0.01378966 0.00090288 0.00116008 0.00045007 0.00301149 0.00055789 0.00239797 0.00124362 
0.03649127 0.01698993 0.00427826 0.00293798 0.00097054 0.00125088 0.00643196 0.00206268 0.01411407 0.00089333 0.00116143 0.00039386 0.00302730 0.00054880 0.00238836 0.00125161 
0.03807813 0.01633669 0.00419724 0.00290863 0.00097210 0.00125070 0.00646590 0.00205800 0.01444782 0.00088490 0.00116421 0.00033738 0.00304574 0.00053919 0.00237621 0.00125984 
0.03981035 0.01574142 0.00412390 0.00288070 0.00097372 0.00125178 0.00650270 0.00205243 0.01479016 0.00087758 0.00116834 0.00028109 0.00306670 0.00052913 0.00236158 0.00126823 
0.04168617 0.01520497 0.00405839 0.00285414 0.00097541 0.00125413 0.00654234 0.00204599 0.01514039 0.00087137 0.00117372 0.00022546 0.00309003 0.00051868 0.00234451 0.00127675 
0.04370322 0.01472785 0.00400086 0.00282888 0.00097717 0.00125777 0.00658472 0.00203870 0.01549778 0.00086627 0.00118025 0.00017100 0.00311556 0.00050790 0.00232508 0.00128533 
0.04585846 0.01431019 0.00395138 0.00280484 0.00097899 0.00126270 0.00662977 0.00203059 0.01586161 0.00086227 0.00118783 0.00011822 0.00314315 0.00049685 0.00230334 0.00129392 
0.04814820 0.01395175 0.00391005 0.00278197 0.00098088 0.00126894 0.00667737 0.00202170 0.01623116 0.00085934 0.00119633 0.00006764 0.00317261 0.00048562 0.00227939 0.00130247 
0.05056812 0.01365194 0.00387690 0.00276019 0.00098283 0.00127648 0.00672740 0.00201206 0.01660571 0.00085747 0.00120565 0.00001980 0.00320376 0.00047428 0.00225331 0.00131091 
0.05311325 0.01340984 0.00385196 0.00273943 0.00098483 0.00128530 0.00677971 0.00200174 0.01698455 0.00085663 0.00121567 0.00002473 0.00323640 0.00046289 0.00222521 0.00131921 
0.05577804 0.01322418 0.00383520 0.00271962 0.00098688 0.00129541 0.00683413 0.00199079 0.01736696 0.00085679 0.00122626 0.00006541 0.00327034 0.00045156 0.00219519 0.00132731 
0.05855630 0.01309339 0.00382658 0.00270070 0.00098898 0.00130676 0.00689050 0.00197928 0.01775225 0.00085792 0.00123731 0.00010166 0.00330539 0.00044035 0.00216336 0.00133517 
0.06144130 0.01301558 0.00382605 0.00268259 0.00099111 0.00131936 0.00694860 0.00196728 0.01813971 0.00085999 0.00124868 0.00013293 0.00334133 0.00042935 0.00212986 0.00134272 
0.06442573 0.01298860 0.00383350 0.00266524 0.00099326 0.00133315 0.00700824 0.00195489 0.01852864 0.00086295 0.00126025 0.00015865 0.00337797 0.00041865 0.00209482 0.00134994 
0.06750176 0.01301002 0.00384881 0.00264859 0.00099543 0.00134810 0.00706918 0.00194217 0.01891835 0.00086676 0.00127190 0.00017826 0.00341509 0.00040833 0.00205836 0.00135677 
0.07066107 0.01307719 0.00387184 0.00263259 0.00099760 0.00136419 0.00713119 0.00192923 0.01930815 0.00087137 0.00128350 0.00019122 0.00345249 0.00039849 0.00202064 0.00136319 
0.07389486 0.01318723 0.00390242 0.00261718 0.00099977 0.00138135 0.00719403 0.00191616 0.01969735 0.00087674 0.00129494 0.00019698 0.00348998 0.00038920 0.00198181 0.00136916 
0.07719393 0.01333707 0.00394034 0.00260234 0.00100193 0.00139954 0.00725743 0.00190307 0.02008528 0.00088282 0.00130609 0.00019503 0.00352736 0.00038056 0.00194202 0.00137463 
0.08054864 0.01352347 0.00398538 0.00258803 0.00100405 0.00141871 0.00732111 0.00189005 0.02047127 0.00088956 0.00131685 0.00018485 0.00356444 0.00037265 0.00190143 0.00137960 
0.08394905 0.01374305 0.00403731 0.00257423 0.00100612 0.00143879 0.00738482 0.00187721 0.02085465 0.00089689 0.00132711 0.00016598 0.00360102 0.00036555 0.00186021 0.00138402 
0.08738488 0.01399230 0.00409584 0.00256093 0.00100814 0.00145973 0.00744824 0.00186467 0.02123477 0.00090477 0.00133675 0.00013795 0.00363695 0.00035935 0.00181852 0.00138788 
0.09084559 0.01426765 0.00416070 0.00254811 0.00101008 0.00148146 0.00751111 0.00185254 0.02161097 0.00091315 0.00134568 0.00010033 0.00367204 0.00035412 0.00177654 0.00139116 
0.09432041 0.01456544 0.00423158 0.00253578 0.00101194 0.00150392 0.00757311 0.00184092 0.02198261 0.00092195 0.00135381 0.00005273 0.00370613 0.00034995 0.00173443 0.00139385 
0.09779842 0.01488198 0.00430813 0.00252395 0.00101370 0.00152703 0.00763394 0.00182994 0.02234905 0.00093114 0.00136105 0.00000521 0.00373909 0.00034690 0.00169238 0.00139593 
0.10126856 0.01521359 0.00439002 0.00251265 0.00101534 0.00155072 0.00769331 0.00181970 0.02270967 0.00094065 0.00136733 0.00007381 0.00377076 0.00034504 0.00165054 0.00139741 
0.10471968 0.01555658 0.00447687 0.00250190 0.00101684 0.00157491 0.00775091 0.00181031 0.02306385 0.00095042 0.00137257 0.00015337 0.00380103 0.00034444 0.00160911 0.00139828 
0.10814063 0.01590733 0.00456829 0.00249175 0.00101820 0.00159953 0.00780643 0.00180189 0.02341098 0.00096041 0.00137670 0.00024412 0.00382978 0.00034516 0.00156824 0.00139853 
0.11152025 0.01626227 0.00466389 0.00248223 0.00101939 0.00162449 0.00785956 0.00179455 0.02375047 0.00097056 0.00137969 0.00034626 0.00385690 0.00034725 0.00152811 0.00139818 
0.11484749 0.01661793 0.00476326 0.00247343 0.00102041 0.00164973 0.00791001 0.00178839 0.02408173 0.00098082 0.00138148 0.00045993 0.00388231 0.00035076 0.00148890 0.00139723 
0.11811137 0.01697097 0.00486595 0.00246538 0.00102123 0.00167515 0.00795748 0.00178350 0.02440418 0.00099115 0.00138203 0.00058525 0.00390592 0.00035574 0.00145075 0.00139569 
0.12130114 0.01731818 0.00497152 0.00245818 0.00102185 0.00170069 0.00800167 0.00178000 0.02471727 0.00100149 0.00138132 0.00072225 0.00392768 0.00036221 0.00141385 0.00139359 
0.12440621 0.01765652 0.00507953 0.00245190 0.00102224 0.00172625 0.00804230 0.00177796 0.02502044 0.00101180 0.00137933 0.00087095 0.00394752 0.00037021 0.00137833 0.00139094 
0.12741629 0.01798311 0.00518951 0.00244662 0.00102240 0.00175176 0.00807909 0.00177749 0.02531316 0.00102204 0.00137605 0.00103128 0.00396542 0.00037976 0.00134435 0.00138775 
0.13032140 0.01829531 0.00530098 0.00244244 0.00102232 0.00177714 0.00811177 0.00177865 0.02559491 0.00103218 0.00137148 0.00120313 0.00398133 0.00039088 0.00131206 0.00138407 
0.13311189 0.01859067 0.00541347 0.00243946 0.00102198 0.00180231 0.00814009 0.00178153 0.02586518 0.00104217 0.00136563 0.00138635 0.00399526 0.00040357 0.00128160 0.00137990 
0.13577853 0.01886698 0.00552649 0.00243778 0.00102137 0.00182720 0.00816378 0.00178619 0.02612348 0.00105200 0.00135853 0.00158072 0.00400718 0.00041783 0.00125309 0.00137529 
0.13831252 0.01912227 0.00563957 0.00243750 0.00102049 0.00185172 0.00818263 0.00179269 0.02636935 0.00106164 0.00135019 0.00178596 0.00401711 0.00043366 0.00122665 0.00137026 
0.14070555 0.01935486 0.00575220 0.00243872 0.00101932 0.00187580 0.00819640 0.00180110 0.02660231 0.00107105 0.00134066 0.00200177 0.00402507 0.00045104 0.00120240 0.00136484 
0.14294979 0.01956329 0.00586391 0.00244156 0.00101785 0.00189937 0.00820490 0.00181145 0.02682195 0.00108024 0.00132998 0.00222775 0.00403107 0.00046995 0.00118045 0.00135908 
0.14503799 0.01974641 0.00597420 0.00244611 0.00101609 0.00192237 0.00820792 0.00182378 0.02702782 0.00108918 0.00131821 0.00246348 0.00403515 0.00049035 0.00116087 0.00135301 
0.14696345 0.01990334 0.00608260 0.00245248 0.00101403 0.00194472 0.00820531 0.00183813 0.02721954 0.00109786 0.00130540 0.00270849 0.00403736 0.00051220 0.00114377 0.00134666 
0.14872009 0.02003349 0.00618863 0.00246078 0.00101166 0.00196636 0.00819691 0.00185452 0.02739672 0.00110629 0.00129162 0.00296225 0.00403775 0.00053546 0.00112921 0.00134008 
0.15030245 0.02013653 0.00629183 0.00247109 0.00100898 0.00198723 0.00818258 0.00187295 0.02755900 0.00111445 0.00127696 0.00322418 0.00403636 0.00056008 0.00111724 0.00133330 
0.15170574 0.02021245 0.00639174 0.00248352 0.00100600 0.00200728 0.00816220 0.00189343 0.02770605 0.00112237 0.00126148 0.00349368 0.00403327 0.00058598 0.00110793 0.00132637 
0.15292580 0.02026151 0.00648792 0.00249815 0.00100270 0.00202644 0.00813570 0.00191596 0.02783754 0.00113003 0.00124528 0.00377009 0.00402854 0.00061310 0.00110130 0.00131932 
0.15395919 0.02028423 0.00657993 0.00251505 0.00099910 0.00204466 0.00810299 0.00194052 0.02795319 0.00113747 0.00122845 0.00405271 0.00402225 0.00064136 0.00109739 0.00131220 
0.15480315 0.02028142 0.00666736 0.00253430 0.00099520 0.00206190 0.00806404 0.00196709 0.02805272 0.00114469 0.00121109 0.00434082 0.00401445 0.00067068 0.00109620 0.00130504 
0.15545562 0.02025415 0.00674982 0.00255596 0.00099100 0.00207812 0.00801882 0.00199564 0.02813589 0.00115172 0.00119329 0.00463365 0.00400523 0.00070096 0.00109774 0.00129788 
0.15591525 0.02020373 0.00682694 0.00258008 0.00098651 0.00209326 0.00796733 0.00202613 0.02820247 0.00115859 0.00117515 0.00493042 0.00399468 0.00073212 0.00110199 0.00129076 
0.15618142 0.02013171 0.00689835 0.00260669 0.00098174 0.00210731 0.00790959 0.00205852 0.02825227 0.00116531 0.00115680 0.00523032 0.00398285 0.00076404 0.00110893 0.00128372 
0.15625418 0.02003988 0.00696374 0.00263583 0.00097670 0.00212021 0.00784567 0.00209273 0.02828513 0.00117193 0.00113832 0.00553251 0.00396985 0.00079662 0.00111852 0.00127679 
0.15613431 0.01993023 0.00702281 0.00266750 0.00097140 0.00213196 0.00777565 0.00212871 0.02830090 0.00117847 0.00111984 0.00583617 0.00395573 0.00082974 0.00113071 0.00127001 
0.15582328 0.01980492 0.00707527 0.00270171 0.00096585 0.00214251 0.00769962 0.00216640 0.02829947 0.00118497 0.00110145 0.00614042 0.00394058 0.00086330 0.00114545 0.00126341 
0.15532324 0.01966634 0.00712089 0.00273844 0.00096006 0.00215185 0.00761772 0.00220570 0.02828076 0.00119147 0.00108328 0.00644441 0.00392448 0.00089717 0.00116265 0.00125701 
0.15463701 0.01951697 0.00715944 0.00277766 0.00095405 0.00215997 0.00753012 0.00224653 0.02824471 0.00119801 0.00106541 0.00674727 0.00390749 0.00093122 0.00118223 0.00125086 
0.15376804 0.01935946 0.00719076 0.00281932 0.00094783 0.00216684 0.00743699 0.00228880 0.02819131 0.00120464 0.00104797 0.00704814 0.00388969 0.00096534 0.00120409 0.00124498 
0.15272044 0.01919658 0.00721468 0.00286337 0.00094143 0.00217247 0.00733855 0.00233241 0.02812056 0.00121138 0.00103106 0.00734618 0.00387114 0.00099939 0.00122814 0.00123939 
0.15149891 0.01903116 0.00723111 0.00290972 0.00093486 0.00217684 0.00723505 0.00237726 0.02803251 0.00121829 0.00101477 0.00764053 0.00385191 0.00103324 0.00125424 0.00123411 
0.15010872 0.01886612 0.00723995 0.00295829 0.00092813 0.00217996 0.00712673 0.00242324 0.02792725 0.00122540 0.00099920 0.00793038 0.00383206 0.00106677 0.00128228 0.00122917 
0.14855571 0.01870441 0.00724116 0.00300897 0.00092127 0.00218182 0.00701391 0.00247022 0.02780488 0.00123276 0.00098444 0.00821492 0.00381165 0.00109985 0.00131211 0.00122459 
0.14684622 0.01854902 0.00723475 0.00306162 0.00091430 0.00218243 0.00689690 0.00251810 0.02766555 0.00124041 0.00097058 0.00849337 0.00379073 0.00113235 0.00134360 0.00122037 
0.14498709 0.01840292 0.00722074 0.00311612 0.00090723 0.00218181 0.00677603 0.00256676 0.02750945 0.00124838 0.00095771 0.00876498 0.00376936 0.00116414 0.00137658 0.00121653 
0.14298562 0.01826904 0.00719919 0.00317230 0.00090009 0.00217996 0.00665167 0.00261606 0.02733681 0.00125672 0.00094590 0.00902904 0.00374758 0.00119511 0.00141090 0.00121309 
0.14084951 0.01815030 0.00717022 0.00323000 0.00089291 0.00217690 0.00652422 0.00266588 0.02714790 0.00126545 0.00093521 0.00928486 0.00372543 0.00122512 0.00144640 0.00121005 
0.13858685 0.01804950 0.00713397 0.00328904 0.00088569 0.00217265 0.00639408 0.00271610 0.02694301 0.00127460 0.00092571 0.00953182 0.00370296 0.00125406 0.00148289 0.00120741 
0.13620606 0.01796938 0.00709061 0.00334920 0.00087847 0.00216723 0.00626168 0.00276657 0.02672249 0.00128421 0.00091747 0.00976932 0.00368021 0.00128181 0.00152021 0.00120519 
0.13371587 0.01791254 0.00704036 0.00341030 0.00087126 0.00216066 0.00612747 0.00281718 0.02648673 0.00129429 0.00091051 0.00999680 0.00365722 0.00130828 0.00155817 0.00120338 
0.13112528 0.01788144 0.00698346 0.00347210 0.00086408 0.00215299 0.00599192 0.00286779 0.02623617 0.00130487 0.00090489 0.01021377 0.00363402 0.00133335 0.00159659 0.00120197 
0.12844349 0.01787838 0.00692020 0.00353437 0.00085697 0.00214423 0.00585552 0.00291827 0.02597126 0.00131597 0.00090064 0.01041979 0.00361065 0.00135693 0.00163528 0.00120098 
0.12567988 0.01790549 0.00685088 0.00359689 0.00084993 0.00213441 0.00571875 0.00296849 0.02569254 0.00132758 0.00089778 0.01061446 0.00358714 0.00137893 0.00167407 0.00120039 
0.12284399 0.01796469 0.00677585 0.00365938 0.00084299 0.00212359 0.00558214 0.00301832 0.02540055 0.00133973 0.00089633 0.01079745 0.00356352 0.00139927 0.00171276 0.00120019 
0.11994542 0.01805770 0.00669549 0.00372162 0.00083617 0.00211179 0.00544619 0.00306764 0.02509590 0.00135241 0.00089630 0.01096847 0.00353983 0.00141786 0.00175117 0.00120039 
0.11699386 0.01818599 0.00661018 0.00378332 0.00082948 0.00209906 0.00531145 0.00311633 0.02477923 0.00136561 0.00089767 0.01112731 0.00351610 0.00143465 0.00178911 0.00120095 
0.11399898 0.01835079 0.00652035 0.00384424 0.00082295 0.00208543 0.00517845 0.00316426 0.02445124 0.00137932 0.00090046 0.01127380 0.00349237 0.00144957 0.00182641 0.00120188 
0.11097047 0.01855308 0.00642644 0.00390410 0.00081660 0.00207096 0.00504773 0.00321132 0.02411266 0.00139354 0.00090463 0.01140783 0.00346867 0.00146257 0.00186289 0.00120315 
0.10791791 0.01879358 0.00632891 0.00396264 0.00081043 0.00205570 0.00491984 0.00325740 0.02376426 0.00140823 0.00091016 0.01152936 0.00344504 0.00147362 0.00189838 0.00120476 
0.10485080 0.01907271 0.00622825 0.00401959 0.00080447 0.00203968 0.00479530 0.00330239 0.02340686 0.00142338 0.00091702 0.01163840 0.00342152 0.00148267 0.00193272 0.00120669 
0.10177851 0.01939064 0.00612495 0.00407470 0.00079873 0.00202297 0.00467468 0.00334618 0.02304132 0.00143894 0.00092516 0.01173500 0.00339816 0.00148971 0.00196573 0.00120891 
0.09871023 0.01974722 0.00601952 0.00412768 0.00079322 0.00200561 0.00455849 0.00338868 0.02266853 0.00145489 0.00093455 0.01181930 0.00337500 0.00149473 0.00199729 0.00121141 
0.09565493 0.02014202 0.00591246 0.00417831 0.00078796 0.00198766 0.00444727 0.00342980 0.02228942 0.00147118 0.00094511 0.01189146 0.00335210 0.00149771 0.00202723 0.00121417 
0.09262137 0.02057434 0.00580430 0.00422632 0.00078295 0.00196918 0.00434153 0.00346944 0.02190497 0.00148776 0.00095679 0.01195171 0.00332950 0.00149867 0.00205543 0.00121717 
0.08961804 0.02104316 0.00569557 0.00427148 0.00077821 0.00195022 0.00424179 0.00350752 0.02151618 0.00150458 0.00096952 0.01200031 0.00330726 0.00149763 0.00208177 0.00122039 
0.08665310 0.02154720 0.00558677 0.00431357 0.00077374 0.00193084 0.00414852 0.00354398 0.02112407 0.00152159 0.00098323 0.01203759 0.00328545 0.00149460 0.00210612 0.00122380 
0.08373444 0.02208487 0.00547844 0.00435235 0.00076955 0.00191111 0.00406220 0.00357874 0.02072971 0.00153871 0.00099783 0.01206390 0.00326414 0.00148963 0.00212839 0.00122739 
0.08086958 0.02265432 0.00537109 0.00438764 0.00076565 0.00189107 0.00398328 0.00361173 0.02033419 0.00155590 0.00101324 0.01207965 0.00324339 0.00148276 0.00214849 0.00123114 
0.07806569 0.02325345 0.00526521 0.00441924 0.00076204 0.00187081 0.00391219 0.00364291 0.01993860 0.00157307 0.00102937 0.01208525 0.00322328 0.00147404 0.00216634 0.00123501 
0.07532953 0.02387987 0.00516131 0.00444698 0.00075872 0.00185036 0.00384933 0.00367222 0.01954408 0.00159017 0.00104613 0.01208119 0.00320388 0.00146353 0.00218188 0.00123900 
0.07266749 0.02453099 0.00505985 0.00447069 0.00075569 0.00182981 0.00379508 0.00369962 0.01915175 0.00160711 0.00106341 0.01206795 0.00318529 0.00145131 0.00219504 0.00124307 
0.07008553 0.02520395 0.00496131 0.00449025 0.00075296 0.00180922 0.00374978 0.00372506 0.01876277 0.00162382 0.00108112 0.01204604 0.00316758 0.00143745 0.00220580 0.00124721 
0.06758920 0.02589572 0.00486611 0.00450552 0.00075052 0.00178864 0.00371374 0.00374853 0.01837828 0.00164023 0.00109916 0.01201600 0.00315085 0.00142203 0.00221412 0.00125141 
0.06518360 0.02660305 0.00477469 0.00451642 0.00074836 0.00176815 0.00368726 0.00376999 0.01799943 0.00165626 0.00111743 0.01197838 0.00313519 0.00140515 0.00221999 0.00125562 
0.06287339 0.02732252 0.00468743 0.00452285 0.00074650 0.00174780 0.00367057 0.00378944 0.01762736 0.00167183 0.00113582 0.01193375 0.00312070 0.00138691 0.00222343 0.00125985 
0.06066277 0.02805058 0.00460471 0.00452477 0.00074491 0.00172768 0.00366387 0.00380685 0.01726321 0.00168687 0.00115423 0.01188266 0.00310746 0.00136741 0.00222443 0.00126406 
0.05855552 0.02878353 0.00452687 0.00452212 0.00074360 0.00170783 0.00366734 0.00382222 0.01690809 0.00170129 0.00117256 0.01182569 0.00309559 0.00134677 0.00222303 0.00126825 
0.05655495 0.02951756 0.00445421 0.00451490 0.00074255 0.00168833 0.00368110 0.00383555 0.01656309 0.00171503 0.00119070 0.01176340 0.00308517 0.00132508 0.00221928 0.00127239 
0.05466390 0.03024880 0.00438703 0.00450312 0.00074176 0.00166924 0.00370524 0.00384685 0.01622928 0.00172801 0.00120856 0.01169636 0.00307631 0.00130248 0.00221322 0.00127647 
0.05288480 0.03097329 0.00432557 0.00448680 0.00074122 0.00165062 0.00373980 0.00385612 0.01590768 0.00174017 0.00122604 0.01162513 0.00306911 0.00127908 0.00220492 0.00128047 
0.05121962 0.03168708 0.00427005 0.00446599 0.00074092 0.00163254 0.00378477 0.00386340 0.01559929 0.00175143 0.00124304 0.01155023 0.00306365 0.00125500 0.00219448 0.00128438 
0.04966989 0.03238618 0.00422066 0.00444077 0.00074085 0.00161506 0.00384012 0.00386869 0.01530504 0.00176174 0.00125948 0.01147220 0.00306005 0.00123037 0.00218197 0.00128819 
0.04823671 0.03306664 0.00417754 0.00441124 0.00074099 0.00159824 0.00390573 0.00387202 0.01502583 0.00177103 0.00127526 0.01139154 0.00305837 0.00120532 0.00216750 0.00129188 
0.04692079 0.03372455 0.00414081 0.00437752 0.00074134 0.00158214 0.00398149 0.00387343 0.01476249 0.00177926 0.00129031 0.01130873 0.00305872 0.00117996 0.00215119 0.00129544 
0.04572241 0.03435608 0.00411057 0.00433974 0.00074188 0.00156682 0.00406720 0.00387294 0.01451578 0.00178637 0.00130455 0.01122423 0.00306117 0.00115443 0.00213316 0.00129886 
0.04464148 0.03495751 0.00408685 0.00429806 0.00074260 0.00155232 0.00416264 0.00387061 0.01428640 0.00179231 0.00131791 0.01113846 0.00306580 0.00112885 0.00211354 0.00130213 
0.04367750 0.03552523 0.00406967 0.00425266 0.00074349 0.00153872 0.00426753 0.00386646 0.01407497 0.00179706 0.00133031 0.01105183 0.00307267 0.00110334 0.00209248 0.00130525 
0.04282964 0.03605580 0.00405903 0.00420375 0.00074453 0.00152605 0.00438156 0.00386056 0.01388204 0.00180058 0.00134172 0.01096471 0.00308185 0.00107801 0.00207013 0.00130821 
0.04209671 0.03654596 0.00405488 0.00415153 0.00074571 0.00151436 0.00450437 0.00385294 0.01370805 0.00180285 0.00135206 0.01087743 0.00309339 0.00105300 0.00204664 0.00131100 
0.04147720 0.03699264 0.00405714 0.00409625 0.00074702 0.00150370 0.00463555 0.00384365 0.01355337 0.00180384 0.00136130 0.01079029 0.00310732 0.00102840 0.00202218 0.00131361 
0.04096928 0.03739300 0.00406572 0.00403814 0.00074845 0.00149412 0.00477467 0.00383277 0.01341828 0.00180355 0.00136940 0.01070358 0.00312368 0.00100432 0.00199691 0.00131605 
0.04057084 0.03774447 0.00408048 0.00397748 0.00074997 0.00148564 0.00492125 0.00382033 0.01330293 0.00180197 0.00137632 0.01061752 0.00314249 0.00098088 0.00197101 0.00131830 
0.04027947 0.03804471 0.00410127 0.00391453 0.00075158 0.00147831 0.00507476 0.00380640 0.01320741 0.00179911 0.00138205 0.01053233 0.00316377 0.00095816 0.00194465 0.00132038 
0.04009253 0.03829170 0.00412792 0.00384959 0.00075327 0.00147216 0.00523467 0.00379104 0.01313168 0.00179496 0.00138657 0.01044816 0.00318749 0.00093626 0.00191800 0.00132227 
0.04000714 0.03848371 0.00416024 0.00378295 0.00075503 0.00146720 0.00540038 0.00377431 0.01307560 0.00178956 0.00138987 0.01036517 0.00321365 0.00091526 0.00189125 0.00132397 
0.04002019 0.03861933 0.00419800 0.00371491 0.00075684 0.00146347 0.00557129 0.00375629 0.01303893 0.00178292 0.00139195 0.01028346 0.00324222 0.00089524 0.00186457 0.00132549 
0.04012837 0.03869750 0.00424099 0.00364578 0.00075869 0.00146098 0.00574676 0.00373702 0.01302130 0.00177507 0.00139282 0.01020312 0.00327315 0.00087627 0.00183814 0.00132682 
0.04032821 0.03871748 0.00428896 0.00357587 0.00076057 0.00145974 0.00592613 0.00371658 0.01302227 0.00176605 0.00139248 0.01012419 0.00330637 0.00085842 0.00181213 0.00132797 
0.04061605 0.03867890 0.00434166 0.00350551 0.00076248 0.00145976 0.00610873 0.00369503 0.01304124 0.00175590 0.00139098 0.01004671 0.00334183 0.00084174 0.00178671 0.00132895 
0.04098811 0.03858174 0.00439883 0.00343502 0.00076441 0.00146104 0.00629384 0.00367244 0.01307756 0.00174467 0.00138832 0.00997068 0.00337943 0.00082628 0.00176205 0.00132974 
0.04144046 0.03842636 0.00446021 0.00336470 0.00076635 0.00146359 0.00648077 0.00364888 0.01313045 0.00173242 0.00138456 0.00989610 0.00341906 0.00081209 0.00173831 0.00133036 
0.04196907 0.03821348 0.00452554 0.00329487 0.00076829 0.00146738 0.00666880 0.00362441 0.01319901 0.00171921 0.00137972 0.00982292 0.00346061 0.00079918 0.00171564 0.00133081 
0.04256983 0.03794418 0.00459454 0.00322585 0.00077022 0.00147241 0.00685720 0.00359911 0.01328227 0.00170510 0.00137387 0.00975111 0.00350394 0.00078760 0.00169420 0.00133109 
0.04323851 0.03761991 0.00466695 0.00315794 0.00077215 0.00147866 0.00704525 0.00357303 0.01337916 0.00169016 0.00136705 0.00968061 0.00354891 0.00077735 0.00167412 0.00133122 
0.04397085 0.03724250 0.00474252 0.00309143 0.00077407 0.00148611 0.00723223 0.00354625 0.01348853 0.00167448 0.00135933 0.00961135 0.00359536 0.00076844 0.00165554 0.00133118 
0.04476253 0.03681410 0.00482101 0.00302661 0.00077598 0.00149471 0.00741742 0.00351884 0.01360912 0.00165812 0.00135077 0.00954328 0.00364311 0.00076088 0.00163858 0.00133100 
0.04560919 0.03633723 0.00490216 0.00296375 0.00077787 0.00150445 0.00760012 0.00349085 0.01373964 0.00164117 0.00134145 0.00947632 0.00369197 0.00075466 0.00162335 0.00133067 
0.04650644 0.03581472 0.00498576 0.00290312 0.00077974 0.00151527 0.00777963 0.00346236 0.01387868 0.00162371 0.00133143 0.00941040 0.00374175 0.00074976 0.00160995 0.00133020 
0.04744988 0.03524973 0.00507161 0.00284496 0.00078160 0.00152713 0.00795529 0.00343343 0.01402481 0.00160584 0.00132080 0.00934546 0.00379224 0.00074617 0.00159848 0.00132960 
0.04843510 0.03464570 0.00515949 0.00278951 0.00078345 0.00153999 0.00812645 0.00340412 0.01417653 0.00158763 0.00130963 0.00928145 0.00384321 0.00074387 0.00158902 0.00132887 
0.04945771 0.03400639 0.00524925 0.00273698 0.00078529 0.00155377 0.00829247 0.00337451 0.01433230 0.00156919 0.00129802 0.00921833 0.00389444 0.00074280 0.00158163 0.00132802 
0.05051333 0.03333578 0.00534073 0.00268757 0.00078712 0.00156843 0.00845278 0.00334464 0.01449056 0.00155060 0.00128605 0.00915606 0.00394568 0.00074295 0.00157636 0.00132706 
0.05159760 0.03263811 0.00543381 0.00264146 0.00078894 0.00158390 0.00860680 0.00331460 0.01464971 0.00153196 0.00127380 0.00909463 0.00399671 0.00074426 0.00157327 0.00132599 
0.05270619 0.03191782 0.00552836 0.00259881 0.00079077 0.00160011 0.00875402 0.00328443 0.01480814 0.00151335 0.00126138 0.00903406 0.00404725 0.00074668 0.00157239 0.00132482 
0.05383483 0.03117954 0.00562433 0.00255975 0.00079260 0.00161699 0.00889396 0.00325421 0.01496425 0.00149487 0.00124886 0.00897436 0.00409707 0.00075017 0.00157372 0.00132355 
0.05497927 0.03042807 0.00572164 0.00252440 0.00079444 0.00163446 0.00902616 0.00322399 0.01511643 0.00147661 0.00123635 0.00891560 0.00414590 0.00075465 0.00157727 0.00132220 
0.05613533 0.02966833 0.00582028 0.00249285 0.00079631 0.00165245 0.00915025 0.00319383 0.01526312 0.00145865 0.00122393 0.00885784 0.00419349 0.00076009 0.00158304 0.00132077 
0.05729888 0.02890533 0.00592023 0.00246517 0.00079820 0.00167087 0.00926586 0.00316380 0.01540276 0.00144109 0.00121169 0.00880119 0.00423958 0.00076640 0.00159100 0.00131927 
0.05846587 0.02814417 0.00602153 0.00244142 0.00080013 0.00168964 0.00937271 0.00313395 0.01553386 0.00142401 0.00119972 0.00874577 0.00428392 0.00077352 0.00160112 0.00131771 
0.05963230 0.02738998 0.00612423 0.00242161 0.00080210 0.00170869 0.00947054 0.00310434 0.01565496 0.00140748 0.00118811 0.00869175 0.00432625 0.00078139 0.00161336 0.00131608 
0.06079425 0.02664788 0.00622841 0.00240574 0.00080412 0.00172791 0.00955918 0.00307504 0.01576468 0.00139159 0.00117695 0.00863931 0.00436633 0.00078994 0.00162765 0.00131441 
0.06194790 0.02592299 0.00633418 0.00239380 0.00080621 0.00174723 0.00963847 0.00304610 0.01586172 0.00137641 0.00116631 0.00858867 0.00440393 0.00079909 0.00164393 0.00131269 
0.06308949 0.02522035 0.00644165 0.00238574 0.00080836 0.00176656 0.00970834 0.00301758 0.01594485 0.00136202 0.00115628 0.00854006 0.00443880 0.00080878 0.00166212 0.00131093 
0.06421534 0.02454492 0.00655100 0.00238150 0.00081060 0.00178582 0.00976877 0.00298954 0.01601295 0.00134848 0.00114693 0.00849376 0.00447075 0.00081894 0.00168211 0.00130915 
0.06532191 0.02390153 0.00666240 0.00238098 0.00081292 0.00180492 0.00981978 0.00296203 0.01606501 0.00133585 0.00113834 0.00845005 0.00449955 0.00082950 0.00170382 0.00130735 
0.06640570 0.02329484 0.00677605 0.00238407 0.00081534 0.00182378 0.00986146 0.00293511 0.01610012 0.00132419 0.00113058 0.00840927 0.00452501 0.00084039 0.00172714 0.00130553 
0.06746336 0.02272936 0.00689218 0.00239066 0.00081787 0.00184231 0.00989395 0.00290884 0.01611751 0.00131356 0.00112371 0.00837176 0.00454697 0.00085154 0.00175193 0.00130371 
0.06849161 0.02220935 0.00701101 0.00240058 0.00082052 0.00186046 0.00991745 0.00288328 0.01611652 0.00130400 0.00111780 0.00833788 0.00456525 0.00086290 0.00177809 0.00130189 
0.06948732 0.02173884 0.00713282 0.00241368 0.00082328 0.00187812 0.00993220 0.00285849 0.01609664 0.00129556 0.00111289 0.00830801 0.00457971 0.00087441 0.00180546 0.00130007 
0.07044744 0.02132158 0.00725787 0.00242976 0.00082618 0.00189525 0.00993851 0.00283450 0.01605753 0.00128828 0.00110906 0.00828256 0.00459024 0.00088600 0.00183392 0.00129828 
0.07136906 0.02096102 0.00738643 0.00244863 0.00082922 0.00191176 0.00993672 0.00281140 0.01599895 0.00128219 0.00110633 0.00826194 0.00459672 0.00089762 0.00186331 0.00129650 
0.07224941 0.02066030 0.00751882 0.00247007 0.00083240 0.00192760 0.00992723 0.00278922 0.01592085 0.00127732 0.00110476 0.00824658 0.00459908 0.00090923 0.00189348 0.00129476 
0.07308583 0.02042222 0.00765531 0.00249386 0.00083573 0.00194271 0.00991046 0.00276802 0.01582333 0.00127370 0.00110438 0.00823690 0.00459726 0.00092077 0.00192428 0.00129306 
0.07387581 0.02024918 0.00779622 0.00251975 0.00083922 0.00195704 0.00988692 0.00274785 0.01570664 0.00127134 0.00110523 0.00823334 0.00459122 0.00093220 0.00195556 0.00129141 
0.07461699 0.02014323 0.00794185 0.00254750 0.00084287 0.00197054 0.00985709 0.00272878 0.01557120 0.00127026 0.00110733 0.00823634 0.00458096 0.00094349 0.00198715 0.00128981 
0.07530717 0.02010601 0.00809249 0.00257685 0.00084668 0.00198316 0.00982155 0.00271084 0.01541759 0.00127046 0.00111071 0.00824632 0.00456648 0.00095461 0.00201889 0.00128827 
0.07594428 0.02013875 0.00824845 0.00260754 0.00085065 0.00199488 0.00978085 0.00269409 0.01524654 0.00127196 0.00111539 0.00826371 0.00454783 0.00096552 0.00205062 0.00128680 
0.07652645 0.02024226 0.00841001 0.00263930 0.00085480 0.00200567 0.00973561 0.00267857 0.01505896 0.00127475 0.00112137 0.00828893 0.00452507 0.00097619 0.00208219 0.00128540 
0.07705196 0.02041691 0.00857745 0.00267185 0.00085911 0.00201550 0.00968645 0.00266434 0.01485588 0.00127882 0.00112868 0.00832236 0.00449830 0.00098662 0.00211343 0.00128409 
0.07751929 0.02066264 0.00875103 0.00270492 0.00086358 0.00202436 0.00963401 0.00265144 0.01463851 0.00128416 0.00113730 0.00836439 0.00446762 0.00099679 0.00214419 0.00128287 
0.07792707 0.02097895 0.00893100 0.00273823 0.00086822 0.00203224 0.00957893 0.00263992 0.01440820 0.00129077 0.00114726 0.00841536 0.00443318 0.00100668 0.00217432 0.00128175 
0.07827417 0.02136491 0.00911759 0.00277153 0.00087302 0.00203914 0.00952189 0.00262980 0.01416642 0.00129862 0.00115853 0.00847560 0.00439515 0.00101629 0.00220366 0.00128074 
0.07855962 0.02181913 0.00931098 0.00280453 0.00087798 0.00204506 0.00946354 0.00262114 0.01391480 0.00130769 0.00117111 0.00854540 0.00435371 0.00102563 0.00223209 0.00127983 
0.07878268 0.02233983 0.00951137 0.00283698 0.00088308 0.00205001 0.00940453 0.00261397 0.01365507 0.00131795 0.00118500 0.00862503 0.00430909 0.00103468 0.00225945 0.00127904 
0.07894282 0.02292476 0.00971889 0.00286862 0.00088832 0.00205402 0.00934553 0.00260832 0.01338908 0.00132937 0.00120016 0.00871471 0.00426152 0.00104347 0.00228562 0.00127837 
0.07903972 0.02357130 0.00993366 0.00289919 0.00089370 0.00205710 0.00928716 0.00260422 0.01311879 0.00134192 0.00121659 0.00881461 0.00421125 0.00105201 0.00231048 0.00127783 
0.07907330 0.02427641 0.01015576 0.00292848 0.00089920 0.00205930 0.00923004 0.00260170 0.01284624 0.00135556 0.00123426 0.00892488 0.00415858 0.00106030 0.00233391 0.00127742 
0.07904369 0.02503669 0.01038523 0.00295625 0.00090481 0.00206063 0.00917478 0.00260079 0.01257356 0.00137024 0.00125314 0.00904560 0.00410379 0.00106837 0.00235581 0.00127715 
0.07895127 0.02584835 0.01062208 0.00298228 0.00091052 0.00206115 0.00912195 0.00260150 0.01230294 0.00138594 0.00127321 0.00917682 0.00404721 0.00107623 0.00237607 0.00127702 
0.07879666 0.02670728 0.01086627 0.00300638 0.00091632 0.00206090 0.00907209 0.00260384 0.01203663 0.00140258 0.00129442 0.00931852 0.00398917 0.00108392 0.00239461 0.00127703 
0.07858069 0.02760907 0.01111771 0.00302837 0.00092219 0.00205993 0.00902571 0.00260784 0.01177693 0.00142014 0.00131676 0.00947065 0.00393002 0.00109145 0.00241134 0.00127719 
0.07830447 0.02854898 0.01137629 0.00304807 0.00092811 0.00205830 0.00898328 0.00261349 0.01152615 0.00143855 0.00134017 0.00963308 0.00387012 0.00109887 0.00242621 0.00127749 
0.07796934 0.02952205 0.01164182 0.00306535 0.00093407 0.00205607 0.00894522 0.00262080 0.01128662 0.00145775 0.00136462 0.00980565 0.00380985 0.00110618 0.00243916 0.00127795 
0.07757688 0.03052305 0.01191408 0.00308007 0.00094005 0.00205331 0.00891192 0.00262976 0.01106068 0.00147770 0.00139006 0.00998814 0.00374958 0.00111344 0.00245013 0.00127856 
0.07712891 0.03154659 0.01219282 0.00309211 0.00094604 0.00205007 0.00888371 0.00264037 0.01085063 0.00149832 0.00141645 0.01018025 0.00368969 0.00112066 0.00245909 0.00127931 
0.07662752 0.03258707 0.01247769 0.00310139 0.00095200 0.00204642 0.00886087 0.00265262 0.01065875 0.00151956 0.00144374 0.01038166 0.00363060 0.00112788 0.00246601 0.00128021 
0.07607499 0.03363879 0.01276835 0.00310782 0.00095793 0.00204244 0.00884363 0.00266648 0.01048729 0.00154135 0.00147189 0.01059197 0.00357268 0.00113514 0.00247089 0.00128126 
0.07547388 0.03469595 0.01306435 0.00311137 0.00096379 0.00203820 0.00883216 0.00268194 0.01033841 0.00156362 0.00150083 0.01081074 0.00351633 0.00114246 0.00247372 0.00128246 
0.07482695 0.03575266 0.01336524 0.00311200 0.00096957 0.00203377 0.00882659 0.00269896 0.01021421 0.00158631 0.00153053 0.01103747 0.00346195 0.00114988 0.00247451 0.00128379 
0.07413719 0.03680304 0.01367048 0.00310970 0.00097525 0.00202922 0.00882697 0.00271750 0.01011671 0.00160935 0.00156091 0.01127162 0.00340992 0.00115742 0.00247327 0.00128525 
0.07340780 0.03784120 0.01397952 0.00310447 0.00098080 0.00202462 0.00883330 0.00273754 0.01004781 0.00163266 0.00159193 0.01151259 0.00336062 0.00116513 0.00247005 0.00128685 
0.07264218 0.03886132 0.01429172 0.00309636 0.00098621 0.00202004 0.00884553 0.00275902 0.01000930 0.00165616 0.00162353 0.01175973 0.00331443 0.00117301 0.00246488 0.00128856 
0.07184394 0.03985765 0.01460641 0.00308541 0.00099143 0.00201555 0.00886354 0.00278189 0.01000284 0.00167980 0.00165565 0.01201238 0.00327169 0.00118110 0.00245780 0.00129039 
0.07101684 0.04082457 0.01492290 0.00307169 0.00099647 0.00201122 0.00888717 0.00280609 0.01002995 0.00170348 0.00168822 0.01226980 0.00323277 0.00118942 0.00244889 0.00129233 
0.07016482 0.04175663 0.01524040 0.00305529 0.00100128 0.00200710 0.00891618 0.00283157 0.01009200 0.00172713 0.00172118 0.01253123 0.00319797 0.00119799 0.00243822 0.00129435 
0.06929197 0.04264858 0.01555814 0.00303633 0.00100585 0.00200327 0.00895029 0.00285826 0.01019020 0.00175067 0.00175448 0.01279589 0.00316762 0.00120683 0.00242586 0.00129646 
0.06840253 0.04349538 0.01587525 0.00301493 0.00101016 0.00199977 0.00898916 0.00288608 0.01032556 0.00177403 0.00178803 0.01306296 0.00314201 0.00121595 0.00241191 0.00129865 
0.06750082 0.04429228 0.01619088 0.00299124 0.00101418 0.00199665 0.00903242 0.00291496 0.01049896 0.00179713 0.00182177 0.01333158 0.00312140 0.00122536 0.00239646 0.00130089 
0.06659128 0.04503482 0.01650409 0.00296541 0.00101790 0.00199397 0.00907962 0.00294482 0.01071104 0.00181988 0.00185564 0.01360090 0.00310603 0.00123507 0.00237962 0.00130317 
0.06567843 0.04571887 0.01681396 0.00293762 0.00102128 0.00199177 0.00913028 0.00297558 0.01096228 0.00184221 0.00188957 0.01387004 0.00309613 0.00124508 0.00236150 0.00130548 
0.06476685 0.04634066 0.01711952 0.00290806 0.00102432 0.00199007 0.00918390 0.00300713 0.01125295 0.00186403 0.00192347 0.01413810 0.00309187 0.00125540 0.00234221 0.00130781 
0.06386114 0.04689681 0.01741977 0.00287693 0.00102699 0.00198891 0.00923992 0.00303940 0.01158310 0.00188527 0.00195728 0.01440419 0.00309343 0.00126601 0.00232189 0.00131014 
0.06296592 0.04738434 0.01771369 0.00284445 0.00102928 0.00198832 0.00929774 0.00307229 0.01195259 0.00190584 0.00199093 0.01466741 0.00310092 0.00127692 0.00230067 0.00131245 
0.06208580 0.04780071 0.01800027 0.00281083 0.00103117 0.00198831 0.00935674 0.00310569 0.01236108 0.00192567 0.00202434 0.01492686 0.00311445 0.00128811 0.00227866 0.00131472 
0.06122538 0.04814382 0.01827847 0.00277631 0.00103264 0.00198889 0.00941630 0.00313952 0.01280798 0.00194467 0.00205743 0.01518164 0.00313409 0.00129956 0.00225603 0.00131694 
0.06038917 0.04841206 0.01854724 0.00274113 0.00103368 0.00199006 0.00947573 0.00317365 0.01329254 0.00196278 0.00209012 0.01543088 0.00315986 0.00131126 0.00223290 0.00131908 
0.05958163 0.04860427 0.01880554 0.00270552 0.00103427 0.00199183 0.00953438 0.00320799 0.01381375 0.00197991 0.00212233 0.01567372 0.00319176 0.00132319 0.00220942 0.00132113 
0.05880709 0.04871981 0.01905233 0.00266974 0.00103441 0.00199419 0.00959155 0.00324244 0.01437045 0.00199599 0.00215400 0.01590931 0.00322976 0.00133531 0.00218573 0.00132307 
0.05806978 0.04875854 0.01928659 0.00263403 0.00103409 0.00199711 0.00964656 0.00327688 0.01496122 0.00201095 0.00218503 0.01613684 0.00327379 0.00134761 0.00216199 0.00132488 
0.05737377 0.04872081 0.01950729 0.00259864 0.00103330 0.00200058 0.00969871 0.00331122 0.01558450 0.00202471 0.00221535 0.01635550 0.00332373 0.00136004 0.00213833 0.00132654 
0.05672295 0.04860748 0.01971345 0.00256382 0.00103203 0.00200456 0.00974733 0.00334534 0.01623850 0.00203722 0.00224487 0.01656454 0.00337947 0.00137258 0.00211490 0.00132803 
0.05612102 0.04841993 0.01990408 0.00252982 0.00103027 0.00200903 0.00979175 0.00337914 0.01692126 0.00204839 0.00227352 0.01676324 0.00344081 0.00138518 0.00209185 0.00132933 
0.05557146 0.04816004 0.02007826 0.00249687 0.00102803 0.00201394 0.00983130 0.00341251 0.01763065 0.00205818 0.00230122 0.01695091 0.00350756 0.00139780 0.00206931 0.00133042 
0.05507753 0.04783016 0.02023508 0.00246521 0.00102531 0.00201924 0.00986537 0.00344536 0.01836438 0.00206652 0.00232789 0.01712689 0.00357948 0.00141040 0.00204743 0.00133130 
0.05464222 0.04743315 0.02037367 0.00243507 0.00102210 0.00202488 0.00989334 0.00347758 0.01912000 0.00207336 0.00235345 0.01729059 0.00365630 0.00142294 0.00202634 0.00133192 
0.05426824 0.04697232 0.02049322 0.00240666 0.00101841 0.00203081 0.00991464 0.00350907 0.01989490 0.00207865 0.00237782 0.01744146 0.00373773 0.00143536 0.00200617 0.00133229 
0.05395801 0.04645143 0.02059297 0.00238021 0.00101425 0.00203696 0.00992872 0.00353975 0.02068638 0.00208234 0.00240093 0.01757897 0.00382343 0.00144763 0.00198705 0.00133239 
0.05371365 0.04587468 0.02067220 0.00235589 0.00100961 0.00204327 0.00993510 0.00356952 0.02149159 0.00208439 0.00242271 0.01770268 0.00391306 0.00145969 0.00196910 0.00133219 
0.05353694 0.04524667 0.02073028 0.00233391 0.00100452 0.00204967 0.00993332 0.00359830 0.02230759 0.00208476 0.00244308 0.01781217 0.00400625 0.00147149 0.00195243 0.00133169 
0.05342936 0.04457238 0.02076661 0.00231443 0.00099897 0.00205608 0.00992296 0.00362600 0.02313135 0.00208342 0.00246197 0.01790709 0.00410258 0.00148298 0.00193716 0.00133088 
0.05339200 0.04385714 0.02078068 0.00229760 0.00099299 0.00206244 0.00990368 0.00365255 0.02395976 0.00208035 0.00247932 0.01798713 0.00420165 0.00149411 0.00192338 0.00132974 
0.05342562 0.04310659 0.02077206 0.00228357 0.00098658 0.00206866 0.00987516 0.00367788 0.02478965 0.00207553 0.00249507 0.01805206 0.00430302 0.00150483 0.00191118 0.00132827 
0.05353061 0.04232667 0.02074038 0.00227247 0.00097977 0.00207468 0.00983718 0.00370192 0.02561783 0.00206895 0.00250915 0.01810166 0.00440624 0.00151509 0.00190066 0.00132645 
0.05370699 0.04152356 0.02068536 0.00226439 0.00097256 0.00208041 0.00978952 0.00372461 0.02644104 0.00206059 0.00252152 0.01813581 0.00451085 0.00152484 0.00189189 0.00132428 
0.05395442 0.04070365 0.02060680 0.00225943 0.00096498 0.00208579 0.00973209 0.00374590 0.02725605 0.00205046 0.00253211 0.01815442 0.00461637 0.00153403 0.00188493 0.00132177 
0.05427218 0.03987350 0.02050459 0.00225766 0.00095704 0.00209073 0.00966479 0.00376575 0.02805961 0.00203857 0.00254089 0.01815746 0.00472232 0.00154262 0.00187984 0.00131889 
0.05465916 0.03903983 0.02037870 0.00225913 0.00094878 0.00209516 0.00958765 0.00378412 0.02884850 0.00202494 0.00254781 0.01814496 0.00482822 0.00155057 0.00187668 0.00131567 
0.05511392 0.03820939 0.02022920 0.00226387 0.00094020 0.00209902 0.00950071 0.00380096 0.02961954 0.00200957 0.00255284 0.01811698 0.00493359 0.00155782 0.00187548 0.00131209 
0.05563461 0.03738904 0.02005625 0.00227189 0.00093135 0.00210223 0.00940411 0.00381626 0.03036959 0.00199251 0.00255595 0.01807367 0.00503794 0.00156434 0.00187627 0.00130817 
0.05621906 0.03658560 0.01986008 0.00228318 0.00092223 0.00210473 0.00929803 0.00382999 0.03109558 0.00197379 0.00255711 0.01801521 0.00514080 0.00157010 0.00187907 0.00130390 
0.05686473 0.03580586 0.01964105 0.00229773 0.00091287 0.00210648 0.00918273 0.00384216 0.03179454 0.00195346 0.00255631 0.01794182 0.00524169 0.00157505 0.00188389 0.00129931 
0.05756873 0.03505652 0.01939957 0.00231547 0.00090331 0.00210740 0.00905852 0.00385274 0.03246359 0.00193157 0.00255354 0.01785379 0.00534017 0.00157917 0.00189072 0.00129440 
0.05832789 0.03434417 0.01913617 0.00233635 0.00089357 0.00210746 0.00892578 0.00386174 0.03309995 0.00190818 0.00254879 0.01775146 0.00543578 0.00158243 0.00189955 0.00128918 
0.05913867 0.03367519 0.01885146 0.00236028 0.00088368 0.00210662 0.00878493 0.00386917 0.03370098 0.00188335 0.00254206 0.01763521 0.00552811 0.00158481 0.00191037 0.00128368 
0.05999727 0.03305577 0.01854613 0.00238716 0.00087366 0.00210484 0.00863646 0.00387505 0.03426417 0.00185717 0.00253337 0.01750545 0.00561674 0.00158628 0.00192312 0.00127790 
0.06089961 0.03249184 0.01822098 0.00241686 0.00086354 0.00210209 0.00848092 0.00387940 0.03478717 0.00182972 0.00252274 0.01736267 0.00570128 0.00158684 0.00193779 0.00127188 
0.06184134 0.03198903 0.01787686 0.00244925 0.00085336 0.00209837 0.00831888 0.00388225 0.03526779 0.00180109 0.00251018 0.01720738 0.00578139 0.00158645 0.00195430 0.00126563 
0.06281787 0.03155261 0.01751472 0.00248417 0.00084313 0.00209365 0.00815100 0.00388363 0.03570401 0.00177137 0.00249574 0.01704014 0.00585672 0.00158513 0.00197259 0.00125919 
0.06382440 0.03118751 0.01713559 0.00252146 0.00083290 0.00208794 0.00797794 0.00388358 0.03609399 0.00174067 0.00247944 0.01686154 0.00592698 0.00158286 0.00199260 0.00125257 
0.06485595 0.03089823 0.01674055 0.00256092 0.00082268 0.00208124 0.00780042 0.00388215 0.03643609 0.00170910 0.00246135 0.01667224 0.00599189 0.00157965 0.00201425 0.00124581 
0.06590734 0.03068883 0.01633078 0.00260237 0.00081251 0.00207358 0.00761920 0.00387939 0.03672885 0.00167678 0.00244151 0.01647290 0.00605122 0.00157550 0.00203744 0.00123894 
0.06697328 0.03056290 0.01590749 0.00264558 0.00080241 0.00206497 0.00743505 0.00387535 0.03697104 0.00164383 0.00241998 0.01626425 0.00610477 0.00157042 0.00206207 0.00123199 
0.06804834 0.03052354 0.01547198 0.00269034 0.00079241 0.00205545 0.00724878 0.00387009 0.03716162 0.00161037 0.00239685 0.01604704 0.00615236 0.00156442 0.00208804 0.00122501 
0.06912700 0.03057331 0.01502557 0.00273641 0.00078253 0.00204507 0.00706123 0.00386368 0.03729976 0.00157655 0.00237217 0.01582205 0.00619387 0.00155752 0.00211525 0.00121801 
0.07020370 0.03071424 0.01456965 0.00278356 0.00077280 0.00203388 0.00687323 0.00385617 0.03738488 0.00154249 0.00234604 0.01559012 0.00622921 0.00154974 0.00214356 0.00121105 
0.07127281 0.03094779 0.01410565 0.00283153 0.00076325 0.00202194 0.00668563 0.00384765 0.03741658 0.00150833 0.00231854 0.01535209 0.00625833 0.00154112 0.00217285 0.00120416 
0.07232872 0.03127486 0.01363501 0.00288007 0.00075389 0.00200932 0.00649931 0.00383817 0.03739469 0.00147423 0.00228977 0.01510885 0.00628121 0.00153168 0.00220300 0.00119738 
0.07336583 0.03169575 0.01315922 0.00292892 0.00074475 0.00199610 0.00631512 0.00382782 0.03731927 0.00144031 0.00225983 0.01486132 0.00629790 0.00152145 0.00223387 0.00119075 
0.07437858 0.03221017 0.01267979 0.00297781 0.00073584 0.00198238 0.00613392 0.00381665 0.03719059 0.00140674 0.00222882 0.01461044 0.00630844 0.00151048 0.00226533 0.00118432 
0.07536151 0.03281723 0.01219824 0.00302649 0.00072720 0.00196823 0.00595655 0.00380476 0.03700914 0.00137365 0.00219685 0.01435718 0.00631296 0.00149880 0.00229722 0.00117811 
0.07630924 0.03351547 0.01171610 0.00307468 0.00071883 0.00195377 0.00578387 0.00379221 0.03677560 0.00134119 0.00216404 0.01410254 0.00631159 0.00148647 0.00232941 0.00117218 
0.07721654 0.03430281 0.01123489 0.00312212 0.00071075 0.00193910 0.00561668 0.00377908 0.03649088 0.00130952 0.00213051 0.01384753 0.00630452 0.00147353 0.00236176 0.00116657 
0.07807831 0.03517662 0.01075613 0.00316855 0.00070298 0.00192433 0.00545578 0.00376543 0.03615607 0.00127877 0.00209637 0.01359321 0.00629196 0.00146003 0.00239411 0.00116131 
0.07888966 0.03613368 0.01028134 0.00321371 0.00069553 0.00190959 0.00530194 0.00375134 0.03577246 0.00124909 0.00206176 0.01334063 0.00627418 0.00144603 0.00242632 0.00115644 
0.07964590 0.03717023 0.00981199 0.00325734 0.00068841 0.00189500 0.00515589 0.00373689 0.03534153 0.00122062 0.00202678 0.01309087 0.00625145 0.00143158 0.00245825 0.00115201 
0.08034256 0.03828197 0.00934956 0.00329919 0.00068163 0.00188068 0.00501835 0.00372213 0.03486493 0.00119350 0.00199157 0.01284502 0.00622409 0.00141675 0.00248977 0.00114804 
0.08097544 0.03946410 0.00889546 0.00333904 0.00067520 0.00186676 0.00488996 0.00370713 0.03434447 0.00116785 0.00195626 0.01260420 0.00619245 0.00140159 0.00252071 0.00114458 
0.08154060 0.04071135 0.00845109 0.00337664 0.00066913 0.00185337 0.00477137 0.00369197 0.03378213 0.00114380 0.00192097 0.01236952 0.00615690 0.00138618 0.00255096 0.00114166 
0.08203441 0.04201797 0.00801778 0.00341178 0.00066341 0.00184064 0.00466313 0.00367669 0.03318001 0.00112148 0.00188583 0.01214211 0.00611784 0.00137057 0.00258039 0.00113931 
0.08245354 0.04337783 0.00759682 0.00344425 0.00065806 0.00182871 0.00456579 0.00366135 0.03254038 0.00110099 0.00185095 0.01192310 0.00607567 0.00135483 0.00260885 0.00113756 
0.08279499 0.04478438 0.00718945 0.00347385 0.00065308 0.00181770 0.00447981 0.00364601 0.03186559 0.00108244 0.00181646 0.01171362 0.00603085 0.00133903 0.00263625 0.00113643 
0.08305612 0.04623077 0.00679684 0.00350040 0.00064845 0.00180774 0.00440563 0.00363073 0.03115813 0.00106594 0.00178248 0.01151481 0.00598381 0.00132323 0.00266246 0.00113595 
0.08323464 0.04770982 0.00642007 0.00352374 0.00064419 0.00179895 0.00434361 0.00361554 0.03042057 0.00105156 0.00174912 0.01132779 0.00593503 0.00130751 0.00268738 0.00113615 
0.08332863 0.04921410 0.00606019 0.00354370 0.00064030 0.00179145 0.00429407 0.00360049 0.02965557 0.00103939 0.00171649 0.01115368 0.00588496 0.00129193 0.00271092 0.00113703 
0.08333656 0.05073598 0.00571813 0.00356016 0.00063675 0.00178535 0.00425725 0.00358562 0.02886586 0.00102949 0.00168471 0.01099358 0.00583409 0.00127656 0.00273298 0.00113861 
0.08325727 0.05226765 0.00539477 0.00357300 0.00063355 0.00178077 0.00423336 0.00357096 0.02805423 0.00102192 0.00165386 0.01084858 0.00578290 0.00126147 0.00275349 0.00114091 
0.08309002 0.05380119 0.00509089 0.00358212 0.00063070 0.00177780 0.00422254 0.00355656 0.02722350 0.00101673 0.00162404 0.01071974 0.00573186 0.00124672 0.00277238 0.00114394 
0.08283444 0.05532861 0.00480719 0.00358743 0.00062817 0.00177654 0.00422486 0.00354244 0.02637654 0.00101395 0.00159534 0.01060812 0.00568145 0.00123237 0.00278960 0.00114769 
0.08249059 0.05684191 0.00454428 0.00358888 0.00062597 0.00177707 0.00424034 0.00352863 0.02551622 0.00101362 0.00156785 0.01051470 0.00563212 0.00121849 0.00280511 0.00115216 
0.08205890 0.05833311 0.00430266 0.00358642 0.00062407 0.00177946 0.00426894 0.00351516 0.02464543 0.00101572 0.00154163 0.01044048 0.00558434 0.00120514 0.00281887 0.00115736 
0.08154023 0.05979433 0.00408276 0.00358003 0.00062248 0.00178377 0.00431056 0.00350204 0.02376706 0.00102028 0.00151676 0.01038637 0.00553855 0.00119238 0.00283085 0.00116328 
0.08093582 0.06121780 0.00388490 0.00356969 0.00062117 0.00179006 0.00436504 0.00348930 0.02288395 0.00102726 0.00149328 0.01035326 0.00549517 0.00118027 0.00284107 0.00116989 
0.08024728 0.06259593 0.00370932 0.00355544 0.00062013 0.00179837 0.00443218 0.00347696 0.02199894 0.00103665 0.00147126 0.01034200 0.00545460 0.00116886 0.00284951 0.00117720 
0.07947662 0.06392138 0.00355613 0.00353730 0.00061934 0.00180872 0.00451170 0.00346504 0.02111483 0.00104840 0.00145073 0.01035336 0.00541722 0.00115821 0.00285620 0.00118518 
0.07862623 0.06518706 0.00342539 0.00351534 0.00061880 0.00182113 0.00460327 0.00345354 0.02023434 0.00106246 0.00143173 0.01038805 0.00538339 0.00114835 0.00286117 0.00119380 
0.07769882 0.06638620 0.00331702 0.00348962 0.00061848 0.00183559 0.00470654 0.00344250 0.01936017 0.00107877 0.00141428 0.01044674 0.00535343 0.00113935 0.00286447 0.00120305 
0.07669748 0.06751239 0.00323088 0.00346024 0.00061836 0.00185211 0.00482108 0.00343192 0.01849491 0.00109724 0.00139839 0.01052999 0.00532764 0.00113123 0.00286615 0.00121288 
0.07562559 0.06855964 0.00316671 0.00342731 0.00061844 0.00187065 0.00494643 0.00342182 0.01764110 0.00111780 0.00138408 0.01063832 0.00530629 0.00112404 0.00286629 0.00122327 
0.07448688 0.06952236 0.00312418 0.00339097 0.00061870 0.00189117 0.00508207 0.00341222 0.01680120 0.00114034 0.00137135 0.01077215 0.00528961 0.00111782 0.00286497 0.00123418 
0.07328533 0.07039546 0.00310286 0.00335136 0.00061912 0.00191362 0.00522746 0.00340314 0.01597755 0.00116474 0.00136018 0.01093182 0.00527780 0.00111260 0.00286229 0.00124556 
0.07202521 0.07117433 0.00310223 0.00330865 0.00061968 0.00193794 0.00538201 0.00339459 0.01517241 0.00119089 0.00135055 0.01111756 0.00527101 0.00110840 0.00285836 0.00125739 
0.07071103 0.07185490 0.00312169 0.00326302 0.00062036 0.00196403 0.00554509 0.00338660 0.01438794 0.00121866 0.00134245 0.01132955 0.00526938 0.00110526 0.00285329 0.00126960 
0.06934752 0.07243365 0.00316058 0.00321466 0.00062116 0.00199182 0.00571606 0.00337918 0.01362618 0.00124790 0.00133583 0.01156782 0.00527298 0.00110318 0.00284723 0.00128215 
0.06793962 0.07290765 0.00321813 0.00316379 0.00062205 0.00202119 0.00589424 0.00337236 0.01288905 0.00127846 0.00133066 0.01183234 0.00528186 0.00110219 0.00284030 0.00129499 
0.06649241 0.07327454 0.00329351 0.00311062 0.00062302 0.00205202 0.00607892 0.00336618 0.01217839 0.00131019 0.00132688 0.01212296 0.00529603 0.00110230 0.00283268 0.00130807 
0.06501115 0.07353256 0.00338585 0.00305540 0.00062406 0.00208420 0.00626937 0.00336065 0.01149589 0.00134292 0.00132445 0.01243942 0.00531547 0.00110352 0.00282451 0.00132134 
0.06350120 0.07368059 0.00349417 0.00299836 0.00062515 0.00211757 0.00646486 0.00335582 0.01084312 0.00137648 0.00132330 0.01278135 0.00534010 0.00110586 0.00281596 0.00133473 
0.06196800 0.07371810 0.00361748 0.00293976 0.00062628 0.00215198 0.00666462 0.00335171 0.01022154 0.00141071 0.00132337 0.01314829 0.00536982 0.00110930 0.00280722 0.00134819 
0.06041705 0.07364520 0.00375469 0.00287987 0.00062744 0.00218729 0.00686790 0.00334836 0.00963249 0.00144541 0.00132458 0.01353964 0.00540449 0.00111387 0.00279847 0.00136167 
0.05885390 0.07346260 0.00390471 0.00281895 0.00062862 0.00222332 0.00707391 0.00334582 0.00907718 0.00148042 0.00132686 0.01395470 0.00544393 0.00111954 0.00278989 0.00137510 
0.05728407 0.07317162 0.00406636 0.00275727 0.00062980 0.00225990 0.00728189 0.00334413 0.00855671 0.00151554 0.00133013 0.01439268 0.00548794 0.00112630 0.00278168 0.00138843 
0.05571308 0.07277418 0.00423847 0.00269511 0.00063098 0.00229685 0.00749106 0.00334333 0.00807204 0.00155060 0.00133431 0.01485264 0.00553626 0.00113415 0.00277403 0.00140160 
