0.01197911 0.01238913 0.00506961 0.00211421 0.00766867 0.00136750 0.01014487 0.00727720 0.02701934 0.00221284 0.01934872 0.00087539 0.00833707 0.03839073 0.01084303 0.00061155 
0.01203710 0.01230898 0.00503639 0.00213872 0.00774675 0.00135840 0.00999658 0.00725215 0.02615897 0.00217840 0.01939056 0.00086438 0.00832243 0.03792189 0.01063296 0.00057606 
0.01208334 0.01223050 0.00499960 0.00216640 0.00782115 0.00135036 0.00985006 0.00722273 0.02528685 0.00214476 0.01943175 0.00085339 0.00830801 0.03746280 0.01042506 0.00054051 
0.01211790 0.01215375 0.00495944 0.00219719 0.00789061 0.00134346 0.00970517 0.00718903 0.02440562 0.00211209 0.01947191 0.00084247 0.00829401 0.03701705 0.01022054 0.00050530 
0.01214095 0.01207875 0.00491612 0.00223107 0.00795392 0.00133774 0.00956177 0.00715118 0.02351793 0.00208058 0.01951066 0.00083164 0.00828063 0.03658812 0.01002058 0.00047083 
0.01215278 0.01200549 0.00486988 0.00226796 0.00800996 0.00133325 0.00941970 0.00710928 0.02262647 0.00205039 0.01954760 0.00082093 0.00826810 0.03617938 0.00982632 0.00043753 
0.01215375 0.01193390 0.00482095 0.00230780 0.00805762 0.00133005 0.00927882 0.00706347 0.02173395 0.00202169 0.01958230 0.00081039 0.00825661 0.03579409 0.00963888 0.00040584 
0.01214432 0.01186388 0.00476958 0.00235050 0.00809593 0.00132817 0.00913896 0.00701390 0.02084308 0.00199462 0.01961436 0.00080003 0.00824640 0.03543533 0.00945935 0.00037619 
0.01212505 0.01179527 0.00471602 0.00239599 0.00812396 0.00132764 0.00899998 0.00696073 0.01995658 0.00196934 0.01964333 0.00078989 0.00823766 0.03510601 0.00928875 0.00034906 
0.01209658 0.01172789 0.00466053 0.00244414 0.00814088 0.00132851 0.00886172 0.00690412 0.01907716 0.00194599 0.01966881 0.00077999 0.00823060 0.03480885 0.00912807 0.00032490 
0.01205963 0.01166153 0.00460339 0.00249485 0.00814596 0.00133079 0.00872405 0.00684426 0.01820754 0.00192470 0.01969038 0.00077035 0.00822544 0.03454636 0.00897824 0.00030417 
0.01201499 0.01159594 0.00454486 0.00254800 0.00813860 0.00133450 0.00858684 0.00678134 0.01735042 0.00190560 0.01970761 0.00076102 0.00822236 0.03432083 0.00884011 0.00028734 
0.01196351 0.01153082 0.00448521 0.00260345 0.00811826 0.00133966 0.00844995 0.00671555 0.01650848 0.00188881 0.01972012 0.00075199 0.00822156 0.03413429 0.00871447 0.00027485 
0.01190612 0.01146589 0.00442472 0.00266104 0.00808456 0.00134626 0.00831329 0.00664712 0.01568438 0.00187443 0.01972752 0.00074331 0.00822321 0.03398853 0.00860204 0.00026717 
0.01184379 0.01140080 0.00436367 0.00272063 0.00803722 0.00135432 0.00817676 0.00657627 0.01488076 0.00186256 0.01972945 0.00073499 0.00822748 0.03388506 0.00850347 0.00026473 
0.01177753 0.01133522 0.00430233 0.00278204 0.00797608 0.00136381 0.00804027 0.00650322 0.01410021 0.00185328 0.01972556 0.00072704 0.00823453 0.03382513 0.00841932 0.00026796 
0.01170840 0.01126878 0.00424096 0.00284511 0.00790110 0.00137473 0.00790379 0.00642821 0.01334528 0.00184668 0.01971554 0.00071950 0.00824450 0.03380969 0.00835006 0.00027727 
0.01163747 0.01120112 0.00417984 0.00290965 0.00781239 0.00138704 0.00776726 0.00635149 0.01261850 0.00184280 0.01969911 0.00071236 0.00825752 0.03383941 0.00829610 0.00029305 
0.01156585 0.01113186 0.00411923 0.00297547 0.00771016 0.00140071 0.00763069 0.00627332 0.01192231 0.00184171 0.01967601 0.00070566 0.00827370 0.03391466 0.00825773 0.00031567 
0.01149466 0.01106063 0.00405937 0.00304236 0.00759475 0.00141571 0.00749409 0.00619395 0.01125912 0.00184344 0.01964602 0.00069940 0.00829313 0.03403552 0.00823518 0.00034545 
0.01142501 0.01098707 0.00400051 0.00311012 0.00746665 0.00143198 0.00735751 0.00611366 0.01063126 0.00184803 0.01960897 0.00069361 0.00831591 0.03420176 0.00822857 0.00038272 
0.01135800 0.01091081 0.00394289 0.00317854 0.00732643 0.00144947 0.00722101 0.00603271 0.01004099 0.00185548 0.01956470 0.00068828 0.00834207 0.03441286 0.00823794 0.00042775 
0.01129475 0.01083152 0.00388674 0.00324740 0.00717481 0.00146811 0.00708471 0.00595137 0.00949049 0.00186581 0.01951312 0.00068344 0.00837168 0.03466802 0.00826324 0.00048079 
0.01123631 0.01074885 0.00383228 0.00331649 0.00701262 0.00148784 0.00694874 0.00586994 0.00898185 0.00187902 0.01945418 0.00067910 0.00840474 0.03496613 0.00830432 0.00054203 
0.01118375 0.01066252 0.00377970 0.00338556 0.00684080 0.00150856 0.00681328 0.00578869 0.00851708 0.00189507 0.01938787 0.00067526 0.00844127 0.03530581 0.00836096 0.00061164 
0.01113806 0.01057224 0.00372920 0.00345440 0.00666038 0.00153021 0.00667853 0.00570790 0.00809807 0.00191395 0.01931422 0.00067194 0.00848125 0.03568541 0.00843284 0.00068974 
0.01110020 0.01047777 0.00368096 0.00352278 0.00647250 0.00155268 0.00654473 0.00562786 0.00772663 0.00193561 0.01923332 0.00066915 0.00852465 0.03610300 0.00851956 0.00077640 
0.01107109 0.01037889 0.00363514 0.00359047 0.00627841 0.00157588 0.00641216 0.00554885 0.00740441 0.00196000 0.01914529 0.00066689 0.00857141 0.03655644 0.00862066 0.00087165 
0.01105157 0.01027543 0.00359190 0.00365723 0.00607942 0.00159969 0.00628113 0.00547116 0.00713299 0.00198705 0.01905032 0.00066517 0.00862148 0.03704330 0.00873556 0.00097548 
0.01104242 0.01016727 0.00355136 0.00372284 0.00587690 0.00162402 0.00615199 0.00539506 0.00691377 0.00201670 0.01894864 0.00066400 0.00867475 0.03756097 0.00886365 0.00108781 
0.01104434 0.01005431 0.00351366 0.00378707 0.00567234 0.00164874 0.00602511 0.00532084 0.00674804 0.00204887 0.01884052 0.00066339 0.00873115 0.03810661 0.00900422 0.00120852 
0.01105799 0.00993652 0.00347889 0.00384970 0.00546723 0.00167374 0.00590092 0.00524877 0.00663695 0.00208345 0.01872627 0.00066334 0.00879054 0.03867721 0.00915652 0.00133744 
0.01108389 0.00981391 0.00344714 0.00391051 0.00526313 0.00169889 0.00577986 0.00517911 0.00658146 0.00212036 0.01860628 0.00066386 0.00885280 0.03926956 0.00931972 0.00147434 
0.01112252 0.00968652 0.00341849 0.00396929 0.00506164 0.00172406 0.00566241 0.00511212 0.00658241 0.00215948 0.01848094 0.00066496 0.00891779 0.03988034 0.00949296 0.00161896 
0.01117426 0.00955449 0.00339299 0.00402584 0.00486439 0.00174914 0.00554908 0.00504807 0.00664045 0.00220069 0.01835071 0.00066664 0.00898537 0.04050606 0.00967530 0.00177097 
0.01123937 0.00941796 0.00337069 0.00407995 0.00467301 0.00177397 0.00544040 0.00498719 0.00675606 0.00224388 0.01821608 0.00066891 0.00905536 0.04114315 0.00986578 0.00192999 
0.01131806 0.00927717 0.00335161 0.00413143 0.00448912 0.00179845 0.00533695 0.00492971 0.00692953 0.00228890 0.01807759 0.00067178 0.00912760 0.04178793 0.01006341 0.00209559 
0.01141042 0.00913238 0.00333576 0.00418011 0.00431437 0.00182242 0.00523929 0.00487587 0.00716098 0.00233563 0.01793579 0.00067524 0.00920192 0.04243667 0.01026714 0.00226730 
0.01151644 0.00898392 0.00332315 0.00422582 0.00415036 0.00184576 0.00514804 0.00482586 0.00745034 0.00238392 0.01779128 0.00067931 0.00927816 0.04308558 0.01047593 0.00244461 
0.01163603 0.00883217 0.00331375 0.00426840 0.00399866 0.00186835 0.00506380 0.00477989 0.00779731 0.00243363 0.01764469 0.00068399 0.00935612 0.04373086 0.01068869 0.00262694 
0.01176898 0.00867755 0.00330753 0.00430769 0.00386082 0.00189004 0.00498722 0.00473813 0.00820141 0.00248460 0.01749666 0.00068928 0.00943563 0.04436872 0.01090434 0.00281370 
0.01191502 0.00852054 0.00330445 0.00434358 0.00373830 0.00191071 0.00491893 0.00470076 0.00866197 0.00253668 0.01734787 0.00069518 0.00951653 0.04499536 0.01112179 0.00300424 
0.01207377 0.00836168 0.00330444 0.00437593 0.00363253 0.00193025 0.00485957 0.00466792 0.00917808 0.00258971 0.01719900 0.00070170 0.00959864 0.04560706 0.01133994 0.00319789 
0.01224475 0.00820151 0.00330744 0.00440464 0.00354485 0.00194853 0.00480978 0.00463973 0.00974863 0.00264354 0.01705076 0.00070884 0.00968181 0.04620015 0.01155772 0.00339393 
0.01242741 0.00804067 0.00331336 0.00442963 0.00347650 0.00196544 0.00477021 0.00461632 0.01037230 0.00269801 0.01690385 0.00071661 0.00976588 0.04677106 0.01177406 0.00359164 
0.01262112 0.00787978 0.00332211 0.00445080 0.00342865 0.00198087 0.00474148 0.00459777 0.01104756 0.00275295 0.01675898 0.00072500 0.00985071 0.04731630 0.01198789 0.00379024 
0.01282516 0.00771954 0.00333357 0.00446812 0.00340236 0.00199471 0.00472421 0.00458416 0.01177266 0.00280821 0.01661688 0.00073401 0.00993617 0.04783255 0.01219821 0.00398896 
0.01303876 0.00756065 0.00334764 0.00448151 0.00339856 0.00200688 0.00471899 0.00457553 0.01254563 0.00286362 0.01647825 0.00074364 0.01002216 0.04831659 0.01240401 0.00418701 
0.01326107 0.00740384 0.00336419 0.00449097 0.00341808 0.00201729 0.00472639 0.00457191 0.01336430 0.00291903 0.01634379 0.00075390 0.01010856 0.04876542 0.01260433 0.00438358 
0.01349117 0.00724988 0.00338309 0.00449647 0.00346162 0.00202585 0.00474696 0.00457330 0.01422631 0.00297428 0.01621419 0.00076477 0.01019531 0.04917617 0.01279825 0.00457787 
0.01372810 0.00709952 0.00340420 0.00449802 0.00352974 0.00203249 0.00478119 0.00457969 0.01512907 0.00302922 0.01609013 0.00077626 0.01028234 0.04954619 0.01298490 0.00476906 
0.01397086 0.00695356 0.00342736 0.00449564 0.00362287 0.00203716 0.00482957 0.00459103 0.01606981 0.00308368 0.01597223 0.00078835 0.01036961 0.04987306 0.01316345 0.00495635 
0.01421839 0.00681278 0.00345243 0.00448935 0.00374128 0.00203979 0.00489252 0.00460725 0.01704557 0.00313754 0.01586114 0.00080105 0.01045710 0.05015455 0.01333314 0.00513895 
0.01446962 0.00667796 0.00347923 0.00447921 0.00388513 0.00204036 0.00497040 0.00462827 0.01805321 0.00319063 0.01575743 0.00081434 0.01054481 0.05038869 0.01349324 0.00531609 
0.01472343 0.00654988 0.00350762 0.00446529 0.00405438 0.00203882 0.00506354 0.00465397 0.01908941 0.00324282 0.01566165 0.00082821 0.01063277 0.05057375 0.01364310 0.00548702 
0.01497872 0.00642930 0.00353742 0.00444765 0.00424889 0.00203515 0.00517219 0.00468420 0.02015071 0.00329397 0.01557434 0.00084266 0.01072102 0.05070825 0.01378213 0.00565099 
0.01523433 0.00631697 0.00356845 0.00442641 0.00446834 0.00202935 0.00529656 0.00471882 0.02123348 0.00334395 0.01549594 0.00085766 0.01080963 0.05079098 0.01390980 0.00580733 
0.01548914 0.00621362 0.00360054 0.00440165 0.00471226 0.00202141 0.00543678 0.00475763 0.02233397 0.00339264 0.01542690 0.00087321 0.01089869 0.05082100 0.01402564 0.00595537 
0.01574202 0.00611993 0.00363352 0.00437350 0.00498004 0.00201134 0.00559290 0.00480042 0.02344830 0.00343991 0.01536759 0.00088928 0.01098832 0.05079764 0.01412926 0.00609450 
0.01599185 0.00603657 0.00366720 0.00434210 0.00527093 0.00199917 0.00576492 0.00484697 0.02457249 0.00348565 0.01531832 0.00090586 0.01107865 0.05072050 0.01422034 0.00622414 
0.01623753 0.00596415 0.00370141 0.00430757 0.00558401 0.00198494 0.00595273 0.00489701 0.02570246 0.00352974 0.01527937 0.00092292 0.01116984 0.05058946 0.01429862 0.00634378 
0.01647800 0.00590325 0.00373596 0.00427008 0.00591825 0.00196868 0.00615617 0.00495029 0.02683407 0.00357209 0.01525094 0.00094044 0.01126207 0.05040467 0.01436391 0.00645296 
0.01671221 0.00585439 0.00377068 0.00422979 0.00627248 0.00195045 0.00637498 0.00500651 0.02796311 0.00361258 0.01523319 0.00095840 0.01135552 0.05016656 0.01441610 0.00655128 
0.01693918 0.00581804 0.00380538 0.00418686 0.00664539 0.00193033 0.00660883 0.00506536 0.02908534 0.00365114 0.01522619 0.00097677 0.01145040 0.04987583 0.01445513 0.00663838 
0.01715795 0.00579461 0.00383989 0.00414147 0.00703556 0.00190838 0.00685728 0.00512651 0.03019650 0.00368768 0.01522998 0.00099551 0.01154694 0.04953342 0.01448102 0.00671400 
0.01736763 0.00578443 0.00387403 0.00409380 0.00744145 0.00188469 0.00711982 0.00518964 0.03129233 0.00372211 0.01524451 0.00101460 0.01164538 0.04914057 0.01449386 0.00677794 
0.01756738 0.00578780 0.00390764 0.00404405 0.00786143 0.00185937 0.00739587 0.00525437 0.03236859 0.00375435 0.01526967 0.00103400 0.01174596 0.04869873 0.01449379 0.00683004 
0.01775643 0.00580490 0.00394053 0.00399240 0.00829377 0.00183251 0.00768472 0.00532036 0.03342110 0.00378435 0.01530530 0.00105368 0.01184894 0.04820961 0.01448102 0.00687026 
0.01793405 0.00583588 0.00397255 0.00393906 0.00873664 0.00180424 0.00798563 0.00538723 0.03444573 0.00381204 0.01535115 0.00107359 0.01195457 0.04767514 0.01445582 0.00689860 
0.01809962 0.00588078 0.00400353 0.00388421 0.00918816 0.00177469 0.00829772 0.00545460 0.03543842 0.00383735 0.01540693 0.00109370 0.01206311 0.04709748 0.01441852 0.00691514 
0.01825256 0.00593959 0.00403331 0.00382805 0.00964638 0.00174397 0.00862008 0.00552208 0.03639524 0.00386024 0.01547226 0.00111397 0.01217483 0.04647899 0.01436949 0.00692005 
0.01839238 0.00601220 0.00406174 0.00377078 0.01010930 0.00171225 0.00895167 0.00558928 0.03731237 0.00388066 0.01554672 0.00113434 0.01228997 0.04582222 0.01430917 0.00691355 
0.01851867 0.00609843 0.00408868 0.00371261 0.01057486 0.00167965 0.00929142 0.00565581 0.03818614 0.00389858 0.01562982 0.00115478 0.01240880 0.04512989 0.01423804 0.00689596 
0.01863109 0.00619802 0.00411397 0.00365371 0.01104102 0.00164634 0.00963817 0.00572129 0.03901306 0.00391395 0.01572099 0.00117524 0.01253154 0.04440491 0.01415661 0.00686764 
0.01872939 0.00631061 0.00413749 0.00359429 0.01150568 0.00161247 0.00999067 0.00578534 0.03978982 0.00392674 0.01581964 0.00119568 0.01265842 0.04365032 0.01406545 0.00682905 
0.01881340 0.00643578 0.00415910 0.00353452 0.01196677 0.00157821 0.01034765 0.00584756 0.04051328 0.00393694 0.01592510 0.00121603 0.01278966 0.04286929 0.01396516 0.00678070 
0.01888302 0.00657302 0.00417867 0.00347460 0.01242221 0.00154373 0.01070775 0.00590760 0.04118058 0.00394451 0.01603665 0.00123625 0.01292543 0.04206512 0.01385636 0.00672318 
0.01893823 0.00672174 0.00419610 0.00341469 0.01286996 0.00150919 0.01106957 0.00596509 0.04178906 0.00394945 0.01615352 0.00125630 0.01306591 0.04124119 0.01373973 0.00665711 
0.01897910 0.00688129 0.00421126 0.00335497 0.01330800 0.00147478 0.01143167 0.00601969 0.04233633 0.00395173 0.01627492 0.00127611 0.01321124 0.04040099 0.01361594 0.00658319 
0.01900575 0.00705092 0.00422406 0.00329559 0.01373439 0.00144065 0.01179257 0.00607106 0.04282026 0.00395137 0.01639997 0.00129564 0.01336152 0.03954805 0.01348570 0.00650217 
0.01901841 0.00722983 0.00423441 0.00323672 0.01414721 0.00140700 0.01215074 0.00611890 0.04323902 0.00394835 0.01652779 0.00131483 0.01351684 0.03868597 0.01334975 0.00641484 
0.01901735 0.00741715 0.00424221 0.00317850 0.01454464 0.00137399 0.01250466 0.00616291 0.04359104 0.00394267 0.01665746 0.00133364 0.01367723 0.03781837 0.01320880 0.00632204 
0.01900292 0.00761194 0.00424738 0.00312107 0.01492493 0.00134181 0.01285278 0.00620281 0.04387510 0.00393435 0.01678802 0.00135201 0.01384272 0.03694890 0.01306362 0.00622462 
0.01897551 0.00781320 0.00424987 0.00306455 0.01528644 0.00131061 0.01319353 0.00623837 0.04409025 0.00392339 0.01691850 0.00136990 0.01401327 0.03608120 0.01291496 0.00612349 
0.01893561 0.00801989 0.00424960 0.00300907 0.01562761 0.00128058 0.01352537 0.00626935 0.04423590 0.00390982 0.01704789 0.00138725 0.01418880 0.03521892 0.01276359 0.00601956 
0.01888372 0.00823092 0.00424652 0.00295474 0.01594700 0.00125187 0.01384675 0.00629556 0.04431174 0.00389364 0.01717518 0.00140401 0.01436921 0.03436564 0.01261025 0.00591375 
0.01882041 0.00844514 0.00424058 0.00290165 0.01624332 0.00122466 0.01415614 0.00631684 0.04431783 0.00387489 0.01729935 0.00142014 0.01455433 0.03352495 0.01245570 0.00580702 
0.01874630 0.00866138 0.00423177 0.00284991 0.01651536 0.00119909 0.01445204 0.00633304 0.04425452 0.00385360 0.01741938 0.00143559 0.01474396 0.03270034 0.01230070 0.00570028 
0.01866204 0.00887845 0.00422004 0.00279959 0.01676207 0.00117533 0.01473301 0.00634407 0.04412252 0.00382979 0.01753422 0.00145032 0.01493787 0.03189527 0.01214599 0.00559448 
0.01856829 0.00909512 0.00420539 0.00275076 0.01698256 0.00115351 0.01499762 0.00634984 0.04392283 0.00380352 0.01764287 0.00146429 0.01513575 0.03111308 0.01199230 0.00549053 
0.01846578 0.00931014 0.00418781 0.00270348 0.01717604 0.00113376 0.01524453 0.00635032 0.04365681 0.00377481 0.01774431 0.00147746 0.01533726 0.03035707 0.01184035 0.00538932 
0.01835523 0.00952228 0.00416730 0.00265782 0.01734192 0.00111623 0.01547243 0.00634550 0.04332609 0.00374373 0.01783755 0.00148980 0.01554202 0.02963039 0.01169084 0.00529170 
0.01823737 0.00973028 0.00414388 0.00261381 0.01747972 0.00110103 0.01568011 0.00633540 0.04293263 0.00371031 0.01792161 0.00150127 0.01574961 0.02893611 0.01154446 0.00519850 
0.01811298 0.00993290 0.00411757 0.00257149 0.01758914 0.00108828 0.01586642 0.00632010 0.04247868 0.00367463 0.01799555 0.00151184 0.01595955 0.02827718 0.01140188 0.00511050 
0.01798279 0.01012891 0.00408841 0.00253089 0.01767004 0.00107806 0.01603031 0.00629967 0.04196677 0.00363675 0.01805846 0.00152149 0.01617132 0.02765641 0.01126374 0.00502842 
0.01784757 0.01031710 0.00405644 0.00249204 0.01772240 0.00107048 0.01617083 0.00627427 0.04139968 0.00359674 0.01810946 0.00153020 0.01638437 0.02707650 0.01113067 0.00495293 
0.01770806 0.01049631 0.00402171 0.00245493 0.01774639 0.00106561 0.01628712 0.00624403 0.04078046 0.00355466 0.01814772 0.00153794 0.01659812 0.02654000 0.01100328 0.00488463 
0.01756499 0.01066539 0.00398428 0.00241958 0.01774232 0.00106353 0.01637843 0.00620917 0.04011238 0.00351062 0.01817245 0.00154471 0.01681192 0.02604931 0.01088215 0.00482404 
0.01741908 0.01082323 0.00394424 0.00238600 0.01771065 0.00106428 0.01644412 0.00616990 0.03939894 0.00346468 0.01818291 0.00155048 0.01702513 0.02560671 0.01076784 0.00477163 
0.01727102 0.01096881 0.00390165 0.00235417 0.01765198 0.00106791 0.01648369 0.00612648 0.03864381 0.00341696 0.01817842 0.00155527 0.01723706 0.02521431 0.01066088 0.00472776 
0.01712147 0.01110113 0.00385663 0.00232408 0.01756705 0.00107446 0.01649674 0.00607921 0.03785085 0.00336754 0.01815837 0.00155906 0.01744699 0.02487407 0.01056177 0.00469271 
0.01697108 0.01121926 0.00380925 0.00229571 0.01745674 0.00108394 0.01648302 0.00602838 0.03702406 0.00331654 0.01812219 0.00156185 0.01765418 0.02458781 0.01047101 0.00466670 
0.01682043 0.01132236 0.00375965 0.00226905 0.01732205 0.00109635 0.01644239 0.00597435 0.03616757 0.00326406 0.01806941 0.00156366 0.01785788 0.02435718 0.01038905 0.00464981 
0.01667009 0.01140966 0.00370793 0.00224408 0.01716410 0.00111169 0.01637486 0.00591747 0.03528562 0.00321024 0.01799960 0.00156449 0.01805734 0.02418370 0.01031632 0.00464206 
0.01652057 0.01148047 0.00365422 0.00222076 0.01698412 0.00112994 0.01628056 0.00585812 0.03438249 0.00315519 0.01791243 0.00156436 0.01825175 0.02406872 0.01025323 0.00464336 
0.01637236 0.01153417 0.00359866 0.00219907 0.01678346 0.00115106 0.01615978 0.00579671 0.03346256 0.00309905 0.01780762 0.00156329 0.01844036 0.02401343 0.01020017 0.00465352 
0.01622587 0.01157027 0.00354139 0.00217897 0.01656354 0.00117501 0.01601291 0.00573366 0.03253021 0.00304196 0.01768501 0.00156130 0.01862238 0.02401888 0.01015749 0.00467227 
0.01608149 0.01158836 0.00348256 0.00216043 0.01632587 0.00120172 0.01584051 0.00566939 0.03158982 0.00298407 0.01754448 0.00155843 0.01879703 0.02408597 0.01012552 0.00469922 
0.01593954 0.01158812 0.00342233 0.00214342 0.01607203 0.00123112 0.01564327 0.00560436 0.03064574 0.00292553 0.01738602 0.00155469 0.01896354 0.02421544 0.01010456 0.00473391 
0.01580031 0.01156935 0.00336086 0.00212790 0.01580369 0.00126313 0.01542198 0.00553901 0.02970229 0.00286650 0.01720971 0.00155014 0.01912117 0.02440790 0.01009491 0.00477576 
0.01566403 0.01153195 0.00329832 0.00211383 0.01552252 0.00129764 0.01517760 0.00547380 0.02876369 0.00280715 0.01701569 0.00154481 0.01926919 0.02466378 0.01009680 0.00482413 
0.01553087 0.01147594 0.00323489 0.00210118 0.01523027 0.00133454 0.01491119 0.00540919 0.02783407 0.00274765 0.01680422 0.00153875 0.01940688 0.02498341 0.01011048 0.00487828 
0.01540096 0.01140143 0.00317074 0.00208991 0.01492871 0.00137371 0.01462393 0.00534563 0.02691745 0.00268817 0.01657563 0.00153200 0.01953356 0.02536693 0.01013613 0.00493739 
0.01527440 0.01130866 0.00310606 0.00207998 0.01461962 0.00141502 0.01431713 0.00528358 0.02601768 0.00262891 0.01633034 0.00152461 0.01964860 0.02581437 0.01017394 0.00500057 
0.01515120 0.01119798 0.00304103 0.00207136 0.01430479 0.00145831 0.01399220 0.00522349 0.02513845 0.00257004 0.01606886 0.00151663 0.01975137 0.02632560 0.01022406 0.00506687 
0.01503137 0.01106984 0.00297585 0.00206401 0.01398601 0.00150344 0.01365064 0.00516578 0.02428328 0.00251176 0.01579179 0.00150813 0.01984131 0.02690037 0.01028661 0.00513526 
0.01491485 0.01092480 0.00291070 0.00205790 0.01366505 0.00155023 0.01329406 0.00511089 0.02345547 0.00245426 0.01549982 0.00149917 0.01991790 0.02753827 0.01036167 0.00520469 
0.01480155 0.01076355 0.00284578 0.00205299 0.01334364 0.00159851 0.01292414 0.00505922 0.02265808 0.00239775 0.01519370 0.00148979 0.01998067 0.02823876 0.01044931 0.00527403 
0.01469134 0.01058687 0.00278128 0.00204925 0.01302350 0.00164810 0.01254267 0.00501116 0.02189397 0.00234243 0.01487430 0.00148007 0.02002918 0.02900116 0.01054957 0.00534215 
0.01458406 0.01039562 0.00271739 0.00204665 0.01270629 0.00169881 0.01215147 0.00496707 0.02116571 0.00228850 0.01454254 0.00147007 0.02006307 0.02982464 0.01066244 0.00540789 
0.01447952 0.01019080 0.00265431 0.00204515 0.01239361 0.00175044 0.01175244 0.00492729 0.02047561 0.00223616 0.01419942 0.00145986 0.02008203 0.03070826 0.01078791 0.00547007 
0.01437751 0.00997348 0.00259222 0.00204472 0.01208699 0.00180278 0.01134752 0.00489213 0.01982573 0.00218563 0.01384603 0.00144950 0.02008581 0.03165090 0.01092590 0.00552750 
0.01427779 0.00974483 0.00253131 0.00204534 0.01178791 0.00185564 0.01093869 0.00486188 0.01921781 0.00213710 0.01348351 0.00143906 0.02007422 0.03265133 0.01107631 0.00557901 
0.01418011 0.00950607 0.00247177 0.00204697 0.01149775 0.00190878 0.01052796 0.00483680 0.01865333 0.00209079 0.01311309 0.00142861 0.02004713 0.03370816 0.01123902 0.00562347 
0.01408420 0.00925855 0.00241378 0.00204958 0.01121781 0.00196200 0.01011736 0.00481709 0.01813344 0.00204689 0.01273603 0.00141821 0.02000447 0.03481985 0.01141386 0.00565975 
0.01398981 0.00900365 0.00235751 0.00205314 0.01094929 0.00201509 0.00970891 0.00480295 0.01765903 0.00200561 0.01235367 0.00140794 0.01994625 0.03598473 0.01160061 0.00568679 
0.01389664 0.00874283 0.00230314 0.00205762 0.01069330 0.00206781 0.00930464 0.00479451 0.01723065 0.00196714 0.01196739 0.00139785 0.01987254 0.03720098 0.01179903 0.00570357 
0.01380444 0.00847759 0.00225081 0.00206300 0.01045083 0.00211996 0.00890657 0.00479189 0.01684859 0.00193168 0.01157862 0.00138801 0.01978346 0.03846660 0.01200882 0.00570914 
0.01371295 0.00820949 0.00220071 0.00206923 0.01022279 0.00217131 0.00851665 0.00479516 0.01651281 0.00189942 0.01118882 0.00137848 0.01967920 0.03977948 0.01222967 0.00570266 
0.01362191 0.00794013 0.00215296 0.00207629 0.01000995 0.00222164 0.00813685 0.00480434 0.01622301 0.00187052 0.01079950 0.00136933 0.01956003 0.04113732 0.01246117 0.00568333 
0.01353109 0.00767113 0.00210771 0.00208414 0.00981298 0.00227074 0.00776906 0.00481942 0.01597859 0.00184517 0.01041217 0.00136062 0.01942626 0.04253768 0.01270293 0.00565049 
0.01344028 0.00740412 0.00206509 0.00209275 0.00963243 0.00231840 0.00741509 0.00484036 0.01577868 0.00182353 0.01002840 0.00135239 0.01927828 0.04397797 0.01295447 0.00560359 
0.01334930 0.00714077 0.00202523 0.00210209 0.00946875 0.00236442 0.00707672 0.00486705 0.01562215 0.00180576 0.00964973 0.00134470 0.01911653 0.04545543 0.01321528 0.00554218 
0.01325799 0.00688273 0.00198822 0.00211211 0.00932226 0.00240860 0.00675563 0.00489937 0.01550762 0.00179199 0.00927774 0.00133760 0.01894149 0.04696713 0.01348479 0.00546598 
0.01316624 0.00663164 0.00195418 0.00212277 0.00919317 0.00245073 0.00645340 0.00493715 0.01543347 0.00178237 0.00891400 0.00133114 0.01875372 0.04851000 0.01376241 0.00537481 
0.01307395 0.00638913 0.00192319 0.00213404 0.00908157 0.00249065 0.00617154 0.00498017 0.01539785 0.00177701 0.00856005 0.00132536 0.01855381 0.05008080 0.01404747 0.00526866 
0.01298109 0.00615680 0.00189532 0.00214587 0.00898745 0.00252817 0.00591142 0.00502818 0.01539873 0.00177603 0.00821745 0.00132029 0.01834242 0.05167615 0.01433927 0.00514768 
0.01288766 0.00593620 0.00187063 0.00215822 0.00891069 0.00256312 0.00567432 0.00508091 0.01543387 0.00177951 0.00788772 0.00131598 0.01812022 0.05329248 0.01463706 0.00501217 
0.01279371 0.00572884 0.00184919 0.00217103 0.00885107 0.00259535 0.00546139 0.00513804 0.01550087 0.00178754 0.00757235 0.00131244 0.01788797 0.05492611 0.01494005 0.00486261 
0.01269934 0.00553619 0.00183102 0.00218425 0.00880826 0.00262472 0.00527364 0.00519921 0.01559717 0.00180018 0.00727280 0.00130970 0.01764641 0.05657318 0.01524739 0.00469962 
0.01260468 0.00535962 0.00181614 0.00219783 0.00878186 0.00265109 0.00511197 0.00526405 0.01572011 0.00181749 0.00699047 0.00130779 0.01739636 0.05822970 0.01555821 0.00452402 
0.01250995 0.00520045 0.00180458 0.00221171 0.00877134 0.00267435 0.00497711 0.00533215 0.01586689 0.00183948 0.00672674 0.00130671 0.01713864 0.05989154 0.01587156 0.00433680 
0.01241538 0.00505991 0.00179631 0.00222584 0.00877614 0.00269438 0.00486967 0.00540309 0.01603465 0.00186618 0.00648290 0.00130648 0.01687412 0.06155446 0.01618649 0.00413911 
0.01232129 0.00493913 0.00179133 0.00224015 0.00879558 0.00271111 0.00479010 0.00547640 0.01622045 0.00189759 0.00626020 0.00130709 0.01660365 0.06321406 0.01650199 0.00393228 
0.01222803 0.00483914 0.00178959 0.00225458 0.00882893 0.00272444 0.00473872 0.00555162 0.01642132 0.00193368 0.00605981 0.00130854 0.01632814 0.06486588 0.01681703 0.00371781 
0.01213600 0.00476089 0.00179106 0.00226907 0.00887540 0.00273432 0.00471567 0.00562827 0.01663426 0.00197442 0.00588282 0.00131084 0.01604849 0.06650533 0.01713054 0.00349736 
0.01204566 0.00470517 0.00179567 0.00228354 0.00893413 0.00274070 0.00472095 0.00570584 0.01685629 0.00201975 0.00573025 0.00131396 0.01576562 0.06812774 0.01744142 0.00327275 
0.01195752 0.00467269 0.00180334 0.00229792 0.00900424 0.00274355 0.00475442 0.00578383 0.01708444 0.00206958 0.00560301 0.00131788 0.01548042 0.06972837 0.01774857 0.00304596 
0.01187213 0.00466401 0.00181399 0.00231215 0.00908478 0.00274286 0.00481577 0.00586173 0.01731579 0.00212384 0.00550195 0.00132259 0.01519384 0.07130244 0.01805084 0.00281909 
0.01179010 0.00467959 0.00182752 0.00232615 0.00917478 0.00273862 0.00490454 0.00593903 0.01754750 0.00218240 0.00542780 0.00132805 0.01490676 0.07284511 0.01834710 0.00259441 
0.01171205 0.00471972 0.00184380 0.00233985 0.00927325 0.00273086 0.00502014 0.00601522 0.01777679 0.00224513 0.00538119 0.00133422 0.01462010 0.07435153 0.01863619 0.00237427 
0.01163866 0.00478458 0.00186272 0.00235317 0.00937919 0.00271960 0.00516182 0.00608980 0.01800101 0.00231190 0.00536266 0.00134108 0.01433474 0.07581686 0.01891696 0.00216117 
0.01157065 0.00487420 0.00188412 0.00236604 0.00949156 0.00270490 0.00532870 0.00616227 0.01821763 0.00238251 0.00537262 0.00134858 0.01405155 0.07723627 0.01918827 0.00195768 
0.01150875 0.00498848 0.00190786 0.00237838 0.00960935 0.00268682 0.00551976 0.00623215 0.01842426 0.00245681 0.00541139 0.00135666 0.01377140 0.07860496 0.01944897 0.00176646 
0.01145374 0.00512716 0.00193377 0.00239012 0.00973154 0.00266544 0.00573385 0.00629899 0.01861867 0.00253458 0.00547917 0.00136528 0.01349511 0.07991822 0.01969796 0.00159025 
0.01140639 0.00528986 0.00196168 0.00240119 0.00985713 0.00264086 0.00596970 0.00636235 0.01879882 0.00261560 0.00557602 0.00137437 0.01322349 0.08117140 0.01993413 0.00143181 
0.01136752 0.00547605 0.00199140 0.00241152 0.00998513 0.00261319 0.00622592 0.00642180 0.01896282 0.00269966 0.00570193 0.00138389 0.01295731 0.08235999 0.02015643 0.00129395 
0.01133793 0.00568506 0.00202275 0.00242103 0.01011457 0.00258255 0.00650103 0.00647696 0.01910901 0.00278649 0.00585674 0.00139375 0.01269732 0.08347959 0.02036383 0.00117951 
0.01131845 0.00591610 0.00205552 0.00242966 0.01024454 0.00254908 0.00679343 0.00652746 0.01923595 0.00287585 0.00604018 0.00140391 0.01244422 0.08452598 0.02055536 0.00109128 
0.01130988 0.00616823 0.00208950 0.00243734 0.01037413 0.00251293 0.00710143 0.00657300 0.01934238 0.00296746 0.00625187 0.00141428 0.01219870 0.08549511 0.02073010 0.00103207 
0.01131304 0.00644040 0.00212448 0.00244402 0.01050249 0.00247426 0.00742329 0.00661326 0.01942731 0.00306104 0.00649130 0.00142480 0.01196139 0.08638316 0.02088717 0.00100460 
0.01132873 0.00673143 0.00216024 0.00244963 0.01062882 0.00243326 0.00775716 0.00664801 0.01948995 0.00315629 0.00675786 0.00143538 0.01173289 0.08718654 0.02102578 0.00101156 
0.01135771 0.00704003 0.00219655 0.00245413 0.01075236 0.00239009 0.00810115 0.00667702 0.01952978 0.00325292 0.00705083 0.00144597 0.01151374 0.08790190 0.02114521 0.00105553 
0.01140075 0.00736481 0.00223318 0.00245746 0.01087241 0.00234497 0.00845333 0.00670015 0.01954650 0.00335061 0.00736936 0.00145647 0.01130446 0.08852622 0.02124480 0.00113899 
0.01145857 0.00770425 0.00226992 0.00245958 0.01098832 0.00229808 0.00881171 0.00671724 0.01954005 0.00344906 0.00771252 0.00146682 0.01110553 0.08905674 0.02132401 0.00126429 
0.01153184 0.00805677 0.00230652 0.00246046 0.01109950 0.00224964 0.00917429 0.00672824 0.01951063 0.00354793 0.00807926 0.00147694 0.01091735 0.08949108 0.02138237 0.00143362 
0.01162121 0.00842071 0.00234275 0.00246005 0.01120542 0.00219987 0.00953905 0.00673310 0.01945866 0.00364691 0.00846842 0.00148674 0.01074031 0.08982719 0.02141950 0.00164902 
0.01172728 0.00879431 0.00237838 0.00245835 0.01130562 0.00214899 0.00990396 0.00673184 0.01938482 0.00374567 0.00887878 0.00149616 0.01057475 0.09006338 0.02143513 0.00191233 
0.01185057 0.00917577 0.00241320 0.00245533 0.01139970 0.00209722 0.01026699 0.00672451 0.01928998 0.00384389 0.00930901 0.00150513 0.01042095 0.09019840 0.02142911 0.00222517 
0.01199158 0.00956322 0.00244696 0.00245097 0.01148731 0.00204479 0.01062616 0.00671123 0.01917527 0.00394123 0.00975769 0.00151356 0.01027914 0.09023136 0.02140139 0.00258894 
0.01215072 0.00995479 0.00247945 0.00244529 0.01156819 0.00199194 0.01097949 0.00669214 0.01904201 0.00403738 0.01022334 0.00152139 0.01014954 0.09016184 0.02135202 0.00300482 
0.01232833 0.01034852 0.00251046 0.00243827 0.01164211 0.00193890 0.01132505 0.00666745 0.01889176 0.00413201 0.01070439 0.00152855 0.01003229 0.08998983 0.02128119 0.00347371 
0.01252468 0.01074249 0.00253978 0.00242993 0.01170892 0.00188589 0.01166094 0.00663739 0.01872622 0.00422481 0.01119921 0.00153498 0.00992751 0.08971579 0.02118920 0.00399623 
0.01273998 0.01113475 0.00256720 0.00242029 0.01176853 0.00183314 0.01198537 0.00660225 0.01854731 0.00431547 0.01170612 0.00154062 0.00983526 0.08934064 0.02107647 0.00457273 
0.01297434 0.01152335 0.00259255 0.00240938 0.01182090 0.00178089 0.01229657 0.00656236 0.01835711 0.00440369 0.01222339 0.00154541 0.00975557 0.08886577 0.02094353 0.00520326 
0.01322778 0.01190638 0.00261563 0.00239723 0.01186604 0.00172935 0.01259287 0.00651808 0.01815785 0.00448918 0.01274923 0.00154931 0.00968843 0.08829304 0.02079104 0.00588757 
0.01350025 0.01228195 0.00263627 0.00238390 0.01190402 0.00167875 0.01287271 0.00646982 0.01795188 0.00457165 0.01328183 0.00155225 0.00963378 0.08762477 0.02061978 0.00662507 
0.01379161 0.01264822 0.00265433 0.00236942 0.01193496 0.00162929 0.01313458 0.00641800 0.01774169 0.00465084 0.01381933 0.00155421 0.00959155 0.08686378 0.02043064 0.00741487 
0.01410162 0.01300341 0.00266964 0.00235386 0.01195901 0.00158118 0.01337712 0.00636310 0.01752986 0.00472648 0.01435988 0.00155514 0.00956161 0.08601334 0.02022464 0.00825576 
0.01442994 0.01334579 0.00268209 0.00233729 0.01197638 0.00153461 0.01359905 0.00630561 0.01731906 0.00479832 0.01490160 0.00155502 0.00954381 0.08507719 0.02000289 0.00914619 
0.01477616 0.01367374 0.00269154 0.00231978 0.01198729 0.00148978 0.01379924 0.00624605 0.01711201 0.00486614 0.01544259 0.00155382 0.00953797 0.08405951 0.01976661 0.01008428 
0.01513976 0.01398570 0.00269791 0.00230142 0.01199202 0.00144686 0.01397665 0.00618496 0.01691150 0.00492972 0.01598098 0.00155152 0.00954388 0.08296494 0.01951714 0.01106786 
0.01552013 0.01428024 0.00270110 0.00228230 0.01199086 0.00140601 0.01413038 0.00612288 0.01672032 0.00498887 0.01651488 0.00154811 0.00956130 0.08179853 0.01925589 0.01209439 
0.01591656 0.01455602 0.00270104 0.00226250 0.01198413 0.00136739 0.01425968 0.00606040 0.01654128 0.00504338 0.01704246 0.00154358 0.00958997 0.08056573 0.01898437 0.01316106 
0.01632825 0.01481184 0.00269768 0.00224214 0.01197215 0.00133115 0.01436391 0.00599808 0.01637717 0.00509311 0.01756188 0.00153794 0.00962961 0.07927238 0.01870416 0.01426473 
0.01675433 0.01504662 0.00269098 0.00222132 0.01195529 0.00129742 0.01444259 0.00593651 0.01623075 0.00513789 0.01807134 0.00153119 0.00967993 0.07792469 0.01841694 0.01540198 
0.01719381 0.01525941 0.00268092 0.00220016 0.01193388 0.00126630 0.01449535 0.00587626 0.01610471 0.00517760 0.01856909 0.00152334 0.00974061 0.07652918 0.01812442 0.01656910 
0.01764565 0.01544942 0.00266750 0.00217877 0.01190830 0.00123791 0.01452199 0.00581792 0.01600169 0.00521213 0.01905343 0.00151441 0.00981132 0.07509268 0.01782839 0.01776213 
0.01810869 0.01561601 0.00265074 0.00215727 0.01187890 0.00121233 0.01452243 0.00576204 0.01592421 0.00524138 0.01952270 0.00150444 0.00989172 0.07362230 0.01753066 0.01897685 
0.01858172 0.01575868 0.00263068 0.00213580 0.01184604 0.00118964 0.01449674 0.00570919 0.01587471 0.00526528 0.01997531 0.00149344 0.00998147 0.07212537 0.01723309 0.02020882 
0.01906344 0.01587712 0.00260737 0.00211447 0.01181005 0.00116989 0.01444511 0.00565991 0.01585547 0.00528376 0.02040974 0.00148147 0.01008021 0.07060945 0.01693756 0.02145340 
0.01955249 0.01597115 0.00258087 0.00209341 0.01177127 0.00115314 0.01436788 0.00561470 0.01586865 0.00529681 0.02082454 0.00146856 0.01018760 0.06908223 0.01664596 0.02270573 
0.02004745 0.01604079 0.00255129 0.00207277 0.01173001 0.00113940 0.01426552 0.00557405 0.01591623 0.00530439 0.02121835 0.00145477 0.01030327 0.06755154 0.01636017 0.02396085 
0.02054683 0.01608620 0.00251872 0.00205267 0.01168656 0.00112870 0.01413860 0.00553845 0.01600001 0.00530651 0.02158988 0.00144014 0.01042686 0.06602529 0.01608208 0.02521361 
0.02104908 0.01610773 0.00248329 0.00203323 0.01164119 0.00112104 0.01398785 0.00550830 0.01612161 0.00530319 0.02193793 0.00142473 0.01055804 0.06451144 0.01581353 0.02645878 
0.02155263 0.01610588 0.00244515 0.00201460 0.01159414 0.00111639 0.01381409 0.00548401 0.01628244 0.00529448 0.02226140 0.00140862 0.01069644 0.06301792 0.01555634 0.02769107 
0.02205584 0.01608132 0.00240444 0.00199689 0.01154562 0.00111473 0.01361825 0.00546593 0.01648369 0.00528042 0.02255928 0.00139186 0.01084173 0.06155264 0.01531228 0.02890510 
0.02255707 0.01603489 0.00236135 0.00198023 0.01149580 0.00111602 0.01340136 0.00545438 0.01672632 0.00526109 0.02283069 0.00137454 0.01099359 0.06012342 0.01508306 0.03009550 
0.02305461 0.01596758 0.00231607 0.00196475 0.01144483 0.00112020 0.01316456 0.00544962 0.01701106 0.00523659 0.02307481 0.00135671 0.01115169 0.05873793 0.01487032 0.03125692 
0.02354677 0.01588052 0.00226879 0.00195055 0.01139281 0.00112720 0.01290905 0.00545188 0.01733839 0.00520703 0.02329096 0.00133846 0.01131573 0.05740368 0.01467561 0.03238402 
0.02403184 0.01577502 0.00221973 0.00193776 0.01133982 0.00113693 0.01263615 0.00546133 0.01770854 0.00517253 0.02347855 0.00131987 0.01148542 0.05612794 0.01450041 0.03347156 
0.02450809 0.01565249 0.00216912 0.00192647 0.01128588 0.00114931 0.01234720 0.00547810 0.01812149 0.00513325 0.02363712 0.00130101 0.01166048 0.05491774 0.01434606 0.03451442 
0.02497381 0.01551449 0.00211720 0.00191678 0.01123100 0.00116422 0.01204363 0.00550226 0.01857694 0.00508935 0.02376630 0.00128197 0.01184066 0.05377979 0.01421383 0.03550757 
0.02542731 0.01536269 0.00206423 0.00190879 0.01117512 0.00118155 0.01172692 0.00553384 0.01907436 0.00504099 0.02386586 0.00126283 0.01202571 0.05272047 0.01410485 0.03644620 
0.02586689 0.01519889 0.00201046 0.00190257 0.01111817 0.00120118 0.01139859 0.00557279 0.01961292 0.00498838 0.02393565 0.00124367 0.01221541 0.05174576 0.01402010 0.03732567 
0.02629091 0.01502497 0.00195616 0.00189819 0.01106002 0.00122295 0.01106018 0.00561903 0.02019158 0.00493172 0.02397565 0.00122457 0.01240955 0.05086123 0.01396045 0.03814157 
0.02669775 0.01484289 0.00190161 0.00189573 0.01100053 0.00124674 0.01071327 0.00567244 0.02080900 0.00487123 0.02398597 0.00120561 0.01260795 0.05007201 0.01392663 0.03888975 
0.02708584 0.01465473 0.00184709 0.00189524 0.01093950 0.00127239 0.01035944 0.00573282 0.02146361 0.00480716 0.02396679 0.00118686 0.01281043 0.04938273 0.01391920 0.03956635 
0.02745366 0.01446257 0.00179289 0.00189675 0.01087671 0.00129974 0.01000029 0.00579994 0.02215358 0.00473974 0.02391843 0.00116841 0.01301685 0.04879751 0.01393858 0.04016780 
0.02779976 0.01426860 0.00173929 0.00190030 0.01081192 0.00132863 0.00963740 0.00587350 0.02287687 0.00466925 0.02384131 0.00115032 0.01322707 0.04831992 0.01398503 0.04069087 
0.02812273 0.01407500 0.00168659 0.00190590 0.01074484 0.00135889 0.00927234 0.00595318 0.02363118 0.00459595 0.02373596 0.00113267 0.01344097 0.04795298 0.01405863 0.04113270 
0.02842127 0.01388400 0.00163507 0.00191358 0.01067517 0.00139035 0.00890666 0.00603859 0.02441402 0.00452014 0.02360298 0.00111552 0.01365846 0.04769913 0.01415933 0.04149077 
0.02869413 0.01369782 0.00158504 0.00192331 0.01060260 0.00142283 0.00854187 0.00612931 0.02522267 0.00444210 0.02344312 0.00109893 0.01387945 0.04756019 0.01428688 0.04176298 
0.02894017 0.01351869 0.00153677 0.00193509 0.01052678 0.00145616 0.00817945 0.00622489 0.02605425 0.00436216 0.02325717 0.00108297 0.01410387 0.04753736 0.01444091 0.04194762 
0.02915832 0.01334880 0.00149056 0.00194888 0.01044736 0.00149016 0.00782084 0.00632481 0.02690566 0.00428064 0.02304606 0.00106767 0.01433166 0.04763125 0.01462085 0.04204342 
0.02934764 0.01319033 0.00144669 0.00196464 0.01036397 0.00152465 0.00746740 0.00642855 0.02777367 0.00419785 0.02281077 0.00105311 0.01456276 0.04784179 0.01482599 0.04204951 
0.02950727 0.01304538 0.00140542 0.00198232 0.01027624 0.00155945 0.00712045 0.00653555 0.02865492 0.00411415 0.02255237 0.00103930 0.01479713 0.04816831 0.01505545 0.04196549 
0.02963647 0.01291601 0.00136702 0.00200186 0.01018379 0.00159440 0.00678123 0.00664522 0.02954588 0.00402988 0.02227202 0.00102630 0.01503475 0.04860949 0.01530820 0.04179139 
0.02973461 0.01280420 0.00133176 0.00202317 0.01008627 0.00162932 0.00645092 0.00675695 0.03044294 0.00394539 0.02197093 0.00101414 0.01527556 0.04916337 0.01558308 0.04152768 
0.02980118 0.01271183 0.00129988 0.00204616 0.00998331 0.00166403 0.00613061 0.00687011 0.03134241 0.00386106 0.02165038 0.00100283 0.01551955 0.04982737 0.01587878 0.04117530 
0.02983578 0.01264069 0.00127161 0.00207073 0.00987455 0.00169839 0.00582132 0.00698406 0.03224052 0.00377725 0.02131173 0.00099241 0.01576668 0.05059831 0.01619385 0.04073561 
0.02983816 0.01259245 0.00124717 0.00209676 0.00975965 0.00173222 0.00552396 0.00709814 0.03313345 0.00369433 0.02095637 0.00098288 0.01601691 0.05147240 0.01652671 0.04021042 
0.02980816 0.01256865 0.00122679 0.00212415 0.00963832 0.00176538 0.00523938 0.00721171 0.03401736 0.00361270 0.02058574 0.00097426 0.01627020 0.05244528 0.01687569 0.03960199 
0.02974576 0.01257071 0.00121064 0.00215274 0.00951024 0.00179773 0.00496832 0.00732410 0.03488840 0.00353274 0.02020133 0.00096655 0.01652648 0.05351202 0.01723898 0.03891297 
0.02965109 0.01259990 0.00119892 0.00218239 0.00937517 0.00182911 0.00471143 0.00743467 0.03574276 0.00345484 0.01980464 0.00095975 0.01678570 0.05466716 0.01761471 0.03814645 
0.02952438 0.01265732 0.00119177 0.00221297 0.00923286 0.00185940 0.00446927 0.00754276 0.03657663 0.00337939 0.01939724 0.00095384 0.01704778 0.05590476 0.01800090 0.03730588 
0.02936599 0.01274393 0.00118935 0.00224429 0.00908314 0.00188847 0.00424230 0.00764775 0.03738629 0.00330680 0.01898067 0.00094882 0.01731261 0.05721836 0.01839549 0.03639512 
0.02917641 0.01286051 0.00119177 0.00227621 0.00892585 0.00191622 0.00403089 0.00774903 0.03816810 0.00323746 0.01855652 0.00094466 0.01758006 0.05860111 0.01879638 0.03541836 
0.02895625 0.01300768 0.00119915 0.00230855 0.00876088 0.00194254 0.00383530 0.00784600 0.03891851 0.00317176 0.01812638 0.00094135 0.01785000 0.06004572 0.01920141 0.03438013 
0.02870624 0.01318587 0.00121156 0.00234113 0.00858818 0.00196732 0.00365572 0.00793810 0.03963409 0.00311010 0.01769183 0.00093886 0.01812226 0.06154457 0.01960839 0.03328528 
0.02842725 0.01339534 0.00122908 0.00237377 0.00840775 0.00199049 0.00349224 0.00802479 0.04031156 0.00305287 0.01725444 0.00093716 0.01839662 0.06308968 0.02001509 0.03213892 
0.02812023 0.01363614 0.00125175 0.00240629 0.00821962 0.00201196 0.00334486 0.00810557 0.04094781 0.00300047 0.01681579 0.00093621 0.01867287 0.06467283 0.02041929 0.03094643 
0.02778625 0.01390817 0.00127958 0.00243851 0.00802392 0.00203168 0.00321350 0.00817996 0.04153989 0.00295327 0.01637740 0.00093597 0.01895073 0.06628552 0.02081875 0.02971342 
0.02742651 0.01421114 0.00131259 0.00247022 0.00782079 0.00204958 0.00309798 0.00824754 0.04208505 0.00291166 0.01594082 0.00093641 0.01922991 0.06791911 0.02121125 0.02844568 
0.02704227 0.01454455 0.00135075 0.00250126 0.00761048 0.00206562 0.00299808 0.00830792 0.04258077 0.00287600 0.01550751 0.00093749 0.01951007 0.06956477 0.02159463 0.02714917 
0.02663491 0.01490775 0.00139401 0.00253143 0.00739326 0.00207977 0.00291348 0.00836077 0.04302473 0.00284665 0.01507892 0.00093915 0.01979084 0.07121361 0.02196672 0.02582999 
0.02620589 0.01529990 0.00144231 0.00256056 0.00716950 0.00209199 0.00284380 0.00840578 0.04341486 0.00282396 0.01465646 0.00094136 0.02007180 0.07285668 0.02232543 0.02449432 
0.02575675 0.01571999 0.00149557 0.00258847 0.00693961 0.00210228 0.00278860 0.00844272 0.04374936 0.00280826 0.01424147 0.00094407 0.02035251 0.07448504 0.02266874 0.02314841 
0.02528910 0.01616685 0.00155367 0.00261497 0.00670407 0.00211062 0.00274738 0.00847138 0.04402668 0.00279987 0.01383525 0.00094723 0.02063247 0.07608978 0.02299470 0.02179855 
0.02480462 0.01663914 0.00161649 0.00263991 0.00646344 0.00211703 0.00271959 0.00849164 0.04424552 0.00279910 0.01343903 0.00095080 0.02091115 0.07766212 0.02330143 0.02045100 
0.02430505 0.01713536 0.00168387 0.00266313 0.00621834 0.00212152 0.00270463 0.00850338 0.04440489 0.00280623 0.01305397 0.00095472 0.02118799 0.07919340 0.02358718 0.01911202 
0.02379216 0.01765389 0.00175565 0.00268447 0.00596942 0.00212411 0.00270189 0.00850659 0.04450408 0.00282151 0.01268117 0.00095897 0.02146237 0.08067517 0.02385028 0.01778776 
0.02326778 0.01819297 0.00183163 0.00270378 0.00571745 0.00212483 0.00271068 0.00850127 0.04454267 0.00284521 0.01232166 0.00096349 0.02173366 0.08209922 0.02408919 0.01648429 
0.02273377 0.01875070 0.00191161 0.00272094 0.00546322 0.00212373 0.00273033 0.00848750 0.04452053 0.00287753 0.01197636 0.00096825 0.02200117 0.08345763 0.02430250 0.01520751 
0.02219201 0.01932508 0.00199535 0.00273582 0.00520759 0.00212084 0.00276013 0.00846540 0.04443782 0.00291866 0.01164615 0.00097320 0.02226420 0.08474279 0.02448893 0.01396320 
0.02164439 0.01991402 0.00208262 0.00274831 0.00495147 0.00211624 0.00279935 0.00843513 0.04429501 0.00296878 0.01133179 0.00097831 0.02252201 0.08594746 0.02464732 0.01275689 
0.02109281 0.02051531 0.00217314 0.00275831 0.00469584 0.00210997 0.00284727 0.00839693 0.04409284 0.00302802 0.01103397 0.00098356 0.02277383 0.08706484 0.02477668 0.01159391 
0.02053917 0.02112670 0.00226665 0.00276573 0.00444172 0.00210212 0.00290316 0.00835107 0.04383237 0.00309648 0.01075329 0.00098891 0.02301887 0.08808853 0.02487618 0.01047933 
0.01998534 0.02174585 0.00236286 0.00277049 0.00419018 0.00209275 0.00296629 0.00829786 0.04351491 0.00317424 0.01049025 0.00099434 0.02325632 0.08901265 0.02494511 0.00941793 
0.01943320 0.02237038 0.00246145 0.00277253 0.00394231 0.00208195 0.00303596 0.00823766 0.04314208 0.00326134 0.01024526 0.00099983 0.02348536 0.08983179 0.02498295 0.00841418 
0.01888457 0.02299789 0.00256213 0.00277182 0.00369926 0.00206980 0.00311147 0.00817089 0.04271573 0.00335778 0.01001865 0.00100536 0.02370516 0.09054112 0.02498932 0.00747223 
0.01834124 0.02362592 0.00266455 0.00276831 0.00346222 0.00205639 0.00319214 0.00809799 0.04223800 0.00346353 0.00981063 0.00101092 0.02391488 0.09113633 0.02496402 0.00659588 
0.01780497 0.02425205 0.00276839 0.00276199 0.00323237 0.00204182 0.00327733 0.00801943 0.04171126 0.00357853 0.00962135 0.00101651 0.02411369 0.09161374 0.02490701 0.00578855 
0.01727744 0.02487383 0.00287330 0.00275285 0.00301096 0.00202618 0.00336642 0.00793573 0.04113812 0.00370265 0.00945083 0.00102212 0.02430076 0.09197024 0.02481840 0.00505329 
0.01676030 0.02548884 0.00297894 0.00274090 0.00279921 0.00200956 0.00345883 0.00784742 0.04052142 0.00383576 0.00929903 0.00102775 0.02447528 0.09220336 0.02469847 0.00439275 
0.01625511 0.02609470 0.00308496 0.00272617 0.00259838 0.00199208 0.00355401 0.00775508 0.03986418 0.00397767 0.00916581 0.00103341 0.02463644 0.09231127 0.02454766 0.00380915 
0.01576336 0.02668907 0.00319100 0.00270870 0.00240973 0.00197382 0.00365146 0.00765929 0.03916964 0.00412815 0.00905093 0.00103912 0.02478347 0.09229275 0.02436655 0.00330431 
0.01528645 0.02726968 0.00329671 0.00268854 0.00223450 0.00195490 0.00375072 0.00756066 0.03844118 0.00428693 0.00895408 0.00104488 0.02491565 0.09214727 0.02415590 0.00287962 
0.01482572 0.02783431 0.00340172 0.00266576 0.00207393 0.00193541 0.00385138 0.00745980 0.03768236 0.00445369 0.00887486 0.00105071 0.02503226 0.09187490 0.02391660 0.00253604 
0.01438238 0.02838084 0.00350568 0.00264044 0.00192925 0.00191546 0.00395308 0.00735735 0.03689686 0.00462809 0.00881281 0.00105664 0.02513266 0.09147640 0.02364966 0.00227411 
0.01395759 0.02890726 0.00360825 0.00261266 0.00180166 0.00189514 0.00405550 0.00725394 0.03608849 0.00480973 0.00876738 0.00106269 0.02521624 0.09095315 0.02335627 0.00209391 
0.01355236 0.02941164 0.00370907 0.00258254 0.00169233 0.00187456 0.00415838 0.00715021 0.03526114 0.00499818 0.00873793 0.00106890 0.02528246 0.09030716 0.02303770 0.00199511 
0.01316762 0.02989217 0.00380780 0.00255019 0.00160240 0.00185380 0.00426151 0.00704678 0.03441879 0.00519296 0.00872380 0.00107528 0.02533084 0.08954105 0.02269537 0.00197696 
0.01280421 0.03034718 0.00390412 0.00251573 0.00153296 0.00183297 0.00436471 0.00694429 0.03356546 0.00539357 0.00872425 0.00108189 0.02536098 0.08865807 0.02233080 0.00203830 
0.01246283 0.03077512 0.00399769 0.00247931 0.00148505 0.00181215 0.00446788 0.00684334 0.03270521 0.00559945 0.00873846 0.00108874 0.02537254 0.08766204 0.02194561 0.00217754 
0.01214409 0.03117460 0.00408821 0.00244105 0.00145965 0.00179143 0.00457095 0.00674455 0.03184211 0.00581003 0.00876561 0.00109589 0.02536527 0.08655732 0.02154151 0.00239272 
0.01184846 0.03154435 0.00417537 0.00240113 0.00145768 0.00177090 0.00467391 0.00664850 0.03098024 0.00602467 0.00880479 0.00110337 0.02533902 0.08534885 0.02112029 0.00268149 
0.01157634 0.03188329 0.00425888 0.00235969 0.00148001 0.00175063 0.00477677 0.00655573 0.03012364 0.00624274 0.00885510 0.00111121 0.02529372 0.08404204 0.02068383 0.00304114 
0.01132797 0.03219047 0.00433846 0.00231690 0.00152739 0.00173070 0.00487960 0.00646681 0.02927628 0.00646354 0.00891556 0.00111946 0.02522939 0.08264280 0.02023404 0.00346863 
0.01110351 0.03246511 0.00441386 0.00227293 0.00160053 0.00171118 0.00498251 0.00638222 0.02844209 0.00668638 0.00898521 0.00112815 0.02514616 0.08115749 0.01977290 0.00396056 
0.01090300 0.03270661 0.00448484 0.00222795 0.00170004 0.00169213 0.00508565 0.00630244 0.02762491 0.00691052 0.00906305 0.00113733 0.02504426 0.07959287 0.01930243 0.00451328 
0.01072637 0.03291452 0.00455116 0.00218214 0.00182642 0.00167361 0.00518918 0.00622793 0.02682845 0.00713520 0.00914807 0.00114702 0.02492402 0.07795608 0.01882466 0.00512280 
0.01057343 0.03308857 0.00461262 0.00213568 0.00198010 0.00165567 0.00529332 0.00615907 0.02605630 0.00735965 0.00923928 0.00115726 0.02478588 0.07625460 0.01834165 0.00578493 
0.01044390 0.03322866 0.00466903 0.00208874 0.00216139 0.00163838 0.00539828 0.00609625 0.02531193 0.00758307 0.00933566 0.00116808 0.02463040 0.07449621 0.01785548 0.00649521 
0.01033741 0.03333484 0.00472022 0.00204151 0.00237050 0.00162176 0.00550432 0.00603979 0.02459863 0.00780467 0.00943622 0.00117951 0.02445822 0.07268893 0.01736818 0.00724900 
0.01025346 0.03340735 0.00476604 0.00199416 0.00260754 0.00160586 0.00561170 0.00598996 0.02391950 0.00802364 0.00953999 0.00119158 0.02427010 0.07084103 0.01688182 0.00804148 
0.01019148 0.03344659 0.00480635 0.00194686 0.00287251 0.00159071 0.00572069 0.00594701 0.02327748 0.00823915 0.00964601 0.00120429 0.02406691 0.06896093 0.01639839 0.00886768 
0.01015080 0.03345310 0.00484106 0.00189979 0.00316526 0.00157633 0.00583157 0.00591114 0.02267529 0.00845040 0.00975336 0.00121768 0.02384961 0.06705718 0.01591988 0.00972250 
0.01013067 0.03342759 0.00487006 0.00185311 0.00348557 0.00156275 0.00594463 0.00588249 0.02211543 0.00865655 0.00986115 0.00123174 0.02361927 0.06513844 0.01544822 0.01060077 
0.01013027 0.03337091 0.00489330 0.00180699 0.00383308 0.00154999 0.00606013 0.00586117 0.02160017 0.00885682 0.00996854 0.00124649 0.02337703 0.06321340 0.01498528 0.01149725 
0.01014870 0.03328408 0.00491073 0.00176157 0.00420731 0.00153804 0.00617835 0.00584723 0.02113156 0.00905039 0.01007472 0.00126192 0.02312416 0.06129076 0.01453287 0.01240666 
0.01018498 0.03316821 0.00492232 0.00171701 0.00460766 0.00152693 0.00629953 0.00584068 0.02071137 0.00923648 0.01017894 0.00127803 0.02286197 0.05937918 0.01409273 0.01332375 
0.01023809 0.03302458 0.00492806 0.00167346 0.00503343 0.00151664 0.00642392 0.00584148 0.02034116 0.00941433 0.01028052 0.00129481 0.02259188 0.05748726 0.01366651 0.01424325 
0.01030694 0.03285457 0.00492799 0.00163103 0.00548379 0.00150717 0.00655173 0.00584956 0.02002218 0.00958319 0.01037882 0.00131224 0.02231535 0.05562346 0.01325577 0.01515998 
0.01039041 0.03265966 0.00492212 0.00158986 0.00595778 0.00149852 0.00668313 0.00586478 0.01975545 0.00974235 0.01047328 0.00133029 0.02203393 0.05379611 0.01286200 0.01606883 
0.01048731 0.03244146 0.00491053 0.00155006 0.00645434 0.00149067 0.00681828 0.00588697 0.01954171 0.00989112 0.01056339 0.00134893 0.02174920 0.05201334 0.01248656 0.01696480 
0.01059644 0.03220165 0.00489328 0.00151173 0.00697232 0.00148360 0.00695731 0.00591592 0.01938142 0.01002884 0.01064872 0.00136813 0.02146278 0.05028304 0.01213072 0.01784301 
0.01071657 0.03194200 0.00487048 0.00147498 0.00751042 0.00147729 0.00710028 0.00595138 0.01927479 0.01015492 0.01072892 0.00138785 0.02117635 0.04861286 0.01179564 0.01869877 
0.01084644 0.03166434 0.00484222 0.00143988 0.00806727 0.00147172 0.00724723 0.00599306 0.01922174 0.01026876 0.01080371 0.00140802 0.02089158 0.04701015 0.01148237 0.01952755 
0.01098478 0.03137057 0.00480866 0.00140650 0.00864139 0.00146685 0.00739816 0.00604062 0.01922192 0.01036984 0.01087288 0.00142861 0.02061018 0.04548196 0.01119182 0.02032503 
0.01113031 0.03106263 0.00476992 0.00137492 0.00923120 0.00146265 0.00755300 0.00609371 0.01927474 0.01045768 0.01093629 0.00144954 0.02033384 0.04403496 0.01092482 0.02108711 
0.01128176 0.03074251 0.00472619 0.00134519 0.00983504 0.00145909 0.00771165 0.00615194 0.01937933 0.01053186 0.01099389 0.00147074 0.02006423 0.04267549 0.01068205 0.02180994 
0.01143786 0.03041220 0.00467763 0.00131734 0.01045117 0.00145613 0.00787395 0.00621487 0.01953456 0.01059198 0.01104570 0.00149215 0.01980303 0.04140945 0.01046410 0.02248993 
0.01159734 0.03007374 0.00462443 0.00129141 0.01107776 0.00145373 0.00803969 0.00628207 0.01973906 0.01063773 0.01109181 0.00151368 0.01955186 0.04024237 0.01027142 0.02312377 
0.01175897 0.02972915 0.00456682 0.00126741 0.01171294 0.00145185 0.00820860 0.00635305 0.01999123 0.01066885 0.01113238 0.00153526 0.01931228 0.03917933 0.01010434 0.02370843 
0.01192154 0.02938042 0.00450499 0.00124536 0.01235475 0.00145045 0.00838037 0.00642734 0.02028924 0.01068512 0.01116765 0.00155678 0.01908584 0.03822497 0.00996310 0.02424119 
0.01208387 0.02902958 0.00443918 0.00122526 0.01300119 0.00144949 0.00855462 0.00650441 0.02063104 0.01068641 0.01119793 0.00157817 0.01887397 0.03738345 0.00984779 0.02471965 
0.01224482 0.02867856 0.00436964 0.00120710 0.01365022 0.00144891 0.00873092 0.00658375 0.02101435 0.01067264 0.01122356 0.00159933 0.01867803 0.03665849 0.00975842 0.02514172 
0.01240328 0.02832931 0.00429661 0.00119086 0.01429975 0.00144867 0.00890882 0.00666481 0.02143674 0.01064377 0.01124499 0.00162016 0.01849931 0.03605333 0.00969488 0.02550563 
0.01255822 0.02798369 0.00422035 0.00117651 0.01494769 0.00144873 0.00908777 0.00674707 0.02189556 0.01059987 0.01126268 0.00164055 0.01833898 0.03557070 0.00965697 0.02580994 
0.01270862 0.02764352 0.00414112 0.00116402 0.01559190 0.00144905 0.00926721 0.00682997 0.02238802 0.01054103 0.01127718 0.00166041 0.01819809 0.03521288 0.00964436 0.02605357 
0.01285355 0.02731053 0.00405920 0.00115334 0.01623026 0.00144956 0.00944652 0.00691296 0.02291116 0.01046743 0.01128905 0.00167964 0.01807758 0.03498165 0.00965667 0.02623574 
0.01299213 0.02698639 0.00397487 0.00114444 0.01686063 0.00145024 0.00962505 0.00699551 0.02346192 0.01037931 0.01129891 0.00169813 0.01797825 0.03487829 0.00969341 0.02635602 
0.01312356 0.02667269 0.00388841 0.00113724 0.01748088 0.00145104 0.00980210 0.00707706 0.02403707 0.01027695 0.01130742 0.00171577 0.01790077 0.03490361 0.00975401 0.02641428 
0.01324708 0.02637089 0.00380010 0.00113170 0.01808892 0.00145191 0.00997695 0.00715710 0.02463331 0.01016073 0.01131524 0.00173247 0.01784565 0.03505796 0.00983782 0.02641076 
0.01336205 0.02608238 0.00371025 0.00112774 0.01868267 0.00145282 0.01014883 0.00723510 0.02524726 0.01003104 0.01132309 0.00174813 0.01781326 0.03534117 0.00994414 0.02634596 
0.01346786 0.02580845 0.00361914 0.00112530 0.01926010 0.00145372 0.01031698 0.00731055 0.02587546 0.00988838 0.01133168 0.00176264 0.01780381 0.03575267 0.01007220 0.02622072 
0.01356400 0.02555024 0.00352706 0.00112431 0.01981922 0.00145457 0.01048059 0.00738297 0.02651440 0.00973328 0.01134174 0.00177591 0.01781735 0.03629138 0.01022115 0.02603618 
0.01365003 0.02530880 0.00343433 0.00112469 0.02035809 0.00145534 0.01063885 0.00745188 0.02716054 0.00956631 0.01135399 0.00178785 0.01785374 0.03695580 0.01039014 0.02579373 
0.01372562 0.02508505 0.00334122 0.00112637 0.02087486 0.00145600 0.01079094 0.00751684 0.02781034 0.00938811 0.01136916 0.00179837 0.01791271 0.03774402 0.01057823 0.02549507 
0.01379049 0.02487979 0.00324805 0.00112927 0.02136772 0.00145652 0.01093603 0.00757742 0.02846024 0.00919936 0.01138797 0.00180740 0.01799381 0.03865367 0.01078448 0.02514212 
0.01384446 0.02469368 0.00315510 0.00113331 0.02183498 0.00145685 0.01107333 0.00763323 0.02910672 0.00900079 0.01141111 0.00181484 0.01809640 0.03968202 0.01100790 0.02473708 
0.01388743 0.02452727 0.00306268 0.00113842 0.02227500 0.00145699 0.01120201 0.00768390 0.02974630 0.00879317 0.01143926 0.00182063 0.01821971 0.04082592 0.01124748 0.02428233 
0.01391939 0.02438094 0.00297107 0.00114453 0.02268627 0.00145691 0.01132129 0.00772910 0.03037555 0.00857729 0.01147307 0.00182471 0.01836277 0.04208186 0.01150221 0.02378050 
0.01394040 0.02425498 0.00288057 0.00115156 0.02306737 0.00145658 0.01143040 0.00776851 0.03099113 0.00835400 0.01151315 0.00182701 0.01852448 0.04344599 0.01177105 0.02323438 
0.01395063 0.02414952 0.00279148 0.00115945 0.02341697 0.00145599 0.01152861 0.00780187 0.03158975 0.00812416 0.01156008 0.00182750 0.01870357 0.04491411 0.01205297 0.02264695 
0.01395031 0.02406457 0.00270407 0.00116813 0.02373390 0.00145512 0.01161522 0.00782893 0.03216829 0.00788866 0.01161437 0.00182611 0.01889863 0.04648168 0.01234693 0.02202132 
0.01393975 0.02400000 0.00261862 0.00117754 0.02401707 0.00145397 0.01168956 0.00784949 0.03272370 0.00764842 0.01167652 0.00182283 0.01910811 0.04814388 0.01265189 0.02136076 
0.01391935 0.02395558 0.00253543 0.00118762 0.02426554 0.00145253 0.01175103 0.00786339 0.03325309 0.00740435 0.01174693 0.00181763 0.01933030 0.04989561 0.01296683 0.02066864 
0.01388958 0.02393093 0.00245475 0.00119833 0.02447849 0.00145078 0.01179906 0.00787049 0.03375372 0.00715740 0.01182598 0.00181048 0.01956341 0.05173149 0.01329075 0.01994840 
0.01385098 0.02392554 0.00237687 0.00120962 0.02465523 0.00144873 0.01183316 0.00787070 0.03422303 0.00690851 0.01191396 0.00180140 0.01980551 0.05364587 0.01362264 0.01920360 
0.01380416 0.02393882 0.00230205 0.00122144 0.02479522 0.00144638 0.01185289 0.00786397 0.03465860 0.00665862 0.01201113 0.00179036 0.02005458 0.05563292 0.01396154 0.01843781 
0.01374981 0.02397004 0.00223054 0.00123377 0.02489804 0.00144374 0.01185787 0.00785028 0.03505823 0.00640869 0.01211765 0.00177740 0.02030850 0.05768656 0.01430648 0.01765468 
0.01368866 0.02401838 0.00216260 0.00124657 0.02496343 0.00144081 0.01184781 0.00782964 0.03541991 0.00615966 0.01223362 0.00176253 0.02056508 0.05980051 0.01465655 0.01685782 
0.01362151 0.02408290 0.00209847 0.00125983 0.02499125 0.00143760 0.01182250 0.00780210 0.03574185 0.00591244 0.01235908 0.00174578 0.02082209 0.06196834 0.01501084 0.01605089 
0.01354921 0.02416259 0.00203840 0.00127354 0.02498151 0.00143412 0.01178178 0.00776776 0.03602247 0.00566796 0.01249399 0.00172720 0.02107721 0.06418343 0.01536847 0.01523751 
0.01347267 0.02425635 0.00198262 0.00128767 0.02493435 0.00143040 0.01172560 0.00772674 0.03626040 0.00542710 0.01263825 0.00170684 0.02132812 0.06643906 0.01572859 0.01442126 
0.01339283 0.02436299 0.00193135 0.00130225 0.02485006 0.00142645 0.01165398 0.00767919 0.03645453 0.00519074 0.01279167 0.00168475 0.02157248 0.06872834 0.01609039 0.01360566 
0.01331067 0.02448126 0.00188481 0.00131725 0.02472907 0.00142229 0.01156704 0.00762530 0.03660398 0.00495970 0.01295402 0.00166102 0.02180793 0.07104430 0.01645306 0.01279419 
0.01322721 0.02460984 0.00184321 0.00133271 0.02457192 0.00141794 0.01146497 0.00756530 0.03670809 0.00473481 0.01312497 0.00163571 0.02203216 0.07337989 0.01681585 0.01199022 
0.01314349 0.02474736 0.00180673 0.00134864 0.02437930 0.00141344 0.01134805 0.00749943 0.03676648 0.00451684 0.01330416 0.00160892 0.02224285 0.07572797 0.01717801 0.01119703 
0.01306057 0.02489243 0.00177558 0.00136505 0.02415203 0.00140880 0.01121667 0.00742797 0.03677898 0.00430652 0.01349113 0.00158074 0.02243776 0.07808135 0.01753883 0.01041781 
0.01297953 0.02504357 0.00174992 0.00138198 0.02389102 0.00140406 0.01107128 0.00735122 0.03674569 0.00410454 0.01368540 0.00155128 0.02261471 0.08043281 0.01789761 0.00965560 
0.01290146 0.02519934 0.00172992 0.00139945 0.02359734 0.00139925 0.01091243 0.00726951 0.03666694 0.00391155 0.01388640 0.00152065 0.02277157 0.08277513 0.01825369 0.00891333 
0.01282745 0.02535823 0.00171573 0.00141751 0.02327215 0.00139440 0.01074076 0.00718318 0.03654332 0.00372816 0.01409353 0.00148897 0.02290635 0.08510108 0.01860641 0.00819379 
0.01275857 0.02551877 0.00170750 0.00143620 0.02291670 0.00138955 0.01055696 0.00709260 0.03637565 0.00355490 0.01430614 0.00145636 0.02301714 0.08740343 0.01895515 0.00749962 
0.01269592 0.02567945 0.00170534 0.00145555 0.02253236 0.00138472 0.01036185 0.00699816 0.03616497 0.00339229 0.01452352 0.00142297 0.02310216 0.08967503 0.01929929 0.00683328 
0.01264053 0.02583881 0.00170938 0.00147562 0.02212059 0.00137996 0.01015627 0.00690026 0.03591259 0.00324077 0.01474496 0.00138892 0.02315978 0.09190876 0.01963824 0.00619711 
0.01259345 0.02599541 0.00171970 0.00149644 0.02168293 0.00137530 0.00994117 0.00679931 0.03562001 0.00310072 0.01496968 0.00135435 0.02318851 0.09409760 0.01997140 0.00559326 
0.01255568 0.02614782 0.00173639 0.00151808 0.02122099 0.00137078 0.00971755 0.00669574 0.03528894 0.00297247 0.01519690 0.00131942 0.02318703 0.09623462 0.02029821 0.00502370 
0.01252819 0.02629468 0.00175952 0.00154057 0.02073647 0.00136644 0.00948647 0.00658998 0.03492133 0.00285631 0.01542582 0.00128428 0.02315420 0.09831300 0.02061809 0.00449025 
0.01251191 0.02643468 0.00178913 0.00156396 0.02023112 0.00136230 0.00924905 0.00648246 0.03451930 0.00275245 0.01565561 0.00124907 0.02308907 0.10032608 0.02093049 0.00399454 
0.01250771 0.02656657 0.00182525 0.00158831 0.01970673 0.00135841 0.00900645 0.00637364 0.03408516 0.00266104 0.01588546 0.00121395 0.02299088 0.10226737 0.02123485 0.00353802 
0.01251642 0.02668917 0.00186790 0.00161365 0.01916516 0.00135481 0.00875988 0.00626395 0.03362141 0.00258218 0.01611452 0.00117908 0.02285908 0.10413053 0.02153064 0.00312196 
0.01253881 0.02680140 0.00191706 0.00164002 0.01860829 0.00135153 0.00851059 0.00615384 0.03313068 0.00251592 0.01634200 0.00114461 0.02269331 0.10590946 0.02181729 0.00274748 
0.01257558 0.02690225 0.00197272 0.00166748 0.01803804 0.00134860 0.00825984 0.00604375 0.03261578 0.00246223 0.01656708 0.00111070 0.02249346 0.10759828 0.02209428 0.00241549 
0.01262736 0.02699082 0.00203482 0.00169605 0.01745633 0.00134605 0.00800892 0.00593413 0.03207963 0.00242105 0.01678896 0.00107750 0.02225962 0.10919135 0.02236106 0.00212674 
0.01269471 0.02706633 0.00210330 0.00172576 0.01686512 0.00134393 0.00775915 0.00582539 0.03152529 0.00239224 0.01700690 0.00104518 0.02199212 0.11068334 0.02261711 0.00188182 
0.01277812 0.02712810 0.00217808 0.00175663 0.01626636 0.00134225 0.00751182 0.00571796 0.03095590 0.00237561 0.01722015 0.00101386 0.02169151 0.11206918 0.02286190 0.00168113 
0.01287797 0.02717558 0.00225904 0.00178870 0.01566198 0.00134106 0.00726824 0.00561226 0.03037472 0.00237093 0.01742802 0.00098372 0.02135856 0.11334414 0.02309489 0.00152492 
0.01299459 0.02720836 0.00234606 0.00182196 0.01505392 0.00134037 0.00702971 0.00550867 0.02978504 0.00237792 0.01762986 0.00095488 0.02099426 0.11450384 0.02331557 0.00141328 
0.01312820 0.02722614 0.00243899 0.00185643 0.01444410 0.00134022 0.00679751 0.00540759 0.02919024 0.00239622 0.01782505 0.00092749 0.02059985 0.11554426 0.02352343 0.00134614 
0.01327893 0.02722880 0.00253765 0.00189211 0.01383440 0.00134062 0.00657287 0.00530939 0.02859372 0.00242547 0.01801304 0.00090168 0.02017675 0.11646178 0.02371796 0.00132327 
0.01344682 0.02721634 0.00264187 0.00192898 0.01322667 0.00134161 0.00635701 0.00521441 0.02799892 0.00246523 0.01819332 0.00087758 0.01972664 0.11725318 0.02389867 0.00134433 
0.01363182 0.02718891 0.00275143 0.00196704 0.01262273 0.00134320 0.00615112 0.00512300 0.02740925 0.00251503 0.01836545 0.00085530 0.01925135 0.11791568 0.02406509 0.00140879 
0.01383378 0.02714683 0.00286609 0.00200625 0.01202433 0.00134540 0.00595629 0.00503547 0.02682814 0.00257437 0.01852904 0.00083497 0.01875295 0.11844696 0.02421675 0.00151603 
0.01405244 0.02709058 0.00298562 0.00204659 0.01143318 0.00134825 0.00577361 0.00495211 0.02625897 0.00264272 0.01868378 0.00081668 0.01823368 0.11884517 0.02435321 0.00166527 
0.01428747 0.02702077 0.00310973 0.00208801 0.01085094 0.00135174 0.00560408 0.00487321 0.02570510 0.00271949 0.01882942 0.00080054 0.01769596 0.11910894 0.02447404 0.00185562 
0.01453842 0.02693820 0.00323815 0.00213046 0.01027919 0.00135590 0.00544862 0.00479901 0.02516978 0.00280408 0.01896576 0.00078663 0.01714236 0.11923743 0.02457887 0.00208609 
0.01480476 0.02684382 0.00337058 0.00217390 0.00971945 0.00136074 0.00530809 0.00472975 0.02465623 0.00289589 0.01909270 0.00077503 0.01657562 0.11923030 0.02466733 0.00235555 
0.01508586 0.02673873 0.00350669 0.00221824 0.00917317 0.00136625 0.00518327 0.00466563 0.02416755 0.00299425 0.01921019 0.00076581 0.01599860 0.11908777 0.02473909 0.00266277 
0.01538099 0.02662420 0.00364616 0.00226343 0.00864170 0.00137246 0.00507484 0.00460684 0.02370672 0.00309851 0.01931826 0.00075903 0.01541428 0.11881059 0.02479386 0.00300644 
0.01568935 0.02650164 0.00378864 0.00230938 0.00812635 0.00137936 0.00498340 0.00455355 0.02327662 0.00320800 0.01941698 0.00075474 0.01482576 0.11840008 0.02483140 0.00338514 
0.01601003 0.02637262 0.00393377 0.00235600 0.00762831 0.00138696 0.00490947 0.00450590 0.02287998 0.00332202 0.01950654 0.00075298 0.01423620 0.11785810 0.02485151 0.00379736 
0.01634206 0.02623886 0.00408118 0.00240320 0.00714871 0.00139526 0.00485343 0.00446400 0.02251937 0.00343989 0.01958715 0.00075378 0.01364886 0.11718710 0.02485404 0.00424152 
0.01668439 0.02610220 0.00423051 0.00245089 0.00668857 0.00140426 0.00481560 0.00442794 0.02219720 0.00356093 0.01965910 0.00075714 0.01306701 0.11639009 0.02483890 0.00471596 
0.01703587 0.02596462 0.00438136 0.00249895 0.00624884 0.00141395 0.00479618 0.00439781 0.02191571 0.00368443 0.01972275 0.00076309 0.01249399 0.11547065 0.02480606 0.00521893 
0.01739531 0.02582824 0.00453336 0.00254728 0.00583038 0.00142435 0.00479527 0.00437364 0.02167695 0.00380971 0.01977850 0.00077161 0.01193312 0.11443291 0.02475553 0.00574864 
0.01776145 0.02569528 0.00468612 0.00259577 0.00543395 0.00143544 0.00481287 0.00435547 0.02148276 0.00393610 0.01982681 0.00078270 0.01138772 0.11328157 0.02468741 0.00630321 
0.01813296 0.02556806 0.00483924 0.00264429 0.00506022 0.00144722 0.00484886 0.00434331 0.02133479 0.00406294 0.01986820 0.00079632 0.01086109 0.11202186 0.02460186 0.00688073 
0.01850848 0.02544900 0.00499233 0.00269273 0.00470978 0.00145968 0.00490304 0.00433714 0.02123447 0.00418958 0.01990322 0.00081244 0.01035648 0.11065955 0.02449910 0.00747922 
0.01888659 0.02534061 0.00514502 0.00274097 0.00438312 0.00147282 0.00497509 0.00433692 0.02118300 0.00431540 0.01993247 0.00083101 0.00987705 0.10920092 0.02437944 0.00809665 
0.01926583 0.02524547 0.00529692 0.00278889 0.00408065 0.00148663 0.00506459 0.00434261 0.02118138 0.00443979 0.01995658 0.00085197 0.00942591 0.10765274 0.02424325 0.00873096 
0.01964472 0.02516619 0.00544765 0.00283636 0.00380270 0.00150112 0.00517104 0.00435414 0.02123034 0.00456217 0.01997620 0.00087527 0.00900601 0.10602225 0.02409098 0.00938005 
0.02002176 0.02510545 0.00559686 0.00288327 0.00354949 0.00151626 0.00529383 0.00437142 0.02133042 0.00468200 0.01999203 0.00090082 0.00862023 0.10431712 0.02392316 0.01004177 
0.02039542 0.02506594 0.00574420 0.00292949 0.00332118 0.00153206 0.00543226 0.00439435 0.02148188 0.00479876 0.02000476 0.00092853 0.00827128 0.10254544 0.02374039 0.01071396 
0.02076417 0.02505037 0.00588932 0.00297492 0.00311785 0.00154851 0.00558554 0.00442281 0.02168476 0.00491196 0.02001511 0.00095833 0.00796169 0.10071569 0.02354334 0.01139443 
0.02112649 0.02506144 0.00603190 0.00301944 0.00293949 0.00156561 0.00575283 0.00445667 0.02193888 0.00502117 0.02002379 0.00099010 0.00769384 0.09883668 0.02333277 0.01208096 
0.02148084 0.02510182 0.00617163 0.00306294 0.00278602 0.00158334 0.00593318 0.00449578 0.02224379 0.00512598 0.02003152 0.00102374 0.00746991 0.09691751 0.02310950 0.01277133 
0.02182573 0.02517414 0.00630823 0.00310533 0.00265729 0.00160172 0.00612558 0.00453999 0.02259884 0.00522601 0.02003901 0.00105913 0.00729186 0.09496756 0.02287442 0.01346329 
0.02215968 0.02528099 0.00644144 0.00314650 0.00255308 0.00162072 0.00632897 0.00458914 0.02300311 0.00532095 0.02004695 0.00109615 0.00716144 0.09299644 0.02262850 0.01415462 
0.02248123 0.02542486 0.00657099 0.00318637 0.00247311 0.00164036 0.00654223 0.00464305 0.02345548 0.00541052 0.02005604 0.00113468 0.00708015 0.09101390 0.02237277 0.01484306 
0.02278897 0.02560815 0.00669668 0.00322486 0.00241702 0.00166063 0.00676417 0.00470153 0.02395461 0.00549447 0.02006692 0.00117459 0.00704927 0.08902984 0.02210831 0.01552638 
0.02308154 0.02583315 0.00681830 0.00326189 0.00238442 0.00168153 0.00699359 0.00476439 0.02449893 0.00557264 0.02008022 0.00121573 0.00706980 0.08705424 0.02183628 0.01620236 
0.02335763 0.02610203 0.00693569 0.00329740 0.00237483 0.00170306 0.00722925 0.00483144 0.02508667 0.00564486 0.02009653 0.00125798 0.00714249 0.08509708 0.02155787 0.01686879 
0.02361599 0.02641677 0.00704868 0.00333134 0.00238775 0.00172522 0.00746986 0.00490247 0.02571588 0.00571105 0.02011639 0.00130118 0.00726780 0.08316833 0.02127432 0.01752348 
0.02385544 0.02677923 0.00715717 0.00336366 0.00242262 0.00174802 0.00771414 0.00497727 0.02638438 0.00577116 0.02014033 0.00134520 0.00744594 0.08127790 0.02098693 0.01816429 
0.02407487 0.02719106 0.00726105 0.00339433 0.00247882 0.00177146 0.00796078 0.00505565 0.02708985 0.00582519 0.02016879 0.00138990 0.00767682 0.07943554 0.02069701 0.01878910 
0.02427326 0.02765371 0.00736027 0.00342332 0.00255571 0.00179555 0.00820850 0.00513738 0.02782978 0.00587319 0.02020218 0.00143512 0.00796007 0.07765085 0.02040590 0.01939583 
0.02444966 0.02816841 0.00745478 0.00345062 0.00265261 0.00182028 0.00845600 0.00522225 0.02860153 0.00591526 0.02024085 0.00148072 0.00829506 0.07593316 0.02011498 0.01998245 
0.02460323 0.02873616 0.00754457 0.00347623 0.00276879 0.00184568 0.00870199 0.00531005 0.02940228 0.00595152 0.02028510 0.00152657 0.00868084 0.07429156 0.01982564 0.02054700 
0.02473322 0.02935772 0.00762965 0.00350016 0.00290350 0.00187174 0.00894522 0.00540058 0.03022912 0.00598217 0.02033516 0.00157252 0.00911622 0.07273476 0.01953926 0.02108757 
0.02483897 0.03003357 0.00771006 0.00352242 0.00305597 0.00189847 0.00918447 0.00549361 0.03107900 0.00600744 0.02039121 0.00161843 0.00959971 0.07127112 0.01925722 0.02160232 
0.02491994 0.03076393 0.00778586 0.00354305 0.00322538 0.00192589 0.00941854 0.00558895 0.03194879 0.00602759 0.02045334 0.00166416 0.01012955 0.06990856 0.01898092 0.02208951 
0.02497569 0.03154874 0.00785715 0.00356208 0.00341092 0.00195399 0.00964629 0.00568639 0.03283525 0.00604294 0.02052160 0.00170959 0.01070375 0.06865454 0.01871171 0.02254746 
0.02500588 0.03238762 0.00792404 0.00357957 0.00361172 0.00198279 0.00986663 0.00578572 0.03373509 0.00605382 0.02059597 0.00175459 0.01132003 0.06751597 0.01845094 0.02297459 
0.02501030 0.03327993 0.00798665 0.00359558 0.00382694 0.00201230 0.01007852 0.00588675 0.03464496 0.00606063 0.02067637 0.00179904 0.01197589 0.06649924 0.01819991 0.02336943 
0.02498884 0.03422468 0.00804514 0.00361018 0.00405569 0.00204251 0.01028099 0.00598930 0.03556147 0.00606378 0.02076265 0.00184281 0.01266861 0.06561012 0.01795990 0.02373060 
0.02494152 0.03522060 0.00809967 0.00362344 0.00429707 0.00207344 0.01047313 0.00609317 0.03648121 0.00606371 0.02085459 0.00188581 0.01339523 0.06485379 0.01773212 0.02405686 
0.02486847 0.03626607 0.00815044 0.00363545 0.00455020 0.00210509 0.01065410 0.00619819 0.03740076 0.00606090 0.02095193 0.00192793 0.01415262 0.06423474 0.01751774 0.02434707 
0.02476992 0.03735918 0.00819763 0.00364630 0.00481416 0.00213746 0.01082317 0.00630417 0.03831672 0.00605585 0.02105434 0.00196906 0.01493744 0.06375680 0.01731787 0.02460022 
0.02464623 0.03849769 0.00824147 0.00365610 0.00508803 0.00217055 0.01097964 0.00641096 0.03922570 0.00604907 0.02116143 0.00200913 0.01574620 0.06342309 0.01713356 0.02481546 
0.02449787 0.03967906 0.00828216 0.00366496 0.00537091 0.00220437 0.01112293 0.00651840 0.04012438 0.00604111 0.02127277 0.00204805 0.01657526 0.06323600 0.01696576 0.02499204 
0.02432542 0.04090041 0.00831995 0.00367297 0.00566187 0.00223890 0.01125254 0.00662632 0.04100947 0.00603252 0.02138787 0.00208575 0.01742084 0.06319719 0.01681538 0.02512939 
0.02412956 0.04215859 0.00835505 0.00368026 0.00595999 0.00227413 0.01136806 0.00673458 0.04187776 0.00602385 0.02150620 0.00212217 0.01827908 0.06330760 0.01668320 0.02522709 
0.02391110 0.04345014 0.00838770 0.00368694 0.00626435 0.00231007 0.01146915 0.00684305 0.04272614 0.00601569 0.02162720 0.00215724 0.01914600 0.06356739 0.01656994 0.02528486 
0.02367091 0.04477132 0.00841815 0.00369313 0.00657403 0.00234669 0.01155560 0.00695158 0.04355160 0.00600860 0.02175026 0.00219092 0.02001759 0.06397597 0.01647623 0.02530259 
0.02341000 0.04611812 0.00844661 0.00369896 0.00688813 0.00238397 0.01162725 0.00706006 0.04435123 0.00600316 0.02187473 0.00222317 0.02088975 0.06453201 0.01640259 0.02528034 
0.02312945 0.04748626 0.00847331 0.00370454 0.00720573 0.00242189 0.01168405 0.00716835 0.04512226 0.00599994 0.02199995 0.00225396 0.02175841 0.06523344 0.01634943 0.02521832 
0.02283042 0.04887124 0.00849848 0.00371000 0.00752594 0.00246042 0.01172605 0.00727635 0.04586208 0.00599950 0.02212524 0.00228326 0.02261947 0.06607747 0.01631708 0.02511694 
0.02251417 0.05026833 0.00852232 0.00371545 0.00784786 0.00249953 0.01175335 0.00738395 0.04656821 0.00600240 0.02224988 0.00231107 0.02346886 0.06706058 0.01630574 0.02497675 
0.02218202 0.05167259 0.00854502 0.00372101 0.00817061 0.00253918 0.01176619 0.00749105 0.04723834 0.00600917 0.02237317 0.00233737 0.02430257 0.06817856 0.01631553 0.02479849 
0.02183538 0.05307893 0.00856679 0.00372678 0.00849332 0.00257933 0.01176483 0.00759754 0.04787035 0.00602033 0.02249438 0.00236217 0.02511664 0.06942655 0.01634644 0.02458305 
0.02147569 0.05448207 0.00858777 0.00373288 0.00881513 0.00261993 0.01174967 0.00770334 0.04846230 0.00603638 0.02261279 0.00238547 0.02590722 0.07079904 0.01639836 0.02433153 
0.02110448 0.05587661 0.00860813 0.00373940 0.00913518 0.00266091 0.01172114 0.00780835 0.04901244 0.00605778 0.02272768 0.00240729 0.02667056 0.07228990 0.01647108 0.02404516 
0.02072331 0.05725706 0.00862800 0.00374643 0.00945265 0.00270223 0.01167976 0.00791249 0.04951921 0.00608499 0.02283834 0.00242765 0.02740305 0.07389245 0.01656428 0.02372534 
0.02033377 0.05861785 0.00864748 0.00375407 0.00976672 0.00274381 0.01162611 0.00801569 0.04998128 0.00611840 0.02294407 0.00244658 0.02810124 0.07559945 0.01667752 0.02337365 
0.01993750 0.05995335 0.00866666 0.00376239 0.01007658 0.00278559 0.01156084 0.00811785 0.05039751 0.00615838 0.02304420 0.00246411 0.02876184 0.07740319 0.01681029 0.02299182 
0.01953616 0.06125791 0.00868562 0.00377145 0.01038144 0.00282747 0.01148465 0.00821891 0.05076701 0.00620528 0.02313806 0.00248030 0.02938176 0.07929548 0.01696196 0.02258172 
0.01913142 0.06252593 0.00870440 0.00378131 0.01068055 0.00286937 0.01139830 0.00831878 0.05108906 0.00625939 0.02322503 0.00249516 0.02995812 0.08126775 0.01713181 0.02214538 
0.01872496 0.06375181 0.00872301 0.00379202 0.01097316 0.00291121 0.01130256 0.00841740 0.05136321 0.00632095 0.02330452 0.00250877 0.03048828 0.08331107 0.01731903 0.02168494 
0.01831847 0.06493005 0.00874145 0.00380363 0.01125855 0.00295289 0.01119829 0.00851468 0.05158920 0.00639017 0.02337596 0.00252117 0.03096980 0.08541618 0.01752272 0.02120270 
0.01791362 0.06605526 0.00875969 0.00381614 0.01153600 0.00299429 0.01108635 0.00861055 0.05176700 0.00646720 0.02343882 0.00253241 0.03140054 0.08757358 0.01774191 0.02070107 
0.01751206 0.06712218 0.00877768 0.00382958 0.01180486 0.00303531 0.01096763 0.00870494 0.05189679 0.00655215 0.02349263 0.00254256 0.03177860 0.08977357 0.01797556 0.02018256 
0.01711543 0.06812572 0.00879534 0.00384394 0.01206446 0.00307584 0.01084304 0.00879776 0.05197900 0.00664508 0.02353695 0.00255167 0.03210235 0.09200628 0.01822253 0.01964979 
0.01672533 0.06906101 0.00881257 0.00385922 0.01231418 0.00311576 0.01071351 0.00888893 0.05201422 0.00674597 0.02357137 0.00255980 0.03237047 0.09426175 0.01848166 0.01910545 
0.01634332 0.06992340 0.00882924 0.00387539 0.01255343 0.00315494 0.01057997 0.00897838 0.05200329 0.00685479 0.02359557 0.00256703 0.03258191 0.09652997 0.01875170 0.01855234 
0.01597091 0.07070851 0.00884521 0.00389242 0.01278164 0.00319326 0.01044336 0.00906601 0.05194722 0.00697142 0.02360923 0.00257340 0.03273592 0.09880093 0.01903137 0.01799328 
0.01560956 0.07141225 0.00886031 0.00391026 0.01299827 0.00323057 0.01030460 0.00915173 0.05184723 0.00709571 0.02361212 0.00257899 0.03283206 0.10106469 0.01931936 0.01743118 
0.01526067 0.07203086 0.00887437 0.00392885 0.01320283 0.00326676 0.01016461 0.00923544 0.05170472 0.00722743 0.02360404 0.00258385 0.03287018 0.10331142 0.01961430 0.01686897 
0.01492555 0.07256092 0.00888718 0.00394812 0.01339485 0.00330167 0.01002429 0.00931705 0.05152127 0.00736632 0.02358485 0.00258804 0.03285044 0.10553143 0.01991481 0.01630960 
0.01460548 0.07299938 0.00889852 0.00396799 0.01357389 0.00333518 0.00988453 0.00939646 0.05129859 0.00751205 0.02355446 0.00259162 0.03277330 0.10771525 0.02021949 0.01575603 
0.01430161 0.07334360 0.00890817 0.00398835 0.01373956 0.00336713 0.00974616 0.00947354 0.05103859 0.00766424 0.02351283 0.00259465 0.03263951 0.10985368 0.02052694 0.01521122 
0.01401503 0.07359136 0.00891588 0.00400912 0.01389150 0.00339738 0.00961001 0.00954820 0.05074330 0.00782248 0.02345997 0.00259717 0.03245012 0.11193780 0.02083576 0.01467811 
0.01374674 0.07374086 0.00892142 0.00403018 0.01402938 0.00342580 0.00947686 0.00962030 0.05041486 0.00798627 0.02339595 0.00259924 0.03220645 0.11395904 0.02114453 0.01415959 
0.01349764 0.07379077 0.00892452 0.00405139 0.01415293 0.00345225 0.00934745 0.00968972 0.05005555 0.00815509 0.02332086 0.00260089 0.03191011 0.11590922 0.02145189 0.01365854 
0.01326852 0.07374023 0.00892493 0.00407265 0.01426191 0.00347658 0.00922247 0.00975634 0.04966774 0.00832837 0.02323488 0.00260218 0.03156297 0.11778058 0.02175646 0.01317773 
0.01306009 0.07358885 0.00892238 0.00409380 0.01435612 0.00349865 0.00910256 0.00982002 0.04925389 0.00850550 0.02313820 0.00260314 0.03116715 0.11956584 0.02205691 0.01271989 
0.01287292 0.07333674 0.00891663 0.00411470 0.01443541 0.00351833 0.00898832 0.00988062 0.04881652 0.00868582 0.02303107 0.00260380 0.03072502 0.12125817 0.02235196 0.01228764 
0.01270750 0.07298452 0.00890743 0.00413520 0.01449965 0.00353550 0.00888029 0.00993799 0.04835821 0.00886863 0.02291377 0.00260418 0.03023917 0.12285131 0.02264037 0.01188349 
0.01256419 0.07253331 0.00889452 0.00415515 0.01454878 0.00355002 0.00877895 0.00999199 0.04788159 0.00905320 0.02278663 0.00260432 0.02971239 0.12433953 0.02292094 0.01150985 
0.01244325 0.07198472 0.00887766 0.00417440 0.01458277 0.00356177 0.00868472 0.01004248 0.04738932 0.00923879 0.02265002 0.00260422 0.02914768 0.12571766 0.02319254 0.01116899 
0.01234481 0.07134089 0.00885665 0.00419278 0.01460165 0.00357065 0.00859796 0.01008930 0.04688404 0.00942459 0.02250432 0.00260390 0.02854821 0.12698115 0.02345410 0.01086304 
0.01226890 0.07060444 0.00883127 0.00421013 0.01460546 0.00357653 0.00851898 0.01013229 0.04636842 0.00960981 0.02234997 0.00260337 0.02791729 0.12812605 0.02370464 0.01059397 
0.01221543 0.06977849 0.00880133 0.00422629 0.01459432 0.00357934 0.00844801 0.01017131 0.04584510 0.00979362 0.02218742 0.00260263 0.02725840 0.12914903 0.02394325 0.01036359 
0.01218420 0.06886665 0.00876666 0.00424110 0.01456836 0.00357897 0.00838525 0.01020621 0.04531668 0.00997517 0.02201715 0.00260168 0.02657510 0.13004742 0.02416909 0.01017354 
0.01217489 0.06787299 0.00872711 0.00425440 0.01452779 0.00357535 0.00833079 0.01023683 0.04478571 0.01015363 0.02183966 0.00260051 0.02587108 0.13081917 0.02438142 0.01002526 
0.01218706 0.06680205 0.00868255 0.00426604 0.01447284 0.00356840 0.00828471 0.01026302 0.04425469 0.01032812 0.02165549 0.00259910 0.02515007 0.13146291 0.02457960 0.00992003 
0.01222018 0.06565880 0.00863289 0.00427587 0.01440376 0.00355808 0.00824700 0.01028465 0.04372604 0.01049780 0.02146517 0.00259746 0.02441588 0.13197788 0.02476307 0.00985889 
0.01227362 0.06444862 0.00857806 0.00428374 0.01432089 0.00354432 0.00821760 0.01030158 0.04320210 0.01066182 0.02126927 0.00259554 0.02367234 0.13236400 0.02493139 0.00984270 
0.01234661 0.06317729 0.00851801 0.00428953 0.01422458 0.00352709 0.00819639 0.01031367 0.04268509 0.01081933 0.02106834 0.00259334 0.02292329 0.13262182 0.02508421 0.00987211 
0.01243832 0.06185094 0.00845273 0.00429309 0.01411521 0.00350637 0.00818320 0.01032081 0.04217716 0.01096951 0.02086298 0.00259082 0.02217256 0.13275254 0.02522127 0.00994754 
0.01254780 0.06047607 0.00838224 0.00429430 0.01399320 0.00348216 0.00817782 0.01032288 0.04168030 0.01111156 0.02065378 0.00258796 0.02142394 0.13275798 0.02534244 0.01006921 
0.01267403 0.05905945 0.00830660 0.00429307 0.01385904 0.00345445 0.00817997 0.01031978 0.04119640 0.01124470 0.02044132 0.00258472 0.02068119 0.13264054 0.02544769 0.01023710 
0.01281589 0.05760815 0.00822590 0.00428927 0.01371320 0.00342327 0.00818933 0.01031143 0.04072720 0.01136816 0.02022621 0.00258107 0.01994797 0.13240326 0.02553710 0.01045100 
0.01297218 0.05612945 0.00814024 0.00428284 0.01355621 0.00338865 0.00820555 0.01029774 0.04027431 0.01148125 0.02000905 0.00257697 0.01922785 0.13204972 0.02561083 0.01071043 
0.01314164 0.05463087 0.00804979 0.00427368 0.01338863 0.00335063 0.00822822 0.01027867 0.03983918 0.01158327 0.01979044 0.00257239 0.01852430 0.13158408 0.02566919 0.01101473 
0.01332293 0.05312006 0.00795473 0.00426174 0.01321104 0.00330928 0.00825692 0.01025416 0.03942312 0.01167360 0.01957097 0.00256728 0.01784066 0.13101099 0.02571256 0.01136301 
0.01351466 0.05160480 0.00785528 0.00424696 0.01302405 0.00326467 0.00829117 0.01022421 0.03902727 0.01175164 0.01935125 0.00256162 0.01718011 0.13033565 0.02574142 0.01175417 
0.01371537 0.05009297 0.00775170 0.00422931 0.01282829 0.00321689 0.00833048 0.01018881 0.03865261 0.01181687 0.01913187 0.00255536 0.01654567 0.12956370 0.02575639 0.01218689 
0.01392358 0.04859249 0.00764426 0.00420876 0.01262440 0.00316606 0.00837433 0.01014797 0.03829998 0.01186880 0.01891342 0.00254846 0.01594020 0.12870123 0.02575813 0.01265965 
0.01413776 0.04711125 0.00753329 0.00418531 0.01241305 0.00311229 0.00842218 0.01010175 0.03797003 0.01190702 0.01869647 0.00254089 0.01536635 0.12775474 0.02574743 0.01317074 
0.01435633 0.04565713 0.00741912 0.00415897 0.01219493 0.00305572 0.00847347 0.01005021 0.03766328 0.01193118 0.01848159 0.00253261 0.01482657 0.12673111 0.02572515 0.01371824 
0.01457773 0.04423792 0.00730213 0.00412976 0.01197072 0.00299650 0.00852763 0.00999343 0.03738008 0.01194097 0.01826935 0.00252360 0.01432309 0.12563757 0.02569223 0.01430007 
0.01480034 0.04286128 0.00718271 0.00409772 0.01174114 0.00293479 0.00858407 0.00993155 0.03712060 0.01193618 0.01806031 0.00251382 0.01385793 0.12448165 0.02564971 0.01491397 
0.01502257 0.04153468 0.00706128 0.00406290 0.01150689 0.00287077 0.00864222 0.00986469 0.03688491 0.01191666 0.01785500 0.00250325 0.01343287 0.12327112 0.02559867 0.01555750 
0.01524281 0.04026542 0.00693828 0.00402537 0.01126869 0.00280463 0.00870149 0.00979304 0.03667290 0.01188234 0.01765396 0.00249185 0.01304945 0.12201403 0.02554027 0.01622811 
0.01545948 0.03906051 0.00681417 0.00398521 0.01102726 0.00273657 0.00876129 0.00971680 0.03648431 0.01183320 0.01745770 0.00247962 0.01270897 0.12071858 0.02547572 0.01692306 
0.01567100 0.03792669 0.00668943 0.00394253 0.01078333 0.00266680 0.00882105 0.00963619 0.03631878 0.01176933 0.01726674 0.00246653 0.01241248 0.11939313 0.02540628 0.01763952 
0.01587583 0.03687036 0.00656454 0.00389744 0.01053759 0.00259555 0.00888020 0.00955147 0.03617581 0.01169087 0.01708157 0.00245257 0.01216077 0.11804615 0.02533326 0.01837454 
0.01607248 0.03589756 0.00644001 0.00385005 0.01029077 0.00252305 0.00893818 0.00946293 0.03605476 0.01159805 0.01690267 0.00243774 0.01195440 0.11668618 0.02525798 0.01912505 
0.01625947 0.03501393 0.00631634 0.00380052 0.01004358 0.00244954 0.00899444 0.00937087 0.03595493 0.01149116 0.01673051 0.00242203 0.01179365 0.11532178 0.02518181 0.01988791 
0.01643540 0.03422467 0.00619403 0.00374898 0.00979669 0.00237528 0.00904848 0.00927565 0.03587547 0.01137060 0.01656554 0.00240544 0.01167858 0.11396150 0.02510613 0.02065991 
0.01659893 0.03353453 0.00607361 0.00369562 0.00955081 0.00230051 0.00909979 0.00917762 0.03581548 0.01123681 0.01640821 0.00238799 0.01160898 0.11261383 0.02503231 0.02143779 
0.01674877 0.03294774 0.00595558 0.00364059 0.00930659 0.00222551 0.00914789 0.00907718 0.03577397 0.01109032 0.01625893 0.00236967 0.01158442 0.11128716 0.02496173 0.02221822 
0.01688374 0.03246802 0.00584044 0.00358408 0.00906469 0.00215053 0.00919234 0.00897476 0.03574986 0.01093173 0.01611811 0.00235052 0.01160423 0.10998977 0.02489578 0.02299787 
0.01700270 0.03209858 0.00572870 0.00352629 0.00882575 0.00207586 0.00923272 0.00887079 0.03574206 0.01076169 0.01598615 0.00233055 0.01166749 0.10872972 0.02483578 0.02377339 
0.01710465 0.03184201 0.00562084 0.00346742 0.00859037 0.00200176 0.00926863 0.00876573 0.03574940 0.01058096 0.01586341 0.00230979 0.01177310 0.10751488 0.02478308 0.02454144 
0.01718864 0.03170038 0.00551732 0.00340766 0.00835917 0.00192850 0.00929973 0.00866008 0.03577068 0.01039032 0.01575026 0.00228826 0.01191972 0.10635288 0.02473895 0.02529871 
0.01725385 0.03167512 0.00541860 0.00334724 0.00813270 0.00185637 0.00932568 0.00855434 0.03580470 0.01019064 0.01564702 0.00226602 0.01210581 0.10525103 0.02470462 0.02604190 
0.01729956 0.03176709 0.00532512 0.00328637 0.00791153 0.00178563 0.00934621 0.00844903 0.03585021 0.00998281 0.01555402 0.00224309 0.01232966 0.10421634 0.02468129 0.02676779 
0.01732518 0.03197652 0.00523727 0.00322528 0.00769617 0.00171656 0.00936106 0.00834467 0.03590601 0.00976782 0.01547156 0.00221954 0.01258938 0.10325546 0.02467005 0.02747321 
0.01733021 0.03230302 0.00515545 0.00316418 0.00748712 0.00164941 0.00937003 0.00824182 0.03597087 0.00954666 0.01539991 0.00219540 0.01288290 0.10237463 0.02467197 0.02815509 
0.01731430 0.03274560 0.00508001 0.00310329 0.00728487 0.00158445 0.00937293 0.00814103 0.03604361 0.00932038 0.01533933 0.00217073 0.01320801 0.10157970 0.02468801 0.02881044 
0.01727721 0.03330266 0.00501128 0.00304285 0.00708984 0.00152194 0.00936963 0.00804287 0.03612305 0.00909009 0.01529006 0.00214559 0.01356239 0.10087605 0.02471905 0.02943639 
0.01721883 0.03397197 0.00494954 0.00298307 0.00690247 0.00146211 0.00936003 0.00794788 0.03620809 0.00885689 0.01525230 0.00212005 0.01394355 0.10026860 0.02476586 0.03003020 
0.01713918 0.03475072 0.00489505 0.00292416 0.00672313 0.00140520 0.00934408 0.00785663 0.03629764 0.00862193 0.01522624 0.00209417 0.01434894 0.09976175 0.02482915 0.03058925 
0.01703843 0.03563553 0.00484803 0.00286635 0.00655219 0.00135144 0.00932176 0.00776969 0.03639069 0.00838638 0.01521205 0.00206801 0.01477590 0.09935939 0.02490948 0.03111110 
0.01691686 0.03662242 0.00480868 0.00280985 0.00638997 0.00130105 0.00929308 0.00768760 0.03648630 0.00815141 0.01520986 0.00204166 0.01522169 0.09906489 0.02500734 0.03159345 
0.01677490 0.03770689 0.00477712 0.00275485 0.00623678 0.00125422 0.00925811 0.00761090 0.03658359 0.00791822 0.01521977 0.00201518 0.01568352 0.09888103 0.02512306 0.03203419 
0.01661311 0.03888390 0.00475347 0.00270155 0.00609288 0.00121114 0.00921693 0.00754012 0.03668175 0.00768798 0.01524189 0.00198864 0.01615855 0.09881004 0.02525690 0.03243138 
0.01643217 0.04014792 0.00473779 0.00265015 0.00595852 0.00117200 0.00916969 0.00747577 0.03678007 0.00746188 0.01527625 0.00196213 0.01664394 0.09885355 0.02540896 0.03278328 
0.01623290 0.04149296 0.00473010 0.00260081 0.00583389 0.00113693 0.00911654 0.00741834 0.03687792 0.00724109 0.01532289 0.00193572 0.01713680 0.09901262 0.02557922 0.03308836 
0.01601626 0.04291256 0.00473039 0.00255371 0.00571919 0.00110609 0.00905769 0.00736829 0.03697476 0.00702677 0.01538180 0.00190950 0.01763427 0.09928769 0.02576757 0.03334530 
0.01578331 0.04439988 0.00473861 0.00250900 0.00561456 0.00107960 0.00899336 0.00732607 0.03707014 0.00682005 0.01545296 0.00188353 0.01813350 0.09967860 0.02597372 0.03355300 
0.01553523 0.04594771 0.00475464 0.00246682 0.00552011 0.00105757 0.00892384 0.00729207 0.03716369 0.00662203 0.01553630 0.00185790 0.01863167 0.10018460 0.02619729 0.03371057 
0.01527335 0.04754850 0.00477836 0.00242732 0.00543595 0.00104008 0.00884940 0.00726667 0.03725517 0.00643376 0.01563173 0.00183269 0.01912601 0.10080433 0.02643777 0.03381736 
0.01499906 0.04919442 0.00480958 0.00239061 0.00536212 0.00102719 0.00877038 0.00725021 0.03734438 0.00625629 0.01573912 0.00180796 0.01961383 0.10153585 0.02669452 0.03387298 
0.01471388 0.05087739 0.00484810 0.00235679 0.00529867 0.00101897 0.00868713 0.00724298 0.03743126 0.00609059 0.01585832 0.00178381 0.02009249 0.10237661 0.02696677 0.03387723 
0.01441943 0.05258911 0.00489367 0.00232595 0.00524559 0.00101543 0.00860002 0.00724524 0.03751582 0.00593758 0.01598915 0.00176029 0.02055945 0.10332351 0.02725365 0.03383018 
0.01411741 0.05432113 0.00494600 0.00229818 0.00520286 0.00101659 0.00850945 0.00725721 0.03759813 0.00579814 0.01613139 0.00173750 0.02101226 0.10437287 0.02755417 0.03373214 
0.01380959 0.05606489 0.00500477 0.00227353 0.00517044 0.00102243 0.00841584 0.00727903 0.03767839 0.00567307 0.01628480 0.00171548 0.02144859 0.10552048 0.02786722 0.03358365 
0.01349783 0.05781174 0.00506964 0.00225206 0.00514823 0.00103292 0.00831962 0.00731084 0.03775683 0.00556312 0.01644910 0.00169432 0.02186622 0.10676161 0.02819160 0.03338551 
0.01318402 0.05955303 0.00514023 0.00223378 0.00513613 0.00104801 0.00822125 0.00735270 0.03783377 0.00546896 0.01662399 0.00167407 0.02226309 0.10809100 0.02852602 0.03313872 
0.01287015 0.06128010 0.00521614 0.00221872 0.00513401 0.00106762 0.00812121 0.00740461 0.03790960 0.00539118 0.01680913 0.00165481 0.02263723 0.10950295 0.02886908 0.03284456 
0.01255820 0.06298439 0.00529695 0.00220689 0.00514171 0.00109166 0.00801996 0.00746655 0.03798475 0.00533031 0.01700416 0.00163658 0.02298685 0.11099130 0.02921932 0.03250452 
0.01225022 0.06465742 0.00538220 0.00219826 0.00515904 0.00112002 0.00791800 0.00753841 0.03805971 0.00528679 0.01720870 0.00161944 0.02331031 0.11254946 0.02957518 0.03212031 
0.01194825 0.06629089 0.00547145 0.00219281 0.00518579 0.00115257 0.00781583 0.00762007 0.03813500 0.00526099 0.01742232 0.00160345 0.02360612 0.11417046 0.02993507 0.03169386 
0.01165435 0.06787667 0.00556419 0.00219050 0.00522172 0.00118915 0.00771395 0.00771131 0.03821120 0.00525316 0.01764460 0.00158864 0.02387297 0.11584699 0.03029731 0.03122733 
0.01137059 0.06940691 0.00565995 0.00219126 0.00526658 0.00122960 0.00761286 0.00781188 0.03828887 0.00526351 0.01787507 0.00157508 0.02410969 0.11757142 0.03066020 0.03072308 
0.01109900 0.07087401 0.00575823 0.00219504 0.00532007 0.00127373 0.00751307 0.00792149 0.03836861 0.00529213 0.01811326 0.00156279 0.02431530 0.11933582 0.03102201 0.03018365 
0.01084160 0.07227069 0.00585851 0.00220174 0.00538189 0.00132133 0.00741508 0.00803978 0.03845104 0.00533903 0.01835865 0.00155182 0.02448901 0.12113204 0.03138095 0.02961177 
0.01060035 0.07359005 0.00596029 0.00221128 0.00545170 0.00137220 0.00731939 0.00816635 0.03853674 0.00540414 0.01861073 0.00154219 0.02463017 0.12295175 0.03173526 0.02901036 
0.01037719 0.07482555 0.00606305 0.00222354 0.00552915 0.00142609 0.00722649 0.00830073 0.03862631 0.00548729 0.01886897 0.00153393 0.02473832 0.12478642 0.03208315 0.02838248 
0.01017396 0.07597108 0.00616628 0.00223842 0.00561385 0.00148277 0.00713686 0.00844243 0.03872030 0.00558823 0.01913281 0.00152707 0.02481319 0.12662745 0.03242283 0.02773136 
0.00999245 0.07702100 0.00626949 0.00225577 0.00570541 0.00154197 0.00705096 0.00859092 0.03881926 0.00570661 0.01940170 0.00152163 0.02485466 0.12846615 0.03275257 0.02706036 
0.00983436 0.07797013 0.00637217 0.00227547 0.00580341 0.00160343 0.00696926 0.00874559 0.03892368 0.00584202 0.01967506 0.00151763 0.02486280 0.13029379 0.03307063 0.02637295 
0.00970130 0.07881378 0.00647384 0.00229737 0.00590739 0.00166687 0.00689218 0.00890583 0.03903401 0.00599394 0.01995232 0.00151507 0.02483783 0.13210169 0.03337533 0.02567272 
0.00959474 0.07954780 0.00657403 0.00232132 0.00601689 0.00173200 0.00682014 0.00907099 0.03915065 0.00616179 0.02023290 0.00151396 0.02478014 0.13388122 0.03366503 0.02496335 
0.00951606 0.08016857 0.00667228 0.00234715 0.00613143 0.00179852 0.00675354 0.00924036 0.03927393 0.00634489 0.02051621 0.00151431 0.02469030 0.13562383 0.03393817 0.02424859 
0.00946652 0.08067301 0.00676815 0.00237471 0.00625050 0.00186615 0.00669275 0.00941324 0.03940412 0.00654250 0.02080166 0.00151611 0.02456900 0.13732116 0.03419323 0.02353224 
0.00944721 0.08105863 0.00686123 0.00240381 0.00637359 0.00193456 0.00663812 0.00958888 0.03954142 0.00675381 0.02108867 0.00151937 0.02441711 0.13896501 0.03442880 0.02281817 
0.00945911 0.08132349 0.00695111 0.00243430 0.00650016 0.00200346 0.00658998 0.00976652 0.03968595 0.00697793 0.02137665 0.00152408 0.02423562 0.14054744 0.03464354 0.02211023 
0.00950302 0.08146622 0.00703743 0.00246599 0.00662964 0.00207253 0.00654859 0.00994538 0.03983775 0.00721393 0.02166505 0.00153022 0.02402566 0.14206075 0.03483623 0.02141232 
0.00957960 0.08148604 0.00711984 0.00249871 0.00676147 0.00214147 0.00651424 0.01012468 0.03999677 0.00746079 0.02195328 0.00153777 0.02378850 0.14349758 0.03500572 0.02072830 
0.00968932 0.08138274 0.00719802 0.00253227 0.00689508 0.00220998 0.00648715 0.01030361 0.04016289 0.00771746 0.02224079 0.00154673 0.02352551 0.14485091 0.03515100 0.02006199 
0.00983250 0.08115667 0.00727168 0.00256650 0.00702985 0.00227774 0.00646750 0.01048138 0.04033587 0.00798284 0.02252704 0.00155707 0.02323819 0.14611410 0.03527118 0.01941719 
0.01000929 0.08080873 0.00734056 0.00260121 0.00716520 0.00234445 0.00645545 0.01065718 0.04051541 0.00825578 0.02281151 0.00156876 0.02292812 0.14728093 0.03536546 0.01879760 
0.01021964 0.08034040 0.00740442 0.00263624 0.00730050 0.00240983 0.00645114 0.01083024 0.04070113 0.00853509 0.02309367 0.00158178 0.02259699 0.14834563 0.03543320 0.01820686 
0.01046332 0.07975367 0.00746306 0.00267140 0.00743513 0.00247359 0.00645463 0.01099976 0.04089252 0.00881956 0.02337304 0.00159609 0.02224657 0.14930290 0.03547389 0.01764848 
0.01073995 0.07905104 0.00751632 0.00270652 0.00756846 0.00253544 0.00646598 0.01116498 0.04108904 0.00910795 0.02364914 0.00161166 0.02187870 0.15014795 0.03548713 0.01712586 
0.01104892 0.07823551 0.00756406 0.00274144 0.00769988 0.00259513 0.00648520 0.01132516 0.04129003 0.00939900 0.02392152 0.00162845 0.02149527 0.15087651 0.03547269 0.01664225 
0.01138949 0.07731057 0.00760616 0.00277599 0.00782874 0.00265239 0.00651224 0.01147957 0.04149477 0.00969144 0.02418974 0.00164642 0.02109826 0.15148486 0.03543044 0.01620076 
0.01176069 0.07628013 0.00764256 0.00281001 0.00795441 0.00270697 0.00654705 0.01162751 0.04170245 0.00998400 0.02445340 0.00166553 0.02068965 0.15196983 0.03536042 0.01580431 
0.01216142 0.07514855 0.00767321 0.00284337 0.00807629 0.00275865 0.00658951 0.01176831 0.04191223 0.01027540 0.02471211 0.00168573 0.02027150 0.15232885 0.03526279 0.01545562 
0.01259037 0.07392057 0.00769810 0.00287590 0.00819373 0.00280721 0.00663946 0.01190136 0.04212318 0.01056438 0.02496551 0.00170697 0.01984584 0.15255992 0.03513784 0.01515722 
0.01304608 0.07260128 0.00771725 0.00290747 0.00830615 0.00285245 0.00669672 0.01202605 0.04233432 0.01084968 0.02521327 0.00172919 0.01941476 0.15266165 0.03498602 0.01491141 
0.01352694 0.07119613 0.00773069 0.00293795 0.00841293 0.00289418 0.00676107 0.01214182 0.04254464 0.01113007 0.02545508 0.00175235 0.01898033 0.15263323 0.03480788 0.01472027 
0.01403117 0.06971085 0.00773852 0.00296722 0.00851350 0.00293224 0.00683223 0.01224818 0.04275307 0.01140436 0.02569066 0.00177639 0.01854463 0.15247446 0.03460411 0.01458562 
0.01455686 0.06815143 0.00774082 0.00299516 0.00860730 0.00296647 0.00690991 0.01234465 0.04295854 0.01167137 0.02591976 0.00180125 0.01810970 0.15218576 0.03437551 0.01450902 
0.01510194 0.06652409 0.00773773 0.00302166 0.00869378 0.00299674 0.00699377 0.01243083 0.04315994 0.01192997 0.02614213 0.00182686 0.01767758 0.15176813 0.03412301 0.01449178 
0.01566424 0.06483527 0.00772940 0.00304664 0.00877242 0.00302294 0.00708344 0.01250633 0.04335616 0.01217908 0.02635758 0.00185316 0.01725027 0.15122316 0.03384764 0.01453491 
0.01624146 0.06309154 0.00771600 0.00307000 0.00884273 0.00304498 0.00717852 0.01257086 0.04354608 0.01241767 0.02656592 0.00188009 0.01682973 0.15055302 0.03355053 0.01463915 
0.01683121 0.06129959 0.00769773 0.00309166 0.00890425 0.00306278 0.00727858 0.01262414 0.04372861 0.01264477 0.02676699 0.00190757 0.01641786 0.14976042 0.03323292 0.01480495 
0.01743100 0.05946622 0.00767482 0.00311155 0.00895655 0.00307630 0.00738314 0.01266597 0.04390267 0.01285946 0.02696068 0.00193553 0.01601651 0.14884866 0.03289611 0.01503246 
0.01803827 0.05759826 0.00764749 0.00312961 0.00899924 0.00308549 0.00749174 0.01269619 0.04406719 0.01306091 0.02714685 0.00196391 0.01562748 0.14782154 0.03254149 0.01532155 
0.01865038 0.05570257 0.00761600 0.00314579 0.00903198 0.00309035 0.00760386 0.01271470 0.04422116 0.01324835 0.02732542 0.00199262 0.01525247 0.14668335 0.03217053 0.01567175 
0.01926468 0.05378598 0.00758061 0.00316004 0.00905444 0.00309088 0.00771896 0.01272145 0.04436362 0.01342109 0.02749632 0.00202159 0.01489313 0.14543890 0.03178475 0.01608234 
0.01987844 0.05185529 0.00754161 0.00317234 0.00906636 0.00308712 0.00783650 0.01271646 0.04449367 0.01357851 0.02765949 0.00205073 0.01455102 0.14409342 0.03138572 0.01655227 
0.02048895 0.04991719 0.00749929 0.00318266 0.00906754 0.00307911 0.00795591 0.01269977 0.04461045 0.01372009 0.02781489 0.00207998 0.01422759 0.14265257 0.03097506 0.01708021 
0.02109347 0.04797827 0.00745394 0.00319099 0.00905779 0.00306692 0.00807662 0.01267150 0.04471321 0.01384541 0.02796251 0.00210924 0.01392422 0.14112241 0.03055440 0.01766452 
0.02168928 0.04604498 0.00740589 0.00319731 0.00903702 0.00305064 0.00819803 0.01263181 0.04480126 0.01395411 0.02810233 0.00213843 0.01364218 0.13950936 0.03012542 0.01830331 
0.02227370 0.04412359 0.00735543 0.00320163 0.00900517 0.00303037 0.00831956 0.01258091 0.04487400 0.01404594 0.02823435 0.00216747 0.01338266 0.13782015 0.02968980 0.01899439 
0.02284408 0.04222018 0.00730290 0.00320396 0.00896223 0.00300624 0.00844061 0.01251906 0.04493093 0.01412074 0.02835858 0.00219626 0.01314670 0.13606181 0.02924921 0.01973531 
0.02339783 0.04034059 0.00724860 0.00320432 0.00890826 0.00297840 0.00856057 0.01244655 0.04497165 0.01417847 0.02847504 0.00222474 0.01293529 0.13424162 0.02880534 0.02052336 
0.02393244 0.03849044 0.00719287 0.00320274 0.00884340 0.00294699 0.00867886 0.01236372 0.04499587 0.01421916 0.02858376 0.00225279 0.01274926 0.13236708 0.02835983 0.02135561 
0.02444548 0.03667506 0.00713602 0.00319925 0.00876782 0.00291219 0.00879489 0.01227097 0.04500340 0.01424293 0.02868475 0.00228035 0.01258935 0.13044585 0.02791434 0.02222887 
0.02493464 0.03489952 0.00707837 0.00319389 0.00868177 0.00287420 0.00890807 0.01216871 0.04499418 0.01425004 0.02877806 0.00230732 0.01245619 0.12848575 0.02747045 0.02313976 
0.02539771 0.03316857 0.00702023 0.00318670 0.00858556 0.00283321 0.00901786 0.01205739 0.04496825 0.01424081 0.02886370 0.00233360 0.01235030 0.12649466 0.02702973 0.02408469 
0.02583261 0.03148665 0.00696190 0.00317775 0.00847957 0.00278944 0.00912369 0.01193750 0.04492577 0.01421566 0.02894172 0.00235913 0.01227206 0.12448056 0.02659370 0.02505991 
0.02623742 0.02985787 0.00690370 0.00316709 0.00836423 0.00274312 0.00922504 0.01180955 0.04486703 0.01417512 0.02901213 0.00238379 0.01222176 0.12245142 0.02616380 0.02606149 
0.02661036 0.02828602 0.00684590 0.00315480 0.00824006 0.00269449 0.00932140 0.01167408 0.04479241 0.01411980 0.02907497 0.00240752 0.01219959 0.12041519 0.02574145 0.02708538 
0.02694982 0.02677453 0.00678879 0.00314093 0.00810762 0.00264380 0.00941229 0.01153165 0.04470243 0.01405039 0.02913026 0.00243022 0.01220559 0.11837977 0.02532795 0.02812738 
0.02725436 0.02532647 0.00673265 0.00312558 0.00796754 0.00259129 0.00949726 0.01138284 0.04459771 0.01396769 0.02917801 0.00245180 0.01223971 0.11635297 0.02492457 0.02918323 
0.02752274 0.02394457 0.00667772 0.00310882 0.00782052 0.00253724 0.00957588 0.01122825 0.04447900 0.01387256 0.02921823 0.00247220 0.01230182 0.11434245 0.02453249 0.03024856 
0.02775389 0.02263120 0.00662425 0.00309073 0.00766731 0.00248191 0.00964777 0.01106849 0.04434713 0.01376594 0.02925092 0.00249132 0.01239163 0.11235571 0.02415279 0.03131899 
0.02794695 0.02138838 0.00657248 0.00307141 0.00750871 0.00242558 0.00971256 0.01090416 0.04420306 0.01364885 0.02927609 0.00250909 0.01250880 0.11040006 0.02378649 0.03239005 
0.02810127 0.02021777 0.00652263 0.00305096 0.00734559 0.00236852 0.00976995 0.01073590 0.04404781 0.01352235 0.02929372 0.00252544 0.01265286 0.10848256 0.02343450 0.03345732 
0.02821640 0.01912068 0.00647489 0.00302946 0.00717887 0.00231100 0.00981966 0.01056434 0.04388254 0.01338760 0.02930380 0.00254028 0.01282326 0.10661001 0.02309765 0.03451637 
0.02829210 0.01809807 0.00642945 0.00300703 0.00700952 0.00225331 0.00986144 0.01039008 0.04370845 0.01324578 0.02930631 0.00255356 0.01301934 0.10478893 0.02277669 0.03556281 
0.02832835 0.01715059 0.00638648 0.00298375 0.00683854 0.00219572 0.00989511 0.01021377 0.04352684 0.01309814 0.02930122 0.00256521 0.01324039 0.10302550 0.02247225 0.03659231 
0.02832533 0.01627854 0.00634613 0.00295974 0.00666698 0.00213850 0.00992052 0.01003602 0.04333908 0.01294595 0.02928850 0.00257517 0.01348557 0.10132558 0.02218489 0.03760064 
0.02828344 0.01548192 0.00630854 0.00293510 0.00649594 0.00208192 0.00993755 0.00985744 0.04314659 0.01279051 0.02926812 0.00258338 0.01375401 0.09969464 0.02191508 0.03858367 
0.02820330 0.01476042 0.00627383 0.00290994 0.00632654 0.00202625 0.00994614 0.00967863 0.04295087 0.01263318 0.02924005 0.00258980 0.01404474 0.09813778 0.02166318 0.03953738 
0.02808571 0.01411343 0.00624210 0.00288436 0.00615992 0.00197174 0.00994628 0.00950018 0.04275343 0.01247529 0.02920426 0.00259437 0.01435672 0.09665969 0.02142947 0.04045794 
0.02793170 0.01354009 0.00621343 0.00285848 0.00599726 0.00191865 0.00993800 0.00932266 0.04255584 0.01231821 0.02916070 0.00259705 0.01468886 0.09526464 0.02121414 0.04134165 
0.02774247 0.01303926 0.00618788 0.00283240 0.00583974 0.00186721 0.00992137 0.00914662 0.04235970 0.01216329 0.02910936 0.00259782 0.01504002 0.09395647 0.02101731 0.04218503 
0.02751942 0.01260956 0.00616551 0.00280623 0.00568856 0.00181766 0.00989650 0.00897260 0.04216662 0.01201189 0.02905020 0.00259663 0.01540898 0.09273859 0.02083899 0.04298478 
0.02726412 0.01224940 0.00614635 0.00278009 0.00554494 0.00177022 0.00986356 0.00880113 0.04197821 0.01186533 0.02898323 0.00259348 0.01579450 0.09161392 0.02067914 0.04373785 
0.02697832 0.01195696 0.00613040 0.00275407 0.00541007 0.00172510 0.00982275 0.00863268 0.04179611 0.01172493 0.02890844 0.00258835 0.01619529 0.09058497 0.02053763 0.04444140 
0.02666392 0.01173024 0.00611767 0.00272828 0.00528514 0.00168249 0.00977431 0.00846774 0.04162194 0.01159196 0.02882583 0.00258121 0.01661003 0.08965375 0.02041427 0.04509286 
0.02632296 0.01156707 0.00610813 0.00270282 0.00517136 0.00164257 0.00971854 0.00830675 0.04145729 0.01146764 0.02873545 0.00257208 0.01703737 0.08882184 0.02030878 0.04568993 
0.02595762 0.01146512 0.00610176 0.00267781 0.00506988 0.00160552 0.00965573 0.00815014 0.04130375 0.01135315 0.02863734 0.00256096 0.01747593 0.08809034 0.02022084 0.04623056 
0.02557021 0.01142192 0.00609849 0.00265333 0.00498184 0.00157148 0.00958627 0.00799829 0.04116286 0.01124962 0.02853156 0.00254786 0.01792430 0.08745989 0.02015007 0.04671302 
0.02516312 0.01143491 0.00609826 0.00262948 0.00490835 0.00154058 0.00951053 0.00785157 0.04103615 0.01115810 0.02841823 0.00253281 0.01838110 0.08693069 0.02009603 0.04713583 
0.02473886 0.01150139 0.00610099 0.00260636 0.00485049 0.00151296 0.00942894 0.00771033 0.04092507 0.01107956 0.02829745 0.00251582 0.01884489 0.08650251 0.02005825 0.04749783 
0.02429998 0.01161861 0.00610658 0.00258405 0.00480927 0.00148870 0.00934193 0.00757488 0.04083105 0.01101491 0.02816939 0.00249693 0.01931426 0.08617465 0.02003619 0.04779817 
0.02384912 0.01178375 0.00611492 0.00256264 0.00478568 0.00146790 0.00925000 0.00744550 0.04075545 0.01096495 0.02803423 0.00247619 0.01978780 0.08594602 0.02002930 0.04803627 
0.02338895 0.01199395 0.00612590 0.00254222 0.00478064 0.00145062 0.00915363 0.00732245 0.04069956 0.01093039 0.02789221 0.00245364 0.02026410 0.08581511 0.02003697 0.04821188 
0.02292216 0.01224632 0.00613936 0.00252285 0.00479499 0.00143690 0.00905334 0.00720595 0.04066463 0.01091186 0.02774358 0.00242935 0.02074175 0.08578002 0.02005859 0.04832503 
0.02245145 0.01253794 0.00615517 0.00250462 0.00482954 0.00142679 0.00894965 0.00709622 0.04065181 0.01090987 0.02758864 0.00240338 0.02121939 0.08583847 0.02009351 0.04837606 
0.02197953 0.01286591 0.00617317 0.00248759 0.00488499 0.00142028 0.00884312 0.00699342 0.04066219 0.01092482 0.02742776 0.00237579 0.02169565 0.08598782 0.02014106 0.04836560 
0.02150906 0.01322736 0.00619318 0.00247181 0.00496200 0.00141739 0.00873428 0.00689770 0.04069678 0.01095700 0.02726130 0.00234668 0.02216920 0.08622510 0.02020055 0.04829455 
0.02104268 0.01361942 0.00621504 0.00245736 0.00506110 0.00141808 0.00862370 0.00680918 0.04075651 0.01100658 0.02708973 0.00231613 0.02263873 0.08654702 0.02027130 0.04816410 
0.02058296 0.01403929 0.00623855 0.00244427 0.00518278 0.00142230 0.00851194 0.00672794 0.04084223 0.01107363 0.02691351 0.00228422 0.02310299 0.08694999 0.02035260 0.04797570 
0.02013242 0.01448421 0.00626351 0.00243259 0.00532740 0.00143002 0.00839955 0.00665407 0.04095469 0.01115808 0.02673318 0.00225107 0.02356073 0.08743016 0.02044376 0.04773106 
0.01969346 0.01495149 0.00628973 0.00242237 0.00549526 0.00144114 0.00828708 0.00658760 0.04109458 0.01125974 0.02654933 0.00221677 0.02401076 0.08798342 0.02054407 0.04743210 
0.01926840 0.01543853 0.00631700 0.00241362 0.00568653 0.00145558 0.00817508 0.00652855 0.04126248 0.01137832 0.02636258 0.00218144 0.02445194 0.08860544 0.02065282 0.04708100 
0.01885945 0.01594279 0.00634509 0.00240638 0.00590131 0.00147322 0.00806408 0.00647691 0.04145889 0.01151340 0.02617362 0.00214520 0.02488317 0.08929168 0.02076933 0.04668014 
0.01846868 0.01646186 0.00637379 0.00240067 0.00613958 0.00149395 0.00795460 0.00643267 0.04168422 0.01166442 0.02598317 0.00210817 0.02530339 0.09003745 0.02089290 0.04623208 
0.01809802 0.01699339 0.00640288 0.00239649 0.00640122 0.00151764 0.00784713 0.00639577 0.04193880 0.01183075 0.02579201 0.00207048 0.02571161 0.09083789 0.02102285 0.04573957 
0.01774926 0.01753518 0.00643213 0.00239385 0.00668600 0.00154412 0.00774215 0.00636614 0.04222287 0.01201161 0.02560096 0.00203226 0.02610690 0.09168803 0.02115852 0.04520551 
0.01742402 0.01808509 0.00646130 0.00239274 0.00699359 0.00157324 0.00764012 0.00634370 0.04253656 0.01220613 0.02541088 0.00199365 0.02648836 0.09258280 0.02129926 0.04463294 
0.01712375 0.01864114 0.00649016 0.00239316 0.00732357 0.00160483 0.00754147 0.00632834 0.04287994 0.01241333 0.02522267 0.00195479 0.02685517 0.09351705 0.02144443 0.04402501 
0.01684973 0.01920146 0.00651848 0.00239509 0.00767539 0.00163869 0.00744659 0.00631995 0.04325298 0.01263213 0.02503728 0.00191582 0.02720658 0.09448559 0.02159340 0.04338498 
0.01660305 0.01976427 0.00654603 0.00239850 0.00804840 0.00167463 0.00735585 0.00631837 0.04365557 0.01286138 0.02485570 0.00187689 0.02754189 0.09548323 0.02174557 0.04271618 
0.01638462 0.02032795 0.00657258 0.00240337 0.00844187 0.00171245 0.00726960 0.00632347 0.04408750 0.01309981 0.02467891 0.00183815 0.02786046 0.09650477 0.02190036 0.04202200 
0.01619514 0.02089097 0.00659788 0.00240964 0.00885495 0.00175195 0.00718812 0.00633507 0.04454849 0.01334611 0.02450798 0.00179974 0.02816175 0.09754502 0.02205718 0.04130588 
0.01603514 0.02145196 0.00662172 0.00241729 0.00928671 0.00179289 0.00711169 0.00635299 0.04503818 0.01359887 0.02434394 0.00176182 0.02844524 0.09859887 0.02221550 0.04057124 
0.01590493 0.02200962 0.00664387 0.00242624 0.00973611 0.00183506 0.00704054 0.00637704 0.04555610 0.01385665 0.02418788 0.00172453 0.02871053 0.09966128 0.02237478 0.03982153 
0.01580463 0.02256282 0.00666410 0.00243646 0.01020203 0.00187824 0.00697485 0.00640702 0.04610171 0.01411792 0.02404089 0.00168803 0.02895725 0.10072731 0.02253450 0.03906018 
0.01573417 0.02311051 0.00668220 0.00244787 0.01068327 0.00192220 0.00691478 0.00644272 0.04667440 0.01438115 0.02390406 0.00165247 0.02918513 0.10179214 0.02269416 0.03829056 
0.01569328 0.02365176 0.00669796 0.00246040 0.01117856 0.00196670 0.00686044 0.00648392 0.04727346 0.01464476 0.02377848 0.00161800 0.02939396 0.10285108 0.02285330 0.03751600 
0.01568151 0.02418575 0.00671116 0.00247397 0.01168652 0.00201151 0.00681191 0.00653039 0.04789809 0.01490714 0.02366526 0.00158476 0.02958360 0.10389960 0.02301144 0.03673973 
0.01569821 0.02471178 0.00672162 0.00248851 0.01220575 0.00205642 0.00676921 0.00658190 0.04854744 0.01516669 0.02356546 0.00155289 0.02975399 0.10493337 0.02316814 0.03596491 
0.01574255 0.02522922 0.00672915 0.00250392 0.01273475 0.00210119 0.00673235 0.00663822 0.04922053 0.01542180 0.02348014 0.00152253 0.02990515 0.10594823 0.02332298 0.03519460 
0.01581356 0.02573756 0.00673355 0.00252011 0.01327199 0.00214560 0.00670128 0.00669909 0.04991633 0.01567086 0.02341034 0.00149382 0.03003717 0.10694024 0.02347556 0.03443172 
0.01591007 0.02623637 0.00673467 0.00253700 0.01381589 0.00218942 0.00667593 0.00676428 0.05063373 0.01591230 0.02335706 0.00146690 0.03015020 0.10790569 0.02362546 0.03367906 
0.01603077 0.02672530 0.00673233 0.00255447 0.01436482 0.00223246 0.00665619 0.00683354 0.05137152 0.01614457 0.02332126 0.00144188 0.03024447 0.10884108 0.02377233 0.03293927 
0.01617422 0.02720409 0.00672640 0.00257243 0.01491714 0.00227450 0.00664190 0.00690662 0.05212840 0.01636617 0.02330385 0.00141889 0.03032029 0.10974320 0.02391580 0.03221485 
0.01633881 0.02767253 0.00671672 0.00259076 0.01547115 0.00231535 0.00663290 0.00698328 0.05290302 0.01657566 0.02330569 0.00139805 0.03037804 0.11060907 0.02405553 0.03150813 
0.01652286 0.02813051 0.00670317 0.00260937 0.01602517 0.00235481 0.00662897 0.00706325 0.05369392 0.01677163 0.02332759 0.00137945 0.03041817 0.11143598 0.02419118 0.03082128 
0.01672453 0.02857794 0.00668565 0.00262814 0.01657751 0.00239271 0.00662988 0.00714631 0.05449957 0.01695279 0.02337027 0.00136320 0.03044119 0.11222150 0.02432245 0.03015627 
0.01694192 0.02901482 0.00666404 0.00264697 0.01712645 0.00242888 0.00663537 0.00723219 0.05531834 0.01711788 0.02343439 0.00134940 0.03044768 0.11296348 0.02444903 0.02951492 
0.01717304 0.02944117 0.00663827 0.00266573 0.01767032 0.00246317 0.00664515 0.00732066 0.05614856 0.01726579 0.02352054 0.00133811 0.03043831 0.11366004 0.02457065 0.02889883 
0.01741582 0.02985706 0.00660827 0.00268431 0.01820744 0.00249543 0.00665893 0.00741149 0.05698844 0.01739544 0.02362920 0.00132943 0.03041377 0.11430961 0.02468703 0.02830945 
0.01766814 0.03026261 0.00657397 0.00270261 0.01873618 0.00252552 0.00667639 0.00750443 0.05783613 0.01750592 0.02376077 0.00132342 0.03037485 0.11491087 0.02479792 0.02774803 
0.01792786 0.03065794 0.00653534 0.00272052 0.01925492 0.00255334 0.00669720 0.00759926 0.05868971 0.01759639 0.02391556 0.00132013 0.03032238 0.11546283 0.02490310 0.02721562 
0.01819279 0.03104323 0.00649236 0.00273791 0.01976210 0.00257878 0.00672100 0.00769575 0.05954719 0.01766615 0.02409377 0.00131961 0.03025725 0.11596474 0.02500233 0.02671310 
0.01846075 0.03141865 0.00644502 0.00275470 0.02025621 0.00260174 0.00674747 0.00779369 0.06040649 0.01771460 0.02429548 0.00132189 0.03018041 0.11641615 0.02509543 0.02624118 
0.01872954 0.03178439 0.00639333 0.00277076 0.02073579 0.00262217 0.00677623 0.00789286 0.06126549 0.01774131 0.02452070 0.00132701 0.03009284 0.11681688 0.02518220 0.02580037 
0.01899700 0.03214065 0.00633732 0.00278601 0.02119946 0.00263998 0.00680694 0.00799305 0.06212199 0.01774593 0.02476927 0.00133497 0.02999558 0.11716701 0.02526247 0.02539104 
0.01926099 0.03248765 0.00627703 0.00280033 0.02164589 0.00265515 0.00683924 0.00809407 0.06297374 0.01772828 0.02504097 0.00134578 0.02988972 0.11746689 0.02533611 0.02501336 
0.01951943 0.03282558 0.00621253 0.00281365 0.02207386 0.00266765 0.00687278 0.00819573 0.06381846 0.01768831 0.02533543 0.00135943 0.02977635 0.11771710 0.02540297 0.02466738 
0.01977029 0.03315463 0.00614389 0.00282586 0.02248221 0.00267745 0.00690724 0.00829783 0.06465379 0.01762611 0.02565216 0.00137590 0.02965664 0.11791847 0.02546295 0.02435299 
0.02001161 0.03347501 0.00607122 0.00283688 0.02286988 0.00268457 0.00694228 0.00840021 0.06547735 0.01754188 0.02599056 0.00139518 0.02953176 0.11807206 0.02551597 0.02406992 
0.02024151 0.03378689 0.00599463 0.00284664 0.02323590 0.00268902 0.00697758 0.00850269 0.06628674 0.01743600 0.02634992 0.00141720 0.02940289 0.11817912 0.02556194 0.02381782 
0.02045821 0.03409043 0.00591426 0.00285506 0.02357942 0.00269083 0.00701287 0.00860511 0.06707951 0.01730895 0.02672939 0.00144193 0.02927125 0.11824111 0.02560082 0.02359616 
0.02066005 0.03438578 0.00583026 0.00286208 0.02389965 0.00269005 0.00704784 0.00870732 0.06785323 0.01716136 0.02712801 0.00146930 0.02913805 0.11825968 0.02563259 0.02340436 
0.02084547 0.03467306 0.00574279 0.00286763 0.02419596 0.00268674 0.00708227 0.00880918 0.06860543 0.01699397 0.02754471 0.00149923 0.02900452 0.11823663 0.02565724 0.02324169 
0.02101302 0.03495237 0.00565205 0.00287166 0.02446779 0.00268098 0.00711591 0.00891053 0.06933368 0.01680766 0.02797831 0.00153165 0.02887189 0.11817392 0.02567479 0.02310737 
0.02116141 0.03522379 0.00555823 0.00287413 0.02471471 0.00267284 0.00714856 0.00901126 0.07003553 0.01660343 0.02842751 0.00156646 0.02874135 0.11807363 0.02568528 0.02300054 
0.02128947 0.03548737 0.00546155 0.00287500 0.02493640 0.00266243 0.00718005 0.00911124 0.07070858 0.01638238 0.02889092 0.00160355 0.02861411 0.11793795 0.02568878 0.02292025 
0.02139619 0.03574315 0.00536225 0.00287423 0.02513265 0.00264986 0.00721024 0.00921035 0.07135046 0.01614572 0.02936704 0.00164280 0.02849133 0.11776919 0.02568536 0.02286552 
0.02148069 0.03599111 0.00526058 0.00287181 0.02530335 0.00263525 0.00723899 0.00930848 0.07195885 0.01589475 0.02985429 0.00168411 0.02837417 0.11756969 0.02567515 0.02283532 
0.02154226 0.03623122 0.00515679 0.00286771 0.02544852 0.00261874 0.00726623 0.00940553 0.07253148 0.01563088 0.03035098 0.00172732 0.02826372 0.11734189 0.02565827 0.02282859 
0.02158033 0.03646344 0.00505118 0.00286194 0.02556829 0.00260045 0.00729191 0.00950140 0.07306616 0.01535558 0.03085538 0.00177231 0.02816105 0.11708823 0.02563488 0.02284422 
0.02159450 0.03668768 0.00494402 0.00285449 0.02566289 0.00258054 0.00731600 0.00959599 0.07356077 0.01507041 0.03136564 0.00181893 0.02806717 0.11681119 0.02560516 0.02288114 
0.02158453 0.03690383 0.00483562 0.00284538 0.02573265 0.00255917 0.00733852 0.00968924 0.07401330 0.01477697 0.03187989 0.00186701 0.02798305 0.11651323 0.02556930 0.02293821 
0.02155032 0.03711176 0.00472630 0.00283461 0.02577801 0.00253650 0.00735949 0.00978104 0.07442183 0.01447692 0.03239618 0.00191640 0.02790957 0.11619681 0.02552752 0.02301436 
0.02149194 0.03731132 0.00461636 0.00282221 0.02579951 0.00251268 0.00737901 0.00987133 0.07478457 0.01417198 0.03291253 0.00196693 0.02784756 0.11586431 0.02548006 0.02310847 
0.02140961 0.03750231 0.00450616 0.00280823 0.02579777 0.00248790 0.00739716 0.00996003 0.07509985 0.01386386 0.03342689 0.00201842 0.02779778 0.11551809 0.02542718 0.02321948 
0.02130370 0.03768456 0.00439601 0.00279269 0.02577352 0.00246233 0.00741407 0.01004707 0.07536615 0.01355434 0.03393724 0.00207070 0.02776088 0.11516041 0.02536914 0.02334635 
0.02117472 0.03785783 0.00428628 0.00277564 0.02572755 0.00243614 0.00742991 0.01013240 0.07558208 0.01324515 0.03444148 0.00212359 0.02773746 0.11479345 0.02530623 0.02348805 
0.02102334 0.03802190 0.00417730 0.00275715 0.02566073 0.00240951 0.00744484 0.01021594 0.07574642 0.01293808 0.03493756 0.00217690 0.02772801 0.11441927 0.02523876 0.02364361 
0.02085033 0.03817654 0.00406944 0.00273727 0.02557401 0.00238261 0.00745909 0.01029764 0.07585813 0.01263484 0.03542340 0.00223045 0.02773292 0.11403981 0.02516704 0.02381209 
0.02065661 0.03832148 0.00396305 0.00271607 0.02546839 0.00235562 0.00747286 0.01037745 0.07591632 0.01233718 0.03589694 0.00228404 0.02775250 0.11365687 0.02509139 0.02399258 
0.02044321 0.03845648 0.00385849 0.00269362 0.02534494 0.00232872 0.00748641 0.01045530 0.07592030 0.01204677 0.03635614 0.00233749 0.02778694 0.11327210 0.02501215 0.02418424 
0.02021129 0.03858128 0.00375610 0.00267002 0.02520477 0.00230206 0.00749998 0.01053114 0.07586958 0.01176524 0.03679902 0.00239062 0.02783633 0.11288698 0.02492965 0.02438627 
0.01996209 0.03869562 0.00365626 0.00264533 0.02504902 0.00227583 0.00751386 0.01060493 0.07576386 0.01149418 0.03722362 0.00244323 0.02790067 0.11250284 0.02484423 0.02459791 
0.01969694 0.03879925 0.00355931 0.00261966 0.02487889 0.00225017 0.00752831 0.01067660 0.07560303 0.01123511 0.03762804 0.00249514 0.02797982 0.11212082 0.02475623 0.02481846 
0.01941727 0.03889194 0.00346559 0.00259310 0.02469557 0.00222525 0.00754363 0.01074611 0.07538720 0.01098945 0.03801045 0.00254617 0.02807357 0.11174185 0.02466601 0.02504727 
0.01912456 0.03897346 0.00337545 0.00256575 0.02450030 0.00220121 0.00756010 0.01081341 0.07511669 0.01075858 0.03836909 0.00259615 0.02818156 0.11136670 0.02457389 0.02528372 
0.01882039 0.03904360 0.00328923 0.00253772 0.02429431 0.00217820 0.00757801 0.01087844 0.07479202 0.01054374 0.03870230 0.00264489 0.02830335 0.11099592 0.02448022 0.02552726 
0.01850635 0.03910219 0.00320723 0.00250912 0.02407884 0.00215634 0.00759764 0.01094116 0.07441394 0.01034611 0.03900849 0.00269223 0.02843839 0.11062989 0.02438532 0.02577738 
0.01818408 0.03914906 0.00312978 0.00248005 0.02385512 0.00213577 0.00761926 0.01100152 0.07398339 0.01016673 0.03928618 0.00273800 0.02858601 0.11026877 0.02428950 0.02603358 
0.01785527 0.03918410 0.00305717 0.00245062 0.02362437 0.00211660 0.00764316 0.01105946 0.07350152 0.01000655 0.03953400 0.00278206 0.02874547 0.10991253 0.02419308 0.02629544 
0.01752161 0.03920721 0.00298970 0.00242096 0.02338778 0.00209893 0.00766957 0.01111494 0.07296971 0.00986640 0.03975070 0.00282425 0.02891591 0.10956095 0.02409634 0.02656255 
0.01718479 0.03921834 0.00292763 0.00239119 0.02314653 0.00208287 0.00769873 0.01116791 0.07238952 0.00974696 0.03993515 0.00286443 0.02909636 0.10921364 0.02399957 0.02683454 
0.01684652 0.03921750 0.00287123 0.00236141 0.02290176 0.00206849 0.00773086 0.01121832 0.07176271 0.00964882 0.04008634 0.00290247 0.02928582 0.10887000 0.02390301 0.02711105 
0.01650848 0.03920472 0.00282072 0.00233175 0.02265456 0.00205588 0.00776616 0.01126612 0.07109124 0.00957241 0.04020341 0.00293825 0.02948314 0.10852929 0.02380692 0.02739174 
0.01617233 0.03918011 0.00277633 0.00230232 0.02240597 0.00204511 0.00780479 0.01131125 0.07037724 0.00951804 0.04028564 0.00297165 0.02968714 0.10819060 0.02371150 0.02767631 
0.01583968 0.03914381 0.00273825 0.00227325 0.02215701 0.00203623 0.00784690 0.01135368 0.06962302 0.00948588 0.04033243 0.00300258 0.02989657 0.10785288 0.02361696 0.02796444 
0.01551213 0.03909604 0.00270668 0.00224465 0.02190861 0.00202927 0.00789260 0.01139336 0.06883104 0.00947598 0.04034336 0.00303093 0.03011010 0.10751495 0.02352348 0.02825582 
0.01519120 0.03903707 0.00268177 0.00221664 0.02166167 0.00202429 0.00794196 0.01143024 0.06800395 0.00948823 0.04031813 0.00305664 0.03032636 0.10717550 0.02343119 0.02855014 
0.01487835 0.03896724 0.00266364 0.00218934 0.02141699 0.00202130 0.00799503 0.01146428 0.06714450 0.00952240 0.04025661 0.00307963 0.03054393 0.10683315 0.02334023 0.02884709 
0.01457500 0.03888695 0.00265242 0.00216285 0.02117533 0.00202032 0.00805183 0.01149544 0.06625560 0.00957813 0.04015882 0.00309984 0.03076136 0.10648641 0.02325071 0.02914634 
