0.00575775 0.01189864 0.00234407 0.00164355 0.00504510 0.00137262 0.00423161 0.00415590 0.01457359 0.00207967 0.01351952 0.00109854 0.00785504 0.03053040 0.00760999 0.00241669 
0.00563964 0.01183797 0.00235188 0.00161727 0.00502922 0.00137346 0.00423435 0.00409064 0.01435117 0.00204391 0.01305482 0.00108464 0.00776538 0.03074312 0.00750626 0.00252133 
0.00554569 0.01177940 0.00236135 0.00159086 0.00502144 0.00137304 0.00424265 0.00402116 0.01412332 0.00200849 0.01259597 0.00107007 0.00768671 0.03097031 0.00741320 0.00262912 
0.00547655 0.01172301 0.00237240 0.00156441 0.00502138 0.00137137 0.00425643 0.00394762 0.01389091 0.00197348 0.01214472 0.00105491 0.00761962 0.03121155 0.00733122 0.00273970 
0.00543283 0.01166889 0.00238492 0.00153806 0.00502863 0.00136845 0.00427557 0.00387024 0.01365485 0.00193900 0.01170273 0.00103927 0.00756469 0.03146639 0.00726067 0.00285268 
0.00541504 0.01161715 0.00239884 0.00151194 0.00504278 0.00136431 0.00429997 0.00378923 0.01341609 0.00190512 0.01127162 0.00102324 0.00752238 0.03173437 0.00720186 0.00296763 
0.00542365 0.01156788 0.00241410 0.00148620 0.00506338 0.00135897 0.00432949 0.00370484 0.01317560 0.00187194 0.01085295 0.00100693 0.00749312 0.03201499 0.00715506 0.00308411 
0.00545904 0.01152120 0.00243064 0.00146098 0.00508999 0.00135248 0.00436398 0.00361732 0.01293442 0.00183956 0.01044820 0.00099044 0.00747726 0.03230775 0.00712047 0.00320163 
0.00552153 0.01147723 0.00244842 0.00143644 0.00512214 0.00134489 0.00440327 0.00352694 0.01269356 0.00180806 0.01005876 0.00097388 0.00747509 0.03261211 0.00709826 0.00331968 
0.00561137 0.01143611 0.00246743 0.00141276 0.00515936 0.00133628 0.00444717 0.00343399 0.01245407 0.00177754 0.00968596 0.00095736 0.00748680 0.03292755 0.00708855 0.00343773 
0.00572869 0.01139797 0.00248764 0.00139012 0.00520119 0.00132671 0.00449547 0.00333877 0.01221702 0.00174810 0.00933099 0.00094098 0.00751251 0.03325351 0.00709139 0.00355523 
0.00587358 0.01136296 0.00250908 0.00136870 0.00524714 0.00131627 0.00454794 0.00324159 0.01198344 0.00171981 0.00899498 0.00092485 0.00755229 0.03358941 0.00710680 0.00367158 
0.00604603 0.01133124 0.00253174 0.00134869 0.00529674 0.00130507 0.00460434 0.00314277 0.01175440 0.00169277 0.00867894 0.00090907 0.00760610 0.03393467 0.00713472 0.00378621 
0.00624592 0.01130296 0.00255567 0.00133029 0.00534952 0.00129321 0.00466439 0.00304263 0.01153092 0.00166707 0.00838378 0.00089376 0.00767384 0.03428868 0.00717506 0.00389850 
0.00647307 0.01127830 0.00258090 0.00131370 0.00540502 0.00128079 0.00472780 0.00294152 0.01131402 0.00164279 0.00811028 0.00087901 0.00775532 0.03465085 0.00722769 0.00400782 
0.00672718 0.01125743 0.00260749 0.00129912 0.00546278 0.00126796 0.00479428 0.00283978 0.01110470 0.00162000 0.00785911 0.00086492 0.00785028 0.03502053 0.00729239 0.00411354 
0.00700787 0.01124051 0.00263549 0.00128674 0.00552236 0.00125483 0.00486348 0.00273775 0.01090391 0.00159880 0.00763084 0.00085159 0.00795838 0.03539709 0.00736892 0.00421503 
0.00731467 0.01122773 0.00266499 0.00127679 0.00558334 0.00124154 0.00493508 0.00263578 0.01071256 0.00157925 0.00742590 0.00083911 0.00807922 0.03577985 0.00745698 0.00431163 
0.00764699 0.01121926 0.00269605 0.00126945 0.00564531 0.00122823 0.00500869 0.00253422 0.01053154 0.00156143 0.00724461 0.00082756 0.00821229 0.03616813 0.00755623 0.00440271 
0.00800416 0.01121527 0.00272876 0.00126493 0.00570788 0.00121506 0.00508395 0.00243341 0.01036169 0.00154539 0.00708718 0.00081703 0.00835706 0.03656124 0.00766626 0.00448764 
0.00838540 0.01121594 0.00276322 0.00126342 0.00577067 0.00120217 0.00516045 0.00233371 0.01020376 0.00153122 0.00695367 0.00080759 0.00851290 0.03695845 0.00778664 0.00456577 
0.00878984 0.01122143 0.00279952 0.00126512 0.00583334 0.00118972 0.00523779 0.00223544 0.01005848 0.00151896 0.00684407 0.00079931 0.00867914 0.03735902 0.00791689 0.00463650 
0.00921651 0.01123190 0.00283775 0.00127019 0.00589558 0.00117785 0.00531554 0.00213896 0.00992652 0.00150866 0.00675821 0.00079225 0.00885502 0.03776217 0.00805647 0.00469923 
0.00966433 0.01124750 0.00287801 0.00127883 0.00595709 0.00116674 0.00539327 0.00204459 0.00980845 0.00150038 0.00669583 0.00078647 0.00903976 0.03816711 0.00820483 0.00475337 
0.01013215 0.01126838 0.00292040 0.00129118 0.00601759 0.00115652 0.00547053 0.00195266 0.00970480 0.00149416 0.00665656 0.00078202 0.00923252 0.03857301 0.00836135 0.00479837 
0.01061869 0.01129465 0.00296502 0.00130741 0.00607686 0.00114735 0.00554687 0.00186347 0.00961602 0.00149003 0.00663993 0.00077893 0.00943240 0.03897903 0.00852539 0.00483370 
0.01112262 0.01132643 0.00301195 0.00132764 0.00613470 0.00113939 0.00562183 0.00177733 0.00954249 0.00148803 0.00664534 0.00077725 0.00963848 0.03938429 0.00869629 0.00485887 
0.01164249 0.01136383 0.00306128 0.00135201 0.00619092 0.00113278 0.00569495 0.00169453 0.00948450 0.00148817 0.00667214 0.00077699 0.00984981 0.03978787 0.00887335 0.00487342 
0.01217678 0.01140691 0.00311309 0.00138062 0.00624538 0.00112767 0.00576577 0.00161535 0.00944228 0.00149048 0.00671955 0.00077817 0.01006540 0.04018884 0.00905583 0.00487695 
0.01272388 0.01145575 0.00316746 0.00141356 0.00629798 0.00112417 0.00583382 0.00154005 0.00941596 0.00149496 0.00678673 0.00078081 0.01028426 0.04058622 0.00924298 0.00486907 
0.01328210 0.01151037 0.00322444 0.00145090 0.00634863 0.00112244 0.00589866 0.00146889 0.00940561 0.00150162 0.00687275 0.00078490 0.01050535 0.04097902 0.00943403 0.00484948 
0.01384970 0.01157081 0.00328408 0.00149270 0.00639729 0.00112258 0.00595983 0.00140211 0.00941122 0.00151046 0.00697663 0.00079044 0.01072767 0.04136621 0.00962819 0.00481790 
0.01442485 0.01163704 0.00334642 0.00153899 0.00644395 0.00112471 0.00601689 0.00133991 0.00943268 0.00152147 0.00709729 0.00079741 0.01095018 0.04174672 0.00982466 0.00477412 
0.01500568 0.01170903 0.00341149 0.00158979 0.00648862 0.00112892 0.00606942 0.00128250 0.00946982 0.00153462 0.00723363 0.00080579 0.01117187 0.04211947 0.01002262 0.00471801 
0.01559024 0.01178674 0.00347930 0.00164507 0.00653137 0.00113531 0.00611700 0.00123007 0.00952238 0.00154989 0.00738448 0.00081555 0.01139173 0.04248337 0.01022127 0.00464948 
0.01617656 0.01187007 0.00354985 0.00170480 0.00657226 0.00114397 0.00615926 0.00118279 0.00959003 0.00156726 0.00754864 0.00082665 0.01160879 0.04283727 0.01041978 0.00456850 
0.01676261 0.01195892 0.00362311 0.00176894 0.00661141 0.00115494 0.00619580 0.00114080 0.00967237 0.00158668 0.00772487 0.00083904 0.01182207 0.04318003 0.01061734 0.00447515 
0.01734635 0.01205313 0.00369905 0.00183739 0.00664897 0.00116830 0.00622630 0.00110423 0.00976891 0.00160810 0.00791191 0.00085268 0.01203067 0.04351050 0.01081313 0.00436954 
0.01792571 0.01215255 0.00377762 0.00191006 0.00668508 0.00118407 0.00625044 0.00107320 0.00987912 0.00163147 0.00810849 0.00086750 0.01223368 0.04382751 0.01100636 0.00425188 
0.01849860 0.01225697 0.00385874 0.00198682 0.00671995 0.00120229 0.00626791 0.00104780 0.01000238 0.00165673 0.00831331 0.00088345 0.01243028 0.04412988 0.01119624 0.00412246 
0.01906292 0.01236616 0.00394233 0.00206751 0.00675379 0.00122296 0.00627848 0.00102810 0.01013801 0.00168382 0.00852508 0.00090045 0.01261966 0.04441645 0.01138201 0.00398163 
0.01961659 0.01247988 0.00402828 0.00215196 0.00678683 0.00124609 0.00628192 0.00101415 0.01028528 0.00171265 0.00874253 0.00091842 0.01280109 0.04468606 0.01156292 0.00382983 
0.02015753 0.01259784 0.00411646 0.00223997 0.00681933 0.00127166 0.00627806 0.00100599 0.01044339 0.00174316 0.00896440 0.00093729 0.01297390 0.04493757 0.01173825 0.00366760 
0.02068370 0.01271973 0.00420674 0.00233131 0.00685157 0.00129963 0.00626674 0.00100364 0.01061151 0.00177525 0.00918943 0.00095696 0.01313748 0.04516986 0.01190732 0.00349553 
0.02119309 0.01284523 0.00429896 0.00242576 0.00688382 0.00132996 0.00624788 0.00100710 0.01078875 0.00180883 0.00941641 0.00097736 0.01329129 0.04538184 0.01206948 0.00331431 
0.02168371 0.01297396 0.00439294 0.00252303 0.00691639 0.00136258 0.00622141 0.00101634 0.01097419 0.00184381 0.00964416 0.00099839 0.01343487 0.04557247 0.01222412 0.00312471 
0.02215366 0.01310556 0.00448849 0.00262285 0.00694958 0.00139741 0.00618734 0.00103132 0.01116685 0.00188008 0.00987155 0.00101996 0.01356782 0.04574075 0.01237065 0.00292757 
0.02260107 0.01323962 0.00458542 0.00272492 0.00698372 0.00143437 0.00614569 0.00105200 0.01136575 0.00191754 0.01009749 0.00104197 0.01368984 0.04588575 0.01250856 0.00272384 
0.02302418 0.01337572 0.00468349 0.00282890 0.00701912 0.00147335 0.00609656 0.00107830 0.01156987 0.00195608 0.01032095 0.00106431 0.01380069 0.04600660 0.01263738 0.00251450 
0.02342129 0.01351342 0.00478248 0.00293448 0.00705611 0.00151423 0.00604009 0.00111013 0.01177817 0.00199558 0.01054096 0.00108690 0.01390025 0.04610252 0.01275666 0.00230065 
0.02379079 0.01365228 0.00488215 0.00304128 0.00709500 0.00155687 0.00597646 0.00114738 0.01198959 0.00203594 0.01075661 0.00110963 0.01398844 0.04617280 0.01286605 0.00208343 
0.02413118 0.01379182 0.00498225 0.00314896 0.00713611 0.00160114 0.00590590 0.00118995 0.01220308 0.00207702 0.01096707 0.00113241 0.01406530 0.04621684 0.01296522 0.00186406 
0.02444108 0.01393157 0.00508251 0.00325713 0.00717975 0.00164687 0.00582871 0.00123769 0.01241759 0.00211871 0.01117157 0.00115512 0.01413093 0.04623414 0.01305393 0.00164382 
0.02471923 0.01407105 0.00518266 0.00336541 0.00722623 0.00169389 0.00574523 0.00129046 0.01263204 0.00216088 0.01136943 0.00117769 0.01418553 0.04622434 0.01313198 0.00142407 
0.02496448 0.01420978 0.00528244 0.00347340 0.00727582 0.00174204 0.00565584 0.00134810 0.01284540 0.00220342 0.01156004 0.00120000 0.01422939 0.04618717 0.01319924 0.00120618 
0.02517584 0.01434726 0.00538157 0.00358071 0.00732880 0.00179111 0.00556098 0.00141044 0.01305664 0.00224620 0.01174288 0.00122196 0.01426286 0.04612252 0.01325565 0.00099162 
0.02535244 0.01448302 0.00547976 0.00368694 0.00738543 0.00184092 0.00546112 0.00147731 0.01326474 0.00228909 0.01191751 0.00124349 0.01428639 0.04603043 0.01330121 0.00078188 
0.02549358 0.01461657 0.00557675 0.00379169 0.00744594 0.00189127 0.00535680 0.00154850 0.01346873 0.00233198 0.01208359 0.00126450 0.01430050 0.04591106 0.01333598 0.00057847 
0.02559870 0.01474743 0.00567225 0.00389455 0.00751055 0.00194194 0.00524859 0.00162382 0.01366767 0.00237475 0.01224084 0.00128490 0.01430578 0.04576476 0.01336010 0.00038296 
0.02566741 0.01487514 0.00576598 0.00399513 0.00757943 0.00199273 0.00513711 0.00170305 0.01386064 0.00241727 0.01238909 0.00130460 0.01430289 0.04559202 0.01337377 0.00019692 
0.02569949 0.01499925 0.00585769 0.00409304 0.00765276 0.00204342 0.00502300 0.00178600 0.01404679 0.00245943 0.01252825 0.00132355 0.01429255 0.04539353 0.01337726 0.00002194 
0.02569486 0.01511932 0.00594710 0.00418790 0.00773066 0.00209379 0.00490696 0.00187243 0.01422530 0.00250112 0.01265830 0.00134165 0.01427557 0.04517011 0.01337089 0.00014037 
0.02565364 0.01523493 0.00603398 0.00427932 0.00781325 0.00214363 0.00478970 0.00196211 0.01439542 0.00254224 0.01277933 0.00135885 0.01425277 0.04492278 0.01335507 0.00028841 
0.02557612 0.01534570 0.00611806 0.00436695 0.00790058 0.00219271 0.00467198 0.00205483 0.01455645 0.00258267 0.01289149 0.00137509 0.01422506 0.04465275 0.01333024 0.00042061 
0.02546273 0.01545124 0.00619912 0.00445044 0.00799269 0.00224082 0.00455457 0.00215033 0.01470776 0.00262231 0.01299503 0.00139031 0.01419336 0.04436139 0.01329692 0.00053538 
0.02531411 0.01555120 0.00627695 0.00452946 0.00808960 0.00228774 0.00443828 0.00224839 0.01484880 0.00266108 0.01309026 0.00140446 0.01415866 0.04405024 0.01325570 0.00063120 
0.02513105 0.01564527 0.00635134 0.00460369 0.00819127 0.00233328 0.00432392 0.00234877 0.01497906 0.00269889 0.01317756 0.00141750 0.01412195 0.04372103 0.01320719 0.00070656 
0.02491452 0.01573316 0.00642211 0.00467285 0.00829762 0.00237721 0.00421232 0.00245123 0.01509814 0.00273564 0.01325740 0.00142940 0.01408427 0.04337566 0.01315207 0.00076001 
0.02466563 0.01581461 0.00648907 0.00473665 0.00840857 0.00241936 0.00410434 0.00255552 0.01520570 0.00277128 0.01333030 0.00144011 0.01404664 0.04301618 0.01309107 0.00079015 
0.02438569 0.01588938 0.00655209 0.00479486 0.00852396 0.00245953 0.00400080 0.00266142 0.01530149 0.00280572 0.01339683 0.00144962 0.01401014 0.04264483 0.01302496 0.00079564 
0.02407612 0.01595729 0.00661102 0.00484725 0.00864363 0.00249753 0.00390257 0.00276869 0.01538534 0.00283892 0.01345764 0.00145791 0.01397581 0.04226396 0.01295454 0.00077523 
0.02373853 0.01601817 0.00666575 0.00489362 0.00876737 0.00253321 0.00381049 0.00287710 0.01545718 0.00287080 0.01351342 0.00146497 0.01394470 0.04187609 0.01288065 0.00072774 
0.02337464 0.01607191 0.00671619 0.00493379 0.00889492 0.00256641 0.00372539 0.00298641 0.01551701 0.00290133 0.01356488 0.00147079 0.01391784 0.04148387 0.01280416 0.00065210 
0.02298633 0.01611840 0.00676227 0.00496764 0.00902602 0.00259697 0.00364809 0.00309639 0.01556492 0.00293047 0.01361280 0.00147537 0.01389625 0.04109003 0.01272596 0.00054732 
0.02257557 0.01615762 0.00680393 0.00499504 0.00916034 0.00262478 0.00357939 0.00320684 0.01560111 0.00295819 0.01365797 0.00147873 0.01388091 0.04069745 0.01264696 0.00041253 
0.02214448 0.01618952 0.00684114 0.00501592 0.00929756 0.00264971 0.00352009 0.00331752 0.01562585 0.00298445 0.01370122 0.00148088 0.01387277 0.04030907 0.01256808 0.00024699 
0.02169527 0.01621413 0.00687389 0.00503022 0.00943729 0.00267165 0.00347092 0.00342824 0.01563950 0.00300925 0.01374338 0.00148183 0.01387275 0.03992790 0.01249024 0.00005007 
0.02123023 0.01623151 0.00690219 0.00503792 0.00957915 0.00269053 0.00343261 0.00353879 0.01564252 0.00303259 0.01378532 0.00148161 0.01388169 0.03955703 0.01241437 0.00017873 
0.02075175 0.01624173 0.00692607 0.00503902 0.00972269 0.00270627 0.00340584 0.00364896 0.01563543 0.00305444 0.01382787 0.00148026 0.01390041 0.03919954 0.01234139 0.00043976 
0.02026228 0.01624492 0.00694557 0.00503358 0.00986749 0.00271882 0.00339125 0.00375857 0.01561887 0.00307484 0.01387190 0.00147780 0.01392963 0.03885856 0.01227220 0.00073323 
0.01976432 0.01624122 0.00696077 0.00502166 0.01001306 0.00272815 0.00338944 0.00386744 0.01559353 0.00309378 0.01391824 0.00147429 0.01397004 0.03853720 0.01220770 0.00105921 
0.01926043 0.01623080 0.00697176 0.00500337 0.01015893 0.00273422 0.00340096 0.00397538 0.01556020 0.00311130 0.01396773 0.00146977 0.01402222 0.03823854 0.01214874 0.00141760 
0.01875317 0.01621387 0.00697863 0.00497883 0.01030460 0.00273704 0.00342629 0.00408223 0.01551973 0.00312741 0.01402115 0.00146428 0.01408669 0.03796563 0.01209615 0.00180815 
0.01824515 0.01619065 0.00698150 0.00494820 0.01044954 0.00273663 0.00346588 0.00418783 0.01547304 0.00314216 0.01407929 0.00145788 0.01416389 0.03772142 0.01205073 0.00223044 
0.01773894 0.01616140 0.00698051 0.00491168 0.01059325 0.00273302 0.00352011 0.00429202 0.01542112 0.00315558 0.01414287 0.00145063 0.01425416 0.03750880 0.01201324 0.00268390 
0.01723711 0.01612638 0.00697580 0.00486948 0.01073519 0.00272625 0.00358929 0.00439466 0.01536502 0.00316772 0.01421258 0.00144259 0.01435775 0.03733053 0.01198438 0.00316780 
0.01674222 0.01608587 0.00696753 0.00482184 0.01087483 0.00271640 0.00367366 0.00449562 0.01530585 0.00317864 0.01428907 0.00143383 0.01447482 0.03718922 0.01196479 0.00368122 
0.01625676 0.01604018 0.00695588 0.00476903 0.01101166 0.00270355 0.00377342 0.00459476 0.01524475 0.00318838 0.01437293 0.00142440 0.01460543 0.03708736 0.01195508 0.00422311 
0.01578318 0.01598963 0.00694102 0.00471132 0.01114513 0.00268779 0.00388867 0.00469196 0.01518291 0.00319700 0.01446466 0.00141438 0.01474955 0.03702724 0.01195578 0.00479223 
0.01532383 0.01593452 0.00692313 0.00464905 0.01127474 0.00266924 0.00401945 0.00478711 0.01512157 0.00320458 0.01456474 0.00140383 0.01490702 0.03701095 0.01196734 0.00538720 
0.01488102 0.01587520 0.00690241 0.00458252 0.01139999 0.00264803 0.00416575 0.00488011 0.01506196 0.00321118 0.01467355 0.00139283 0.01507760 0.03704037 0.01199017 0.00600647 
0.01445692 0.01581198 0.00687905 0.00451208 0.01152037 0.00262431 0.00432744 0.00497085 0.01500537 0.00321686 0.01479141 0.00138145 0.01526096 0.03711715 0.01202459 0.00664834 
0.01405361 0.01574521 0.00685325 0.00443811 0.01163543 0.00259822 0.00450437 0.00505925 0.01495307 0.00322170 0.01491854 0.00136976 0.01545664 0.03724270 0.01207083 0.00731097 
0.01367303 0.01567522 0.00682520 0.00436096 0.01174470 0.00256995 0.00469628 0.00514522 0.01490634 0.00322578 0.01505509 0.00135782 0.01566410 0.03741814 0.01212908 0.00799238 
0.01331702 0.01560233 0.00679509 0.00428102 0.01184775 0.00253966 0.00490284 0.00522868 0.01486648 0.00322915 0.01520114 0.00134571 0.01588270 0.03764434 0.01219941 0.00869046 
0.01298723 0.01552686 0.00676314 0.00419868 0.01194418 0.00250754 0.00512367 0.00530958 0.01483474 0.00323191 0.01535667 0.00133349 0.01611168 0.03792187 0.01228184 0.00940297 
0.01268518 0.01544911 0.00672951 0.00411435 0.01203363 0.00247380 0.00535831 0.00538783 0.01481237 0.00323412 0.01552156 0.00132124 0.01635023 0.03825099 0.01237628 0.01012755 
0.01241224 0.01536940 0.00669439 0.00402842 0.01211573 0.00243864 0.00560622 0.00546339 0.01480057 0.00323585 0.01569561 0.00130902 0.01659741 0.03863169 0.01248259 0.01086175 
0.01216957 0.01528800 0.00665797 0.00394130 0.01219019 0.00240226 0.00586680 0.00553621 0.01480053 0.00323717 0.01587853 0.00129688 0.01685223 0.03906361 0.01260052 0.01160302 
0.01195819 0.01520518 0.00662039 0.00385338 0.01225674 0.00236489 0.00613939 0.00560623 0.01481337 0.00323816 0.01606995 0.00128490 0.01711359 0.03954610 0.01272975 0.01234871 
0.01177891 0.01512119 0.00658183 0.00376507 0.01231513 0.00232674 0.00642328 0.00567343 0.01484016 0.00323888 0.01626938 0.00127313 0.01738035 0.04007819 0.01286990 0.01309613 
0.01163238 0.01503627 0.00654241 0.00367676 0.01236516 0.00228804 0.00671767 0.00573776 0.01488191 0.00323939 0.01647628 0.00126161 0.01765127 0.04065860 0.01302049 0.01384250 
0.01151902 0.01495062 0.00650229 0.00358884 0.01240669 0.00224900 0.00702174 0.00579920 0.01493955 0.00323975 0.01668998 0.00125041 0.01792507 0.04128573 0.01318098 0.01458502 
0.01143909 0.01486444 0.00646156 0.00350168 0.01243959 0.00220985 0.00733459 0.00585772 0.01501393 0.00324002 0.01690978 0.00123956 0.01820040 0.04195768 0.01335076 0.01532085 
0.01139263 0.01477789 0.00642035 0.00341563 0.01246380 0.00217080 0.00765530 0.00591331 0.01510583 0.00324026 0.01713484 0.00122911 0.01847589 0.04267228 0.01352916 0.01604712 
0.01137951 0.01469112 0.00637873 0.00333107 0.01247927 0.00213206 0.00798289 0.00596594 0.01521593 0.00324050 0.01736430 0.00121910 0.01875012 0.04342705 0.01371542 0.01676098 
0.01139939 0.01460425 0.00633678 0.00324830 0.01248603 0.00209386 0.00831635 0.00601561 0.01534480 0.00324079 0.01759718 0.00120955 0.01902163 0.04421925 0.01390878 0.01745957 
0.01145174 0.01451738 0.00629456 0.00316765 0.01248412 0.00205639 0.00865463 0.00606231 0.01549291 0.00324117 0.01783246 0.00120050 0.01928895 0.04504589 0.01410837 0.01814008 
0.01153584 0.01443058 0.00625211 0.00308942 0.01247364 0.00201984 0.00899666 0.00610604 0.01566063 0.00324168 0.01806906 0.00119198 0.01955061 0.04590372 0.01431333 0.01879971 
0.01165080 0.01434390 0.00620947 0.00301388 0.01245472 0.00198441 0.00934135 0.00614681 0.01584821 0.00324233 0.01830584 0.00118398 0.01980511 0.04678931 0.01452271 0.01943575 
0.01179553 0.01425738 0.00616663 0.00294128 0.01242754 0.00195028 0.00968758 0.00618461 0.01605578 0.00324316 0.01854159 0.00117655 0.02005100 0.04769900 0.01473558 0.02004552 
0.01196881 0.01417101 0.00612360 0.00287184 0.01239232 0.00191760 0.01003424 0.00621945 0.01628336 0.00324417 0.01877509 0.00116967 0.02028681 0.04862899 0.01495095 0.02062647 
0.01216922 0.01408479 0.00608035 0.00280578 0.01234929 0.00188653 0.01038019 0.00625136 0.01653082 0.00324537 0.01900507 0.00116335 0.02051112 0.04957529 0.01516783 0.02117611 
0.01239520 0.01399869 0.00603685 0.00274326 0.01229875 0.00185722 0.01072431 0.00628034 0.01679794 0.00324679 0.01923023 0.00115760 0.02072254 0.05053383 0.01538521 0.02169208 
0.01264506 0.01391264 0.00599306 0.00268445 0.01224102 0.00182978 0.01106547 0.00630643 0.01708434 0.00324840 0.01944927 0.00115240 0.02091973 0.05150042 0.01560208 0.02217214 
0.01291696 0.01382659 0.00594891 0.00262947 0.01217644 0.00180435 0.01140256 0.00632964 0.01738955 0.00325021 0.01966087 0.00114774 0.02110141 0.05247081 0.01581744 0.02261420 
0.01320895 0.01374045 0.00590433 0.00257841 0.01210538 0.00178101 0.01173449 0.00635001 0.01771294 0.00325221 0.01986370 0.00114362 0.02126637 0.05344071 0.01603030 0.02301629 
0.01351898 0.01365412 0.00585923 0.00253135 0.01202824 0.00175984 0.01206016 0.00636756 0.01805377 0.00325438 0.02005645 0.00114000 0.02141346 0.05440583 0.01623968 0.02337663 
0.01384489 0.01356750 0.00581353 0.00248833 0.01194545 0.00174092 0.01237855 0.00638235 0.01841119 0.00325671 0.02023783 0.00113687 0.02154164 0.05536188 0.01644463 0.02369359 
0.01418445 0.01348048 0.00576711 0.00244937 0.01185745 0.00172429 0.01268862 0.00639440 0.01878421 0.00325916 0.02040657 0.00113420 0.02164995 0.05630464 0.01664424 0.02396573 
0.01453537 0.01339292 0.00571986 0.00241446 0.01176468 0.00170999 0.01298939 0.00640378 0.01917174 0.00326172 0.02056143 0.00113195 0.02173754 0.05722997 0.01683764 0.02419178 
0.01489528 0.01330471 0.00567168 0.00238357 0.01166762 0.00169804 0.01327994 0.00641051 0.01957258 0.00326435 0.02070123 0.00113010 0.02180367 0.05813382 0.01702400 0.02437070 
0.01526181 0.01321572 0.00562244 0.00235663 0.01156674 0.00168844 0.01355935 0.00641467 0.01998541 0.00326702 0.02082483 0.00112859 0.02184771 0.05901231 0.01720254 0.02450161 
0.01563253 0.01312582 0.00557202 0.00233358 0.01146252 0.00168118 0.01382679 0.00641631 0.02040882 0.00326969 0.02093117 0.00112740 0.02186917 0.05986168 0.01737255 0.02458386 
0.01600504 0.01303489 0.00552029 0.00231429 0.01135544 0.00167622 0.01408146 0.00641549 0.02084131 0.00327232 0.02101925 0.00112648 0.02186767 0.06067841 0.01753337 0.02461701 
0.01637692 0.01294281 0.00546714 0.00229865 0.01124598 0.00167352 0.01432263 0.00641227 0.02128129 0.00327487 0.02108814 0.00112577 0.02184300 0.06145915 0.01768441 0.02460082 
0.01674577 0.01284948 0.00541244 0.00228650 0.01113461 0.00167302 0.01454961 0.00640674 0.02172710 0.00327730 0.02113703 0.00112525 0.02179506 0.06220083 0.01782516 0.02453527 
0.01710926 0.01275479 0.00535608 0.00227768 0.01102181 0.00167464 0.01476180 0.00639897 0.02217700 0.00327957 0.02116516 0.00112485 0.02172391 0.06290060 0.01795519 0.02442056 
0.01746506 0.01265867 0.00529794 0.00227201 0.01090802 0.00167830 0.01495865 0.00638903 0.02262920 0.00328164 0.02117191 0.00112453 0.02162976 0.06355592 0.01807412 0.02425711 
0.01781096 0.01256103 0.00523793 0.00226929 0.01079369 0.00168389 0.01513966 0.00637700 0.02308185 0.00328345 0.02115676 0.00112423 0.02151296 0.06416453 0.01818169 0.02404552 
0.01814477 0.01246185 0.00517594 0.00226930 0.01067923 0.00169129 0.01530444 0.00636298 0.02353308 0.00328498 0.02111929 0.00112392 0.02137403 0.06472450 0.01827769 0.02378665 
0.01846444 0.01236107 0.00511190 0.00227183 0.01056504 0.00170040 0.01545262 0.00634705 0.02398095 0.00328617 0.02105921 0.00112354 0.02121362 0.06523419 0.01836202 0.02348152 
0.01876799 0.01225869 0.00504574 0.00227664 0.01045150 0.00171106 0.01558395 0.00632931 0.02442353 0.00328700 0.02097637 0.00112304 0.02103256 0.06569233 0.01843464 0.02313138 
0.01905357 0.01215474 0.00497738 0.00228349 0.01033896 0.00172313 0.01569822 0.00630986 0.02485888 0.00328741 0.02087073 0.00112237 0.02083181 0.06609796 0.01849562 0.02273765 
0.01931945 0.01204925 0.00490680 0.00229212 0.01022773 0.00173647 0.01579530 0.00628878 0.02528506 0.00328738 0.02074238 0.00112149 0.02061248 0.06645049 0.01854508 0.02230196 
0.01956403 0.01194229 0.00483395 0.00230230 0.01011812 0.00175091 0.01587513 0.00626619 0.02570012 0.00328688 0.02059155 0.00112035 0.02037583 0.06674965 0.01858325 0.02182611 
0.01978586 0.01183396 0.00475883 0.00231377 0.01001037 0.00176628 0.01593772 0.00624219 0.02610215 0.00328587 0.02041861 0.00111892 0.02012325 0.06699554 0.01861042 0.02131207 
0.01998361 0.01172439 0.00468145 0.00232628 0.00990471 0.00178243 0.01598315 0.00621687 0.02648929 0.00328433 0.02022406 0.00111715 0.01985627 0.06718858 0.01862696 0.02076196 
0.02015615 0.01161374 0.00460182 0.00233957 0.00980134 0.00179917 0.01601157 0.00619036 0.02685969 0.00328224 0.02000854 0.00111502 0.01957656 0.06732954 0.01863332 0.02017806 
0.02030249 0.01150219 0.00451999 0.00235341 0.00970040 0.00181634 0.01602320 0.00616275 0.02721157 0.00327957 0.01977283 0.00111248 0.01928589 0.06741949 0.01863002 0.01956279 
0.02042179 0.01138998 0.00443603 0.00236755 0.00960201 0.00183375 0.01601830 0.00613416 0.02754323 0.00327632 0.01951782 0.00110951 0.01898614 0.06745984 0.01861761 0.01891870 
0.02051341 0.01127735 0.00435002 0.00238175 0.00950625 0.00185124 0.01599724 0.00610468 0.02785302 0.00327248 0.01924456 0.00110608 0.01867932 0.06745228 0.01859674 0.01824843 
0.02057686 0.01116459 0.00426206 0.00239581 0.00941317 0.00186863 0.01596039 0.00607443 0.02813939 0.00326804 0.01895420 0.00110219 0.01836749 0.06739879 0.01856807 0.01755475 
0.02061182 0.01105204 0.00417228 0.00240950 0.00932277 0.00188575 0.01590824 0.00604352 0.02840088 0.00326300 0.01864803 0.00109780 0.01805283 0.06730160 0.01853234 0.01684049 
0.02061815 0.01094003 0.00408082 0.00242263 0.00923502 0.00190243 0.01584127 0.00601204 0.02863612 0.00325736 0.01832746 0.00109291 0.01773756 0.06716318 0.01849031 0.01610859 
0.02059589 0.01082895 0.00398784 0.00243501 0.00914985 0.00191853 0.01576006 0.00598011 0.02884388 0.00325113 0.01799398 0.00108752 0.01742396 0.06698622 0.01844275 0.01536202 
0.02054522 0.01071923 0.00389354 0.00244647 0.00906717 0.00193387 0.01566520 0.00594781 0.02902301 0.00324434 0.01764922 0.00108161 0.01711438 0.06677360 0.01839050 0.01460379 
0.02046651 0.01061129 0.00379812 0.00245686 0.00898685 0.00194833 0.01555736 0.00591526 0.02917251 0.00323698 0.01729487 0.00107521 0.01681116 0.06652837 0.01833438 0.01383698 
0.02036028 0.01050561 0.00370181 0.00246605 0.00890871 0.00196175 0.01543721 0.00588253 0.02929151 0.00322909 0.01693274 0.00106832 0.01651667 0.06625371 0.01827523 0.01306466 
0.02022720 0.01040269 0.00360484 0.00247391 0.00883256 0.00197402 0.01530549 0.00584973 0.02937927 0.00322070 0.01656469 0.00106094 0.01623329 0.06595290 0.01821387 0.01228990 
0.02006809 0.01030305 0.00350747 0.00248035 0.00875819 0.00198501 0.01516294 0.00581694 0.02943519 0.00321183 0.01619265 0.00105311 0.01596337 0.06562932 0.01815114 0.01151578 
0.01988393 0.01020722 0.00340999 0.00248528 0.00868534 0.00199462 0.01501034 0.00578424 0.02945880 0.00320251 0.01581863 0.00104485 0.01570924 0.06528637 0.01808785 0.01074536 
0.01967579 0.01011577 0.00331268 0.00248865 0.00861374 0.00200275 0.01484849 0.00575170 0.02944982 0.00319279 0.01544466 0.00103618 0.01547317 0.06492751 0.01802479 0.00998163 
0.01944492 0.01002928 0.00321584 0.00249041 0.00854311 0.00200931 0.01467823 0.00571939 0.02940809 0.00318270 0.01507281 0.00102715 0.01525738 0.06455615 0.01796271 0.00922757 
0.01919262 0.00994833 0.00311980 0.00249055 0.00847313 0.00201423 0.01450037 0.00568739 0.02933359 0.00317230 0.01470518 0.00101779 0.01506402 0.06417568 0.01790234 0.00848608 
0.01892036 0.00987352 0.00302487 0.00248906 0.00840348 0.00201746 0.01431576 0.00565574 0.02922649 0.00316162 0.01434388 0.00100814 0.01489512 0.06378942 0.01784434 0.00775999 
0.01862964 0.00980547 0.00293140 0.00248597 0.00833383 0.00201895 0.01412526 0.00562451 0.02908707 0.00315071 0.01399102 0.00099827 0.01475264 0.06340059 0.01778933 0.00705206 
0.01832210 0.00974477 0.00283973 0.00248131 0.00826383 0.00201867 0.01392971 0.00559373 0.02891581 0.00313963 0.01364867 0.00098821 0.01463840 0.06301229 0.01773789 0.00636492 
0.01799940 0.00969205 0.00275021 0.00247514 0.00819315 0.00201659 0.01372997 0.00556346 0.02871329 0.00312843 0.01331891 0.00097803 0.01455407 0.06262748 0.01769051 0.00570114 
0.01766330 0.00964790 0.00266319 0.00246754 0.00812142 0.00201272 0.01352686 0.00553371 0.02848027 0.00311715 0.01300377 0.00096778 0.01450121 0.06224892 0.01764762 0.00506314 
0.01731557 0.00961294 0.00257903 0.00245859 0.00804830 0.00200705 0.01332122 0.00550452 0.02821765 0.00310585 0.01270521 0.00095753 0.01448118 0.06187920 0.01760960 0.00445324 
0.01695806 0.00958773 0.00249807 0.00244840 0.00797345 0.00199962 0.01311388 0.00547591 0.02792644 0.00309459 0.01242514 0.00094735 0.01449521 0.06152070 0.01757672 0.00387362 
0.01659260 0.00957286 0.00242067 0.00243711 0.00789654 0.00199044 0.01290562 0.00544789 0.02760782 0.00308341 0.01216541 0.00093730 0.01454430 0.06117554 0.01754920 0.00332631 
0.01622105 0.00956889 0.00234719 0.00242484 0.00781723 0.00197958 0.01269723 0.00542047 0.02726308 0.00307237 0.01192775 0.00092746 0.01462930 0.06084561 0.01752715 0.00281321 
0.01584527 0.00957633 0.00227795 0.00241175 0.00773522 0.00196709 0.01248946 0.00539365 0.02689363 0.00306152 0.01171383 0.00091788 0.01475083 0.06053255 0.01751064 0.00233607 
0.01546710 0.00959569 0.00221330 0.00239800 0.00765023 0.00195303 0.01228304 0.00536743 0.02650100 0.00305091 0.01152518 0.00090866 0.01490932 0.06023769 0.01749961 0.00189646 
0.01508838 0.00962745 0.00215356 0.00238376 0.00756196 0.00193749 0.01207867 0.00534179 0.02608682 0.00304058 0.01136322 0.00089985 0.01510498 0.05996212 0.01749396 0.00149583 
0.01471087 0.00967204 0.00209903 0.00236922 0.00747019 0.00192056 0.01187701 0.00531672 0.02565282 0.00303058 0.01122924 0.00089153 0.01533780 0.05970662 0.01749349 0.00113543 
0.01433633 0.00972986 0.00205002 0.00235455 0.00737468 0.00190234 0.01167871 0.00529220 0.02520082 0.00302095 0.01112442 0.00088378 0.01560754 0.05947168 0.01749790 0.00081634 
0.01396645 0.00980126 0.00200681 0.00233995 0.00727525 0.00188294 0.01148435 0.00526821 0.02473271 0.00301173 0.01104975 0.00087665 0.01591375 0.05925752 0.01750684 0.00053950 
0.01360283 0.00988657 0.00196966 0.00232562 0.00717172 0.00186248 0.01129449 0.00524471 0.02425047 0.00300296 0.01100611 0.00087023 0.01625574 0.05906404 0.01751989 0.00030566 
0.01324704 0.00998603 0.00193881 0.00231176 0.00706398 0.00184107 0.01110966 0.00522167 0.02375611 0.00299465 0.01099418 0.00086457 0.01663262 0.05889088 0.01753653 0.00011539 
0.01290054 0.01009986 0.00191450 0.00229856 0.00695191 0.00181887 0.01093034 0.00519906 0.02325170 0.00298685 0.01101452 0.00085975 0.01704324 0.05873740 0.01755621 0.00003089 
0.01256471 0.01022821 0.00189691 0.00228622 0.00683547 0.00179599 0.01075695 0.00517685 0.02273936 0.00297958 0.01106749 0.00085581 0.01748626 0.05860271 0.01757828 0.00013297 
0.01224084 0.01037119 0.00188623 0.00227494 0.00671463 0.00177258 0.01058990 0.00515498 0.02222121 0.00297285 0.01115329 0.00085282 0.01796014 0.05848563 0.01760206 0.00019076 
0.01193010 0.01052884 0.00188260 0.00226491 0.00658941 0.00174880 0.01042953 0.00513343 0.02169940 0.00296668 0.01127194 0.00085083 0.01846309 0.05838477 0.01762682 0.00020439 
0.01163357 0.01070113 0.00188616 0.00225631 0.00645986 0.00172477 0.01027615 0.00511214 0.02117609 0.00296107 0.01142330 0.00084989 0.01899316 0.05829852 0.01765178 0.00017413 
0.01135223 0.01088799 0.00189700 0.00224932 0.00632609 0.00170066 0.01013003 0.00509109 0.02065341 0.00295604 0.01160703 0.00085004 0.01954820 0.05822505 0.01767613 0.00010042 
0.01108691 0.01108926 0.00191518 0.00224411 0.00618822 0.00167661 0.00999136 0.00507022 0.02013349 0.00295158 0.01182264 0.00085131 0.02012587 0.05816236 0.01769904 0.00001616 
0.01083837 0.01130473 0.00194076 0.00224082 0.00604644 0.00165276 0.00986034 0.00504950 0.01961841 0.00294769 0.01206945 0.00085374 0.02072370 0.05810828 0.01771964 0.00017482 
0.01060722 0.01153414 0.00197373 0.00223962 0.00590096 0.00162928 0.00973709 0.00502889 0.01911023 0.00294436 0.01234661 0.00085736 0.02133904 0.05806051 0.01773707 0.00037467 
0.01039397 0.01177712 0.00201407 0.00224063 0.00575205 0.00160631 0.00962169 0.00500836 0.01861095 0.00294157 0.01265311 0.00086217 0.02196911 0.05801663 0.01775045 0.00061466 
0.01019898 0.01203329 0.00206174 0.00224397 0.00560000 0.00158397 0.00951418 0.00498788 0.01812250 0.00293931 0.01298777 0.00086820 0.02261100 0.05797413 0.01775892 0.00089357 
0.01002255 0.01230217 0.00211665 0.00224975 0.00544515 0.00156243 0.00941457 0.00496741 0.01764674 0.00293755 0.01334927 0.00087544 0.02326172 0.05793045 0.01776164 0.00121007 
0.00986480 0.01258323 0.00217869 0.00225804 0.00528786 0.00154180 0.00932282 0.00494693 0.01718546 0.00293627 0.01373613 0.00088391 0.02391818 0.05788298 0.01775777 0.00156270 
0.00972579 0.01287587 0.00224771 0.00226893 0.00512855 0.00152221 0.00923883 0.00492642 0.01674034 0.00293544 0.01414671 0.00089357 0.02457722 0.05782910 0.01774651 0.00194987 
0.00960543 0.01317944 0.00232353 0.00228247 0.00496766 0.00150380 0.00916251 0.00490586 0.01631299 0.00293501 0.01457928 0.00090443 0.02523562 0.05776622 0.01772711 0.00236987 
0.00950356 0.01349323 0.00240595 0.00229869 0.00480566 0.00148666 0.00909368 0.00488526 0.01590488 0.00293496 0.01503194 0.00091646 0.02589015 0.05769178 0.01769885 0.00282088 
0.00941989 0.01381648 0.00249474 0.00231760 0.00464305 0.00147091 0.00903215 0.00486459 0.01551740 0.00293524 0.01550272 0.00092961 0.02653756 0.05760328 0.01766109 0.00330099 
0.00935405 0.01414837 0.00258962 0.00233921 0.00448036 0.00145664 0.00897771 0.00484387 0.01515179 0.00293581 0.01598952 0.00094387 0.02717460 0.05749833 0.01761322 0.00380818 
0.00930557 0.01448804 0.00269030 0.00236350 0.00431813 0.00144395 0.00893010 0.00482309 0.01480918 0.00293662 0.01649015 0.00095918 0.02779807 0.05737466 0.01755472 0.00434036 
0.00927390 0.01483459 0.00279646 0.00239043 0.00415696 0.00143292 0.00888902 0.00480228 0.01449058 0.00293763 0.01700236 0.00097548 0.02840478 0.05723012 0.01748515 0.00489535 
0.00925841 0.01518708 0.00290775 0.00241993 0.00399741 0.00142360 0.00885417 0.00478145 0.01419684 0.00293879 0.01752383 0.00099273 0.02899166 0.05706274 0.01740412 0.00547092 
0.00925842 0.01554452 0.00302381 0.00245193 0.00384010 0.00141607 0.00882520 0.00476063 0.01392871 0.00294004 0.01805217 0.00101085 0.02955567 0.05687072 0.01731135 0.00606475 
0.00927314 0.01590593 0.00314423 0.00248634 0.00368565 0.00141037 0.00880176 0.00473984 0.01368677 0.00294135 0.01858496 0.00102978 0.03009391 0.05665246 0.01720664 0.00667449 
0.00930177 0.01627026 0.00326860 0.00252304 0.00353467 0.00140654 0.00878344 0.00471914 0.01347147 0.00294266 0.01911977 0.00104944 0.03060360 0.05640659 0.01708990 0.00729776 
0.00934345 0.01663647 0.00339648 0.00256191 0.00338780 0.00140461 0.00876986 0.00469855 0.01328312 0.00294391 0.01965415 0.00106974 0.03108208 0.05613195 0.01696110 0.00793213 
0.00939726 0.01700351 0.00352742 0.00260279 0.00324567 0.00140459 0.00876059 0.00467814 0.01312190 0.00294507 0.02018564 0.00109061 0.03152687 0.05582766 0.01682034 0.00857515 
0.00946227 0.01737032 0.00366094 0.00264552 0.00310890 0.00140649 0.00875520 0.00465795 0.01298782 0.00294609 0.02071181 0.00111194 0.03193565 0.05549306 0.01666781 0.00922435 
0.00953752 0.01773582 0.00379656 0.00268992 0.00297811 0.00141031 0.00875324 0.00463804 0.01288080 0.00294693 0.02123027 0.00113365 0.03230628 0.05512776 0.01650379 0.00987729 
0.00962203 0.01809896 0.00393377 0.00273582 0.00285391 0.00141603 0.00875426 0.00461849 0.01280059 0.00294754 0.02173865 0.00115564 0.03263683 0.05473166 0.01632866 0.01053150 
0.00971482 0.01845870 0.00407207 0.00278299 0.00273690 0.00142363 0.00875779 0.00459935 0.01274682 0.00294788 0.02223467 0.00117781 0.03292557 0.05430492 0.01614291 0.01118455 
0.00981490 0.01881402 0.00421093 0.00283123 0.00262766 0.00143306 0.00876337 0.00458070 0.01271899 0.00294794 0.02271609 0.00120006 0.03317099 0.05384797 0.01594712 0.01183403 
0.00992128 0.01916391 0.00434984 0.00288032 0.00252674 0.00144429 0.00877052 0.00456262 0.01271651 0.00294767 0.02318078 0.00122228 0.03337183 0.05336154 0.01574195 0.01247757 
0.01003300 0.01950740 0.00448827 0.00293001 0.00243468 0.00145725 0.00877879 0.00454517 0.01273864 0.00294705 0.02362669 0.00124437 0.03352703 0.05284661 0.01552816 0.01311284 
0.01014912 0.01984356 0.00462568 0.00298008 0.00235198 0.00147188 0.00878771 0.00452845 0.01278454 0.00294606 0.02405190 0.00126623 0.03363582 0.05230443 0.01530661 0.01373758 
0.01026872 0.02017151 0.00476154 0.00303027 0.00227911 0.00148811 0.00879682 0.00451253 0.01285330 0.00294470 0.02445458 0.00128776 0.03369762 0.05173654 0.01507821 0.01434959 
0.01039090 0.02049040 0.00489534 0.00308035 0.00221652 0.00150586 0.00880566 0.00449749 0.01294388 0.00294295 0.02483306 0.00130885 0.03371216 0.05114469 0.01484395 0.01494674 
0.01051483 0.02079946 0.00502655 0.00313004 0.00216461 0.00152503 0.00881381 0.00448341 0.01305518 0.00294081 0.02518580 0.00132941 0.03367936 0.05053090 0.01460491 0.01552700 
0.01063969 0.02109794 0.00515466 0.00317912 0.00212375 0.00154553 0.00882082 0.00447037 0.01318603 0.00293830 0.02551140 0.00134934 0.03359945 0.04989743 0.01436222 0.01608842 
0.01076473 0.02138519 0.00527917 0.00322731 0.00209425 0.00156726 0.00882630 0.00445845 0.01333519 0.00293541 0.02580864 0.00136856 0.03347286 0.04924671 0.01411704 0.01662916 
0.01088924 0.02166062 0.00539959 0.00327438 0.00207639 0.00159010 0.00882983 0.00444773 0.01350136 0.00293219 0.02607643 0.00138696 0.03330029 0.04858142 0.01387062 0.01714750 
0.01101257 0.02192370 0.00551544 0.00332009 0.00207040 0.00161395 0.00883105 0.00443828 0.01368322 0.00292864 0.02631389 0.00140447 0.03308267 0.04790438 0.01362420 0.01764183 
0.01113412 0.02217399 0.00562627 0.00336418 0.00207646 0.00163868 0.00882959 0.00443017 0.01387938 0.00292482 0.02652029 0.00142101 0.03282117 0.04721860 0.01337908 0.01811066 
0.01125337 0.02241112 0.00573164 0.00340644 0.00209470 0.00166417 0.00882513 0.00442346 0.01408847 0.00292076 0.02669510 0.00143651 0.03251718 0.04652722 0.01313658 0.01855267 
0.01136983 0.02263480 0.00583113 0.00344664 0.00212521 0.00169030 0.00881734 0.00441822 0.01430907 0.00291651 0.02683795 0.00145091 0.03217230 0.04583350 0.01289801 0.01896663 
0.01148311 0.02284483 0.00592435 0.00348457 0.00216801 0.00171693 0.00880595 0.00441450 0.01453980 0.00291213 0.02694867 0.00146414 0.03178835 0.04514080 0.01266470 0.01935150 
0.01159284 0.02304108 0.00601093 0.00352003 0.00222308 0.00174394 0.00879071 0.00441234 0.01477925 0.00290769 0.02702728 0.00147615 0.03136731 0.04445256 0.01243797 0.01970638 
0.01169876 0.02322352 0.00609053 0.00355284 0.00229033 0.00177120 0.00877137 0.00441181 0.01502607 0.00290327 0.02707399 0.00148691 0.03091139 0.04377227 0.01221911 0.02003053 
0.01180063 0.02339219 0.00616283 0.00358282 0.00236963 0.00179858 0.00874774 0.00441292 0.01527891 0.00289893 0.02708917 0.00149637 0.03042292 0.04310345 0.01200940 0.02032335 
0.01189829 0.02354723 0.00622754 0.00360982 0.00246080 0.00182594 0.00871967 0.00441571 0.01553647 0.00289477 0.02707341 0.00150451 0.02990440 0.04244962 0.01181008 0.02058445 
0.01199164 0.02368885 0.00628442 0.00363371 0.00256360 0.00185316 0.00868700 0.00442021 0.01579751 0.00289089 0.02702744 0.00151131 0.02935847 0.04181430 0.01162233 0.02081356 
0.01208063 0.02381733 0.00633324 0.00365435 0.00267773 0.00188012 0.00864963 0.00442643 0.01606085 0.00288737 0.02695221 0.00151677 0.02878789 0.04120095 0.01144731 0.02101063 
0.01216527 0.02393306 0.00637381 0.00367166 0.00280285 0.00190668 0.00860751 0.00443438 0.01632536 0.00288433 0.02684880 0.00152088 0.02819551 0.04061298 0.01128609 0.02117574 
0.01224562 0.02403647 0.00640598 0.00368554 0.00293857 0.00193273 0.00856058 0.00444406 0.01659002 0.00288188 0.02671848 0.00152364 0.02758427 0.04005370 0.01113969 0.02130915 
0.01232178 0.02412809 0.00642963 0.00369595 0.00308444 0.00195815 0.00850886 0.00445546 0.01685386 0.00288012 0.02656266 0.00152509 0.02695720 0.03952632 0.01100904 0.02141132 
0.01239391 0.02420849 0.00644468 0.00370283 0.00323998 0.00198282 0.00845237 0.00446857 0.01711603 0.00287918 0.02638291 0.00152523 0.02631734 0.03903392 0.01089500 0.02148284 
0.01246217 0.02427831 0.00645109 0.00370618 0.00340466 0.00200665 0.00839118 0.00448337 0.01737576 0.00287917 0.02618093 0.00152412 0.02566780 0.03857944 0.01079833 0.02152448 
0.01252681 0.02433827 0.00644883 0.00370598 0.00357790 0.00202953 0.00832539 0.00449982 0.01763240 0.00288023 0.02595857 0.00152179 0.02501170 0.03816562 0.01071971 0.02153720 
0.01258806 0.02438910 0.00643794 0.00370228 0.00375910 0.00205135 0.00825513 0.00451791 0.01788540 0.00288246 0.02571776 0.00151829 0.02435214 0.03779506 0.01065971 0.02152207 
0.01264621 0.02443161 0.00641847 0.00369510 0.00394760 0.00207205 0.00818058 0.00453758 0.01813433 0.00288600 0.02546057 0.00151368 0.02369222 0.03747011 0.01061880 0.02148034 
0.01270155 0.02446662 0.00639053 0.00368452 0.00414272 0.00209152 0.00810194 0.00455878 0.01837885 0.00289096 0.02518916 0.00150803 0.02303500 0.03719293 0.01059735 0.02141342 
0.01275439 0.02449499 0.00635425 0.00367063 0.00434377 0.00210970 0.00801944 0.00458148 0.01861878 0.00289747 0.02490575 0.00150142 0.02238350 0.03696543 0.01059560 0.02132284 
0.01280506 0.02451761 0.00630979 0.00365353 0.00455000 0.00212651 0.00793334 0.00460560 0.01885403 0.00290565 0.02461267 0.00149391 0.02174066 0.03678930 0.01061370 0.02121026 
0.01285386 0.02453538 0.00625736 0.00363335 0.00476066 0.00214190 0.00784394 0.00463109 0.01908463 0.00291561 0.02431226 0.00148561 0.02110934 0.03666595 0.01065168 0.02107746 
0.01290114 0.02454920 0.00619719 0.00361024 0.00497499 0.00215582 0.00775156 0.00465789 0.01931075 0.00292746 0.02400693 0.00147660 0.02049233 0.03659653 0.01070945 0.02092636 
0.01294720 0.02455998 0.00612954 0.00358437 0.00519219 0.00216822 0.00765655 0.00468592 0.01953265 0.00294131 0.02369911 0.00146697 0.01989229 0.03658193 0.01078682 0.02075895 
0.01299236 0.02456861 0.00605472 0.00355591 0.00541148 0.00217906 0.00755930 0.00471511 0.01975073 0.00295725 0.02339125 0.00145682 0.01931176 0.03662276 0.01088349 0.02057733 
0.01303692 0.02457597 0.00597304 0.00352506 0.00563206 0.00218832 0.00746019 0.00474540 0.01996549 0.00297538 0.02308579 0.00144627 0.01875317 0.03671932 0.01099902 0.02038368 
0.01308113 0.02458293 0.00588486 0.00349204 0.00585313 0.00219597 0.00735966 0.00477670 0.02017753 0.00299578 0.02278515 0.00143541 0.01821879 0.03687166 0.01113290 0.02018023 
0.01312527 0.02459029 0.00579056 0.00345706 0.00607390 0.00220202 0.00725815 0.00480896 0.02038757 0.00301851 0.02249174 0.00142435 0.01771076 0.03707954 0.01128449 0.01996928 
0.01316955 0.02459884 0.00569053 0.00342038 0.00629360 0.00220644 0.00715612 0.00484208 0.02059642 0.00304364 0.02220789 0.00141321 0.01723105 0.03734243 0.01145307 0.01975318 
0.01321417 0.02460932 0.00558520 0.00338223 0.00651145 0.00220925 0.00705405 0.00487601 0.02080496 0.00307123 0.02193591 0.00140208 0.01678147 0.03765951 0.01163781 0.01953427 
0.01325929 0.02462241 0.00547501 0.00334286 0.00672670 0.00221047 0.00695244 0.00491067 0.02101418 0.00310130 0.02167801 0.00139108 0.01636365 0.03802971 0.01183780 0.01931495 
0.01330504 0.02463872 0.00536041 0.00330255 0.00693862 0.00221010 0.00685179 0.00494600 0.02122513 0.00313388 0.02143632 0.00138032 0.01597907 0.03845166 0.01205204 0.01909758 
0.01335151 0.02465881 0.00524187 0.00326155 0.00714652 0.00220819 0.00675263 0.00498192 0.02143891 0.00316898 0.02121288 0.00136990 0.01562902 0.03892375 0.01227945 0.01888453 
0.01339874 0.02468315 0.00511989 0.00322015 0.00734971 0.00220476 0.00665547 0.00501837 0.02165670 0.00320659 0.02100961 0.00135992 0.01531460 0.03944412 0.01251888 0.01867813 
0.01344675 0.02471215 0.00499494 0.00317860 0.00754758 0.00219985 0.00656086 0.00505531 0.02187972 0.00324670 0.02082830 0.00135049 0.01503673 0.04001064 0.01276913 0.01848067 
0.01349550 0.02474612 0.00486753 0.00313717 0.00773951 0.00219352 0.00646932 0.00509266 0.02210919 0.00328926 0.02067062 0.00134169 0.01479617 0.04062098 0.01302893 0.01829438 
0.01354491 0.02478529 0.00473816 0.00309614 0.00792495 0.00218582 0.00638140 0.00513039 0.02234640 0.00333422 0.02053808 0.00133362 0.01459347 0.04127257 0.01329696 0.01812141 
0.01359487 0.02482981 0.00460734 0.00305577 0.00810339 0.00217681 0.00629762 0.00516846 0.02259261 0.00338152 0.02043205 0.00132637 0.01442902 0.04196267 0.01357188 0.01796385 
0.01364521 0.02487973 0.00447556 0.00301631 0.00827436 0.00216656 0.00621852 0.00520681 0.02284910 0.00343105 0.02035372 0.00132000 0.01430302 0.04268831 0.01385230 0.01782366 
0.01369575 0.02493499 0.00434334 0.00297801 0.00843744 0.00215513 0.00614463 0.00524541 0.02311714 0.00348271 0.02030411 0.00131460 0.01421549 0.04344638 0.01413681 0.01770271 
0.01374623 0.02499547 0.00421115 0.00294110 0.00859229 0.00214260 0.00607645 0.00528425 0.02339796 0.00353639 0.02028407 0.00131023 0.01416629 0.04423360 0.01442400 0.01760275 
0.01379639 0.02506093 0.00407949 0.00290582 0.00873858 0.00212905 0.00601449 0.00532329 0.02369275 0.00359192 0.02029425 0.00130694 0.01415511 0.04504656 0.01471244 0.01752538 
0.01384591 0.02513104 0.00394882 0.00287237 0.00887606 0.00211456 0.00595925 0.00536251 0.02400267 0.00364917 0.02033514 0.00130478 0.01418147 0.04588174 0.01500071 0.01747206 
0.01389445 0.02520539 0.00381961 0.00284096 0.00900454 0.00209922 0.00591119 0.00540191 0.02432880 0.00370794 0.02040701 0.00130381 0.01424474 0.04673552 0.01528742 0.01744411 
0.01394165 0.02528346 0.00369230 0.00281175 0.00912389 0.00208311 0.00587077 0.00544147 0.02467216 0.00376805 0.02050993 0.00130404 0.01434415 0.04760419 0.01557116 0.01744267 
0.01398710 0.02536466 0.00356730 0.00278491 0.00923402 0.00206631 0.00583844 0.00548120 0.02503367 0.00382928 0.02064379 0.00130551 0.01447878 0.04848399 0.01585060 0.01746870 
0.01403038 0.02544832 0.00344503 0.00276060 0.00933491 0.00204893 0.00581459 0.00552108 0.02541417 0.00389141 0.02080827 0.00130823 0.01464755 0.04937112 0.01612441 0.01752301 
0.01407107 0.02553369 0.00332587 0.00273891 0.00942660 0.00203105 0.00579963 0.00556113 0.02581439 0.00395420 0.02100286 0.00131220 0.01484929 0.05026178 0.01639132 0.01760621 
0.01410872 0.02561994 0.00321016 0.00271997 0.00950918 0.00201276 0.00579390 0.00560136 0.02623495 0.00401738 0.02122686 0.00131742 0.01508269 0.05115216 0.01665011 0.01771872 
0.01414286 0.02570617 0.00309825 0.00270385 0.00958280 0.00199416 0.00579775 0.00564177 0.02667633 0.00408069 0.02147935 0.00132389 0.01534633 0.05203846 0.01689962 0.01786075 
0.01417304 0.02579146 0.00299043 0.00269061 0.00964767 0.00197532 0.00581147 0.00568238 0.02713890 0.00414385 0.02175926 0.00133157 0.01563868 0.05291695 0.01713875 0.01803235 
0.01419881 0.02587479 0.00288697 0.00268027 0.00970403 0.00195634 0.00583533 0.00572319 0.02762287 0.00420656 0.02206531 0.00134045 0.01595812 0.05378395 0.01736650 0.01823334 
0.01421970 0.02595514 0.00278813 0.00267285 0.00975220 0.00193731 0.00586957 0.00576424 0.02812833 0.00426854 0.02239605 0.00135048 0.01630295 0.05463588 0.01758191 0.01846336 
0.01423528 0.02603144 0.00269411 0.00266834 0.00979252 0.00191831 0.00591439 0.00580552 0.02865519 0.00432946 0.02274987 0.00136162 0.01667137 0.05546924 0.01778412 0.01872183 
0.01424513 0.02610261 0.00260509 0.00266670 0.00982539 0.00189942 0.00596994 0.00584706 0.02920323 0.00438902 0.02312500 0.00137382 0.01706152 0.05628069 0.01797236 0.01900800 
0.01424883 0.02616754 0.00252123 0.00266787 0.00985124 0.00188072 0.00603634 0.00588886 0.02977207 0.00444689 0.02351950 0.00138701 0.01747148 0.05706698 0.01814594 0.01932091 
0.01424603 0.02622513 0.00244263 0.00267176 0.00987055 0.00186228 0.00611368 0.00593094 0.03036115 0.00450276 0.02393133 0.00140113 0.01789928 0.05782508 0.01830429 0.01965942 
0.01423636 0.02627430 0.00236938 0.00267827 0.00988381 0.00184417 0.00620200 0.00597331 0.03096977 0.00455630 0.02435828 0.00141610 0.01834289 0.05855208 0.01844689 0.02002218 
0.01421952 0.02631397 0.00230152 0.00268727 0.00989156 0.00182647 0.00630130 0.00601596 0.03159706 0.00460721 0.02479805 0.00143185 0.01880024 0.05924529 0.01857337 0.02040770 
0.01419524 0.02634312 0.00223909 0.00269861 0.00989436 0.00180922 0.00641152 0.00605890 0.03224200 0.00465515 0.02524823 0.00144829 0.01926923 0.05990223 0.01868342 0.02081428 
0.01416329 0.02636075 0.00218205 0.00271213 0.00989276 0.00179250 0.00653259 0.00610211 0.03290340 0.00469983 0.02570633 0.00146532 0.01974776 0.06052063 0.01877686 0.02124009 
0.01412350 0.02636592 0.00213035 0.00272762 0.00988736 0.00177634 0.00666436 0.00614560 0.03357992 0.00474095 0.02616978 0.00148286 0.02023367 0.06109846 0.01885359 0.02168312 
0.01407574 0.02635778 0.00208393 0.00274490 0.00987875 0.00176081 0.00680666 0.00618933 0.03427009 0.00477821 0.02663594 0.00150080 0.02072484 0.06163392 0.01891362 0.02214122 
0.01401993 0.02633552 0.00204268 0.00276373 0.00986753 0.00174593 0.00695927 0.00623328 0.03497227 0.00481134 0.02710214 0.00151905 0.02121910 0.06212549 0.01895706 0.02261212 
0.01395607 0.02629846 0.00200644 0.00278389 0.00985428 0.00173175 0.00712191 0.00627743 0.03568470 0.00484009 0.02756568 0.00153750 0.02171431 0.06257189 0.01898411 0.02309342 
0.01388419 0.02624599 0.00197507 0.00280511 0.00983960 0.00171829 0.00729427 0.00632172 0.03640549 0.00486420 0.02802386 0.00155605 0.02220835 0.06297214 0.01899508 0.02358260 
0.01380441 0.02617762 0.00194837 0.00282715 0.00982407 0.00170559 0.00747601 0.00636610 0.03713265 0.00488346 0.02847395 0.00157459 0.02269909 0.06332551 0.01899035 0.02407706 
0.01371689 0.02609298 0.00192612 0.00284973 0.00980822 0.00169365 0.00766670 0.00641052 0.03786406 0.00489767 0.02891328 0.00159301 0.02318444 0.06363158 0.01897042 0.02457409 
0.01362186 0.02599182 0.00190808 0.00287257 0.00979261 0.00168250 0.00786591 0.00645492 0.03859750 0.00490665 0.02933919 0.00161122 0.02366234 0.06389021 0.01893585 0.02507095 
0.01351963 0.02587405 0.00189400 0.00289540 0.00977774 0.00167214 0.00807315 0.00649920 0.03933068 0.00491025 0.02974908 0.00162910 0.02413076 0.06410153 0.01888729 0.02556481 
0.01341054 0.02573970 0.00188361 0.00291793 0.00976408 0.00166257 0.00828788 0.00654329 0.04006124 0.00490835 0.03014042 0.00164656 0.02458770 0.06426598 0.01882547 0.02605281 
0.01329502 0.02558896 0.00187660 0.00293986 0.00975207 0.00165380 0.00850954 0.00658708 0.04078675 0.00490087 0.03051077 0.00166349 0.02503124 0.06438430 0.01875119 0.02653208 
0.01317355 0.02542218 0.00187268 0.00296092 0.00974210 0.00164580 0.00873751 0.00663049 0.04150473 0.00488774 0.03085778 0.00167980 0.02545947 0.06445750 0.01866532 0.02699971 
0.01304668 0.02523986 0.00187152 0.00298083 0.00973453 0.00163858 0.00897115 0.00667338 0.04221268 0.00486894 0.03117920 0.00169540 0.02587057 0.06448687 0.01856879 0.02745284 
0.01291501 0.02504267 0.00187280 0.00299930 0.00972968 0.00163211 0.00920977 0.00671564 0.04290809 0.00484449 0.03147295 0.00171019 0.02626276 0.06447398 0.01846259 0.02788859 
0.01277918 0.02483146 0.00187618 0.00301606 0.00972778 0.00162637 0.00945266 0.00675715 0.04358841 0.00481443 0.03173704 0.00172409 0.02663433 0.06442068 0.01834774 0.02830414 
0.01263990 0.02460722 0.00188133 0.00303085 0.00972904 0.00162134 0.00969905 0.00679776 0.04425114 0.00477884 0.03196967 0.00173702 0.02698367 0.06432907 0.01822533 0.02869672 
0.01249792 0.02437114 0.00188791 0.00304343 0.00973362 0.00161698 0.00994818 0.00683734 0.04489379 0.00473786 0.03216918 0.00174890 0.02730920 0.06420151 0.01809647 0.02906363 
0.01235403 0.02412457 0.00189557 0.00305355 0.00974160 0.00161326 0.01019924 0.00687572 0.04551391 0.00469164 0.03233411 0.00175967 0.02760947 0.06404057 0.01796230 0.02940225 
0.01220907 0.02386900 0.00190399 0.00306099 0.00975300 0.00161015 0.01045139 0.00691276 0.04610910 0.00464039 0.03246316 0.00176926 0.02788307 0.06384908 0.01782399 0.02971006 
0.01206389 0.02360612 0.00191283 0.00306555 0.00976781 0.00160760 0.01070379 0.00694830 0.04667705 0.00458435 0.03255523 0.00177762 0.02812872 0.06363006 0.01768272 0.02998466 
0.01191939 0.02333775 0.00192177 0.00306704 0.00978593 0.00160557 0.01095555 0.00698218 0.04721549 0.00452381 0.03260944 0.00178470 0.02834521 0.06338673 0.01753970 0.03022377 
0.01177647 0.02306587 0.00193050 0.00306528 0.00980722 0.00160401 0.01120580 0.00701423 0.04772230 0.00445908 0.03262509 0.00179046 0.02853145 0.06312247 0.01739610 0.03042527 
0.01163606 0.02279260 0.00193872 0.00306014 0.00983147 0.00160289 0.01145364 0.00704429 0.04819542 0.00439053 0.03260170 0.00179485 0.02868643 0.06284083 0.01725314 0.03058718 
0.01149908 0.02252020 0.00194615 0.00305148 0.00985842 0.00160216 0.01169815 0.00707219 0.04863293 0.00431855 0.03253902 0.00179785 0.02880928 0.06254550 0.01711198 0.03070769 
0.01136648 0.02225107 0.00195253 0.00303920 0.00988775 0.00160175 0.01193844 0.00709776 0.04903304 0.00424358 0.03243702 0.00179944 0.02889921 0.06224027 0.01697380 0.03078517 
0.01123917 0.02198768 0.00195760 0.00302323 0.00991909 0.00160163 0.01217357 0.00712085 0.04939410 0.00416609 0.03229585 0.00179960 0.02895556 0.06192904 0.01683975 0.03081818 
0.01111808 0.02173265 0.00196113 0.00300351 0.00995202 0.00160175 0.01240264 0.00714129 0.04971460 0.00408658 0.03211593 0.00179834 0.02897780 0.06161576 0.01671093 0.03080549 
0.01100410 0.02148867 0.00196294 0.00298002 0.00998607 0.00160206 0.01262475 0.00715893 0.04999321 0.00400558 0.03189788 0.00179563 0.02896551 0.06130445 0.01658843 0.03074607 
0.01089810 0.02125848 0.00196283 0.00295274 0.01002072 0.00160250 0.01283900 0.00717362 0.05022874 0.00392366 0.03164252 0.00179150 0.02891839 0.06099913 0.01647328 0.03063912 
0.01080092 0.02104492 0.00196066 0.00292171 0.01005544 0.00160303 0.01304451 0.00718522 0.05042019 0.00384139 0.03135091 0.00178596 0.02883628 0.06070384 0.01636648 0.03048406 
0.01071336 0.02085086 0.00195629 0.00288698 0.01008962 0.00160360 0.01324042 0.00719360 0.05056672 0.00375941 0.03102429 0.00177902 0.02871915 0.06042258 0.01626898 0.03028053 
0.01063616 0.02067918 0.00194962 0.00284861 0.01012266 0.00160417 0.01342587 0.00719862 0.05066768 0.00367833 0.03066412 0.00177071 0.02856710 0.06015929 0.01618167 0.03002844 
0.01057003 0.02053278 0.00194060 0.00280672 0.01015391 0.00160470 0.01360007 0.00720019 0.05072261 0.00359880 0.03027205 0.00176107 0.02838037 0.05991786 0.01610536 0.02972790 
0.01051560 0.02041455 0.00192916 0.00276142 0.01018271 0.00160514 0.01376223 0.00719819 0.05073123 0.00352149 0.02984991 0.00175013 0.02815932 0.05970207 0.01604083 0.02937930 
0.01047346 0.02032736 0.00191531 0.00271288 0.01020838 0.00160545 0.01391159 0.00719253 0.05069344 0.00344706 0.02939970 0.00173794 0.02790446 0.05951556 0.01598878 0.02898327 
0.01044410 0.02027402 0.00189906 0.00266126 0.01023026 0.00160559 0.01404744 0.00718314 0.05060934 0.00337620 0.02892359 0.00172455 0.02761644 0.05936184 0.01594982 0.02854066 
0.01042798 0.02025728 0.00188046 0.00260676 0.01024764 0.00160554 0.01416911 0.00716996 0.05047920 0.00330957 0.02842391 0.00171000 0.02729603 0.05924425 0.01592452 0.02805259 
0.01042543 0.02027980 0.00185959 0.00254960 0.01025984 0.00160526 0.01427598 0.00715294 0.05030348 0.00324786 0.02790311 0.00169436 0.02694416 0.05916591 0.01591335 0.02752043 
0.01043673 0.02034415 0.00183655 0.00249002 0.01026621 0.00160472 0.01436747 0.00713205 0.05008283 0.00319174 0.02736377 0.00167769 0.02656188 0.05912978 0.01591670 0.02694578 
0.01046208 0.02045275 0.00181149 0.00242827 0.01026608 0.00160389 0.01444305 0.00710727 0.04981805 0.00314185 0.02680859 0.00166006 0.02615036 0.05913852 0.01593491 0.02633046 
0.01050157 0.02060791 0.00178457 0.00236465 0.01025883 0.00160276 0.01450226 0.00707860 0.04951014 0.00309884 0.02624036 0.00164153 0.02571092 0.05919459 0.01596820 0.02567654 
0.01055520 0.02081175 0.00175598 0.00229942 0.01024384 0.00160131 0.01454470 0.00704606 0.04916023 0.00306333 0.02566194 0.00162218 0.02524499 0.05930016 0.01601674 0.02498632 
0.01062290 0.02106622 0.00172595 0.00223291 0.01022056 0.00159952 0.01457001 0.00700969 0.04876965 0.00303591 0.02507626 0.00160208 0.02475415 0.05945711 0.01608060 0.02426229 
0.01070449 0.02137309 0.00169472 0.00216542 0.01018846 0.00159737 0.01457790 0.00696953 0.04833984 0.00301715 0.02448631 0.00158131 0.02424007 0.05966702 0.01615977 0.02350716 
0.01079971 0.02173389 0.00166256 0.00209728 0.01014705 0.00159487 0.01456818 0.00692566 0.04787240 0.00300758 0.02389507 0.00155995 0.02370454 0.05993118 0.01625416 0.02272382 
0.01090819 0.02214993 0.00162976 0.00202883 0.01009590 0.00159199 0.01454068 0.00687817 0.04736907 0.00300769 0.02330558 0.00153808 0.02314946 0.06025052 0.01636361 0.02191537 
0.01102949 0.02262229 0.00159663 0.00196040 0.01003464 0.00158875 0.01449534 0.00682715 0.04683169 0.00301792 0.02272083 0.00151577 0.02257683 0.06062568 0.01648787 0.02108504 
0.01116307 0.02315179 0.00156351 0.00189235 0.00996297 0.00158514 0.01443215 0.00677273 0.04626224 0.00303869 0.02214382 0.00149312 0.02198875 0.06105693 0.01662661 0.02023625 
0.01130830 0.02373897 0.00153075 0.00182501 0.00988061 0.00158116 0.01435119 0.00671504 0.04566279 0.00307035 0.02157748 0.00147020 0.02138739 0.06154420 0.01677943 0.01937254 
0.01146448 0.02438410 0.00149870 0.00175873 0.00978741 0.00157681 0.01425259 0.00665423 0.04503549 0.00311319 0.02102472 0.00144708 0.02077501 0.06208709 0.01694585 0.01849758 
0.01163082 0.02508715 0.00146773 0.00169385 0.00968324 0.00157211 0.01413658 0.00659047 0.04438261 0.00316747 0.02048833 0.00142387 0.02015393 0.06268485 0.01712533 0.01761514 
0.01180646 0.02584782 0.00143825 0.00163070 0.00956808 0.00156707 0.01400345 0.00652394 0.04370646 0.00323336 0.01997104 0.00140062 0.01952654 0.06333638 0.01731726 0.01672909 
0.01199048 0.02666549 0.00141063 0.00156963 0.00944197 0.00156169 0.01385358 0.00645482 0.04300942 0.00331098 0.01947546 0.00137743 0.01889527 0.06404024 0.01752095 0.01584335 
0.01218189 0.02753923 0.00138527 0.00151094 0.00930502 0.00155599 0.01368742 0.00638333 0.04229392 0.00340039 0.01900408 0.00135437 0.01826259 0.06479465 0.01773568 0.01496193 
0.01237963 0.02846782 0.00136258 0.00145494 0.00915744 0.00154999 0.01350547 0.00630967 0.04156244 0.00350158 0.01855925 0.00133151 0.01763098 0.06559752 0.01796064 0.01408883 
0.01258262 0.02944970 0.00134294 0.00140193 0.00899952 0.00154370 0.01330834 0.00623407 0.04081745 0.00361446 0.01814317 0.00130893 0.01700298 0.06644642 0.01819499 0.01322809 
0.01278970 0.03048304 0.00132677 0.00135219 0.00883161 0.00153715 0.01309669 0.00615676 0.04006149 0.00373889 0.01775789 0.00128670 0.01638108 0.06733864 0.01843782 0.01238373 
0.01299972 0.03156569 0.00131444 0.00130598 0.00865416 0.00153034 0.01287125 0.00607798 0.03929706 0.00387465 0.01740525 0.00126489 0.01576781 0.06827115 0.01868820 0.01155976 
0.01321146 0.03269518 0.00130634 0.00126354 0.00846769 0.00152330 0.01263281 0.00599798 0.03852669 0.00402145 0.01708694 0.00124356 0.01516564 0.06924066 0.01894515 0.01076013 
0.01342370 0.03386878 0.00130285 0.00122509 0.00827279 0.00151605 0.01238224 0.00591699 0.03775286 0.00417892 0.01680442 0.00122278 0.01457705 0.07024363 0.01920766 0.00998873 
0.01363523 0.03508346 0.00130431 0.00119085 0.00807015 0.00150861 0.01212045 0.00583529 0.03697805 0.00434664 0.01655897 0.00120261 0.01400443 0.07127626 0.01947467 0.00924934 
0.01384480 0.03633592 0.00131107 0.00116098 0.00786050 0.00150100 0.01184843 0.00575310 0.03620471 0.00452411 0.01635165 0.00118311 0.01345016 0.07233455 0.01974512 0.00854567 
0.01405120 0.03762259 0.00132346 0.00113564 0.00764466 0.00149324 0.01156721 0.00567070 0.03543522 0.00471075 0.01618329 0.00116432 0.01291652 0.07341429 0.02001792 0.00788128 
0.01425322 0.03893967 0.00134178 0.00111496 0.00742351 0.00148534 0.01127786 0.00558833 0.03467193 0.00490594 0.01605450 0.00114631 0.01240573 0.07451110 0.02029198 0.00725958 
0.01444968 0.04028312 0.00136630 0.00109904 0.00719799 0.00147733 0.01098151 0.00550623 0.03391712 0.00510899 0.01596568 0.00112912 0.01191989 0.07562045 0.02056617 0.00668384 
0.01463944 0.04164870 0.00139728 0.00108795 0.00696909 0.00146922 0.01067931 0.00542466 0.03317298 0.00531913 0.01591698 0.00111279 0.01146103 0.07673769 0.02083938 0.00615713 
0.01482139 0.04303194 0.00143495 0.00108175 0.00673787 0.00146103 0.01037246 0.00534385 0.03244166 0.00553557 0.01590833 0.00109737 0.01103106 0.07785807 0.02111050 0.00568233 
0.01499448 0.04442825 0.00147950 0.00108046 0.00650542 0.00145278 0.01006218 0.00526403 0.03172520 0.00575744 0.01593943 0.00108288 0.01063175 0.07897678 0.02137843 0.00526211 
0.01515771 0.04583285 0.00153111 0.00108406 0.00627286 0.00144448 0.00974972 0.00518543 0.03102554 0.00598383 0.01600976 0.00106937 0.01026475 0.08008895 0.02164207 0.00489890 
0.01531018 0.04724085 0.00158989 0.00109253 0.00604136 0.00143614 0.00943633 0.00510825 0.03034455 0.00621379 0.01611855 0.00105686 0.00993156 0.08118970 0.02190035 0.00459491 
0.01545102 0.04864725 0.00165596 0.00110580 0.00581212 0.00142777 0.00912328 0.00503271 0.02968398 0.00644634 0.01626486 0.00104539 0.00963354 0.08227419 0.02215222 0.00435207 
0.01557948 0.05004696 0.00172938 0.00112378 0.00558632 0.00141940 0.00881185 0.00495899 0.02904545 0.00668044 0.01644751 0.00103497 0.00937188 0.08333758 0.02239665 0.00417207 
0.01569486 0.05143486 0.00181016 0.00114636 0.00536521 0.00141101 0.00850332 0.00488727 0.02843051 0.00691505 0.01666511 0.00102562 0.00914761 0.08437515 0.02263265 0.00405631 
0.01579659 0.05280580 0.00189830 0.00117340 0.00514999 0.00140263 0.00819894 0.00481773 0.02784054 0.00714910 0.01691610 0.00101736 0.00896159 0.08538224 0.02285927 0.00400590 
0.01588418 0.05415461 0.00199376 0.00120473 0.00494190 0.00139426 0.00789997 0.00475050 0.02727685 0.00738151 0.01719873 0.00101020 0.00881448 0.08635435 0.02307559 0.00402169 
0.01595725 0.05547617 0.00209643 0.00124016 0.00474215 0.00138590 0.00760763 0.00468574 0.02674058 0.00761118 0.01751107 0.00100415 0.00870681 0.08728712 0.02328077 0.00410420 
0.01601552 0.05676541 0.00220620 0.00127947 0.00455192 0.00137756 0.00732312 0.00462355 0.02623277 0.00783703 0.01785104 0.00099922 0.00863886 0.08817638 0.02347398 0.00425367 
0.01605883 0.05801733 0.00232290 0.00132244 0.00437239 0.00136924 0.00704760 0.00456406 0.02575431 0.00805796 0.01821641 0.00099540 0.00861078 0.08901816 0.02365448 0.00447003 
0.01608713 0.05922706 0.00244632 0.00136881 0.00420469 0.00136095 0.00678221 0.00450734 0.02530598 0.00827290 0.01860484 0.00099271 0.00862250 0.08980875 0.02382157 0.00475291 
0.01610048 0.06038985 0.00257622 0.00141831 0.00404992 0.00135267 0.00652801 0.00445348 0.02488841 0.00848080 0.01901385 0.00099112 0.00867378 0.09054468 0.02397461 0.00510166 
0.01609906 0.06150112 0.00271231 0.00147065 0.00390912 0.00134443 0.00628604 0.00440254 0.02450210 0.00868061 0.01944089 0.00099064 0.00876417 0.09122277 0.02411306 0.00551529 
0.01608315 0.06255648 0.00285427 0.00152553 0.00378330 0.00133620 0.00605727 0.00435455 0.02414743 0.00887136 0.01988329 0.00099126 0.00889306 0.09184013 0.02423640 0.00599254 
0.01605318 0.06355175 0.00300176 0.00158263 0.00367337 0.00132800 0.00584259 0.00430954 0.02382462 0.00905207 0.02033836 0.00099297 0.00905963 0.09239422 0.02434424 0.00653187 
0.01600965 0.06448299 0.00315437 0.00164163 0.00358021 0.00131982 0.00564284 0.00426753 0.02353379 0.00922185 0.02080334 0.00099574 0.00926292 0.09288284 0.02443622 0.00713144 
0.01595319 0.06534651 0.00331168 0.00170220 0.00350462 0.00131166 0.00545879 0.00422851 0.02327491 0.00937981 0.02127545 0.00099956 0.00950175 0.09330412 0.02451209 0.00778914 
0.01588453 0.06613890 0.00347325 0.00176398 0.00344730 0.00130352 0.00529113 0.00419247 0.02304784 0.00952518 0.02175188 0.00100441 0.00977482 0.09365659 0.02457166 0.00850262 
0.01580450 0.06685706 0.00363857 0.00182664 0.00340889 0.00129540 0.00514045 0.00415936 0.02285230 0.00965721 0.02222987 0.00101026 0.01008063 0.09393916 0.02461484 0.00926926 
0.01571404 0.06749820 0.00380714 0.00188983 0.00338992 0.00128730 0.00500728 0.00412916 0.02268789 0.00977523 0.02270665 0.00101709 0.01041755 0.09415115 0.02464161 0.01008619 
0.01561415 0.06805987 0.00397842 0.00195319 0.00339085 0.00127923 0.00489204 0.00410180 0.02255412 0.00987865 0.02317951 0.00102488 0.01078380 0.09429225 0.02465204 0.01095037 
0.01550595 0.06853995 0.00415185 0.00201640 0.00341203 0.00127118 0.00479508 0.00407720 0.02245035 0.00996696 0.02364580 0.00103358 0.01117747 0.09436260 0.02464628 0.01185849 
0.01539060 0.06893669 0.00432683 0.00207909 0.00345371 0.00126315 0.00471664 0.00405531 0.02237587 0.01003973 0.02410294 0.00104317 0.01159651 0.09436273 0.02462458 0.01280710 
0.01526935 0.06924872 0.00450277 0.00214094 0.00351604 0.00125515 0.00465687 0.00403601 0.02232983 0.01009661 0.02454846 0.00105361 0.01203878 0.09429359 0.02458726 0.01379256 
0.01514349 0.06947503 0.00467906 0.00220162 0.00359906 0.00124720 0.00461584 0.00401923 0.02231130 0.01013735 0.02497998 0.00106487 0.01250203 0.09415655 0.02453474 0.01481109 
0.01501439 0.06961501 0.00485505 0.00226081 0.00370271 0.00123928 0.00459349 0.00400486 0.02231929 0.01016180 0.02539526 0.00107690 0.01298391 0.09395337 0.02446750 0.01585876 
0.01488343 0.06966843 0.00503012 0.00231820 0.00382683 0.00123142 0.00458970 0.00399278 0.02235267 0.01016989 0.02579220 0.00108967 0.01348200 0.09368623 0.02438611 0.01693154 
0.01475203 0.06963544 0.00520362 0.00237352 0.00397113 0.00122363 0.00460422 0.00398289 0.02241028 0.01016164 0.02616883 0.00110313 0.01399382 0.09335770 0.02429124 0.01802531 
0.01462164 0.06951660 0.00537490 0.00242647 0.00413524 0.00121591 0.00463674 0.00397507 0.02249086 0.01013720 0.02652336 0.00111724 0.01451685 0.09297072 0.02418361 0.01913589 
0.01449370 0.06931284 0.00554331 0.00247681 0.00431866 0.00120828 0.00468683 0.00396921 0.02259311 0.01009679 0.02685417 0.00113195 0.01504850 0.09252860 0.02406402 0.02025905 
0.01436965 0.06902549 0.00570820 0.00252429 0.00452081 0.00120076 0.00475397 0.00396519 0.02271566 0.01004073 0.02715981 0.00114722 0.01558618 0.09203500 0.02393334 0.02139052 
0.01425095 0.06865623 0.00586895 0.00256869 0.00474099 0.00119337 0.00483758 0.00396289 0.02285710 0.00996945 0.02743905 0.00116299 0.01612730 0.09149392 0.02379250 0.02252606 
0.01413899 0.06820713 0.00602492 0.00260983 0.00497841 0.00118612 0.00493696 0.00396220 0.02301599 0.00988345 0.02769081 0.00117923 0.01666925 0.09090964 0.02364250 0.02366143 
0.01403516 0.06768059 0.00617549 0.00264751 0.00523217 0.00117904 0.00505135 0.00396302 0.02319084 0.00978336 0.02791425 0.00119586 0.01720945 0.09028674 0.02348439 0.02479243 
0.01394078 0.06707938 0.00632007 0.00268160 0.00550131 0.00117216 0.00517990 0.00396523 0.02338016 0.00966986 0.02810872 0.00121285 0.01774536 0.08963005 0.02331926 0.02591494 
0.01385714 0.06640656 0.00645808 0.00271196 0.00578475 0.00116549 0.00532170 0.00396875 0.02358242 0.00954374 0.02827376 0.00123015 0.01827446 0.08894464 0.02314827 0.02702493 
0.01378544 0.06566553 0.00658897 0.00273849 0.00608134 0.00115907 0.00547577 0.00397348 0.02379611 0.00940587 0.02840915 0.00124769 0.01879432 0.08823575 0.02297258 0.02811846 
0.01372682 0.06485996 0.00671219 0.00276111 0.00638987 0.00115292 0.00564107 0.00397934 0.02401971 0.00925719 0.02851485 0.00126542 0.01930254 0.08750881 0.02279342 0.02919172 
0.01368233 0.06399380 0.00682725 0.00277977 0.00670904 0.00114708 0.00581650 0.00398626 0.02425172 0.00909873 0.02859103 0.00128329 0.01979684 0.08676936 0.02261200 0.03024108 
0.01365292 0.06307124 0.00693368 0.00279444 0.00703750 0.00114157 0.00600091 0.00399419 0.02449065 0.00893155 0.02863807 0.00130125 0.02027502 0.08602306 0.02242959 0.03126302 
0.01363945 0.06209671 0.00703104 0.00280513 0.00737384 0.00113643 0.00619311 0.00400307 0.02473504 0.00875682 0.02865653 0.00131923 0.02073497 0.08527560 0.02224744 0.03225425 
0.01364266 0.06107482 0.00711892 0.00281185 0.00771660 0.00113169 0.00639189 0.00401288 0.02498348 0.00857573 0.02864718 0.00133719 0.02117470 0.08453273 0.02206681 0.03321165 
0.01366318 0.06001036 0.00719696 0.00281465 0.00806429 0.00112738 0.00659600 0.00402357 0.02523459 0.00838952 0.02861094 0.00135507 0.02159237 0.08380015 0.02188895 0.03413233 
0.01370151 0.05890827 0.00726483 0.00281361 0.00841537 0.00112354 0.00680416 0.00403516 0.02548703 0.00819950 0.02854894 0.00137281 0.02198624 0.08308352 0.02171510 0.03501363 
0.01375804 0.05777364 0.00732226 0.00280883 0.00876829 0.00112019 0.00701510 0.00404764 0.02573954 0.00800696 0.02846246 0.00139036 0.02235472 0.08238842 0.02154647 0.03585311 
0.01383300 0.05661160 0.00736900 0.00280042 0.00912149 0.00111738 0.00722754 0.00406103 0.02599091 0.00781328 0.02835291 0.00140767 0.02269638 0.08172029 0.02138425 0.03664858 
0.01392651 0.05542740 0.00740485 0.00278852 0.00947339 0.00111513 0.00744020 0.00407536 0.02624001 0.00761980 0.02822187 0.00142468 0.02300992 0.08108441 0.02122957 0.03739814 
0.01403853 0.05422631 0.00742968 0.00277330 0.00982242 0.00111347 0.00765180 0.00409068 0.02648577 0.00742791 0.02807104 0.00144133 0.02329421 0.08048585 0.02108354 0.03810012 
0.01416889 0.05301359 0.00744336 0.00275493 0.01016702 0.00111243 0.00786111 0.00410706 0.02672721 0.00723897 0.02790223 0.00145759 0.02354831 0.07992944 0.02094720 0.03875315 
0.01431729 0.05179451 0.00744587 0.00273362 0.01050565 0.00111204 0.00806691 0.00412455 0.02696345 0.00705435 0.02771736 0.00147340 0.02377139 0.07941975 0.02082153 0.03935610 
0.01448328 0.05057430 0.00743717 0.00270959 0.01083679 0.00111233 0.00826802 0.00414326 0.02719366 0.00687540 0.02751842 0.00148872 0.02396285 0.07896104 0.02070744 0.03990816 
0.01466625 0.04935810 0.00741732 0.00268305 0.01115899 0.00111332 0.00846330 0.00416328 0.02741715 0.00670346 0.02730750 0.00150349 0.02412222 0.07855722 0.02060577 0.04040876 
0.01486550 0.04815097 0.00738641 0.00265427 0.01147081 0.00111503 0.00865166 0.00418471 0.02763330 0.00653981 0.02708672 0.00151768 0.02424922 0.07821184 0.02051728 0.04085764 
0.01508016 0.04695785 0.00734457 0.00262348 0.01177087 0.00111748 0.00883207 0.00420769 0.02784158 0.00638570 0.02685825 0.00153124 0.02434373 0.07792807 0.02044262 0.04125480 
0.01530924 0.04578351 0.00729198 0.00259097 0.01205787 0.00112070 0.00900359 0.00423234 0.02804158 0.00624235 0.02662430 0.00154413 0.02440581 0.07770863 0.02038239 0.04160050 
0.01555163 0.04463258 0.00722888 0.00255700 0.01233057 0.00112468 0.00916531 0.00425880 0.02823298 0.00611090 0.02638707 0.00155633 0.02443569 0.07755584 0.02033704 0.04189529 
0.01580611 0.04350948 0.00715554 0.00252185 0.01258781 0.00112944 0.00931642 0.00428722 0.02841557 0.00599245 0.02614877 0.00156779 0.02443375 0.07747154 0.02030697 0.04213995 
0.01607134 0.04241844 0.00707229 0.00248582 0.01282851 0.00113499 0.00945620 0.00431775 0.02858923 0.00588800 0.02591158 0.00157848 0.02440054 0.07745708 0.02029243 0.04233552 
0.01634587 0.04136343 0.00697947 0.00244917 0.01305167 0.00114133 0.00958401 0.00435054 0.02875394 0.00579850 0.02567765 0.00158839 0.02433678 0.07751335 0.02029360 0.04248330 
0.01662818 0.04034818 0.00687750 0.00241221 0.01325641 0.00114846 0.00969929 0.00438575 0.02890978 0.00572480 0.02544909 0.00159748 0.02424333 0.07764074 0.02031052 0.04258477 
0.01691665 0.03937618 0.00676681 0.00237521 0.01344194 0.00115638 0.00980162 0.00442355 0.02905694 0.00566768 0.02522794 0.00160574 0.02412118 0.07783912 0.02034314 0.04264165 
0.01720958 0.03845062 0.00664788 0.00233847 0.01360758 0.00116507 0.00989063 0.00446409 0.02919567 0.00562780 0.02501616 0.00161315 0.02397149 0.07810787 0.02039129 0.04265587 
0.01750523 0.03757439 0.00652123 0.00230225 0.01375274 0.00117453 0.00996608 0.00450752 0.02932635 0.00560575 0.02481563 0.00161970 0.02379553 0.07844586 0.02045469 0.04262952 
0.01780180 0.03675011 0.00638739 0.00226684 0.01387698 0.00118474 0.01002784 0.00455401 0.02944940 0.00560200 0.02462813 0.00162539 0.02359469 0.07885149 0.02053295 0.04256487 
0.01809742 0.03598005 0.00624694 0.00223249 0.01397993 0.00119569 0.01007588 0.00460369 0.02956537 0.00561693 0.02445532 0.00163020 0.02337049 0.07932263 0.02062556 0.04246434 
0.01839025 0.03526620 0.00610048 0.00219945 0.01406139 0.00120733 0.01011028 0.00465671 0.02967484 0.00565078 0.02429876 0.00163415 0.02312455 0.07985671 0.02073194 0.04233047 
0.01867837 0.03461021 0.00594862 0.00216797 0.01412124 0.00121966 0.01013122 0.00471319 0.02977849 0.00570371 0.02415987 0.00163724 0.02285858 0.08045068 0.02085138 0.04216593 
0.01895992 0.03401342 0.00579202 0.00213828 0.01415950 0.00123264 0.01013901 0.00477325 0.02987704 0.00577576 0.02403993 0.00163948 0.02257438 0.08110106 0.02098307 0.04197349 
0.01923299 0.03347682 0.00563134 0.00211059 0.01417630 0.00124624 0.01013403 0.00483700 0.02997129 0.00586685 0.02394008 0.00164089 0.02227383 0.08180395 0.02112613 0.04175597 
0.01949574 0.03300111 0.00546724 0.00208510 0.01417189 0.00126042 0.01011681 0.00490453 0.03006207 0.00597678 0.02386131 0.00164148 0.02195886 0.08255507 0.02127958 0.04151629 
0.01974634 0.03258666 0.00530042 0.00206199 0.01414665 0.00127514 0.01008795 0.00497590 0.03015026 0.00610527 0.02380447 0.00164129 0.02163148 0.08334976 0.02144236 0.04125736 
0.01998302 0.03223350 0.00513158 0.00204143 0.01410105 0.00129035 0.01004815 0.00505117 0.03023677 0.00625188 0.02377022 0.00164034 0.02129371 0.08418307 0.02161336 0.04098215 
0.02020405 0.03194140 0.00496140 0.00202356 0.01403570 0.00130602 0.00999822 0.00513039 0.03032255 0.00641611 0.02375909 0.00163867 0.02094764 0.08504971 0.02179136 0.04069361 
0.02040779 0.03170979 0.00479060 0.00200851 0.01395130 0.00132209 0.00993906 0.00521356 0.03040856 0.00659731 0.02377144 0.00163632 0.02059535 0.08594417 0.02197514 0.04039467 
0.02059269 0.03153784 0.00461987 0.00199638 0.01384866 0.00133852 0.00987163 0.00530069 0.03049577 0.00679474 0.02380747 0.00163333 0.02023895 0.08686071 0.02216339 0.04008824 
0.02075727 0.03142444 0.00444992 0.00198728 0.01372868 0.00135525 0.00979699 0.00539173 0.03058514 0.00700758 0.02386721 0.00162976 0.01988054 0.08779343 0.02235479 0.03977714 
0.02090017 0.03136819 0.00428142 0.00198125 0.01359236 0.00137224 0.00971627 0.00548664 0.03067766 0.00723488 0.02395053 0.00162565 0.01952222 0.08873627 0.02254798 0.03946417 
0.02102015 0.03136749 0.00411507 0.00197835 0.01344079 0.00138943 0.00963065 0.00558535 0.03077428 0.00747562 0.02405716 0.00162107 0.01916605 0.08968311 0.02274159 0.03915199 
0.02111608 0.03142047 0.00395153 0.00197861 0.01327512 0.00140677 0.00954139 0.00568775 0.03087592 0.00772869 0.02418667 0.00161607 0.01881408 0.09062777 0.02293423 0.03884318 
0.02118696 0.03152507 0.00379144 0.00198203 0.01309661 0.00142420 0.00944977 0.00579372 0.03098350 0.00799290 0.02433847 0.00161072 0.01846830 0.09156410 0.02312452 0.03854021 
0.02123194 0.03167903 0.00363544 0.00198859 0.01290653 0.00144167 0.00935715 0.00590309 0.03109788 0.00826698 0.02451184 0.00160509 0.01813066 0.09248597 0.02331110 0.03824540 
0.02125033 0.03187992 0.00348414 0.00199826 0.01270626 0.00145913 0.00926487 0.00601571 0.03121988 0.00854961 0.02470592 0.00159925 0.01780305 0.09338736 0.02349263 0.03796093 
0.02124155 0.03212513 0.00333813 0.00201099 0.01249718 0.00147653 0.00917434 0.00613135 0.03135029 0.00883939 0.02491972 0.00159328 0.01748727 0.09426239 0.02366780 0.03768882 
0.02120522 0.03241195 0.00319796 0.00202670 0.01228074 0.00149381 0.00908695 0.00624980 0.03148981 0.00913489 0.02515214 0.00158725 0.01718508 0.09510535 0.02383535 0.03743092 
0.02114109 0.03273754 0.00306418 0.00204531 0.01205841 0.00151093 0.00900412 0.00637080 0.03163911 0.00943462 0.02540194 0.00158125 0.01689811 0.09591076 0.02399405 0.03718891 
0.02104909 0.03309897 0.00293729 0.00206669 0.01183167 0.00152784 0.00892724 0.00649407 0.03179875 0.00973707 0.02566781 0.00157534 0.01662794 0.09667343 0.02414278 0.03696428 
0.02092931 0.03349324 0.00281775 0.00209074 0.01160202 0.00154450 0.00885770 0.00661932 0.03196926 0.01004070 0.02594831 0.00156962 0.01637601 0.09738845 0.02428043 0.03675832 
0.02078200 0.03391731 0.00270601 0.00211730 0.01137095 0.00156085 0.00879686 0.00674622 0.03215106 0.01034395 0.02624195 0.00156417 0.01614367 0.09805126 0.02440603 0.03657215 
0.02060758 0.03436810 0.00260248 0.00214624 0.01113996 0.00157687 0.00874603 0.00687443 0.03234449 0.01064525 0.02654715 0.00155908 0.01593218 0.09865768 0.02451866 0.03640664 
0.02040664 0.03484255 0.00250752 0.00217737 0.01091051 0.00159252 0.00870651 0.00700359 0.03254982 0.01094303 0.02686225 0.00155441 0.01574264 0.09920393 0.02461749 0.03626251 
0.02017990 0.03533759 0.00242147 0.00221052 0.01068404 0.00160777 0.00867952 0.00713331 0.03276722 0.01123576 0.02718557 0.00155026 0.01557607 0.09968669 0.02470183 0.03614023 
0.01992827 0.03585019 0.00234462 0.00224551 0.01046196 0.00162258 0.00866621 0.00726321 0.03299677 0.01152188 0.02751537 0.00154671 0.01543332 0.10010307 0.02477105 0.03604008 
0.01965279 0.03637741 0.00227723 0.00228214 0.01024563 0.00163693 0.00866768 0.00739287 0.03323845 0.01179991 0.02784987 0.00154384 0.01531516 0.10045069 0.02482467 0.03596215 
0.01935467 0.03691634 0.00221952 0.00232020 0.01003633 0.00165080 0.00868495 0.00752187 0.03349215 0.01206836 0.02818729 0.00154172 0.01522220 0.10072766 0.02486229 0.03590630 
0.01903523 0.03746419 0.00217167 0.00235949 0.00983532 0.00166417 0.00871892 0.00764978 0.03375769 0.01232583 0.02852582 0.00154043 0.01515492 0.10093260 0.02488366 0.03587221 
0.01869593 0.03801828 0.00213381 0.00239978 0.00964376 0.00167704 0.00877044 0.00777616 0.03403475 0.01257094 0.02886368 0.00154004 0.01511367 0.10106467 0.02488863 0.03585937 
0.01833837 0.03857604 0.00210606 0.00244086 0.00946275 0.00168939 0.00884022 0.00790055 0.03432297 0.01280240 0.02919906 0.00154062 0.01509867 0.10112354 0.02487717 0.03586707 
0.01796425 0.03913508 0.00208847 0.00248252 0.00929328 0.00170122 0.00892888 0.00802252 0.03462186 0.01301897 0.02953022 0.00154223 0.01511000 0.10110942 0.02484939 0.03589442 
0.01757536 0.03969311 0.00208106 0.00252452 0.00913628 0.00171253 0.00903693 0.00814160 0.03493087 0.01321949 0.02985542 0.00154492 0.01514762 0.10102308 0.02480550 0.03594038 
0.01717362 0.04024805 0.00208382 0.00256666 0.00899255 0.00172332 0.00916475 0.00825736 0.03524935 0.01340290 0.03017297 0.00154875 0.01521134 0.10086576 0.02474585 0.03600373 
0.01676099 0.04079798 0.00209671 0.00260872 0.00886283 0.00173362 0.00931259 0.00836933 0.03557659 0.01356822 0.03048123 0.00155378 0.01530086 0.10063927 0.02467088 0.03608310 
0.01633954 0.04134117 0.00211963 0.00265048 0.00874770 0.00174342 0.00948059 0.00847710 0.03591180 0.01371457 0.03077863 0.00156003 0.01541574 0.10034587 0.02458117 0.03617700 
0.01591136 0.04187607 0.00215246 0.00269175 0.00864769 0.00175276 0.00966876 0.00858022 0.03625411 0.01384117 0.03106366 0.00156754 0.01555543 0.09998834 0.02447739 0.03628380 
0.01547861 0.04240135 0.00219504 0.00273231 0.00856317 0.00176165 0.00987696 0.00867828 0.03660261 0.01394736 0.03133489 0.00157634 0.01571925 0.09956991 0.02436033 0.03640176 
0.01504349 0.04291586 0.00224718 0.00277199 0.00849441 0.00177012 0.01010493 0.00877088 0.03695633 0.01403257 0.03159097 0.00158645 0.01590642 0.09909424 0.02423086 0.03652904 
0.01460819 0.04341867 0.00230865 0.00281060 0.00844158 0.00177821 0.01035228 0.00885762 0.03731424 0.01409636 0.03183064 0.00159788 0.01611604 0.09856540 0.02408996 0.03666373 
0.01417493 0.04390904 0.00237921 0.00284797 0.00840472 0.00178594 0.01061848 0.00893814 0.03767530 0.01413841 0.03205275 0.00161063 0.01634711 0.09798785 0.02393868 0.03680385 
0.01374592 0.04438646 0.00245857 0.00288393 0.00838375 0.00179337 0.01090288 0.00901209 0.03803841 0.01415851 0.03225624 0.00162470 0.01659854 0.09736638 0.02377815 0.03694735 
0.01332335 0.04485059 0.00254641 0.00291834 0.00837849 0.00180052 0.01120468 0.00907916 0.03840247 0.01415658 0.03244016 0.00164008 0.01686913 0.09670608 0.02360957 0.03709218 
0.01290937 0.04530129 0.00264241 0.00295106 0.00838862 0.00180744 0.01152297 0.00913903 0.03876637 0.01413266 0.03260368 0.00165674 0.01715763 0.09601234 0.02343420 0.03723625 
0.01250611 0.04573864 0.00274619 0.00298197 0.00841373 0.00181419 0.01185671 0.00919144 0.03912898 0.01408690 0.03274608 0.00167466 0.01746268 0.09529075 0.02325333 0.03737746 
0.01211561 0.04616286 0.00285738 0.00301096 0.00845329 0.00182082 0.01220475 0.00923615 0.03948920 0.01401958 0.03286676 0.00169380 0.01778287 0.09454712 0.02306832 0.03751376 
0.01173988 0.04657439 0.00297557 0.00303794 0.00850669 0.00182737 0.01256583 0.00927296 0.03984594 0.01393111 0.03296524 0.00171411 0.01811672 0.09378736 0.02288055 0.03764310 
0.01138081 0.04697378 0.00310034 0.00306283 0.00857319 0.00183390 0.01293856 0.00930167 0.04019814 0.01382201 0.03304117 0.00173552 0.01846270 0.09301753 0.02269139 0.03776350 
0.01104023 0.04736178 0.00323125 0.00308557 0.00865198 0.00184047 0.01332148 0.00932215 0.04054477 0.01369290 0.03309432 0.00175799 0.01881923 0.09224373 0.02250227 0.03787304 
0.01071986 0.04773925 0.00336784 0.00310612 0.00874213 0.00184713 0.01371302 0.00933430 0.04088486 0.01354453 0.03312459 0.00178144 0.01918470 0.09147208 0.02231457 0.03796989 
0.01042131 0.04810719 0.00350964 0.00312443 0.00884265 0.00185395 0.01411154 0.00933804 0.04121750 0.01337775 0.03313200 0.00180578 0.01955747 0.09070865 0.02212968 0.03805230 
0.01014607 0.04846670 0.00365618 0.00314050 0.00895248 0.00186098 0.01451530 0.00933334 0.04154183 0.01319350 0.03311672 0.00183094 0.01993587 0.08995948 0.02194898 0.03811867 
0.00989551 0.04881897 0.00380696 0.00315432 0.00907048 0.00186827 0.01492253 0.00932021 0.04185710 0.01299283 0.03307901 0.00185680 0.02031823 0.08923047 0.02177381 0.03816750 
0.00967087 0.04916528 0.00396149 0.00316592 0.00919544 0.00187590 0.01533136 0.00929868 0.04216263 0.01277687 0.03301927 0.00188328 0.02070287 0.08852737 0.02160545 0.03819745 
0.00947324 0.04950697 0.00411927 0.00317533 0.00932613 0.00188392 0.01573992 0.00926884 0.04245782 0.01254683 0.03293804 0.00191026 0.02108810 0.08785574 0.02144516 0.03820732 
0.00930357 0.04984541 0.00427979 0.00318259 0.00946123 0.00189239 0.01614626 0.00923081 0.04274220 0.01230402 0.03283595 0.00193764 0.02147227 0.08722092 0.02129412 0.03819610 
0.00916267 0.05018202 0.00444255 0.00318777 0.00959942 0.00190135 0.01654844 0.00918476 0.04301539 0.01204978 0.03271375 0.00196528 0.02185372 0.08662799 0.02115345 0.03816296 
0.00905117 0.05051820 0.00460704 0.00319094 0.00973934 0.00191088 0.01694449 0.00913088 0.04327715 0.01178553 0.03257233 0.00199307 0.02223084 0.08608170 0.02102420 0.03810724 
0.00896959 0.05085536 0.00477275 0.00319220 0.00987962 0.00192101 0.01733244 0.00906940 0.04352734 0.01151274 0.03241265 0.00202089 0.02260205 0.08558651 0.02090733 0.03802850 
0.00891826 0.05119488 0.00493919 0.00319164 0.01001886 0.00193181 0.01771032 0.00900061 0.04376596 0.01123292 0.03223581 0.00204859 0.02296579 0.08514651 0.02080373 0.03792651 
0.00889737 0.05153808 0.00510585 0.00318939 0.01015569 0.00194331 0.01807620 0.00892480 0.04399314 0.01094760 0.03204298 0.00207604 0.02332059 0.08476541 0.02071417 0.03780123 
0.00890694 0.05188625 0.00527226 0.00318557 0.01028872 0.00195558 0.01842816 0.00884233 0.04420915 0.01065835 0.03183545 0.00210312 0.02366500 0.08444652 0.02063934 0.03765287 
0.00894686 0.05224057 0.00543794 0.00318033 0.01041661 0.00196865 0.01876433 0.00875358 0.04441438 0.01036675 0.03161457 0.00212968 0.02399764 0.08419275 0.02057982 0.03748184 
0.00901683 0.05260215 0.00560241 0.00317380 0.01053803 0.00198255 0.01908289 0.00865896 0.04460938 0.01007438 0.03138180 0.00215560 0.02431720 0.08400655 0.02053610 0.03728879 
0.00911645 0.05297198 0.00576522 0.00316615 0.01065167 0.00199734 0.01938209 0.00855890 0.04479483 0.00978281 0.03113865 0.00218073 0.02462244 0.08388995 0.02050853 0.03707459 
0.00924515 0.05335094 0.00592593 0.00315754 0.01075629 0.00201304 0.01966026 0.00845389 0.04497153 0.00949360 0.03088673 0.00220494 0.02491220 0.08384452 0.02049739 0.03684033 
0.00940221 0.05373977 0.00608412 0.00314815 0.01085070 0.00202968 0.01991580 0.00834441 0.04514042 0.00920829 0.03062769 0.00222811 0.02518540 0.08387136 0.02050281 0.03658733 
0.00958680 0.05413907 0.00623936 0.00313814 0.01093376 0.00204729 0.02014721 0.00823098 0.04530259 0.00892837 0.03036323 0.00225010 0.02544104 0.08397114 0.02052483 0.03631711 
0.00979795 0.05454928 0.00639128 0.00312772 0.01100440 0.00206590 0.02035309 0.00811417 0.04545923 0.00865531 0.03009512 0.00227079 0.02567821 0.08414406 0.02056338 0.03603142 
0.01003459 0.05497071 0.00653950 0.00311705 0.01106163 0.00208552 0.02053216 0.00799451 0.04561164 0.00839050 0.02982516 0.00229008 0.02589610 0.08438987 0.02061828 0.03573220 
0.01029551 0.05540346 0.00668366 0.00310634 0.01110454 0.00210616 0.02068326 0.00787260 0.04576125 0.00813530 0.02955518 0.00230784 0.02609398 0.08470789 0.02068924 0.03542158 
0.01057943 0.05584748 0.00682344 0.00309577 0.01113229 0.00212784 0.02080534 0.00774904 0.04590957 0.00789097 0.02928704 0.00232398 0.02627121 0.08509699 0.02077586 0.03510189 
0.01088495 0.05630255 0.00695851 0.00308553 0.01114417 0.00215057 0.02089751 0.00762442 0.04605822 0.00765872 0.02902261 0.00233839 0.02642727 0.08555566 0.02087765 0.03477561 
0.01121061 0.05676826 0.00708861 0.00307582 0.01113953 0.00217434 0.02095899 0.00749937 0.04620887 0.00743966 0.02876377 0.00235099 0.02656172 0.08608197 0.02099402 0.03444539 
0.01155485 0.05724404 0.00721345 0.00306682 0.01111783 0.00219916 0.02098918 0.00737450 0.04636328 0.00723482 0.02851241 0.00236171 0.02667421 0.08667361 0.02112428 0.03411399 
0.01191608 0.05772913 0.00733282 0.00305871 0.01107866 0.00222502 0.02098761 0.00725044 0.04652324 0.00704512 0.02827039 0.00237047 0.02676451 0.08732794 0.02126767 0.03378433 
0.01229264 0.05822262 0.00744648 0.00305168 0.01102169 0.00225191 0.02095395 0.00712782 0.04669059 0.00687139 0.02803959 0.00237721 0.02683247 0.08804195 0.02142334 0.03345940 
0.01268282 0.05872341 0.00755426 0.00304591 0.01094671 0.00227981 0.02088806 0.00700726 0.04686718 0.00671435 0.02782183 0.00238190 0.02687804 0.08881236 0.02159037 0.03314231 
0.01308489 0.05923027 0.00765599 0.00304156 0.01085363 0.00230872 0.02078992 0.00688936 0.04705488 0.00657460 0.02761890 0.00238448 0.02690126 0.08963561 0.02176777 0.03283619 
0.01349711 0.05974180 0.00775155 0.00303880 0.01074245 0.00233860 0.02065969 0.00677475 0.04725554 0.00645265 0.02743258 0.00238495 0.02690227 0.09050786 0.02195449 0.03254423 
0.01391771 0.06025647 0.00784081 0.00303778 0.01061331 0.00236943 0.02049770 0.00666401 0.04747098 0.00634886 0.02726456 0.00238329 0.02688128 0.09142507 0.02214943 0.03226966 
0.01434494 0.06077264 0.00792371 0.00303864 0.01046644 0.00240119 0.02030440 0.00655773 0.04770297 0.00626349 0.02711650 0.00237949 0.02683862 0.09238303 0.02235144 0.03201567 
0.01477706 0.06128853 0.00800018 0.00304152 0.01030222 0.00243383 0.02008044 0.00645646 0.04795321 0.00619669 0.02698999 0.00237358 0.02677467 0.09337734 0.02255933 0.03178544 
0.01521233 0.06180228 0.00807020 0.00304655 0.01012108 0.00246733 0.01982659 0.00636076 0.04822334 0.00614845 0.02688653 0.00236558 0.02668990 0.09440348 0.02277189 0.03158209 
0.01564906 0.06231195 0.00813377 0.00305384 0.00992362 0.00250164 0.01954379 0.00627113 0.04851489 0.00611869 0.02680757 0.00235552 0.02658488 0.09545684 0.02298789 0.03140867 
0.01608561 0.06281552 0.00819091 0.00306348 0.00971051 0.00253672 0.01923311 0.00618807 0.04882925 0.00610717 0.02675443 0.00234347 0.02646021 0.09653274 0.02320606 0.03126812 
0.01652038 0.06331095 0.00824168 0.00307557 0.00948252 0.00257252 0.01889576 0.00611206 0.04916770 0.00611356 0.02672838 0.00232949 0.02631660 0.09762647 0.02342516 0.03116325 
0.01695181 0.06379614 0.00828614 0.00309018 0.00924054 0.00260900 0.01853311 0.00604352 0.04953138 0.00613740 0.02673057 0.00231364 0.02615479 0.09873330 0.02364392 0.03109674 
0.01737844 0.06426899 0.00832441 0.00310736 0.00898554 0.00264610 0.01814663 0.00598286 0.04992122 0.00617811 0.02676202 0.00229603 0.02597561 0.09984852 0.02386110 0.03107107 
0.01779885 0.06472743 0.00835661 0.00312716 0.00871856 0.00268376 0.01773792 0.00593044 0.05033800 0.00623504 0.02682368 0.00227675 0.02577993 0.10096749 0.02407546 0.03108853 
0.01821173 0.06516938 0.00838289 0.00314961 0.00844077 0.00272192 0.01730870 0.00588661 0.05078230 0.00630739 0.02691634 0.00225591 0.02556865 0.10208563 0.02428578 0.03115120 
0.01861583 0.06559283 0.00840341 0.00317473 0.00815337 0.00276053 0.01686076 0.00585164 0.05125448 0.00639431 0.02704069 0.00223364 0.02534276 0.10319844 0.02449089 0.03126091 
0.01900999 0.06599585 0.00841838 0.00320250 0.00785764 0.00279952 0.01639603 0.00582581 0.05175470 0.00649481 0.02719729 0.00221007 0.02510326 0.10430159 0.02468964 0.03141924 
0.01939316 0.06637657 0.00842799 0.00323292 0.00755496 0.00283883 0.01591650 0.00580932 0.05228286 0.00660786 0.02738655 0.00218533 0.02485118 0.10539084 0.02488092 0.03162747 
0.01976438 0.06673323 0.00843250 0.00326594 0.00724671 0.00287838 0.01542424 0.00580235 0.05283865 0.00673234 0.02760877 0.00215958 0.02458761 0.10646214 0.02506366 0.03188661 
0.02012278 0.06706420 0.00843213 0.00330153 0.00693435 0.00291811 0.01492137 0.00580502 0.05342149 0.00686705 0.02786409 0.00213298 0.02431365 0.10751162 0.02523687 0.03219734 
0.02046760 0.06736799 0.00842716 0.00333960 0.00661939 0.00295795 0.01441007 0.00581743 0.05403057 0.00701074 0.02815251 0.00210568 0.02403041 0.10853559 0.02539957 0.03256004 
0.02079818 0.06764324 0.00841788 0.00338009 0.00630336 0.00299781 0.01389257 0.00583961 0.05466482 0.00716210 0.02847390 0.00207785 0.02373904 0.10953059 0.02555089 0.03297472 
0.02111395 0.06788880 0.00840456 0.00342288 0.00598780 0.00303763 0.01337113 0.00587158 0.05532292 0.00731980 0.02882796 0.00204968 0.02344069 0.11049335 0.02569000 0.03344107 
0.02141445 0.06810366 0.00838752 0.00346788 0.00567429 0.00307733 0.01284801 0.00591327 0.05600329 0.00748245 0.02921426 0.00202132 0.02313652 0.11142086 0.02581612 0.03395843 
0.02169932 0.06828703 0.00836708 0.00351495 0.00536442 0.00311682 0.01232549 0.00596462 0.05670410 0.00764865 0.02963223 0.00199297 0.02282769 0.11231032 0.02592858 0.03452577 
0.02196830 0.06843830 0.00834355 0.00356394 0.00505977 0.00315603 0.01180584 0.00602548 0.05742329 0.00781699 0.03008115 0.00196480 0.02251537 0.11315918 0.02602675 0.03514173 
0.02222120 0.06855711 0.00831726 0.00361471 0.00476191 0.00319488 0.01129131 0.00609569 0.05815856 0.00798604 0.03056013 0.00193700 0.02220071 0.11396516 0.02611008 0.03580456 
0.02245795 0.06864328 0.00828856 0.00366708 0.00447241 0.00323329 0.01078413 0.00617503 0.05890736 0.00815440 0.03106818 0.00190973 0.02188487 0.11472618 0.02617811 0.03651217 
0.02267854 0.06869687 0.00825777 0.00372088 0.00419279 0.00327116 0.01028649 0.00626324 0.05966697 0.00832066 0.03160413 0.00188318 0.02156898 0.11544045 0.02623045 0.03726214 
0.02288304 0.06871817 0.00822524 0.00377591 0.00392457 0.00330843 0.00980053 0.00636004 0.06043444 0.00848346 0.03216671 0.00185752 0.02125417 0.11610641 0.02626677 0.03805168 
0.02307161 0.06870769 0.00819131 0.00383196 0.00366921 0.00334500 0.00932830 0.00646508 0.06120663 0.00864146 0.03275448 0.00183292 0.02094154 0.11672274 0.02628685 0.03887771 
0.02324447 0.06866617 0.00815631 0.00388882 0.00342814 0.00338080 0.00887182 0.00657802 0.06198025 0.00879337 0.03336590 0.00180953 0.02063218 0.11728837 0.02629052 0.03973679 
0.02340191 0.06859459 0.00812057 0.00394627 0.00320271 0.00341573 0.00843301 0.00669844 0.06275187 0.00893795 0.03399929 0.00178753 0.02032714 0.11780246 0.02627771 0.04062523 
0.02354424 0.06849411 0.00808442 0.00400407 0.00299423 0.00344972 0.00801369 0.00682591 0.06351790 0.00907402 0.03465286 0.00176704 0.02002746 0.11826439 0.02624839 0.04153901 
0.02367187 0.06836614 0.00804817 0.00406200 0.00280396 0.00348268 0.00761560 0.00695997 0.06427470 0.00920047 0.03532470 0.00174821 0.01973413 0.11867378 0.02620265 0.04247390 
0.02378521 0.06821229 0.00801214 0.00411981 0.00263303 0.00351454 0.00724034 0.00710014 0.06501849 0.00931629 0.03601281 0.00173117 0.01944812 0.11903045 0.02614062 0.04342539 
0.02388471 0.06803434 0.00797663 0.00417724 0.00248256 0.00354520 0.00688944 0.00724589 0.06574549 0.00942052 0.03671507 0.00171603 0.01917037 0.11933442 0.02606252 0.04438878 
0.02397086 0.06783427 0.00794190 0.00423406 0.00235353 0.00357460 0.00656426 0.00739668 0.06645185 0.00951231 0.03742930 0.00170291 0.01890176 0.11958593 0.02596862 0.04535920 
0.02404416 0.06761423 0.00790824 0.00429000 0.00224687 0.00360265 0.00626606 0.00755197 0.06713376 0.00959092 0.03815321 0.00169189 0.01864316 0.11978538 0.02585927 0.04633158 
0.02410513 0.06737651 0.00787590 0.00434482 0.00216338 0.00362927 0.00599595 0.00771117 0.06778740 0.00965569 0.03888446 0.00168305 0.01839537 0.11993335 0.02573489 0.04730078 
0.02415427 0.06712356 0.00784512 0.00439827 0.00210379 0.00365440 0.00575491 0.00787370 0.06840904 0.00970608 0.03962064 0.00167646 0.01815918 0.12003060 0.02559594 0.04826152 
0.02419209 0.06685792 0.00781611 0.00445009 0.00206872 0.00367796 0.00554378 0.00803896 0.06899500 0.00974166 0.04035929 0.00167217 0.01793530 0.12007804 0.02544297 0.04920848 
0.02421911 0.06658225 0.00778907 0.00450004 0.00205868 0.00369988 0.00536324 0.00820634 0.06954174 0.00976211 0.04109790 0.00167022 0.01772443 0.12007672 0.02527655 0.05013631 
0.02423581 0.06629928 0.00776418 0.00454788 0.00207408 0.00372009 0.00521382 0.00837523 0.07004584 0.00976724 0.04183395 0.00167063 0.01752719 0.12002783 0.02509734 0.05103966 
0.02424266 0.06601181 0.00774160 0.00459337 0.00211521 0.00373854 0.00509591 0.00854501 0.07050406 0.00975695 0.04256487 0.00167341 0.01734418 0.11993271 0.02490601 0.05191323 
0.02424009 0.06572266 0.00772146 0.00463630 0.00218226 0.00375516 0.00500974 0.00871506 0.07091336 0.00973130 0.04328811 0.00167854 0.01717592 0.11979279 0.02470332 0.05275179 
0.02422852 0.06543469 0.00770387 0.00467643 0.00227531 0.00376990 0.00495538 0.00888477 0.07127090 0.00969042 0.04400111 0.00168600 0.01702292 0.11960962 0.02449002 0.05355022 
0.02420831 0.06515074 0.00768892 0.00471356 0.00239431 0.00378270 0.00493277 0.00905353 0.07157409 0.00963460 0.04470131 0.00169575 0.01688561 0.11938487 0.02426695 0.05430356 
0.02417981 0.06487362 0.00767667 0.00474751 0.00253912 0.00379352 0.00494168 0.00922075 0.07182061 0.00956423 0.04538620 0.00170774 0.01676438 0.11912028 0.02403496 0.05500701 
0.02414330 0.06460611 0.00766716 0.00477807 0.00270948 0.00380232 0.00498174 0.00938584 0.07200844 0.00947980 0.04605330 0.00172190 0.01665956 0.11881771 0.02379493 0.05565599 
0.02409904 0.06435088 0.00766042 0.00480509 0.00290501 0.00380905 0.00505244 0.00954822 0.07213585 0.00938193 0.04670016 0.00173814 0.01657143 0.11847907 0.02354778 0.05624617 
0.02404722 0.06411056 0.00765642 0.00482841 0.00312522 0.00381369 0.00515310 0.00970735 0.07220143 0.00927133 0.04732440 0.00175636 0.01650023 0.11810638 0.02329446 0.05677350 
0.02398800 0.06388761 0.00765514 0.00484788 0.00336955 0.00381620 0.00528295 0.00986268 0.07220414 0.00914882 0.04792373 0.00177644 0.01644614 0.11770172 0.02303593 0.05723422 
0.02392148 0.06368441 0.00765652 0.00486340 0.00363728 0.00381657 0.00544104 0.01001369 0.07214326 0.00901530 0.04849591 0.00179827 0.01640928 0.11726724 0.02277316 0.05762490 
0.02384773 0.06350315 0.00766048 0.00487484 0.00392762 0.00381478 0.00562634 0.01015991 0.07201845 0.00887177 0.04903880 0.00182171 0.01638972 0.11680516 0.02250717 0.05794249 
0.02376677 0.06334588 0.00766691 0.00488213 0.00423969 0.00381081 0.00583765 0.01030086 0.07182975 0.00871932 0.04955037 0.00184661 0.01638749 0.11631775 0.02223896 0.05818430 
0.02367856 0.06321442 0.00767570 0.00488520 0.00457251 0.00380467 0.00607369 0.01043610 0.07157756 0.00855909 0.05002871 0.00187280 0.01640254 0.11580735 0.02196956 0.05834805 
0.02358303 0.06311045 0.00768670 0.00488400 0.00492498 0.00379636 0.00633308 0.01056523 0.07126266 0.00839230 0.05047199 0.00190012 0.01643480 0.11527636 0.02169998 0.05843188 
0.02348008 0.06303537 0.00769974 0.00487850 0.00529597 0.00378587 0.00661432 0.01068786 0.07088622 0.00822022 0.05087856 0.00192840 0.01648412 0.11472724 0.02143128 0.05843437 
0.02336955 0.06299040 0.00771465 0.00486870 0.00568423 0.00377323 0.00691582 0.01080365 0.07044979 0.00804418 0.05124686 0.00195745 0.01655032 0.11416248 0.02116446 0.05835453 
0.02325128 0.06297649 0.00773120 0.00485460 0.00608844 0.00375846 0.00723593 0.01091228 0.06995527 0.00786554 0.05157550 0.00198708 0.01663316 0.11358465 0.02090057 0.05819185 
0.02312507 0.06299438 0.00774920 0.00483624 0.00650724 0.00374158 0.00757291 0.01101348 0.06940495 0.00768568 0.05186323 0.00201709 0.01673234 0.11299635 0.02064063 0.05794627 
0.02299069 0.06304451 0.00776841 0.00481367 0.00693917 0.00372263 0.00792497 0.01110701 0.06880146 0.00750601 0.05210897 0.00204729 0.01684752 0.11240023 0.02038564 0.05761820 
0.02284790 0.06312709 0.00778858 0.00478697 0.00738274 0.00370164 0.00829024 0.01119264 0.06814775 0.00732795 0.05231178 0.00207748 0.01697831 0.11179898 0.02013661 0.05720853 
0.02269646 0.06324207 0.00780945 0.00475622 0.00783640 0.00367866 0.00866685 0.01127021 0.06744712 0.00715293 0.05247091 0.00210746 0.01712427 0.11119536 0.01989453 0.05671861 
0.02253612 0.06338911 0.00783075 0.00472155 0.00829857 0.00365374 0.00905285 0.01133958 0.06670315 0.00698234 0.05258574 0.00213703 0.01728493 0.11059213 0.01966037 0.05615024 
0.02236662 0.06356765 0.00785222 0.00468308 0.00876762 0.00362694 0.00944630 0.01140064 0.06591973 0.00681757 0.05265586 0.00216598 0.01745974 0.10999212 0.01943507 0.05550569 
0.02218773 0.06377682 0.00787356 0.00464095 0.00924189 0.00359832 0.00984523 0.01145334 0.06510097 0.00665999 0.05268100 0.00219413 0.01764814 0.10939816 0.01921957 0.05478767 
0.02199923 0.06401553 0.00789448 0.00459535 0.00971972 0.00356794 0.01024766 0.01149763 0.06425126 0.00651091 0.05266110 0.00222127 0.01784950 0.10881314 0.01901476 0.05399930 
0.02180091 0.06428244 0.00791469 0.00454645 0.01019940 0.00353589 0.01065163 0.01153353 0.06337515 0.00637160 0.05259623 0.00224723 0.01806316 0.10823995 0.01882152 0.05314413 
0.02159261 0.06457594 0.00793391 0.00449445 0.01067925 0.00350222 0.01105520 0.01156107 0.06247740 0.00624328 0.05248667 0.00227182 0.01828843 0.10768151 0.01864069 0.05222607 
0.02137418 0.06489423 0.00795183 0.00443957 0.01115756 0.00346704 0.01145642 0.01158031 0.06156292 0.00612709 0.05233284 0.00229488 0.01852456 0.10714073 0.01847307 0.05124944 
0.02114554 0.06523525 0.00796816 0.00438203 0.01163265 0.00343042 0.01185342 0.01159137 0.06063673 0.00602411 0.05213534 0.00231624 0.01877078 0.10662053 0.01831943 0.05021886 
0.02090664 0.06559677 0.00798262 0.00432206 0.01210285 0.00339245 0.01224432 0.01159437 0.05970393 0.00593534 0.05189493 0.00233575 0.01902629 0.10612384 0.01818052 0.04913929 
0.02065749 0.06597635 0.00799492 0.00425993 0.01256648 0.00335322 0.01262735 0.01158947 0.05876969 0.00586167 0.05161254 0.00235326 0.01929024 0.10565354 0.01805701 0.04801597 
0.02039815 0.06637138 0.00800478 0.00419588 0.01302194 0.00331283 0.01300075 0.01157687 0.05783919 0.00580394 0.05128923 0.00236865 0.01956176 0.10521250 0.01794955 0.04685438 
0.02012877 0.06677910 0.00801195 0.00413017 0.01346762 0.00327138 0.01336285 0.01155678 0.05691762 0.00576285 0.05092623 0.00238179 0.01983996 0.10480356 0.01785874 0.04566025 
0.01984954 0.06719659 0.00801615 0.00406309 0.01390198 0.00322896 0.01371205 0.01152944 0.05601010 0.00573902 0.05052491 0.00239259 0.02012390 0.10442948 0.01778513 0.04443947 
0.01956075 0.06762085 0.00801714 0.00399491 0.01432350 0.00318567 0.01404683 0.01149512 0.05512170 0.00573294 0.05008675 0.00240096 0.02041265 0.10409298 0.01772921 0.04319810 
0.01926274 0.06804874 0.00801470 0.00392589 0.01473074 0.00314162 0.01436576 0.01145409 0.05425736 0.00574502 0.04961337 0.00240682 0.02070524 0.10379669 0.01769143 0.04194233 
0.01895596 0.06847706 0.00800860 0.00385633 0.01512230 0.00309691 0.01466750 0.01140667 0.05342191 0.00577553 0.04910652 0.00241010 0.02100069 0.10354315 0.01767216 0.04067840 
0.01864092 0.06890258 0.00799863 0.00378649 0.01549685 0.00305163 0.01495082 0.01135317 0.05262000 0.00582464 0.04856805 0.00241077 0.02129799 0.10333477 0.01767173 0.03941261 
0.01831823 0.06932199 0.00798461 0.00371665 0.01585312 0.00300590 0.01521457 0.01129393 0.05185608 0.00589240 0.04799990 0.00240880 0.02159615 0.10317387 0.01769041 0.03815129 
0.01798857 0.06973199 0.00796637 0.00364708 0.01618994 0.00295980 0.01545774 0.01122929 0.05113438 0.00597873 0.04740410 0.00240417 0.02189414 0.10306261 0.01772838 0.03690071 
0.01765272 0.07012931 0.00794375 0.00357804 0.01650618 0.00291344 0.01567940 0.01115963 0.05045890 0.00608347 0.04678278 0.00239689 0.02219094 0.10300300 0.01778579 0.03566709 
0.01731155 0.07051068 0.00791663 0.00350979 0.01680082 0.00286691 0.01587876 0.01108530 0.04983334 0.00620632 0.04613812 0.00238697 0.02248552 0.10299686 0.01786269 0.03445655 
0.01696599 0.07087290 0.00788489 0.00344257 0.01707292 0.00282030 0.01605512 0.01100669 0.04926114 0.00634686 0.04547237 0.00237445 0.02277687 0.10304584 0.01795909 0.03327509 
0.01661708 0.07121285 0.00784844 0.00337662 0.01732162 0.00277371 0.01620793 0.01092417 0.04874541 0.00650459 0.04478783 0.00235939 0.02306397 0.10315138 0.01807490 0.03212851 
0.01626592 0.07152750 0.00780720 0.00331217 0.01754616 0.00272722 0.01633673 0.01083814 0.04828895 0.00667888 0.04408684 0.00234183 0.02334580 0.10331470 0.01820998 0.03102245 
0.01591371 0.07181393 0.00776113 0.00324941 0.01774585 0.00268091 0.01644119 0.01074898 0.04789419 0.00686903 0.04337176 0.00232187 0.02362135 0.10353679 0.01836410 0.02996229 
0.01556170 0.07206937 0.00771020 0.00318856 0.01792014 0.00263487 0.01652110 0.01065708 0.04756323 0.00707421 0.04264499 0.00229960 0.02388965 0.10381839 0.01853698 0.02895316 
0.01521122 0.07229119 0.00765440 0.00312978 0.01806853 0.00258916 0.01657638 0.01056282 0.04729781 0.00729352 0.04190891 0.00227512 0.02414971 0.10415998 0.01872824 0.02799992 
0.01486365 0.07247694 0.00759374 0.00307323 0.01819064 0.00254387 0.01660704 0.01046658 0.04709929 0.00752598 0.04116593 0.00224855 0.02440060 0.10456176 0.01893743 0.02710711 
0.01452045 0.07262434 0.00752827 0.00301907 0.01828619 0.00249905 0.01661322 0.01036876 0.04696867 0.00777054 0.04041845 0.00222004 0.02464137 0.10502366 0.01916405 0.02627892 
0.01418310 0.07273133 0.00745804 0.00296741 0.01835500 0.00245476 0.01659518 0.01026971 0.04690656 0.00802607 0.03966883 0.00218971 0.02487113 0.10554532 0.01940750 0.02551922 
0.01385315 0.07279604 0.00738314 0.00291837 0.01839696 0.00241107 0.01655328 0.01016981 0.04691320 0.00829138 0.03891943 0.00215772 0.02508901 0.10612607 0.01966711 0.02483148 
0.01353217 0.07281686 0.00730366 0.00287203 0.01841208 0.00236801 0.01648798 0.01006940 0.04698847 0.00856524 0.03817256 0.00212424 0.02529416 0.10676494 0.01994215 0.02421880 
0.01322175 0.07279237 0.00721973 0.00282845 0.01840048 0.00232565 0.01639985 0.00996884 0.04713189 0.00884636 0.03743050 0.00208944 0.02548578 0.10746068 0.02023182 0.02368386 
0.01292351 0.07272142 0.00713149 0.00278768 0.01836234 0.00228401 0.01628955 0.00986847 0.04734262 0.00913343 0.03669547 0.00205348 0.02566310 0.10821171 0.02053523 0.02322897 
0.01263906 0.07260310 0.00703910 0.00274975 0.01829795 0.00224313 0.01615783 0.00976861 0.04761947 0.00942512 0.03596966 0.00201657 0.02582540 0.10901613 0.02085145 0.02285597 
0.01237003 0.07243676 0.00694274 0.00271466 0.01820768 0.00220304 0.01600553 0.00966957 0.04796093 0.00972007 0.03525518 0.00197888 0.02597200 0.10987177 0.02117949 0.02256632 
0.01211801 0.07222198 0.00684262 0.00268239 0.01809200 0.00216378 0.01583358 0.00957166 0.04836518 0.01001691 0.03455407 0.00194061 0.02610225 0.11077616 0.02151827 0.02236102 
0.01188458 0.07195863 0.00673895 0.00265292 0.01795146 0.00212535 0.01564295 0.00947517 0.04883010 0.01031429 0.03386832 0.00190195 0.02621556 0.11172652 0.02186669 0.02224065 
0.01167130 0.07164682 0.00663196 0.00262619 0.01778668 0.00208778 0.01543471 0.00938037 0.04935328 0.01061086 0.03319984 0.00186310 0.02631141 0.11271980 0.02222358 0.02220539 
0.01147967 0.07128691 0.00652190 0.00260213 0.01759837 0.00205107 0.01520999 0.00928752 0.04993208 0.01090529 0.03255045 0.00182426 0.02638931 0.11375270 0.02258773 0.02225496 
0.01131112 0.07087953 0.00640904 0.00258064 0.01738729 0.00201525 0.01496994 0.00919689 0.05056360 0.01119629 0.03192191 0.00178561 0.02644882 0.11482167 0.02295788 0.02238870 
0.01116705 0.07042552 0.00629365 0.00256163 0.01715430 0.00198031 0.01471579 0.00910869 0.05124474 0.01148257 0.03131588 0.00174736 0.02648958 0.11592290 0.02333275 0.02260551 
0.01104874 0.06992600 0.00617602 0.00254497 0.01690029 0.00194625 0.01444880 0.00902316 0.05197221 0.01176294 0.03073396 0.00170969 0.02651128 0.11705240 0.02371102 0.02290393 
0.01095743 0.06938229 0.00605645 0.00253052 0.01662624 0.00191308 0.01417025 0.00894052 0.05274257 0.01203622 0.03017762 0.00167278 0.02651365 0.11820597 0.02409134 0.02328210 
0.01089424 0.06879595 0.00593525 0.00251814 0.01633317 0.00188080 0.01388146 0.00886094 0.05355223 0.01230131 0.02964829 0.00163683 0.02649652 0.11937926 0.02447236 0.02373780 
0.01086016 0.06816872 0.00581274 0.00250767 0.01602214 0.00184939 0.01358376 0.00878463 0.05439749 0.01255717 0.02914729 0.00160199 0.02645975 0.12056777 0.02485270 0.02426845 
0.01085611 0.06750257 0.00568924 0.00249894 0.01569427 0.00181886 0.01327849 0.00871176 0.05527458 0.01280282 0.02867585 0.00156845 0.02640329 0.12176688 0.02523101 0.02487115 
0.01088285 0.06679962 0.00556509 0.00249177 0.01535070 0.00178921 0.01296700 0.00864248 0.05617966 0.01303739 0.02823511 0.00153635 0.02632714 0.12297191 0.02560589 0.02554268 
0.01094102 0.06606220 0.00544061 0.00248598 0.01499264 0.00176041 0.01265062 0.00857695 0.05710886 0.01326006 0.02782614 0.00150584 0.02623138 0.12417811 0.02597601 0.02627954 
0.01103112 0.06529275 0.00531616 0.00248136 0.01462128 0.00173247 0.01233068 0.00851532 0.05805831 0.01347011 0.02744992 0.00147706 0.02611614 0.12538071 0.02634002 0.02707795 
0.01115350 0.06449388 0.00519206 0.00247774 0.01423787 0.00170539 0.01200850 0.00845770 0.05902415 0.01366691 0.02710733 0.00145015 0.02598163 0.12657495 0.02669660 0.02793388 
0.01130836 0.06366830 0.00506866 0.00247491 0.01384366 0.00167915 0.01168536 0.00840424 0.06000258 0.01384993 0.02679918 0.00142521 0.02582814 0.12775614 0.02704449 0.02884310 
0.01149572 0.06281884 0.00494629 0.00247267 0.01343993 0.00165377 0.01136252 0.00835502 0.06098986 0.01401872 0.02652619 0.00140235 0.02565602 0.12891963 0.02738245 0.02980117 
0.01171545 0.06194840 0.00482530 0.00247084 0.01302794 0.00162922 0.01104120 0.00831018 0.06198232 0.01417294 0.02628900 0.00138167 0.02546568 0.13006091 0.02770930 0.03080346 
0.01196727 0.06105996 0.00470602 0.00246921 0.01260898 0.00160553 0.01072259 0.00826979 0.06297642 0.01431234 0.02608818 0.00136325 0.02525762 0.13117561 0.02802391 0.03184523 
0.01225069 0.06015655 0.00458877 0.00246761 0.01218433 0.00158269 0.01040781 0.00823396 0.06396875 0.01443677 0.02592421 0.00134714 0.02503239 0.13225953 0.02832521 0.03292158 
0.01256508 0.05924122 0.00447387 0.00246585 0.01175525 0.00156070 0.01009796 0.00820276 0.06495604 0.01454617 0.02579751 0.00133342 0.02479062 0.13330870 0.02861222 0.03402754 
0.01290961 0.05831706 0.00436164 0.00246375 0.01132301 0.00153959 0.00979407 0.00817627 0.06593516 0.01464059 0.02570839 0.00132211 0.02453302 0.13431937 0.02888403 0.03515805 
0.01328330 0.05738714 0.00425237 0.00246116 0.01088884 0.00151936 0.00949710 0.00815457 0.06690320 0.01472016 0.02565714 0.00131324 0.02426035 0.13528809 0.02913982 0.03630802 
0.01368497 0.05645451 0.00414637 0.00245792 0.01045398 0.00150003 0.00920796 0.00813772 0.06785742 0.01478511 0.02564393 0.00130683 0.02397345 0.13621168 0.02937884 0.03747234 
0.01411330 0.05552219 0.00404390 0.00245390 0.01001962 0.00148163 0.00892750 0.00812578 0.06879525 0.01483573 0.02566889 0.00130288 0.02367322 0.13708731 0.02960047 0.03864588 
0.01456678 0.05459316 0.00394524 0.00244895 0.00958693 0.00146418 0.00865650 0.00811881 0.06971439 0.01487243 0.02573205 0.00130137 0.02336062 0.13791250 0.02980417 0.03982356 
0.01504374 0.05367031 0.00385064 0.00244297 0.00915706 0.00144770 0.00839565 0.00811687 0.07061269 0.01489567 0.02583340 0.00130228 0.02303670 0.13868512 0.02998950 0.04100034 
0.01554236 0.05275647 0.00376034 0.00243586 0.00873111 0.00143224 0.00814560 0.00811998 0.07148827 0.01490600 0.02597284 0.00130557 0.02270253 0.13940346 0.03015617 0.04217125 
0.01606067 0.05185437 0.00367456 0.00242754 0.00831015 0.00141783 0.00790690 0.00812821 0.07233946 0.01490403 0.02615021 0.00131118 0.02235928 0.14006621 0.03030395 0.04333142 
0.01659655 0.05096664 0.00359349 0.00241794 0.00789522 0.00140451 0.00768005 0.00814159 0.07316479 0.01489042 0.02636528 0.00131906 0.02200816 0.14067247 0.03043277 0.04447609 
0.01714774 0.05009578 0.00351733 0.00240701 0.00748729 0.00139232 0.00746546 0.00816014 0.07396304 0.01486590 0.02661774 0.00132913 0.02165043 0.14122178 0.03054265 0.04560063 
0.01771188 0.04924418 0.00344624 0.00239472 0.00708732 0.00138131 0.00726348 0.00818389 0.07473322 0.01483124 0.02690721 0.00134131 0.02128741 0.14171412 0.03063374 0.04670056 
0.01828647 0.04841408 0.00338037 0.00238105 0.00669620 0.00137154 0.00707437 0.00821287 0.07547452 0.01478726 0.02723327 0.00135549 0.02092046 0.14214990 0.03070632 0.04777156 
0.01886891 0.04760758 0.00331985 0.00236601 0.00631478 0.00136305 0.00689833 0.00824709 0.07618638 0.01473480 0.02759537 0.00137158 0.02055100 0.14252999 0.03076076 0.04880952 
0.01945652 0.04682665 0.00326477 0.00234962 0.00594386 0.00135590 0.00673550 0.00828656 0.07686843 0.01467473 0.02799293 0.00138946 0.02018049 0.14285566 0.03079758 0.04981050 
0.02004654 0.04607307 0.00321523 0.00233191 0.00558420 0.00135015 0.00658592 0.00833127 0.07752048 0.01460795 0.02842527 0.00140900 0.01981041 0.14312865 0.03081739 0.05077077 
0.02063614 0.04534850 0.00317128 0.00231294 0.00523648 0.00134585 0.00644961 0.00838122 0.07814256 0.01453535 0.02889164 0.00143009 0.01944229 0.14335109 0.03082092 0.05168685 
0.02122245 0.04465441 0.00313296 0.00229278 0.00490136 0.00134306 0.00632647 0.00843640 0.07873485 0.01445785 0.02939122 0.00145257 0.01907769 0.14352550 0.03080900 0.05255547 
0.02180254 0.04399212 0.00310030 0.00227152 0.00457943 0.00134183 0.00621639 0.00849678 0.07929770 0.01437633 0.02992308 0.00147632 0.01871817 0.14365480 0.03078259 0.05337361 
0.02237350 0.04336278 0.00307328 0.00224926 0.00427124 0.00134223 0.00611918 0.00856233 0.07983163 0.01429171 0.03048623 0.00150118 0.01836534 0.14374227 0.03074272 0.05413850 
0.02293238 0.04276740 0.00305188 0.00222611 0.00397727 0.00134431 0.00603458 0.00863300 0.08033726 0.01420484 0.03107958 0.00152700 0.01802079 0.14379151 0.03069051 0.05484762 
0.02347626 0.04220681 0.00303606 0.00220221 0.00369797 0.00134812 0.00596231 0.00870874 0.08081537 0.01411658 0.03170195 0.00155363 0.01768615 0.14380644 0.03062717 0.05549873 
0.02400225 0.04168170 0.00302573 0.00217769 0.00343372 0.00135370 0.00590201 0.00878948 0.08126683 0.01402774 0.03235209 0.00158091 0.01736303 0.14379123 0.03055400 0.05608985 
0.02450750 0.04119259 0.00302082 0.00215270 0.00318487 0.00136111 0.00585331 0.00887514 0.08169261 0.01393911 0.03302862 0.00160869 0.01705303 0.14375031 0.03047235 0.05661925 
0.02498922 0.04073988 0.00302120 0.00212740 0.00295168 0.00137039 0.00581577 0.00896563 0.08209378 0.01385143 0.03373011 0.00163681 0.01675774 0.14368829 0.03038363 0.05708550 
0.02544471 0.04032381 0.00302675 0.00210197 0.00273442 0.00138157 0.00578892 0.00906084 0.08247144 0.01376538 0.03445499 0.00166510 0.01647875 0.14360997 0.03028930 0.05748743 
0.02587135 0.03994450 0.00303730 0.00207656 0.00253326 0.00139468 0.00577228 0.00916065 0.08282678 0.01368161 0.03520162 0.00169342 0.01621759 0.14352024 0.03019086 0.05782415 
0.02626664 0.03960196 0.00305270 0.00205137 0.00234835 0.00140974 0.00576531 0.00926494 0.08316100 0.01360069 0.03596827 0.00172161 0.01597578 0.14342409 0.03008984 0.05809501 
0.02662819 0.03929606 0.00307274 0.00202657 0.00217978 0.00142676 0.00576747 0.00937354 0.08347534 0.01352315 0.03675309 0.00174953 0.01575479 0.14332653 0.02998778 0.05829967 
0.02695378 0.03902657 0.00309723 0.00200234 0.00202762 0.00144576 0.00577819 0.00948629 0.08377105 0.01344944 0.03755416 0.00177701 0.01555603 0.14323256 0.02988622 0.05843801 
0.02724131 0.03879317 0.00312595 0.00197887 0.00189188 0.00146674 0.00579688 0.00960300 0.08404938 0.01337996 0.03836944 0.00180392 0.01538086 0.14314714 0.02978672 0.05851021 
0.02748889 0.03859547 0.00315864 0.00195633 0.00177252 0.00148967 0.00582295 0.00972349 0.08431156 0.01331504 0.03919681 0.00183013 0.01523058 0.14307511 0.02969079 0.05851666 
0.02769478 0.03843296 0.00319508 0.00193490 0.00166948 0.00151455 0.00585578 0.00984754 0.08455881 0.01325492 0.04003407 0.00185549 0.01510641 0.14302117 0.02959993 0.05845804 
0.02785744 0.03830511 0.00323498 0.00191475 0.00158265 0.00154133 0.00589478 0.00997492 0.08479231 0.01319979 0.04087892 0.00187990 0.01500948 0.14298984 0.02951559 0.05833523 
0.02797556 0.03821131 0.00327808 0.00189605 0.00151189 0.00156997 0.00593933 0.01010538 0.08501321 0.01314977 0.04172899 0.00190323 0.01494085 0.14298537 0.02943917 0.05814936 
0.02804801 0.03815090 0.00332410 0.00187896 0.00145702 0.00160042 0.00598881 0.01023866 0.08522259 0.01310491 0.04258181 0.00192537 0.01490147 0.14301178 0.02937202 0.05790178 
0.02807391 0.03812319 0.00337274 0.00186361 0.00141783 0.00163262 0.00604264 0.01037450 0.08542149 0.01306519 0.04343487 0.00194622 0.01489219 0.14307273 0.02931539 0.05759406 
0.02805262 0.03812746 0.00342370 0.00185014 0.00139407 0.00166649 0.00610021 0.01051260 0.08561090 0.01303051 0.04428558 0.00196570 0.01491374 0.14317155 0.02927047 0.05722797 
0.02798372 0.03816298 0.00347669 0.00183869 0.00138549 0.00170193 0.00616094 0.01065266 0.08579171 0.01300073 0.04513129 0.00198372 0.01496675 0.14331116 0.02923833 0.05680545 
0.02786706 0.03822898 0.00353139 0.00182935 0.00139176 0.00173885 0.00622427 0.01079436 0.08596479 0.01297564 0.04596932 0.00200021 0.01505172 0.14349406 0.02921996 0.05632867 
0.02770272 0.03832473 0.00358749 0.00182222 0.00141257 0.00177714 0.00628965 0.01093739 0.08613089 0.01295497 0.04679693 0.00201511 0.01516900 0.14372230 0.02921621 0.05579994 
0.02749103 0.03844946 0.00364470 0.00181738 0.00144755 0.00181667 0.00635654 0.01108140 0.08629071 0.01293838 0.04761138 0.00202837 0.01531883 0.14399744 0.02922784 0.05522173 
0.02723261 0.03860244 0.00370269 0.00181490 0.00149634 0.00185730 0.00642443 0.01122606 0.08644489 0.01292551 0.04840989 0.00203996 0.01550130 0.14432052 0.02925544 0.05459669 
0.02692831 0.03878293 0.00376116 0.00181482 0.00155852 0.00189889 0.00649284 0.01137102 0.08659398 0.01291594 0.04918970 0.00204985 0.01571635 0.14469206 0.02929951 0.05392758 
0.02657923 0.03899023 0.00381981 0.00181716 0.00163368 0.00194128 0.00656129 0.01151591 0.08673847 0.01290921 0.04994805 0.00205802 0.01596377 0.14511205 0.02936038 0.05321732 
0.02618672 0.03922364 0.00387835 0.00182194 0.00172137 0.00198431 0.00662937 0.01166038 0.08687876 0.01290482 0.05068218 0.00206448 0.01624323 0.14557990 0.02943822 0.05246891 
0.02575241 0.03948250 0.00393647 0.00182914 0.00182111 0.00202780 0.00669664 0.01180406 0.08701521 0.01290225 0.05138942 0.00206922 0.01655419 0.14609447 0.02953309 0.05168550 
0.02527814 0.03976617 0.00399391 0.00183875 0.00193244 0.00207156 0.00676273 0.01194660 0.08714810 0.01290094 0.05206711 0.00207227 0.01689601 0.14665404 0.02964486 0.05087032 
0.02476598 0.04007403 0.00405039 0.00185072 0.00205485 0.00211540 0.00682728 0.01208763 0.08727768 0.01290033 0.05271269 0.00207367 0.01726786 0.14725635 0.02977327 0.05002666 
0.02421825 0.04040551 0.00410565 0.00186497 0.00218782 0.00215913 0.00688997 0.01222680 0.08740411 0.01289983 0.05332365 0.00207345 0.01766876 0.14789855 0.02991789 0.04915794 
0.02363747 0.04076002 0.00415944 0.00188143 0.00233082 0.00220254 0.00695049 0.01236375 0.08752752 0.01289887 0.05389761 0.00207167 0.01809758 0.14857725 0.03007814 0.04826760 
0.02302636 0.04113703 0.00421152 0.00190000 0.00248331 0.00224541 0.00700857 0.01249814 0.08764801 0.01289684 0.05443231 0.00206840 0.01855305 0.14928852 0.03025327 0.04735915 
0.02238786 0.04153601 0.00426166 0.00192056 0.00264471 0.00228754 0.00706398 0.01262964 0.08776563 0.01289317 0.05492560 0.00206372 0.01903372 0.15002794 0.03044242 0.04643615 
0.02172505 0.04195645 0.00430967 0.00194298 0.00281446 0.00232871 0.00711649 0.01275791 0.08788038 0.01288728 0.05537550 0.00205771 0.01953802 0.15079054 0.03064453 0.04550220 
0.02104121 0.04239785 0.00435535 0.00196710 0.00299196 0.00236870 0.00716592 0.01288266 0.08799227 0.01287861 0.05578019 0.00205048 0.02006422 0.15157095 0.03085843 0.04456092 
0.02033973 0.04285970 0.00439852 0.00199277 0.00317663 0.00240729 0.00721212 0.01300358 0.08810126 0.01286662 0.05613803 0.00204213 0.02061048 0.15236331 0.03108281 0.04361594 
0.01962417 0.04334150 0.00443903 0.00201980 0.00336786 0.00244428 0.00725494 0.01312039 0.08820731 0.01285081 0.05644758 0.00203278 0.02117480 0.15316138 0.03131623 0.04267090 
0.01889816 0.04384274 0.00447672 0.00204801 0.00356502 0.00247944 0.00729428 0.01323284 0.08831036 0.01283070 0.05670762 0.00202255 0.02175509 0.15395857 0.03155712 0.04172947 
0.01816547 0.04436290 0.00451148 0.00207720 0.00376750 0.00251257 0.00733006 0.01334069 0.08841034 0.01280585 0.05691715 0.00201158 0.02234912 0.15474795 0.03180379 0.04079526 
0.01742991 0.04490141 0.00454321 0.00210715 0.00397465 0.00254347 0.00736221 0.01344371 0.08850719 0.01277585 0.05707540 0.00200002 0.02295457 0.15552233 0.03205447 0.03987190 
0.01669536 0.04545769 0.00457180 0.00213765 0.00418583 0.00257194 0.00739069 0.01354172 0.08860083 0.01274034 0.05718186 0.00198801 0.02356902 0.15627428 0.03230728 0.03896297 
0.01596574 0.04603112 0.00459720 0.00216848 0.00440041 0.00259779 0.00741549 0.01363453 0.08869120 0.01269901 0.05723629 0.00197570 0.02418998 0.15699621 0.03256026 0.03807205 
0.01524497 0.04662103 0.00461934 0.00219939 0.00461772 0.00262085 0.00743661 0.01372201 0.08877823 0.01265161 0.05723870 0.00196325 0.02481488 0.15768040 0.03281138 0.03720263 
0.01453697 0.04722668 0.00463820 0.00223017 0.00483711 0.00264094 0.00745406 0.01380403 0.08886188 0.01259792 0.05718940 0.00195083 0.02544109 0.15831904 0.03305857 0.03635818 
0.01384564 0.04784730 0.00465375 0.00226058 0.00505792 0.00265791 0.00746787 0.01388049 0.08894207 0.01253779 0.05708897 0.00193860 0.02606593 0.15890434 0.03329969 0.03554210 
0.01317482 0.04848201 0.00466599 0.00229038 0.00527949 0.00267163 0.00747811 0.01395134 0.08901878 0.01247112 0.05693829 0.00192674 0.02668670 0.15942853 0.03353260 0.03475773 
0.01252829 0.04912988 0.00467495 0.00231935 0.00550116 0.00268196 0.00748484 0.01401653 0.08909196 0.01239788 0.05673851 0.00191541 0.02730067 0.15988394 0.03375512 0.03400832 
0.01190973 0.04978989 0.00468065 0.00234724 0.00572226 0.00268879 0.00748813 0.01407605 0.08916158 0.01231808 0.05649111 0.00190478 0.02790511 0.16026306 0.03396508 0.03329704 
0.01132273 0.05046094 0.00468315 0.00237385 0.00594213 0.00269203 0.00748807 0.01412990 0.08922760 0.01223179 0.05619783 0.00189504 0.02849730 0.16055860 0.03416033 0.03262697 
0.01077072 0.05114183 0.00468249 0.00239895 0.00616012 0.00269161 0.00748476 0.01417814 0.08929000 0.01213915 0.05586070 0.00188633 0.02907454 0.16076354 0.03433874 0.03200109 
0.01025701 0.05183126 0.00467876 0.00242235 0.00637557 0.00268746 0.00747831 0.01422083 0.08934873 0.01204036 0.05548206 0.00187884 0.02963418 0.16087116 0.03449824 0.03142225 
0.00978473 0.05252784 0.00467205 0.00244383 0.00658783 0.00267955 0.00746883 0.01425806 0.08940375 0.01193566 0.05506450 0.00187273 0.03017360 0.16087515 0.03463679 0.03089321 
