0.03597470 0.05616671 0.00827748 0.00448994 0.00057982 0.00138493 0.00707663 0.00256339 0.02377715 0.00176811 0.00391093 0.01228106 0.00272340 0.00233332 0.00214725 0.00127272 
0.03495981 0.05544278 0.00818181 0.00448790 0.00056945 0.00137711 0.00716984 0.00242682 0.02348514 0.00176481 0.00391900 0.01257641 0.00268897 0.00242924 0.00216160 0.00127478 
0.03394624 0.05468031 0.00807310 0.00448032 0.00056070 0.00137084 0.00726505 0.00229579 0.02318355 0.00176205 0.00392278 0.01285815 0.00265348 0.00252836 0.00217805 0.00127702 
0.03293933 0.05388297 0.00795168 0.00446721 0.00055358 0.00136612 0.00736186 0.00217079 0.02287346 0.00175983 0.00392216 0.01312524 0.00261698 0.00263069 0.00219691 0.00127943 
0.03194449 0.05305447 0.00781799 0.00444862 0.00054808 0.00136295 0.00745990 0.00205225 0.02255605 0.00175815 0.00391707 0.01337671 0.00257955 0.00273620 0.00221849 0.00128202 
0.03096714 0.05219859 0.00767256 0.00442462 0.00054418 0.00136133 0.00755879 0.00194056 0.02223253 0.00175703 0.00390746 0.01361167 0.00254127 0.00284489 0.00224308 0.00128477 
0.03001272 0.05131909 0.00751604 0.00439532 0.00054186 0.00136127 0.00765816 0.00183610 0.02190413 0.00175644 0.00389330 0.01382930 0.00250226 0.00295670 0.00227097 0.00128767 
0.02908665 0.05041978 0.00734916 0.00436086 0.00054108 0.00136275 0.00775767 0.00173921 0.02157215 0.00175641 0.00387460 0.01402889 0.00246263 0.00307159 0.00230243 0.00129071 
0.02819430 0.04950443 0.00717274 0.00432140 0.00054183 0.00136578 0.00785698 0.00165020 0.02123791 0.00175692 0.00385137 0.01420980 0.00242255 0.00318948 0.00233772 0.00129389 
0.02734096 0.04857678 0.00698768 0.00427714 0.00054406 0.00137033 0.00795577 0.00156933 0.02090274 0.00175799 0.00382368 0.01437152 0.00238215 0.00331029 0.00237708 0.00129720 
0.02653184 0.04764051 0.00679496 0.00422830 0.00054773 0.00137639 0.00805374 0.00149683 0.02056802 0.00175959 0.00379158 0.01451364 0.00234163 0.00343390 0.00242072 0.00130062 
0.02577200 0.04669923 0.00659564 0.00417511 0.00055279 0.00138395 0.00815058 0.00143290 0.02023512 0.00176175 0.00375519 0.01463584 0.00230117 0.00356019 0.00246886 0.00130414 
0.02506637 0.04575645 0.00639083 0.00411786 0.00055920 0.00139298 0.00824604 0.00137770 0.01990543 0.00176444 0.00371462 0.01473794 0.00226099 0.00368901 0.00252166 0.00130775 
0.02441969 0.04481558 0.00618172 0.00405682 0.00056690 0.00140346 0.00833984 0.00133135 0.01958033 0.00176767 0.00367001 0.01481989 0.00222132 0.00382021 0.00257928 0.00131144 
0.02383650 0.04387989 0.00596953 0.00399232 0.00057584 0.00141534 0.00843174 0.00129393 0.01926120 0.00177143 0.00362154 0.01488176 0.00218241 0.00395358 0.00264183 0.00131519 
0.02332112 0.04295251 0.00575552 0.00392468 0.00058595 0.00142861 0.00852153 0.00126548 0.01894943 0.00177572 0.00356939 0.01492372 0.00214450 0.00408893 0.00270942 0.00131899 
0.02287761 0.04203642 0.00554101 0.00385426 0.00059716 0.00144323 0.00860900 0.00124601 0.01864634 0.00178052 0.00351377 0.01494612 0.00210789 0.00422604 0.00278211 0.00132283 
0.02250978 0.04113441 0.00532733 0.00378143 0.00060943 0.00145914 0.00869394 0.00123549 0.01835328 0.00178583 0.00345491 0.01494940 0.00207285 0.00436466 0.00285994 0.00132670 
0.02222113 0.04024909 0.00511582 0.00370655 0.00062267 0.00147631 0.00877619 0.00123384 0.01807153 0.00179164 0.00339305 0.01493416 0.00203968 0.00450452 0.00294290 0.00133057 
0.02201485 0.03938289 0.00490786 0.00363003 0.00063681 0.00149468 0.00885559 0.00124098 0.01780235 0.00179793 0.00332845 0.01490110 0.00200869 0.00464536 0.00303096 0.00133444 
0.02189383 0.03853802 0.00470479 0.00355225 0.00065179 0.00151420 0.00893199 0.00125675 0.01754693 0.00180470 0.00326139 0.01485108 0.00198020 0.00478686 0.00312407 0.00133829 
0.02186057 0.03771646 0.00450799 0.00347363 0.00066753 0.00153482 0.00900527 0.00128098 0.01730644 0.00181191 0.00319216 0.01478508 0.00195453 0.00492871 0.00322211 0.00134210 
0.02191725 0.03692000 0.00431879 0.00339458 0.00068395 0.00155646 0.00907531 0.00131348 0.01708197 0.00181957 0.00312106 0.01470420 0.00193202 0.00507059 0.00332496 0.00134587 
0.02206564 0.03615019 0.00413852 0.00331550 0.00070098 0.00157907 0.00914201 0.00135399 0.01687453 0.00182764 0.00304839 0.01460965 0.00191300 0.00521215 0.00343244 0.00134957 
0.02230716 0.03540834 0.00396846 0.00323682 0.00071855 0.00160257 0.00920529 0.00140227 0.01668510 0.00183612 0.00297449 0.01450279 0.00189781 0.00535304 0.00354437 0.00135320 
0.02264281 0.03469553 0.00380987 0.00315893 0.00073657 0.00162689 0.00926508 0.00145800 0.01651454 0.00184496 0.00289967 0.01438504 0.00188677 0.00549288 0.00366050 0.00135673 
0.02307319 0.03401262 0.00366395 0.00308225 0.00075496 0.00165195 0.00932131 0.00152088 0.01636365 0.00185417 0.00282426 0.01425798 0.00188022 0.00563129 0.00378056 0.00136017 
0.02359850 0.03336023 0.00353186 0.00300718 0.00077366 0.00167766 0.00937394 0.00159055 0.01623314 0.00186370 0.00274861 0.01412324 0.00187849 0.00576790 0.00390426 0.00136348 
0.02421850 0.03273875 0.00341468 0.00293409 0.00079258 0.00170396 0.00942293 0.00166664 0.01612362 0.00187353 0.00267304 0.01398256 0.00188190 0.00590231 0.00403126 0.00136666 
0.02493255 0.03214834 0.00331344 0.00286338 0.00081165 0.00173074 0.00946825 0.00174876 0.01603561 0.00188363 0.00259789 0.01383777 0.00189076 0.00603413 0.00416121 0.00136970 
0.02573960 0.03158895 0.00322910 0.00279539 0.00083079 0.00175791 0.00950988 0.00183651 0.01596952 0.00189398 0.00252349 0.01369073 0.00190537 0.00616296 0.00429372 0.00137258 
0.02663817 0.03106031 0.00316252 0.00273049 0.00084993 0.00178539 0.00954782 0.00192946 0.01592567 0.00190454 0.00245017 0.01354341 0.00192602 0.00628841 0.00442838 0.00137529 
0.02762636 0.03056196 0.00311449 0.00266900 0.00086900 0.00181308 0.00958206 0.00202716 0.01590427 0.00191529 0.00237825 0.01339778 0.00195297 0.00641008 0.00456475 0.00137782 
0.02870188 0.03009324 0.00308571 0.00261124 0.00088791 0.00184087 0.00961261 0.00212917 0.01590541 0.00192618 0.00230804 0.01325589 0.00198646 0.00652760 0.00470238 0.00138016 
0.02986201 0.02965330 0.00307677 0.00255748 0.00090661 0.00186867 0.00963948 0.00223501 0.01592909 0.00193719 0.00223985 0.01311979 0.00202674 0.00664057 0.00484080 0.00138231 
0.03110368 0.02924114 0.00308818 0.00250801 0.00092502 0.00189639 0.00966268 0.00234421 0.01597519 0.00194828 0.00217397 0.01299154 0.00207401 0.00674864 0.00497950 0.00138424 
0.03242339 0.02885559 0.00312035 0.00246307 0.00094308 0.00192390 0.00968224 0.00245630 0.01604347 0.00195942 0.00211068 0.01287322 0.00212845 0.00685144 0.00511799 0.00138595 
0.03381732 0.02849535 0.00317357 0.00242288 0.00096073 0.00195112 0.00969819 0.00257078 0.01613359 0.00197057 0.00205025 0.01276687 0.00219020 0.00694865 0.00525574 0.00138743 
0.03528126 0.02815899 0.00324803 0.00238764 0.00097789 0.00197794 0.00971056 0.00268719 0.01624512 0.00198169 0.00199293 0.01267452 0.00225940 0.00703993 0.00539225 0.00138868 
0.03681068 0.02784499 0.00334381 0.00235750 0.00099451 0.00200426 0.00971938 0.00280503 0.01637748 0.00199275 0.00193896 0.01259817 0.00233613 0.00712498 0.00552697 0.00138969 
0.03840072 0.02755171 0.00346089 0.00233262 0.00101054 0.00202997 0.00972469 0.00292382 0.01653004 0.00200372 0.00188854 0.01253975 0.00242047 0.00720353 0.00565938 0.00139045 
0.04004624 0.02727747 0.00359913 0.00231311 0.00102591 0.00205497 0.00972654 0.00304309 0.01670202 0.00201456 0.00184189 0.01250111 0.00251242 0.00727531 0.00578896 0.00139097 
0.04174180 0.02702051 0.00375828 0.00229905 0.00104058 0.00207916 0.00972496 0.00316236 0.01689257 0.00202522 0.00179917 0.01248405 0.00261199 0.00734010 0.00591517 0.00139122 
0.04348173 0.02677906 0.00393799 0.00229049 0.00105450 0.00210245 0.00972001 0.00328119 0.01710075 0.00203569 0.00176055 0.01249025 0.00271912 0.00739769 0.00603751 0.00139122 
0.04526010 0.02655131 0.00413779 0.00228747 0.00106762 0.00212474 0.00971172 0.00339911 0.01732551 0.00204591 0.00172616 0.01252131 0.00283373 0.00744792 0.00615547 0.00139096 
0.04707080 0.02633547 0.00435712 0.00228999 0.00107991 0.00214593 0.00970016 0.00351571 0.01756575 0.00205587 0.00169612 0.01257868 0.00295570 0.00749064 0.00626857 0.00139044 
0.04890752 0.02612975 0.00459531 0.00229801 0.00109131 0.00216594 0.00968537 0.00363054 0.01782028 0.00206552 0.00167052 0.01266369 0.00308487 0.00752574 0.00637634 0.00138966 
0.05076380 0.02593242 0.00485159 0.00231148 0.00110180 0.00218468 0.00966740 0.00374323 0.01808782 0.00207484 0.00164942 0.01277755 0.00322102 0.00755315 0.00647832 0.00138861 
0.05263307 0.02574179 0.00512510 0.00233031 0.00111134 0.00220207 0.00964632 0.00385337 0.01836706 0.00208379 0.00163288 0.01292128 0.00336393 0.00757284 0.00657409 0.00138731 
0.05450864 0.02555624 0.00541487 0.00235440 0.00111990 0.00221802 0.00962217 0.00396061 0.01865663 0.00209235 0.00162090 0.01309575 0.00351331 0.00758478 0.00666325 0.00138575 
0.05638377 0.02537425 0.00571987 0.00238361 0.00112747 0.00223247 0.00959502 0.00406460 0.01895510 0.00210049 0.00161351 0.01330167 0.00366884 0.00758903 0.00674542 0.00138394 
0.05825167 0.02519439 0.00603899 0.00241778 0.00113401 0.00224536 0.00956493 0.00416503 0.01926102 0.00210818 0.00161066 0.01353955 0.00383016 0.00758564 0.00682028 0.00138188 
0.06010555 0.02501537 0.00637101 0.00245673 0.00113951 0.00225661 0.00953196 0.00426161 0.01957289 0.00211540 0.00161232 0.01380972 0.00399687 0.00757472 0.00688751 0.00137958 
0.06193863 0.02483599 0.00671467 0.00250024 0.00114395 0.00226617 0.00949617 0.00435406 0.01988921 0.00212212 0.00161842 0.01411231 0.00416854 0.00755641 0.00694685 0.00137705 
0.06374418 0.02465524 0.00706866 0.00254810 0.00114733 0.00227400 0.00945763 0.00444214 0.02020845 0.00212833 0.00162885 0.01444725 0.00434470 0.00753088 0.00699806 0.00137428 
0.06551557 0.02447222 0.00743158 0.00260006 0.00114964 0.00228005 0.00941641 0.00452564 0.02052909 0.00213402 0.00164353 0.01481426 0.00452485 0.00749835 0.00704095 0.00137130 
0.06724625 0.02428621 0.00780202 0.00265585 0.00115087 0.00228429 0.00937258 0.00460438 0.02084962 0.00213915 0.00166230 0.01521287 0.00470845 0.00745904 0.00707536 0.00136811 
0.06892982 0.02409666 0.00817849 0.00271519 0.00115103 0.00228668 0.00932621 0.00467819 0.02116853 0.00214372 0.00168502 0.01564238 0.00489494 0.00741325 0.00710120 0.00136472 
0.07056004 0.02390318 0.00855949 0.00277779 0.00115012 0.00228721 0.00927737 0.00474694 0.02148434 0.00214771 0.00171152 0.01610189 0.00508372 0.00736126 0.00711838 0.00136114 
0.07213087 0.02370559 0.00894352 0.00284335 0.00114815 0.00228587 0.00922616 0.00481055 0.02179560 0.00215112 0.00174160 0.01659028 0.00527417 0.00730342 0.00712689 0.00135739 
0.07363647 0.02350386 0.00932902 0.00291154 0.00114514 0.00228264 0.00917265 0.00486893 0.02210090 0.00215393 0.00177507 0.01710623 0.00546565 0.00724008 0.00712674 0.00135347 
0.07507127 0.02329815 0.00971444 0.00298203 0.00114109 0.00227753 0.00911691 0.00492206 0.02239888 0.00215614 0.00181170 0.01764822 0.00565751 0.00717163 0.00711800 0.00134940 
0.07642995 0.02308880 0.01009825 0.00305450 0.00113602 0.00227055 0.00905905 0.00496991 0.02268825 0.00215775 0.00185126 0.01821453 0.00584906 0.00709847 0.00710076 0.00134520 
0.07770747 0.02287634 0.01047891 0.00312859 0.00112997 0.00226172 0.00899914 0.00501251 0.02296775 0.00215875 0.00189349 0.01880323 0.00603961 0.00702102 0.00707519 0.00134087 
0.07889911 0.02266146 0.01085489 0.00320397 0.00112296 0.00225106 0.00893729 0.00504989 0.02323621 0.00215915 0.00193814 0.01941224 0.00622847 0.00693973 0.00704147 0.00133644 
0.08000048 0.02244503 0.01122471 0.00328029 0.00111501 0.00223860 0.00887359 0.00508214 0.02349254 0.00215894 0.00198494 0.02003927 0.00641491 0.00685504 0.00699983 0.00133192 
0.08100756 0.02222807 0.01158691 0.00335719 0.00110615 0.00222439 0.00880813 0.00510935 0.02373572 0.00215812 0.00203360 0.02068187 0.00659824 0.00676743 0.00695055 0.00132733 
0.08191665 0.02201176 0.01194007 0.00343434 0.00109644 0.00220848 0.00874101 0.00513164 0.02396482 0.00215670 0.00208384 0.02133746 0.00677773 0.00667736 0.00689393 0.00132268 
0.08272446 0.02179743 0.01228283 0.00351139 0.00108590 0.00219092 0.00867235 0.00514917 0.02417901 0.00215469 0.00213536 0.02200330 0.00695270 0.00658530 0.00683033 0.00131799 
0.08342810 0.02158651 0.01261388 0.00358800 0.00107457 0.00217177 0.00860223 0.00516211 0.02437753 0.00215210 0.00218787 0.02267652 0.00712242 0.00649175 0.00676011 0.00131329 
0.08402506 0.02138058 0.01293197 0.00366384 0.00106250 0.00215111 0.00853078 0.00517064 0.02455973 0.00214893 0.00224106 0.02335414 0.00728623 0.00639716 0.00668371 0.00130857 
0.08451327 0.02118130 0.01323593 0.00373858 0.00104974 0.00212901 0.00845809 0.00517497 0.02472508 0.00214519 0.00229464 0.02403309 0.00744344 0.00630200 0.00660155 0.00130388 
0.08489106 0.02099042 0.01352467 0.00381191 0.00103633 0.00210556 0.00838428 0.00517535 0.02487312 0.00214089 0.00234830 0.02471022 0.00759341 0.00620675 0.00651412 0.00129921 
0.08515720 0.02080977 0.01379717 0.00388352 0.00102233 0.00208084 0.00830946 0.00517201 0.02500350 0.00213605 0.00240173 0.02538232 0.00773551 0.00611184 0.00642191 0.00129460 
0.08531090 0.02064121 0.01405250 0.00395313 0.00100779 0.00205495 0.00823374 0.00516521 0.02511599 0.00213067 0.00245465 0.02604612 0.00786915 0.00601772 0.00632544 0.00129006 
0.08535177 0.02048665 0.01428984 0.00402044 0.00099275 0.00202799 0.00815723 0.00515522 0.02521044 0.00212478 0.00250676 0.02669835 0.00799374 0.00592479 0.00622526 0.00128560 
0.08527988 0.02034802 0.01450845 0.00408520 0.00097729 0.00200007 0.00808003 0.00514233 0.02528681 0.00211838 0.00255776 0.02733572 0.00810876 0.00583345 0.00612191 0.00128125 
0.08509574 0.02022722 0.01470770 0.00414716 0.00096145 0.00197129 0.00800227 0.00512682 0.02534515 0.00211149 0.00260738 0.02795497 0.00821372 0.00574409 0.00601597 0.00127702 
0.08480025 0.02012616 0.01488706 0.00420607 0.00094528 0.00194178 0.00792404 0.00510899 0.02538562 0.00210413 0.00265535 0.02855285 0.00830815 0.00565704 0.00590802 0.00127293 
0.08439478 0.02004667 0.01504609 0.00426172 0.00092886 0.00191164 0.00784546 0.00508914 0.02540847 0.00209630 0.00270139 0.02912621 0.00839164 0.00557263 0.00579865 0.00126900 
0.08388107 0.01999055 0.01518450 0.00431392 0.00091224 0.00188100 0.00776663 0.00506756 0.02541403 0.00208803 0.00274527 0.02967194 0.00846383 0.00549116 0.00568844 0.00126524 
0.08326130 0.01995950 0.01530207 0.00436247 0.00089547 0.00184998 0.00768765 0.00504456 0.02540272 0.00207933 0.00278674 0.03018705 0.00852441 0.00541288 0.00557801 0.00126167 
0.08253801 0.01995511 0.01539870 0.00440721 0.00087861 0.00181871 0.00760861 0.00502044 0.02537503 0.00207022 0.00282557 0.03066864 0.00857310 0.00533803 0.00546792 0.00125831 
0.08171416 0.01997888 0.01547441 0.00444800 0.00086173 0.00178732 0.00752963 0.00499548 0.02533154 0.00206070 0.00286155 0.03111399 0.00860971 0.00526681 0.00535878 0.00125516 
0.08079304 0.02003213 0.01552932 0.00448472 0.00084488 0.00175593 0.00745078 0.00496997 0.02527289 0.00205081 0.00289448 0.03152052 0.00863407 0.00519937 0.00525117 0.00125225 
0.07977833 0.02011607 0.01556365 0.00451725 0.00082811 0.00172468 0.00737215 0.00494418 0.02519979 0.00204055 0.00292418 0.03188580 0.00864609 0.00513585 0.00514564 0.00124958 
0.07867403 0.02023171 0.01557775 0.00454551 0.00081148 0.00169368 0.00729382 0.00491837 0.02511299 0.00202993 0.00295049 0.03220764 0.00864574 0.00507633 0.00504276 0.00124717 
0.07748445 0.02037990 0.01557204 0.00456943 0.00079504 0.00166308 0.00721588 0.00489281 0.02501331 0.00201898 0.00297325 0.03248402 0.00863303 0.00502089 0.00494307 0.00124503 
0.07621421 0.02056126 0.01554705 0.00458897 0.00077885 0.00163300 0.00713839 0.00486771 0.02490160 0.00200772 0.00299234 0.03271319 0.00860804 0.00496954 0.00484707 0.00124317 
0.07486821 0.02077623 0.01550342 0.00460409 0.00076296 0.00160356 0.00706141 0.00484331 0.02477873 0.00199614 0.00300764 0.03289360 0.00857092 0.00492227 0.00475528 0.00124159 
0.07345161 0.02102502 0.01544187 0.00461479 0.00074741 0.00157488 0.00698501 0.00481981 0.02464564 0.00198429 0.00301906 0.03302398 0.00852188 0.00487905 0.00466817 0.00124031 
0.07196981 0.02130760 0.01536319 0.00462107 0.00073225 0.00154710 0.00690924 0.00479738 0.02450325 0.00197216 0.00302653 0.03310332 0.00846116 0.00483978 0.00458618 0.00123933 
0.07042842 0.02162374 0.01526827 0.00462297 0.00071752 0.00152033 0.00683414 0.00477620 0.02435252 0.00195977 0.00302999 0.03313091 0.00838909 0.00480437 0.00450973 0.00123866 
0.06883325 0.02197292 0.01515805 0.00462053 0.00070327 0.00149468 0.00675975 0.00475641 0.02419440 0.00194715 0.00302941 0.03310629 0.00830605 0.00477268 0.00443922 0.00123830 
0.06719027 0.02235441 0.01503357 0.00461381 0.00068954 0.00147026 0.00668611 0.00473812 0.02402986 0.00193431 0.00302477 0.03302932 0.00821248 0.00474455 0.00437500 0.00123826 
0.06550560 0.02276724 0.01489589 0.00460289 0.00067634 0.00144718 0.00661324 0.00472144 0.02385983 0.00192126 0.00301607 0.03290015 0.00810885 0.00471978 0.00431739 0.00123853 
0.06378548 0.02321016 0.01474616 0.00458786 0.00066373 0.00142555 0.00654116 0.00470645 0.02368526 0.00190803 0.00300334 0.03271926 0.00799571 0.00469816 0.00426670 0.00123912 
0.06203626 0.02368171 0.01458554 0.00456884 0.00065173 0.00140545 0.00646988 0.00469319 0.02350707 0.00189463 0.00298663 0.03248741 0.00787365 0.00467946 0.00422316 0.00124002 
0.06026435 0.02418018 0.01441525 0.00454595 0.00064036 0.00138699 0.00639940 0.00468169 0.02332615 0.00188109 0.00296598 0.03220567 0.00774330 0.00466343 0.00418701 0.00124124 
0.05847620 0.02470363 0.01423653 0.00451933 0.00062964 0.00137023 0.00632974 0.00467197 0.02314336 0.00186741 0.00294148 0.03187543 0.00760535 0.00464980 0.00415842 0.00124276 
0.05667831 0.02524990 0.01405065 0.00448913 0.00061960 0.00135527 0.00626087 0.00466400 0.02295952 0.00185363 0.00291323 0.03149837 0.00746051 0.00463828 0.00413754 0.00124459 
0.05487716 0.02581660 0.01385887 0.00445552 0.00061025 0.00134216 0.00619279 0.00465776 0.02277541 0.00183976 0.00288135 0.03107649 0.00730953 0.00462859 0.00412446 0.00124672 
0.05307921 0.02640116 0.01366249 0.00441866 0.00060160 0.00133099 0.00612548 0.00465317 0.02259179 0.00182583 0.00284595 0.03061204 0.00715321 0.00462042 0.00411926 0.00124914 
0.05129089 0.02700081 0.01346276 0.00437876 0.00059365 0.00132179 0.00605892 0.00465016 0.02240932 0.00181186 0.00280720 0.03010760 0.00699236 0.00461348 0.00412195 0.00125184 
0.04951853 0.02761261 0.01326097 0.00433599 0.00058642 0.00131463 0.00599308 0.00464862 0.02222866 0.00179787 0.00276524 0.02956597 0.00682781 0.00460745 0.00413254 0.00125481 
0.04776840 0.02823346 0.01305835 0.00429056 0.00057990 0.00130953 0.00592792 0.00464845 0.02205039 0.00178388 0.00272027 0.02899025 0.00666044 0.00460203 0.00415096 0.00125804 
0.04604664 0.02886013 0.01285612 0.00424268 0.00057410 0.00130654 0.00586342 0.00464949 0.02187502 0.00176993 0.00267246 0.02838376 0.00649110 0.00459693 0.00417712 0.00126152 
0.04435925 0.02948927 0.01265546 0.00419257 0.00056900 0.00130568 0.00579953 0.00465160 0.02170303 0.00175604 0.00262202 0.02775006 0.00632069 0.00459186 0.00421091 0.00126523 
0.04271208 0.03011743 0.01245753 0.00414045 0.00056460 0.00130696 0.00573622 0.00465462 0.02153481 0.00174224 0.00256916 0.02709290 0.00615009 0.00458652 0.00425216 0.00126915 
0.04111081 0.03074107 0.01226340 0.00408655 0.00056089 0.00131039 0.00567343 0.00465835 0.02137072 0.00172855 0.00251410 0.02641625 0.00598018 0.00458066 0.00430067 0.00127328 
0.03956092 0.03135662 0.01207412 0.00403109 0.00055784 0.00131597 0.00561114 0.00466260 0.02121104 0.00171501 0.00245709 0.02572422 0.00581186 0.00457401 0.00435621 0.00127760 
0.03806768 0.03196045 0.01189068 0.00397430 0.00055545 0.00132369 0.00554929 0.00466718 0.02105599 0.00170164 0.00239835 0.02502110 0.00564599 0.00456635 0.00441851 0.00128208 
0.03663613 0.03254896 0.01171398 0.00391643 0.00055369 0.00133352 0.00548785 0.00467188 0.02090574 0.00168847 0.00233813 0.02431127 0.00548343 0.00455744 0.00448728 0.00128671 
0.03527107 0.03311853 0.01154487 0.00385770 0.00055253 0.00134545 0.00542677 0.00467648 0.02076039 0.00167554 0.00227669 0.02359926 0.00532502 0.00454711 0.00456219 0.00129146 
0.03397701 0.03366560 0.01138412 0.00379835 0.00055196 0.00135943 0.00536601 0.00468075 0.02061999 0.00166288 0.00221429 0.02288963 0.00517158 0.00453517 0.00464288 0.00129633 
0.03275822 0.03418666 0.01123241 0.00373861 0.00055195 0.00137541 0.00530554 0.00468449 0.02048454 0.00165051 0.00215117 0.02218702 0.00502388 0.00452149 0.00472898 0.00130128 
0.03161867 0.03467831 0.01109037 0.00367872 0.00055246 0.00139335 0.00524532 0.00468746 0.02035398 0.00163847 0.00208762 0.02149611 0.00488267 0.00450593 0.00482007 0.00130630 
0.03056201 0.03513724 0.01095852 0.00361889 0.00055347 0.00141318 0.00518532 0.00468945 0.02022822 0.00162679 0.00202387 0.02082155 0.00474867 0.00448841 0.00491572 0.00131136 
0.02959161 0.03556028 0.01083730 0.00355935 0.00055493 0.00143482 0.00512552 0.00469024 0.02010709 0.00161550 0.00196021 0.02016799 0.00462255 0.00446886 0.00501549 0.00131644 
0.02871047 0.03594442 0.01072706 0.00350032 0.00055683 0.00145821 0.00506590 0.00468963 0.01999042 0.00160464 0.00189689 0.01954003 0.00450492 0.00444725 0.00511890 0.00132152 
0.02792130 0.03628681 0.01062807 0.00344201 0.00055912 0.00148324 0.00500645 0.00468740 0.01987799 0.00159422 0.00183416 0.01894217 0.00439637 0.00442357 0.00522548 0.00132658 
0.02722646 0.03658483 0.01054052 0.00338463 0.00056176 0.00150984 0.00494715 0.00468338 0.01976953 0.00158428 0.00177228 0.01837884 0.00429741 0.00439784 0.00533472 0.00133159 
0.02662794 0.03683604 0.01046450 0.00332838 0.00056472 0.00153789 0.00488802 0.00467737 0.01966477 0.00157484 0.00171149 0.01785433 0.00420850 0.00437013 0.00544612 0.00133654 
0.02612740 0.03703826 0.01040002 0.00327344 0.00056796 0.00156728 0.00482906 0.00466921 0.01956339 0.00156594 0.00165203 0.01737276 0.00413006 0.00434051 0.00555915 0.00134139 
0.02572613 0.03718954 0.01034700 0.00322001 0.00057145 0.00159791 0.00477029 0.00465875 0.01946509 0.00155759 0.00159415 0.01693810 0.00406242 0.00430910 0.00567329 0.00134613 
0.02542506 0.03728822 0.01030529 0.00316825 0.00057514 0.00162965 0.00471174 0.00464584 0.01936951 0.00154982 0.00153806 0.01655412 0.00400585 0.00427604 0.00578802 0.00135073 
0.02522477 0.03733288 0.01027466 0.00311833 0.00057901 0.00166238 0.00465344 0.00463037 0.01927632 0.00154266 0.00148397 0.01622434 0.00396059 0.00424149 0.00590280 0.00135518 
0.02512544 0.03732243 0.01025481 0.00307040 0.00058300 0.00169597 0.00459543 0.00461223 0.01918517 0.00153611 0.00143209 0.01595207 0.00392677 0.00420565 0.00601710 0.00135944 
0.02512693 0.03725604 0.01024535 0.00302459 0.00058710 0.00173027 0.00453778 0.00459134 0.01909572 0.00153019 0.00138262 0.01574033 0.00390448 0.00416874 0.00613041 0.00136352 
0.02522870 0.03713321 0.01024586 0.00298106 0.00059126 0.00176515 0.00448055 0.00456763 0.01900763 0.00152493 0.00133573 0.01559189 0.00389372 0.00413101 0.00624219 0.00136737 
0.02542985 0.03695374 0.01025582 0.00293990 0.00059545 0.00180048 0.00442382 0.00454107 0.01892057 0.00152033 0.00129159 0.01550920 0.00389445 0.00409270 0.00635196 0.00137099 
0.02572916 0.03671775 0.01027468 0.00290122 0.00059964 0.00183609 0.00436766 0.00451162 0.01883423 0.00151640 0.00125036 0.01549440 0.00390654 0.00405412 0.00645920 0.00137436 
0.02612501 0.03642566 0.01030183 0.00286513 0.00060380 0.00187186 0.00431218 0.00447930 0.01874834 0.00151314 0.00121218 0.01554930 0.00392980 0.00401554 0.00656344 0.00137746 
0.02661545 0.03607822 0.01033663 0.00283169 0.00060789 0.00190762 0.00425748 0.00444413 0.01866261 0.00151057 0.00117717 0.01567538 0.00396398 0.00397729 0.00666421 0.00138027 
0.02719821 0.03567649 0.01037838 0.00280097 0.00061190 0.00194323 0.00420369 0.00440614 0.01857683 0.00150868 0.00114544 0.01587378 0.00400876 0.00393970 0.00676106 0.00138278 
0.02787066 0.03522182 0.01042636 0.00277304 0.00061579 0.00197855 0.00415091 0.00436541 0.01849078 0.00150746 0.00111709 0.01614526 0.00406376 0.00390310 0.00685357 0.00138499 
0.02862985 0.03471590 0.01047983 0.00274791 0.00061955 0.00201342 0.00409929 0.00432202 0.01840430 0.00150692 0.00109220 0.01649023 0.00412853 0.00386783 0.00694133 0.00138687 
0.02947255 0.03416066 0.01053801 0.00272563 0.00062315 0.00204770 0.00404897 0.00427610 0.01831726 0.00150704 0.00107083 0.01690873 0.00420259 0.00383424 0.00702396 0.00138842 
0.03039519 0.03355836 0.01060014 0.00270621 0.00062657 0.00208124 0.00400009 0.00422776 0.01822958 0.00150782 0.00105302 0.01740044 0.00428537 0.00380268 0.00710112 0.00138963 
0.03139393 0.03291150 0.01066543 0.00268963 0.00062979 0.00211391 0.00395282 0.00417717 0.01814121 0.00150923 0.00103882 0.01796467 0.00437629 0.00377351 0.00717248 0.00139049 
0.03246468 0.03222285 0.01073308 0.00267589 0.00063281 0.00214556 0.00390732 0.00412449 0.01805215 0.00151127 0.00102823 0.01860034 0.00447467 0.00374707 0.00723775 0.00139100 
0.03360305 0.03149543 0.01080232 0.00266495 0.00063561 0.00217607 0.00386375 0.00406992 0.01796246 0.00151391 0.00102126 0.01930603 0.00457984 0.00372370 0.00729667 0.00139115 
0.03480445 0.03073245 0.01087239 0.00265678 0.00063819 0.00220530 0.00382230 0.00401367 0.01787222 0.00151714 0.00101788 0.02007996 0.00469106 0.00370373 0.00734902 0.00139094 
0.03606405 0.02993737 0.01094252 0.00265132 0.00064052 0.00223313 0.00378312 0.00395595 0.01778159 0.00152092 0.00101807 0.02091999 0.00480757 0.00368748 0.00739459 0.00139037 
0.03737681 0.02911382 0.01101200 0.00264850 0.00064262 0.00225944 0.00374641 0.00389702 0.01769077 0.00152523 0.00102178 0.02182365 0.00492856 0.00367527 0.00743324 0.00138944 
0.03873752 0.02826559 0.01108012 0.00264824 0.00064447 0.00228414 0.00371234 0.00383712 0.01759998 0.00153004 0.00102894 0.02278814 0.00505322 0.00366739 0.00746484 0.00138816 
0.04014079 0.02739663 0.01114622 0.00265045 0.00064608 0.00230710 0.00368110 0.00377653 0.01750953 0.00153532 0.00103948 0.02381034 0.00518071 0.00366411 0.00748931 0.00138653 
0.04158108 0.02651103 0.01120966 0.00265503 0.00064745 0.00232824 0.00365285 0.00371551 0.01741976 0.00154105 0.00105331 0.02488683 0.00531016 0.00366568 0.00750660 0.00138456 
0.04305277 0.02561294 0.01126986 0.00266186 0.00064859 0.00234748 0.00362778 0.00365436 0.01733104 0.00154718 0.00107032 0.02601391 0.00544072 0.00367233 0.00751670 0.00138225 
0.04455009 0.02470664 0.01132628 0.00267082 0.00064950 0.00236472 0.00360605 0.00359336 0.01724380 0.00155369 0.00109040 0.02718761 0.00557151 0.00368428 0.00751964 0.00137962 
0.04606722 0.02379644 0.01137841 0.00268179 0.00065019 0.00237991 0.00358783 0.00353282 0.01715851 0.00156053 0.00111342 0.02840372 0.00570166 0.00370169 0.00751547 0.00137667 
0.04759828 0.02288669 0.01142582 0.00269462 0.00065067 0.00239299 0.00357327 0.00347304 0.01707568 0.00156768 0.00113923 0.02965780 0.00583031 0.00372473 0.00750430 0.00137342 
0.04913737 0.02198175 0.01146812 0.00270916 0.00065096 0.00240391 0.00356254 0.00341431 0.01699586 0.00157510 0.00116769 0.03094522 0.00595661 0.00375351 0.00748626 0.00136988 
0.05067858 0.02108597 0.01150496 0.00272527 0.00065107 0.00241262 0.00355575 0.00335695 0.01691962 0.00158275 0.00119863 0.03226115 0.00607972 0.00378812 0.00746151 0.00136608 
0.05221602 0.02020366 0.01153607 0.00274278 0.00065101 0.00241909 0.00355306 0.00330125 0.01684757 0.00159060 0.00123188 0.03360060 0.00619882 0.00382862 0.00743027 0.00136202 
0.05374384 0.01933910 0.01156123 0.00276153 0.00065080 0.00242332 0.00355456 0.00324751 0.01678033 0.00159862 0.00126726 0.03495848 0.00631313 0.00387505 0.00739275 0.00135773 
0.05525627 0.01849644 0.01158027 0.00278135 0.00065047 0.00242528 0.00356036 0.00319603 0.01671857 0.00160677 0.00130460 0.03632957 0.00642190 0.00392739 0.00734923 0.00135322 
0.05674763 0.01767978 0.01159308 0.00280207 0.00065002 0.00242498 0.00357054 0.00314707 0.01666296 0.00161501 0.00134368 0.03770856 0.00652440 0.00398559 0.00730000 0.00134852 
0.05821237 0.01689306 0.01159961 0.00282353 0.00064949 0.00242243 0.00358517 0.00310092 0.01661417 0.00162333 0.00138432 0.03909011 0.00661995 0.00404959 0.00724537 0.00134365 
0.05964505 0.01614010 0.01159986 0.00284555 0.00064889 0.00241766 0.00360431 0.00305785 0.01657290 0.00163168 0.00142631 0.04046884 0.00670792 0.00411927 0.00718568 0.00133864 
0.06104044 0.01542455 0.01159390 0.00286796 0.00064825 0.00241068 0.00362797 0.00301810 0.01653984 0.00164005 0.00146945 0.04183937 0.00678772 0.00419448 0.00712132 0.00133350 
0.06239348 0.01474988 0.01158183 0.00289059 0.00064759 0.00240155 0.00365618 0.00298190 0.01651569 0.00164841 0.00151352 0.04319634 0.00685882 0.00427505 0.00705265 0.00132827 
0.06369931 0.01411938 0.01156381 0.00291327 0.00064693 0.00239032 0.00368893 0.00294948 0.01650114 0.00165673 0.00155830 0.04453445 0.00692073 0.00436075 0.00698008 0.00132296 
0.06495332 0.01353612 0.01154004 0.00293584 0.00064630 0.00237704 0.00372616 0.00292104 0.01649686 0.00166500 0.00160360 0.04584846 0.00697303 0.00445135 0.00690404 0.00131761 
0.06615114 0.01300293 0.01151079 0.00295814 0.00064572 0.00236178 0.00376785 0.00289677 0.01650351 0.00167319 0.00164919 0.04713326 0.00701537 0.00454656 0.00682494 0.00131224 
0.06728870 0.01252242 0.01147633 0.00298001 0.00064521 0.00234462 0.00381389 0.00287683 0.01652172 0.00168130 0.00169486 0.04838384 0.00704744 0.00464607 0.00674324 0.00130688 
0.06836219 0.01209694 0.01143700 0.00300131 0.00064480 0.00232564 0.00386420 0.00286137 0.01655211 0.00168930 0.00174039 0.04959536 0.00706900 0.00474954 0.00665938 0.00130155 
0.06936812 0.01172860 0.01139316 0.00302190 0.00064452 0.00230493 0.00391864 0.00285051 0.01659525 0.00169719 0.00178559 0.05076313 0.00707990 0.00485660 0.00657382 0.00129628 
0.07030331 0.01141922 0.01134519 0.00304164 0.00064438 0.00228259 0.00397706 0.00284436 0.01665169 0.00170496 0.00183024 0.05188270 0.00708002 0.00496685 0.00648700 0.00129110 
0.07116494 0.01117034 0.01129352 0.00306041 0.00064441 0.00225873 0.00403930 0.00284300 0.01672193 0.00171261 0.00187414 0.05294979 0.00706932 0.00507986 0.00639938 0.00128603 
0.07195051 0.01098324 0.01123858 0.00307809 0.00064464 0.00223344 0.00410514 0.00284648 0.01680642 0.00172014 0.00191710 0.05396039 0.00704786 0.00519519 0.00631141 0.00128111 
0.07265790 0.01085890 0.01118082 0.00309459 0.00064507 0.00220686 0.00417436 0.00285484 0.01690556 0.00172754 0.00195892 0.05491073 0.00701571 0.00531238 0.00622354 0.00127634 
0.07328533 0.01079801 0.01112070 0.00310980 0.00064574 0.00217909 0.00424673 0.00286809 0.01701971 0.00173483 0.00199942 0.05579733 0.00697306 0.00543094 0.00613619 0.00127177 
0.07383141 0.01080098 0.01105869 0.00312365 0.00064666 0.00215025 0.00432198 0.00288622 0.01714917 0.00174199 0.00203842 0.05661698 0.00692013 0.00555035 0.00604979 0.00126740 
0.07429511 0.01086790 0.01099528 0.00313606 0.00064785 0.00212047 0.00439981 0.00290920 0.01729415 0.00174906 0.00207576 0.05736679 0.00685722 0.00567011 0.00596475 0.00126327 
0.07467578 0.01099862 0.01093092 0.00314697 0.00064933 0.00208988 0.00447993 0.00293696 0.01745483 0.00175602 0.00211127 0.05804420 0.00678468 0.00578968 0.00588145 0.00125939 
0.07497316 0.01119265 0.01086608 0.00315634 0.00065112 0.00205861 0.00456200 0.00296942 0.01763130 0.00176291 0.00214480 0.05864695 0.00670294 0.00590852 0.00580028 0.00125579 
0.07518734 0.01144924 0.01080123 0.00316413 0.00065323 0.00202677 0.00464568 0.00300649 0.01782360 0.00176972 0.00217622 0.05917315 0.00661247 0.00602609 0.00572158 0.00125248 
0.07531879 0.01176738 0.01073680 0.00317031 0.00065567 0.00199450 0.00473061 0.00304804 0.01803168 0.00177649 0.00220538 0.05962123 0.00651381 0.00614183 0.00564569 0.00124947 
0.07536835 0.01214576 0.01067322 0.00317488 0.00065847 0.00196194 0.00481643 0.00309393 0.01825542 0.00178322 0.00223217 0.05998999 0.00640753 0.00625520 0.00557291 0.00124679 
0.07533719 0.01258281 0.01061088 0.00317784 0.00066162 0.00192919 0.00490274 0.00314398 0.01849462 0.00178993 0.00225648 0.06027860 0.00629427 0.00636563 0.00550352 0.00124445 
0.07522685 0.01307671 0.01055017 0.00317920 0.00066515 0.00189639 0.00498917 0.00319803 0.01874902 0.00179664 0.00227821 0.06048658 0.00617469 0.00647260 0.00543777 0.00124245 
0.07503918 0.01362539 0.01049144 0.00317898 0.00066906 0.00186367 0.00507530 0.00325587 0.01901826 0.00180337 0.00229728 0.06061381 0.00604953 0.00657554 0.00537591 0.00124081 
0.07477636 0.01422654 0.01043499 0.00317723 0.00067335 0.00183113 0.00516074 0.00331729 0.01930192 0.00181014 0.00231361 0.06066054 0.00591952 0.00667395 0.00531811 0.00123954 
0.07444085 0.01487764 0.01038113 0.00317398 0.00067804 0.00179889 0.00524508 0.00338205 0.01959950 0.00181698 0.00232715 0.06062739 0.00578544 0.00676729 0.00526455 0.00123863 
0.07403541 0.01557593 0.01033009 0.00316930 0.00068313 0.00176706 0.00532791 0.00344991 0.01991040 0.00182390 0.00233784 0.06051533 0.00564811 0.00685508 0.00521538 0.00123809 
0.07356306 0.01631848 0.01028210 0.00316324 0.00068862 0.00173576 0.00540884 0.00352061 0.02023398 0.00183091 0.00234566 0.06032568 0.00550836 0.00693682 0.00517069 0.00123793 
0.07302704 0.01710215 0.01023733 0.00315590 0.00069451 0.00170508 0.00548747 0.00359390 0.02056951 0.00183805 0.00235058 0.06006012 0.00536703 0.00701205 0.00513057 0.00123813 
0.07243084 0.01792363 0.01019590 0.00314734 0.00070081 0.00167511 0.00556341 0.00366948 0.02091618 0.00184531 0.00235260 0.05972065 0.00522497 0.00708034 0.00509506 0.00123870 
0.07177811 0.01877945 0.01015793 0.00313766 0.00070751 0.00164595 0.00563629 0.00374708 0.02127311 0.00185273 0.00235171 0.05930961 0.00508306 0.00714128 0.00506419 0.00123963 
0.07107270 0.01966601 0.01012346 0.00312697 0.00071462 0.00161768 0.00570574 0.00382640 0.02163938 0.00186032 0.00234795 0.05882966 0.00494216 0.00719447 0.00503794 0.00124090 
0.07031859 0.02057957 0.01009250 0.00311536 0.00072213 0.00159038 0.00577143 0.00390715 0.02201397 0.00186808 0.00234134 0.05828374 0.00480313 0.00723956 0.00501628 0.00124251 
0.06951988 0.02151627 0.01006503 0.00310294 0.00073003 0.00156411 0.00583302 0.00398904 0.02239582 0.00187603 0.00233194 0.05767510 0.00466683 0.00727624 0.00499913 0.00124445 
0.06868075 0.02247217 0.01004098 0.00308982 0.00073832 0.00153895 0.00589021 0.00407176 0.02278381 0.00188417 0.00231979 0.05700727 0.00453408 0.00730422 0.00498642 0.00124669 
0.06780548 0.02344322 0.01002025 0.00307613 0.00074699 0.00151494 0.00594273 0.00415501 0.02317678 0.00189252 0.00230497 0.05628401 0.00440572 0.00732324 0.00497802 0.00124923 
0.06689835 0.02442533 0.01000270 0.00306198 0.00075604 0.00149214 0.00599032 0.00423849 0.02357350 0.00190106 0.00228756 0.05550934 0.00428253 0.00733308 0.00497379 0.00125203 
0.06596368 0.02541436 0.00998814 0.00304748 0.00076545 0.00147059 0.00603275 0.00432191 0.02397270 0.00190981 0.00226767 0.05468749 0.00416528 0.00733359 0.00497357 0.00125508 
0.06500575 0.02640613 0.00997637 0.00303276 0.00077521 0.00145033 0.00606985 0.00440498 0.02437311 0.00191875 0.00224539 0.05382289 0.00405471 0.00732461 0.00497719 0.00125836 
0.06402884 0.02739642 0.00996713 0.00301794 0.00078531 0.00143138 0.00610145 0.00448741 0.02477338 0.00192789 0.00222085 0.05292017 0.00395149 0.00730607 0.00498443 0.00126183 
0.06303713 0.02838105 0.00996017 0.00300313 0.00079575 0.00141377 0.00612742 0.00456892 0.02517217 0.00193720 0.00219417 0.05198407 0.00385630 0.00727791 0.00499509 0.00126546 
0.06203471 0.02935583 0.00995518 0.00298845 0.00080649 0.00139751 0.00614767 0.00464924 0.02556810 0.00194668 0.00216550 0.05101952 0.00376972 0.00724011 0.00500894 0.00126924 
0.06102559 0.03031659 0.00995184 0.00297401 0.00081754 0.00138260 0.00616215 0.00472810 0.02595979 0.00195632 0.00213498 0.05003152 0.00369231 0.00719273 0.00502573 0.00127313 
0.06001361 0.03125923 0.00994981 0.00295991 0.00082887 0.00136906 0.00617085 0.00480527 0.02634585 0.00196608 0.00210278 0.04902518 0.00362457 0.00713584 0.00504522 0.00127709 
0.05900247 0.03217970 0.00994873 0.00294626 0.00084047 0.00135687 0.00617380 0.00488049 0.02672489 0.00197594 0.00206906 0.04800569 0.00356694 0.00706956 0.00506715 0.00128110 
0.05799571 0.03307402 0.00994823 0.00293316 0.00085232 0.00134602 0.00617104 0.00495354 0.02709552 0.00198588 0.00203399 0.04697824 0.00351982 0.00699407 0.00509124 0.00128512 
0.05699665 0.03393831 0.00994792 0.00292069 0.00086439 0.00133650 0.00616269 0.00502421 0.02745638 0.00199587 0.00199776 0.04594809 0.00348350 0.00690956 0.00511725 0.00128911 
0.05600842 0.03476878 0.00994742 0.00290895 0.00087668 0.00132829 0.00614888 0.00509228 0.02780611 0.00200588 0.00196054 0.04492045 0.00345826 0.00681630 0.00514490 0.00129304 
0.05503394 0.03556177 0.00994635 0.00289799 0.00088916 0.00132135 0.00612980 0.00515757 0.02814340 0.00201585 0.00192253 0.04390055 0.00344427 0.00671458 0.00517392 0.00129687 
0.05407586 0.03631375 0.00994430 0.00288790 0.00090181 0.00131565 0.00610564 0.00521991 0.02846694 0.00202576 0.00188393 0.04289351 0.00344167 0.00660473 0.00520406 0.00130057 
0.05313662 0.03702133 0.00994090 0.00287873 0.00091460 0.00131115 0.00607668 0.00527914 0.02877550 0.00203556 0.00184493 0.04190443 0.00345050 0.00648713 0.00523505 0.00130410 
0.05221839 0.03768127 0.00993577 0.00287054 0.00092753 0.00130782 0.00604318 0.00533511 0.02906787 0.00204521 0.00180574 0.04093829 0.00347074 0.00636220 0.00526666 0.00130743 
0.05132309 0.03829053 0.00992855 0.00286336 0.00094055 0.00130561 0.00600547 0.00538770 0.02934291 0.00205464 0.00176654 0.03999995 0.00350231 0.00623036 0.00529864 0.00131052 
0.05045238 0.03884621 0.00991888 0.00285724 0.00095366 0.00130446 0.00596389 0.00543678 0.02959951 0.00206382 0.00172756 0.03909414 0.00354505 0.00609212 0.00533077 0.00131333 
0.04960765 0.03934564 0.00990645 0.00285220 0.00096682 0.00130433 0.00591882 0.00548227 0.02983666 0.00207269 0.00168897 0.03822542 0.00359873 0.00594798 0.00536283 0.00131584 
0.04879002 0.03978632 0.00989094 0.00284825 0.00098001 0.00130516 0.00587067 0.00552407 0.03005340 0.00208120 0.00165099 0.03739818 0.00366306 0.00579849 0.00539463 0.00131801 
0.04800038 0.04016598 0.00987207 0.00284540 0.00099321 0.00130688 0.00581985 0.00556212 0.03024885 0.00208928 0.00161381 0.03661662 0.00373768 0.00564421 0.00542599 0.00131981 
0.04723932 0.04048259 0.00984959 0.00284365 0.00100639 0.00130945 0.00576682 0.00559635 0.03042221 0.00209687 0.00157761 0.03588470 0.00382216 0.00548575 0.00545675 0.00132120 
0.04650720 0.04073431 0.00982328 0.00284299 0.00101952 0.00131280 0.00571203 0.00562674 0.03057277 0.00210392 0.00154259 0.03520618 0.00391602 0.00532371 0.00548676 0.00132218 
0.04580414 0.04091959 0.00979296 0.00284341 0.00103259 0.00131686 0.00565596 0.00565325 0.03069989 0.00211038 0.00150892 0.03458456 0.00401870 0.00515874 0.00551590 0.00132270 
0.04513002 0.04103709 0.00975846 0.00284488 0.00104557 0.00132157 0.00559910 0.00567587 0.03080306 0.00211616 0.00147677 0.03402308 0.00412961 0.00499149 0.00554407 0.00132274 
0.04448451 0.04108575 0.00971967 0.00284736 0.00105842 0.00132687 0.00554194 0.00569459 0.03088182 0.00212122 0.00144632 0.03352471 0.00424808 0.00482262 0.00557118 0.00132229 
0.04386704 0.04106477 0.00967652 0.00285081 0.00107113 0.00133269 0.00548497 0.00570943 0.03093585 0.00212550 0.00141770 0.03309216 0.00437340 0.00465282 0.00559719 0.00132132 
0.04327686 0.04097360 0.00962897 0.00285520 0.00108367 0.00133896 0.00542869 0.00572040 0.03096490 0.00212893 0.00139107 0.03272780 0.00450482 0.00448275 0.00562204 0.00131982 
0.04271306 0.04081200 0.00957704 0.00286046 0.00109602 0.00134563 0.00537359 0.00572754 0.03096885 0.00213146 0.00136656 0.03243376 0.00464154 0.00431310 0.00564574 0.00131778 
0.04217454 0.04057997 0.00952076 0.00286654 0.00110814 0.00135262 0.00532015 0.00573088 0.03094767 0.00213303 0.00134430 0.03221183 0.00478273 0.00414457 0.00566828 0.00131518 
0.04166005 0.04027783 0.00946023 0.00287338 0.00112003 0.00135988 0.00526883 0.00573048 0.03090143 0.00213358 0.00132438 0.03206349 0.00492752 0.00397783 0.00568970 0.00131203 
0.04116824 0.03990617 0.00939559 0.00288090 0.00113164 0.00136734 0.00522008 0.00572639 0.03083031 0.00213306 0.00130691 0.03198993 0.00507502 0.00381356 0.00571005 0.00130831 
0.04069760 0.03946588 0.00932701 0.00288904 0.00114296 0.00137494 0.00517435 0.00571867 0.03073461 0.00213142 0.00129196 0.03199201 0.00522431 0.00365243 0.00572940 0.00130402 
0.04024658 0.03895811 0.00925471 0.00289772 0.00115397 0.00138263 0.00513203 0.00570740 0.03061472 0.00212861 0.00127961 0.03207026 0.00537445 0.00349507 0.00574784 0.00129917 
0.03981353 0.03838435 0.00917895 0.00290686 0.00116465 0.00139034 0.00509351 0.00569266 0.03047114 0.00212459 0.00126991 0.03222494 0.00552451 0.00334214 0.00576549 0.00129377 
0.03939675 0.03774635 0.00910002 0.00291639 0.00117496 0.00139802 0.00505914 0.00567452 0.03030446 0.00211932 0.00126288 0.03245597 0.00567353 0.00319425 0.00578248 0.00128781 
0.03899450 0.03704615 0.00901827 0.00292623 0.00118490 0.00140563 0.00502924 0.00565306 0.03011539 0.00211277 0.00125856 0.03276297 0.00582056 0.00305198 0.00579894 0.00128133 
0.03860505 0.03628610 0.00893406 0.00293628 0.00119444 0.00141311 0.00500408 0.00562839 0.02990472 0.00210489 0.00125694 0.03314527 0.00596466 0.00291590 0.00581505 0.00127432 
0.03822665 0.03546883 0.00884780 0.00294648 0.00120357 0.00142042 0.00498393 0.00560058 0.02967335 0.00209567 0.00125802 0.03360189 0.00610490 0.00278656 0.00583097 0.00126682 
0.03785758 0.03459722 0.00875992 0.00295674 0.00121226 0.00142751 0.00496897 0.00556974 0.02942225 0.00208508 0.00126175 0.03413159 0.00624036 0.00266445 0.00584689 0.00125883 
0.03749616 0.03367447 0.00867088 0.00296697 0.00122051 0.00143434 0.00495938 0.00553595 0.02915249 0.00207311 0.00126811 0.03473285 0.00637016 0.00255005 0.00586300 0.00125040 
0.03714077 0.03270403 0.00858118 0.00297710 0.00122829 0.00144089 0.00495527 0.00549931 0.02886523 0.00205974 0.00127702 0.03540389 0.00649342 0.00244380 0.00587951 0.00124155 
0.03678986 0.03168960 0.00849131 0.00298705 0.00123559 0.00144710 0.00495672 0.00545993 0.02856170 0.00204498 0.00128841 0.03614266 0.00660932 0.00234610 0.00589662 0.00123231 
0.03644197 0.03063516 0.00840180 0.00299674 0.00124241 0.00145297 0.00496375 0.00541790 0.02824319 0.00202882 0.00130218 0.03694690 0.00671707 0.00225729 0.00591456 0.00122271 
0.03609574 0.02954491 0.00831318 0.00300609 0.00124874 0.00145846 0.00497636 0.00537331 0.02791107 0.00201128 0.00131823 0.03781412 0.00681593 0.00217769 0.00593352 0.00121279 
0.03574994 0.02842329 0.00822601 0.00301504 0.00125455 0.00146355 0.00499447 0.00532625 0.02756677 0.00199236 0.00133644 0.03874162 0.00690520 0.00210758 0.00595374 0.00120260 
0.03540345 0.02727495 0.00814083 0.00302351 0.00125985 0.00146821 0.00501797 0.00527684 0.02721178 0.00197210 0.00135666 0.03972652 0.00698424 0.00204718 0.00597541 0.00119217 
0.03505528 0.02610477 0.00805820 0.00303144 0.00126464 0.00147245 0.00504672 0.00522516 0.02684764 0.00195053 0.00137875 0.04076575 0.00705247 0.00199667 0.00599875 0.00118154 
0.03470461 0.02491780 0.00797865 0.00303876 0.00126890 0.00147624 0.00508052 0.00517131 0.02647592 0.00192767 0.00140254 0.04185609 0.00710937 0.00195617 0.00602396 0.00117077 
0.03435076 0.02371926 0.00790273 0.00304541 0.00127264 0.00147959 0.00511912 0.00511537 0.02609824 0.00190357 0.00142786 0.04299417 0.00715448 0.00192577 0.00605123 0.00115991 
0.03399321 0.02251453 0.00783096 0.00305134 0.00127586 0.00148248 0.00516226 0.00505745 0.02571624 0.00187830 0.00145453 0.04417652 0.00718741 0.00190551 0.00608075 0.00114899 
0.03363161 0.02130914 0.00776386 0.00305649 0.00127856 0.00148492 0.00520960 0.00499764 0.02533161 0.00185189 0.00148235 0.04539955 0.00720786 0.00189538 0.00611268 0.00113807 
0.03326576 0.02010872 0.00770190 0.00306081 0.00128073 0.00148692 0.00526081 0.00493603 0.02494603 0.00182443 0.00151112 0.04665958 0.00721557 0.00189531 0.00614718 0.00112721 
0.03289566 0.01891901 0.00764554 0.00306426 0.00128240 0.00148848 0.00531550 0.00487271 0.02456120 0.00179598 0.00154063 0.04795286 0.00721039 0.00190521 0.00618439 0.00111645 
0.03252144 0.01774581 0.00759521 0.00306679 0.00128357 0.00148962 0.00537325 0.00480778 0.02417882 0.00176662 0.00157068 0.04927561 0.00719224 0.00192490 0.00622444 0.00110584 
0.03214344 0.01659498 0.00755131 0.00306835 0.00128424 0.00149035 0.00543363 0.00474132 0.02380060 0.00173645 0.00160104 0.05062400 0.00716109 0.00195421 0.00626744 0.00109544 
0.03176214 0.01547240 0.00751420 0.00306893 0.00128443 0.00149068 0.00549618 0.00467344 0.02342822 0.00170556 0.00163149 0.05199418 0.00711702 0.00199288 0.00631346 0.00108529 
0.03137819 0.01438396 0.00748418 0.00306847 0.00128415 0.00149066 0.00556042 0.00460424 0.02306338 0.00167404 0.00166182 0.05338232 0.00706019 0.00204063 0.00636258 0.00107545 
0.03099238 0.01333551 0.00746152 0.00306695 0.00128342 0.00149029 0.00562587 0.00453379 0.02270773 0.00164200 0.00169180 0.05478460 0.00699081 0.00209713 0.00641485 0.00106598 
0.03060568 0.01233286 0.00744645 0.00306434 0.00128225 0.00148961 0.00569203 0.00446222 0.02236288 0.00160957 0.00172123 0.05619724 0.00690919 0.00216203 0.00647028 0.00105690 
0.03021919 0.01138173 0.00743913 0.00306062 0.00128067 0.00148865 0.00575841 0.00438963 0.02203045 0.00157684 0.00174989 0.05761649 0.00681572 0.00223493 0.00652887 0.00104828 
0.02983414 0.01048776 0.00743969 0.00305577 0.00127868 0.00148744 0.00582451 0.00431611 0.02171198 0.00154396 0.00177757 0.05903870 0.00671085 0.00231538 0.00659061 0.00104016 
0.02945188 0.00965642 0.00744817 0.00304977 0.00127632 0.00148603 0.00588984 0.00424178 0.02140898 0.00151105 0.00180407 0.06046027 0.00659511 0.00240294 0.00665544 0.00103258 
0.02907390 0.00889304 0.00746458 0.00304260 0.00127361 0.00148444 0.00595392 0.00416676 0.02112291 0.00147824 0.00182920 0.06187773 0.00646909 0.00249710 0.00672331 0.00102557 
0.02870176 0.00820275 0.00748887 0.00303425 0.00127057 0.00148273 0.00601629 0.00409116 0.02085516 0.00144567 0.00185279 0.06328768 0.00633346 0.00259737 0.00679411 0.00101919 
0.02833713 0.00759047 0.00752092 0.00302471 0.00126723 0.00148093 0.00607651 0.00401511 0.02060708 0.00141348 0.00187467 0.06468687 0.00618893 0.00270319 0.00686774 0.00101346 
0.02798177 0.00706085 0.00756056 0.00301397 0.00126362 0.00147910 0.00613417 0.00393875 0.02037992 0.00138181 0.00189467 0.06607218 0.00603630 0.00281401 0.00694407 0.00100842 
0.02763747 0.00661830 0.00760755 0.00300203 0.00125976 0.00147727 0.00618890 0.00386219 0.02017489 0.00135080 0.00191267 0.06744060 0.00587640 0.00292928 0.00702293 0.00100410 
0.02730611 0.00626691 0.00766161 0.00298888 0.00125569 0.00147550 0.00624033 0.00378559 0.01999310 0.00132062 0.00192853 0.06878931 0.00571010 0.00304840 0.00710416 0.00100051 
0.02698958 0.00601042 0.00772238 0.00297452 0.00125144 0.00147383 0.00628818 0.00370910 0.01983558 0.00129139 0.00194215 0.07011563 0.00553834 0.00317080 0.00718756 0.00099769 
0.02668982 0.00585226 0.00778947 0.00295896 0.00124703 0.00147232 0.00633217 0.00363286 0.01970327 0.00126328 0.00195345 0.07141707 0.00536209 0.00329587 0.00727292 0.00099564 
0.02640874 0.00579546 0.00786240 0.00294220 0.00124250 0.00147101 0.00637210 0.00355703 0.01959704 0.00123643 0.00196235 0.07269129 0.00518233 0.00342304 0.00736002 0.00099439 
0.02614829 0.00584265 0.00794068 0.00292425 0.00123789 0.00146995 0.00640780 0.00348178 0.01951765 0.00121098 0.00196880 0.07393614 0.00500010 0.00355171 0.00744863 0.00099394 
0.02591035 0.00599603 0.00802374 0.00290512 0.00123323 0.00146920 0.00643916 0.00340729 0.01946574 0.00118709 0.00197278 0.07514968 0.00481644 0.00368131 0.00753848 0.00099431 
0.02569682 0.00625739 0.00811097 0.00288482 0.00122855 0.00146880 0.00646613 0.00333372 0.01944188 0.00116489 0.00197427 0.07633012 0.00463240 0.00381127 0.00762933 0.00099548 
0.02550950 0.00662802 0.00820174 0.00286338 0.00122389 0.00146881 0.00648872 0.00326126 0.01944652 0.00114453 0.00197330 0.07747591 0.00444906 0.00394102 0.00772089 0.00099746 
0.02535016 0.00710877 0.00829534 0.00284081 0.00121927 0.00146927 0.00650700 0.00319010 0.01948000 0.00112613 0.00196989 0.07858566 0.00426747 0.00407004 0.00781291 0.00100024 
0.02522048 0.00769999 0.00839108 0.00281713 0.00121475 0.00147023 0.00652109 0.00312043 0.01954255 0.00110984 0.00196412 0.07965820 0.00408871 0.00419781 0.00790509 0.00100382 
0.02512204 0.00840150 0.00848819 0.00279238 0.00121035 0.00147173 0.00653119 0.00305243 0.01963428 0.00109578 0.00195605 0.08069256 0.00391382 0.00432383 0.00799716 0.00100817 
0.02505634 0.00921267 0.00858591 0.00276658 0.00120611 0.00147383 0.00653756 0.00298632 0.01975519 0.00108406 0.00194579 0.08168796 0.00374383 0.00444764 0.00808885 0.00101328 
0.02502475 0.01013229 0.00868345 0.00273978 0.00120207 0.00147656 0.00654051 0.00292228 0.01990516 0.00107481 0.00193347 0.08264383 0.00357977 0.00456879 0.00817987 0.00101913 
0.02502851 0.01115866 0.00878001 0.00271200 0.00119825 0.00147996 0.00654042 0.00286052 0.02008394 0.00106812 0.00191923 0.08355979 0.00342259 0.00468689 0.00826996 0.00102568 
0.02506873 0.01228956 0.00887476 0.00268330 0.00119470 0.00148408 0.00653773 0.00280124 0.02029116 0.00106410 0.00190324 0.08443565 0.00327326 0.00480156 0.00835885 0.00103292 
0.02514636 0.01352224 0.00896692 0.00265372 0.00119144 0.00148894 0.00653293 0.00274464 0.02052635 0.00106283 0.00188567 0.08527142 0.00313266 0.00491247 0.00844629 0.00104080 
0.02526221 0.01485342 0.00905565 0.00262332 0.00118852 0.00149459 0.00652658 0.00269092 0.02078889 0.00106440 0.00186674 0.08606731 0.00300166 0.00501930 0.00853204 0.00104930 
0.02541690 0.01627933 0.00914016 0.00259215 0.00118596 0.00150105 0.00651929 0.00264028 0.02107804 0.00106887 0.00184666 0.08682369 0.00288106 0.00512181 0.00861587 0.00105836 
0.02561091 0.01779568 0.00921968 0.00256027 0.00118380 0.00150835 0.00651170 0.00259291 0.02139295 0.00107630 0.00182567 0.08754112 0.00277159 0.00521977 0.00869756 0.00106795 
0.02584450 0.01939771 0.00929343 0.00252775 0.00118206 0.00151651 0.00650451 0.00254900 0.02173263 0.00108675 0.00180401 0.08822033 0.00267394 0.00531301 0.00877692 0.00107803 
0.02611778 0.02108017 0.00936068 0.00249467 0.00118079 0.00152555 0.00649847 0.00250872 0.02209598 0.00110024 0.00178195 0.08886221 0.00258874 0.00540137 0.00885378 0.00108855 
0.02643063 0.02283736 0.00942073 0.00246110 0.00118000 0.00153549 0.00649434 0.00247225 0.02248177 0.00111681 0.00175976 0.08946783 0.00251651 0.00548476 0.00892798 0.00109945 
0.02678277 0.02466314 0.00947290 0.00242712 0.00117973 0.00154635 0.00649292 0.00243976 0.02288866 0.00113647 0.00173773 0.09003837 0.00245775 0.00556314 0.00899939 0.00111070 
0.02717371 0.02655099 0.00951659 0.00239281 0.00118000 0.00155812 0.00649504 0.00241139 0.02331519 0.00115921 0.00171613 0.09057520 0.00241284 0.00563647 0.00906790 0.00112224 
0.02760276 0.02849396 0.00955120 0.00235827 0.00118084 0.00157082 0.00650155 0.00238729 0.02375980 0.00118503 0.00169526 0.09107978 0.00238210 0.00570479 0.00913342 0.00113401 
0.02806903 0.03048479 0.00957622 0.00232359 0.00118227 0.00158444 0.00651328 0.00236760 0.02422079 0.00121390 0.00167543 0.09155372 0.00236577 0.00576816 0.00919590 0.00114597 
0.02857142 0.03251588 0.00959118 0.00228888 0.00118432 0.00159898 0.00653111 0.00235242 0.02469639 0.00124579 0.00165691 0.09199872 0.00236401 0.00582668 0.00925531 0.00115805 
0.02910867 0.03457935 0.00959568 0.00225422 0.00118700 0.00161444 0.00655588 0.00234186 0.02518471 0.00128063 0.00164001 0.09241662 0.00237690 0.00588049 0.00931163 0.00117022 
0.02967928 0.03666707 0.00958937 0.00221973 0.00119033 0.00163079 0.00658843 0.00233600 0.02568377 0.00131838 0.00162502 0.09280931 0.00240441 0.00592977 0.00936489 0.00118241 
0.03028160 0.03877070 0.00957197 0.00218552 0.00119434 0.00164803 0.00662959 0.00233491 0.02619149 0.00135894 0.00161222 0.09317878 0.00244646 0.00597471 0.00941513 0.00119457 
0.03091376 0.04088173 0.00954329 0.00215170 0.00119903 0.00166613 0.00668015 0.00233864 0.02670573 0.00140223 0.00160188 0.09352710 0.00250287 0.00601556 0.00946243 0.00120665 
0.03157374 0.04299152 0.00950317 0.00211838 0.00120442 0.00168506 0.00674089 0.00234722 0.02722426 0.00144814 0.00159427 0.09385637 0.00257338 0.00605257 0.00950690 0.00121861 
0.03225933 0.04509136 0.00945157 0.00208567 0.00121052 0.00170480 0.00681252 0.00236066 0.02774477 0.00149656 0.00158963 0.09416875 0.00265765 0.00608605 0.00954865 0.00123038 
0.03296817 0.04717249 0.00938849 0.00205369 0.00121733 0.00172532 0.00689573 0.00237896 0.02826492 0.00154736 0.00158821 0.09446643 0.00275527 0.00611630 0.00958784 0.00124194 
0.03369773 0.04922616 0.00931401 0.00202256 0.00122487 0.00174656 0.00699113 0.00240207 0.02878230 0.00160039 0.00159022 0.09475164 0.00286574 0.00614365 0.00962465 0.00125322 
0.03444536 0.05124368 0.00922830 0.00199239 0.00123313 0.00176850 0.00709928 0.00242995 0.02929444 0.00165551 0.00159586 0.09502657 0.00298850 0.00616845 0.00965928 0.00126419 
0.03520824 0.05321645 0.00913159 0.00196329 0.00124212 0.00179107 0.00722069 0.00246253 0.02979888 0.00171256 0.00160530 0.09529344 0.00312291 0.00619106 0.00969194 0.00127481 
0.03598347 0.05513603 0.00902419 0.00193539 0.00125183 0.00181424 0.00735577 0.00249971 0.03029310 0.00177135 0.00161871 0.09555446 0.00326827 0.00621185 0.00972288 0.00128504 
0.03676802 0.05699417 0.00890647 0.00190878 0.00126226 0.00183795 0.00750485 0.00254137 0.03077457 0.00183171 0.00163621 0.09581176 0.00342381 0.00623120 0.00975237 0.00129485 
0.03755877 0.05878287 0.00877888 0.00188357 0.00127340 0.00186214 0.00766820 0.00258738 0.03124079 0.00189344 0.00165790 0.09606749 0.00358872 0.00624950 0.00978067 0.00130420 
0.03835252 0.06049442 0.00864193 0.00185987 0.00128523 0.00188674 0.00784597 0.00263757 0.03168924 0.00195634 0.00168387 0.09632369 0.00376212 0.00626710 0.00980808 0.00131307 
0.03914601 0.06212142 0.00849620 0.00183778 0.00129775 0.00191170 0.00803824 0.00269176 0.03211742 0.00202020 0.00171416 0.09658236 0.00394310 0.00628441 0.00983490 0.00132143 
0.03993592 0.06365688 0.00834232 0.00181738 0.00131093 0.00193694 0.00824497 0.00274975 0.03252289 0.00208481 0.00174879 0.09684541 0.00413068 0.00630177 0.00986145 0.00132926 
0.04071890 0.06509420 0.00818097 0.00179877 0.00132475 0.00196239 0.00846603 0.00281131 0.03290322 0.00214995 0.00178775 0.09711466 0.00432388 0.00631956 0.00988805 0.00133655 
0.04149160 0.06642725 0.00801291 0.00178202 0.00133919 0.00198798 0.00870119 0.00287621 0.03325605 0.00221539 0.00183101 0.09739183 0.00452166 0.00633811 0.00991504 0.00134327 
0.04225066 0.06765040 0.00783892 0.00176720 0.00135422 0.00201364 0.00895012 0.00294418 0.03357911 0.00228090 0.00187848 0.09767853 0.00472298 0.00635776 0.00994274 0.00134943 
0.04299272 0.06875855 0.00765983 0.00175437 0.00136981 0.00203928 0.00921235 0.00301495 0.03387018 0.00234625 0.00193008 0.09797624 0.00492675 0.00637881 0.00997148 0.00135500 
0.04371449 0.06974715 0.00747649 0.00174360 0.00138592 0.00206482 0.00948735 0.00308823 0.03412715 0.00241120 0.00198567 0.09828630 0.00513191 0.00640156 0.01000161 0.00135999 
0.04441271 0.07061227 0.00728981 0.00173492 0.00140251 0.00209018 0.00977444 0.00316370 0.03434800 0.00247553 0.00204509 0.09860993 0.00533735 0.00642626 0.01003345 0.00136440 
0.04508420 0.07135058 0.00710070 0.00172836 0.00141955 0.00211528 0.01007288 0.00324104 0.03453085 0.00253899 0.00210815 0.09894819 0.00554200 0.00645315 0.01006732 0.00136823 
0.04572586 0.07195940 0.00691010 0.00172396 0.00143698 0.00214004 0.01038179 0.00331993 0.03467393 0.00260136 0.00217462 0.09930198 0.00574477 0.00648244 0.01010354 0.00137148 
0.04633471 0.07243672 0.00671894 0.00172173 0.00145476 0.00216436 0.01070020 0.00340001 0.03477560 0.00266239 0.00224427 0.09967205 0.00594459 0.00651431 0.01014241 0.00137417 
0.04690789 0.07278120 0.00652819 0.00172166 0.00147283 0.00218816 0.01102706 0.00348094 0.03483440 0.00272187 0.00231682 0.10005897 0.00614041 0.00654890 0.01018422 0.00137631 
0.04744267 0.07299219 0.00633879 0.00172375 0.00149114 0.00221136 0.01136121 0.00356237 0.03484900 0.00277958 0.00239198 0.10046315 0.00633121 0.00658632 0.01022925 0.00137791 
0.04793649 0.07306975 0.00615169 0.00172797 0.00150964 0.00223387 0.01170142 0.00364391 0.03481825 0.00283529 0.00246942 0.10088483 0.00651599 0.00662666 0.01027775 0.00137900 
0.04838695 0.07301465 0.00596781 0.00173429 0.00152825 0.00225561 0.01204637 0.00372522 0.03474120 0.00288879 0.00254880 0.10132406 0.00669380 0.00666996 0.01032995 0.00137959 
0.04879187 0.07282834 0.00578806 0.00174268 0.00154693 0.00227648 0.01239466 0.00380593 0.03461704 0.00293989 0.00262978 0.10178073 0.00686372 0.00671622 0.01038609 0.00137971 
0.04914923 0.07251299 0.00561333 0.00175306 0.00156559 0.00229641 0.01274483 0.00388567 0.03444521 0.00298839 0.00271196 0.10225453 0.00702487 0.00676541 0.01044634 0.00137939 
0.04945727 0.07207146 0.00544446 0.00176538 0.00158417 0.00231531 0.01309538 0.00396407 0.03422529 0.00303411 0.00279496 0.10274501 0.00717644 0.00681749 0.01051088 0.00137864 
0.04971442 0.07150728 0.00528227 0.00177955 0.00160261 0.00233311 0.01344473 0.00404079 0.03395713 0.00307687 0.00287837 0.10325152 0.00731766 0.00687234 0.01057986 0.00137751 
0.04991940 0.07082464 0.00512752 0.00179549 0.00162082 0.00234972 0.01379128 0.00411548 0.03364075 0.00311651 0.00296179 0.10377327 0.00744783 0.00692984 0.01065338 0.00137602 
0.05007114 0.07002838 0.00498095 0.00181309 0.00163874 0.00236507 0.01413339 0.00418779 0.03327640 0.00315288 0.00304479 0.10430927 0.00756630 0.00698982 0.01073154 0.00137420 
0.05016886 0.06912396 0.00484321 0.00183225 0.00165629 0.00237909 0.01446940 0.00425740 0.03286455 0.00318585 0.00312695 0.10485840 0.00767249 0.00705210 0.01081439 0.00137209 
0.05021205 0.06811742 0.00471492 0.00185284 0.00167339 0.00239170 0.01479764 0.00432399 0.03240589 0.00321529 0.00320785 0.10541939 0.00776589 0.00711645 0.01090197 0.00136972 
0.05020047 0.06701534 0.00459664 0.00187474 0.00168997 0.00240284 0.01511645 0.00438727 0.03190133 0.00324110 0.00328706 0.10599084 0.00784607 0.00718261 0.01099427 0.00136713 
0.05013418 0.06582486 0.00448885 0.00189781 0.00170594 0.00241245 0.01542416 0.00444695 0.03135202 0.00326318 0.00336416 0.10657118 0.00791266 0.00725031 0.01109127 0.00136435 
0.05001351 0.06455355 0.00439197 0.00192191 0.00172124 0.00242047 0.01571913 0.00450277 0.03075930 0.00328145 0.00343875 0.10715877 0.00796537 0.00731926 0.01119290 0.00136141 
0.04983912 0.06320946 0.00430635 0.00194689 0.00173578 0.00242684 0.01599977 0.00455448 0.03012477 0.00329585 0.00351042 0.10775183 0.00800397 0.00738912 0.01129908 0.00135835 
0.04961193 0.06180100 0.00423227 0.00197260 0.00174949 0.00243152 0.01626450 0.00460187 0.02945021 0.00330633 0.00357879 0.10834849 0.00802834 0.00745957 0.01140969 0.00135521 
0.04933317 0.06033693 0.00416995 0.00199887 0.00176229 0.00243446 0.01651183 0.00464473 0.02873763 0.00331287 0.00364347 0.10894682 0.00803839 0.00753025 0.01152458 0.00135201 
0.04900436 0.05882632 0.00411952 0.00202555 0.00177411 0.00243563 0.01674030 0.00468289 0.02798925 0.00331544 0.00370412 0.10954479 0.00803414 0.00760080 0.01164358 0.00134879 
0.04862733 0.05727846 0.00408103 0.00205248 0.00178489 0.00243498 0.01694854 0.00471620 0.02720747 0.00331405 0.00376040 0.11014034 0.00801568 0.00767084 0.01176648 0.00134558 
0.04820417 0.05570284 0.00405448 0.00207948 0.00179455 0.00243249 0.01713528 0.00474454 0.02639491 0.00330873 0.00381199 0.11073138 0.00798315 0.00774000 0.01189306 0.00134242 
0.04773725 0.05410907 0.00403979 0.00210639 0.00180302 0.00242815 0.01729933 0.00476782 0.02555435 0.00329949 0.00385862 0.11131579 0.00793679 0.00780790 0.01202307 0.00133932 
0.04722923 0.05250685 0.00403679 0.00213305 0.00181025 0.00242193 0.01743960 0.00478597 0.02468876 0.00328641 0.00390001 0.11189144 0.00787689 0.00787416 0.01215623 0.00133632 
0.04668302 0.05090587 0.00404526 0.00215929 0.00181618 0.00241382 0.01755511 0.00479894 0.02380126 0.00326953 0.00393594 0.11245622 0.00780382 0.00793840 0.01229226 0.00133344 
0.04610178 0.04931581 0.00406492 0.00218497 0.00182074 0.00240384 0.01764503 0.00480674 0.02289514 0.00324896 0.00396621 0.11300807 0.00771800 0.00800027 0.01243084 0.00133070 
0.04548889 0.04774623 0.00409540 0.00220992 0.00182390 0.00239197 0.01770862 0.00480938 0.02197380 0.00322477 0.00399064 0.11354497 0.00761991 0.00805942 0.01257163 0.00132813 
0.04484798 0.04620654 0.00413629 0.00223399 0.00182560 0.00237823 0.01774530 0.00480691 0.02104079 0.00319710 0.00400909 0.11406494 0.00751011 0.00811550 0.01271431 0.00132574 
0.04418286 0.04470595 0.00418713 0.00225704 0.00182581 0.00236265 0.01775463 0.00479941 0.02009977 0.00316606 0.00402148 0.11456613 0.00738919 0.00816820 0.01285851 0.00132355 
0.04349753 0.04325340 0.00424738 0.00227895 0.00182449 0.00234525 0.01773629 0.00478699 0.01915449 0.00313180 0.00402772 0.11504676 0.00725780 0.00821723 0.01300386 0.00132158 
0.04279616 0.04185750 0.00431648 0.00229957 0.00182161 0.00232606 0.01769015 0.00476978 0.01820878 0.00309447 0.00402779 0.11550518 0.00711663 0.00826231 0.01315001 0.00131983 
0.04208307 0.04052650 0.00439381 0.00231880 0.00181714 0.00230513 0.01761619 0.00474794 0.01726655 0.00305423 0.00402169 0.11593987 0.00696642 0.00830321 0.01329656 0.00131832 
0.04136269 0.03926822 0.00447872 0.00233652 0.00181107 0.00228250 0.01751459 0.00472167 0.01633175 0.00301128 0.00400946 0.11634946 0.00680793 0.00833970 0.01344313 0.00131705 
0.04063955 0.03809003 0.00457052 0.00235264 0.00180340 0.00225824 0.01738564 0.00469118 0.01540835 0.00296578 0.00399117 0.11673275 0.00664197 0.00837162 0.01358936 0.00131603 
0.03991827 0.03699877 0.00466851 0.00236707 0.00179410 0.00223240 0.01722983 0.00465671 0.01450036 0.00291795 0.00396694 0.11708872 0.00646935 0.00839882 0.01373486 0.00131526 
0.03920351 0.03600073 0.00477196 0.00237974 0.00178319 0.00220506 0.01704778 0.00461852 0.01361177 0.00286798 0.00393691 0.11741653 0.00629094 0.00842119 0.01387926 0.00131474 
0.03849994 0.03510164 0.00488011 0.00239059 0.00177068 0.00217631 0.01684027 0.00457690 0.01274656 0.00281610 0.00390126 0.11771554 0.00610759 0.00843866 0.01402220 0.00131446 
0.03781225 0.03430656 0.00499223 0.00239956 0.00175658 0.00214622 0.01660823 0.00453215 0.01190867 0.00276252 0.00386020 0.11798535 0.00592018 0.00845121 0.01416332 0.00131442 
0.03714508 0.03361993 0.00510755 0.00240663 0.00174091 0.00211488 0.01635274 0.00448460 0.01110198 0.00270748 0.00381396 0.11822574 0.00572960 0.00845885 0.01430229 0.00131461 
0.03650302 0.03304551 0.00522533 0.00241177 0.00172370 0.00208241 0.01607503 0.00443459 0.01033032 0.00265120 0.00376284 0.11843677 0.00553672 0.00846165 0.01443877 0.00131503 
0.03589057 0.03258634 0.00534482 0.00241498 0.00170500 0.00204891 0.01577646 0.00438248 0.00959739 0.00259393 0.00370712 0.11861868 0.00534244 0.00845969 0.01457247 0.00131566 
0.03531212 0.03224476 0.00546531 0.00241624 0.00168483 0.00201449 0.01545852 0.00432863 0.00890683 0.00253589 0.00364713 0.11877199 0.00514762 0.00845313 0.01470309 0.00131649 
0.03477190 0.03202238 0.00558609 0.00241559 0.00166326 0.00197927 0.01512283 0.00427342 0.00826210 0.00247734 0.00358323 0.11889745 0.00495312 0.00844215 0.01483036 0.00131750 
0.03427400 0.03192005 0.00570650 0.00241306 0.00164034 0.00194337 0.01477112 0.00421724 0.00766658 0.00241851 0.00351578 0.11899605 0.00475980 0.00842699 0.01495404 0.00131869 
0.03382227 0.03193791 0.00582589 0.00240869 0.00161612 0.00190694 0.01440522 0.00416048 0.00712344 0.00235964 0.00344518 0.11906903 0.00456847 0.00840791 0.01507391 0.00132002 
0.03342039 0.03207534 0.00594366 0.00240253 0.00159069 0.00187009 0.01402706 0.00410355 0.00663571 0.00230097 0.00337184 0.11911784 0.00437994 0.00838523 0.01518977 0.00132148 
0.03307174 0.03233098 0.00605925 0.00239465 0.00156411 0.00183298 0.01363867 0.00404684 0.00620623 0.00224274 0.00329618 0.11914421 0.00419497 0.00835930 0.01530146 0.00132305 
0.03277945 0.03270276 0.00617217 0.00238513 0.00153646 0.00179575 0.01324214 0.00399076 0.00583761 0.00218518 0.00321864 0.11915006 0.00401430 0.00833050 0.01540883 0.00132472 
0.03254635 0.03318790 0.00628194 0.00237407 0.00150783 0.00175854 0.01283962 0.00393570 0.00553227 0.00212851 0.00313966 0.11913754 0.00383864 0.00829927 0.01551178 0.00132645 
0.03237496 0.03378291 0.00638816 0.00236157 0.00147831 0.00172150 0.01243331 0.00388205 0.00529240 0.00207296 0.00305970 0.11910901 0.00366865 0.00826607 0.01561022 0.00132823 
0.03226744 0.03448365 0.00649050 0.00234772 0.00144799 0.00168478 0.01202545 0.00383019 0.00511994 0.00201874 0.00297921 0.11906703 0.00350496 0.00823137 0.01570410 0.00133003 
0.03222562 0.03528534 0.00658865 0.00233266 0.00141696 0.00164855 0.01161832 0.00378051 0.00501659 0.00196605 0.00289864 0.11901432 0.00334814 0.00819570 0.01579340 0.00133183 
0.03225094 0.03618258 0.00668242 0.00231651 0.00138534 0.00161294 0.01121419 0.00373337 0.00498377 0.00191511 0.00281846 0.11895380 0.00319872 0.00815959 0.01587812 0.00133361 
0.03234445 0.03716942 0.00677163 0.00229939 0.00135323 0.00157813 0.01081533 0.00368910 0.00502264 0.00186608 0.00273911 0.11888851 0.00305721 0.00812360 0.01595831 0.00133534 
0.03250681 0.03823935 0.00685619 0.00228145 0.00132073 0.00154426 0.01042399 0.00364806 0.00513409 0.00181916 0.00266103 0.11882161 0.00292404 0.00808832 0.01603401 0.00133701 
0.03273826 0.03938539 0.00693608 0.00226284 0.00128796 0.00151147 0.01004243 0.00361054 0.00531871 0.00177451 0.00258466 0.11875640 0.00279959 0.00805432 0.01610534 0.00133859 
0.03303865 0.04060009 0.00701134 0.00224369 0.00125502 0.00147994 0.00967280 0.00357684 0.00557681 0.00173228 0.00251041 0.11869624 0.00268420 0.00802220 0.01617239 0.00134006 
0.03340737 0.04187562 0.00708207 0.00222415 0.00122202 0.00144980 0.00931726 0.00354724 0.00590839 0.00169262 0.00243869 0.11864455 0.00257817 0.00799257 0.01623532 0.00134140 
0.03384342 0.04320380 0.00714844 0.00220438 0.00118909 0.00142119 0.00897786 0.00352199 0.00631317 0.00165565 0.00236989 0.11860479 0.00248173 0.00796602 0.01629428 0.00134260 
0.03434537 0.04457614 0.00721067 0.00218451 0.00115633 0.00139426 0.00865659 0.00350129 0.00679056 0.00162150 0.00230437 0.11858045 0.00239506 0.00794315 0.01634948 0.00134363 
0.03491136 0.04598391 0.00726906 0.00216471 0.00112387 0.00136915 0.00835533 0.00348536 0.00733966 0.00159026 0.00224248 0.11857498 0.00231831 0.00792455 0.01640110 0.00134448 
0.03553914 0.04741819 0.00732394 0.00214511 0.00109180 0.00134597 0.00807586 0.00347436 0.00795930 0.00156202 0.00218454 0.11859180 0.00225154 0.00791077 0.01644938 0.00134514 
0.03622603 0.04886993 0.00737572 0.00212586 0.00106024 0.00132486 0.00781987 0.00346843 0.00864799 0.00153685 0.00213084 0.11863424 0.00219480 0.00790239 0.01649455 0.00134559 
0.03696900 0.05032999 0.00742484 0.00210710 0.00102931 0.00130594 0.00758888 0.00346767 0.00940394 0.00151482 0.00208167 0.11870557 0.00214807 0.00789991 0.01653687 0.00134582 
0.03776460 0.05178923 0.00747179 0.00208895 0.00099910 0.00128930 0.00738430 0.00347218 0.01022508 0.00149596 0.00203725 0.11880890 0.00211129 0.00790385 0.01657659 0.00134583 
0.03860907 0.05323853 0.00751709 0.00207155 0.00096973 0.00127505 0.00720740 0.00348198 0.01110907 0.00148030 0.00199780 0.11894721 0.00208435 0.00791467 0.01661398 0.00134559 
0.03949826 0.05466886 0.00756133 0.00205501 0.00094129 0.00126328 0.00705928 0.00349711 0.01205327 0.00146786 0.00196350 0.11912328 0.00206711 0.00793281 0.01664932 0.00134512 
0.04042776 0.05607133 0.00760508 0.00203944 0.00091388 0.00125407 0.00694090 0.00351754 0.01305479 0.00145863 0.00193450 0.11933972 0.00205937 0.00795864 0.01668287 0.00134440 
0.04139284 0.05743725 0.00764897 0.00202494 0.00088759 0.00124749 0.00685304 0.00354322 0.01411048 0.00145258 0.00191092 0.11959886 0.00206090 0.00799252 0.01671492 0.00134344 
0.04238851 0.05875819 0.00769364 0.00201161 0.00086253 0.00124361 0.00679632 0.00357408 0.01521693 0.00144970 0.00189283 0.11990283 0.00207142 0.00803473 0.01674573 0.00134223 
0.04340957 0.06002602 0.00773973 0.00199953 0.00083876 0.00124246 0.00677117 0.00361001 0.01637052 0.00144992 0.00188030 0.12025345 0.00209065 0.00808554 0.01677557 0.00134077 
0.04445060 0.06123295 0.00778790 0.00198876 0.00081637 0.00124409 0.00677785 0.00365086 0.01756739 0.00145318 0.00187335 0.12065225 0.00211824 0.00814512 0.01680468 0.00133908 
0.04550602 0.06237157 0.00783879 0.00197936 0.00079543 0.00124852 0.00681645 0.00369646 0.01880349 0.00145942 0.00187195 0.12110043 0.00215382 0.00821360 0.01683333 0.00133715 
0.04657012 0.06343493 0.00789306 0.00197138 0.00077601 0.00125577 0.00688687 0.00374661 0.02007457 0.00146853 0.00187607 0.12159888 0.00219700 0.00829106 0.01686173 0.00133500 
0.04763712 0.06441654 0.00795134 0.00196486 0.00075818 0.00126583 0.00698883 0.00380109 0.02137622 0.00148041 0.00188562 0.12214813 0.00224736 0.00837751 0.01689010 0.00133263 
0.04870114 0.06531043 0.00801424 0.00195982 0.00074199 0.00127870 0.00712188 0.00385964 0.02270385 0.00149494 0.00190051 0.12274833 0.00230448 0.00847290 0.01691863 0.00133005 
0.04975632 0.06611116 0.00808234 0.00195627 0.00072749 0.00129435 0.00728537 0.00392198 0.02405277 0.00151200 0.00192059 0.12339929 0.00236787 0.00857709 0.01694751 0.00132729 
0.05079680 0.06681388 0.00815620 0.00195419 0.00071472 0.00131274 0.00747851 0.00398782 0.02541814 0.00153144 0.00194570 0.12410040 0.00243709 0.00868991 0.01697689 0.00132435 
0.05181679 0.06741432 0.00823633 0.00195359 0.00070372 0.00133383 0.00770031 0.00405682 0.02679505 0.00155312 0.00197565 0.12485071 0.00251162 0.00881111 0.01700689 0.00132125 
0.05281060 0.06790883 0.00832321 0.00195443 0.00069452 0.00135755 0.00794964 0.00412864 0.02817848 0.00157687 0.00201022 0.12564883 0.00259099 0.00894036 0.01703762 0.00131802 
0.05377267 0.06829442 0.00841726 0.00195668 0.00068715 0.00138383 0.00822520 0.00420293 0.02956339 0.00160253 0.00204917 0.12649302 0.00267469 0.00907729 0.01706917 0.00131465 
0.05469764 0.06856872 0.00851886 0.00196027 0.00068163 0.00141259 0.00852556 0.00427931 0.03094468 0.00162991 0.00209224 0.12738114 0.00276220 0.00922145 0.01710159 0.00131119 
0.05558033 0.06873002 0.00862831 0.00196516 0.00067795 0.00144373 0.00884913 0.00435740 0.03231725 0.00165883 0.00213914 0.12831069 0.00285302 0.00937233 0.01713491 0.00130765 
0.05641585 0.06877729 0.00874586 0.00197128 0.00067613 0.00147714 0.00919421 0.00443679 0.03367601 0.00168911 0.00218957 0.12927877 0.00294663 0.00952936 0.01716914 0.00130404 
0.05719957 0.06871015 0.00887172 0.00197853 0.00067616 0.00151270 0.00955895 0.00451709 0.03501590 0.00172054 0.00224321 0.13028214 0.00304253 0.00969191 0.01720424 0.00130040 
0.05792719 0.06852888 0.00900598 0.00198684 0.00067803 0.00155030 0.00994141 0.00459789 0.03633191 0.00175294 0.00229973 0.13131725 0.00314021 0.00985930 0.01724017 0.00129675 
0.05859475 0.06823441 0.00914871 0.00199610 0.00068173 0.00158978 0.01033956 0.00467877 0.03761910 0.00178609 0.00235879 0.13238017 0.00323919 0.01003080 0.01727686 0.00129311 
0.05919869 0.06782832 0.00929988 0.00200622 0.00068723 0.00163102 0.01075127 0.00475933 0.03887264 0.00181979 0.00242004 0.13346673 0.00333897 0.01020561 0.01731420 0.00128950 
0.05973585 0.06731280 0.00945938 0.00201708 0.00069450 0.00167385 0.01117435 0.00483916 0.04008781 0.00185383 0.00248310 0.13457244 0.00343908 0.01038293 0.01735207 0.00128594 
0.06020349 0.06669064 0.00962705 0.00202857 0.00070351 0.00171812 0.01160653 0.00491787 0.04126004 0.00188803 0.00254763 0.13569258 0.00353907 0.01056188 0.01739034 0.00128247 
0.06059934 0.06596523 0.00980264 0.00204058 0.00071422 0.00176366 0.01204552 0.00499505 0.04238490 0.00192216 0.00261325 0.13682222 0.00363848 0.01074156 0.01742883 0.00127910 
0.06092159 0.06514051 0.00998583 0.00205297 0.00072658 0.00181031 0.01248898 0.00507033 0.04345817 0.00195603 0.00267959 0.13795620 0.00373691 0.01092105 0.01746737 0.00127585 
0.06116893 0.06422093 0.01017623 0.00206563 0.00074053 0.00185789 0.01293455 0.00514335 0.04447579 0.00198945 0.00274630 0.13908926 0.00383393 0.01109939 0.01750575 0.00127275 
0.06134052 0.06321144 0.01037337 0.00207844 0.00075603 0.00190623 0.01337987 0.00521375 0.04543396 0.00202222 0.00281300 0.14021596 0.00392916 0.01127563 0.01754379 0.00126982 
0.06143605 0.06211746 0.01057671 0.00209128 0.00077301 0.00195515 0.01382261 0.00528122 0.04632907 0.00205416 0.00287934 0.14133082 0.00402223 0.01144877 0.01758124 0.00126707 
0.06145572 0.06094482 0.01078566 0.00210402 0.00079140 0.00200446 0.01426043 0.00534543 0.04715780 0.00208509 0.00294499 0.14242827 0.00411280 0.01161784 0.01761789 0.00126454 
0.06140023 0.05969973 0.01099955 0.00211656 0.00081114 0.00205401 0.01469106 0.00540611 0.04791707 0.00211484 0.00300960 0.14350277 0.00420056 0.01178185 0.01765351 0.00126222 
0.06127080 0.05838875 0.01121767 0.00212877 0.00083214 0.00210359 0.01511225 0.00546301 0.04860408 0.00214324 0.00307285 0.14454876 0.00428520 0.01193983 0.01768785 0.00126015 
0.06106915 0.05701871 0.01143922 0.00214056 0.00085433 0.00215305 0.01552183 0.00551588 0.04921633 0.00217014 0.00313444 0.14556079 0.00436646 0.01209081 0.01772069 0.00125833 
0.06079749 0.05559673 0.01166339 0.00215182 0.00087764 0.00220221 0.01591772 0.00556454 0.04975163 0.00219540 0.00319408 0.14653348 0.00444409 0.01223387 0.01775179 0.00125679 
0.06045851 0.05413010 0.01188930 0.00216247 0.00090196 0.00225090 0.01629792 0.00560881 0.05020809 0.00221890 0.00325149 0.14746160 0.00451787 0.01236808 0.01778094 0.00125552 
0.06005538 0.05262628 0.01211605 0.00217241 0.00092723 0.00229897 0.01666051 0.00564856 0.05058414 0.00224050 0.00330642 0.14834012 0.00458760 0.01249256 0.01780791 0.00125455 
0.05959168 0.05109287 0.01234268 0.00218159 0.00095335 0.00234625 0.01700371 0.00568368 0.05087855 0.00226011 0.00335864 0.14916419 0.00465312 0.01260648 0.01783250 0.00125387 
0.05907145 0.04953750 0.01256822 0.00218993 0.00098022 0.00239259 0.01732585 0.00571411 0.05109042 0.00227763 0.00340794 0.14992923 0.00471429 0.01270904 0.01785452 0.00125350 
0.05849908 0.04796785 0.01279168 0.00219738 0.00100776 0.00243787 0.01762540 0.00573981 0.05121919 0.00229298 0.00345413 0.15063095 0.00477099 0.01279950 0.01787380 0.00125344 
0.05787935 0.04639156 0.01301205 0.00220390 0.00103588 0.00248194 0.01790097 0.00576079 0.05126463 0.00230610 0.00349704 0.15126536 0.00482312 0.01287717 0.01789018 0.00125369 
0.05721737 0.04481620 0.01322832 0.00220947 0.00106448 0.00252469 0.01815130 0.00577709 0.05122686 0.00231694 0.00353655 0.15182883 0.00487063 0.01294143 0.01790354 0.00125425 
0.05651853 0.04324924 0.01343946 0.00221408 0.00109346 0.00256600 0.01837530 0.00578878 0.05110634 0.00232547 0.00357252 0.15231809 0.00491347 0.01299173 0.01791375 0.00125512 
0.05578850 0.04169799 0.01364447 0.00221771 0.00112274 0.00260578 0.01857205 0.00579598 0.05090387 0.00233166 0.00360488 0.15273027 0.00495161 0.01302757 0.01792073 0.00125631 
0.05503316 0.04016955 0.01384233 0.00222038 0.00115222 0.00264392 0.01874077 0.00579883 0.05062058 0.00233551 0.00363355 0.15306292 0.00498508 0.01304856 0.01792442 0.00125779 
0.05425856 0.03867081 0.01403209 0.00222213 0.00118180 0.00268036 0.01888087 0.00579751 0.05025794 0.00233703 0.00365851 0.15331404 0.00501389 0.01305436 0.01792478 0.00125957 
0.05347090 0.03720838 0.01421276 0.00222298 0.00121140 0.00271503 0.01899192 0.00579223 0.04981772 0.00233625 0.00367973 0.15348204 0.00503809 0.01304473 0.01792181 0.00126163 
0.05267646 0.03578856 0.01438344 0.00222299 0.00124092 0.00274787 0.01907366 0.00578325 0.04930202 0.00233322 0.00369723 0.15356585 0.00505775 0.01301949 0.01791551 0.00126397 
0.05188159 0.03441732 0.01454323 0.00222223 0.00127027 0.00277885 0.01912600 0.00577084 0.04871324 0.00232797 0.00371104 0.15356482 0.00507296 0.01297859 0.01790593 0.00126658 
0.05109261 0.03310027 0.01469129 0.00222077 0.00129938 0.00280793 0.01914904 0.00575530 0.04805407 0.00232060 0.00372122 0.15347881 0.00508382 0.01292203 0.01789314 0.00126943 
0.05031584 0.03184261 0.01482682 0.00221872 0.00132815 0.00283509 0.01914303 0.00573697 0.04732749 0.00231118 0.00372786 0.15330816 0.00509045 0.01284991 0.01787724 0.00127251 
0.04955749 0.03064914 0.01494908 0.00221616 0.00135651 0.00286035 0.01910839 0.00571621 0.04653673 0.00229982 0.00373105 0.15305366 0.00509300 0.01276244 0.01785835 0.00127580 
0.04882365 0.02952423 0.01505739 0.00221323 0.00138437 0.00288369 0.01904571 0.00569339 0.04568528 0.00228663 0.00373093 0.15271659 0.00509162 0.01265990 0.01783661 0.00127929 
0.04812022 0.02847178 0.01515111 0.00221004 0.00141166 0.00290515 0.01895572 0.00566891 0.04477688 0.00227173 0.00372762 0.15229869 0.00508647 0.01254265 0.01781219 0.00128296 
0.04745291 0.02749523 0.01522971 0.00220673 0.00143832 0.00292476 0.01883933 0.00564320 0.04381545 0.00225526 0.00372131 0.15180216 0.00507772 0.01241118 0.01778527 0.00128678 
0.04682715 0.02659757 0.01529268 0.00220345 0.00146426 0.00294256 0.01869756 0.00561668 0.04280515 0.00223737 0.00371216 0.15122960 0.00506558 0.01226601 0.01775608 0.00129073 
0.04624809 0.02578126 0.01533962 0.00220034 0.00148943 0.00295860 0.01853160 0.00558980 0.04175030 0.00221822 0.00370036 0.15058407 0.00505023 0.01210780 0.01772481 0.00129479 
0.04572054 0.02504831 0.01537018 0.00219757 0.00151378 0.00297295 0.01834273 0.00556300 0.04065539 0.00219798 0.00368614 0.14986898 0.00503187 0.01193726 0.01769172 0.00129893 
0.04524896 0.02440022 0.01538410 0.00219530 0.00153723 0.00298568 0.01813238 0.00553674 0.03952504 0.00217682 0.00366969 0.14908813 0.00501073 0.01175519 0.01765705 0.00130313 
0.04483738 0.02383801 0.01538118 0.00219371 0.00155976 0.00299688 0.01790207 0.00551149 0.03836401 0.00215494 0.00365127 0.14824566 0.00498701 0.01156244 0.01762104 0.00130737 
0.04448941 0.02336221 0.01536132 0.00219295 0.00158130 0.00300664 0.01765343 0.00548770 0.03717715 0.00213251 0.00363109 0.14734602 0.00496094 0.01135997 0.01758398 0.00131162 
0.04420822 0.02297288 0.01532449 0.00219321 0.00160183 0.00301505 0.01738816 0.00546581 0.03596939 0.00210975 0.00360942 0.14639394 0.00493274 0.01114879 0.01754610 0.00131585 
0.04399649 0.02266962 0.01527072 0.00219466 0.00162130 0.00302222 0.01710806 0.00544628 0.03474571 0.00208684 0.00358649 0.14539438 0.00490263 0.01092995 0.01750769 0.00132004 
0.04385639 0.02245157 0.01520013 0.00219748 0.00163968 0.00302825 0.01681496 0.00542954 0.03351115 0.00206400 0.00356257 0.14435252 0.00487084 0.01070458 0.01746898 0.00132416 
0.04378957 0.02231744 0.01511293 0.00220182 0.00165696 0.00303327 0.01651077 0.00541602 0.03227075 0.00204142 0.00353790 0.14327373 0.00483759 0.01047385 0.01743025 0.00132820 
0.04379718 0.02226554 0.01500937 0.00220785 0.00167311 0.00303738 0.01619743 0.00540610 0.03102952 0.00201932 0.00351274 0.14216350 0.00480309 0.01023899 0.01739172 0.00133211 
0.04387978 0.02229375 0.01488978 0.00221575 0.00168813 0.00304071 0.01587689 0.00540018 0.02979249 0.00199790 0.00348734 0.14102741 0.00476757 0.01000123 0.01735363 0.00133589 
0.04403743 0.02239960 0.01475459 0.00222565 0.00170200 0.00304339 0.01555114 0.00539861 0.02856461 0.00197736 0.00346195 0.13987111 0.00473125 0.00976187 0.01731618 0.00133951 
0.04426962 0.02258028 0.01460424 0.00223770 0.00171472 0.00304552 0.01522215 0.00540173 0.02735076 0.00195790 0.00343682 0.13870028 0.00469431 0.00952221 0.01727958 0.00134294 
0.04457528 0.02283263 0.01443928 0.00225205 0.00172629 0.00304723 0.01489189 0.00540984 0.02615574 0.00193973 0.00341218 0.13752057 0.00465698 0.00928357 0.01724400 0.00134617 
0.04495282 0.02315322 0.01426027 0.00226880 0.00173673 0.00304865 0.01456231 0.00542321 0.02498425 0.00192303 0.00338826 0.13633759 0.00461943 0.00904728 0.01720959 0.00134917 
0.04540010 0.02353834 0.01406787 0.00228809 0.00174605 0.00304988 0.01423532 0.00544209 0.02384085 0.00190798 0.00336527 0.13515684 0.00458186 0.00881468 0.01717648 0.00135192 
0.04591448 0.02398405 0.01386276 0.00231000 0.00175428 0.00305104 0.01391278 0.00546669 0.02272995 0.00189477 0.00334343 0.13398372 0.00454445 0.00858711 0.01714477 0.00135442 
0.04649279 0.02448619 0.01364566 0.00233462 0.00176142 0.00305224 0.01359650 0.00549716 0.02165582 0.00188357 0.00332293 0.13282346 0.00450736 0.00836587 0.01711453 0.00135664 
0.04713140 0.02504045 0.01341734 0.00236202 0.00176753 0.00305359 0.01328823 0.00553364 0.02062253 0.00187452 0.00330395 0.13168109 0.00447075 0.00815227 0.01708580 0.00135857 
0.04782619 0.02564235 0.01317859 0.00239225 0.00177262 0.00305518 0.01298963 0.00557623 0.01963396 0.00186779 0.00328667 0.13056144 0.00443477 0.00794758 0.01705860 0.00136020 
0.04857262 0.02628732 0.01293026 0.00242536 0.00177675 0.00305710 0.01270229 0.00562496 0.01869380 0.00186351 0.00327123 0.12946908 0.00439956 0.00775304 0.01703292 0.00136151 
0.04936576 0.02697068 0.01267320 0.00246137 0.00177995 0.00305944 0.01242769 0.00567984 0.01780550 0.00186180 0.00325777 0.12840831 0.00436524 0.00756985 0.01700869 0.00136251 
0.05020026 0.02768773 0.01240826 0.00250027 0.00178228 0.00306227 0.01216723 0.00574085 0.01697228 0.00186278 0.00324642 0.12738314 0.00433193 0.00739917 0.01698586 0.00136317 
0.05107048 0.02843372 0.01213634 0.00254205 0.00178379 0.00306566 0.01192218 0.00580789 0.01619712 0.00186655 0.00323728 0.12639725 0.00429973 0.00724210 0.01696430 0.00136350 
0.05197044 0.02920393 0.01185834 0.00258668 0.00178454 0.00306967 0.01169371 0.00588087 0.01548275 0.00187318 0.00323043 0.12545403 0.00426874 0.00709969 0.01694388 0.00136349 
0.05289391 0.02999367 0.01157514 0.00263411 0.00178459 0.00307435 0.01148288 0.00595960 0.01483164 0.00188275 0.00322596 0.12455647 0.00423903 0.00697291 0.01692444 0.00136315 
0.05383443 0.03079831 0.01128764 0.00268427 0.00178399 0.00307973 0.01129060 0.00604389 0.01424596 0.00189531 0.00322391 0.12370725 0.00421068 0.00686269 0.01690578 0.00136247 
0.05478535 0.03161331 0.01099674 0.00273707 0.00178283 0.00308585 0.01111768 0.00613349 0.01372764 0.00191091 0.00322432 0.12290866 0.00418374 0.00676985 0.01688769 0.00136145 
0.05573988 0.03243427 0.01070331 0.00279239 0.00178117 0.00309272 0.01096479 0.00622812 0.01327831 0.00192955 0.00322721 0.12216265 0.00415827 0.00669516 0.01686992 0.00136011 
0.05669116 0.03325688 0.01040823 0.00285013 0.00177907 0.00310035 0.01083246 0.00632746 0.01289933 0.00195125 0.00323259 0.12147077 0.00413429 0.00663929 0.01685223 0.00135844 
0.05763225 0.03407704 0.01011235 0.00291014 0.00177662 0.00310874 0.01072111 0.00643115 0.01259174 0.00197600 0.00324044 0.12083423 0.00411183 0.00660284 0.01683431 0.00135646 
0.05855620 0.03489080 0.00981648 0.00297226 0.00177389 0.00311787 0.01063101 0.00653880 0.01235633 0.00200378 0.00325073 0.12025387 0.00409091 0.00658629 0.01681589 0.00135418 
0.05945612 0.03569442 0.00952145 0.00303631 0.00177096 0.00312773 0.01056230 0.00664998 0.01219358 0.00203452 0.00326342 0.11973017 0.00407153 0.00659006 0.01679666 0.00135161 
0.06032518 0.03648436 0.00922802 0.00310212 0.00176789 0.00313829 0.01051501 0.00676425 0.01210367 0.00206819 0.00327846 0.11926330 0.00405369 0.00661446 0.01677629 0.00134876 
0.06115671 0.03725734 0.00893694 0.00316948 0.00176478 0.00314949 0.01048902 0.00688111 0.01208651 0.00210471 0.00329576 0.11885305 0.00403737 0.00665969 0.01675448 0.00134565 
0.06194417 0.03801028 0.00864894 0.00323818 0.00176169 0.00316128 0.01048409 0.00700006 0.01214172 0.00214398 0.00331525 0.11849894 0.00402256 0.00672588 0.01673088 0.00134230 
0.06268126 0.03874037 0.00836470 0.00330800 0.00175871 0.00317362 0.01049987 0.00712059 0.01226865 0.00218589 0.00333683 0.11820017 0.00400921 0.00681304 0.01670518 0.00133872 
0.06336192 0.03944508 0.00808485 0.00337869 0.00175591 0.00318643 0.01053589 0.00724214 0.01246636 0.00223034 0.00336038 0.11795569 0.00399730 0.00692107 0.01667706 0.00133494 
0.06398040 0.04012209 0.00781002 0.00345003 0.00175336 0.00319962 0.01059157 0.00736415 0.01273364 0.00227719 0.00338580 0.11776418 0.00398679 0.00704980 0.01664620 0.00133097 
0.06453126 0.04076941 0.00754077 0.00352175 0.00175114 0.00321313 0.01066621 0.00748605 0.01306904 0.00232629 0.00341296 0.11762408 0.00397761 0.00719893 0.01661230 0.00132684 
0.06500943 0.04138527 0.00727765 0.00359361 0.00174932 0.00322685 0.01075905 0.00760727 0.01347084 0.00237747 0.00344172 0.11753365 0.00396972 0.00736807 0.01657507 0.00132257 
0.06541024 0.04196821 0.00702114 0.00366535 0.00174796 0.00324070 0.01086919 0.00772721 0.01393708 0.00243058 0.00347194 0.11749097 0.00396307 0.00755675 0.01653424 0.00131818 
0.06572946 0.04251701 0.00677170 0.00373670 0.00174713 0.00325457 0.01099567 0.00784530 0.01446555 0.00248544 0.00350347 0.11749395 0.00395758 0.00776438 0.01648955 0.00131370 
0.06596328 0.04303072 0.00652975 0.00380740 0.00174690 0.00326835 0.01113746 0.00796095 0.01505385 0.00254184 0.00353617 0.11754040 0.00395319 0.00799028 0.01644077 0.00130916 
0.06610842 0.04350866 0.00629567 0.00387719 0.00174732 0.00328195 0.01129345 0.00807359 0.01569934 0.00259959 0.00356988 0.11762801 0.00394983 0.00823370 0.01638771 0.00130457 
0.06616204 0.04395041 0.00606981 0.00394581 0.00174845 0.00329524 0.01146246 0.00818265 0.01639918 0.00265849 0.00360443 0.11775443 0.00394744 0.00849378 0.01633018 0.00129996 
0.06612188 0.04435576 0.00585246 0.00401301 0.00175033 0.00330812 0.01164328 0.00828757 0.01715036 0.00271831 0.00363968 0.11791724 0.00394594 0.00876959 0.01626804 0.00129536 
0.06598615 0.04472478 0.00564390 0.00407854 0.00175302 0.00332046 0.01183462 0.00838782 0.01794969 0.00277885 0.00367547 0.11811404 0.00394526 0.00906011 0.01620118 0.00129080 
0.06575366 0.04505772 0.00544436 0.00414215 0.00175656 0.00333217 0.01203519 0.00848289 0.01879380 0.00283988 0.00371163 0.11834243 0.00394533 0.00936426 0.01612951 0.00128629 
0.06542374 0.04535508 0.00525404 0.00420361 0.00176098 0.00334312 0.01224365 0.00857227 0.01967919 0.00290117 0.00374803 0.11860002 0.00394609 0.00968088 0.01605300 0.00128186 
0.06499629 0.04561754 0.00507312 0.00426270 0.00176632 0.00335321 0.01245865 0.00865551 0.02060223 0.00296250 0.00378449 0.11888453 0.00394746 0.01000875 0.01597163 0.00127753 
0.06447174 0.04584596 0.00490174 0.00431920 0.00177259 0.00336232 0.01267882 0.00873215 0.02155917 0.00302364 0.00382088 0.11919375 0.00394939 0.01034660 0.01588543 0.00127334 
0.06385111 0.04604137 0.00474001 0.00437291 0.00177983 0.00337035 0.01290280 0.00880181 0.02254615 0.00308435 0.00385706 0.11952555 0.00395180 0.01069308 0.01579448 0.00126929 
0.06313594 0.04620498 0.00458801 0.00442365 0.00178805 0.00337721 0.01312922 0.00886409 0.02355923 0.00314442 0.00389288 0.11987797 0.00395465 0.01104683 0.01569887 0.00126541 
0.06232833 0.04633811 0.00444581 0.00447125 0.00179725 0.00338279 0.01335673 0.00891867 0.02459440 0.00320362 0.00392822 0.12024915 0.00395787 0.01140642 0.01559875 0.00126172 
0.06143089 0.04644222 0.00431344 0.00451555 0.00180745 0.00338701 0.01358400 0.00896525 0.02564759 0.00326173 0.00396295 0.12063743 0.00396142 0.01177042 0.01549431 0.00125824 
0.06044673 0.04651886 0.00419093 0.00455640 0.00181863 0.00338978 0.01380974 0.00900357 0.02671469 0.00331855 0.00399696 0.12104128 0.00396526 0.01213735 0.01538575 0.00125498 
0.05937947 0.04656969 0.00407827 0.00459370 0.00183080 0.00339104 0.01403267 0.00903342 0.02779159 0.00337385 0.00403014 0.12145939 0.00396933 0.01250571 0.01527333 0.00125196 
0.05823319 0.04659644 0.00397543 0.00462733 0.00184393 0.00339071 0.01425157 0.00905462 0.02887413 0.00342745 0.00406240 0.12189062 0.00397361 0.01287402 0.01515733 0.00124920 
0.05701239 0.04660089 0.00388240 0.00465722 0.00185801 0.00338873 0.01446526 0.00906704 0.02995821 0.00347916 0.00409364 0.12233401 0.00397807 0.01324075 0.01503809 0.00124670 
0.05572202 0.04658488 0.00379910 0.00468330 0.00187301 0.00338505 0.01467263 0.00907060 0.03103971 0.00352879 0.00412379 0.12278884 0.00398268 0.01360442 0.01491594 0.00124447 
0.05436738 0.04655026 0.00372549 0.00470551 0.00188890 0.00337964 0.01487260 0.00906527 0.03211458 0.00357617 0.00415277 0.12325454 0.00398743 0.01396353 0.01479127 0.00124253 
0.05295414 0.04649890 0.00366148 0.00472385 0.00190565 0.00337246 0.01506418 0.00905105 0.03317880 0.00362115 0.00418052 0.12373078 0.00399230 0.01431663 0.01466448 0.00124088 
0.05148828 0.04643268 0.00360699 0.00473829 0.00192321 0.00336350 0.01524642 0.00902800 0.03422845 0.00366358 0.00420700 0.12421740 0.00399729 0.01466225 0.01453600 0.00123952 
0.04997607 0.04635345 0.00356191 0.00474886 0.00194153 0.00335274 0.01541848 0.00899621 0.03525968 0.00370332 0.00423216 0.12471442 0.00400240 0.01499901 0.01440628 0.00123847 
0.04842401 0.04626307 0.00352616 0.00475559 0.00196057 0.00334018 0.01557955 0.00895583 0.03626873 0.00374025 0.00425598 0.12522205 0.00400764 0.01532553 0.01427580 0.00123771 
0.04683879 0.04616331 0.00349960 0.00475852 0.00198027 0.00332584 0.01572893 0.00890705 0.03725197 0.00377428 0.00427843 0.12574067 0.00401301 0.01564050 0.01414504 0.00123725 
0.04522731 0.04605594 0.00348213 0.00475774 0.00200056 0.00330975 0.01586599 0.00885009 0.03820589 0.00380529 0.00429950 0.12627079 0.00401853 0.01594266 0.01401449 0.00123709 
0.04359654 0.04594264 0.00347361 0.00475332 0.00202139 0.00329192 0.01599018 0.00878524 0.03912712 0.00383323 0.00431920 0.12681307 0.00402422 0.01623080 0.01388467 0.00123721 
0.04195358 0.04582505 0.00347392 0.00474538 0.00204268 0.00327242 0.01610103 0.00871279 0.04001246 0.00385803 0.00433752 0.12736829 0.00403011 0.01650379 0.01375609 0.00123763 
0.04030552 0.04570471 0.00348291 0.00473403 0.00206435 0.00325130 0.01619816 0.00863312 0.04085884 0.00387964 0.00435449 0.12793734 0.00403623 0.01676059 0.01362927 0.00123831 
0.03865950 0.04558311 0.00350044 0.00471942 0.00208635 0.00322862 0.01628126 0.00854659 0.04166338 0.00389802 0.00437013 0.12852116 0.00404262 0.01700022 0.01350473 0.00123927 
0.03702257 0.04546164 0.00352635 0.00470170 0.00210858 0.00320445 0.01635013 0.00845364 0.04242341 0.00391317 0.00438446 0.12912079 0.00404930 0.01722177 0.01338299 0.00124048 
0.03540175 0.04534158 0.00356050 0.00468104 0.00213096 0.00317890 0.01640461 0.00835471 0.04313642 0.00392509 0.00439754 0.12973727 0.00405633 0.01742446 0.01326456 0.00124193 
0.03380389 0.04522415 0.00360271 0.00465761 0.00215342 0.00315205 0.01644465 0.00825029 0.04380012 0.00393379 0.00440940 0.13037169 0.00406373 0.01760758 0.01314995 0.00124361 
0.03223571 0.04511045 0.00365283 0.00463161 0.00217587 0.00312401 0.01647028 0.00814088 0.04441244 0.00393929 0.00442010 0.13102510 0.00407156 0.01777051 0.01303965 0.00124550 
0.03070372 0.04500148 0.00371066 0.00460323 0.00219822 0.00309490 0.01648159 0.00802703 0.04497151 0.00394166 0.00442969 0.13169855 0.00407986 0.01791276 0.01293415 0.00124759 
0.02921421 0.04489814 0.00377604 0.00457270 0.00222038 0.00306483 0.01647875 0.00790928 0.04547570 0.00394093 0.00443823 0.13239302 0.00408868 0.01803393 0.01283390 0.00124985 
0.02777320 0.04480125 0.00384877 0.00454022 0.00224228 0.00303394 0.01646200 0.00778821 0.04592361 0.00393720 0.00444580 0.13310940 0.00409806 0.01813371 0.01273936 0.00125227 
0.02638640 0.04471150 0.00392865 0.00450602 0.00226382 0.00300237 0.01643164 0.00766441 0.04631407 0.00393054 0.00445246 0.13384851 0.00410804 0.01821192 0.01265096 0.00125484 
0.02505920 0.04462949 0.00401548 0.00447033 0.00228491 0.00297026 0.01638806 0.00753847 0.04664615 0.00392105 0.00445828 0.13461102 0.00411866 0.01826849 0.01256910 0.00125752 
0.02379665 0.04455572 0.00410903 0.00443338 0.00230548 0.00293776 0.01633167 0.00741101 0.04691916 0.00390885 0.00446334 0.13539748 0.00412998 0.01830345 0.01249417 0.00126030 
0.02260340 0.04449060 0.00420909 0.00439541 0.00232543 0.00290502 0.01626297 0.00728264 0.04713266 0.00389405 0.00446771 0.13620826 0.00414201 0.01831695 0.01242652 0.00126316 
0.02148372 0.04443444 0.00431542 0.00435665 0.00234469 0.00287220 0.01618249 0.00715398 0.04728645 0.00387679 0.00447147 0.13704357 0.00415481 0.01830923 0.01236648 0.00126608 
0.02044142 0.04438745 0.00442777 0.00431733 0.00236317 0.00283945 0.01609080 0.00702566 0.04738057 0.00385721 0.00447469 0.13790340 0.00416839 0.01828067 0.01231436 0.00126903 
0.01947993 0.04434976 0.00454588 0.00427770 0.00238079 0.00280695 0.01598854 0.00689828 0.04741530 0.00383546 0.00447745 0.13878755 0.00418278 0.01823173 0.01227043 0.00127200 
0.01860217 0.04432142 0.00466949 0.00423798 0.00239748 0.00277485 0.01587637 0.00677246 0.04739117 0.00381170 0.00447983 0.13969558 0.00419800 0.01816299 0.01223494 0.00127497 
0.01781064 0.04430239 0.00479832 0.00419838 0.00241317 0.00274332 0.01575496 0.00664880 0.04730892 0.00378609 0.00448190 0.14062682 0.00421407 0.01807511 0.01220810 0.00127792 
0.01710735 0.04429255 0.00493207 0.00415914 0.00242779 0.00271252 0.01562505 0.00652789 0.04716955 0.00375881 0.00448372 0.14158036 0.00423098 0.01796888 0.01219010 0.00128082 
0.01649384 0.04429171 0.00507044 0.00412047 0.00244126 0.00268260 0.01548737 0.00641031 0.04697427 0.00373001 0.00448537 0.14255503 0.00424876 0.01784516 0.01218108 0.00128366 
0.01597116 0.04429960 0.00521311 0.00408257 0.00245353 0.00265373 0.01534267 0.00629661 0.04672451 0.00369990 0.00448691 0.14354940 0.00426737 0.01770489 0.01218118 0.00128642 
0.01553991 0.04431591 0.00535975 0.00404563 0.00246454 0.00262607 0.01519174 0.00618734 0.04642190 0.00366863 0.00448841 0.14456179 0.00428682 0.01754913 0.01219049 0.00128909 
0.01520018 0.04434023 0.00551002 0.00400984 0.00247423 0.00259975 0.01503533 0.00608301 0.04606829 0.00363641 0.00448991 0.14559026 0.00430709 0.01737898 0.01220907 0.00129164 
0.01495162 0.04437211 0.00566356 0.00397538 0.00248256 0.00257493 0.01487424 0.00598411 0.04566571 0.00360340 0.00449147 0.14663262 0.00432813 0.01719563 0.01223695 0.00129408 
0.01479342 0.04441104 0.00582002 0.00394241 0.00248948 0.00255173 0.01470924 0.00589111 0.04521639 0.00356979 0.00449314 0.14768641 0.00434992 0.01700034 0.01227414 0.00129637 
0.01472431 0.04445647 0.00597902 0.00391108 0.00249496 0.00253030 0.01454111 0.00580446 0.04472272 0.00353576 0.00449496 0.14874894 0.00437241 0.01679442 0.01232061 0.00129852 
0.01474261 0.04450777 0.00614017 0.00388152 0.00249894 0.00251076 0.01437060 0.00572455 0.04418723 0.00350149 0.00449696 0.14981728 0.00439554 0.01657923 0.01237631 0.00130052 
0.01484620 0.04456428 0.00630307 0.00385387 0.00250142 0.00249320 0.01419847 0.00565177 0.04361264 0.00346714 0.00449918 0.15088829 0.00441926 0.01635618 0.01244117 0.00130234 
0.01503258 0.04462529 0.00646731 0.00382822 0.00250236 0.00247775 0.01402544 0.00558646 0.04300178 0.00343290 0.00450165 0.15195859 0.00444350 0.01612671 0.01251508 0.00130400 
0.01529888 0.04469007 0.00663250 0.00380469 0.00250174 0.00246450 0.01385224 0.00552892 0.04235760 0.00339891 0.00450438 0.15302463 0.00446817 0.01589229 0.01259790 0.00130548 
0.01564187 0.04475780 0.00679821 0.00378335 0.00249955 0.00245351 0.01367953 0.00547943 0.04168317 0.00336535 0.00450738 0.15408268 0.00449320 0.01565441 0.01268950 0.00130679 
0.01605800 0.04482768 0.00696401 0.00376426 0.00249578 0.00244487 0.01350800 0.00543822 0.04098164 0.00333236 0.00451068 0.15512885 0.00451850 0.01541458 0.01278969 0.00130791 
0.01654341 0.04489884 0.00712947 0.00374748 0.00249043 0.00243864 0.01333826 0.00540549 0.04025624 0.00330007 0.00451425 0.15615911 0.00454396 0.01517431 0.01289827 0.00130886 
0.01709397 0.04497037 0.00729418 0.00373305 0.00248349 0.00243485 0.01317092 0.00538140 0.03951028 0.00326863 0.00451812 0.15716932 0.00456948 0.01493509 0.01301503 0.00130963 
0.01770532 0.04504134 0.00745768 0.00372099 0.00247499 0.00243354 0.01300655 0.00536605 0.03874710 0.00323817 0.00452226 0.15815525 0.00459496 0.01469841 0.01313974 0.00131023 
0.01837288 0.04511080 0.00761956 0.00371131 0.00246492 0.00243473 0.01284567 0.00535954 0.03797009 0.00320878 0.00452665 0.15911260 0.00462029 0.01446575 0.01327213 0.00131066 
0.01909188 0.04517776 0.00777938 0.00370400 0.00245330 0.00243842 0.01268879 0.00536189 0.03718262 0.00318058 0.00453129 0.16003703 0.00464533 0.01423854 0.01341195 0.00131094 
0.01985740 0.04524121 0.00793672 0.00369905 0.00244017 0.00244461 0.01253636 0.00537311 0.03638811 0.00315367 0.00453614 0.16092419 0.00466998 0.01401817 0.01355891 0.00131107 
0.02066442 0.04530009 0.00809117 0.00369642 0.00242554 0.00245327 0.01238881 0.00539314 0.03558994 0.00312812 0.00454118 0.16176974 0.00469411 0.01380602 0.01371270 0.00131105 
0.02150781 0.04535337 0.00824230 0.00369606 0.00240945 0.00246436 0.01224651 0.00542191 0.03479145 0.00310400 0.00454636 0.16256939 0.00471760 0.01360337 0.01387303 0.00131091 
0.02238238 0.04539995 0.00838972 0.00369792 0.00239194 0.00247783 0.01210982 0.00545929 0.03399597 0.00308139 0.00455165 0.16331889 0.00474032 0.01341147 0.01403955 0.00131066 
0.02328295 0.04543874 0.00853304 0.00370193 0.00237304 0.00249362 0.01197902 0.00550511 0.03320674 0.00306032 0.00455700 0.16401413 0.00476215 0.01323150 0.01421195 0.00131031 
0.02420431 0.04546864 0.00867189 0.00370801 0.00235281 0.00251164 0.01185440 0.00555918 0.03242694 0.00304083 0.00456237 0.16465109 0.00478296 0.01306457 0.01438987 0.00130987 
0.02514130 0.04548853 0.00880590 0.00371606 0.00233130 0.00253181 0.01173616 0.00562125 0.03165966 0.00302294 0.00456771 0.16522590 0.00480264 0.01291168 0.01457297 0.00130937 
0.02608883 0.04549730 0.00893473 0.00372599 0.00230855 0.00255402 0.01162452 0.00569105 0.03090789 0.00300667 0.00457295 0.16573489 0.00482107 0.01277378 0.01476089 0.00130881 
0.02704190 0.04549382 0.00905806 0.00373768 0.00228462 0.00257814 0.01151961 0.00576826 0.03017452 0.00299202 0.00457804 0.16617459 0.00483814 0.01265173 0.01495326 0.00130822 
0.02799563 0.04547698 0.00917559 0.00375102 0.00225959 0.00260406 0.01142156 0.00585253 0.02946228 0.00297898 0.00458291 0.16654173 0.00485374 0.01254627 0.01514971 0.00130762 
0.02894528 0.04544567 0.00928704 0.00376589 0.00223351 0.00263161 0.01133045 0.00594349 0.02877380 0.00296753 0.00458752 0.16683332 0.00486777 0.01245806 0.01534988 0.00130702 
0.02988630 0.04539881 0.00939216 0.00378214 0.00220645 0.00266066 0.01124633 0.00604071 0.02811155 0.00295762 0.00459177 0.16704665 0.00488015 0.01238765 0.01555338 0.00130644 
0.03081432 0.04533533 0.00949071 0.00379965 0.00217849 0.00269104 0.01116922 0.00614375 0.02747783 0.00294923 0.00459562 0.16717929 0.00489078 0.01233550 0.01575984 0.00130590 
0.03172519 0.04525419 0.00958250 0.00381827 0.00214970 0.00272257 0.01109910 0.00625214 0.02687479 0.00294229 0.00459899 0.16722914 0.00489960 0.01230194 0.01596888 0.00130541 
0.03261499 0.04515440 0.00966736 0.00383786 0.00212015 0.00275507 0.01103595 0.00636538 0.02630440 0.00293674 0.00460182 0.16719443 0.00490654 0.01228721 0.01618011 0.00130500 
0.03348005 0.04503501 0.00974514 0.00385828 0.00208993 0.00278835 0.01097969 0.00648294 0.02576844 0.00293251 0.00460402 0.16707375 0.00491155 0.01229142 0.01639316 0.00130469 
0.03431696 0.04489510 0.00981573 0.00387936 0.00205911 0.00282221 0.01093024 0.00660428 0.02526850 0.00292951 0.00460553 0.16686607 0.00491461 0.01231460 0.01660766 0.00130448 
0.03512260 0.04473385 0.00987907 0.00390097 0.00202779 0.00285646 0.01088749 0.00672882 0.02480600 0.00292766 0.00460627 0.16657073 0.00491567 0.01235664 0.01682323 0.00130439 
0.03589413 0.04455049 0.00993509 0.00392294 0.00199605 0.00289089 0.01085130 0.00685599 0.02438213 0.00292686 0.00460618 0.16618746 0.00491474 0.01241734 0.01703949 0.00130445 
0.03662901 0.04434434 0.00998380 0.00394514 0.00196397 0.00292528 0.01082153 0.00698516 0.02399790 0.00292699 0.00460519 0.16571642 0.00491181 0.01249639 0.01725609 0.00130465 
0.03732501 0.04411479 0.01002522 0.00396741 0.00193164 0.00295942 0.01079801 0.00711574 0.02365409 0.00292796 0.00460323 0.16515816 0.00490691 0.01259336 0.01747267 0.00130502 
0.03798018 0.04386136 0.01005940 0.00398960 0.00189915 0.00299310 0.01078056 0.00724708 0.02335131 0.00292964 0.00460022 0.16451366 0.00490006 0.01270774 0.01768887 0.00130557 
0.03859291 0.04358366 0.01008643 0.00401158 0.00186660 0.00302611 0.01076899 0.00737855 0.02308994 0.00293192 0.00459610 0.16378431 0.00489133 0.01283890 0.01790435 0.00130630 
0.03916187 0.04328142 0.01010645 0.00403320 0.00183406 0.00305823 0.01076309 0.00750951 0.02287014 0.00293467 0.00459081 0.16297194 0.00488077 0.01298613 0.01811877 0.00130722 
0.03968606 0.04295451 0.01011960 0.00405433 0.00180164 0.00308926 0.01076266 0.00763930 0.02269189 0.00293776 0.00458428 0.16207878 0.00486847 0.01314862 0.01833180 0.00130833 
0.04016477 0.04260294 0.01012608 0.00407485 0.00176942 0.00311899 0.01076747 0.00776728 0.02255496 0.00294107 0.00457646 0.16110751 0.00485453 0.01332548 0.01854313 0.00130965 
0.04059756 0.04222686 0.01012611 0.00409463 0.00173750 0.00314721 0.01077730 0.00789281 0.02245892 0.00294446 0.00456728 0.16006118 0.00483906 0.01351574 0.01875246 0.00131116 
0.04098431 0.04182658 0.01011995 0.00411354 0.00170597 0.00317374 0.01079192 0.00801523 0.02240314 0.00294780 0.00455670 0.15894328 0.00482219 0.01371835 0.01895948 0.00131288 
0.04132515 0.04140258 0.01010788 0.00413150 0.00167491 0.00319838 0.01081109 0.00813392 0.02238680 0.00295097 0.00454467 0.15775766 0.00480406 0.01393220 0.01916392 0.00131480 
0.04162048 0.04095551 0.01009021 0.00414839 0.00164441 0.00322095 0.01083459 0.00824824 0.02240890 0.00295384 0.00453113 0.15650858 0.00478485 0.01415611 0.01936551 0.00131691 
0.04187094 0.04048620 0.01006729 0.00416411 0.00161457 0.00324130 0.01086219 0.00835759 0.02246827 0.00295628 0.00451605 0.15520064 0.00476470 0.01438886 0.01956399 0.00131921 
0.04207741 0.03999568 0.01003947 0.00417860 0.00158547 0.00325925 0.01089364 0.00846137 0.02256356 0.00295816 0.00449939 0.15383880 0.00474383 0.01462917 0.01975914 0.00132168 
0.04224097 0.03948516 0.01000715 0.00419176 0.00155719 0.00327467 0.01092873 0.00855899 0.02269326 0.00295938 0.00448112 0.15242834 0.00472242 0.01487573 0.01995073 0.00132433 
0.04236291 0.03895604 0.00997072 0.00420355 0.00152983 0.00328741 0.01096722 0.00864991 0.02285571 0.00295982 0.00446121 0.15097486 0.00470068 0.01512719 0.02013855 0.00132713 
0.04244469 0.03840995 0.00993063 0.00421388 0.00150345 0.00329737 0.01100890 0.00873359 0.02304911 0.00295936 0.00443963 0.14948422 0.00467883 0.01538219 0.02032241 0.00133007 
0.04248792 0.03784868 0.00988729 0.00422274 0.00147815 0.00330443 0.01105355 0.00880951 0.02327153 0.00295792 0.00441638 0.14796255 0.00465710 0.01563935 0.02050214 0.00133313 
0.04249437 0.03727426 0.00984118 0.00423006 0.00145401 0.00330851 0.01110094 0.00887721 0.02352091 0.00295539 0.00439145 0.14641621 0.00463572 0.01589727 0.02067760 0.00133629 
0.04246588 0.03668890 0.00979276 0.00423584 0.00143109 0.00330953 0.01115089 0.00893622 0.02379510 0.00295170 0.00436482 0.14485176 0.00461495 0.01615458 0.02084863 0.00133954 
0.04240443 0.03609501 0.00974249 0.00424004 0.00140947 0.00330744 0.01120318 0.00898614 0.02409183 0.00294677 0.00433651 0.14327592 0.00459501 0.01640990 0.02101513 0.00134285 
0.04231205 0.03549522 0.00969086 0.00424267 0.00138923 0.00330220 0.01125762 0.00902659 0.02440877 0.00294052 0.00430651 0.14169557 0.00457616 0.01666187 0.02117700 0.00134620 
0.04219082 0.03489232 0.00963834 0.00424373 0.00137043 0.00329379 0.01131403 0.00905723 0.02474350 0.00293292 0.00427486 0.14011766 0.00455866 0.01690917 0.02133414 0.00134956 
0.04204283 0.03428929 0.00958541 0.00424323 0.00135314 0.00328220 0.01137222 0.00907774 0.02509355 0.00292390 0.00424157 0.13854923 0.00454274 0.01715049 0.02148651 0.00135290 
0.04187022 0.03368929 0.00953254 0.00424119 0.00133741 0.00326745 0.01143202 0.00908788 0.02545640 0.00291344 0.00420668 0.13699736 0.00452865 0.01738458 0.02163405 0.00135620 
0.04167509 0.03309565 0.00948020 0.00423764 0.00132332 0.00324959 0.01149326 0.00908743 0.02582949 0.00290151 0.00417022 0.13546912 0.00451664 0.01761024 0.02177673 0.00135944 
0.04145949 0.03251185 0.00942884 0.00423263 0.00131091 0.00322865 0.01155579 0.00907621 0.02621027 0.00288811 0.00413224 0.13397154 0.00450693 0.01782631 0.02191455 0.00136257 
0.04122544 0.03194150 0.00937889 0.00422620 0.00130024 0.00320473 0.01161944 0.00905410 0.02659617 0.00287323 0.00409280 0.13251156 0.00449976 0.01803171 0.02204750 0.00136557 
0.04097489 0.03138833 0.00933078 0.00421841 0.00129135 0.00317790 0.01168407 0.00902102 0.02698461 0.00285689 0.00405195 0.13109604 0.00449535 0.01822542 0.02217561 0.00136840 
0.04070969 0.03085619 0.00928492 0.00420933 0.00128430 0.00314828 0.01174954 0.00897695 0.02737305 0.00283912 0.00400977 0.12973166 0.00449390 0.01840649 0.02229892 0.00137105 
0.04043159 0.03034902 0.00924168 0.00419902 0.00127912 0.00311600 0.01181572 0.00892190 0.02775900 0.00281996 0.00396635 0.12842491 0.00449560 0.01857405 0.02241746 0.00137348 
0.04014224 0.02987082 0.00920142 0.00418757 0.00127586 0.00308121 0.01188248 0.00885596 0.02813999 0.00279945 0.00392175 0.12718207 0.00450063 0.01872732 0.02253131 0.00137565 
0.03984313 0.02942563 0.00916446 0.00417506 0.00127453 0.00304406 0.01194968 0.00877923 0.02851363 0.00277767 0.00387609 0.12600916 0.00450915 0.01886560 0.02264053 0.00137754 
0.03953563 0.02901753 0.00913110 0.00416158 0.00127518 0.00300474 0.01201723 0.00869191 0.02887760 0.00275469 0.00382946 0.12491188 0.00452131 0.01898830 0.02274521 0.00137912 
0.03922095 0.02865059 0.00910160 0.00414722 0.00127783 0.00296345 0.01208500 0.00859421 0.02922966 0.00273061 0.00378198 0.12389562 0.00453724 0.01909489 0.02284545 0.00138037 
0.03890015 0.02832888 0.00907619 0.00413209 0.00128249 0.00292040 0.01215289 0.00848642 0.02956768 0.00270552 0.00373376 0.12296539 0.00455702 0.01918497 0.02294134 0.00138124 
0.03857413 0.02805640 0.00905507 0.00411627 0.00128918 0.00287580 0.01222079 0.00836887 0.02988964 0.00267954 0.00368493 0.12212581 0.00458075 0.01925822 0.02303299 0.00138172 
0.03824362 0.02783707 0.00903839 0.00409988 0.00129791 0.00282991 0.01228862 0.00824193 0.03019361 0.00265279 0.00363562 0.12138108 0.00460849 0.01931443 0.02312051 0.00138179 
0.03790916 0.02767474 0.00902626 0.00408302 0.00130869 0.00278297 0.01235627 0.00810605 0.03047784 0.00262542 0.00358598 0.12073494 0.00464027 0.01935347 0.02320402 0.00138142 
0.03757117 0.02757310 0.00901876 0.00406579 0.00132152 0.00273523 0.01242366 0.00796170 0.03074067 0.00259756 0.00353614 0.12019064 0.00467610 0.01937534 0.02328365 0.00138059 
0.03722986 0.02753571 0.00901592 0.00404830 0.00133639 0.00268698 0.01249071 0.00780942 0.03098063 0.00256936 0.00348627 0.11975094 0.00471598 0.01938011 0.02335950 0.00137928 
0.03688530 0.02756594 0.00901774 0.00403065 0.00135329 0.00263848 0.01255734 0.00764978 0.03119639 0.00254101 0.00343653 0.11941809 0.00475985 0.01936797 0.02343169 0.00137748 
0.03653740 0.02766695 0.00902417 0.00401295 0.00137221 0.00259002 0.01262348 0.00748342 0.03138677 0.00251266 0.00338708 0.11919377 0.00480766 0.01933919 0.02350035 0.00137516 
0.03618593 0.02784167 0.00903512 0.00399528 0.00139311 0.00254189 0.01268904 0.00731099 0.03155079 0.00248449 0.00333808 0.11907913 0.00485932 0.01929414 0.02356558 0.00137233 
0.03583049 0.02809275 0.00905047 0.00397776 0.00141598 0.00249439 0.01275398 0.00713322 0.03168763 0.00245668 0.00328972 0.11907473 0.00491471 0.01923328 0.02362750 0.00136897 
0.03547060 0.02842259 0.00907004 0.00396046 0.00144078 0.00244779 0.01281823 0.00695085 0.03179666 0.00242944 0.00324218 0.11918058 0.00497370 0.01915716 0.02368619 0.00136508 
0.03510564 0.02883326 0.00909362 0.00394348 0.00146748 0.00240241 0.01288173 0.00676467 0.03187744 0.00240294 0.00319563 0.11939609 0.00503611 0.01906641 0.02374177 0.00136065 
0.03473488 0.02932649 0.00912098 0.00392689 0.00149601 0.00235853 0.01294443 0.00657550 0.03192970 0.00237739 0.00315025 0.11972010 0.00510177 0.01896172 0.02379431 0.00135568 
0.03435752 0.02990367 0.00915184 0.00391076 0.00152634 0.00231645 0.01300629 0.00638421 0.03195340 0.00235297 0.00310625 0.12015086 0.00517046 0.01884389 0.02384388 0.00135018 
0.03397268 0.03056582 0.00918588 0.00389517 0.00155841 0.00227644 0.01306726 0.00619169 0.03194866 0.00232990 0.00306380 0.12068605 0.00524195 0.01871375 0.02389057 0.00134415 
0.03357945 0.03131355 0.00922277 0.00388017 0.00159214 0.00223879 0.01312730 0.00599883 0.03191582 0.00230837 0.00302309 0.12132279 0.00531599 0.01857222 0.02393441 0.00133760 
0.03317687 0.03214708 0.00926214 0.00386582 0.00162747 0.00220376 0.01318639 0.00580659 0.03185540 0.00228857 0.00298432 0.12205763 0.00539230 0.01842025 0.02397546 0.00133055 
0.03276396 0.03306621 0.00930360 0.00385214 0.00166432 0.00217163 0.01324450 0.00561592 0.03176814 0.00227069 0.00294765 0.12288660 0.00547060 0.01825886 0.02401375 0.00132300 
0.03233975 0.03407030 0.00934674 0.00383918 0.00170260 0.00214264 0.01330160 0.00542780 0.03165496 0.00225492 0.00291330 0.12380521 0.00555058 0.01808910 0.02404929 0.00131498 
0.03190332 0.03515826 0.00939114 0.00382695 0.00174223 0.00211703 0.01335768 0.00524320 0.03151696 0.00224146 0.00288142 0.12480846 0.00563192 0.01791207 0.02408211 0.00130651 
0.03145376 0.03632858 0.00943635 0.00381548 0.00178310 0.00209503 0.01341273 0.00506313 0.03135545 0.00223046 0.00285221 0.12589091 0.00571430 0.01772887 0.02411219 0.00129762 
0.03099025 0.03757928 0.00948192 0.00380475 0.00182512 0.00207685 0.01346674 0.00488858 0.03117191 0.00222211 0.00282583 0.12704667 0.00579736 0.01754066 0.02413953 0.00128832 
0.03051205 0.03890792 0.00952740 0.00379478 0.00186817 0.00206267 0.01351971 0.00472055 0.03096802 0.00221657 0.00280246 0.12826943 0.00588077 0.01734858 0.02416410 0.00127866 
0.03001852 0.04031162 0.00957233 0.00378552 0.00191213 0.00205269 0.01357165 0.00456004 0.03074561 0.00221397 0.00278225 0.12955253 0.00596416 0.01715379 0.02418586 0.00126865 
0.02950914 0.04178707 0.00961627 0.00377697 0.00195689 0.00204705 0.01362257 0.00440804 0.03050669 0.00221447 0.00276536 0.13088898 0.00604718 0.01695746 0.02420479 0.00125835 
0.02898356 0.04333050 0.00965878 0.00376908 0.00200231 0.00204588 0.01367248 0.00426553 0.03025343 0.00221820 0.00275195 0.13227150 0.00612947 0.01676074 0.02422082 0.00124778 
0.02844156 0.04493772 0.00969942 0.00376181 0.00204827 0.00204932 0.01372140 0.00413347 0.02998815 0.00222526 0.00274214 0.13369256 0.00621067 0.01656476 0.02423390 0.00123699 
0.02788311 0.04660414 0.00973780 0.00375510 0.00209462 0.00205746 0.01376936 0.00401279 0.02971331 0.00223576 0.00273606 0.13514443 0.00629042 0.01637064 0.02424398 0.00122601 
0.02730837 0.04832475 0.00977351 0.00374888 0.00214122 0.00207037 0.01381639 0.00390441 0.02943150 0.00224980 0.00273384 0.13661923 0.00636837 0.01617948 0.02425098 0.00121488 
0.02671771 0.05009419 0.00980620 0.00374308 0.00218792 0.00208809 0.01386251 0.00380922 0.02914544 0.00226743 0.00273558 0.13810897 0.00644418 0.01599233 0.02425485 0.00120366 
0.02611170 0.05190674 0.00983553 0.00373761 0.00223456 0.00211067 0.01390777 0.00372806 0.02885797 0.00228872 0.00274137 0.13960562 0.00651752 0.01581020 0.02425551 0.00119239 
0.02549116 0.05375633 0.00986122 0.00373240 0.00228100 0.00213811 0.01395220 0.00366176 0.02857201 0.00231372 0.00275131 0.14110114 0.00658807 0.01563407 0.02425291 0.00118111 
0.02485714 0.05563662 0.00988300 0.00372734 0.00232708 0.00217038 0.01399584 0.00361107 0.02829058 0.00234244 0.00276545 0.14258753 0.00665552 0.01546485 0.02424699 0.00116988 
0.02421091 0.05754099 0.00990067 0.00372233 0.00237262 0.00220745 0.01403875 0.00357673 0.02801676 0.00237489 0.00278385 0.14405689 0.00671958 0.01530340 0.02423769 0.00115873 
0.02355403 0.05946257 0.00991405 0.00371727 0.00241747 0.00224925 0.01408096 0.00355940 0.02775371 0.00241106 0.00280655 0.14550146 0.00677997 0.01515053 0.02422496 0.00114772 
0.02288827 0.06139429 0.00992302 0.00371204 0.00246146 0.00229570 0.01412253 0.00355971 0.02750463 0.00245094 0.00283359 0.14691371 0.00683646 0.01500696 0.02420879 0.00113689 
0.02221568 0.06332892 0.00992751 0.00370653 0.00250443 0.00234668 0.01416349 0.00357822 0.02727275 0.00249447 0.00286497 0.14828631 0.00688879 0.01487337 0.02418913 0.00112629 
0.02153853 0.06525911 0.00992752 0.00370062 0.00254620 0.00240206 0.01420389 0.00361542 0.02706132 0.00254159 0.00290068 0.14961226 0.00693678 0.01475034 0.02416599 0.00111598 
0.02085938 0.06717741 0.00992307 0.00369420 0.00258662 0.00246169 0.01424379 0.00367175 0.02687357 0.00259222 0.00294071 0.15088488 0.00698023 0.01463840 0.02413937 0.00110598 
0.02018098 0.06907630 0.00991428 0.00368714 0.00262551 0.00252539 0.01428323 0.00374757 0.02671276 0.00264627 0.00298503 0.15209788 0.00701898 0.01453797 0.02410930 0.00109635 
0.01950634 0.07094828 0.00990129 0.00367933 0.00266272 0.00259296 0.01432224 0.00384317 0.02658207 0.00270363 0.00303356 0.15324540 0.00705289 0.01444943 0.02407582 0.00108713 
0.01883868 0.07278588 0.00988432 0.00367066 0.00269808 0.00266420 0.01436086 0.00395878 0.02648467 0.00276417 0.00308626 0.15432202 0.00708187 0.01437303 0.02403901 0.00107836 
0.01818143 0.07458170 0.00986364 0.00366101 0.00273144 0.00273886 0.01439914 0.00409453 0.02642366 0.00282773 0.00314302 0.15532284 0.00710583 0.01430899 0.02399896 0.00107008 
0.01753821 0.07632845 0.00983959 0.00365026 0.00276265 0.00281671 0.01443711 0.00425049 0.02640204 0.00289417 0.00320376 0.15624347 0.00712473 0.01425740 0.02395577 0.00106233 
0.01691281 0.07801902 0.00981255 0.00363833 0.00279156 0.00289746 0.01447478 0.00442665 0.02642273 0.00296331 0.00326834 0.15708010 0.00713852 0.01421831 0.02390960 0.00105514 
0.01630920 0.07964647 0.00978297 0.00362510 0.00281803 0.00298085 0.01451220 0.00462290 0.02648853 0.00303495 0.00333665 0.15782948 0.00714723 0.01419165 0.02386061 0.00104854 
0.01573144 0.08120415 0.00975135 0.00361050 0.00284194 0.00306658 0.01454937 0.00483905 0.02660211 0.00310890 0.00340852 0.15848897 0.00715087 0.01417729 0.02380899 0.00104257 
0.01518375 0.08268564 0.00971823 0.00359442 0.00286315 0.00315434 0.01458630 0.00507485 0.02676600 0.00318495 0.00348380 0.15905654 0.00714951 0.01417502 0.02375496 0.00103724 
0.01467039 0.08408487 0.00968422 0.00357681 0.00288154 0.00324382 0.01462302 0.00532993 0.02698255 0.00326286 0.00356230 0.15953081 0.00714322 0.01418455 0.02369879 0.00103259 
0.01419573 0.08539612 0.00964994 0.00355760 0.00289703 0.00333470 0.01465950 0.00560387 0.02725393 0.00334241 0.00364383 0.15991101 0.00713213 0.01420551 0.02364074 0.00102862 
0.01376413 0.08661404 0.00961609 0.00353673 0.00290950 0.00342664 0.01469576 0.00589613 0.02758212 0.00342335 0.00372818 0.16019703 0.00711635 0.01423747 0.02358112 0.00102537 
0.01337997 0.08773373 0.00958338 0.00351416 0.00291888 0.00351931 0.01473178 0.00620612 0.02796890 0.00350542 0.00381514 0.16038939 0.00709606 0.01427992 0.02352025 0.00102283 
0.01304761 0.08875073 0.00955255 0.00348986 0.00292509 0.00361236 0.01476755 0.00653313 0.02841579 0.00358837 0.00390447 0.16048923 0.00707141 0.01433229 0.02345851 0.00102102 
0.01277136 0.08966104 0.00952439 0.00346380 0.00292807 0.00370545 0.01480305 0.00687639 0.02892408 0.00367193 0.00399593 0.16049832 0.00704263 0.01439395 0.02339627 0.00101995 
0.01255542 0.09046119 0.00949969 0.00343600 0.00292779 0.00379824 0.01483825 0.00723505 0.02949481 0.00375583 0.00408926 0.16041905 0.00700991 0.01446421 0.02333394 0.00101962 
0.01240388 0.09114820 0.00947925 0.00340645 0.00292420 0.00389039 0.01487312 0.00760818 0.03012875 0.00383979 0.00418420 0.16025436 0.00697349 0.01454234 0.02327194 0.00102002 
0.01232070 0.09171966 0.00946390 0.00337518 0.00291728 0.00398154 0.01490762 0.00799477 0.03082638 0.00392355 0.00428047 0.16000777 0.00693363 0.01462754 0.02321072 0.00102115 
0.01230964 0.09217370 0.00945445 0.00334222 0.00290705 0.00407137 0.01494173 0.00839374 0.03158787 0.00400682 0.00437780 0.15968333 0.00689059 0.01471900 0.02315074 0.00102300 
0.01237423 0.09250901 0.00945172 0.00330763 0.00289350 0.00415954 0.01497539 0.00880393 0.03241313 0.00408932 0.00447590 0.15928560 0.00684464 0.01481584 0.02309249 0.00102556 
0.01251778 0.09272487 0.00945652 0.00327147 0.00287667 0.00424572 0.01500857 0.00922413 0.03330170 0.00417079 0.00457448 0.15881958 0.00679605 0.01491718 0.02303644 0.00102881 
0.01274332 0.09282112 0.00946962 0.00323382 0.00285660 0.00432959 0.01504123 0.00965305 0.03425285 0.00425094 0.00467324 0.15829071 0.00674513 0.01502210 0.02298311 0.00103274 
0.01305357 0.09279820 0.00949179 0.00319477 0.00283335 0.00441085 0.01507332 0.01008937 0.03526547 0.00432951 0.00477187 0.15770481 0.00669215 0.01512966 0.02293298 0.00103732 
0.01345091 0.09265710 0.00952377 0.00315444 0.00280700 0.00448919 0.01510479 0.01053168 0.03633817 0.00440623 0.00487008 0.15706803 0.00663743 0.01523891 0.02288658 0.00104252 
0.01393738 0.09239940 0.00956624 0.00311294 0.00277764 0.00456433 0.01513562 0.01097855 0.03746918 0.00448085 0.00496757 0.15638683 0.00658125 0.01534889 0.02284441 0.00104833 
0.01451460 0.09202722 0.00961986 0.00307041 0.00274539 0.00463599 0.01516576 0.01142850 0.03865640 0.00455310 0.00506402 0.15566788 0.00652390 0.01545865 0.02280695 0.00105470 
0.01518381 0.09154326 0.00968523 0.00302700 0.00271036 0.00470391 0.01519518 0.01188001 0.03989741 0.00462276 0.00515914 0.15491808 0.00646569 0.01556724 0.02277472 0.00106160 
0.01594582 0.09095071 0.00976289 0.00298286 0.00267269 0.00476784 0.01522384 0.01233153 0.04118944 0.00468957 0.00525264 0.15414443 0.00640688 0.01567370 0.02274819 0.00106901 
0.01680096 0.09025331 0.00985332 0.00293817 0.00263255 0.00482755 0.01525174 0.01278148 0.04252936 0.00475331 0.00534420 0.15335403 0.00634776 0.01577712 0.02272782 0.00107687 
0.01774912 0.08945527 0.00995695 0.00289311 0.00259010 0.00488283 0.01527884 0.01322828 0.04391376 0.00481378 0.00543355 0.15255402 0.00628859 0.01587657 0.02271406 0.00108515 
0.01878969 0.08856127 0.01007411 0.00284787 0.00254552 0.00493347 0.01530515 0.01367032 0.04533887 0.00487077 0.00552039 0.15175151 0.00622963 0.01597119 0.02270732 0.00109382 
0.01992158 0.08757643 0.01020509 0.00280265 0.00249902 0.00497929 0.01533065 0.01410600 0.04680062 0.00492407 0.00560445 0.15095352 0.00617111 0.01606013 0.02270801 0.00110282 
0.02114318 0.08650628 0.01035006 0.00275767 0.00245081 0.00502013 0.01535537 0.01453369 0.04829463 0.00497353 0.00568547 0.15016697 0.00611326 0.01614256 0.02271649 0.00111211 
0.02245238 0.08535673 0.01050915 0.00271312 0.00240110 0.00505585 0.01537933 0.01495182 0.04981625 0.00501897 0.00576317 0.14939859 0.00605628 0.01621773 0.02273307 0.00112165 
0.02384656 0.08413404 0.01068238 0.00266925 0.00235014 0.00508631 0.01540254 0.01535880 0.05136053 0.00506024 0.00583732 0.14865487 0.00600038 0.01628489 0.02275806 0.00113140 
0.02532257 0.08284478 0.01086968 0.00262626 0.00229816 0.00511141 0.01542505 0.01575307 0.05292229 0.00509721 0.00590768 0.14794205 0.00594572 0.01634339 0.02279171 0.00114131 
0.02687678 0.08149579 0.01107090 0.00258440 0.00224542 0.00513105 0.01544693 0.01613310 0.05449611 0.00512975 0.00597402 0.14726604 0.00589246 0.01639259 0.02283422 0.00115133 
0.02850502 0.08009414 0.01128582 0.00254388 0.00219218 0.00514518 0.01546822 0.01649741 0.05607634 0.00515777 0.00603613 0.14663238 0.00584072 0.01643192 0.02288575 0.00116142 
0.03020264 0.07864713 0.01151408 0.00250495 0.00213870 0.00515373 0.01548901 0.01684456 0.05765715 0.00518117 0.00609381 0.14604622 0.00579063 0.01646088 0.02294641 0.00117153 
0.03196453 0.07716220 0.01175529 0.00246783 0.00208526 0.00515667 0.01550939 0.01717316 0.05923255 0.00519988 0.00614689 0.14551228 0.00574227 0.01647902 0.02301626 0.00118163 
0.03378508 0.07564692 0.01200893 0.00243275 0.00203213 0.00515399 0.01552946 0.01748188 0.06079640 0.00521384 0.00619519 0.14503480 0.00569572 0.01648595 0.02309532 0.00119166 
0.03565826 0.07410894 0.01227441 0.00239994 0.00197959 0.00514570 0.01554932 0.01776945 0.06234246 0.00522302 0.00623858 0.14461753 0.00565103 0.01648137 0.02318353 0.00120159 
0.03757759 0.07255596 0.01255105 0.00236963 0.00192791 0.00513182 0.01556911 0.01803468 0.06386440 0.00522740 0.00627692 0.14426372 0.00560822 0.01646503 0.02328079 0.00121137 
