0.02236623 0.00292463 0.00099170 0.00299359 0.00073314 0.00314036 0.00106447 0.00167400 0.00531636 0.00422112 0.00090887 0.00134603 0.00207561 0.00130903 0.00217069 0.00159596 
0.02204306 0.00293456 0.00099870 0.00287604 0.00072052 0.00313506 0.00107205 0.00163039 0.00523485 0.00419293 0.00091573 0.00134700 0.00208206 0.00132807 0.00216902 0.00158468 
0.02171625 0.00294516 0.00100627 0.00276041 0.00070880 0.00313256 0.00108295 0.00158987 0.00515822 0.00416873 0.00092257 0.00134796 0.00208876 0.00135007 0.00216736 0.00157288 
0.02138828 0.00295628 0.00101447 0.00264701 0.00069799 0.00313229 0.00109716 0.00155253 0.00508669 0.00414807 0.00092931 0.00134889 0.00209561 0.00137487 0.00216568 0.00156063 
0.02106157 0.00296776 0.00102340 0.00253619 0.00068809 0.00313370 0.00111471 0.00151847 0.00502042 0.00413052 0.00093587 0.00134979 0.00210253 0.00140229 0.00216395 0.00154800 
0.02073854 0.00297944 0.00103314 0.00242825 0.00067912 0.00313625 0.00113557 0.00148772 0.00495958 0.00411561 0.00094219 0.00135064 0.00210942 0.00143214 0.00216212 0.00153506 
0.02042151 0.00299118 0.00104376 0.00232350 0.00067107 0.00313938 0.00115973 0.00146033 0.00490429 0.00410287 0.00094817 0.00135144 0.00211619 0.00146422 0.00216018 0.00152188 
0.02011275 0.00300282 0.00105536 0.00222220 0.00066394 0.00314259 0.00118713 0.00143631 0.00485467 0.00409185 0.00095376 0.00135215 0.00212278 0.00149832 0.00215808 0.00150854 
0.01981442 0.00301422 0.00106800 0.00212463 0.00065774 0.00314537 0.00121772 0.00141567 0.00481080 0.00408207 0.00095889 0.00135278 0.00212908 0.00153421 0.00215579 0.00149510 
0.01952857 0.00302523 0.00108178 0.00203103 0.00065247 0.00314726 0.00125142 0.00139839 0.00477275 0.00407309 0.00096348 0.00135329 0.00213503 0.00157167 0.00215328 0.00148162 
0.01925712 0.00303570 0.00109675 0.00194161 0.00064811 0.00314780 0.00128814 0.00138443 0.00474057 0.00406446 0.00096748 0.00135368 0.00214056 0.00161046 0.00215052 0.00146819 
0.01900183 0.00304549 0.00111299 0.00185658 0.00064466 0.00314657 0.00132777 0.00137373 0.00471430 0.00405574 0.00097083 0.00135392 0.00214559 0.00165034 0.00214749 0.00145485 
0.01876434 0.00305448 0.00113058 0.00177612 0.00064211 0.00314320 0.00137020 0.00136623 0.00469396 0.00404651 0.00097348 0.00135401 0.00215006 0.00169107 0.00214416 0.00144168 
0.01854607 0.00306254 0.00114956 0.00170038 0.00064044 0.00313733 0.00141529 0.00136184 0.00467956 0.00403637 0.00097538 0.00135392 0.00215392 0.00173242 0.00214052 0.00142874 
0.01834830 0.00306955 0.00117000 0.00162951 0.00063966 0.00312865 0.00146289 0.00136045 0.00467109 0.00402494 0.00097648 0.00135363 0.00215711 0.00177414 0.00213655 0.00141607 
0.01817209 0.00307538 0.00119196 0.00156360 0.00063972 0.00311689 0.00151284 0.00136195 0.00466856 0.00401184 0.00097676 0.00135313 0.00215958 0.00181598 0.00213223 0.00140373 
0.01801830 0.00307993 0.00121548 0.00150276 0.00064063 0.00310181 0.00156495 0.00136620 0.00467193 0.00399674 0.00097618 0.00135241 0.00216130 0.00185773 0.00212758 0.00139177 
0.01788760 0.00308310 0.00124060 0.00144704 0.00064236 0.00308321 0.00161906 0.00137307 0.00468119 0.00397934 0.00097473 0.00135146 0.00216223 0.00189913 0.00212258 0.00138023 
0.01778045 0.00308480 0.00126735 0.00139648 0.00064489 0.00306096 0.00167494 0.00138239 0.00469632 0.00395933 0.00097238 0.00135025 0.00216235 0.00193997 0.00211725 0.00136916 
0.01769707 0.00308494 0.00129577 0.00135111 0.00064819 0.00303493 0.00173240 0.00139399 0.00471728 0.00393647 0.00096912 0.00134879 0.00216164 0.00198002 0.00211159 0.00135860 
0.01763748 0.00308344 0.00132588 0.00131093 0.00065225 0.00300506 0.00179122 0.00140770 0.00474405 0.00391053 0.00096497 0.00134707 0.00216008 0.00201909 0.00210563 0.00134857 
0.01760150 0.00308024 0.00135770 0.00127589 0.00065702 0.00297132 0.00185118 0.00142333 0.00477661 0.00388130 0.00095992 0.00134508 0.00215767 0.00205696 0.00209938 0.00133910 
0.01758872 0.00307526 0.00139123 0.00124597 0.00066249 0.00293372 0.00191203 0.00144070 0.00481492 0.00384863 0.00095399 0.00134282 0.00215441 0.00209345 0.00209288 0.00133022 
0.01759853 0.00306846 0.00142648 0.00122108 0.00066863 0.00289232 0.00197353 0.00145959 0.00485897 0.00381239 0.00094721 0.00134028 0.00215032 0.00212838 0.00208616 0.00132195 
0.01763012 0.00305979 0.00146345 0.00120115 0.00067540 0.00284721 0.00203545 0.00147981 0.00490875 0.00377246 0.00093961 0.00133748 0.00214541 0.00216158 0.00207927 0.00131431 
0.01768248 0.00304922 0.00150212 0.00118607 0.00068277 0.00279851 0.00209754 0.00150115 0.00496423 0.00372879 0.00093122 0.00133441 0.00213970 0.00219290 0.00207226 0.00130729 
0.01775443 0.00303672 0.00154248 0.00117570 0.00069071 0.00274639 0.00215954 0.00152340 0.00502541 0.00368133 0.00092210 0.00133108 0.00213322 0.00222221 0.00206516 0.00130092 
0.01784462 0.00302227 0.00158450 0.00116991 0.00069918 0.00269104 0.00222121 0.00154635 0.00509229 0.00363009 0.00091229 0.00132749 0.00212601 0.00224938 0.00205806 0.00129519 
0.01795154 0.00300586 0.00162817 0.00116855 0.00070815 0.00263269 0.00228228 0.00156979 0.00516487 0.00357508 0.00090187 0.00132368 0.00211812 0.00227430 0.00205099 0.00129010 
0.01807353 0.00298747 0.00167343 0.00117144 0.00071757 0.00257158 0.00234252 0.00159350 0.00524316 0.00351637 0.00089090 0.00131963 0.00210960 0.00229688 0.00204404 0.00128565 
0.01820881 0.00296713 0.00172027 0.00117839 0.00072742 0.00250801 0.00240168 0.00161729 0.00532718 0.00345405 0.00087946 0.00131537 0.00210051 0.00231703 0.00203726 0.00128182 
0.01835551 0.00294484 0.00176862 0.00118921 0.00073765 0.00244226 0.00245952 0.00164094 0.00541695 0.00338822 0.00086762 0.00131092 0.00209090 0.00233470 0.00203074 0.00127860 
0.01851165 0.00292062 0.00181846 0.00120369 0.00074822 0.00237466 0.00251579 0.00166426 0.00551248 0.00331904 0.00085549 0.00130630 0.00208085 0.00234983 0.00202455 0.00127597 
0.01867519 0.00289450 0.00186972 0.00122161 0.00075910 0.00230555 0.00257027 0.00168705 0.00561380 0.00324666 0.00084316 0.00130153 0.00207044 0.00236241 0.00201876 0.00127391 
0.01884405 0.00286652 0.00192236 0.00124276 0.00077024 0.00223527 0.00262275 0.00170914 0.00572093 0.00317130 0.00083072 0.00129662 0.00205973 0.00237240 0.00201345 0.00127241 
0.01901610 0.00283672 0.00197631 0.00126689 0.00078162 0.00216419 0.00267300 0.00173033 0.00583392 0.00309315 0.00081828 0.00129160 0.00204882 0.00237981 0.00200871 0.00127142 
0.01918922 0.00280514 0.00203153 0.00129378 0.00079317 0.00209267 0.00272083 0.00175047 0.00595277 0.00301246 0.00080596 0.00128650 0.00203780 0.00238465 0.00200461 0.00127093 
0.01936133 0.00277185 0.00208797 0.00132318 0.00080488 0.00202109 0.00276605 0.00176939 0.00607752 0.00292949 0.00079386 0.00128134 0.00202674 0.00238694 0.00200122 0.00127090 
0.01953036 0.00273690 0.00214555 0.00135485 0.00081669 0.00194981 0.00280849 0.00178694 0.00620820 0.00284450 0.00078210 0.00127614 0.00201575 0.00238673 0.00199862 0.00127129 
0.01969431 0.00270037 0.00220424 0.00138856 0.00082857 0.00187921 0.00284799 0.00180299 0.00634480 0.00275778 0.00077081 0.00127093 0.00200492 0.00238406 0.00199689 0.00127208 
0.01985127 0.00266234 0.00226397 0.00142405 0.00084049 0.00180966 0.00288439 0.00181740 0.00648735 0.00266964 0.00076009 0.00126573 0.00199435 0.00237901 0.00199609 0.00127323 
0.01999945 0.00262289 0.00232471 0.00146109 0.00085240 0.00174150 0.00291758 0.00183007 0.00663585 0.00258039 0.00075007 0.00126057 0.00198414 0.00237164 0.00199629 0.00127469 
0.02013716 0.00258210 0.00238639 0.00149944 0.00086427 0.00167509 0.00294744 0.00184088 0.00679028 0.00249034 0.00074087 0.00125547 0.00197439 0.00236204 0.00199755 0.00127642 
0.02026290 0.00254008 0.00244900 0.00153886 0.00087607 0.00161076 0.00297388 0.00184976 0.00695062 0.00239983 0.00073262 0.00125046 0.00196519 0.00235030 0.00199992 0.00127840 
0.02037530 0.00249693 0.00251248 0.00157913 0.00088775 0.00154883 0.00299683 0.00185663 0.00711684 0.00230918 0.00072543 0.00124554 0.00195665 0.00233654 0.00200344 0.00128058 
0.02047320 0.00245275 0.00257682 0.00162002 0.00089930 0.00148960 0.00301622 0.00186143 0.00728888 0.00221874 0.00071941 0.00124075 0.00194886 0.00232085 0.00200817 0.00128291 
0.02055564 0.00240766 0.00264199 0.00166132 0.00091067 0.00143334 0.00303203 0.00186410 0.00746668 0.00212883 0.00071469 0.00123610 0.00194192 0.00230336 0.00201413 0.00128537 
0.02062190 0.00236178 0.00270797 0.00170281 0.00092184 0.00138032 0.00304424 0.00186463 0.00765016 0.00203978 0.00071137 0.00123161 0.00193591 0.00228418 0.00202135 0.00128790 
0.02067147 0.00231525 0.00277478 0.00174429 0.00093279 0.00133077 0.00305286 0.00186299 0.00783920 0.00195193 0.00070956 0.00122729 0.00193093 0.00226345 0.00202984 0.00129048 
0.02070411 0.00226818 0.00284240 0.00178557 0.00094348 0.00128490 0.00305792 0.00185918 0.00803369 0.00186560 0.00070935 0.00122314 0.00192707 0.00224128 0.00203962 0.00129306 
0.02071982 0.00222073 0.00291087 0.00182647 0.00095390 0.00124289 0.00305946 0.00185320 0.00823346 0.00178110 0.00071086 0.00121919 0.00192440 0.00221782 0.00205068 0.00129561 
0.02071890 0.00217304 0.00298020 0.00186681 0.00096401 0.00120490 0.00305756 0.00184510 0.00843836 0.00169875 0.00071415 0.00121543 0.00192300 0.00219319 0.00206300 0.00129809 
0.02070189 0.00212526 0.00305043 0.00190644 0.00097382 0.00117106 0.00305231 0.00183490 0.00864819 0.00161883 0.00071932 0.00121186 0.00192295 0.00216752 0.00207658 0.00130047 
0.02066963 0.00207755 0.00312162 0.00194519 0.00098328 0.00114145 0.00304382 0.00182266 0.00886273 0.00154164 0.00072643 0.00120850 0.00192429 0.00214096 0.00209136 0.00130273 
0.02062326 0.00203008 0.00319382 0.00198292 0.00099240 0.00111616 0.00303222 0.00180844 0.00908175 0.00146743 0.00073556 0.00120534 0.00192710 0.00211362 0.00210732 0.00130482 
0.02056417 0.00198301 0.00326712 0.00201951 0.00100116 0.00109523 0.00301768 0.00179234 0.00930497 0.00139647 0.00074675 0.00120236 0.00193143 0.00208564 0.00212440 0.00130673 
0.02049405 0.00193654 0.00334160 0.00205483 0.00100955 0.00107866 0.00300036 0.00177444 0.00953212 0.00132900 0.00076006 0.00119958 0.00193730 0.00205714 0.00214253 0.00130844 
0.02041486 0.00189083 0.00341737 0.00208877 0.00101756 0.00106644 0.00298046 0.00175485 0.00976288 0.00126523 0.00077552 0.00119696 0.00194477 0.00202824 0.00216165 0.00130991 
0.02032885 0.00184609 0.00349452 0.00212124 0.00102519 0.00105853 0.00295819 0.00173368 0.00999693 0.00120537 0.00079315 0.00119451 0.00195386 0.00199905 0.00218167 0.00131113 
0.02023851 0.00180251 0.00357320 0.00215214 0.00103243 0.00105485 0.00293379 0.00171107 0.01023393 0.00114960 0.00081297 0.00119220 0.00196459 0.00196970 0.00220250 0.00131209 
0.02014657 0.00176029 0.00365354 0.00218140 0.00103929 0.00105530 0.00290750 0.00168716 0.01047349 0.00109809 0.00083499 0.00119003 0.00197696 0.00194027 0.00222404 0.00131277 
0.02005604 0.00171964 0.00373569 0.00220895 0.00104576 0.00105977 0.00287959 0.00166209 0.01071526 0.00105098 0.00085919 0.00118796 0.00199097 0.00191087 0.00224618 0.00131316 
0.01997009 0.00168076 0.00381981 0.00223473 0.00105185 0.00106811 0.00285033 0.00163604 0.01095882 0.00100839 0.00088555 0.00118597 0.00200663 0.00188159 0.00226880 0.00131325 
0.01989214 0.00164389 0.00390608 0.00225869 0.00105757 0.00108014 0.00282003 0.00160916 0.01120377 0.00097043 0.00091406 0.00118405 0.00202390 0.00185251 0.00229178 0.00131305 
0.01982578 0.00160924 0.00399467 0.00228080 0.00106292 0.00109568 0.00278900 0.00158163 0.01144971 0.00093718 0.00094465 0.00118217 0.00204277 0.00182371 0.00231499 0.00131254 
0.01977474 0.00157704 0.00408578 0.00230102 0.00106791 0.00111453 0.00275754 0.00155365 0.01169620 0.00090868 0.00097728 0.00118030 0.00206319 0.00179526 0.00233828 0.00131172 
0.01974290 0.00154752 0.00417961 0.00231932 0.00107256 0.00113645 0.00272599 0.00152539 0.01194284 0.00088500 0.00101189 0.00117841 0.00208513 0.00176722 0.00236152 0.00131061 
0.01973427 0.00152090 0.00427636 0.00233570 0.00107687 0.00116120 0.00269470 0.00149706 0.01218921 0.00086613 0.00104839 0.00117647 0.00210852 0.00173965 0.00238457 0.00130920 
0.01975291 0.00149744 0.00437626 0.00235015 0.00108087 0.00118854 0.00266401 0.00146887 0.01243488 0.00085208 0.00108670 0.00117446 0.00213330 0.00171258 0.00240727 0.00130752 
0.01980296 0.00147735 0.00447951 0.00236266 0.00108457 0.00121819 0.00263427 0.00144101 0.01267948 0.00084283 0.00112671 0.00117235 0.00215941 0.00168606 0.00242947 0.00130556 
0.01988858 0.00146088 0.00458633 0.00237324 0.00108799 0.00124989 0.00260584 0.00141371 0.01292259 0.00083833 0.00116833 0.00117010 0.00218676 0.00166012 0.00245102 0.00130334 
0.02001393 0.00144827 0.00469695 0.00238191 0.00109114 0.00128335 0.00257909 0.00138716 0.01316387 0.00083851 0.00121142 0.00116768 0.00221526 0.00163478 0.00247177 0.00130088 
0.02018312 0.00143974 0.00481159 0.00238868 0.00109405 0.00131829 0.00255437 0.00136160 0.01340296 0.00084331 0.00125587 0.00116507 0.00224482 0.00161006 0.00249156 0.00129820 
0.02040022 0.00143554 0.00493047 0.00239356 0.00109674 0.00135443 0.00253206 0.00133723 0.01363954 0.00085261 0.00130153 0.00116224 0.00227533 0.00158596 0.00251025 0.00129531 
0.02066919 0.00143588 0.00505380 0.00239660 0.00109922 0.00139146 0.00251251 0.00131426 0.01387334 0.00086631 0.00134826 0.00115917 0.00230670 0.00156249 0.00252769 0.00129225 
0.02099388 0.00144099 0.00518179 0.00239782 0.00110152 0.00142912 0.00249609 0.00129293 0.01410411 0.00088427 0.00139591 0.00115582 0.00233880 0.00153965 0.00254373 0.00128902 
0.02137795 0.00145109 0.00531464 0.00239724 0.00110366 0.00146711 0.00248316 0.00127344 0.01433163 0.00090635 0.00144431 0.00115217 0.00237151 0.00151742 0.00255824 0.00128567 
0.02182490 0.00146639 0.00545255 0.00239492 0.00110566 0.00150515 0.00247405 0.00125600 0.01455576 0.00093238 0.00149331 0.00114820 0.00240471 0.00149580 0.00257108 0.00128221 
0.02233799 0.00148708 0.00559570 0.00239089 0.00110754 0.00154298 0.00246911 0.00124083 0.01477638 0.00096220 0.00154274 0.00114389 0.00243827 0.00147476 0.00258214 0.00127867 
0.02292026 0.00151335 0.00574424 0.00238520 0.00110932 0.00158033 0.00246869 0.00122813 0.01499344 0.00099561 0.00159241 0.00113922 0.00247207 0.00145429 0.00259128 0.00127508 
0.02357443 0.00154540 0.00589835 0.00237789 0.00111102 0.00161696 0.00247308 0.00121810 0.01520695 0.00103243 0.00164216 0.00113417 0.00250597 0.00143435 0.00259841 0.00127147 
0.02430297 0.00158336 0.00605813 0.00236901 0.00111267 0.00165262 0.00248261 0.00121094 0.01541696 0.00107245 0.00169181 0.00112874 0.00253983 0.00141492 0.00260343 0.00126787 
0.02510796 0.00162741 0.00622372 0.00235862 0.00111427 0.00168709 0.00249758 0.00120683 0.01562362 0.00111544 0.00174118 0.00112291 0.00257353 0.00139597 0.00260624 0.00126431 
0.02599119 0.00167766 0.00639520 0.00234676 0.00111585 0.00172015 0.00251825 0.00120596 0.01582712 0.00116121 0.00179009 0.00111666 0.00260692 0.00137746 0.00260676 0.00126082 
0.02695402 0.00173423 0.00657264 0.00233349 0.00111742 0.00175161 0.00254489 0.00120850 0.01602774 0.00120951 0.00183836 0.00111000 0.00263989 0.00135935 0.00260493 0.00125742 
0.02799746 0.00179723 0.00675608 0.00231887 0.00111900 0.00178129 0.00257775 0.00121463 0.01622582 0.00126011 0.00188583 0.00110293 0.00267229 0.00134162 0.00260070 0.00125414 
0.02912206 0.00186671 0.00694553 0.00230296 0.00112059 0.00180903 0.00261705 0.00122449 0.01642178 0.00131278 0.00193232 0.00109543 0.00270400 0.00132421 0.00259402 0.00125102 
0.03032799 0.00194275 0.00714098 0.00228581 0.00112222 0.00183468 0.00266299 0.00123823 0.01661612 0.00136729 0.00197766 0.00108752 0.00273489 0.00130711 0.00258486 0.00124809 
0.03161495 0.00202535 0.00734239 0.00226749 0.00112389 0.00185812 0.00271576 0.00125600 0.01680940 0.00142339 0.00202169 0.00107920 0.00276486 0.00129026 0.00257320 0.00124535 
0.03298220 0.00211453 0.00754969 0.00224807 0.00112560 0.00187924 0.00277551 0.00127791 0.01700229 0.00148084 0.00206426 0.00107047 0.00279379 0.00127364 0.00255905 0.00124285 
0.03442854 0.00221027 0.00776275 0.00222761 0.00112737 0.00189795 0.00284238 0.00130408 0.01719550 0.00153940 0.00210523 0.00106136 0.00282157 0.00125721 0.00254240 0.00124061 
0.03595229 0.00231250 0.00798145 0.00220617 0.00112919 0.00191418 0.00291648 0.00133461 0.01738982 0.00159883 0.00214445 0.00105186 0.00284811 0.00124093 0.00252329 0.00123864 
0.03755133 0.00242116 0.00820559 0.00218382 0.00113108 0.00192789 0.00299789 0.00136959 0.01758614 0.00165890 0.00218180 0.00104200 0.00287331 0.00122478 0.00250174 0.00123697 
0.03922305 0.00253614 0.00843498 0.00216065 0.00113302 0.00193903 0.00308667 0.00140910 0.01778539 0.00171939 0.00221716 0.00103179 0.00289711 0.00120873 0.00247782 0.00123561 
0.04096441 0.00265730 0.00866935 0.00213671 0.00113502 0.00194761 0.00318284 0.00145319 0.01798858 0.00178005 0.00225042 0.00102125 0.00291942 0.00119275 0.00245157 0.00123459 
0.04277188 0.00278446 0.00890843 0.00211208 0.00113707 0.00195361 0.00328640 0.00150191 0.01819676 0.00184067 0.00228149 0.00101041 0.00294019 0.00117681 0.00242307 0.00123392 
0.04464150 0.00291744 0.00915189 0.00208685 0.00113917 0.00195706 0.00339733 0.00155530 0.01841107 0.00190103 0.00231028 0.00099928 0.00295937 0.00116090 0.00239241 0.00123360 
0.04656888 0.00305600 0.00939938 0.00206109 0.00114130 0.00195801 0.00351556 0.00161335 0.01863268 0.00196092 0.00233673 0.00098789 0.00297693 0.00114499 0.00235969 0.00123366 
0.04854921 0.00319988 0.00965050 0.00203487 0.00114347 0.00195649 0.00364101 0.00167609 0.01886280 0.00202015 0.00236078 0.00097627 0.00299283 0.00112908 0.00232501 0.00123409 
0.05057727 0.00334878 0.00990482 0.00200830 0.00114565 0.00195259 0.00377356 0.00174348 0.01910270 0.00207851 0.00238239 0.00096444 0.00300708 0.00111314 0.00228850 0.00123490 
0.05264746 0.00350239 0.01016189 0.00198144 0.00114783 0.00194637 0.00391306 0.00181550 0.01935364 0.00213582 0.00240153 0.00095243 0.00301966 0.00109717 0.00225027 0.00123610 
0.05475383 0.00366034 0.01042121 0.00195439 0.00114999 0.00193795 0.00405934 0.00189210 0.01961693 0.00219192 0.00241818 0.00094027 0.00303060 0.00108117 0.00221046 0.00123769 
0.05689010 0.00382226 0.01068226 0.00192724 0.00115213 0.00192741 0.00421218 0.00197320 0.01989390 0.00224662 0.00243236 0.00092800 0.00303991 0.00106513 0.00216923 0.00123966 
0.05904966 0.00398772 0.01094447 0.00190007 0.00115422 0.00191489 0.00437136 0.00205873 0.02018584 0.00229978 0.00244408 0.00091563 0.00304765 0.00104905 0.00212671 0.00124201 
0.06122565 0.00415629 0.01120727 0.00187299 0.00115624 0.00190049 0.00453659 0.00214859 0.02049407 0.00235125 0.00245337 0.00090320 0.00305386 0.00103293 0.00208306 0.00124473 
0.06341094 0.00432751 0.01147004 0.00184609 0.00115817 0.00188437 0.00470759 0.00224264 0.02081988 0.00240090 0.00246028 0.00089073 0.00305862 0.00101678 0.00203845 0.00124781 
0.06559821 0.00450086 0.01173217 0.00181946 0.00116000 0.00186665 0.00488404 0.00234077 0.02116452 0.00244861 0.00246486 0.00087827 0.00306200 0.00100061 0.00199303 0.00125124 
0.06777994 0.00467585 0.01199298 0.00179320 0.00116169 0.00184748 0.00506558 0.00244282 0.02152920 0.00249425 0.00246721 0.00086583 0.00306409 0.00098443 0.00194699 0.00125502 
0.06994848 0.00485192 0.01225181 0.00176741 0.00116322 0.00182702 0.00525184 0.00254861 0.02191508 0.00253774 0.00246739 0.00085344 0.00306500 0.00096825 0.00190048 0.00125911 
0.07209607 0.00502853 0.01250798 0.00174220 0.00116458 0.00180541 0.00544242 0.00265796 0.02232326 0.00257899 0.00246553 0.00084114 0.00306485 0.00095208 0.00185367 0.00126351 
0.07421488 0.00520510 0.01276079 0.00171766 0.00116574 0.00178282 0.00563688 0.00277068 0.02275474 0.00261791 0.00246172 0.00082894 0.00306376 0.00093595 0.00180675 0.00126818 
0.07629705 0.00538102 0.01300952 0.00169389 0.00116666 0.00175939 0.00583479 0.00288653 0.02321045 0.00265445 0.00245611 0.00081688 0.00306188 0.00091986 0.00175987 0.00127312 
0.07833473 0.00555572 0.01325346 0.00167100 0.00116735 0.00173529 0.00603566 0.00300529 0.02369121 0.00268855 0.00244883 0.00080498 0.00305934 0.00090384 0.00171320 0.00127830 
0.08032010 0.00572856 0.01349190 0.00164908 0.00116775 0.00171066 0.00623901 0.00312670 0.02419773 0.00272017 0.00244003 0.00079327 0.00305631 0.00088792 0.00166691 0.00128369 
0.08224546 0.00589893 0.01372412 0.00162824 0.00116787 0.00168566 0.00644432 0.00325050 0.02473058 0.00274928 0.00242986 0.00078176 0.00305295 0.00087210 0.00162115 0.00128927 
0.08410319 0.00606622 0.01394941 0.00160857 0.00116766 0.00166044 0.00665108 0.00337642 0.02529021 0.00277586 0.00241850 0.00077047 0.00304943 0.00085641 0.00157609 0.00129500 
0.08588588 0.00622979 0.01416706 0.00159017 0.00116712 0.00163513 0.00685873 0.00350416 0.02587691 0.00279992 0.00240612 0.00075944 0.00304592 0.00084088 0.00153187 0.00130086 
0.08758627 0.00638902 0.01437640 0.00157314 0.00116622 0.00160989 0.00706672 0.00363342 0.02649082 0.00282144 0.00239291 0.00074867 0.00304261 0.00082553 0.00148863 0.00130682 
0.08919737 0.00654331 0.01457673 0.00155755 0.00116495 0.00158484 0.00727449 0.00376389 0.02713191 0.00284045 0.00237904 0.00073818 0.00303967 0.00081037 0.00144651 0.00131285 
0.09071246 0.00669205 0.01476740 0.00154351 0.00116328 0.00156010 0.00748146 0.00389523 0.02779997 0.00285697 0.00236471 0.00072799 0.00303730 0.00079544 0.00140564 0.00131892 
0.09212511 0.00683463 0.01494778 0.00153110 0.00116120 0.00153581 0.00768705 0.00402712 0.02849462 0.00287104 0.00235011 0.00071812 0.00303567 0.00078075 0.00136614 0.00132500 
0.09342923 0.00697050 0.01511726 0.00152040 0.00115870 0.00151206 0.00789067 0.00415921 0.02921526 0.00288270 0.00233545 0.00070858 0.00303497 0.00076631 0.00132812 0.00133104 
0.09461910 0.00709908 0.01527526 0.00151147 0.00115576 0.00148896 0.00809174 0.00429115 0.02996113 0.00289200 0.00232090 0.00069938 0.00303539 0.00075217 0.00129167 0.00133704 
0.09568941 0.00721986 0.01542122 0.00150439 0.00115238 0.00146661 0.00828965 0.00442259 0.03073125 0.00289902 0.00230668 0.00069053 0.00303709 0.00073832 0.00125690 0.00134294 
0.09663525 0.00733231 0.01555465 0.00149923 0.00114854 0.00144508 0.00848383 0.00455317 0.03152443 0.00290382 0.00229297 0.00068204 0.00304026 0.00072478 0.00122388 0.00134873 
0.09745219 0.00743596 0.01567505 0.00149604 0.00114424 0.00142447 0.00867370 0.00468251 0.03233929 0.00290649 0.00227997 0.00067393 0.00304505 0.00071159 0.00119268 0.00135436 
0.09813625 0.00753037 0.01578201 0.00149487 0.00113947 0.00140483 0.00885868 0.00481027 0.03317424 0.00290710 0.00226785 0.00066619 0.00305162 0.00069873 0.00116337 0.00135982 
0.09868393 0.00761512 0.01587513 0.00149576 0.00113424 0.00138622 0.00903820 0.00493606 0.03402748 0.00290575 0.00225680 0.00065885 0.00306011 0.00068625 0.00113600 0.00136507 
0.09909228 0.00768985 0.01595406 0.00149875 0.00112854 0.00136869 0.00921172 0.00505953 0.03489700 0.00290255 0.00224698 0.00065190 0.00307067 0.00067413 0.00111060 0.00137009 
0.09935885 0.00775421 0.01601850 0.00150386 0.00112237 0.00135229 0.00937869 0.00518032 0.03578061 0.00289759 0.00223857 0.00064535 0.00308341 0.00066240 0.00108721 0.00137485 
0.09948171 0.00780792 0.01606822 0.00151111 0.00111575 0.00133704 0.00953860 0.00529806 0.03667591 0.00289099 0.00223172 0.00063921 0.00309845 0.00065105 0.00106585 0.00137932 
0.09945952 0.00785074 0.01610301 0.00152052 0.00110868 0.00132297 0.00969094 0.00541241 0.03758031 0.00288287 0.00222657 0.00063348 0.00311587 0.00064011 0.00104652 0.00138349 
0.09929146 0.00788248 0.01612274 0.00153208 0.00110117 0.00131008 0.00983524 0.00552303 0.03849108 0.00287333 0.00222326 0.00062818 0.00313575 0.00062957 0.00102924 0.00138732 
0.09897730 0.00790299 0.01612730 0.00154578 0.00109324 0.00129839 0.00997104 0.00562957 0.03940526 0.00286251 0.00222191 0.00062329 0.00315816 0.00061943 0.00101399 0.00139081 
0.09851734 0.00791217 0.01611667 0.00156160 0.00108489 0.00128790 0.01009793 0.00573171 0.04031978 0.00285052 0.00222262 0.00061884 0.00318312 0.00060970 0.00100075 0.00139393 
0.09791247 0.00790999 0.01609086 0.00157952 0.00107614 0.00127859 0.01021548 0.00582915 0.04123142 0.00283749 0.00222549 0.00061481 0.00321068 0.00060038 0.00098950 0.00139667 
0.09716413 0.00789645 0.01604994 0.00159949 0.00106702 0.00127044 0.01032335 0.00592158 0.04213680 0.00282356 0.00223060 0.00061123 0.00324082 0.00059146 0.00098021 0.00139901 
0.09627431 0.00787162 0.01599405 0.00162148 0.00105755 0.00126344 0.01042119 0.00600872 0.04303247 0.00280883 0.00223801 0.00060808 0.00327352 0.00058294 0.00097284 0.00140094 
0.09524556 0.00783563 0.01592337 0.00164542 0.00104775 0.00125756 0.01050871 0.00609031 0.04391484 0.00279345 0.00224778 0.00060539 0.00330876 0.00057483 0.00096735 0.00140246 
0.09408095 0.00778864 0.01583813 0.00167124 0.00103764 0.00125276 0.01058563 0.00616610 0.04478027 0.00277753 0.00225994 0.00060314 0.00334646 0.00056710 0.00096368 0.00140356 
0.09278408 0.00773089 0.01573862 0.00169887 0.00102725 0.00124901 0.01065174 0.00623586 0.04562506 0.00276121 0.00227451 0.00060135 0.00338655 0.00055976 0.00096178 0.00140423 
0.09135907 0.00766265 0.01562519 0.00172823 0.00101662 0.00124626 0.01070684 0.00629939 0.04644546 0.00274460 0.00229148 0.00060002 0.00342892 0.00055280 0.00096159 0.00140447 
0.08981052 0.00758428 0.01549822 0.00175922 0.00100577 0.00124446 0.01075078 0.00635650 0.04723768 0.00272782 0.00231085 0.00059916 0.00347344 0.00054621 0.00096304 0.00140428 
0.08814351 0.00749614 0.01535817 0.00179173 0.00099474 0.00124358 0.01078347 0.00640704 0.04799798 0.00271099 0.00233258 0.00059877 0.00351996 0.00053997 0.00096607 0.00140367 
0.08636357 0.00739869 0.01520551 0.00182566 0.00098355 0.00124354 0.01080482 0.00645087 0.04872261 0.00269423 0.00235662 0.00059885 0.00356833 0.00053408 0.00097062 0.00140263 
0.08447667 0.00729241 0.01504078 0.00186089 0.00097225 0.00124431 0.01081483 0.00648787 0.04940788 0.00267764 0.00238291 0.00059942 0.00361835 0.00052852 0.00097662 0.00140117 
0.08248918 0.00717783 0.01486456 0.00189730 0.00096087 0.00124583 0.01081351 0.00651796 0.05005016 0.00266132 0.00241138 0.00060047 0.00366981 0.00052329 0.00098399 0.00139931 
0.08040786 0.00705553 0.01467746 0.00193476 0.00094945 0.00124803 0.01080093 0.00654109 0.05064592 0.00264538 0.00244192 0.00060201 0.00372248 0.00051837 0.00099268 0.00139706 
0.07823982 0.00692612 0.01448015 0.00197312 0.00093801 0.00125088 0.01077719 0.00655723 0.05119174 0.00262990 0.00247444 0.00060405 0.00377613 0.00051375 0.00100261 0.00139442 
0.07599252 0.00679028 0.01427330 0.00201224 0.00092661 0.00125430 0.01074245 0.00656637 0.05168435 0.00261497 0.00250879 0.00060658 0.00383050 0.00050941 0.00101372 0.00139141 
0.07367369 0.00664868 0.01405765 0.00205199 0.00091528 0.00125824 0.01069690 0.00656853 0.05212062 0.00260068 0.00254486 0.00060961 0.00388531 0.00050534 0.00102594 0.00138805 
0.07129137 0.00650205 0.01383394 0.00209221 0.00090405 0.00126266 0.01064076 0.00656377 0.05249762 0.00258709 0.00258249 0.00061315 0.00394027 0.00050152 0.00103923 0.00138436 
0.06885380 0.00635115 0.01360296 0.00213274 0.00089296 0.00126750 0.01057433 0.00655218 0.05281260 0.00257427 0.00262151 0.00061720 0.00399509 0.00049795 0.00105351 0.00138036 
0.06636948 0.00619676 0.01336551 0.00217345 0.00088206 0.00127270 0.01049792 0.00653386 0.05306305 0.00256229 0.00266177 0.00062175 0.00404945 0.00049461 0.00106875 0.00137607 
0.06384705 0.00603967 0.01312240 0.00221416 0.00087137 0.00127823 0.01041188 0.00650894 0.05324669 0.00255119 0.00270308 0.00062680 0.00410305 0.00049148 0.00108490 0.00137150 
0.06129533 0.00588070 0.01287448 0.00225472 0.00086093 0.00128404 0.01031660 0.00647760 0.05336150 0.00254102 0.00274524 0.00063237 0.00415555 0.00048855 0.00110192 0.00136670 
0.05872325 0.00572068 0.01262261 0.00229498 0.00085079 0.00129008 0.01021253 0.00644002 0.05340573 0.00253182 0.00278807 0.00063843 0.00420664 0.00048580 0.00111976 0.00136167 
0.05613982 0.00556045 0.01236764 0.00233479 0.00084096 0.00129632 0.01010012 0.00639641 0.05337793 0.00252361 0.00283137 0.00064499 0.00425599 0.00048323 0.00113840 0.00135645 
0.05355412 0.00540085 0.01211044 0.00237399 0.00083149 0.00130272 0.00997987 0.00634701 0.05327692 0.00251641 0.00287491 0.00065203 0.00430328 0.00048082 0.00115782 0.00135107 
0.05097526 0.00524272 0.01185189 0.00241243 0.00082240 0.00130926 0.00985231 0.00629209 0.05310188 0.00251024 0.00291850 0.00065956 0.00434818 0.00047856 0.00117800 0.00134555 
0.04841232 0.00508690 0.01159287 0.00244998 0.00081373 0.00131590 0.00971799 0.00623193 0.05285226 0.00250511 0.00296192 0.00066756 0.00439038 0.00047643 0.00119892 0.00133991 
0.04587438 0.00493422 0.01133424 0.00248648 0.00080551 0.00132262 0.00957749 0.00616683 0.05252787 0.00250101 0.00300496 0.00067601 0.00442956 0.00047442 0.00122058 0.00133419 
0.04337043 0.00478550 0.01107686 0.00252182 0.00079775 0.00132940 0.00943142 0.00609711 0.05212885 0.00249794 0.00304740 0.00068490 0.00446544 0.00047252 0.00124298 0.00132841 
0.04090937 0.00464153 0.01082160 0.00255585 0.00079049 0.00133623 0.00928041 0.00602313 0.05165567 0.00249587 0.00308903 0.00069422 0.00449773 0.00047071 0.00126613 0.00132261 
0.03849998 0.00450310 0.01056930 0.00258846 0.00078374 0.00134309 0.00912508 0.00594523 0.05110914 0.00249478 0.00312965 0.00070394 0.00452616 0.00046899 0.00129002 0.00131680 
0.03615088 0.00437096 0.01032079 0.00261954 0.00077753 0.00134999 0.00896611 0.00586377 0.05049041 0.00249465 0.00316904 0.00071403 0.00455047 0.00046735 0.00131469 0.00131102 
0.03387053 0.00424584 0.01007686 0.00264898 0.00077187 0.00135691 0.00880415 0.00577916 0.04980097 0.00249544 0.00320701 0.00072448 0.00457044 0.00046577 0.00134014 0.00130529 
0.03166717 0.00412842 0.00983832 0.00267668 0.00076679 0.00136386 0.00863989 0.00569176 0.04904262 0.00249710 0.00324336 0.00073524 0.00458586 0.00046424 0.00136641 0.00129965 
0.02954879 0.00401937 0.00960593 0.00270256 0.00076228 0.00137084 0.00847400 0.00560199 0.04821752 0.00249958 0.00327792 0.00074629 0.00459654 0.00046276 0.00139352 0.00129410 
0.02752316 0.00391930 0.00938041 0.00272654 0.00075836 0.00137787 0.00830717 0.00551024 0.04732812 0.00250283 0.00331050 0.00075760 0.00460232 0.00046131 0.00142150 0.00128869 
0.02559773 0.00382879 0.00916248 0.00274856 0.00075505 0.00138494 0.00814008 0.00541693 0.04637717 0.00250679 0.00334093 0.00076911 0.00460307 0.00045988 0.00145038 0.00128343 
0.02377967 0.00374838 0.00895281 0.00276856 0.00075234 0.00139208 0.00797340 0.00532246 0.04536773 0.00251140 0.00336906 0.00078079 0.00459868 0.00045846 0.00148021 0.00127834 
0.02207580 0.00367853 0.00875205 0.00278649 0.00075023 0.00139930 0.00780782 0.00522723 0.04430310 0.00251658 0.00339475 0.00079260 0.00458908 0.00045705 0.00151101 0.00127345 
0.02049261 0.00361970 0.00856079 0.00280231 0.00074873 0.00140663 0.00764399 0.00513166 0.04318690 0.00252227 0.00341787 0.00080448 0.00457423 0.00045563 0.00154282 0.00126878 
0.01903619 0.00357225 0.00837960 0.00281602 0.00074784 0.00141408 0.00748255 0.00503613 0.04202292 0.00252838 0.00343829 0.00081638 0.00455412 0.00045420 0.00157569 0.00126433 
0.01771227 0.00353652 0.00820901 0.00282759 0.00074754 0.00142168 0.00732414 0.00494104 0.04081524 0.00253484 0.00345592 0.00082825 0.00452878 0.00045274 0.00160963 0.00126014 
0.01652615 0.00351279 0.00804949 0.00283702 0.00074783 0.00142945 0.00716936 0.00484678 0.03956808 0.00254156 0.00347066 0.00084003 0.00449827 0.00045126 0.00164469 0.00125622 
0.01548269 0.00350126 0.00790148 0.00284433 0.00074869 0.00143743 0.00701881 0.00475370 0.03828590 0.00254846 0.00348243 0.00085166 0.00446267 0.00044974 0.00168090 0.00125257 
0.01458632 0.00350210 0.00776538 0.00284953 0.00075012 0.00144564 0.00687305 0.00466217 0.03697325 0.00255545 0.00349118 0.00086308 0.00442211 0.00044817 0.00171828 0.00124922 
0.01384102 0.00351541 0.00764153 0.00285267 0.00075210 0.00145411 0.00673261 0.00457252 0.03563488 0.00256245 0.00349686 0.00087423 0.00437677 0.00044655 0.00175685 0.00124617 
0.01325025 0.00354125 0.00753022 0.00285377 0.00075461 0.00146287 0.00659799 0.00448508 0.03427559 0.00256936 0.00349943 0.00088504 0.00432683 0.00044487 0.00179663 0.00124342 
0.01281704 0.00357958 0.00743169 0.00285289 0.00075763 0.00147194 0.00646968 0.00440016 0.03290029 0.00257611 0.00349890 0.00089544 0.00427253 0.00044312 0.00183763 0.00124100 
0.01254385 0.00363035 0.00734616 0.00285011 0.00076114 0.00148136 0.00634809 0.00431804 0.03151394 0.00258259 0.00349524 0.00090536 0.00421413 0.00044131 0.00187985 0.00123890 
0.01243268 0.00369343 0.00727375 0.00284548 0.00076511 0.00149116 0.00623365 0.00423897 0.03012154 0.00258873 0.00348849 0.00091474 0.00415192 0.00043941 0.00192329 0.00123713 
0.01248498 0.00376863 0.00721457 0.00283910 0.00076951 0.00150135 0.00612670 0.00416321 0.02872807 0.00259443 0.00347867 0.00092351 0.00408623 0.00043743 0.00196793 0.00123569 
0.01270167 0.00385573 0.00716865 0.00283104 0.00077432 0.00151197 0.00602757 0.00409096 0.02733851 0.00259961 0.00346582 0.00093160 0.00401742 0.00043537 0.00201375 0.00123458 
0.01308312 0.00395443 0.00713598 0.00282142 0.00077951 0.00152303 0.00593654 0.00402242 0.02595777 0.00260419 0.00345000 0.00093893 0.00394586 0.00043321 0.00206072 0.00123379 
0.01362917 0.00406439 0.00711649 0.00281032 0.00078504 0.00153456 0.00585384 0.00395776 0.02459070 0.00260809 0.00343129 0.00094546 0.00387197 0.00043096 0.00210880 0.00123333 
0.01433910 0.00418523 0.00711008 0.00279787 0.00079089 0.00154657 0.00577967 0.00389711 0.02324204 0.00261122 0.00340976 0.00095110 0.00379616 0.00042862 0.00215794 0.00123320 
0.01521163 0.00431651 0.00711657 0.00278418 0.00079701 0.00155908 0.00571417 0.00384059 0.02191642 0.00261351 0.00338552 0.00095580 0.00371889 0.00042617 0.00220808 0.00123338 
0.01624494 0.00445775 0.00713574 0.00276937 0.00080338 0.00157211 0.00565746 0.00378829 0.02061830 0.00261490 0.00335867 0.00095949 0.00364063 0.00042363 0.00225913 0.00123386 
0.01743662 0.00460844 0.00716733 0.00275358 0.00080995 0.00158565 0.00560958 0.00374026 0.01935199 0.00261531 0.00332933 0.00096213 0.00356185 0.00042099 0.00231102 0.00123465 
0.01878374 0.00476802 0.00721101 0.00273692 0.00081670 0.00159972 0.00557056 0.00369654 0.01812160 0.00261468 0.00329762 0.00096366 0.00348305 0.00041825 0.00236366 0.00123573 
0.02028280 0.00493590 0.00726642 0.00271953 0.00082358 0.00161431 0.00554037 0.00365714 0.01693102 0.00261294 0.00326368 0.00096403 0.00340474 0.00041542 0.00241693 0.00123708 
0.02192975 0.00511146 0.00733314 0.00270155 0.00083055 0.00162942 0.00551892 0.00362203 0.01578392 0.00261006 0.00322765 0.00096320 0.00332741 0.00041249 0.00247072 0.00123871 
0.02372002 0.00529405 0.00741071 0.00268311 0.00083759 0.00164505 0.00550611 0.00359117 0.01468372 0.00260597 0.00318969 0.00096113 0.00325159 0.00040948 0.00252489 0.00124059 
0.02564848 0.00548299 0.00749863 0.00266436 0.00084464 0.00166119 0.00550176 0.00356449 0.01363356 0.00260064 0.00314994 0.00095780 0.00317778 0.00040638 0.00257931 0.00124271 
0.02770950 0.00567759 0.00759634 0.00264542 0.00085168 0.00167781 0.00550569 0.00354190 0.01263633 0.00259402 0.00310856 0.00095318 0.00310648 0.00040321 0.00263383 0.00124505 
0.02989693 0.00587715 0.00770327 0.00262643 0.00085867 0.00169489 0.00551764 0.00352329 0.01169460 0.00258609 0.00306572 0.00094726 0.00303820 0.00039997 0.00268829 0.00124761 
0.03220414 0.00608093 0.00781879 0.00260752 0.00086557 0.00171242 0.00553735 0.00350851 0.01081066 0.00257681 0.00302158 0.00094004 0.00297342 0.00039668 0.00274252 0.00125036 
0.03462401 0.00628822 0.00794223 0.00258883 0.00087235 0.00173035 0.00556449 0.00349740 0.00998648 0.00256617 0.00297630 0.00093151 0.00291261 0.00039333 0.00279634 0.00125329 
0.03714897 0.00649827 0.00807291 0.00257049 0.00087897 0.00174867 0.00559871 0.00348979 0.00922370 0.00255415 0.00293006 0.00092169 0.00285623 0.00038995 0.00284956 0.00125638 
0.03977102 0.00671035 0.00821010 0.00255261 0.00088540 0.00176732 0.00563964 0.00348548 0.00852366 0.00254075 0.00288301 0.00091060 0.00280471 0.00038655 0.00290200 0.00125961 
0.04248174 0.00692374 0.00835305 0.00253531 0.00089161 0.00178626 0.00568687 0.00348426 0.00788735 0.00252596 0.00283532 0.00089828 0.00275846 0.00038314 0.00295345 0.00126297 
0.04527230 0.00713770 0.00850099 0.00251872 0.00089756 0.00180545 0.00573996 0.00348590 0.00731546 0.00250980 0.00278716 0.00088477 0.00271786 0.00037974 0.00300371 0.00126644 
0.04813356 0.00735152 0.00865312 0.00250292 0.00090323 0.00182483 0.00579845 0.00349017 0.00680832 0.00249226 0.00273866 0.00087013 0.00268327 0.00037636 0.00305256 0.00127000 
0.05105601 0.00756452 0.00880863 0.00248804 0.00090859 0.00184435 0.00586186 0.00349681 0.00636597 0.00247338 0.00269000 0.00085442 0.00265500 0.00037303 0.00309981 0.00127363 
0.05402984 0.00777601 0.00896669 0.00247415 0.00091362 0.00186396 0.00592969 0.00350556 0.00598809 0.00245317 0.00264132 0.00083774 0.00263334 0.00036977 0.00314523 0.00127732 
0.05704499 0.00798534 0.00912645 0.00246135 0.00091829 0.00188358 0.00600144 0.00351616 0.00567408 0.00243167 0.00259276 0.00082017 0.00261853 0.00036659 0.00318861 0.00128104 
0.06009117 0.00819188 0.00928708 0.00244972 0.00092258 0.00190314 0.00607657 0.00352833 0.00542300 0.00240891 0.00254445 0.00080181 0.00261077 0.00036352 0.00322973 0.00128479 
0.06315788 0.00839504 0.00944771 0.00243932 0.00092647 0.00192259 0.00615455 0.00354180 0.00523364 0.00238494 0.00249653 0.00078280 0.00261024 0.00036059 0.00326839 0.00128854 
0.06623448 0.00859424 0.00960751 0.00243022 0.00092994 0.00194185 0.00623485 0.00355628 0.00510449 0.00235981 0.00244911 0.00076325 0.00261705 0.00035781 0.00330438 0.00129228 
0.06931020 0.00878897 0.00976562 0.00242246 0.00093298 0.00196085 0.00631693 0.00357151 0.00503377 0.00233356 0.00240231 0.00074333 0.00263127 0.00035522 0.00333748 0.00129599 
0.07237420 0.00897873 0.00992119 0.00241609 0.00093557 0.00197951 0.00640025 0.00358719 0.00501941 0.00230628 0.00235624 0.00072317 0.00265294 0.00035284 0.00336751 0.00129965 
0.07541562 0.00916306 0.01007341 0.00241115 0.00093771 0.00199775 0.00648428 0.00360306 0.00505914 0.00227801 0.00231099 0.00070297 0.00268203 0.00035069 0.00339427 0.00130326 
0.07842360 0.00934157 0.01022146 0.00240766 0.00093938 0.00201549 0.00656850 0.00361884 0.00515042 0.00224883 0.00226665 0.00068290 0.00271848 0.00034882 0.00341758 0.00130680 
0.08138734 0.00951388 0.01036453 0.00240562 0.00094058 0.00203267 0.00665240 0.00363428 0.00529051 0.00221881 0.00222329 0.00066316 0.00276217 0.00034724 0.00343726 0.00131025 
0.08429614 0.00967968 0.01050186 0.00240505 0.00094131 0.00204919 0.00673547 0.00364912 0.00547649 0.00218804 0.00218100 0.00064395 0.00281295 0.00034598 0.00345316 0.00131360 
0.08713945 0.00983871 0.01063269 0.00240594 0.00094155 0.00206498 0.00681725 0.00366311 0.00570524 0.00215660 0.00213983 0.00062550 0.00287060 0.00034508 0.00346513 0.00131684 
0.08990691 0.00999073 0.01075630 0.00240827 0.00094133 0.00207996 0.00689726 0.00367602 0.00597350 0.00212458 0.00209983 0.00060804 0.00293487 0.00034456 0.00347302 0.00131997 
0.09258841 0.01013558 0.01087200 0.00241202 0.00094062 0.00209406 0.00697509 0.00368763 0.00627786 0.00209207 0.00206104 0.00059181 0.00300546 0.00034445 0.00347672 0.00132296 
0.09517411 0.01027314 0.01097915 0.00241715 0.00093946 0.00210721 0.00705031 0.00369773 0.00661482 0.00205915 0.00202352 0.00057706 0.00308203 0.00034478 0.00347613 0.00132581 
0.09765450 0.01040333 0.01107711 0.00242362 0.00093783 0.00211932 0.00712255 0.00370612 0.00698075 0.00202594 0.00198727 0.00056404 0.00316418 0.00034558 0.00347116 0.00132851 
0.10002046 0.01052614 0.01116533 0.00243137 0.00093575 0.00213033 0.00719146 0.00371263 0.00737199 0.00199252 0.00195232 0.00055302 0.00325149 0.00034687 0.00346173 0.00133105 
0.10226327 0.01064158 0.01124326 0.00244035 0.00093323 0.00214017 0.00725673 0.00371710 0.00778479 0.00195899 0.00191869 0.00054428 0.00334349 0.00034869 0.00344781 0.00133343 
0.10437468 0.01074972 0.01131044 0.00245048 0.00093028 0.00214878 0.00731806 0.00371937 0.00821539 0.00192546 0.00188638 0.00053809 0.00343968 0.00035106 0.00342935 0.00133565 
0.10634692 0.01085070 0.01136641 0.00246168 0.00092693 0.00215610 0.00737521 0.00371932 0.00866004 0.00189202 0.00185538 0.00053473 0.00353952 0.00035399 0.00340635 0.00133769 
0.10817279 0.01094467 0.01141081 0.00247386 0.00092318 0.00216208 0.00742798 0.00371685 0.00911497 0.00185877 0.00182569 0.00053449 0.00364246 0.00035753 0.00337882 0.00133955 
0.10984562 0.01103184 0.01144330 0.00248694 0.00091905 0.00216666 0.00747620 0.00371185 0.00957646 0.00182582 0.00179730 0.00053764 0.00374790 0.00036168 0.00334679 0.00134123 
0.11135939 0.01111246 0.01146360 0.00250081 0.00091458 0.00216980 0.00751973 0.00370427 0.01004086 0.00179327 0.00177019 0.00054448 0.00385523 0.00036647 0.00331032 0.00134273 
0.11270868 0.01118680 0.01147149 0.00251536 0.00090977 0.00217146 0.00755849 0.00369404 0.01050457 0.00176121 0.00174433 0.00055528 0.00396381 0.00037191 0.00326948 0.00134405 
0.11388876 0.01125520 0.01146681 0.00253048 0.00090465 0.00217161 0.00759242 0.00368113 0.01096409 0.00172973 0.00171970 0.00057032 0.00407299 0.00037802 0.00322438 0.00134518 
0.11489559 0.01131800 0.01144946 0.00254606 0.00089925 0.00217021 0.00762152 0.00366553 0.01141605 0.00169893 0.00169626 0.00058988 0.00418212 0.00038481 0.00317514 0.00134613 
0.11572583 0.01137559 0.01141939 0.00256197 0.00089359 0.00216725 0.00764581 0.00364723 0.01185717 0.00166890 0.00167399 0.00061422 0.00429053 0.00039229 0.00312190 0.00134689 
0.11637688 0.01142836 0.01137661 0.00257808 0.00088770 0.00216272 0.00766537 0.00362627 0.01228436 0.00163973 0.00165284 0.00064359 0.00439753 0.00040047 0.00306482 0.00134747 
0.11684689 0.01147676 0.01132119 0.00259427 0.00088160 0.00215659 0.00768031 0.00360267 0.01269465 0.00161149 0.00163279 0.00067825 0.00450247 0.00040936 0.00300411 0.00134788 
0.11713476 0.01152121 0.01125326 0.00261041 0.00087533 0.00214888 0.00769076 0.00357649 0.01308527 0.00158427 0.00161378 0.00071842 0.00460468 0.00041894 0.00293997 0.00134811 
0.11724016 0.01156218 0.01117299 0.00262635 0.00086891 0.00213958 0.00769693 0.00354780 0.01345361 0.00155814 0.00159578 0.00076432 0.00470351 0.00042924 0.00287263 0.00134817 
0.11716354 0.01160014 0.01108064 0.00264197 0.00086238 0.00212870 0.00769902 0.00351670 0.01379730 0.00153317 0.00157875 0.00081617 0.00479830 0.00044023 0.00280235 0.00134806 
0.11690610 0.01163556 0.01097649 0.00265713 0.00085575 0.00211628 0.00769728 0.00348328 0.01411412 0.00150942 0.00156265 0.00087413 0.00488844 0.00045191 0.00272940 0.00134779 
0.11646981 0.01166891 0.01086091 0.00267169 0.00084907 0.00210232 0.00769200 0.00344765 0.01440212 0.00148695 0.00154744 0.00093837 0.00497332 0.00046428 0.00265407 0.00134736 
0.11585741 0.01170065 0.01073427 0.00268553 0.00084235 0.00208687 0.00768348 0.00340996 0.01465952 0.00146580 0.00153308 0.00100904 0.00505237 0.00047731 0.00257667 0.00134678 
0.11507237 0.01173126 0.01059705 0.00269851 0.00083563 0.00206997 0.00767207 0.00337033 0.01488482 0.00144603 0.00151953 0.00108625 0.00512504 0.00049098 0.00249752 0.00134606 
0.11411889 0.01176117 0.01044973 0.00271049 0.00082895 0.00205165 0.00765813 0.00332893 0.01507671 0.00142767 0.00150676 0.00117011 0.00519081 0.00050528 0.00241697 0.00134521 
0.11300188 0.01179082 0.01029285 0.00272136 0.00082232 0.00203198 0.00764202 0.00328590 0.01523414 0.00141076 0.00149473 0.00126066 0.00524923 0.00052018 0.00233537 0.00134422 
0.11172692 0.01182061 0.01012700 0.00273098 0.00081577 0.00201101 0.00762416 0.00324143 0.01535629 0.00139531 0.00148342 0.00135796 0.00529984 0.00053565 0.00225309 0.00134312 
0.11030025 0.01185094 0.00995281 0.00273925 0.00080934 0.00198880 0.00760495 0.00319568 0.01544257 0.00138134 0.00147279 0.00146201 0.00534225 0.00055166 0.00217050 0.00134190 
0.10872875 0.01188215 0.00977092 0.00274604 0.00080305 0.00196543 0.00758481 0.00314885 0.01549262 0.00136887 0.00146282 0.00157279 0.00537613 0.00056818 0.00208800 0.00134058 
0.10701988 0.01191458 0.00958203 0.00275125 0.00079692 0.00194097 0.00756417 0.00310111 0.01550634 0.00135789 0.00145348 0.00169024 0.00540116 0.00058516 0.00200597 0.00133917 
0.10518163 0.01194851 0.00938686 0.00275479 0.00079098 0.00191550 0.00754348 0.00305266 0.01548382 0.00134841 0.00144475 0.00181428 0.00541712 0.00060256 0.00192483 0.00133767 
0.10322252 0.01198420 0.00918616 0.00275654 0.00078525 0.00188910 0.00752315 0.00300370 0.01542541 0.00134040 0.00143662 0.00194478 0.00542379 0.00062035 0.00184497 0.00133609 
0.10115154 0.01202184 0.00898068 0.00275644 0.00077975 0.00186187 0.00750363 0.00295441 0.01533164 0.00133386 0.00142907 0.00208159 0.00542106 0.00063847 0.00176679 0.00133445 
0.09897809 0.01206162 0.00877123 0.00275440 0.00077451 0.00183390 0.00748533 0.00290499 0.01520327 0.00132876 0.00142208 0.00222451 0.00540882 0.00065687 0.00169072 0.00133274 
0.09671194 0.01210363 0.00855858 0.00275034 0.00076955 0.00180527 0.00746868 0.00285563 0.01504124 0.00132505 0.00141566 0.00237332 0.00538705 0.00067550 0.00161715 0.00133099 
0.09436320 0.01214797 0.00834357 0.00274422 0.00076487 0.00177609 0.00745406 0.00280652 0.01484671 0.00132271 0.00140979 0.00252774 0.00535579 0.00069431 0.00154648 0.00132920 
0.09194223 0.01219464 0.00812700 0.00273597 0.00076050 0.00174646 0.00744186 0.00275785 0.01462098 0.00132169 0.00140446 0.00268748 0.00531511 0.00071324 0.00147910 0.00132738 
0.08945962 0.01224362 0.00790969 0.00272556 0.00075645 0.00171648 0.00743245 0.00270980 0.01436554 0.00132193 0.00139969 0.00285220 0.00526517 0.00073223 0.00141541 0.00132554 
0.08692612 0.01229484 0.00769247 0.00271296 0.00075274 0.00168626 0.00742616 0.00266254 0.01408202 0.00132339 0.00139546 0.00302153 0.00520615 0.00075123 0.00135577 0.00132369 
0.08435261 0.01234816 0.00747615 0.00269813 0.00074937 0.00165589 0.00742331 0.00261625 0.01377219 0.00132598 0.00139178 0.00319505 0.00513832 0.00077017 0.00130056 0.00132183 
0.08174999 0.01240341 0.00726154 0.00268109 0.00074635 0.00162548 0.00742417 0.00257108 0.01343797 0.00132966 0.00138865 0.00337234 0.00506198 0.00078900 0.00125011 0.00131998 
0.07912919 0.01246036 0.00704944 0.00266181 0.00074370 0.00159513 0.00742900 0.00252718 0.01308135 0.00133434 0.00138609 0.00355291 0.00497749 0.00080765 0.00120477 0.00131815 
0.07650108 0.01251872 0.00684063 0.00264032 0.00074141 0.00156494 0.00743800 0.00248470 0.01270445 0.00133995 0.00138409 0.00373625 0.00488527 0.00082605 0.00116484 0.00131634 
0.07387642 0.01257818 0.00663588 0.00261664 0.00073948 0.00153501 0.00745137 0.00244378 0.01230946 0.00134640 0.00138267 0.00392183 0.00478576 0.00084416 0.00113063 0.00131456 
0.07126583 0.01263837 0.00643595 0.00259080 0.00073793 0.00150544 0.00746923 0.00240452 0.01189862 0.00135362 0.00138184 0.00410909 0.00467947 0.00086190 0.00110239 0.00131283 
0.06867971 0.01269888 0.00624155 0.00256284 0.00073674 0.00147633 0.00749169 0.00236705 0.01147426 0.00136152 0.00138160 0.00429743 0.00456695 0.00087923 0.00108039 0.00131114 
0.06612819 0.01275926 0.00605338 0.00253282 0.00073591 0.00144776 0.00751880 0.00233147 0.01103870 0.00137001 0.00138196 0.00448624 0.00444878 0.00089607 0.00106484 0.00130950 
0.06362112 0.01281901 0.00587212 0.00250080 0.00073545 0.00141983 0.00755057 0.00229785 0.01059432 0.00137900 0.00138294 0.00467489 0.00432558 0.00091238 0.00105594 0.00130792 
0.06116799 0.01287763 0.00569842 0.00246686 0.00073534 0.00139261 0.00758698 0.00226629 0.01014347 0.00138840 0.00138454 0.00486270 0.00419799 0.00092809 0.00105386 0.00130641 
0.05877790 0.01293457 0.00553287 0.00243108 0.00073558 0.00136618 0.00762796 0.00223684 0.00968853 0.00139811 0.00138676 0.00504902 0.00406671 0.00094316 0.00105872 0.00130498 
0.05645950 0.01298925 0.00537607 0.00239356 0.00073615 0.00134063 0.00767337 0.00220954 0.00923181 0.00140806 0.00138963 0.00523316 0.00393242 0.00095754 0.00107065 0.00130362 
0.05422101 0.01304108 0.00522856 0.00235440 0.00073705 0.00131601 0.00772306 0.00218445 0.00877563 0.00141814 0.00139313 0.00541441 0.00379586 0.00097118 0.00108971 0.00130234 
0.05207011 0.01308945 0.00509084 0.00231370 0.00073825 0.00129240 0.00777683 0.00216159 0.00832222 0.00142826 0.00139728 0.00559209 0.00365775 0.00098403 0.00111594 0.00130115 
0.05001396 0.01313375 0.00496339 0.00227161 0.00073976 0.00126984 0.00783441 0.00214096 0.00787378 0.00143835 0.00140208 0.00576548 0.00351886 0.00099605 0.00114935 0.00130005 
0.04805917 0.01317335 0.00484664 0.00222823 0.00074154 0.00124840 0.00789553 0.00212258 0.00743240 0.00144832 0.00140752 0.00593388 0.00337993 0.00100721 0.00118992 0.00129903 
0.04621175 0.01320762 0.00474100 0.00218370 0.00074358 0.00122811 0.00795984 0.00210643 0.00700011 0.00145809 0.00141361 0.00609659 0.00324171 0.00101748 0.00123758 0.00129811 
0.04447711 0.01323595 0.00464681 0.00213817 0.00074587 0.00120901 0.00802698 0.00209248 0.00657883 0.00146757 0.00142034 0.00625292 0.00310497 0.00102683 0.00129224 0.00129729 
0.04286003 0.01325773 0.00456440 0.00209179 0.00074837 0.00119113 0.00809654 0.00208072 0.00617039 0.00147670 0.00142771 0.00640219 0.00297045 0.00103523 0.00135376 0.00129655 
0.04136466 0.01327235 0.00449405 0.00204469 0.00075108 0.00117451 0.00816808 0.00207108 0.00577648 0.00148541 0.00143570 0.00654373 0.00283888 0.00104266 0.00142198 0.00129591 
0.03999451 0.01327925 0.00443600 0.00199704 0.00075398 0.00115915 0.00824112 0.00206353 0.00539868 0.00149364 0.00144429 0.00667691 0.00271099 0.00104912 0.00149669 0.00129536 
0.03875244 0.01327788 0.00439046 0.00194900 0.00075702 0.00114507 0.00831518 0.00205800 0.00503845 0.00150132 0.00145349 0.00680110 0.00258746 0.00105458 0.00157767 0.00129490 
0.03764063 0.01326772 0.00435760 0.00190073 0.00076020 0.00113227 0.00838972 0.00205441 0.00469709 0.00150840 0.00146326 0.00691571 0.00246898 0.00105906 0.00166465 0.00129453 
0.03666065 0.01324828 0.00433754 0.00185238 0.00076349 0.00112075 0.00846419 0.00205268 0.00437578 0.00151484 0.00147359 0.00702018 0.00235618 0.00106254 0.00175731 0.00129424 
0.03581339 0.01321911 0.00433039 0.00180412 0.00076687 0.00111050 0.00853803 0.00205274 0.00407556 0.00152061 0.00148444 0.00711400 0.00224969 0.00106503 0.00185534 0.00129402 
0.03509912 0.01317983 0.00433619 0.00175612 0.00077031 0.00110151 0.00861066 0.00205447 0.00379729 0.00152565 0.00149581 0.00719667 0.00215008 0.00106655 0.00195837 0.00129387 
0.03451745 0.01313007 0.00435499 0.00170853 0.00077378 0.00109374 0.00868148 0.00205779 0.00354172 0.00152996 0.00150764 0.00726777 0.00205788 0.00106712 0.00206602 0.00129379 
0.03406742 0.01306954 0.00438676 0.00166152 0.00077727 0.00108718 0.00874991 0.00206259 0.00330944 0.00153352 0.00151992 0.00732689 0.00197358 0.00106675 0.00217786 0.00129377 
0.03374745 0.01299799 0.00443147 0.00161524 0.00078075 0.00108180 0.00881534 0.00206876 0.00310088 0.00153630 0.00153261 0.00737369 0.00189765 0.00106547 0.00229345 0.00129379 
0.03355539 0.01291523 0.00448906 0.00156985 0.00078418 0.00107754 0.00887716 0.00207618 0.00291632 0.00153832 0.00154566 0.00740790 0.00183047 0.00106331 0.00241234 0.00129385 
0.03348852 0.01282115 0.00455941 0.00152548 0.00078756 0.00107437 0.00893480 0.00208473 0.00275592 0.00153957 0.00155905 0.00742927 0.00177241 0.00106031 0.00253403 0.00129393 
0.03354363 0.01271566 0.00464240 0.00148230 0.00079086 0.00107224 0.00898766 0.00209431 0.00261967 0.00154006 0.00157272 0.00743763 0.00172375 0.00105652 0.00265802 0.00129404 
0.03371696 0.01259878 0.00473788 0.00144042 0.00079405 0.00107110 0.00903517 0.00210477 0.00250744 0.00153982 0.00158663 0.00743288 0.00168474 0.00105197 0.00278380 0.00129415 
0.03400434 0.01247058 0.00484566 0.00140000 0.00079711 0.00107088 0.00907678 0.00211602 0.00241896 0.00153886 0.00160073 0.00741496 0.00165558 0.00104671 0.00291083 0.00129425 
0.03440110 0.01233118 0.00496554 0.00136114 0.00080002 0.00107152 0.00911197 0.00212791 0.00235381 0.00153723 0.00161498 0.00738389 0.00163638 0.00104081 0.00303857 0.00129434 
0.03490221 0.01218078 0.00509729 0.00132396 0.00080277 0.00107297 0.00914022 0.00214034 0.00231150 0.00153496 0.00162933 0.00733976 0.00162724 0.00103431 0.00316648 0.00129439 
0.03550225 0.01201966 0.00524065 0.00128857 0.00080533 0.00107515 0.00916106 0.00215318 0.00229137 0.00153209 0.00164372 0.00728272 0.00162817 0.00102727 0.00329398 0.00129439 
0.03619547 0.01184815 0.00539535 0.00125507 0.00080768 0.00107800 0.00917405 0.00216631 0.00229268 0.00152869 0.00165810 0.00721300 0.00163913 0.00101977 0.00342054 0.00129433 
0.03697580 0.01166665 0.00556110 0.00122354 0.00080982 0.00108144 0.00917878 0.00217962 0.00231459 0.00152481 0.00167243 0.00713087 0.00166003 0.00101187 0.00354558 0.00129419 
0.03783693 0.01147562 0.00573757 0.00119407 0.00081172 0.00108540 0.00917488 0.00219299 0.00235616 0.00152051 0.00168664 0.00703671 0.00169070 0.00100363 0.00366856 0.00129396 
0.03877233 0.01127558 0.00592445 0.00116670 0.00081338 0.00108981 0.00916203 0.00220632 0.00241637 0.00151586 0.00170069 0.00693094 0.00173096 0.00099512 0.00378894 0.00129363 
0.03977526 0.01106711 0.00612138 0.00114151 0.00081477 0.00109460 0.00913994 0.00221951 0.00249414 0.00151093 0.00171452 0.00681406 0.00178053 0.00098643 0.00390617 0.00129317 
0.04083885 0.01085086 0.00632800 0.00111854 0.00081590 0.00109968 0.00910838 0.00223245 0.00258830 0.00150581 0.00172807 0.00668663 0.00183911 0.00097761 0.00401974 0.00129258 
0.04195609 0.01062752 0.00654393 0.00109781 0.00081675 0.00110500 0.00906717 0.00224504 0.00269764 0.00150056 0.00174130 0.00654928 0.00190633 0.00096874 0.00412914 0.00129184 
0.04311993 0.01039783 0.00676876 0.00107936 0.00081732 0.00111047 0.00901618 0.00225721 0.00282090 0.00149529 0.00175415 0.00640270 0.00198179 0.00095989 0.00423388 0.00129093 
0.04432326 0.01016256 0.00700210 0.00106318 0.00081761 0.00111602 0.00895531 0.00226886 0.00295681 0.00149006 0.00176657 0.00624765 0.00206502 0.00095115 0.00433349 0.00128983 
0.04555897 0.00992256 0.00724351 0.00104928 0.00081760 0.00112160 0.00888454 0.00227992 0.00310403 0.00148497 0.00177851 0.00608493 0.00215554 0.00094257 0.00442754 0.00128855 
0.04681997 0.00967868 0.00749258 0.00103765 0.00081730 0.00112713 0.00880390 0.00229031 0.00326123 0.00148010 0.00178992 0.00591540 0.00225279 0.00093423 0.00451560 0.00128705 
0.04809926 0.00943180 0.00774884 0.00102825 0.00081671 0.00113254 0.00871346 0.00229997 0.00342708 0.00147555 0.00180076 0.00573999 0.00235622 0.00092621 0.00459730 0.00128534 
0.04938991 0.00918287 0.00801184 0.00102106 0.00081583 0.00113779 0.00861336 0.00230885 0.00360025 0.00147140 0.00181098 0.00555966 0.00246522 0.00091856 0.00467227 0.00128340 
0.05068514 0.00893279 0.00828112 0.00101602 0.00081466 0.00114280 0.00850378 0.00231688 0.00377940 0.00146773 0.00182055 0.00537541 0.00257915 0.00091135 0.00474020 0.00128121 
0.05197831 0.00868255 0.00855620 0.00101309 0.00081322 0.00114754 0.00838498 0.00232404 0.00396324 0.00146465 0.00182941 0.00518828 0.00269735 0.00090465 0.00480081 0.00127877 
0.05326297 0.00843308 0.00883660 0.00101219 0.00081151 0.00115194 0.00825724 0.00233026 0.00415049 0.00146221 0.00183754 0.00499935 0.00281914 0.00089851 0.00485383 0.00127607 
0.05453289 0.00818537 0.00912182 0.00101325 0.00080954 0.00115597 0.00812090 0.00233553 0.00433992 0.00146052 0.00184489 0.00480974 0.00294383 0.00089299 0.00489907 0.00127311 
0.05578205 0.00794037 0.00941135 0.00101617 0.00080732 0.00115958 0.00797638 0.00233983 0.00453034 0.00145964 0.00185145 0.00462055 0.00307070 0.00088814 0.00493635 0.00126987 
0.05700472 0.00769903 0.00970471 0.00102088 0.00080486 0.00116273 0.00782410 0.00234312 0.00472061 0.00145965 0.00185717 0.00443295 0.00319903 0.00088401 0.00496555 0.00126636 
0.05819542 0.00746230 0.01000136 0.00102727 0.00080217 0.00116541 0.00766457 0.00234540 0.00490964 0.00146062 0.00186204 0.00424808 0.00332810 0.00088064 0.00498657 0.00126257 
0.05934897 0.00723109 0.01030080 0.00103522 0.00079928 0.00116757 0.00749832 0.00234667 0.00509644 0.00146260 0.00186604 0.00406711 0.00345718 0.00087807 0.00499937 0.00125850 
0.06046052 0.00700631 0.01060250 0.00104463 0.00079619 0.00116920 0.00732592 0.00234692 0.00528004 0.00146566 0.00186914 0.00389119 0.00358556 0.00087634 0.00500396 0.00125415 
0.06152552 0.00678881 0.01090594 0.00105538 0.00079293 0.00117028 0.00714800 0.00234617 0.00545959 0.00146985 0.00187134 0.00372148 0.00371250 0.00087547 0.00500036 0.00124952 
0.06253978 0.00657943 0.01121060 0.00106734 0.00078952 0.00117081 0.00696520 0.00234441 0.00563428 0.00147522 0.00187263 0.00355911 0.00383732 0.00087549 0.00498867 0.00124463 
0.06349945 0.00637894 0.01151595 0.00108038 0.00078597 0.00117077 0.00677821 0.00234168 0.00580342 0.00148179 0.00187299 0.00340522 0.00395932 0.00087641 0.00496900 0.00123947 
0.06440103 0.00618809 0.01182146 0.00109437 0.00078230 0.00117016 0.00658774 0.00233800 0.00596637 0.00148961 0.00187243 0.00326089 0.00407784 0.00087826 0.00494151 0.00123405 
0.06524140 0.00600757 0.01212661 0.00110918 0.00077854 0.00116899 0.00639452 0.00233338 0.00612261 0.00149869 0.00187095 0.00312718 0.00419223 0.00088102 0.00490643 0.00122839 
0.06601779 0.00583802 0.01243087 0.00112468 0.00077470 0.00116727 0.00619933 0.00232787 0.00627168 0.00150905 0.00186856 0.00300512 0.00430186 0.00088472 0.00486398 0.00122250 
0.06672781 0.00568000 0.01273374 0.00114072 0.00077081 0.00116500 0.00600292 0.00232150 0.00641324 0.00152070 0.00186526 0.00289568 0.00440616 0.00088935 0.00481445 0.00121638 
0.06736945 0.00553405 0.01303470 0.00115719 0.00076690 0.00116222 0.00580611 0.00231431 0.00654701 0.00153364 0.00186107 0.00279981 0.00450456 0.00089489 0.00475816 0.00121006 
0.06794104 0.00540059 0.01333325 0.00117394 0.00076298 0.00115894 0.00560969 0.00230634 0.00667283 0.00154786 0.00185602 0.00271837 0.00459655 0.00090134 0.00469545 0.00120356 
0.06844132 0.00528003 0.01362888 0.00119084 0.00075907 0.00115518 0.00541446 0.00229765 0.00679059 0.00156335 0.00185011 0.00265219 0.00468163 0.00090868 0.00462671 0.00119689 
0.06886935 0.00517267 0.01392112 0.00120777 0.00075520 0.00115099 0.00522124 0.00228828 0.00690032 0.00158007 0.00184339 0.00260200 0.00475936 0.00091688 0.00455235 0.00119007 
0.06922457 0.00507875 0.01420949 0.00122461 0.00075140 0.00114639 0.00503083 0.00227828 0.00700208 0.00159799 0.00183587 0.00256850 0.00482936 0.00092592 0.00447280 0.00118313 
0.06950677 0.00499843 0.01449353 0.00124124 0.00074767 0.00114142 0.00484404 0.00226771 0.00709606 0.00161708 0.00182759 0.00255229 0.00489125 0.00093576 0.00438854 0.00117609 
0.06971607 0.00493182 0.01477278 0.00125755 0.00074405 0.00113613 0.00466167 0.00225662 0.00718250 0.00163728 0.00181859 0.00255389 0.00494473 0.00094637 0.00430003 0.00116897 
0.06985292 0.00487892 0.01504682 0.00127342 0.00074055 0.00113056 0.00448448 0.00224507 0.00726172 0.00165854 0.00180892 0.00257376 0.00498954 0.00095772 0.00420778 0.00116181 
0.06991810 0.00483968 0.01531523 0.00128877 0.00073719 0.00112476 0.00431325 0.00223312 0.00733412 0.00168080 0.00179860 0.00261225 0.00502546 0.00096975 0.00411232 0.00115463 
0.06991268 0.00481398 0.01557760 0.00130351 0.00073398 0.00111878 0.00414870 0.00222083 0.00740016 0.00170398 0.00178770 0.00266965 0.00505233 0.00098242 0.00401416 0.00114745 
0.06983802 0.00480161 0.01583357 0.00131754 0.00073096 0.00111268 0.00399157 0.00220825 0.00746036 0.00172801 0.00177626 0.00274614 0.00507003 0.00099569 0.00391385 0.00114032 
0.06969577 0.00480229 0.01608277 0.00133080 0.00072813 0.00110649 0.00384254 0.00219544 0.00751531 0.00175280 0.00176432 0.00284181 0.00507849 0.00100950 0.00381193 0.00113325 
0.06948785 0.00481567 0.01632485 0.00134322 0.00072550 0.00110029 0.00370226 0.00218247 0.00756563 0.00177827 0.00175196 0.00295668 0.00507770 0.00102380 0.00370896 0.00112628 
0.06921638 0.00484136 0.01655951 0.00135475 0.00072310 0.00109413 0.00357136 0.00216938 0.00761201 0.00180432 0.00173921 0.00309064 0.00506768 0.00103854 0.00360547 0.00111944 
0.06888376 0.00487886 0.01678645 0.00136534 0.00072092 0.00108807 0.00345042 0.00215623 0.00765515 0.00183085 0.00172615 0.00324353 0.00504852 0.00105366 0.00350201 0.00111275 
0.06849257 0.00492764 0.01700540 0.00137495 0.00071898 0.00108217 0.00334000 0.00214308 0.00769581 0.00185776 0.00171282 0.00341506 0.00502035 0.00106910 0.00339913 0.00110625 
0.06804558 0.00498711 0.01721612 0.00138357 0.00071730 0.00107649 0.00324059 0.00212998 0.00773475 0.00188495 0.00169930 0.00360488 0.00498332 0.00108482 0.00329734 0.00109998 
0.06754574 0.00505661 0.01741837 0.00139118 0.00071586 0.00107107 0.00315266 0.00211698 0.00777277 0.00191231 0.00168563 0.00381252 0.00493766 0.00110075 0.00319717 0.00109394 
0.06699616 0.00513545 0.01761196 0.00139777 0.00071469 0.00106600 0.00307662 0.00210412 0.00781067 0.00193972 0.00167189 0.00403746 0.00488362 0.00111684 0.00309911 0.00108819 
0.06640007 0.00522288 0.01779672 0.00140335 0.00071378 0.00106132 0.00301283 0.00209146 0.00784927 0.00196707 0.00165812 0.00427905 0.00482151 0.00113303 0.00300366 0.00108274 
0.06576081 0.00531812 0.01797250 0.00140793 0.00071312 0.00105709 0.00296161 0.00207903 0.00788938 0.00199426 0.00164441 0.00453659 0.00475165 0.00114928 0.00291126 0.00107761 
0.06508184 0.00542034 0.01813916 0.00141155 0.00071273 0.00105337 0.00292322 0.00206688 0.00793179 0.00202116 0.00163079 0.00480930 0.00467442 0.00116553 0.00282236 0.00107284 
0.06436667 0.00552871 0.01829662 0.00141423 0.00071259 0.00105020 0.00289788 0.00205504 0.00797731 0.00204767 0.00161734 0.00509630 0.00459023 0.00118174 0.00273738 0.00106845 
0.06361889 0.00564234 0.01844477 0.00141603 0.00071271 0.00104766 0.00288575 0.00204354 0.00802670 0.00207368 0.00160412 0.00539666 0.00449950 0.00119785 0.00265670 0.00106445 
0.06284209 0.00576036 0.01858357 0.00141699 0.00071307 0.00104578 0.00288691 0.00203242 0.00808072 0.00209907 0.00159117 0.00570939 0.00440270 0.00121383 0.00258067 0.00106088 
0.06203991 0.00588187 0.01871298 0.00141718 0.00071366 0.00104462 0.00290144 0.00202170 0.00814008 0.00212373 0.00157855 0.00603341 0.00430032 0.00122963 0.00250962 0.00105774 
0.06121598 0.00600595 0.01883297 0.00141667 0.00071448 0.00104422 0.00292932 0.00201141 0.00820545 0.00214757 0.00156631 0.00636762 0.00419286 0.00124521 0.00244385 0.00105505 
0.06037390 0.00613171 0.01894355 0.00141554 0.00071551 0.00104462 0.00297049 0.00200157 0.00827749 0.00217049 0.00155451 0.00671083 0.00408087 0.00126055 0.00238362 0.00105283 
0.05951726 0.00625826 0.01904473 0.00141387 0.00071673 0.00104588 0.00302483 0.00199219 0.00835678 0.00219238 0.00154319 0.00706185 0.00396487 0.00127560 0.00232914 0.00105108 
0.05864956 0.00638472 0.01913654 0.00141174 0.00071814 0.00104802 0.00309219 0.00198329 0.00844387 0.00221316 0.00153238 0.00741941 0.00384543 0.00129035 0.00228061 0.00104981 
0.05777426 0.00651021 0.01921903 0.00140926 0.00071972 0.00105108 0.00317235 0.00197488 0.00853925 0.00223274 0.00152214 0.00778223 0.00372311 0.00130476 0.00223818 0.00104904 
0.05689471 0.00663392 0.01929226 0.00140652 0.00072144 0.00105509 0.00326502 0.00196697 0.00864334 0.00225105 0.00151248 0.00814900 0.00359849 0.00131882 0.00220196 0.00104876 
0.05601419 0.00675505 0.01935629 0.00140363 0.00072329 0.00106008 0.00336989 0.00195955 0.00875652 0.00226800 0.00150345 0.00851840 0.00347215 0.00133252 0.00217203 0.00104897 
0.05513583 0.00687282 0.01941120 0.00140068 0.00072525 0.00106607 0.00348659 0.00195264 0.00887909 0.00228354 0.00149507 0.00888908 0.00334465 0.00134583 0.00214844 0.00104967 
0.05426267 0.00698653 0.01945708 0.00139779 0.00072730 0.00107310 0.00361470 0.00194623 0.00901129 0.00229760 0.00148735 0.00925969 0.00321658 0.00135875 0.00213118 0.00105086 
0.05339757 0.00709550 0.01949401 0.00139505 0.00072941 0.00108116 0.00375375 0.00194032 0.00915329 0.00231013 0.00148032 0.00962890 0.00308849 0.00137127 0.00212024 0.00105253 
0.05254327 0.00719913 0.01952208 0.00139259 0.00073156 0.00109028 0.00390323 0.00193489 0.00930520 0.00232109 0.00147399 0.00999536 0.00296097 0.00138339 0.00211553 0.00105467 
0.05170233 0.00729687 0.01954140 0.00139049 0.00073372 0.00110046 0.00406260 0.00192995 0.00946704 0.00233044 0.00146835 0.01035774 0.00283454 0.00139511 0.00211696 0.00105727 
0.05087717 0.00738823 0.01955205 0.00138887 0.00073589 0.00111171 0.00423126 0.00192549 0.00963877 0.00233816 0.00146341 0.01071475 0.00270975 0.00140644 0.00212439 0.00106031 
0.05007000 0.00747279 0.01955413 0.00138782 0.00073802 0.00112404 0.00440859 0.00192148 0.00982029 0.00234421 0.00145917 0.01106510 0.00258712 0.00141737 0.00213766 0.00106377 
0.04928287 0.00755021 0.01954774 0.00138744 0.00074010 0.00113743 0.00459392 0.00191792 0.01001141 0.00234860 0.00145561 0.01140755 0.00246716 0.00142792 0.00215657 0.00106764 
0.04851763 0.00762022 0.01953295 0.00138783 0.00074211 0.00115188 0.00478656 0.00191479 0.01021188 0.00235132 0.00145272 0.01174089 0.00235034 0.00143809 0.00218089 0.00107190 
0.04777595 0.00768263 0.01950986 0.00138907 0.00074402 0.00116738 0.00498579 0.00191209 0.01042138 0.00235237 0.00145048 0.01206397 0.00223712 0.00144791 0.00221037 0.00107652 
0.04705928 0.00773734 0.01947853 0.00139123 0.00074581 0.00118391 0.00519086 0.00190979 0.01063953 0.00235177 0.00144886 0.01237567 0.00212794 0.00145737 0.00224474 0.00108148 
0.04636891 0.00778432 0.01943905 0.00139440 0.00074747 0.00120145 0.00540100 0.00190787 0.01086588 0.00234953 0.00144783 0.01267492 0.00202321 0.00146649 0.00228369 0.00108675 
0.04570591 0.00782363 0.01939146 0.00139863 0.00074896 0.00121999 0.00561541 0.00190634 0.01109990 0.00234569 0.00144735 0.01296073 0.00192332 0.00147530 0.00232690 0.00109230 
0.04507116 0.00785541 0.01933583 0.00140399 0.00075026 0.00123949 0.00583330 0.00190515 0.01134105 0.00234029 0.00144738 0.01323216 0.00182862 0.00148380 0.00237402 0.00109811 
0.04446535 0.00787991 0.01927221 0.00141053 0.00075138 0.00125992 0.00605384 0.00190432 0.01158868 0.00233337 0.00144787 0.01348834 0.00173944 0.00149201 0.00242471 0.00110414 
0.04388898 0.00789743 0.01920063 0.00141827 0.00075227 0.00128126 0.00627620 0.00190381 0.01184212 0.00232497 0.00144879 0.01372847 0.00165607 0.00149994 0.00247860 0.00111036 
0.04334237 0.00790837 0.01912113 0.00142726 0.00075294 0.00130345 0.00649955 0.00190363 0.01210065 0.00231517 0.00145006 0.01395182 0.00157877 0.00150761 0.00253530 0.00111674 
0.04282566 0.00791322 0.01903372 0.00143751 0.00075336 0.00132646 0.00672304 0.00190375 0.01236350 0.00230402 0.00145164 0.01415773 0.00150780 0.00151502 0.00259441 0.00112325 
0.04233881 0.00791253 0.01893843 0.00144903 0.00075353 0.00135024 0.00694583 0.00190418 0.01262987 0.00229160 0.00145347 0.01434564 0.00144334 0.00152220 0.00265556 0.00112986 
0.04188163 0.00790695 0.01883526 0.00146182 0.00075344 0.00137474 0.00716710 0.00190490 0.01289890 0.00227799 0.00145547 0.01451504 0.00138556 0.00152915 0.00271834 0.00113654 
0.04145377 0.00789719 0.01872422 0.00147586 0.00075307 0.00139992 0.00738601 0.00190591 0.01316973 0.00226326 0.00145760 0.01466551 0.00133461 0.00153588 0.00278234 0.00114325 
0.04105473 0.00788403 0.01860530 0.00149114 0.00075242 0.00142572 0.00760175 0.00190721 0.01344147 0.00224751 0.00145977 0.01479673 0.00129060 0.00154239 0.00284717 0.00114995 
0.04068389 0.00786832 0.01847852 0.00150762 0.00075149 0.00145208 0.00781350 0.00190880 0.01371320 0.00223083 0.00146193 0.01490844 0.00125359 0.00154869 0.00291243 0.00115664 
0.04034048 0.00785096 0.01834386 0.00152526 0.00075027 0.00147893 0.00802050 0.00191068 0.01398398 0.00221330 0.00146400 0.01500047 0.00122363 0.00155477 0.00297773 0.00116326 
0.04002366 0.00783292 0.01820131 0.00154401 0.00074877 0.00150623 0.00822197 0.00191286 0.01425289 0.00219504 0.00146591 0.01507273 0.00120073 0.00156064 0.00304271 0.00116979 
0.03973246 0.00781520 0.01805088 0.00156379 0.00074699 0.00153390 0.00841716 0.00191534 0.01451897 0.00217615 0.00146760 0.01512520 0.00118489 0.00156629 0.00310697 0.00117621 
0.03946584 0.00779886 0.01789257 0.00158453 0.00074492 0.00156188 0.00860538 0.00191815 0.01478130 0.00215673 0.00146899 0.01515796 0.00117604 0.00157171 0.00317017 0.00118249 
0.03922268 0.00778497 0.01772638 0.00160616 0.00074259 0.00159010 0.00878592 0.00192129 0.01503892 0.00213688 0.00147002 0.01517114 0.00117412 0.00157689 0.00323197 0.00118860 
0.03900181 0.00777466 0.01755233 0.00162858 0.00073999 0.00161848 0.00895815 0.00192478 0.01529093 0.00211671 0.00147062 0.01516496 0.00117903 0.00158182 0.00329205 0.00119452 
0.03880202 0.00776906 0.01737043 0.00165169 0.00073713 0.00164697 0.00912144 0.00192864 0.01553641 0.00209634 0.00147073 0.01513971 0.00119064 0.00158648 0.00335008 0.00120023 
0.03862207 0.00776931 0.01718072 0.00167538 0.00073404 0.00167549 0.00927522 0.00193290 0.01577448 0.00207587 0.00147028 0.01509576 0.00120879 0.00159085 0.00340579 0.00120571 
0.03846068 0.00777655 0.01698326 0.00169954 0.00073071 0.00170395 0.00941895 0.00193757 0.01600428 0.00205541 0.00146923 0.01503353 0.00123331 0.00159491 0.00345892 0.00121095 
0.03831662 0.00779193 0.01677809 0.00172405 0.00072718 0.00173230 0.00955214 0.00194269 0.01622498 0.00203507 0.00146752 0.01495349 0.00126400 0.00159863 0.00350921 0.00121592 
0.03818862 0.00781658 0.01656529 0.00174878 0.00072345 0.00176046 0.00967435 0.00194829 0.01643579 0.00201495 0.00146510 0.01485621 0.00130064 0.00160199 0.00355645 0.00122062 
0.03807547 0.00785161 0.01634498 0.00177361 0.00071954 0.00178834 0.00978516 0.00195440 0.01663596 0.00199517 0.00146192 0.01474228 0.00134298 0.00160496 0.00360045 0.00122503 
0.03797600 0.00789809 0.01611725 0.00179839 0.00071548 0.00181589 0.00988424 0.00196104 0.01682476 0.00197582 0.00145795 0.01461235 0.00139078 0.00160750 0.00364104 0.00122915 
0.03788906 0.00795706 0.01588226 0.00182300 0.00071129 0.00184302 0.00997128 0.00196826 0.01700153 0.00195700 0.00145315 0.01446713 0.00144375 0.00160959 0.00367807 0.00123297 
0.03781361 0.00802951 0.01564016 0.00184729 0.00070698 0.00186967 0.01004603 0.00197610 0.01716566 0.00193882 0.00144750 0.01430735 0.00150160 0.00161119 0.00371142 0.00123648 
0.03774865 0.00811638 0.01539115 0.00187112 0.00070258 0.00189576 0.01010830 0.00198457 0.01731658 0.00192136 0.00144098 0.01413379 0.00156402 0.00161227 0.00374101 0.00123968 
0.03769328 0.00821853 0.01513545 0.00189436 0.00069812 0.00192122 0.01015795 0.00199374 0.01745377 0.00190472 0.00143357 0.01394727 0.00163071 0.00161280 0.00376677 0.00124258 
0.03764670 0.00833677 0.01487328 0.00191687 0.00069362 0.00194599 0.01019490 0.00200362 0.01757679 0.00188898 0.00142527 0.01374862 0.00170132 0.00161273 0.00378866 0.00124517 
0.03760820 0.00847183 0.01460494 0.00193851 0.00068911 0.00196999 0.01021912 0.00201426 0.01768522 0.00187422 0.00141607 0.01353872 0.00177553 0.00161204 0.00380667 0.00124746 
0.03757721 0.00862434 0.01433071 0.00195915 0.00068460 0.00199316 0.01023063 0.00202570 0.01777874 0.00186053 0.00140600 0.01331845 0.00185298 0.00161069 0.00382081 0.00124946 
0.03755326 0.00879484 0.01405094 0.00197866 0.00068013 0.00201545 0.01022952 0.00203796 0.01785706 0.00184797 0.00139505 0.01308870 0.00193332 0.00160866 0.00383112 0.00125117 
0.03753600 0.00898378 0.01376597 0.00199691 0.00067572 0.00203678 0.01021593 0.00205108 0.01791998 0.00183661 0.00138326 0.01285040 0.00201620 0.00160591 0.00383767 0.00125261 
0.03752522 0.00919151 0.01347622 0.00201378 0.00067140 0.00205711 0.01019004 0.00206510 0.01796732 0.00182650 0.00137066 0.01260446 0.00210124 0.00160241 0.00384053 0.00125378 
0.03752087 0.00941828 0.01318208 0.00202917 0.00066719 0.00207638 0.01015212 0.00208003 0.01799902 0.00181772 0.00135728 0.01235179 0.00218809 0.00159814 0.00383981 0.00125470 
0.03752298 0.00966419 0.01288403 0.00204296 0.00066311 0.00209453 0.01010246 0.00209591 0.01801502 0.00181030 0.00134318 0.01209332 0.00227639 0.00159308 0.00383565 0.00125539 
0.03753178 0.00992928 0.01258253 0.00205505 0.00065918 0.00211153 0.01004141 0.00211276 0.01801537 0.00180429 0.00132840 0.01182996 0.00236576 0.00158721 0.00382818 0.00125585 
0.03754760 0.01021343 0.01227811 0.00206536 0.00065544 0.00212732 0.00996938 0.00213060 0.01800015 0.00179972 0.00131301 0.01156261 0.00245584 0.00158052 0.00381756 0.00125612 
0.03757092 0.01051642 0.01197130 0.00207381 0.00065189 0.00214187 0.00988683 0.00214945 0.01796952 0.00179663 0.00129708 0.01129216 0.00254627 0.00157300 0.00380398 0.00125619 
0.03760236 0.01083791 0.01166267 0.00208033 0.00064856 0.00215514 0.00979424 0.00216931 0.01792368 0.00179504 0.00128069 0.01101950 0.00263669 0.00156463 0.00378764 0.00125610 
0.03764267 0.01117744 0.01135280 0.00208484 0.00064547 0.00216710 0.00969216 0.00219020 0.01786290 0.00179497 0.00126391 0.01074547 0.00272676 0.00155543 0.00376873 0.00125587 
0.03769272 0.01153441 0.01104231 0.00208731 0.00064263 0.00217772 0.00958118 0.00221212 0.01778749 0.00179642 0.00124683 0.01047091 0.00281612 0.00154538 0.00374747 0.00125551 
0.03775352 0.01190814 0.01073185 0.00208769 0.00064006 0.00218698 0.00946191 0.00223506 0.01769783 0.00179941 0.00122956 0.01019663 0.00290443 0.00153451 0.00372410 0.00125504 
0.03782620 0.01229781 0.01042207 0.00208595 0.00063777 0.00219486 0.00933503 0.00225903 0.01759433 0.00180393 0.00121218 0.00992342 0.00299138 0.00152283 0.00369884 0.00125448 
0.03791198 0.01270248 0.01011364 0.00208208 0.00063577 0.00220135 0.00920121 0.00228400 0.01747746 0.00180997 0.00119481 0.00965204 0.00307663 0.00151036 0.00367194 0.00125386 
0.03801220 0.01312112 0.00980727 0.00207606 0.00063408 0.00220643 0.00906118 0.00230997 0.01734774 0.00181752 0.00117756 0.00938321 0.00315987 0.00149712 0.00364363 0.00125320 
0.03812828 0.01355260 0.00950365 0.00206791 0.00063269 0.00221011 0.00891568 0.00233690 0.01720571 0.00182656 0.00116053 0.00911764 0.00324080 0.00148314 0.00361416 0.00125251 
0.03826174 0.01399568 0.00920352 0.00205763 0.00063162 0.00221239 0.00876549 0.00236477 0.01705196 0.00183706 0.00114384 0.00885600 0.00331914 0.00146847 0.00358378 0.00125181 
0.03841417 0.01444902 0.00890761 0.00204527 0.00063086 0.00221326 0.00861137 0.00239355 0.01688713 0.00184898 0.00112762 0.00859892 0.00339461 0.00145315 0.00355272 0.00125113 
0.03858721 0.01491122 0.00861664 0.00203084 0.00063043 0.00221274 0.00845415 0.00242320 0.01671187 0.00186229 0.00111198 0.00834701 0.00346695 0.00143721 0.00352123 0.00125048 
0.03878257 0.01538078 0.00833137 0.00201441 0.00063031 0.00221084 0.00829461 0.00245368 0.01652687 0.00187694 0.00109705 0.00810084 0.00353591 0.00142073 0.00348954 0.00124988 
0.03900197 0.01585616 0.00805254 0.00199604 0.00063051 0.00220759 0.00813357 0.00248493 0.01633284 0.00189287 0.00108294 0.00786096 0.00360125 0.00140375 0.00345786 0.00124935 
0.03924718 0.01633573 0.00778089 0.00197579 0.00063102 0.00220300 0.00797186 0.00251689 0.01613053 0.00191005 0.00106979 0.00762788 0.00366275 0.00138634 0.00342644 0.00124890 
0.03951997 0.01681784 0.00751717 0.00195373 0.00063184 0.00219711 0.00781027 0.00254952 0.01592069 0.00192839 0.00105771 0.00740208 0.00372023 0.00136857 0.00339546 0.00124854 
0.03982213 0.01730078 0.00726210 0.00192997 0.00063296 0.00218995 0.00764962 0.00258274 0.01570410 0.00194785 0.00104681 0.00718401 0.00377347 0.00135050 0.00336512 0.00124830 
0.04015541 0.01778282 0.00701643 0.00190460 0.00063437 0.00218156 0.00749070 0.00261648 0.01548154 0.00196834 0.00103723 0.00697410 0.00382233 0.00133222 0.00333562 0.00124818 
0.04052156 0.01826222 0.00678085 0.00187772 0.00063605 0.00217197 0.00733427 0.00265068 0.01525382 0.00198979 0.00102906 0.00677275 0.00386664 0.00131381 0.00330711 0.00124819 
0.04092225 0.01873721 0.00655609 0.00184944 0.00063800 0.00216123 0.00718111 0.00268525 0.01502173 0.00201212 0.00102243 0.00658033 0.00390627 0.00129535 0.00327976 0.00124834 
0.04135914 0.01920605 0.00634281 0.00181988 0.00064019 0.00214940 0.00703193 0.00272011 0.01478610 0.00203525 0.00101744 0.00639720 0.00394110 0.00127692 0.00325371 0.00124865 
0.04183381 0.01966701 0.00614169 0.00178917 0.00064262 0.00213651 0.00688744 0.00275518 0.01454774 0.00205909 0.00101418 0.00622367 0.00397103 0.00125861 0.00322908 0.00124911 
0.04234774 0.02011839 0.00595338 0.00175743 0.00064526 0.00212264 0.00674831 0.00279037 0.01430745 0.00208356 0.00101275 0.00606005 0.00399598 0.00124050 0.00320598 0.00124973 
0.04290234 0.02055851 0.00577848 0.00172481 0.00064810 0.00210783 0.00661518 0.00282559 0.01406606 0.00210856 0.00101323 0.00590665 0.00401590 0.00122270 0.00318450 0.00125052 
0.04349892 0.02098577 0.00561761 0.00169142 0.00065112 0.00209216 0.00648864 0.00286075 0.01382437 0.00213400 0.00101572 0.00576372 0.00403073 0.00120529 0.00316472 0.00125147 
0.04413865 0.02139862 0.00547132 0.00165743 0.00065430 0.00207567 0.00636925 0.00289575 0.01358317 0.00215978 0.00102027 0.00563153 0.00404045 0.00118835 0.00314670 0.00125260 
0.04482260 0.02179557 0.00534016 0.00162296 0.00065762 0.00205845 0.00625750 0.00293050 0.01334326 0.00218580 0.00102695 0.00551033 0.00404506 0.00117198 0.00313046 0.00125389 
0.04555170 0.02217525 0.00522462 0.00158815 0.00066105 0.00204055 0.00615385 0.00296491 0.01310541 0.00221197 0.00103581 0.00540035 0.00404457 0.00115627 0.00311605 0.00125535 
0.04632672 0.02253634 0.00512517 0.00155316 0.00066458 0.00202204 0.00605872 0.00299887 0.01287039 0.00223819 0.00104691 0.00530182 0.00403901 0.00114131 0.00310345 0.00125697 
0.04714828 0.02287765 0.00504226 0.00151812 0.00066819 0.00200300 0.00597246 0.00303229 0.01263895 0.00226435 0.00106027 0.00521496 0.00402843 0.00112717 0.00309267 0.00125876 
0.04801685 0.02319810 0.00497626 0.00148317 0.00067185 0.00198350 0.00589535 0.00306507 0.01241181 0.00229036 0.00107591 0.00513998 0.00401290 0.00111393 0.00308368 0.00126069 
0.04893272 0.02349673 0.00492754 0.00144845 0.00067554 0.00196361 0.00582764 0.00309713 0.01218970 0.00231613 0.00109386 0.00507709 0.00399252 0.00110168 0.00307644 0.00126277 
0.04989600 0.02377271 0.00489642 0.00141410 0.00067925 0.00194340 0.00576951 0.00312836 0.01197331 0.00234154 0.00111411 0.00502649 0.00396738 0.00109050 0.00307089 0.00126499 
0.05090664 0.02402534 0.00488315 0.00138024 0.00068294 0.00192295 0.00572109 0.00315868 0.01176331 0.00236651 0.00113666 0.00498839 0.00393761 0.00108044 0.00306696 0.00126735 
0.05196438 0.02425406 0.00488797 0.00134700 0.00068662 0.00190232 0.00568242 0.00318800 0.01156036 0.00239094 0.00116148 0.00496300 0.00390335 0.00107157 0.00306458 0.00126982 
0.05306879 0.02445847 0.00491107 0.00131450 0.00069024 0.00188159 0.00565352 0.00321622 0.01136509 0.00241474 0.00118855 0.00495050 0.00386477 0.00106395 0.00306365 0.00127240 
0.05421924 0.02463830 0.00495257 0.00128286 0.00069380 0.00186082 0.00563432 0.00324328 0.01117811 0.00243783 0.00121782 0.00495109 0.00382204 0.00105765 0.00306407 0.00127508 
0.05541491 0.02479347 0.00501257 0.00125218 0.00069728 0.00184009 0.00562470 0.00326909 0.01099998 0.00246011 0.00124925 0.00496499 0.00377536 0.00105269 0.00306574 0.00127785 
0.05665479 0.02492402 0.00509110 0.00122257 0.00070066 0.00181946 0.00562448 0.00329357 0.01083129 0.00248151 0.00128276 0.00499238 0.00372493 0.00104913 0.00306853 0.00128070 
0.05793768 0.02503016 0.00518816 0.00119413 0.00070394 0.00179900 0.00563342 0.00331666 0.01067254 0.00250195 0.00131828 0.00503346 0.00367099 0.00104701 0.00307232 0.00128361 
0.05926218 0.02511227 0.00530370 0.00116693 0.00070709 0.00177877 0.00565123 0.00333829 0.01052425 0.00252135 0.00135574 0.00508844 0.00361376 0.00104634 0.00307698 0.00128657 
0.06062672 0.02517086 0.00543760 0.00114107 0.00071010 0.00175883 0.00567757 0.00335839 0.01038689 0.00253965 0.00139503 0.00515749 0.00355352 0.00104715 0.00308239 0.00128958 
0.06202954 0.02520663 0.00558971 0.00111660 0.00071297 0.00173924 0.00571203 0.00337691 0.01026092 0.00255678 0.00143605 0.00524081 0.00349052 0.00104945 0.00308840 0.00129260 
0.06346870 0.02522040 0.00575982 0.00109359 0.00071569 0.00172005 0.00575416 0.00339381 0.01014674 0.00257270 0.00147869 0.00533860 0.00342505 0.00105326 0.00309488 0.00129565 
0.06494209 0.02521315 0.00594768 0.00107210 0.00071825 0.00170132 0.00580347 0.00340903 0.01004475 0.00258734 0.00152282 0.00545102 0.00335740 0.00105857 0.00310171 0.00129869 
0.06644743 0.02518601 0.00615297 0.00105216 0.00072064 0.00168309 0.00585942 0.00342253 0.00995530 0.00260067 0.00156832 0.00557824 0.00328789 0.00106538 0.00310874 0.00130172 
0.06798229 0.02514022 0.00637535 0.00103382 0.00072286 0.00166541 0.00592143 0.00343428 0.00987872 0.00261264 0.00161504 0.00572044 0.00321682 0.00107368 0.00311586 0.00130473 
0.06954409 0.02507719 0.00661440 0.00101710 0.00072491 0.00164832 0.00598888 0.00344426 0.00981531 0.00262323 0.00166285 0.00587777 0.00314452 0.00108343 0.00312293 0.00130770 
0.07113009 0.02499841 0.00686966 0.00100201 0.00072678 0.00163185 0.00606114 0.00345244 0.00976533 0.00263241 0.00171159 0.00605035 0.00307132 0.00109463 0.00312985 0.00131063 
0.07273744 0.02490549 0.00714063 0.00098858 0.00072849 0.00161605 0.00613752 0.00345880 0.00972900 0.00264017 0.00176111 0.00623831 0.00299758 0.00110723 0.00313650 0.00131350 
0.07436316 0.02480017 0.00742676 0.00097678 0.00073002 0.00160095 0.00621734 0.00346334 0.00970652 0.00264650 0.00181125 0.00644176 0.00292362 0.00112120 0.00314278 0.00131630 
0.07600416 0.02468424 0.00772744 0.00096663 0.00073139 0.00158656 0.00629987 0.00346605 0.00969805 0.00265139 0.00186185 0.00666077 0.00284982 0.00113649 0.00314859 0.00131902 
0.07765725 0.02455960 0.00804202 0.00095810 0.00073259 0.00157291 0.00638440 0.00346693 0.00970371 0.00265486 0.00191273 0.00689540 0.00277652 0.00115305 0.00315387 0.00132166 
0.07931914 0.02442819 0.00836980 0.00095117 0.00073365 0.00156002 0.00647019 0.00346600 0.00972358 0.00265693 0.00196374 0.00714569 0.00270410 0.00117083 0.00315853 0.00132421 
0.08098649 0.02429204 0.00871004 0.00094580 0.00073455 0.00154791 0.00655649 0.00346325 0.00975770 0.00265760 0.00201470 0.00741164 0.00263290 0.00118977 0.00316251 0.00132665 
0.08265587 0.02415317 0.00906196 0.00094196 0.00073531 0.00153659 0.00664258 0.00345873 0.00980608 0.00265692 0.00206545 0.00769321 0.00256329 0.00120981 0.00316578 0.00132898 
0.08432380 0.02401369 0.00942472 0.00093961 0.00073595 0.00152606 0.00672772 0.00345244 0.00986868 0.00265493 0.00211581 0.00799035 0.00249563 0.00123088 0.00316828 0.00133120 
0.08598678 0.02387566 0.00979746 0.00093869 0.00073646 0.00151634 0.00681119 0.00344442 0.00994542 0.00265166 0.00216563 0.00830294 0.00243029 0.00125291 0.00317001 0.00133331 
0.08764127 0.02374120 0.01017927 0.00093914 0.00073687 0.00150742 0.00689230 0.00343470 0.01003618 0.00264718 0.00221474 0.00863086 0.00236762 0.00127584 0.00317094 0.00133528 
0.08928370 0.02361236 0.01056921 0.00094091 0.00073717 0.00149929 0.00697036 0.00342332 0.01014079 0.00264155 0.00226297 0.00897392 0.00230797 0.00129958 0.00317109 0.00133713 
0.09091053 0.02349121 0.01096628 0.00094394 0.00073740 0.00149196 0.00704472 0.00341034 0.01025903 0.00263482 0.00231018 0.00933189 0.00225169 0.00132406 0.00317046 0.00133886 
0.09251821 0.02337975 0.01136948 0.00094814 0.00073754 0.00148542 0.00711476 0.00339579 0.01039064 0.00262709 0.00235622 0.00970449 0.00219911 0.00134920 0.00316910 0.00134045 
0.09410321 0.02327993 0.01177775 0.00095346 0.00073762 0.00147966 0.00717989 0.00337973 0.01053531 0.00261843 0.00240093 0.01009141 0.00215057 0.00137494 0.00316703 0.00134190 
0.09566203 0.02319364 0.01219002 0.00095981 0.00073766 0.00147466 0.00723956 0.00336222 0.01069267 0.00260892 0.00244418 0.01049226 0.00210637 0.00140119 0.00316432 0.00134323 
0.09719123 0.02312266 0.01260519 0.00096711 0.00073765 0.00147040 0.00729327 0.00334331 0.01086232 0.00259866 0.00248584 0.01090664 0.00206683 0.00142787 0.00316103 0.00134442 
0.09868742 0.02306871 0.01302212 0.00097530 0.00073761 0.00146688 0.00734056 0.00332307 0.01104378 0.00258775 0.00252579 0.01133404 0.00203225 0.00145492 0.00315723 0.00134549 
0.10014728 0.02303339 0.01343968 0.00098428 0.00073756 0.00146407 0.00738101 0.00330157 0.01123655 0.00257629 0.00256391 0.01177395 0.00200289 0.00148226 0.00315302 0.00134642 
0.10156755 0.02301818 0.01385669 0.00099398 0.00073750 0.00146195 0.00741428 0.00327888 0.01144004 0.00256438 0.00260010 0.01222578 0.00197903 0.00150981 0.00314848 0.00134723 
0.10294507 0.02302442 0.01427198 0.00100433 0.00073745 0.00146050 0.00744006 0.00325506 0.01165363 0.00255214 0.00263427 0.01268887 0.00196092 0.00153752 0.00314372 0.00134792 
0.10427679 0.02305333 0.01468435 0.00101524 0.00073740 0.00145970 0.00745810 0.00323019 0.01187665 0.00253967 0.00266631 0.01316253 0.00194877 0.00156531 0.00313885 0.00134848 
0.10555973 0.02310598 0.01509260 0.00102663 0.00073738 0.00145952 0.00746822 0.00320435 0.01210835 0.00252709 0.00269617 0.01364601 0.00194281 0.00159312 0.00313400 0.00134894 
0.10679106 0.02318326 0.01549552 0.00103843 0.00073738 0.00145994 0.00747030 0.00317761 0.01234795 0.00251451 0.00272377 0.01413848 0.00194323 0.00162090 0.00312927 0.00134928 
0.10796803 0.02328594 0.01589192 0.00105057 0.00073742 0.00146093 0.00746426 0.00315005 0.01259461 0.00250206 0.00274905 0.01463909 0.00195019 0.00164859 0.00312481 0.00134951 
0.10908806 0.02341458 0.01628058 0.00106298 0.00073749 0.00146246 0.00745010 0.00312175 0.01284743 0.00248984 0.00277198 0.01514692 0.00196384 0.00167613 0.00312073 0.00134965 
0.11014868 0.02356960 0.01666032 0.00107559 0.00073760 0.00146451 0.00742789 0.00309278 0.01310546 0.00247796 0.00279252 0.01566099 0.00198431 0.00170349 0.00311718 0.00134969 
0.11114755 0.02375122 0.01702994 0.00108834 0.00073775 0.00146706 0.00739772 0.00306324 0.01336770 0.00246655 0.00281064 0.01618029 0.00201171 0.00173061 0.00311428 0.00134965 
0.11208250 0.02395950 0.01738828 0.00110116 0.00073795 0.00147008 0.00735979 0.00303318 0.01363311 0.00245570 0.00282633 0.01670375 0.00204611 0.00175746 0.00311216 0.00134952 
0.11295150 0.02419429 0.01773420 0.00111401 0.00073819 0.00147354 0.00731433 0.00300271 0.01390059 0.00244553 0.00283960 0.01723024 0.00208756 0.00178401 0.00311096 0.00134932 
0.11375266 0.02445529 0.01806655 0.00112682 0.00073846 0.00147742 0.00726161 0.00297189 0.01416901 0.00243614 0.00285044 0.01775863 0.00213610 0.00181022 0.00311080 0.00134904 
0.11448426 0.02474200 0.01838425 0.00113956 0.00073878 0.00148169 0.00720199 0.00294080 0.01443718 0.00242761 0.00285888 0.01828771 0.00219173 0.00183607 0.00311179 0.00134871 
0.11514475 0.02505376 0.01868623 0.00115219 0.00073912 0.00148633 0.00713587 0.00290953 0.01470388 0.00242005 0.00286494 0.01881626 0.00225443 0.00186154 0.00311407 0.00134831 
0.11573272 0.02538973 0.01897146 0.00116466 0.00073950 0.00149132 0.00706367 0.00287814 0.01496788 0.00241353 0.00286865 0.01934302 0.00232415 0.00188660 0.00311772 0.00134787 
0.11624695 0.02574888 0.01923895 0.00117695 0.00073989 0.00149663 0.00698589 0.00284672 0.01522787 0.00240813 0.00287007 0.01986671 0.00240082 0.00191126 0.00312287 0.00134737 
0.11668636 0.02613005 0.01948776 0.00118903 0.00074029 0.00150224 0.00690305 0.00281534 0.01548257 0.00240392 0.00286925 0.02038601 0.00248435 0.00193550 0.00312959 0.00134684 
0.11705005 0.02653189 0.01971700 0.00120087 0.00074070 0.00150813 0.00681571 0.00278408 0.01573064 0.00240097 0.00286624 0.02089961 0.00257462 0.00195930 0.00313797 0.00134628 
0.11733731 0.02695294 0.01992581 0.00121246 0.00074110 0.00151429 0.00672448 0.00275300 0.01597074 0.00239931 0.00286111 0.02140616 0.00267147 0.00198267 0.00314808 0.00134568 
0.11754755 0.02739155 0.02011342 0.00122379 0.00074147 0.00152068 0.00662996 0.00272219 0.01620153 0.00239900 0.00285394 0.02190434 0.00277473 0.00200561 0.00315998 0.00134506 
0.11768039 0.02784598 0.02027910 0.00123485 0.00074182 0.00152729 0.00653280 0.00269170 0.01642165 0.00240006 0.00284481 0.02239278 0.00288423 0.00202812 0.00317373 0.00134442 
0.11773561 0.02831435 0.02042220 0.00124564 0.00074212 0.00153411 0.00643367 0.00266161 0.01662976 0.00240251 0.00283381 0.02287017 0.00299973 0.00205019 0.00318935 0.00134377 
0.11771315 0.02879468 0.02054212 0.00125615 0.00074237 0.00154111 0.00633324 0.00263199 0.01682453 0.00240636 0.00282101 0.02333517 0.00312100 0.00207184 0.00320687 0.00134311 
0.11761310 0.02928487 0.02063835 0.00126640 0.00074254 0.00154828 0.00623218 0.00260290 0.01700463 0.00241161 0.00280652 0.02378648 0.00324779 0.00209307 0.00322631 0.00134243 
0.11743575 0.02978277 0.02071043 0.00127639 0.00074264 0.00155559 0.00613118 0.00257441 0.01716878 0.00241825 0.00279043 0.02422280 0.00337981 0.00211389 0.00324765 0.00134176 
0.11718152 0.03028613 0.02075799 0.00128614 0.00074263 0.00156304 0.00603092 0.00254658 0.01731573 0.00242624 0.00277284 0.02464289 0.00351676 0.00213431 0.00327088 0.00134108 
0.11685101 0.03079265 0.02078076 0.00129567 0.00074251 0.00157061 0.00593206 0.00251947 0.01744426 0.00243556 0.00275385 0.02504552 0.00365834 0.00215432 0.00329597 0.00134040 
0.11644497 0.03129998 0.02077850 0.00130498 0.00074227 0.00157827 0.00583526 0.00249314 0.01755321 0.00244614 0.00273356 0.02542952 0.00380422 0.00217395 0.00332288 0.00133972 
0.11596431 0.03180576 0.02075110 0.00131411 0.00074189 0.00158602 0.00574116 0.00246766 0.01764149 0.00245794 0.00271207 0.02579376 0.00395405 0.00219318 0.00335154 0.00133904 
0.11541009 0.03230758 0.02069851 0.00132308 0.00074136 0.00159383 0.00565036 0.00244309 0.01770806 0.00247088 0.00268948 0.02613715 0.00410747 0.00221203 0.00338190 0.00133837 
0.11478350 0.03280305 0.02062078 0.00133191 0.00074067 0.00160168 0.00556346 0.00241947 0.01775195 0.00248487 0.00266589 0.02645869 0.00426412 0.00223050 0.00341386 0.00133771 
0.11408591 0.03328978 0.02051802 0.00134064 0.00073981 0.00160957 0.00548099 0.00239688 0.01777231 0.00249982 0.00264141 0.02675742 0.00442362 0.00224858 0.00344733 0.00133704 
0.11331881 0.03376541 0.02039045 0.00134928 0.00073876 0.00161746 0.00540346 0.00237536 0.01776833 0.00251562 0.00261613 0.02703247 0.00458558 0.00226628 0.00348222 0.00133638 
0.11248383 0.03422762 0.02023837 0.00135788 0.00073752 0.00162535 0.00533136 0.00235497 0.01773936 0.00253216 0.00259013 0.02728303 0.00474962 0.00228358 0.00351839 0.00133573 
0.11158274 0.03467414 0.02006216 0.00136645 0.00073608 0.00163320 0.00526509 0.00233577 0.01768480 0.00254931 0.00256353 0.02750837 0.00491533 0.00230049 0.00355573 0.00133507 
0.11061744 0.03510277 0.01986229 0.00137504 0.00073443 0.00164101 0.00520504 0.00231781 0.01760421 0.00256694 0.00253639 0.02770786 0.00508233 0.00231698 0.00359410 0.00133442 
0.10958994 0.03551137 0.01963930 0.00138366 0.00073257 0.00164874 0.00515152 0.00230114 0.01749724 0.00258490 0.00250881 0.02788096 0.00525021 0.00233305 0.00363336 0.00133377 
0.10850240 0.03589790 0.01939382 0.00139235 0.00073049 0.00165638 0.00510481 0.00228582 0.01736371 0.00260305 0.00248086 0.02802721 0.00541857 0.00234867 0.00367337 0.00133311 
0.10735706 0.03626044 0.01912656 0.00140113 0.00072819 0.00166389 0.00506511 0.00227190 0.01720352 0.00262123 0.00245262 0.02814624 0.00558703 0.00236382 0.00371396 0.00133245 
0.10615630 0.03659714 0.01883830 0.00141003 0.00072568 0.00167126 0.00503258 0.00225943 0.01701676 0.00263928 0.00242416 0.02823781 0.00575518 0.00237847 0.00375498 0.00133177 
0.10490260 0.03690632 0.01852990 0.00141908 0.00072295 0.00167846 0.00500732 0.00224845 0.01680364 0.00265702 0.00239555 0.02830176 0.00592266 0.00239260 0.00379627 0.00133109 
0.10359854 0.03718640 0.01820228 0.00142829 0.00072000 0.00168546 0.00498935 0.00223903 0.01656453 0.00267430 0.00236685 0.02833803 0.00608908 0.00240617 0.00383765 0.00133039 
0.10224677 0.03743593 0.01785643 0.00143770 0.00071685 0.00169223 0.00497866 0.00223121 0.01629995 0.00269093 0.00233811 0.02834668 0.00625407 0.00241914 0.00387897 0.00132968 
0.10085008 0.03765364 0.01749341 0.00144731 0.00071349 0.00169875 0.00497515 0.00222503 0.01601057 0.00270675 0.00230938 0.02832787 0.00641729 0.00243148 0.00392006 0.00132895 
0.09941130 0.03783839 0.01711431 0.00145714 0.00070994 0.00170498 0.00497869 0.00222055 0.01569723 0.00272158 0.00228071 0.02828185 0.00657839 0.00244313 0.00396075 0.00132819 
0.09793337 0.03798921 0.01672031 0.00146720 0.00070620 0.00171089 0.00498906 0.00221780 0.01536091 0.00273524 0.00225214 0.02820901 0.00673705 0.00245406 0.00400088 0.00132741 
0.09641927 0.03810527 0.01631261 0.00147750 0.00070229 0.00171646 0.00500602 0.00221683 0.01500278 0.00274757 0.00222371 0.02810982 0.00689295 0.00246420 0.00404029 0.00132660 
0.09487208 0.03818595 0.01589245 0.00148806 0.00069823 0.00172165 0.00502924 0.00221767 0.01462414 0.00275839 0.00219544 0.02798485 0.00704579 0.00247353 0.00407882 0.00132576 
0.09329492 0.03823076 0.01546113 0.00149887 0.00069402 0.00172642 0.00505836 0.00222038 0.01422646 0.00276755 0.00216737 0.02783480 0.00719530 0.00248196 0.00411632 0.00132489 
0.09169097 0.03823940 0.01501996 0.00150993 0.00068968 0.00173075 0.00509297 0.00222497 0.01381135 0.00277488 0.00213950 0.02766042 0.00734122 0.00248946 0.00415266 0.00132397 
0.09006347 0.03821174 0.01457028 0.00152124 0.00068524 0.00173461 0.00513261 0.00223149 0.01338059 0.00278023 0.00211187 0.02746261 0.00748331 0.00249597 0.00418769 0.00132302 
0.08841567 0.03814783 0.01411346 0.00153280 0.00068071 0.00173796 0.00517677 0.00223996 0.01293607 0.00278346 0.00208449 0.02724233 0.00762135 0.00250143 0.00422128 0.00132203 
0.08675090 0.03804788 0.01365087 0.00154459 0.00067611 0.00174078 0.00522492 0.00225040 0.01247986 0.00278443 0.00205736 0.02700064 0.00775513 0.00250578 0.00425332 0.00132100 
0.08507248 0.03791227 0.01318389 0.00155661 0.00067147 0.00174302 0.00527649 0.00226283 0.01201414 0.00278301 0.00203050 0.02673866 0.00788448 0.00250896 0.00428369 0.00131992 
0.08338379 0.03774155 0.01271391 0.00156883 0.00066681 0.00174468 0.00533087 0.00227728 0.01154120 0.00277910 0.00200390 0.02645762 0.00800924 0.00251093 0.00431229 0.00131880 
0.08168818 0.03753644 0.01224231 0.00158124 0.00066215 0.00174571 0.00538744 0.00229374 0.01106347 0.00277259 0.00197758 0.02615881 0.00812928 0.00251163 0.00433904 0.00131763 
0.07998905 0.03729781 0.01177046 0.00159383 0.00065752 0.00174610 0.00544556 0.00231222 0.01058346 0.00276340 0.00195152 0.02584359 0.00824447 0.00251100 0.00436385 0.00131642 
0.07828979 0.03702669 0.01129971 0.00160657 0.00065294 0.00174582 0.00550458 0.00233272 0.01010378 0.00275144 0.00192573 0.02551336 0.00835472 0.00250900 0.00438666 0.00131516 
0.07659378 0.03672426 0.01083139 0.00161943 0.00064844 0.00174486 0.00556383 0.00235522 0.00962715 0.00273665 0.00190020 0.02516961 0.00845997 0.00250559 0.00440741 0.00131386 
0.07490440 0.03639182 0.01036680 0.00163238 0.00064404 0.00174319 0.00562264 0.00237972 0.00915630 0.00271899 0.00187493 0.02481384 0.00856015 0.00250072 0.00442605 0.00131251 
0.07322502 0.03603084 0.00990723 0.00164541 0.00063976 0.00174080 0.00568036 0.00240618 0.00869407 0.00269842 0.00184992 0.02444761 0.00865523 0.00249436 0.00444255 0.00131112 
0.07155896 0.03564287 0.00945389 0.00165848 0.00063565 0.00173769 0.00573634 0.00243457 0.00824330 0.00267494 0.00182516 0.02407251 0.00874520 0.00248647 0.00445689 0.00130970 
0.06990954 0.03522962 0.00900799 0.00167156 0.00063171 0.00173385 0.00578995 0.00246484 0.00780689 0.00264853 0.00180064 0.02369016 0.00883006 0.00247703 0.00446905 0.00130823 
0.06828002 0.03479289 0.00857067 0.00168461 0.00062797 0.00172928 0.00584055 0.00249696 0.00738772 0.00261923 0.00177636 0.02330219 0.00890983 0.00246603 0.00447905 0.00130674 
0.06667364 0.03433459 0.00814302 0.00169761 0.00062445 0.00172398 0.00588758 0.00253085 0.00698867 0.00258706 0.00175231 0.02291022 0.00898456 0.00245344 0.00448688 0.00130521 
0.06509358 0.03385669 0.00772607 0.00171053 0.00062119 0.00171796 0.00593046 0.00256644 0.00661262 0.00255208 0.00172850 0.02251592 0.00905430 0.00243926 0.00449258 0.00130366 
0.06354295 0.03336128 0.00732080 0.00172333 0.00061819 0.00171124 0.00596869 0.00260365 0.00626238 0.00251435 0.00170492 0.02212091 0.00911910 0.00242350 0.00449617 0.00130209 
0.06202482 0.03285049 0.00692814 0.00173598 0.00061548 0.00170383 0.00600178 0.00264240 0.00594073 0.00247396 0.00168157 0.02172680 0.00917907 0.00240616 0.00449769 0.00130050 
0.06054219 0.03232653 0.00654892 0.00174845 0.00061307 0.00169576 0.00602929 0.00268259 0.00565035 0.00243101 0.00165846 0.02133521 0.00923428 0.00238726 0.00449720 0.00129890 
0.05909795 0.03179165 0.00618393 0.00176071 0.00061098 0.00168707 0.00605086 0.00272409 0.00539386 0.00238563 0.00163559 0.02094770 0.00928485 0.00236683 0.00449475 0.00129731 
0.05769496 0.03124814 0.00583388 0.00177273 0.00060923 0.00167780 0.00606614 0.00276679 0.00517374 0.00233793 0.00161296 0.02056579 0.00933089 0.00234491 0.00449041 0.00129571 
0.05633595 0.03069831 0.00549941 0.00178449 0.00060783 0.00166798 0.00607487 0.00281056 0.00499238 0.00228808 0.00159059 0.02019099 0.00937252 0.00232153 0.00448426 0.00129412 
0.05502357 0.03014451 0.00518108 0.00179595 0.00060678 0.00165767 0.00607683 0.00285526 0.00485201 0.00223623 0.00156848 0.01982473 0.00940987 0.00229674 0.00447637 0.00129255 
0.05376036 0.02958906 0.00487939 0.00180709 0.00060610 0.00164693 0.00607189 0.00290074 0.00475469 0.00218256 0.00154666 0.01946839 0.00944307 0.00227062 0.00446683 0.00129101 
0.05254876 0.02903432 0.00459475 0.00181790 0.00060579 0.00163582 0.00605997 0.00294683 0.00470234 0.00212727 0.00152513 0.01912328 0.00947227 0.00224322 0.00445574 0.00128950 
0.05139109 0.02848261 0.00432750 0.00182835 0.00060586 0.00162441 0.00604105 0.00299337 0.00469668 0.00207054 0.00150392 0.01879066 0.00949761 0.00221463 0.00444319 0.00128802 
0.05028955 0.02793622 0.00407790 0.00183842 0.00060630 0.00161279 0.00601520 0.00304018 0.00473923 0.00201260 0.00148305 0.01847170 0.00951923 0.00218492 0.00442927 0.00128660 
0.04924620 0.02739743 0.00384614 0.00184810 0.00060711 0.00160104 0.00598254 0.00308708 0.00483128 0.00195367 0.00146255 0.01816749 0.00953728 0.00215421 0.00441410 0.00128523 
0.04826298 0.02686846 0.00363234 0.00185738 0.00060829 0.00158926 0.00594327 0.00313388 0.00497393 0.00189397 0.00144244 0.01787903 0.00955190 0.00212258 0.00439778 0.00128393 
0.04734169 0.02635148 0.00343653 0.00186624 0.00060983 0.00157753 0.00589766 0.00318038 0.00516801 0.00183375 0.00142276 0.01760725 0.00956323 0.00209015 0.00438042 0.00128270 
0.04648397 0.02584860 0.00325869 0.00187469 0.00061173 0.00156596 0.00584605 0.00322639 0.00541412 0.00177325 0.00140352 0.01735298 0.00957143 0.00205703 0.00436213 0.00128155 
0.04569130 0.02536185 0.00309871 0.00188271 0.00061397 0.00155468 0.00578886 0.00327170 0.00571261 0.00171271 0.00138478 0.01711694 0.00957662 0.00202335 0.00434302 0.00128048 
0.04496501 0.02489320 0.00295643 0.00189031 0.00061653 0.00154378 0.00572655 0.00331611 0.00606356 0.00165240 0.00136657 0.01689977 0.00957895 0.00198923 0.00432320 0.00127952 
0.04430628 0.02444453 0.00283160 0.00189748 0.00061941 0.00153339 0.00565966 0.00335941 0.00646679 0.00159257 0.00134892 0.01670200 0.00957855 0.00195481 0.00430278 0.00127865 
0.04371609 0.02401761 0.00272394 0.00190423 0.00062257 0.00152364 0.00558880 0.00340141 0.00692183 0.00153347 0.00133187 0.01652406 0.00957554 0.00192022 0.00428189 0.00127790 
0.04319526 0.02361411 0.00263308 0.00191056 0.00062601 0.00151466 0.00551463 0.00344189 0.00742795 0.00147536 0.00131547 0.01636628 0.00957005 0.00188562 0.00426062 0.00127726 
0.04274442 0.02323562 0.00255861 0.00191649 0.00062970 0.00150658 0.00543786 0.00348067 0.00798415 0.00141848 0.00129975 0.01622889 0.00956219 0.00185113 0.00423910 0.00127674 
0.04236402 0.02288358 0.00250005 0.00192201 0.00063361 0.00149953 0.00535926 0.00351755 0.00858915 0.00136310 0.00128477 0.01611201 0.00955209 0.00181692 0.00421743 0.00127635 
0.04205431 0.02255934 0.00245689 0.00192716 0.00063771 0.00149366 0.00527964 0.00355235 0.00924140 0.00130945 0.00127055 0.01601565 0.00953984 0.00178314 0.00419572 0.00127609 
0.04181535 0.02226410 0.00242856 0.00193193 0.00064199 0.00148911 0.00519985 0.00358489 0.00993906 0.00125776 0.00125714 0.01593975 0.00952555 0.00174992 0.00417409 0.00127597 
0.04164700 0.02199895 0.00241445 0.00193635 0.00064641 0.00148602 0.00512079 0.00361502 0.01068006 0.00120828 0.00124459 0.01588411 0.00950932 0.00171742 0.00415265 0.00127599 
0.04154892 0.02176484 0.00241391 0.00194043 0.00065093 0.00148452 0.00504338 0.00364258 0.01146205 0.00116122 0.00123293 0.01584847 0.00949124 0.00168580 0.00413149 0.00127615 
0.04152056 0.02156257 0.00242625 0.00194420 0.00065554 0.00148477 0.00496856 0.00366745 0.01228245 0.00111679 0.00122220 0.01583246 0.00947141 0.00165519 0.00411074 0.00127646 
0.04156117 0.02139282 0.00245075 0.00194766 0.00066019 0.00148689 0.00489729 0.00368949 0.01313842 0.00107519 0.00121245 0.01583562 0.00944990 0.00162575 0.00409050 0.00127691 
0.04166978 0.02125611 0.00248667 0.00195085 0.00066486 0.00149104 0.00483056 0.00370861 0.01402693 0.00103660 0.00120371 0.01585740 0.00942680 0.00159761 0.00407087 0.00127750 
0.04184522 0.02115284 0.00253324 0.00195377 0.00066950 0.00149733 0.00476935 0.00372474 0.01494471 0.00100120 0.00119601 0.01589717 0.00940219 0.00157091 0.00405196 0.00127824 
0.04208612 0.02108322 0.00258967 0.00195646 0.00067410 0.00150591 0.00471463 0.00373782 0.01588830 0.00096915 0.00118938 0.01595424 0.00937616 0.00154579 0.00403389 0.00127912 
0.04239088 0.02104735 0.00265515 0.00195893 0.00067861 0.00151690 0.00466739 0.00374781 0.01685408 0.00094059 0.00118387 0.01602783 0.00934877 0.00152237 0.00401674 0.00128015 
0.04275771 0.02104517 0.00272887 0.00196121 0.00068300 0.00153042 0.00462859 0.00375470 0.01783824 0.00091563 0.00117948 0.01611710 0.00932011 0.00150077 0.00400064 0.00128131 
0.04318461 0.02107645 0.00281000 0.00196331 0.00068724 0.00154657 0.00459917 0.00375852 0.01883685 0.00089440 0.00117625 0.01622114 0.00929025 0.00148110 0.00398569 0.00128260 
0.04366939 0.02114085 0.00289773 0.00196526 0.00069130 0.00156548 0.00458004 0.00375931 0.01984585 0.00087697 0.00117419 0.01633900 0.00925927 0.00146346 0.00397199 0.00128402 
0.04420964 0.02123784 0.00299121 0.00196707 0.00069515 0.00158723 0.00457209 0.00375715 0.02086107 0.00086343 0.00117333 0.01646968 0.00922727 0.00144796 0.00395966 0.00128557 
0.04480279 0.02136678 0.00308963 0.00196877 0.00069876 0.00161190 0.00457615 0.00375214 0.02187829 0.00085382 0.00117367 0.01661213 0.00919431 0.00143467 0.00394879 0.00128722 
0.04544606 0.02152687 0.00319217 0.00197036 0.00070211 0.00163959 0.00459302 0.00374443 0.02289319 0.00084817 0.00117521 0.01676526 0.00916049 0.00142367 0.00393951 0.00128899 
0.04613651 0.02171715 0.00329803 0.00197187 0.00070516 0.00167036 0.00462344 0.00373417 0.02390146 0.00084651 0.00117797 0.01692798 0.00912590 0.00141503 0.00393191 0.00129085 
0.04687102 0.02193655 0.00340641 0.00197331 0.00070789 0.00170425 0.00466810 0.00372158 0.02489876 0.00084881 0.00118195 0.01709914 0.00909064 0.00140880 0.00392611 0.00129280 
0.04764631 0.02218384 0.00351654 0.00197469 0.00071028 0.00174132 0.00472762 0.00370689 0.02588076 0.00085507 0.00118713 0.01727762 0.00905481 0.00140503 0.00392221 0.00129483 
0.04845896 0.02245769 0.00362768 0.00197602 0.00071232 0.00178159 0.00480254 0.00369036 0.02684318 0.00086522 0.00119351 0.01746225 0.00901852 0.00140374 0.00392034 0.00129692 
0.04930541 0.02275659 0.00373909 0.00197731 0.00071397 0.00182508 0.00489337 0.00367229 0.02778180 0.00087921 0.00120107 0.01765188 0.00898189 0.00140496 0.00392058 0.00129908 
0.05018196 0.02307896 0.00385008 0.00197857 0.00071524 0.00187179 0.00500049 0.00365302 0.02869249 0.00089696 0.00120979 0.01784537 0.00894503 0.00140869 0.00392306 0.00130127 
0.05108482 0.02342307 0.00395996 0.00197980 0.00071610 0.00192170 0.00512423 0.00363290 0.02957122 0.00091836 0.00121966 0.01804158 0.00890807 0.00141493 0.00392788 0.00130350 
0.05201006 0.02378709 0.00406811 0.00198100 0.00071654 0.00197479 0.00526483 0.00361233 0.03041412 0.00094329 0.00123063 0.01823940 0.00887115 0.00142366 0.00393514 0.00130574 
0.05295372 0.02416907 0.00417392 0.00198219 0.00071656 0.00203102 0.00542245 0.00359173 0.03121745 0.00097162 0.00124269 0.01843774 0.00883442 0.00143485 0.00394496 0.00130799 
0.05391172 0.02456699 0.00427681 0.00198335 0.00071616 0.00209032 0.00559714 0.00357155 0.03197767 0.00100319 0.00125579 0.01863554 0.00879801 0.00144847 0.00395742 0.00131024 
0.05487995 0.02497871 0.00437626 0.00198449 0.00071532 0.00215262 0.00578889 0.00355227 0.03269143 0.00103783 0.00126988 0.01883179 0.00876209 0.00146446 0.00397263 0.00131246 
0.05585427 0.02540202 0.00447177 0.00198560 0.00071406 0.00221783 0.00599756 0.00353438 0.03335560 0.00107536 0.00128494 0.01902548 0.00872682 0.00148276 0.00399068 0.00131464 
0.05683049 0.02583463 0.00456291 0.00198667 0.00071237 0.00228584 0.00622296 0.00351841 0.03396729 0.00111559 0.00130090 0.01921571 0.00869237 0.00150328 0.00401165 0.00131678 
0.05780445 0.02627418 0.00464925 0.00198770 0.00071026 0.00235653 0.00646478 0.00350489 0.03452387 0.00115830 0.00131771 0.01940157 0.00865890 0.00152595 0.00403564 0.00131885 
0.05877198 0.02671826 0.00473045 0.00198868 0.00070774 0.00242975 0.00672262 0.00349438 0.03502299 0.00120328 0.00133533 0.01958224 0.00862659 0.00155067 0.00406271 0.00132085 
0.05972896 0.02716441 0.00480617 0.00198959 0.00070482 0.00250536 0.00699599 0.00348745 0.03546257 0.00125029 0.00135368 0.01975696 0.00859563 0.00157733 0.00409293 0.00132276 
0.06067132 0.02761014 0.00487616 0.00199043 0.00070151 0.00258318 0.00728433 0.00348469 0.03584085 0.00129909 0.00137271 0.01992500 0.00856620 0.00160581 0.00412637 0.00132456 
0.06159503 0.02805290 0.00494018 0.00199119 0.00069784 0.00266304 0.00758697 0.00348667 0.03615635 0.00134945 0.00139236 0.02008574 0.00853848 0.00163600 0.00416307 0.00132626 
0.06249619 0.02849015 0.00499806 0.00199184 0.00069382 0.00274473 0.00790316 0.00349399 0.03640796 0.00140110 0.00141255 0.02023858 0.00851266 0.00166775 0.00420306 0.00132783 
0.06337098 0.02891936 0.00504967 0.00199238 0.00068948 0.00282805 0.00823208 0.00350724 0.03659484 0.00145379 0.00143322 0.02038303 0.00848893 0.00170093 0.00424639 0.00132926 
0.06421569 0.02933795 0.00509492 0.00199279 0.00068483 0.00291277 0.00857283 0.00352701 0.03671654 0.00150726 0.00145430 0.02051864 0.00846747 0.00173539 0.00429306 0.00133054 
0.06502679 0.02974342 0.00513378 0.00199305 0.00067990 0.00299865 0.00892443 0.00355387 0.03677291 0.00156125 0.00147572 0.02064505 0.00844846 0.00177099 0.00434307 0.00133167 
0.06580086 0.03013325 0.00516626 0.00199315 0.00067472 0.00308546 0.00928583 0.00358839 0.03676414 0.00161549 0.00149741 0.02076195 0.00843207 0.00180755 0.00439641 0.00133263 
0.06653467 0.03050499 0.00519240 0.00199308 0.00066932 0.00317294 0.00965594 0.00363112 0.03669078 0.00166974 0.00151930 0.02086913 0.00841849 0.00184493 0.00445306 0.00133343 
0.06722518 0.03085623 0.00521231 0.00199281 0.00066373 0.00326083 0.01003359 0.00368259 0.03655369 0.00172373 0.00154131 0.02096643 0.00840788 0.00188295 0.00451298 0.00133404 
0.06786955 0.03118463 0.00522614 0.00199234 0.00065798 0.00334885 0.01041756 0.00374329 0.03635409 0.00177720 0.00156337 0.02105376 0.00840040 0.00192146 0.00457609 0.00133447 
0.06846513 0.03148792 0.00523406 0.00199164 0.00065210 0.00343673 0.01080662 0.00381372 0.03609349 0.00182992 0.00158541 0.02113111 0.00839619 0.00196029 0.00464233 0.00133471 
0.06900951 0.03176394 0.00523631 0.00199071 0.00064613 0.00352419 0.01119945 0.00389430 0.03577375 0.00188165 0.00160737 0.02119853 0.00839539 0.00199926 0.00471160 0.00133475 
0.06950053 0.03201061 0.00523316 0.00198953 0.00064011 0.00361096 0.01159475 0.00398545 0.03539701 0.00193215 0.00162917 0.02125614 0.00839814 0.00203821 0.00478379 0.00133460 
0.06993622 0.03222598 0.00522490 0.00198808 0.00063405 0.00369673 0.01199115 0.00408753 0.03496571 0.00198119 0.00165075 0.02130411 0.00840455 0.00207698 0.00485877 0.00133426 
0.07031492 0.03240821 0.00521189 0.00198637 0.00062802 0.00378123 0.01238731 0.00420087 0.03448258 0.00202858 0.00167204 0.02134269 0.00841473 0.00211540 0.00493640 0.00133372 
0.07063519 0.03255563 0.00519448 0.00198437 0.00062202 0.00386417 0.01278185 0.00432573 0.03395061 0.00207411 0.00169299 0.02137216 0.00842875 0.00215332 0.00501650 0.00133299 
0.07089585 0.03266669 0.00517311 0.00198208 0.00061611 0.00394527 0.01317340 0.00446233 0.03337303 0.00211760 0.00171352 0.02139289 0.00844670 0.00219057 0.00509890 0.00133206 
0.07109600 0.03274003 0.00514819 0.00197950 0.00061032 0.00402425 0.01356060 0.00461085 0.03275329 0.00215887 0.00173358 0.02140528 0.00846863 0.00222702 0.00518339 0.00133095 
0.07123499 0.03277443 0.00512019 0.00197662 0.00060468 0.00410084 0.01394210 0.00477139 0.03209508 0.00219777 0.00175313 0.02140976 0.00849458 0.00226252 0.00526975 0.00132965 
0.07131246 0.03276888 0.00508960 0.00197343 0.00059922 0.00417477 0.01431657 0.00494401 0.03140225 0.00223416 0.00177210 0.02140683 0.00852459 0.00229693 0.00535775 0.00132818 
0.07132828 0.03272256 0.00505693 0.00196994 0.00059398 0.00424578 0.01468271 0.00512868 0.03067882 0.00226792 0.00179046 0.02139703 0.00855865 0.00233013 0.00544714 0.00132654 
0.07128260 0.03263484 0.00502272 0.00196615 0.00058898 0.00431363 0.01503926 0.00532534 0.02992897 0.00229893 0.00180816 0.02138091 0.00859676 0.00236199 0.00553766 0.00132474 
0.07117582 0.03250530 0.00498749 0.00196206 0.00058427 0.00437809 0.01538500 0.00553385 0.02915697 0.00232710 0.00182516 0.02135907 0.00863888 0.00239241 0.00562902 0.00132279 
0.07100859 0.03233377 0.00495182 0.00195768 0.00057986 0.00443892 0.01571877 0.00575399 0.02836721 0.00235237 0.00184142 0.02133215 0.00868499 0.00242128 0.00572093 0.00132069 
0.07078181 0.03212025 0.00491626 0.00195302 0.00057578 0.00449592 0.01603945 0.00598550 0.02756414 0.00237467 0.00185692 0.02130077 0.00873501 0.00244852 0.00581309 0.00131847 
0.07049660 0.03186503 0.00488138 0.00194809 0.00057205 0.00454889 0.01634600 0.00622802 0.02675225 0.00239398 0.00187162 0.02126561 0.00878887 0.00247405 0.00590518 0.00131614 
0.07015431 0.03156859 0.00484778 0.00194290 0.00056871 0.00459765 0.01663743 0.00648116 0.02593606 0.00241027 0.00188551 0.02122735 0.00884647 0.00249779 0.00599690 0.00131370 
0.06975649 0.03123167 0.00481601 0.00193747 0.00056577 0.00464205 0.01691283 0.00674443 0.02512006 0.00242354 0.00189857 0.02118667 0.00890771 0.00251970 0.00608790 0.00131117 
0.06930492 0.03085525 0.00478666 0.00193182 0.00056324 0.00468195 0.01717138 0.00701729 0.02430873 0.00243381 0.00191078 0.02114427 0.00897247 0.00253973 0.00617786 0.00130856 
0.06880153 0.03044054 0.00476028 0.00192596 0.00056116 0.00471721 0.01741233 0.00729914 0.02350649 0.00244112 0.00192213 0.02110084 0.00904060 0.00255785 0.00626645 0.00130590 
0.06824844 0.02998902 0.00473744 0.00191993 0.00055952 0.00474773 0.01763501 0.00758929 0.02271767 0.00244551 0.00193263 0.02105708 0.00911197 0.00257404 0.00635332 0.00130320 
0.06764791 0.02950239 0.00471868 0.00191374 0.00055834 0.00477344 0.01783885 0.00788704 0.02194651 0.00244706 0.00194227 0.02101368 0.00918640 0.00258829 0.00643815 0.00130047 
0.06700235 0.02898260 0.00470451 0.00190744 0.00055764 0.00479427 0.01802337 0.00819158 0.02119711 0.00244585 0.00195105 0.02097131 0.00926373 0.00260061 0.00652060 0.00129772 
0.06631431 0.02843183 0.00469545 0.00190104 0.00055741 0.00481018 0.01818820 0.00850208 0.02047340 0.00244198 0.00195898 0.02093065 0.00934378 0.00261102 0.00660035 0.00129499 
0.06558641 0.02785249 0.00469198 0.00189458 0.00055766 0.00482115 0.01833302 0.00881764 0.01977919 0.00243556 0.00196608 0.02089234 0.00942637 0.00261955 0.00667709 0.00129227 
0.06482140 0.02724723 0.00469456 0.00188810 0.00055839 0.00482719 0.01845766 0.00913732 0.01911803 0.00242672 0.00197235 0.02085701 0.00951130 0.00262624 0.00675050 0.00128960 
0.06402207 0.02661891 0.00470362 0.00188163 0.00055961 0.00482833 0.01856201 0.00946014 0.01849332 0.00241560 0.00197783 0.02082527 0.00959838 0.00263115 0.00682029 0.00128698 
0.06319128 0.02597058 0.00471955 0.00187522 0.00056130 0.00482462 0.01864607 0.00978507 0.01790819 0.00240236 0.00198253 0.02079770 0.00968742 0.00263435 0.00688618 0.00128444 
0.06233194 0.02530551 0.00474271 0.00186891 0.00056347 0.00481612 0.01870994 0.01011107 0.01736554 0.00238714 0.00198648 0.02077486 0.00977820 0.00263590 0.00694789 0.00128198 
0.06144697 0.02462716 0.00477344 0.00186273 0.00056610 0.00480293 0.01875380 0.01043704 0.01686800 0.00237014 0.00198971 0.02075728 0.00987054 0.00263590 0.00700519 0.00127962 
0.06053929 0.02393914 0.00481202 0.00185674 0.00056919 0.00478516 0.01877793 0.01076189 0.01641795 0.00235152 0.00199225 0.02074543 0.00996425 0.00263445 0.00705784 0.00127739 
0.05961185 0.02324524 0.00485870 0.00185097 0.00057272 0.00476295 0.01878270 0.01108448 0.01601745 0.00233146 0.00199414 0.02073978 0.01005912 0.00263166 0.00710564 0.00127529 
0.05866754 0.02254939 0.00491369 0.00184549 0.00057667 0.00473645 0.01876857 0.01140367 0.01566828 0.00231017 0.00199542 0.02074076 0.01015498 0.00262762 0.00714839 0.00127333 
0.05770922 0.02185563 0.00497714 0.00184033 0.00058104 0.00470584 0.01873608 0.01171834 0.01537192 0.00228784 0.00199613 0.02074873 0.01025164 0.00262248 0.00718593 0.00127153 
0.05673973 0.02116812 0.00504917 0.00183555 0.00058579 0.00467131 0.01868583 0.01202732 0.01512954 0.00226467 0.00199631 0.02076404 0.01034895 0.00261636 0.00721813 0.00126990 
0.05576183 0.02049113 0.00512985 0.00183120 0.00059091 0.00463306 0.01861853 0.01232949 0.01494199 0.00224085 0.00199600 0.02078700 0.01044672 0.00260938 0.00724488 0.00126846 
0.05477820 0.01982897 0.00521921 0.00182732 0.00059638 0.00459133 0.01853493 0.01262371 0.01480981 0.00221658 0.00199525 0.02081785 0.01054483 0.00260170 0.00726608 0.00126721 
0.05379147 0.01918601 0.00531721 0.00182398 0.00060217 0.00454635 0.01843585 0.01290889 0.01473320 0.00219208 0.00199410 0.02085682 0.01064313 0.00259345 0.00728169 0.00126615 
0.05280416 0.01856665 0.00542379 0.00182121 0.00060826 0.00449837 0.01832217 0.01318394 0.01471207 0.00216753 0.00199261 0.02090408 0.01074149 0.00258478 0.00729167 0.00126531 
0.05181871 0.01797531 0.00553881 0.00181908 0.00061462 0.00444766 0.01819483 0.01344779 0.01474599 0.00214312 0.00199083 0.02095975 0.01083982 0.00257584 0.00729602 0.00126468 
0.05083745 0.01741637 0.00566211 0.00181763 0.00062121 0.00439450 0.01805481 0.01369943 0.01483425 0.00211905 0.00198879 0.02102391 0.01093800 0.00256676 0.00729477 0.00126427 
0.04986263 0.01689418 0.00579346 0.00181690 0.00062802 0.00433916 0.01790312 0.01393789 0.01497580 0.00209550 0.00198656 0.02109660 0.01103596 0.00255771 0.00728797 0.00126408 
0.04889635 0.01641303 0.00593261 0.00181696 0.00063501 0.00428195 0.01774082 0.01416222 0.01516932 0.00207265 0.00198417 0.02117781 0.01113363 0.00254882 0.00727571 0.00126412 
0.04794065 0.01597714 0.00607924 0.00181784 0.00064214 0.00422314 0.01756898 0.01437154 0.01541320 0.00205066 0.00198169 0.02126748 0.01123097 0.00254023 0.00725810 0.00126439 
0.04699744 0.01559059 0.00623299 0.00181959 0.00064939 0.00416306 0.01738870 0.01456503 0.01570554 0.00202969 0.00197915 0.02136552 0.01132793 0.00253209 0.00723527 0.00126488 
0.04606851 0.01525735 0.00639346 0.00182226 0.00065672 0.00410198 0.01720109 0.01474191 0.01604418 0.00200989 0.00197660 0.02147179 0.01142449 0.00252452 0.00720739 0.00126559 
0.04515558 0.01498123 0.00656022 0.00182588 0.00066410 0.00404023 0.01700726 0.01490148 0.01642672 0.00199140 0.00197408 0.02158609 0.01152064 0.00251766 0.00717464 0.00126653 
0.04426024 0.01476585 0.00673278 0.00183049 0.00067150 0.00397810 0.01680834 0.01504309 0.01685052 0.00197435 0.00197165 0.02170821 0.01161639 0.00251162 0.00713723 0.00126769 
0.04338399 0.01461466 0.00691064 0.00183613 0.00067888 0.00391588 0.01660543 0.01516619 0.01731274 0.00195884 0.00196935 0.02183785 0.01171176 0.00250651 0.00709540 0.00126906 
0.04252824 0.01453085 0.00709323 0.00184283 0.00068621 0.00385388 0.01639963 0.01527027 0.01781030 0.00194498 0.00196721 0.02197473 0.01180677 0.00250243 0.00704939 0.00127064 
0.04169432 0.01451739 0.00727999 0.00185062 0.00069345 0.00379236 0.01619201 0.01535491 0.01833997 0.00193286 0.00196527 0.02211847 0.01190147 0.00249948 0.00699947 0.00127241 
0.04088345 0.01457700 0.00747030 0.00185952 0.00070057 0.00373162 0.01598363 0.01541977 0.01889836 0.00192255 0.00196358 0.02226870 0.01199589 0.00249773 0.00694594 0.00127438 
0.04009681 0.01471208 0.00766353 0.00186955 0.00070754 0.00367192 0.01577551 0.01546460 0.01948193 0.00191411 0.00196216 0.02242499 0.01209009 0.00249726 0.00688908 0.00127652 
0.03933550 0.01492476 0.00785903 0.00188072 0.00071433 0.00361352 0.01556864 0.01548920 0.02008701 0.00190758 0.00196106 0.02258688 0.01218414 0.00249812 0.00682922 0.00127883 
0.03860056 0.01521685 0.00805613 0.00189306 0.00072090 0.00355665 0.01536396 0.01549346 0.02070986 0.00190300 0.00196029 0.02275387 0.01227808 0.00250035 0.00676668 0.00128130 
0.03789300 0.01558984 0.00825414 0.00190655 0.00072723 0.00350155 0.01516237 0.01547738 0.02134663 0.00190038 0.00195988 0.02292544 0.01237199 0.00250399 0.00670178 0.00128391 
0.03721376 0.01604486 0.00845238 0.00192120 0.00073327 0.00344844 0.01496473 0.01544101 0.02199344 0.00189973 0.00195987 0.02310105 0.01246593 0.00250905 0.00663486 0.00128665 
0.03656376 0.01658268 0.00865013 0.00193702 0.00073901 0.00339750 0.01477183 0.01538449 0.02264638 0.00190102 0.00196027 0.02328010 0.01255995 0.00251553 0.00656626 0.00128951 
0.03594390 0.01720374 0.00884671 0.00195397 0.00074442 0.00334892 0.01458442 0.01530803 0.02330153 0.00190423 0.00196110 0.02346200 0.01265411 0.00252342 0.00649633 0.00129247 
0.03535505 0.01790806 0.00904140 0.00197205 0.00074946 0.00330286 0.01440318 0.01521193 0.02395496 0.00190933 0.00196239 0.02364613 0.01274846 0.00253270 0.00642540 0.00129551 
0.03479807 0.01869533 0.00923352 0.00199123 0.00075412 0.00325947 0.01422874 0.01509656 0.02460281 0.00191625 0.00196413 0.02383183 0.01284302 0.00254331 0.00635381 0.00129862 
0.03427384 0.01956481 0.00942238 0.00201148 0.00075836 0.00321885 0.01406166 0.01496237 0.02524127 0.00192493 0.00196634 0.02401845 0.01293782 0.00255521 0.00628189 0.00130178 
0.03378321 0.02051542 0.00960731 0.00203275 0.00076217 0.00318112 0.01390243 0.01480987 0.02586660 0.00193530 0.00196903 0.02420532 0.01303288 0.00256832 0.00620996 0.00130498 
0.03332705 0.02154566 0.00978766 0.00205502 0.00076553 0.00314635 0.01375149 0.01463964 0.02647518 0.00194726 0.00197221 0.02439174 0.01312818 0.00258256 0.00613835 0.00130820 
0.03290624 0.02265367 0.00996281 0.00207822 0.00076840 0.00311461 0.01360920 0.01445234 0.02706350 0.00196070 0.00197588 0.02457702 0.01322370 0.00259783 0.00606735 0.00131142 
0.03252167 0.02383719 0.01013214 0.00210230 0.00077079 0.00308593 0.01347588 0.01424866 0.02762819 0.00197552 0.00198003 0.02476047 0.01331940 0.00261403 0.00599726 0.00131463 
0.03217426 0.02509360 0.01029510 0.00212719 0.00077266 0.00306033 0.01335174 0.01402938 0.02816605 0.00199160 0.00198466 0.02494137 0.01341520 0.00263102 0.00592836 0.00131781 
0.03186493 0.02641992 0.01045113 0.00215281 0.00077401 0.00303780 0.01323698 0.01379532 0.02867405 0.00200881 0.00198977 0.02511902 0.01351101 0.00264867 0.00586090 0.00132095 
0.03159463 0.02781279 0.01059973 0.00217910 0.00077482 0.00301832 0.01313169 0.01354734 0.02914938 0.00202701 0.00199535 0.02529272 0.01360672 0.00266684 0.00579514 0.00132402 
0.03136431 0.02926854 0.01074043 0.00220595 0.00077508 0.00300185 0.01303592 0.01328636 0.02958941 0.00204606 0.00200138 0.02546178 0.01370219 0.00268537 0.00573130 0.00132702 
0.03117496 0.03078315 0.01087282 0.00223329 0.00077479 0.00298832 0.01294968 0.01301335 0.02999175 0.00206580 0.00200786 0.02562549 0.01379725 0.00270411 0.00566959 0.00132993 
0.03102755 0.03235229 0.01099652 0.00226101 0.00077394 0.00297764 0.01287288 0.01272929 0.03035424 0.00208609 0.00201476 0.02578319 0.01389169 0.00272287 0.00561020 0.00133274 
0.03092308 0.03397134 0.01111119 0.00228900 0.00077252 0.00296972 0.01280540 0.01243521 0.03067499 0.00210678 0.00202208 0.02593420 0.01398529 0.00274148 0.00555330 0.00133543 
