0.02733942 0.00661754 0.00326007 0.00687038 0.00134943 0.00495975 0.00188711 0.00220896 0.02036870 0.00386314 0.00116642 0.00074759 0.00328724 0.00121834 0.00170586 0.00131213 
0.02846441 0.00662062 0.00330562 0.00694676 0.00134702 0.00485176 0.00188297 0.00215916 0.02022816 0.00394794 0.00118050 0.00073800 0.00328236 0.00119946 0.00171446 0.00131175 
0.02966522 0.00662000 0.00334745 0.00701584 0.00134501 0.00474589 0.00187704 0.00211112 0.02008383 0.00403530 0.00119432 0.00073036 0.00327546 0.00118469 0.00172862 0.00131141 
0.03093957 0.00661562 0.00338532 0.00707738 0.00134339 0.00464252 0.00186929 0.00206498 0.01993607 0.00412494 0.00120780 0.00072466 0.00326655 0.00117399 0.00174836 0.00131112 
0.03228474 0.00660743 0.00341900 0.00713116 0.00134214 0.00454200 0.00185970 0.00202083 0.01978521 0.00421657 0.00122088 0.00072088 0.00325566 0.00116731 0.00177364 0.00131087 
0.03369752 0.00659541 0.00344830 0.00717701 0.00134127 0.00444471 0.00184824 0.00197876 0.01963157 0.00430990 0.00123349 0.00071899 0.00324284 0.00116454 0.00180440 0.00131067 
0.03517428 0.00657957 0.00347300 0.00721478 0.00134076 0.00435100 0.00183494 0.00193884 0.01947547 0.00440463 0.00124557 0.00071895 0.00322815 0.00116559 0.00184057 0.00131051 
0.03671094 0.00655990 0.00349295 0.00724439 0.00134060 0.00426122 0.00181980 0.00190112 0.01931720 0.00450045 0.00125707 0.00072070 0.00321165 0.00117033 0.00188203 0.00131039 
0.03830300 0.00653645 0.00350798 0.00726577 0.00134079 0.00417573 0.00180287 0.00186564 0.01915702 0.00459705 0.00126793 0.00072421 0.00319344 0.00117860 0.00192862 0.00131031 
0.03994556 0.00650927 0.00351796 0.00727890 0.00134132 0.00409486 0.00178419 0.00183242 0.01899520 0.00469412 0.00127812 0.00072939 0.00317362 0.00119024 0.00198017 0.00131028 
0.04163333 0.00647844 0.00352277 0.00728381 0.00134218 0.00401893 0.00176385 0.00180149 0.01883198 0.00479133 0.00128759 0.00073619 0.00315231 0.00120506 0.00203648 0.00131028 
0.04336067 0.00644405 0.00352231 0.00728055 0.00134335 0.00394826 0.00174192 0.00177283 0.01866759 0.00488837 0.00129630 0.00074452 0.00312963 0.00122287 0.00209731 0.00131032 
0.04512159 0.00640621 0.00351653 0.00726921 0.00134484 0.00388315 0.00171850 0.00174644 0.01850224 0.00498491 0.00130423 0.00075431 0.00310571 0.00124344 0.00216240 0.00131039 
0.04690980 0.00636505 0.00350537 0.00724990 0.00134662 0.00382388 0.00169372 0.00172231 0.01833613 0.00508063 0.00131136 0.00076546 0.00308071 0.00126654 0.00223147 0.00131049 
0.04871876 0.00632071 0.00348881 0.00722278 0.00134870 0.00377073 0.00166771 0.00170040 0.01816948 0.00517520 0.00131766 0.00077789 0.00305479 0.00129193 0.00230421 0.00131063 
0.05054166 0.00627337 0.00346688 0.00718803 0.00135105 0.00372393 0.00164062 0.00168068 0.01800244 0.00526829 0.00132314 0.00079150 0.00302811 0.00131935 0.00238027 0.00131079 
0.05237149 0.00622321 0.00343959 0.00714586 0.00135366 0.00368373 0.00161262 0.00166312 0.01783521 0.00535959 0.00132778 0.00080619 0.00300085 0.00134854 0.00245931 0.00131098 
0.05420109 0.00617041 0.00340702 0.00709651 0.00135653 0.00365033 0.00158388 0.00164766 0.01766796 0.00544877 0.00133159 0.00082184 0.00297318 0.00137924 0.00254096 0.00131119 
0.05602314 0.00611520 0.00336925 0.00704023 0.00135963 0.00362391 0.00155460 0.00163425 0.01750084 0.00553552 0.00133459 0.00083836 0.00294530 0.00141115 0.00262481 0.00131142 
0.05783025 0.00605779 0.00332641 0.00697732 0.00136297 0.00360464 0.00152499 0.00162286 0.01733402 0.00561953 0.00133679 0.00085562 0.00291740 0.00144401 0.00271045 0.00131167 
0.05961498 0.00599843 0.00327864 0.00690807 0.00136651 0.00359265 0.00149527 0.00161342 0.01716766 0.00570048 0.00133823 0.00087353 0.00288965 0.00147752 0.00279747 0.00131194 
0.06136989 0.00593735 0.00322613 0.00683279 0.00137025 0.00358804 0.00146565 0.00160589 0.01700191 0.00577810 0.00133892 0.00089196 0.00286227 0.00151141 0.00288543 0.00131223 
0.06308755 0.00587483 0.00316907 0.00675184 0.00137417 0.00359091 0.00143639 0.00160022 0.01683695 0.00585208 0.00133891 0.00091081 0.00283543 0.00154539 0.00297388 0.00131252 
0.06476063 0.00581112 0.00310771 0.00666555 0.00137826 0.00360130 0.00140772 0.00159635 0.01667292 0.00592214 0.00133825 0.00092994 0.00280934 0.00157918 0.00306237 0.00131284 
0.06638191 0.00574650 0.00304231 0.00657428 0.00138250 0.00361923 0.00137989 0.00159425 0.01650999 0.00598803 0.00133698 0.00094926 0.00278417 0.00161250 0.00315045 0.00131316 
0.06794434 0.00568125 0.00297316 0.00647842 0.00138687 0.00364469 0.00135317 0.00159386 0.01634834 0.00604948 0.00133517 0.00096864 0.00276012 0.00164510 0.00323766 0.00131349 
0.06944107 0.00561565 0.00290057 0.00637832 0.00139136 0.00367764 0.00132782 0.00159516 0.01618814 0.00610625 0.00133287 0.00098797 0.00273735 0.00167669 0.00332354 0.00131382 
0.07086550 0.00555000 0.00282489 0.00627439 0.00139594 0.00371800 0.00130409 0.00159810 0.01602958 0.00615812 0.00133016 0.00100714 0.00271604 0.00170705 0.00340764 0.00131417 
0.07221131 0.00548457 0.00274648 0.00616700 0.00140059 0.00376567 0.00128225 0.00160266 0.01587284 0.00620487 0.00132709 0.00102605 0.00269635 0.00173591 0.00348951 0.00131452 
0.07347251 0.00541966 0.00266574 0.00605654 0.00140531 0.00382051 0.00126255 0.00160882 0.01571814 0.00624630 0.00132376 0.00104457 0.00267843 0.00176305 0.00356871 0.00131488 
0.07464347 0.00535556 0.00258307 0.00594341 0.00141006 0.00388235 0.00124527 0.00161657 0.01556567 0.00628223 0.00132024 0.00106263 0.00266241 0.00178826 0.00364482 0.00131524 
0.07571896 0.00529256 0.00249892 0.00582799 0.00141483 0.00395097 0.00123064 0.00162588 0.01541567 0.00631251 0.00131661 0.00108010 0.00264842 0.00181133 0.00371741 0.00131561 
0.07669416 0.00523092 0.00241373 0.00571065 0.00141959 0.00402613 0.00121891 0.00163677 0.01526837 0.00633699 0.00131295 0.00109691 0.00263658 0.00183207 0.00378608 0.00131598 
0.07756473 0.00517094 0.00232797 0.00559179 0.00142433 0.00410758 0.00121033 0.00164923 0.01512401 0.00635555 0.00130936 0.00111295 0.00262699 0.00185033 0.00385046 0.00131636 
0.07832681 0.00511287 0.00224212 0.00547178 0.00142902 0.00419499 0.00120510 0.00166328 0.01498285 0.00636808 0.00130591 0.00112815 0.00261972 0.00186593 0.00391018 0.00131674 
0.07897706 0.00505698 0.00215668 0.00535097 0.00143363 0.00428804 0.00120346 0.00167892 0.01484516 0.00637451 0.00130269 0.00114242 0.00261485 0.00187876 0.00396489 0.00131713 
0.07951267 0.00500352 0.00207216 0.00522972 0.00143816 0.00438637 0.00120559 0.00169620 0.01471124 0.00637477 0.00129980 0.00115570 0.00261242 0.00188870 0.00401429 0.00131752 
0.07993137 0.00495272 0.00198907 0.00510838 0.00144256 0.00448957 0.00121168 0.00171512 0.01458136 0.00636882 0.00129731 0.00116790 0.00261248 0.00189564 0.00405808 0.00131793 
0.08023148 0.00490481 0.00190793 0.00498728 0.00144683 0.00459723 0.00122190 0.00173574 0.01445584 0.00635664 0.00129531 0.00117898 0.00261502 0.00189951 0.00409600 0.00131833 
0.08041189 0.00486000 0.00182925 0.00486674 0.00145093 0.00470889 0.00123639 0.00175808 0.01433500 0.00633824 0.00129388 0.00118888 0.00262006 0.00190027 0.00412782 0.00131875 
0.08047207 0.00481848 0.00175358 0.00474707 0.00145485 0.00482409 0.00125528 0.00178220 0.01421917 0.00631365 0.00129311 0.00119755 0.00262756 0.00189786 0.00415333 0.00131917 
0.08041212 0.00478045 0.00168142 0.00462857 0.00145856 0.00494233 0.00127868 0.00180813 0.01410868 0.00628291 0.00129306 0.00120495 0.00263749 0.00189227 0.00417236 0.00131960 
0.08023269 0.00474605 0.00161329 0.00451151 0.00146205 0.00506309 0.00130667 0.00183594 0.01400390 0.00624609 0.00129380 0.00121104 0.00264979 0.00188352 0.00418477 0.00132005 
0.07993505 0.00471543 0.00154970 0.00439617 0.00146528 0.00518584 0.00133931 0.00186567 0.01390517 0.00620328 0.00129541 0.00121580 0.00266438 0.00187161 0.00419046 0.00132050 
0.07952107 0.00468872 0.00149115 0.00428278 0.00146824 0.00531003 0.00137663 0.00189737 0.01381287 0.00615459 0.00129794 0.00121921 0.00268117 0.00185660 0.00418935 0.00132096 
0.07899317 0.00466602 0.00143811 0.00417159 0.00147090 0.00543510 0.00141864 0.00193111 0.01372737 0.00610016 0.00130144 0.00122125 0.00270004 0.00183854 0.00418141 0.00132143 
0.07835435 0.00464741 0.00139107 0.00406282 0.00147326 0.00556047 0.00146533 0.00196694 0.01364905 0.00604014 0.00130597 0.00122193 0.00272087 0.00181752 0.00416664 0.00132192 
0.07760816 0.00463295 0.00135046 0.00395666 0.00147528 0.00568555 0.00151665 0.00200492 0.01357828 0.00597469 0.00131157 0.00122124 0.00274351 0.00179363 0.00414507 0.00132241 
0.07675868 0.00462269 0.00131671 0.00385330 0.00147695 0.00580976 0.00157253 0.00204508 0.01351546 0.00590401 0.00131826 0.00121919 0.00276779 0.00176698 0.00411676 0.00132291 
0.07581050 0.00461664 0.00129023 0.00375291 0.00147826 0.00593251 0.00163287 0.00208750 0.01346098 0.00582830 0.00132607 0.00121580 0.00279354 0.00173771 0.00408183 0.00132343 
0.07476867 0.00461479 0.00127138 0.00365565 0.00147919 0.00605320 0.00169756 0.00213220 0.01341522 0.00574778 0.00133502 0.00121109 0.00282058 0.00170595 0.00404039 0.00132395 
0.07363871 0.00461711 0.00126052 0.00356166 0.00147973 0.00617125 0.00176643 0.00217924 0.01337856 0.00566270 0.00134513 0.00120510 0.00284870 0.00167186 0.00399263 0.00132448 
0.07242655 0.00462356 0.00125795 0.00347105 0.00147985 0.00628608 0.00183930 0.00222864 0.01335138 0.00557330 0.00135637 0.00119785 0.00287768 0.00163562 0.00393873 0.00132502 
0.07113851 0.00463405 0.00126396 0.00338394 0.00147956 0.00639710 0.00191599 0.00228044 0.01333407 0.00547986 0.00136876 0.00118939 0.00290730 0.00159741 0.00387894 0.00132557 
0.06978126 0.00464849 0.00127878 0.00330041 0.00147884 0.00650377 0.00199625 0.00233466 0.01332698 0.00538265 0.00138227 0.00117976 0.00293734 0.00155741 0.00381350 0.00132612 
0.06836176 0.00466676 0.00130263 0.00322054 0.00147769 0.00660553 0.00207983 0.00239132 0.01333049 0.00528195 0.00139687 0.00116903 0.00296754 0.00151582 0.00374271 0.00132667 
0.06688725 0.00468872 0.00133565 0.00314440 0.00147609 0.00670185 0.00216645 0.00245041 0.01334493 0.00517808 0.00141252 0.00115724 0.00299768 0.00147286 0.00366688 0.00132723 
0.06536521 0.00471419 0.00137798 0.00307203 0.00147406 0.00679224 0.00225583 0.00251194 0.01337064 0.00507132 0.00142918 0.00114446 0.00302749 0.00142873 0.00358635 0.00132778 
0.06380327 0.00474301 0.00142969 0.00300348 0.00147157 0.00687621 0.00234763 0.00257589 0.01340794 0.00496201 0.00144679 0.00113075 0.00305673 0.00138365 0.00350148 0.00132833 
0.06220923 0.00477496 0.00149081 0.00293876 0.00146864 0.00695330 0.00244152 0.00264223 0.01345714 0.00485044 0.00146530 0.00111619 0.00308515 0.00133784 0.00341264 0.00132887 
0.06059096 0.00480983 0.00156132 0.00287789 0.00146526 0.00702308 0.00253715 0.00271094 0.01351853 0.00473696 0.00148462 0.00110085 0.00311249 0.00129152 0.00332023 0.00132939 
0.05895639 0.00484738 0.00164118 0.00282087 0.00146144 0.00708516 0.00263414 0.00278196 0.01359237 0.00462187 0.00150468 0.00108481 0.00313850 0.00124491 0.00322467 0.00132991 
0.05731343 0.00488734 0.00173027 0.00276769 0.00145719 0.00713918 0.00273211 0.00285523 0.01367891 0.00450551 0.00152538 0.00106815 0.00316295 0.00119823 0.00312639 0.00133040 
0.05566999 0.00492947 0.00182844 0.00271832 0.00145251 0.00718480 0.00283067 0.00293069 0.01377838 0.00438821 0.00154664 0.00105094 0.00318558 0.00115171 0.00302582 0.00133088 
0.05403384 0.00497346 0.00193548 0.00267275 0.00144741 0.00722175 0.00292941 0.00300825 0.01389096 0.00427028 0.00156834 0.00103328 0.00320618 0.00110555 0.00292341 0.00133133 
0.05241265 0.00501904 0.00205115 0.00263092 0.00144191 0.00724976 0.00302793 0.00308782 0.01401684 0.00415204 0.00159038 0.00101524 0.00322451 0.00105996 0.00281961 0.00133175 
0.05081392 0.00506591 0.00217516 0.00259280 0.00143602 0.00726864 0.00312581 0.00316928 0.01415614 0.00403383 0.00161264 0.00099692 0.00324037 0.00101515 0.00271487 0.00133213 
0.04924491 0.00511375 0.00230716 0.00255833 0.00142975 0.00727821 0.00322262 0.00325252 0.01430900 0.00391593 0.00163500 0.00097839 0.00325355 0.00097131 0.00260967 0.00133247 
0.04771263 0.00516226 0.00244676 0.00252745 0.00142313 0.00727835 0.00331797 0.00333741 0.01447549 0.00379866 0.00165733 0.00095974 0.00326387 0.00092862 0.00250444 0.00133278 
0.04622381 0.00521112 0.00259354 0.00250009 0.00141616 0.00726898 0.00341143 0.00342380 0.01465566 0.00368232 0.00167951 0.00094106 0.00327114 0.00088727 0.00239964 0.00133303 
0.04478484 0.00526002 0.00274703 0.00247618 0.00140888 0.00725007 0.00350261 0.00351154 0.01484952 0.00356719 0.00170139 0.00092243 0.00327522 0.00084741 0.00229572 0.00133323 
0.04340174 0.00530865 0.00290672 0.00245565 0.00140131 0.00722162 0.00359110 0.00360045 0.01505707 0.00345355 0.00172285 0.00090393 0.00327597 0.00080921 0.00219311 0.00133338 
0.04208015 0.00535669 0.00307205 0.00243841 0.00139346 0.00718369 0.00367653 0.00369037 0.01527824 0.00334166 0.00174375 0.00088564 0.00327325 0.00077280 0.00209224 0.00133347 
0.04082529 0.00540386 0.00324245 0.00242437 0.00138537 0.00713639 0.00375851 0.00378111 0.01551294 0.00323178 0.00176394 0.00086763 0.00326698 0.00073831 0.00199351 0.00133349 
0.03964191 0.00544986 0.00341731 0.00241346 0.00137706 0.00707984 0.00383670 0.00387247 0.01576103 0.00312415 0.00178329 0.00084999 0.00325705 0.00070586 0.00189732 0.00133344 
0.03853431 0.00549442 0.00359596 0.00240557 0.00136856 0.00701425 0.00391077 0.00396424 0.01602236 0.00301900 0.00180167 0.00083278 0.00324341 0.00067555 0.00180405 0.00133332 
0.03750630 0.00553726 0.00377775 0.00240061 0.00135990 0.00693983 0.00398039 0.00405622 0.01629672 0.00291654 0.00181893 0.00081606 0.00322602 0.00064747 0.00171406 0.00133312 
0.03656118 0.00557815 0.00396197 0.00239850 0.00135110 0.00685686 0.00404527 0.00414818 0.01658383 0.00281696 0.00183495 0.00079991 0.00320484 0.00062168 0.00162768 0.00133285 
0.03570174 0.00561686 0.00414792 0.00239913 0.00134219 0.00676565 0.00410516 0.00423990 0.01688343 0.00272045 0.00184960 0.00078438 0.00317989 0.00059826 0.00154522 0.00133249 
0.03493022 0.00565319 0.00433486 0.00240241 0.00133322 0.00666655 0.00415982 0.00433115 0.01719517 0.00262718 0.00186275 0.00076953 0.00315118 0.00057723 0.00146698 0.00133205 
0.03424837 0.00568695 0.00452204 0.00240823 0.00132420 0.00655995 0.00420904 0.00442169 0.01751867 0.00253730 0.00187429 0.00075541 0.00311875 0.00055862 0.00139321 0.00133152 
0.03365737 0.00571799 0.00470872 0.00241651 0.00131516 0.00644625 0.00425265 0.00451128 0.01785352 0.00245094 0.00188410 0.00074206 0.00308268 0.00054246 0.00132416 0.00133090 
0.03315789 0.00574619 0.00489414 0.00242715 0.00130614 0.00632591 0.00429050 0.00459969 0.01819924 0.00236822 0.00189208 0.00072952 0.00304304 0.00052872 0.00126002 0.00133019 
0.03275005 0.00577146 0.00507754 0.00244004 0.00129717 0.00619942 0.00432249 0.00468668 0.01855535 0.00228925 0.00189813 0.00071783 0.00299994 0.00051741 0.00120098 0.00132940 
0.03243347 0.00579374 0.00525817 0.00245510 0.00128828 0.00606727 0.00434855 0.00477200 0.01892128 0.00221410 0.00190216 0.00070702 0.00295351 0.00050849 0.00114719 0.00132851 
0.03220725 0.00581300 0.00543529 0.00247222 0.00127949 0.00592999 0.00436865 0.00485542 0.01929644 0.00214284 0.00190410 0.00069712 0.00290389 0.00050190 0.00109877 0.00132753 
0.03207000 0.00582925 0.00560817 0.00249131 0.00127083 0.00578815 0.00438279 0.00493670 0.01968021 0.00207553 0.00190387 0.00068814 0.00285127 0.00049760 0.00105580 0.00132647 
0.03201985 0.00584253 0.00577610 0.00251229 0.00126233 0.00564230 0.00439101 0.00501560 0.02007190 0.00201221 0.00190143 0.00068011 0.00279582 0.00049552 0.00101834 0.00132531 
0.03205446 0.00585294 0.00593838 0.00253505 0.00125402 0.00549304 0.00439340 0.00509191 0.02047080 0.00195288 0.00189673 0.00067302 0.00273774 0.00049556 0.00098643 0.00132407 
0.03217107 0.00586060 0.00609434 0.00255951 0.00124593 0.00534094 0.00439008 0.00516539 0.02087615 0.00189756 0.00188972 0.00066688 0.00267725 0.00049765 0.00096005 0.00132275 
0.03236649 0.00586567 0.00624335 0.00258557 0.00123806 0.00518663 0.00438121 0.00523583 0.02128716 0.00184624 0.00188040 0.00066169 0.00261460 0.00050166 0.00093919 0.00132134 
0.03263718 0.00586836 0.00638481 0.00261316 0.00123046 0.00503070 0.00436699 0.00530302 0.02170298 0.00179889 0.00186875 0.00065744 0.00255004 0.00050750 0.00092377 0.00131986 
0.03297921 0.00586891 0.00651814 0.00264218 0.00122313 0.00487378 0.00434766 0.00536677 0.02212276 0.00175548 0.00185479 0.00065413 0.00248382 0.00051503 0.00091370 0.00131831 
0.03338834 0.00586761 0.00664283 0.00267255 0.00121610 0.00471645 0.00432348 0.00542688 0.02254559 0.00171595 0.00183852 0.00065173 0.00241622 0.00052413 0.00090888 0.00131669 
0.03386005 0.00586477 0.00675838 0.00270418 0.00120939 0.00455934 0.00429478 0.00548317 0.02297052 0.00168023 0.00182000 0.00065022 0.00234753 0.00053466 0.00090915 0.00131500 
0.03438956 0.00586078 0.00686438 0.00273700 0.00120300 0.00440303 0.00426189 0.00553549 0.02339659 0.00164826 0.00179925 0.00064958 0.00227805 0.00054648 0.00091435 0.00131326 
0.03497185 0.00585601 0.00696043 0.00277092 0.00119696 0.00424812 0.00422520 0.00558366 0.02382280 0.00161995 0.00177635 0.00064977 0.00220806 0.00055943 0.00092429 0.00131146 
0.03560174 0.00585092 0.00704620 0.00280586 0.00119127 0.00409517 0.00418512 0.00562756 0.02424812 0.00159520 0.00175137 0.00065077 0.00213790 0.00057338 0.00093875 0.00130962 
0.03627391 0.00584597 0.00712142 0.00284175 0.00118595 0.00394473 0.00414208 0.00566705 0.02467152 0.00157390 0.00172440 0.00065254 0.00206786 0.00058816 0.00095749 0.00130775 
0.03698291 0.00584167 0.00718587 0.00287850 0.00118099 0.00379735 0.00409657 0.00570203 0.02509191 0.00155595 0.00169555 0.00065503 0.00199826 0.00060361 0.00098026 0.00130584 
0.03772324 0.00583854 0.00723939 0.00291604 0.00117642 0.00365353 0.00404907 0.00573238 0.02550822 0.00154121 0.00166492 0.00065819 0.00192942 0.00061959 0.00100679 0.00130391 
0.03848937 0.00583716 0.00728188 0.00295428 0.00117222 0.00351376 0.00400010 0.00575802 0.02591934 0.00152957 0.00163266 0.00066199 0.00186165 0.00063593 0.00103678 0.00130197 
0.03927575 0.00583810 0.00731332 0.00299316 0.00116841 0.00337851 0.00395019 0.00577890 0.02632416 0.00152089 0.00159891 0.00066637 0.00179527 0.00065248 0.00106994 0.00130002 
0.04007691 0.00584197 0.00733372 0.00303260 0.00116498 0.00324820 0.00389992 0.00579495 0.02672156 0.00151502 0.00156382 0.00067128 0.00173059 0.00066909 0.00110594 0.00129807 
0.04088744 0.00584940 0.00734317 0.00307252 0.00116192 0.00312324 0.00384983 0.00580614 0.02711042 0.00151183 0.00152755 0.00067666 0.00166791 0.00068560 0.00114447 0.00129613 
0.04170207 0.00586103 0.00734183 0.00311284 0.00115924 0.00300399 0.00380052 0.00581244 0.02748961 0.00151117 0.00149029 0.00068246 0.00160753 0.00070186 0.00118519 0.00129421 
0.04251564 0.00587750 0.00732991 0.00315350 0.00115693 0.00289078 0.00375258 0.00581386 0.02785801 0.00151290 0.00145222 0.00068862 0.00154974 0.00071774 0.00122777 0.00129232 
0.04332323 0.00589948 0.00730768 0.00319441 0.00115498 0.00278392 0.00370660 0.00581041 0.02821453 0.00151686 0.00141354 0.00069508 0.00149482 0.00073310 0.00127185 0.00129047 
0.04412008 0.00592762 0.00727549 0.00323549 0.00115339 0.00268367 0.00366317 0.00580211 0.02855805 0.00152291 0.00137445 0.00070179 0.00144305 0.00074780 0.00131709 0.00128866 
0.04490174 0.00596257 0.00723371 0.00327667 0.00115213 0.00259025 0.00362290 0.00578901 0.02888749 0.00153090 0.00133517 0.00070868 0.00139467 0.00076173 0.00136316 0.00128690 
0.04566397 0.00600499 0.00718281 0.00331788 0.00115121 0.00250385 0.00358637 0.00577116 0.02920181 0.00154068 0.00129591 0.00071570 0.00134993 0.00077476 0.00140969 0.00128521 
0.04640289 0.00605552 0.00712328 0.00335903 0.00115060 0.00242462 0.00355416 0.00574865 0.02949995 0.00155211 0.00125690 0.00072279 0.00130906 0.00078679 0.00145637 0.00128359 
0.04711490 0.00611477 0.00705569 0.00340005 0.00115029 0.00235266 0.00352684 0.00572156 0.02978094 0.00156505 0.00121837 0.00072989 0.00127228 0.00079771 0.00150284 0.00128204 
0.04779678 0.00618335 0.00698063 0.00344086 0.00115027 0.00228805 0.00350497 0.00568999 0.03004378 0.00157934 0.00118054 0.00073694 0.00123978 0.00080745 0.00154880 0.00128058 
0.04844564 0.00626183 0.00689876 0.00348138 0.00115052 0.00223083 0.00348909 0.00565407 0.03028757 0.00159487 0.00114365 0.00074389 0.00121173 0.00081590 0.00159391 0.00127922 
0.04905901 0.00635075 0.00681075 0.00352152 0.00115102 0.00218098 0.00347970 0.00561393 0.03051141 0.00161150 0.00110793 0.00075068 0.00118830 0.00082301 0.00163788 0.00127795 
0.04963478 0.00645063 0.00671735 0.00356123 0.00115176 0.00213846 0.00347730 0.00556971 0.03071448 0.00162911 0.00107361 0.00075727 0.00116964 0.00082871 0.00168040 0.00127680 
0.05017127 0.00656194 0.00661930 0.00360040 0.00115272 0.00210321 0.00348235 0.00552156 0.03089598 0.00164758 0.00104093 0.00076360 0.00115585 0.00083294 0.00172121 0.00127575 
0.05066719 0.00668511 0.00651741 0.00363897 0.00115388 0.00207511 0.00349528 0.00546967 0.03105520 0.00166679 0.00101011 0.00076963 0.00114704 0.00083567 0.00176004 0.00127482 
0.05112169 0.00682050 0.00641247 0.00367685 0.00115522 0.00205402 0.00351649 0.00541419 0.03119148 0.00168664 0.00098137 0.00077531 0.00114330 0.00083686 0.00179663 0.00127401 
0.05153432 0.00696845 0.00630533 0.00371397 0.00115672 0.00203975 0.00354635 0.00535533 0.03130422 0.00170704 0.00095493 0.00078061 0.00114467 0.00083649 0.00183077 0.00127333 
0.05190506 0.00712923 0.00619683 0.00375024 0.00115837 0.00203211 0.00358516 0.00529327 0.03139288 0.00172788 0.00093100 0.00078547 0.00115120 0.00083455 0.00186224 0.00127278 
0.05223429 0.00730305 0.00608782 0.00378560 0.00116015 0.00203085 0.00363322 0.00522824 0.03145702 0.00174908 0.00090978 0.00078987 0.00116291 0.00083104 0.00189085 0.00127236 
0.05252281 0.00749006 0.00597916 0.00381996 0.00116204 0.00203573 0.00369077 0.00516043 0.03149626 0.00177058 0.00089146 0.00079378 0.00117978 0.00082596 0.00191643 0.00127208 
0.05277182 0.00769033 0.00587172 0.00385325 0.00116403 0.00204644 0.00375801 0.00509007 0.03151028 0.00179229 0.00087623 0.00079716 0.00120179 0.00081932 0.00193882 0.00127193 
0.05298289 0.00790389 0.00576634 0.00388539 0.00116609 0.00206269 0.00383508 0.00501738 0.03149888 0.00181416 0.00086425 0.00079999 0.00122890 0.00081117 0.00195791 0.00127192 
0.05315797 0.00813068 0.00566386 0.00391632 0.00116821 0.00208415 0.00392209 0.00494260 0.03146191 0.00183614 0.00085569 0.00080225 0.00126103 0.00080153 0.00197359 0.00127204 
0.05329935 0.00837056 0.00556511 0.00394597 0.00117038 0.00211046 0.00401909 0.00486596 0.03139934 0.00185818 0.00085068 0.00080393 0.00129810 0.00079044 0.00198577 0.00127231 
0.05340966 0.00862334 0.00547090 0.00397426 0.00117258 0.00214128 0.00412610 0.00478770 0.03131118 0.00188024 0.00084936 0.00080500 0.00134000 0.00077796 0.00199439 0.00127270 
0.05349183 0.00888874 0.00538199 0.00400114 0.00117480 0.00217622 0.00424306 0.00470805 0.03119758 0.00190228 0.00085184 0.00080545 0.00138659 0.00076415 0.00199942 0.00127323 
0.05354908 0.00916640 0.00529914 0.00402654 0.00117702 0.00221489 0.00436990 0.00462726 0.03105874 0.00192430 0.00085822 0.00080529 0.00143774 0.00074907 0.00200083 0.00127389 
0.05358489 0.00945590 0.00522304 0.00405042 0.00117924 0.00225691 0.00450646 0.00454557 0.03089498 0.00194626 0.00086859 0.00080451 0.00149327 0.00073280 0.00199862 0.00127467 
0.05360296 0.00975675 0.00515438 0.00407271 0.00118145 0.00230188 0.00465257 0.00446322 0.03070670 0.00196817 0.00088300 0.00080310 0.00155301 0.00071540 0.00199284 0.00127558 
0.05360717 0.01006835 0.00509377 0.00409337 0.00118362 0.00234939 0.00480798 0.00438046 0.03049438 0.00199001 0.00090152 0.00080108 0.00161675 0.00069698 0.00198352 0.00127661 
0.05360159 0.01039007 0.00504179 0.00411235 0.00118577 0.00239904 0.00497240 0.00429752 0.03025861 0.00201179 0.00092415 0.00079844 0.00168429 0.00067761 0.00197072 0.00127774 
0.05359042 0.01072118 0.00499896 0.00412962 0.00118788 0.00245042 0.00514551 0.00421465 0.03000006 0.00203352 0.00095093 0.00079521 0.00175539 0.00065740 0.00195455 0.00127898 
0.05357793 0.01106090 0.00496576 0.00414514 0.00118993 0.00250314 0.00532693 0.00413208 0.02971949 0.00205521 0.00098184 0.00079140 0.00182981 0.00063642 0.00193509 0.00128032 
0.05356847 0.01140838 0.00494259 0.00415888 0.00119194 0.00255679 0.00551623 0.00405003 0.02941775 0.00207687 0.00101686 0.00078701 0.00190731 0.00061480 0.00191247 0.00128176 
0.05356642 0.01176270 0.00492980 0.00417083 0.00119389 0.00261100 0.00571296 0.00396875 0.02909577 0.00209853 0.00105594 0.00078209 0.00198760 0.00059262 0.00188684 0.00128327 
0.05357614 0.01212289 0.00492769 0.00418097 0.00119578 0.00266539 0.00591662 0.00388844 0.02875458 0.00212020 0.00109902 0.00077664 0.00207043 0.00056999 0.00185834 0.00128487 
0.05360193 0.01248792 0.00493647 0.00418929 0.00119761 0.00271959 0.00612667 0.00380934 0.02839526 0.00214193 0.00114604 0.00077069 0.00215550 0.00054701 0.00182715 0.00128653 
0.05364802 0.01285673 0.00495629 0.00419578 0.00119937 0.00277324 0.00634253 0.00373165 0.02801899 0.00216372 0.00119688 0.00076428 0.00224253 0.00052379 0.00179345 0.00128825 
0.05371852 0.01322817 0.00498726 0.00420045 0.00120107 0.00282601 0.00656360 0.00365558 0.02762703 0.00218562 0.00125143 0.00075743 0.00233122 0.00050044 0.00175742 0.00129002 
0.05381739 0.01360111 0.00502939 0.00420331 0.00120271 0.00287758 0.00678924 0.00358133 0.02722071 0.00220766 0.00130958 0.00075018 0.00242127 0.00047705 0.00171927 0.00129184 
0.05394839 0.01397433 0.00508264 0.00420438 0.00120428 0.00292763 0.00701880 0.00350909 0.02680140 0.00222986 0.00137117 0.00074256 0.00251236 0.00045373 0.00167922 0.00129368 
0.05411505 0.01434662 0.00514689 0.00420368 0.00120580 0.00297590 0.00725158 0.00343906 0.02637056 0.00225226 0.00143604 0.00073461 0.00260420 0.00043058 0.00163748 0.00129555 
0.05432066 0.01471674 0.00522196 0.00420125 0.00120725 0.00302210 0.00748690 0.00337140 0.02592970 0.00227488 0.00150402 0.00072636 0.00269648 0.00040770 0.00159428 0.00129744 
0.05456822 0.01508342 0.00530761 0.00419712 0.00120865 0.00306599 0.00772402 0.00330629 0.02548039 0.00229776 0.00157492 0.00071787 0.00278888 0.00038519 0.00154985 0.00129932 
0.05486042 0.01544540 0.00540352 0.00419134 0.00120999 0.00310736 0.00796221 0.00324390 0.02502425 0.00232092 0.00164854 0.00070915 0.00288109 0.00036313 0.00150442 0.00130120 
0.05519960 0.01580140 0.00550933 0.00418396 0.00121129 0.00314599 0.00820073 0.00318436 0.02456293 0.00234438 0.00172468 0.00070027 0.00297282 0.00034161 0.00145823 0.00130307 
0.05558776 0.01615016 0.00562459 0.00417504 0.00121254 0.00318171 0.00843882 0.00312785 0.02409814 0.00236817 0.00180312 0.00069125 0.00306376 0.00032073 0.00141151 0.00130491 
0.05602648 0.01649042 0.00574882 0.00416464 0.00121375 0.00321437 0.00867575 0.00307447 0.02363160 0.00239230 0.00188362 0.00068215 0.00315362 0.00030055 0.00136449 0.00130672 
0.05651696 0.01682094 0.00588148 0.00415285 0.00121492 0.00324382 0.00891075 0.00302438 0.02316507 0.00241678 0.00196596 0.00067300 0.00324210 0.00028116 0.00131741 0.00130848 
0.05705998 0.01714052 0.00602197 0.00413973 0.00121606 0.00326997 0.00914307 0.00297768 0.02270033 0.00244163 0.00204988 0.00066384 0.00332892 0.00026262 0.00127050 0.00131020 
0.05765588 0.01744798 0.00616963 0.00412538 0.00121718 0.00329271 0.00937199 0.00293448 0.02223918 0.00246684 0.00213515 0.00065471 0.00341381 0.00024501 0.00122397 0.00131186 
0.05830456 0.01774217 0.00632380 0.00410987 0.00121827 0.00331200 0.00959676 0.00289487 0.02178343 0.00249241 0.00222152 0.00064566 0.00349650 0.00022837 0.00117805 0.00131345 
0.05900547 0.01802200 0.00648373 0.00409331 0.00121935 0.00332778 0.00981668 0.00285896 0.02133489 0.00251834 0.00230874 0.00063673 0.00357673 0.00021276 0.00113293 0.00131497 
0.05975761 0.01828642 0.00664867 0.00407580 0.00122041 0.00334004 0.01003105 0.00282682 0.02089536 0.00254461 0.00239656 0.00062795 0.00365426 0.00019823 0.00108883 0.00131641 
0.06055951 0.01853445 0.00681783 0.00405743 0.00122147 0.00334878 0.01023919 0.00279851 0.02046664 0.00257120 0.00248472 0.00061936 0.00372885 0.00018482 0.00104593 0.00131776 
0.06140927 0.01876517 0.00699040 0.00403832 0.00122253 0.00335403 0.01044046 0.00277410 0.02005051 0.00259809 0.00257298 0.00061099 0.00380028 0.00017257 0.00100441 0.00131902 
0.06230454 0.01897772 0.00716552 0.00401857 0.00122359 0.00335582 0.01063423 0.00275363 0.01964874 0.00262525 0.00266110 0.00060289 0.00386836 0.00016151 0.00096443 0.00132019 
0.06324253 0.01917132 0.00734237 0.00399830 0.00122465 0.00335421 0.01081991 0.00273714 0.01926305 0.00265263 0.00274884 0.00059509 0.00393287 0.00015165 0.00092616 0.00132125 
0.06422004 0.01934527 0.00752007 0.00397763 0.00122573 0.00334930 0.01099694 0.00272467 0.01889515 0.00268021 0.00283596 0.00058760 0.00399365 0.00014303 0.00088974 0.00132221 
0.06523347 0.01949896 0.00769775 0.00395666 0.00122682 0.00334116 0.01116480 0.00271622 0.01854669 0.00270792 0.00292225 0.00058047 0.00405053 0.00013564 0.00085530 0.00132306 
0.06627881 0.01963185 0.00787457 0.00393553 0.00122793 0.00332993 0.01132299 0.00271180 0.01821929 0.00273571 0.00300749 0.00057372 0.00410336 0.00012949 0.00082295 0.00132380 
0.06735173 0.01974351 0.00804965 0.00391434 0.00122907 0.00331572 0.01147106 0.00271140 0.01791451 0.00276352 0.00309147 0.00056737 0.00415201 0.00012458 0.00079279 0.00132442 
0.06844754 0.01983358 0.00822217 0.00389321 0.00123023 0.00329867 0.01160862 0.00271502 0.01763384 0.00279129 0.00317400 0.00056145 0.00419636 0.00012091 0.00076491 0.00132493 
0.06956125 0.01990182 0.00839128 0.00387227 0.00123142 0.00327894 0.01173529 0.00272263 0.01737871 0.00281894 0.00325490 0.00055597 0.00423631 0.00011847 0.00073938 0.00132533 
0.07068762 0.01994808 0.00855618 0.00385163 0.00123265 0.00325669 0.01185076 0.00273419 0.01715051 0.00284641 0.00333399 0.00055094 0.00427178 0.00011723 0.00071627 0.00132561 
0.07182114 0.01997230 0.00871611 0.00383140 0.00123391 0.00323210 0.01195476 0.00274966 0.01695051 0.00287359 0.00341113 0.00054640 0.00430271 0.00011717 0.00069560 0.00132578 
0.07295612 0.01997453 0.00887031 0.00381169 0.00123520 0.00320535 0.01204705 0.00276897 0.01677992 0.00290043 0.00348616 0.00054233 0.00432904 0.00011827 0.00067741 0.00132583 
0.07408671 0.01995491 0.00901807 0.00379262 0.00123654 0.00317662 0.01212747 0.00279207 0.01663988 0.00292682 0.00355897 0.00053876 0.00435074 0.00012050 0.00066171 0.00132577 
0.07520694 0.01991369 0.00915873 0.00377428 0.00123792 0.00314612 0.01219587 0.00281887 0.01653140 0.00295267 0.00362945 0.00053569 0.00436780 0.00012381 0.00064850 0.00132561 
0.07631076 0.01985121 0.00929167 0.00375679 0.00123934 0.00311404 0.01225219 0.00284929 0.01645544 0.00297790 0.00369749 0.00053312 0.00438021 0.00012816 0.00063776 0.00132533 
0.07739209 0.01976791 0.00941632 0.00374022 0.00124080 0.00308058 0.01229638 0.00288322 0.01641282 0.00300241 0.00376302 0.00053106 0.00438801 0.00013352 0.00062946 0.00132496 
0.07844486 0.01966433 0.00953216 0.00372469 0.00124231 0.00304595 0.01232846 0.00292057 0.01640429 0.00302610 0.00382598 0.00052949 0.00439122 0.00013982 0.00062355 0.00132448 
0.07946306 0.01954108 0.00963873 0.00371026 0.00124386 0.00301035 0.01234851 0.00296122 0.01643047 0.00304888 0.00388632 0.00052841 0.00438989 0.00014703 0.00061999 0.00132392 
0.08044079 0.01939889 0.00973563 0.00369701 0.00124546 0.00297398 0.01235663 0.00300504 0.01649189 0.00307066 0.00394400 0.00052782 0.00438409 0.00015508 0.00061870 0.00132326 
0.08137228 0.01923855 0.00982251 0.00368503 0.00124711 0.00293705 0.01235298 0.00305190 0.01658894 0.00309133 0.00399902 0.00052771 0.00437390 0.00016392 0.00061961 0.00132253 
0.08225199 0.01906093 0.00989911 0.00367437 0.00124880 0.00289976 0.01233778 0.00310166 0.01672192 0.00311080 0.00405136 0.00052806 0.00435942 0.00017349 0.00062262 0.00132171 
0.08307460 0.01886699 0.00996520 0.00366509 0.00125053 0.00286230 0.01231126 0.00315417 0.01689100 0.00312898 0.00410106 0.00052886 0.00434076 0.00018372 0.00062764 0.00132082 
0.08383507 0.01865776 0.01002066 0.00365723 0.00125231 0.00282486 0.01227372 0.00320927 0.01709623 0.00314579 0.00414813 0.00053010 0.00431805 0.00019455 0.00063455 0.00131987 
0.08452870 0.01843431 0.01006540 0.00365085 0.00125414 0.00278762 0.01222551 0.00326681 0.01733756 0.00316113 0.00419263 0.00053174 0.00429143 0.00020592 0.00064325 0.00131886 
0.08515117 0.01819778 0.01009941 0.00364597 0.00125600 0.00275076 0.01216699 0.00332660 0.01761478 0.00317493 0.00423459 0.00053378 0.00426104 0.00021776 0.00065360 0.00131781 
0.08569854 0.01794939 0.01012276 0.00364262 0.00125791 0.00271445 0.01209858 0.00338847 0.01792760 0.00318710 0.00427411 0.00053618 0.00422705 0.00023001 0.00066549 0.00131670 
0.08616734 0.01769036 0.01013558 0.00364081 0.00125985 0.00267885 0.01202073 0.00345225 0.01827557 0.00319758 0.00431125 0.00053893 0.00418965 0.00024259 0.00067877 0.00131556 
0.08655458 0.01742196 0.01013807 0.00364055 0.00126183 0.00264412 0.01193391 0.00351775 0.01865815 0.00320629 0.00434610 0.00054200 0.00414900 0.00025544 0.00069331 0.00131439 
0.08685777 0.01714552 0.01013048 0.00364184 0.00126384 0.00261038 0.01183864 0.00358479 0.01907467 0.00321317 0.00437876 0.00054536 0.00410532 0.00026850 0.00070896 0.00131320 
0.08707497 0.01686235 0.01011315 0.00364467 0.00126588 0.00257778 0.01173545 0.00365315 0.01952432 0.00321818 0.00440934 0.00054899 0.00405880 0.00028169 0.00072560 0.00131200 
0.08720480 0.01657380 0.01008646 0.00364902 0.00126796 0.00254643 0.01162492 0.00372267 0.02000620 0.00322126 0.00443796 0.00055284 0.00400966 0.00029495 0.00074306 0.00131079 
0.08724646 0.01628123 0.01005088 0.00365485 0.00127005 0.00251645 0.01150762 0.00379313 0.02051928 0.00322237 0.00446472 0.00055691 0.00395812 0.00030821 0.00076121 0.00130957 
0.08719976 0.01598599 0.01000690 0.00366214 0.00127217 0.00248792 0.01138415 0.00386434 0.02106243 0.00322149 0.00448976 0.00056115 0.00390441 0.00032142 0.00077991 0.00130837 
0.08706512 0.01568941 0.00995509 0.00367084 0.00127430 0.00246095 0.01125514 0.00393611 0.02163439 0.00321857 0.00451320 0.00056553 0.00384876 0.00033451 0.00079901 0.00130717 
0.08684360 0.01539284 0.00989606 0.00368089 0.00127645 0.00243560 0.01112121 0.00400824 0.02223381 0.00321362 0.00453516 0.00057003 0.00379142 0.00034742 0.00081838 0.00130600 
0.08653686 0.01509758 0.00983048 0.00369224 0.00127861 0.00241192 0.01098301 0.00408053 0.02285924 0.00320661 0.00455578 0.00057461 0.00373262 0.00036010 0.00083789 0.00130486 
0.08614721 0.01480490 0.00975904 0.00370482 0.00128077 0.00238999 0.01084118 0.00415279 0.02350912 0.00319755 0.00457518 0.00057925 0.00367262 0.00037248 0.00085739 0.00130374 
0.08567757 0.01451605 0.00968250 0.00371855 0.00128294 0.00236982 0.01069636 0.00422483 0.02418181 0.00318646 0.00459349 0.00058391 0.00361165 0.00038452 0.00087678 0.00130267 
0.08513148 0.01423222 0.00960162 0.00373334 0.00128510 0.00235146 0.01054919 0.00429646 0.02487558 0.00317333 0.00461082 0.00058856 0.00354999 0.00039617 0.00089593 0.00130163 
0.08451307 0.01395456 0.00951722 0.00374912 0.00128725 0.00233490 0.01040032 0.00436751 0.02558861 0.00315821 0.00462729 0.00059318 0.00348787 0.00040737 0.00091473 0.00130065 
0.08382705 0.01368416 0.00943014 0.00376578 0.00128939 0.00232016 0.01025038 0.00443779 0.02631900 0.00314113 0.00464302 0.00059775 0.00342555 0.00041809 0.00093308 0.00129971 
0.08307868 0.01342206 0.00934122 0.00378323 0.00129151 0.00230723 0.01009999 0.00450713 0.02706481 0.00312213 0.00465810 0.00060222 0.00336327 0.00042828 0.00095088 0.00129884 
0.08227376 0.01316920 0.00925133 0.00380137 0.00129361 0.00229609 0.00994975 0.00457537 0.02782401 0.00310126 0.00467263 0.00060659 0.00330130 0.00043790 0.00096804 0.00129802 
0.08141857 0.01292649 0.00916135 0.00382007 0.00129568 0.00228670 0.00980025 0.00464235 0.02859452 0.00307858 0.00468669 0.00061082 0.00323988 0.00044693 0.00098450 0.00129727 
0.08051985 0.01269473 0.00907218 0.00383924 0.00129771 0.00227903 0.00965205 0.00470792 0.02937422 0.00305415 0.00470037 0.00061490 0.00317924 0.00045533 0.00100016 0.00129659 
0.07958477 0.01247467 0.00898468 0.00385876 0.00129971 0.00227303 0.00950571 0.00477194 0.03016094 0.00302806 0.00471373 0.00061880 0.00311964 0.00046308 0.00101499 0.00129597 
0.07862083 0.01226695 0.00889974 0.00387852 0.00130167 0.00226863 0.00936173 0.00483427 0.03095248 0.00300038 0.00472681 0.00062252 0.00306130 0.00047014 0.00102893 0.00129542 
0.07763591 0.01207214 0.00881823 0.00389838 0.00130357 0.00226578 0.00922060 0.00489479 0.03174661 0.00297121 0.00473968 0.00062602 0.00300446 0.00047650 0.00104193 0.00129495 
0.07663812 0.01189072 0.00874101 0.00391824 0.00130543 0.00226440 0.00908279 0.00495338 0.03254110 0.00294063 0.00475234 0.00062931 0.00294934 0.00048215 0.00105398 0.00129454 
0.07563580 0.01172309 0.00866891 0.00393798 0.00130723 0.00226439 0.00894871 0.00500993 0.03333370 0.00290876 0.00476483 0.00063236 0.00289615 0.00048708 0.00106504 0.00129421 
0.07463745 0.01156954 0.00860273 0.00395747 0.00130897 0.00226568 0.00881875 0.00506436 0.03412216 0.00287569 0.00477715 0.00063518 0.00284510 0.00049126 0.00107511 0.00129395 
0.07365168 0.01143030 0.00854327 0.00397661 0.00131064 0.00226817 0.00869327 0.00511656 0.03490424 0.00284154 0.00478928 0.00063774 0.00279640 0.00049471 0.00108419 0.00129376 
0.07268714 0.01130547 0.00849126 0.00399527 0.00131224 0.00227175 0.00857257 0.00516646 0.03567771 0.00280642 0.00480121 0.00064006 0.00275023 0.00049741 0.00109228 0.00129365 
0.07175245 0.01119510 0.00844742 0.00401335 0.00131377 0.00227633 0.00845694 0.00521400 0.03644038 0.00277045 0.00481291 0.00064212 0.00270677 0.00049937 0.00109941 0.00129360 
0.07085617 0.01109914 0.00841242 0.00403073 0.00131523 0.00228178 0.00834659 0.00525912 0.03719010 0.00273376 0.00482432 0.00064393 0.00266621 0.00050060 0.00110560 0.00129362 
0.07000669 0.01101745 0.00838688 0.00404732 0.00131661 0.00228799 0.00824173 0.00530176 0.03792472 0.00269647 0.00483539 0.00064548 0.00262870 0.00050110 0.00111089 0.00129371 
0.06921221 0.01094983 0.00837139 0.00406301 0.00131790 0.00229486 0.00814249 0.00534190 0.03864220 0.00265871 0.00484605 0.00064680 0.00259438 0.00050089 0.00111532 0.00129386 
0.06848067 0.01089598 0.00836646 0.00407771 0.00131911 0.00230226 0.00804899 0.00537950 0.03934052 0.00262061 0.00485622 0.00064787 0.00256340 0.00049998 0.00111894 0.00129406 
0.06781967 0.01085554 0.00837258 0.00409133 0.00132024 0.00231007 0.00796129 0.00541454 0.04001775 0.00258230 0.00486580 0.00064871 0.00253589 0.00049840 0.00112181 0.00129433 
0.06723641 0.01082807 0.00839015 0.00410380 0.00132128 0.00231817 0.00787941 0.00544701 0.04067200 0.00254391 0.00487469 0.00064933 0.00251195 0.00049616 0.00112399 0.00129465 
0.06673767 0.01081309 0.00841954 0.00411504 0.00132222 0.00232645 0.00780333 0.00547691 0.04130151 0.00250557 0.00488279 0.00064975 0.00249169 0.00049328 0.00112555 0.00129501 
0.06632970 0.01081004 0.00846105 0.00412498 0.00132308 0.00233478 0.00773298 0.00550424 0.04190458 0.00246741 0.00488997 0.00064997 0.00247519 0.00048980 0.00112656 0.00129542 
0.06601822 0.01081831 0.00851490 0.00413356 0.00132384 0.00234305 0.00766827 0.00552902 0.04247960 0.00242956 0.00489611 0.00065002 0.00246254 0.00048574 0.00112710 0.00129588 
0.06580835 0.01083726 0.00858129 0.00414074 0.00132451 0.00235114 0.00760905 0.00555126 0.04302510 0.00239214 0.00490108 0.00064992 0.00245378 0.00048114 0.00112725 0.00129637 
0.06570454 0.01086620 0.00866032 0.00414648 0.00132509 0.00235894 0.00755514 0.00557098 0.04353968 0.00235529 0.00490474 0.00064967 0.00244897 0.00047602 0.00112709 0.00129689 
0.06571057 0.01090440 0.00875204 0.00415075 0.00132557 0.00236634 0.00750634 0.00558823 0.04402208 0.00231911 0.00490696 0.00064931 0.00244814 0.00047043 0.00112671 0.00129744 
0.06582949 0.01095111 0.00885644 0.00415352 0.00132595 0.00237324 0.00746238 0.00560302 0.04447114 0.00228372 0.00490759 0.00064885 0.00245131 0.00046440 0.00112620 0.00129802 
0.06606360 0.01100558 0.00897343 0.00415479 0.00132624 0.00237954 0.00742300 0.00561542 0.04488584 0.00224924 0.00490649 0.00064832 0.00245847 0.00045797 0.00112563 0.00129861 
0.06641440 0.01106702 0.00910288 0.00415456 0.00132643 0.00238514 0.00738789 0.00562545 0.04526528 0.00221578 0.00490353 0.00064774 0.00246961 0.00045117 0.00112510 0.00129922 
0.06688260 0.01113466 0.00924458 0.00415282 0.00132652 0.00238995 0.00735670 0.00563317 0.04560869 0.00218344 0.00489856 0.00064713 0.00248471 0.00044405 0.00112468 0.00129984 
0.06746808 0.01120772 0.00939827 0.00414961 0.00132652 0.00239389 0.00732908 0.00563863 0.04591543 0.00215231 0.00489144 0.00064651 0.00250373 0.00043665 0.00112446 0.00130047 
0.06816989 0.01128542 0.00956362 0.00414494 0.00132641 0.00239689 0.00730466 0.00564188 0.04618500 0.00212249 0.00488204 0.00064591 0.00252661 0.00042901 0.00112452 0.00130109 
0.06898624 0.01136703 0.00974025 0.00413886 0.00132620 0.00239887 0.00728302 0.00564298 0.04641704 0.00209407 0.00487024 0.00064536 0.00255328 0.00042117 0.00112492 0.00130172 
0.06991452 0.01145182 0.00992773 0.00413141 0.00132588 0.00239976 0.00726376 0.00564198 0.04661132 0.00206711 0.00485591 0.00064486 0.00258364 0.00041317 0.00112574 0.00130233 
0.07095127 0.01153909 0.01012555 0.00412265 0.00132546 0.00239953 0.00724645 0.00563893 0.04676775 0.00204170 0.00483895 0.00064446 0.00261761 0.00040506 0.00112705 0.00130294 
0.07209222 0.01162819 0.01033317 0.00411264 0.00132493 0.00239811 0.00723065 0.00563389 0.04688636 0.00201790 0.00481924 0.00064416 0.00265507 0.00039687 0.00112889 0.00130353 
0.07333230 0.01171851 0.01055000 0.00410145 0.00132429 0.00239546 0.00721593 0.00562693 0.04696734 0.00199576 0.00479670 0.00064399 0.00269589 0.00038865 0.00113133 0.00130411 
0.07466567 0.01180949 0.01077539 0.00408917 0.00132353 0.00239156 0.00720183 0.00561808 0.04701099 0.00197534 0.00477124 0.00064396 0.00273992 0.00038043 0.00113441 0.00130467 
0.07608574 0.01190061 0.01100866 0.00407589 0.00132266 0.00238638 0.00718793 0.00560741 0.04701775 0.00195667 0.00474279 0.00064410 0.00278701 0.00037226 0.00113816 0.00130520 
0.07758523 0.01199143 0.01124908 0.00406169 0.00132165 0.00237990 0.00717377 0.00559497 0.04698816 0.00193979 0.00471129 0.00064442 0.00283699 0.00036416 0.00114262 0.00130570 
0.07915617 0.01208156 0.01149589 0.00404668 0.00132051 0.00237211 0.00715894 0.00558081 0.04692292 0.00192473 0.00467670 0.00064492 0.00288969 0.00035618 0.00114782 0.00130618 
0.08078997 0.01217069 0.01174828 0.00403097 0.00131924 0.00236302 0.00714300 0.00556497 0.04682280 0.00191149 0.00463899 0.00064564 0.00294491 0.00034835 0.00115376 0.00130663 
0.08247748 0.01225856 0.01200542 0.00401465 0.00131781 0.00235262 0.00712557 0.00554750 0.04668872 0.00190011 0.00459813 0.00064656 0.00300244 0.00034070 0.00116045 0.00130705 
0.08420901 0.01234500 0.01226645 0.00399786 0.00131623 0.00234094 0.00710625 0.00552844 0.04652166 0.00189056 0.00455414 0.00064771 0.00306208 0.00033327 0.00116790 0.00130743 
0.08597443 0.01242992 0.01253048 0.00398070 0.00131449 0.00232799 0.00708467 0.00550784 0.04632274 0.00188285 0.00450702 0.00064908 0.00312359 0.00032608 0.00117609 0.00130778 
0.08776321 0.01251328 0.01279662 0.00396330 0.00131258 0.00231381 0.00706050 0.00548574 0.04609313 0.00187697 0.00445680 0.00065067 0.00318675 0.00031915 0.00118500 0.00130809 
0.08956447 0.01259514 0.01306393 0.00394577 0.00131048 0.00229843 0.00703341 0.00546216 0.04583409 0.00187289 0.00440353 0.00065250 0.00325131 0.00031252 0.00119462 0.00130837 
0.09136706 0.01267564 0.01333148 0.00392824 0.00130818 0.00228189 0.00700311 0.00543715 0.04554697 0.00187057 0.00434728 0.00065455 0.00331703 0.00030620 0.00120489 0.00130861 
0.09315967 0.01275496 0.01359832 0.00391084 0.00130567 0.00226424 0.00696936 0.00541073 0.04523316 0.00186999 0.00428810 0.00065682 0.00338365 0.00030022 0.00121579 0.00130882 
0.09493081 0.01283340 0.01386350 0.00389367 0.00130295 0.00224554 0.00693194 0.00538293 0.04489412 0.00187110 0.00422611 0.00065930 0.00345090 0.00029458 0.00122726 0.00130900 
0.09666897 0.01291131 0.01412605 0.00387685 0.00129998 0.00222584 0.00689064 0.00535379 0.04453136 0.00187384 0.00416140 0.00066198 0.00351853 0.00028931 0.00123924 0.00130914 
0.09836266 0.01298911 0.01438502 0.00386052 0.00129677 0.00220521 0.00684533 0.00532332 0.04414640 0.00187816 0.00409410 0.00066484 0.00358626 0.00028442 0.00125167 0.00130924 
0.10000046 0.01306729 0.01463947 0.00384476 0.00129330 0.00218372 0.00679589 0.00529154 0.04374082 0.00188399 0.00402435 0.00066788 0.00365383 0.00027992 0.00126449 0.00130932 
0.10157112 0.01314640 0.01488843 0.00382970 0.00128954 0.00216144 0.00674226 0.00525850 0.04331620 0.00189126 0.00395229 0.00067106 0.00372095 0.00027582 0.00127761 0.00130937 
0.10306364 0.01322707 0.01513098 0.00381543 0.00128550 0.00213845 0.00668440 0.00522419 0.04287414 0.00189990 0.00387809 0.00067438 0.00378736 0.00027211 0.00129096 0.00130939 
0.10446732 0.01330995 0.01536620 0.00380206 0.00128115 0.00211482 0.00662235 0.00518865 0.04241623 0.00190981 0.00380192 0.00067780 0.00385278 0.00026881 0.00130445 0.00130939 
0.10577181 0.01339575 0.01559318 0.00378966 0.00127647 0.00209063 0.00655615 0.00515190 0.04194408 0.00192093 0.00372398 0.00068131 0.00391695 0.00026590 0.00131800 0.00130936 
0.10696723 0.01348524 0.01581105 0.00377833 0.00127145 0.00206598 0.00648591 0.00511395 0.04145925 0.00193314 0.00364444 0.00068486 0.00397959 0.00026340 0.00133150 0.00130931 
0.10804420 0.01357921 0.01601894 0.00376813 0.00126609 0.00204093 0.00641178 0.00507482 0.04096329 0.00194636 0.00356353 0.00068844 0.00404044 0.00026130 0.00134488 0.00130925 
0.10899387 0.01367848 0.01621603 0.00375913 0.00126035 0.00201559 0.00633395 0.00503455 0.04045774 0.00196048 0.00348146 0.00069201 0.00409925 0.00025958 0.00135803 0.00130917 
0.10980806 0.01378389 0.01640153 0.00375140 0.00125424 0.00199002 0.00625265 0.00499315 0.03994408 0.00197541 0.00339845 0.00069553 0.00415576 0.00025824 0.00137085 0.00130908 
0.11047921 0.01389630 0.01657465 0.00374497 0.00124773 0.00196431 0.00616817 0.00495064 0.03942374 0.00199103 0.00331472 0.00069898 0.00420974 0.00025728 0.00138326 0.00130898 
0.11100052 0.01401659 0.01673469 0.00373988 0.00124082 0.00193854 0.00608082 0.00490705 0.03889813 0.00200724 0.00323051 0.00070231 0.00426094 0.00025667 0.00139516 0.00130888 
0.11136594 0.01414562 0.01688094 0.00373617 0.00123350 0.00191281 0.00599097 0.00486241 0.03836858 0.00202393 0.00314606 0.00070550 0.00430914 0.00025641 0.00140645 0.00130878 
0.11157020 0.01428424 0.01701275 0.00373384 0.00122576 0.00188717 0.00589901 0.00481674 0.03783636 0.00204099 0.00306160 0.00070850 0.00435414 0.00025647 0.00141704 0.00130867 
0.11160888 0.01443329 0.01712952 0.00373291 0.00121758 0.00186171 0.00580538 0.00477008 0.03730270 0.00205830 0.00297737 0.00071127 0.00439572 0.00025685 0.00142685 0.00130857 
0.11147843 0.01459360 0.01723070 0.00373337 0.00120897 0.00183650 0.00571056 0.00472247 0.03676874 0.00207575 0.00289362 0.00071378 0.00443371 0.00025752 0.00143580 0.00130848 
0.11117617 0.01476595 0.01731577 0.00373521 0.00119992 0.00181161 0.00561504 0.00467393 0.03623555 0.00209322 0.00281058 0.00071599 0.00446792 0.00025847 0.00144380 0.00130840 
0.11070031 0.01495108 0.01738427 0.00373840 0.00119044 0.00178711 0.00551937 0.00462451 0.03570414 0.00211061 0.00272849 0.00071787 0.00449820 0.00025967 0.00145079 0.00130834 
0.11004999 0.01514969 0.01743579 0.00374290 0.00118051 0.00176304 0.00542410 0.00457425 0.03517545 0.00212781 0.00264758 0.00071937 0.00452442 0.00026111 0.00145669 0.00130829 
0.10922526 0.01536243 0.01746997 0.00374868 0.00117014 0.00173948 0.00532982 0.00452320 0.03465032 0.00214470 0.00256807 0.00072047 0.00454643 0.00026276 0.00146145 0.00130826 
0.10822707 0.01558986 0.01748652 0.00375566 0.00115935 0.00171646 0.00523713 0.00447140 0.03412954 0.00216118 0.00249020 0.00072113 0.00456413 0.00026460 0.00146502 0.00130825 
0.10705728 0.01583251 0.01748519 0.00376379 0.00114814 0.00169404 0.00514666 0.00441890 0.03361382 0.00217713 0.00241416 0.00072132 0.00457743 0.00026661 0.00146735 0.00130826 
0.10571865 0.01609081 0.01746580 0.00377300 0.00113651 0.00167225 0.00505905 0.00436577 0.03310380 0.00219247 0.00234017 0.00072100 0.00458626 0.00026878 0.00146841 0.00130830 
0.10421482 0.01636511 0.01742822 0.00378318 0.00112449 0.00165114 0.00497494 0.00431205 0.03260003 0.00220708 0.00226843 0.00072016 0.00459056 0.00027107 0.00146817 0.00130837 
0.10255028 0.01665569 0.01737238 0.00379427 0.00111208 0.00163072 0.00489499 0.00425780 0.03210302 0.00222088 0.00219911 0.00071876 0.00459029 0.00027346 0.00146661 0.00130847 
0.10073032 0.01696270 0.01729826 0.00380614 0.00109932 0.00161102 0.00481985 0.00420309 0.03161318 0.00223377 0.00213238 0.00071680 0.00458543 0.00027595 0.00146372 0.00130860 
0.09876106 0.01728625 0.01720594 0.00381870 0.00108622 0.00159205 0.00475018 0.00414798 0.03113089 0.00224566 0.00206843 0.00071423 0.00457600 0.00027850 0.00145951 0.00130876 
0.09664935 0.01762629 0.01709551 0.00383184 0.00107281 0.00157384 0.00468661 0.00409253 0.03065645 0.00225647 0.00200737 0.00071107 0.00456200 0.00028110 0.00145398 0.00130895 
0.09440275 0.01798272 0.01696715 0.00384542 0.00105912 0.00155638 0.00462980 0.00403682 0.03019010 0.00226612 0.00194937 0.00070728 0.00454348 0.00028372 0.00144717 0.00130917 
0.09202949 0.01835531 0.01682110 0.00385932 0.00104518 0.00153968 0.00458034 0.00398091 0.02973205 0.00227454 0.00189452 0.00070286 0.00452050 0.00028636 0.00143909 0.00130943 
0.08953841 0.01874370 0.01665764 0.00387342 0.00103102 0.00152372 0.00453885 0.00392487 0.02928244 0.00228167 0.00184295 0.00069782 0.00449313 0.00028899 0.00142979 0.00130972 
0.08693892 0.01914747 0.01647714 0.00388758 0.00101669 0.00150851 0.00450591 0.00386877 0.02884137 0.00228743 0.00179473 0.00069214 0.00446147 0.00029161 0.00141931 0.00131005 
0.08424092 0.01956606 0.01628001 0.00390167 0.00100222 0.00149401 0.00448205 0.00381267 0.02840891 0.00229179 0.00174995 0.00068584 0.00442563 0.00029419 0.00140773 0.00131040 
0.08145477 0.01999881 0.01606671 0.00391554 0.00098765 0.00148023 0.00446779 0.00375666 0.02798509 0.00229467 0.00170865 0.00067892 0.00438574 0.00029672 0.00139510 0.00131078 
0.07859120 0.02044495 0.01583777 0.00392906 0.00097304 0.00146712 0.00446361 0.00370080 0.02756991 0.00229606 0.00167089 0.00067140 0.00434194 0.00029920 0.00138151 0.00131119 
0.07566128 0.02090361 0.01559378 0.00394209 0.00095843 0.00145467 0.00446995 0.00364516 0.02716334 0.00229590 0.00163668 0.00066329 0.00429440 0.00030161 0.00136704 0.00131162 
0.07267631 0.02137381 0.01533538 0.00395449 0.00094387 0.00144283 0.00448720 0.00358981 0.02676533 0.00229417 0.00160604 0.00065462 0.00424329 0.00030395 0.00135178 0.00131208 
0.06964782 0.02185448 0.01506325 0.00396612 0.00092941 0.00143158 0.00451571 0.00353481 0.02637583 0.00229084 0.00157895 0.00064541 0.00418881 0.00030621 0.00133583 0.00131256 
0.06658744 0.02234445 0.01477813 0.00397685 0.00091511 0.00142087 0.00455576 0.00348022 0.02599474 0.00228590 0.00155540 0.00063569 0.00413115 0.00030839 0.00131929 0.00131305 
0.06350688 0.02284246 0.01448082 0.00398655 0.00090102 0.00141067 0.00460759 0.00342611 0.02562198 0.00227935 0.00153534 0.00062551 0.00407054 0.00031048 0.00130229 0.00131356 
0.06041783 0.02334717 0.01417214 0.00399509 0.00088720 0.00140093 0.00467139 0.00337254 0.02525747 0.00227117 0.00151871 0.00061489 0.00400719 0.00031248 0.00128493 0.00131408 
0.05733193 0.02385716 0.01385299 0.00400234 0.00087371 0.00139162 0.00474727 0.00331955 0.02490109 0.00226138 0.00150545 0.00060389 0.00394135 0.00031440 0.00126734 0.00131460 
0.05426070 0.02437093 0.01352427 0.00400820 0.00086060 0.00138267 0.00483529 0.00326721 0.02455274 0.00224998 0.00149547 0.00059255 0.00387325 0.00031623 0.00124964 0.00131512 
0.05121546 0.02488693 0.01318695 0.00401255 0.00084793 0.00137405 0.00493543 0.00321555 0.02421235 0.00223699 0.00148867 0.00058092 0.00380316 0.00031798 0.00123196 0.00131564 
0.04820727 0.02540354 0.01284202 0.00401529 0.00083575 0.00136572 0.00504763 0.00316463 0.02387979 0.00222243 0.00148493 0.00056906 0.00373133 0.00031965 0.00121442 0.00131616 
0.04524692 0.02591910 0.01249051 0.00401632 0.00082414 0.00135762 0.00517173 0.00311448 0.02355500 0.00220634 0.00148413 0.00055702 0.00365802 0.00032126 0.00119716 0.00131666 
0.04234481 0.02643192 0.01213348 0.00401556 0.00081314 0.00134971 0.00530753 0.00306514 0.02323788 0.00218876 0.00148614 0.00054486 0.00358350 0.00032280 0.00118030 0.00131714 
0.03951094 0.02694024 0.01177202 0.00401293 0.00080281 0.00134195 0.00545473 0.00301663 0.02292836 0.00216972 0.00149079 0.00053265 0.00350805 0.00032429 0.00116397 0.00131760 
0.03675487 0.02744234 0.01140723 0.00400836 0.00079320 0.00133429 0.00561300 0.00296899 0.02262636 0.00214927 0.00149792 0.00052046 0.00343193 0.00032573 0.00114829 0.00131803 
0.03408564 0.02793642 0.01104025 0.00400180 0.00078436 0.00132670 0.00578189 0.00292223 0.02233183 0.00212747 0.00150738 0.00050834 0.00335543 0.00032715 0.00113340 0.00131843 
0.03151177 0.02842074 0.01067222 0.00399318 0.00077635 0.00131913 0.00596093 0.00287637 0.02204470 0.00210439 0.00151898 0.00049637 0.00327880 0.00032854 0.00111940 0.00131879 
0.02904117 0.02889353 0.01030429 0.00398249 0.00076922 0.00131156 0.00614954 0.00283142 0.02176493 0.00208007 0.00153252 0.00048462 0.00320233 0.00032992 0.00110641 0.00131911 
0.02668117 0.02935305 0.00993764 0.00396968 0.00076300 0.00130395 0.00634712 0.00278738 0.02149247 0.00205460 0.00154783 0.00047315 0.00312629 0.00033132 0.00109454 0.00131938 
0.02443845 0.02979758 0.00957343 0.00395474 0.00075774 0.00129626 0.00655296 0.00274427 0.02122727 0.00202804 0.00156469 0.00046204 0.00305094 0.00033273 0.00108389 0.00131959 
0.02231902 0.03022546 0.00921285 0.00393767 0.00075347 0.00128849 0.00676632 0.00270207 0.02096929 0.00200048 0.00158291 0.00045136 0.00297654 0.00033417 0.00107455 0.00131974 
0.02032823 0.03063505 0.00885707 0.00391848 0.00075024 0.00128059 0.00698640 0.00266078 0.02071850 0.00197199 0.00160228 0.00044116 0.00290334 0.00033567 0.00106661 0.00131983 
0.01847071 0.03102478 0.00850725 0.00389717 0.00074806 0.00127256 0.00721232 0.00262039 0.02047484 0.00194266 0.00162260 0.00043153 0.00283160 0.00033723 0.00106015 0.00131985 
0.01675040 0.03139315 0.00816455 0.00387378 0.00074698 0.00126438 0.00744317 0.00258088 0.02023826 0.00191258 0.00164364 0.00042251 0.00276156 0.00033887 0.00105523 0.00131980 
0.01517049 0.03173872 0.00783011 0.00384834 0.00074700 0.00125605 0.00767799 0.00254224 0.02000871 0.00188184 0.00166520 0.00041419 0.00269346 0.00034059 0.00105192 0.00131967 
0.01373351 0.03206016 0.00750506 0.00382091 0.00074814 0.00124755 0.00791578 0.00250445 0.01978612 0.00185053 0.00168708 0.00040660 0.00262751 0.00034243 0.00105026 0.00131946 
0.01244122 0.03235620 0.00719050 0.00379154 0.00075042 0.00123889 0.00815550 0.00246747 0.01957041 0.00181874 0.00170906 0.00039981 0.00256394 0.00034439 0.00105029 0.00131917 
0.01129470 0.03262569 0.00688750 0.00376030 0.00075385 0.00123007 0.00839607 0.00243129 0.01936149 0.00178657 0.00173095 0.00039388 0.00250296 0.00034647 0.00105203 0.00131879 
0.01029432 0.03286758 0.00659712 0.00372726 0.00075842 0.00122109 0.00863640 0.00239588 0.01915925 0.00175411 0.00175254 0.00038884 0.00244475 0.00034871 0.00105551 0.00131832 
0.00943978 0.03308092 0.00632037 0.00369253 0.00076413 0.00121197 0.00887537 0.00236121 0.01896357 0.00172147 0.00177365 0.00038474 0.00238952 0.00035109 0.00106072 0.00131776 
0.00873011 0.03326491 0.00605823 0.00365618 0.00077097 0.00120273 0.00911185 0.00232725 0.01877430 0.00168873 0.00179407 0.00038162 0.00233744 0.00035365 0.00106765 0.00131710 
0.00816367 0.03341884 0.00581162 0.00361832 0.00077893 0.00119338 0.00934469 0.00229396 0.01859127 0.00165600 0.00181365 0.00037951 0.00228866 0.00035638 0.00107630 0.00131636 
0.00773824 0.03354213 0.00558145 0.00357907 0.00078800 0.00118394 0.00957276 0.00226133 0.01841429 0.00162336 0.00183219 0.00037843 0.00224335 0.00035930 0.00108662 0.00131551 
0.00745097 0.03363436 0.00536855 0.00353854 0.00079813 0.00117445 0.00979492 0.00222932 0.01824316 0.00159091 0.00184955 0.00037841 0.00220165 0.00036240 0.00109858 0.00131458 
0.00729848 0.03369520 0.00517372 0.00349685 0.00080931 0.00116493 0.01001004 0.00219790 0.01807762 0.00155875 0.00186556 0.00037945 0.00216369 0.00036570 0.00111212 0.00131355 
0.00727683 0.03372449 0.00499769 0.00345413 0.00082151 0.00115541 0.01021703 0.00216705 0.01791742 0.00152696 0.00188010 0.00038156 0.00212959 0.00036920 0.00112718 0.00131242 
0.00738161 0.03372219 0.00484114 0.00341051 0.00083467 0.00114593 0.01041481 0.00213674 0.01776226 0.00149562 0.00189302 0.00038475 0.00209945 0.00037291 0.00114369 0.00131121 
0.00760796 0.03368840 0.00470468 0.00336612 0.00084877 0.00113652 0.01060234 0.00210696 0.01761183 0.00146483 0.00190420 0.00038900 0.00207337 0.00037681 0.00116155 0.00130991 
0.00795057 0.03362335 0.00458887 0.00332111 0.00086374 0.00112723 0.01077861 0.00207768 0.01746578 0.00143467 0.00191355 0.00039430 0.00205143 0.00038092 0.00118069 0.00130853 
0.00840379 0.03352742 0.00449419 0.00327561 0.00087954 0.00111809 0.01094267 0.00204890 0.01732376 0.00140520 0.00192096 0.00040062 0.00203371 0.00038523 0.00120099 0.00130706 
0.00896162 0.03340110 0.00442106 0.00322977 0.00089611 0.00110915 0.01109362 0.00202060 0.01718537 0.00137652 0.00192636 0.00040795 0.00202026 0.00038974 0.00122234 0.00130551 
0.00961776 0.03324503 0.00436982 0.00318372 0.00091340 0.00110044 0.01123061 0.00199278 0.01705021 0.00134867 0.00192969 0.00041624 0.00201113 0.00039444 0.00124463 0.00130390 
0.01036568 0.03305997 0.00434074 0.00313760 0.00093134 0.00109202 0.01135287 0.00196544 0.01691786 0.00132173 0.00193088 0.00042545 0.00200637 0.00039932 0.00126774 0.00130221 
0.01119863 0.03284681 0.00433402 0.00309155 0.00094986 0.00108391 0.01145969 0.00193859 0.01678785 0.00129576 0.00192989 0.00043553 0.00200598 0.00040438 0.00129153 0.00130047 
0.01210971 0.03260653 0.00434977 0.00304571 0.00096889 0.00107617 0.01155045 0.00191224 0.01665975 0.00127082 0.00192672 0.00044644 0.00201000 0.00040961 0.00131588 0.00129867 
0.01309189 0.03234025 0.00438803 0.00300022 0.00098837 0.00106884 0.01162460 0.00188641 0.01653309 0.00124695 0.00192133 0.00045810 0.00201841 0.00041500 0.00134064 0.00129682 
0.01413807 0.03204920 0.00444877 0.00295519 0.00100823 0.00106195 0.01168167 0.00186112 0.01640738 0.00122420 0.00191374 0.00047045 0.00203122 0.00042053 0.00136567 0.00129493 
0.01524112 0.03173469 0.00453186 0.00291077 0.00102838 0.00105554 0.01172131 0.00183641 0.01628216 0.00120261 0.00190397 0.00048343 0.00204840 0.00042619 0.00139084 0.00129301 
0.01639390 0.03139813 0.00463709 0.00286705 0.00104877 0.00104966 0.01174323 0.00181231 0.01615695 0.00118221 0.00189203 0.00049695 0.00206992 0.00043197 0.00141600 0.00129106 
0.01758934 0.03104103 0.00476419 0.00282417 0.00106930 0.00104433 0.01174725 0.00178886 0.01603127 0.00116303 0.00187799 0.00051095 0.00209575 0.00043785 0.00144101 0.00128910 
0.01882043 0.03066496 0.00491280 0.00278222 0.00108991 0.00103958 0.01173330 0.00176612 0.01590467 0.00114510 0.00186188 0.00052533 0.00212584 0.00044381 0.00146572 0.00128713 
0.02008029 0.03027158 0.00508246 0.00274131 0.00111052 0.00103546 0.01170139 0.00174414 0.01577669 0.00112842 0.00184379 0.00054003 0.00216012 0.00044985 0.00148999 0.00128516 
0.02136219 0.02986259 0.00527265 0.00270154 0.00113106 0.00103197 0.01165165 0.00172300 0.01564690 0.00111303 0.00182378 0.00055495 0.00219852 0.00045593 0.00151370 0.00128319 
0.02265957 0.02943977 0.00548277 0.00266298 0.00115145 0.00102915 0.01158430 0.00170275 0.01551490 0.00109891 0.00180196 0.00057001 0.00224098 0.00046205 0.00153671 0.00128125 
0.02396610 0.02900493 0.00571213 0.00262571 0.00117163 0.00102702 0.01149968 0.00168348 0.01538030 0.00108608 0.00177842 0.00058513 0.00228739 0.00046819 0.00155888 0.00127933 
0.02527570 0.02855993 0.00595999 0.00258981 0.00119152 0.00102558 0.01139821 0.00166527 0.01524275 0.00107453 0.00175328 0.00060023 0.00233767 0.00047432 0.00158011 0.00127745 
0.02658252 0.02810665 0.00622552 0.00255533 0.00121106 0.00102486 0.01128042 0.00164821 0.01510195 0.00106425 0.00172666 0.00061522 0.00239170 0.00048043 0.00160027 0.00127561 
0.02788104 0.02764701 0.00650780 0.00252232 0.00123018 0.00102486 0.01114694 0.00163239 0.01495761 0.00105523 0.00169868 0.00063005 0.00244937 0.00048650 0.00161926 0.00127383 
0.02916601 0.02718292 0.00680588 0.00249084 0.00124882 0.00102559 0.01099850 0.00161791 0.01480951 0.00104744 0.00166949 0.00064463 0.00251056 0.00049252 0.00163698 0.00127211 
0.03043251 0.02671631 0.00711872 0.00246090 0.00126692 0.00102704 0.01083591 0.00160486 0.01465746 0.00104087 0.00163922 0.00065890 0.00257514 0.00049847 0.00165334 0.00127046 
0.03167598 0.02624912 0.00744522 0.00243254 0.00128443 0.00102922 0.01066007 0.00159337 0.01450134 0.00103549 0.00160802 0.00067281 0.00264296 0.00050433 0.00166825 0.00126888 
0.03289218 0.02578327 0.00778423 0.00240578 0.00130129 0.00103211 0.01047197 0.00158354 0.01434107 0.00103127 0.00157605 0.00068631 0.00271389 0.00051008 0.00168166 0.00126740 
0.03407725 0.02532065 0.00813453 0.00238061 0.00131745 0.00103571 0.01027268 0.00157547 0.01417663 0.00102817 0.00154347 0.00069935 0.00278776 0.00051572 0.00169349 0.00126600 
0.03522767 0.02486316 0.00849488 0.00235704 0.00133288 0.00104000 0.01006333 0.00156929 0.01400808 0.00102615 0.00151043 0.00071192 0.00286441 0.00052124 0.00170370 0.00126471 
0.03634029 0.02441265 0.00886397 0.00233506 0.00134752 0.00104497 0.00984513 0.00156511 0.01383551 0.00102518 0.00147709 0.00072400 0.00294367 0.00052661 0.00171225 0.00126352 
0.03741235 0.02397095 0.00924045 0.00231466 0.00136135 0.00105059 0.00961932 0.00156303 0.01365909 0.00102520 0.00144362 0.00073558 0.00302538 0.00053184 0.00171912 0.00126244 
0.03844142 0.02353983 0.00962294 0.00229581 0.00137433 0.00105683 0.00938724 0.00156319 0.01347908 0.00102618 0.00141017 0.00074667 0.00310934 0.00053691 0.00172428 0.00126148 
0.03942545 0.02312104 0.01001004 0.00227848 0.00138644 0.00106367 0.00915022 0.00156569 0.01329576 0.00102806 0.00137692 0.00075730 0.00319536 0.00054182 0.00172774 0.00126064 
0.04036275 0.02271627 0.01040030 0.00226263 0.00139765 0.00107109 0.00890966 0.00157064 0.01310951 0.00103079 0.00134400 0.00076750 0.00328327 0.00054656 0.00172950 0.00125992 
0.04125195 0.02232714 0.01079228 0.00224823 0.00140795 0.00107904 0.00866697 0.00157816 0.01292077 0.00103433 0.00131158 0.00077733 0.00337284 0.00055114 0.00172958 0.00125933 
0.04209203 0.02195524 0.01118449 0.00223522 0.00141731 0.00108749 0.00842359 0.00158834 0.01273003 0.00103861 0.00127982 0.00078687 0.00346389 0.00055555 0.00172802 0.00125888 
0.04288230 0.02160207 0.01157548 0.00222355 0.00142574 0.00109640 0.00818096 0.00160128 0.01253788 0.00104358 0.00124884 0.00079621 0.00355620 0.00055980 0.00172484 0.00125855 
0.04362237 0.02126910 0.01196376 0.00221318 0.00143322 0.00110574 0.00794053 0.00161709 0.01234493 0.00104919 0.00121879 0.00080545 0.00364955 0.00056390 0.00172011 0.00125835 
0.04431214 0.02095771 0.01234785 0.00220404 0.00143975 0.00111546 0.00770372 0.00163585 0.01215189 0.00105538 0.00118981 0.00081472 0.00374374 0.00056785 0.00171389 0.00125829 
0.04495180 0.02066920 0.01272630 0.00219607 0.00144534 0.00112553 0.00747195 0.00165764 0.01195949 0.00106209 0.00116202 0.00082417 0.00383854 0.00057166 0.00170624 0.00125836 
0.04554179 0.02040483 0.01309766 0.00218921 0.00144999 0.00113590 0.00724661 0.00168253 0.01176855 0.00106928 0.00113553 0.00083396 0.00393373 0.00057535 0.00169725 0.00125856 
0.04608279 0.02016575 0.01346050 0.00218340 0.00145371 0.00114653 0.00702904 0.00171059 0.01157991 0.00107689 0.00111045 0.00084428 0.00402908 0.00057894 0.00168701 0.00125889 
0.04657573 0.01995306 0.01381343 0.00217859 0.00145652 0.00115738 0.00682055 0.00174188 0.01139447 0.00108486 0.00108687 0.00085533 0.00412436 0.00058243 0.00167561 0.00125934 
0.04702169 0.01976778 0.01415509 0.00217470 0.00145843 0.00116840 0.00662238 0.00177643 0.01121318 0.00109314 0.00106490 0.00086733 0.00421935 0.00058586 0.00166316 0.00125992 
0.04742200 0.01961085 0.01448416 0.00217167 0.00145946 0.00117955 0.00643573 0.00181428 0.01103701 0.00110168 0.00104459 0.00088052 0.00431381 0.00058925 0.00164977 0.00126061 
0.04777810 0.01948313 0.01479936 0.00216946 0.00145964 0.00119080 0.00626170 0.00185546 0.01086695 0.00111043 0.00102602 0.00089516 0.00440752 0.00059263 0.00163556 0.00126142 
0.04809161 0.01938539 0.01509948 0.00216801 0.00145899 0.00120210 0.00610132 0.00189997 0.01070405 0.00111935 0.00100925 0.00091153 0.00450024 0.00059601 0.00162064 0.00126234 
0.04836425 0.01931834 0.01538334 0.00216726 0.00145754 0.00121341 0.00595555 0.00194780 0.01054934 0.00112838 0.00099431 0.00092991 0.00459174 0.00059945 0.00160515 0.00126336 
0.04859788 0.01928260 0.01564985 0.00216717 0.00145532 0.00122470 0.00582525 0.00199895 0.01040389 0.00113749 0.00098124 0.00095061 0.00468180 0.00060296 0.00158920 0.00126447 
0.04879441 0.01927871 0.01589797 0.00216770 0.00145235 0.00123593 0.00571116 0.00205337 0.01026875 0.00114664 0.00097005 0.00097395 0.00477020 0.00060659 0.00157293 0.00126568 
0.04895586 0.01930713 0.01612673 0.00216881 0.00144868 0.00124706 0.00561394 0.00211103 0.01014497 0.00115577 0.00096076 0.00100026 0.00485669 0.00061037 0.00155648 0.00126697 
0.04908427 0.01936824 0.01633525 0.00217047 0.00144434 0.00125807 0.00553413 0.00217186 0.01003359 0.00116487 0.00095336 0.00102988 0.00494107 0.00061435 0.00153997 0.00126833 
0.04918174 0.01946233 0.01652271 0.00217266 0.00143936 0.00126893 0.00547217 0.00223579 0.00993565 0.00117388 0.00094783 0.00106316 0.00502312 0.00061856 0.00152353 0.00126976 
0.04925039 0.01958962 0.01668839 0.00217534 0.00143378 0.00127960 0.00542837 0.00230272 0.00985214 0.00118280 0.00094414 0.00110047 0.00510261 0.00062306 0.00150730 0.00127125 
0.04929235 0.01975023 0.01683166 0.00217852 0.00142764 0.00129007 0.00540292 0.00237256 0.00978402 0.00119157 0.00094226 0.00114215 0.00517935 0.00062787 0.00149141 0.00127279 
0.04930975 0.01994423 0.01695196 0.00218217 0.00142097 0.00130030 0.00539589 0.00244519 0.00973220 0.00120018 0.00094214 0.00118859 0.00525313 0.00063307 0.00147597 0.00127437 
0.04930471 0.02017157 0.01704884 0.00218631 0.00141382 0.00131029 0.00540724 0.00252045 0.00969757 0.00120861 0.00094371 0.00124013 0.00532374 0.00063867 0.00146112 0.00127598 
0.04927932 0.02043213 0.01712194 0.00219095 0.00140621 0.00132001 0.00543680 0.00259822 0.00968093 0.00121682 0.00094691 0.00129714 0.00539101 0.00064475 0.00144697 0.00127762 
0.04923566 0.02072572 0.01717098 0.00219608 0.00139820 0.00132945 0.00548427 0.00267832 0.00968303 0.00122481 0.00095165 0.00135999 0.00545473 0.00065134 0.00143362 0.00127928 
0.04917574 0.02105205 0.01719581 0.00220173 0.00138981 0.00133859 0.00554925 0.00276057 0.00970455 0.00123256 0.00095785 0.00142901 0.00551474 0.00065849 0.00142119 0.00128095 
0.04910156 0.02141073 0.01719633 0.00220793 0.00138108 0.00134742 0.00563121 0.00284479 0.00974609 0.00124006 0.00096541 0.00150455 0.00557086 0.00066625 0.00140978 0.00128262 
0.04901505 0.02180133 0.01717259 0.00221471 0.00137205 0.00135595 0.00572951 0.00293075 0.00980816 0.00124729 0.00097421 0.00158694 0.00562293 0.00067466 0.00139948 0.00128428 
0.04891811 0.02222328 0.01712471 0.00222210 0.00136275 0.00136415 0.00584340 0.00301826 0.00989119 0.00125424 0.00098416 0.00167647 0.00567080 0.00068378 0.00139037 0.00128593 
0.04881256 0.02267596 0.01705290 0.00223015 0.00135323 0.00137202 0.00597203 0.00310707 0.00999551 0.00126091 0.00099513 0.00177345 0.00571432 0.00069365 0.00138254 0.00128756 
0.04870021 0.02315864 0.01695748 0.00223890 0.00134350 0.00137957 0.00611444 0.00319695 0.01012134 0.00126729 0.00100700 0.00187814 0.00575336 0.00070431 0.00137604 0.00128916 
0.04858276 0.02367052 0.01683887 0.00224840 0.00133360 0.00138679 0.00626959 0.00328763 0.01026882 0.00127338 0.00101964 0.00199078 0.00578779 0.00071581 0.00137094 0.00129072 
0.04846192 0.02421069 0.01669757 0.00225870 0.00132357 0.00139369 0.00643634 0.00337887 0.01043795 0.00127918 0.00103292 0.00211158 0.00581751 0.00072817 0.00136729 0.00129224 
0.04833929 0.02477817 0.01653417 0.00226986 0.00131343 0.00140026 0.00661351 0.00347040 0.01062864 0.00128469 0.00104670 0.00224073 0.00584240 0.00074145 0.00136514 0.00129372 
0.04821648 0.02537188 0.01634935 0.00228194 0.00130322 0.00140650 0.00679979 0.00356192 0.01084068 0.00128990 0.00106085 0.00237838 0.00586238 0.00075568 0.00136450 0.00129515 
0.04809501 0.02599065 0.01614389 0.00229500 0.00129295 0.00141244 0.00699388 0.00365317 0.01107375 0.00129483 0.00107523 0.00252463 0.00587738 0.00077088 0.00136541 0.00129652 
0.04797639 0.02663322 0.01591862 0.00230909 0.00128265 0.00141806 0.00719436 0.00374386 0.01132740 0.00129948 0.00108971 0.00267957 0.00588731 0.00078709 0.00136788 0.00129783 
0.04786208 0.02729826 0.01567447 0.00232426 0.00127235 0.00142337 0.00739983 0.00383369 0.01160107 0.00130384 0.00110414 0.00284322 0.00589214 0.00080432 0.00137192 0.00129907 
0.04775351 0.02798432 0.01541244 0.00234059 0.00126207 0.00142839 0.00760883 0.00392237 0.01189410 0.00130793 0.00111840 0.00301557 0.00589182 0.00082261 0.00137751 0.00130026 
0.04765208 0.02868989 0.01513359 0.00235812 0.00125183 0.00143312 0.00781988 0.00400961 0.01220568 0.00131176 0.00113236 0.00319656 0.00588632 0.00084195 0.00138464 0.00130137 
0.04755917 0.02941336 0.01483905 0.00237690 0.00124165 0.00143757 0.00803149 0.00409512 0.01253492 0.00131533 0.00114588 0.00338610 0.00587563 0.00086237 0.00139329 0.00130241 
0.04747615 0.03015304 0.01453001 0.00239698 0.00123154 0.00144173 0.00824219 0.00417859 0.01288080 0.00131864 0.00115885 0.00358401 0.00585976 0.00088387 0.00140343 0.00130338 
0.04740437 0.03090717 0.01420769 0.00241840 0.00122153 0.00144563 0.00845051 0.00425975 0.01324221 0.00132171 0.00117114 0.00379011 0.00583871 0.00090644 0.00141502 0.00130428 
0.04734515 0.03167390 0.01387338 0.00244119 0.00121163 0.00144927 0.00865500 0.00433831 0.01361791 0.00132454 0.00118264 0.00400413 0.00581252 0.00093010 0.00142801 0.00130511 
0.04729982 0.03245130 0.01352841 0.00246539 0.00120186 0.00145266 0.00885424 0.00441399 0.01400660 0.00132714 0.00119326 0.00422577 0.00578124 0.00095481 0.00144234 0.00130587 
0.04726970 0.03323739 0.01317414 0.00249102 0.00119222 0.00145580 0.00904688 0.00448653 0.01440685 0.00132952 0.00120289 0.00445466 0.00574493 0.00098057 0.00145795 0.00130655 
0.04725611 0.03403010 0.01281194 0.00251809 0.00118273 0.00145869 0.00923161 0.00455565 0.01481718 0.00133169 0.00121145 0.00469041 0.00570367 0.00100736 0.00147478 0.00130717 
0.04726035 0.03482732 0.01244324 0.00254660 0.00117340 0.00146136 0.00940717 0.00462112 0.01523601 0.00133365 0.00121886 0.00493254 0.00565754 0.00103514 0.00149275 0.00130772 
0.04728373 0.03562688 0.01206945 0.00257655 0.00116423 0.00146379 0.00957240 0.00468269 0.01566170 0.00133540 0.00122504 0.00518054 0.00560667 0.00106388 0.00151178 0.00130821 
0.04732755 0.03642653 0.01169201 0.00260792 0.00115524 0.00146601 0.00972620 0.00474013 0.01609255 0.00133697 0.00122993 0.00543385 0.00555116 0.00109354 0.00153179 0.00130864 
0.04739311 0.03722403 0.01131235 0.00264070 0.00114644 0.00146800 0.00986759 0.00479323 0.01652678 0.00133834 0.00123349 0.00569187 0.00549118 0.00112408 0.00155271 0.00130901 
0.04748169 0.03801705 0.01093192 0.00267484 0.00113783 0.00146979 0.00999567 0.00484181 0.01696262 0.00133953 0.00123568 0.00595394 0.00542686 0.00115543 0.00157443 0.00130933 
0.04759455 0.03880327 0.01055213 0.00271029 0.00112941 0.00147137 0.01010964 0.00488566 0.01739820 0.00134054 0.00123646 0.00621936 0.00535840 0.00118755 0.00159686 0.00130960 
0.04773295 0.03958034 0.01017439 0.00274700 0.00112120 0.00147274 0.01020883 0.00492464 0.01783169 0.00134138 0.00123583 0.00648740 0.00528598 0.00122036 0.00161993 0.00130982 
0.04789811 0.04034589 0.00980008 0.00278491 0.00111319 0.00147392 0.01029268 0.00495860 0.01826119 0.00134205 0.00123376 0.00675728 0.00520980 0.00125380 0.00164353 0.00131000 
0.04809123 0.04109755 0.00943057 0.00282392 0.00110538 0.00147491 0.01036075 0.00498741 0.01868485 0.00134256 0.00123027 0.00702821 0.00513008 0.00128780 0.00166757 0.00131015 
0.04831346 0.04183296 0.00906717 0.00286394 0.00109779 0.00147570 0.01041274 0.00501097 0.01910077 0.00134289 0.00122538 0.00729933 0.00504708 0.00132226 0.00169196 0.00131026 
0.04856590 0.04254978 0.00871118 0.00290488 0.00109041 0.00147632 0.01044845 0.00502919 0.01950712 0.00134307 0.00121911 0.00756981 0.00496103 0.00135711 0.00171662 0.00131035 
0.04884961 0.04324570 0.00836382 0.00294662 0.00108325 0.00147675 0.01046783 0.00504200 0.01990206 0.00134309 0.00121149 0.00783876 0.00487220 0.00139225 0.00174146 0.00131042 
0.04916556 0.04391843 0.00802628 0.00298902 0.00107630 0.00147702 0.01047097 0.00504937 0.02028381 0.00134296 0.00120258 0.00810529 0.00478089 0.00142760 0.00176640 0.00131047 
0.04951466 0.04456574 0.00769971 0.00303197 0.00106956 0.00147712 0.01045808 0.00505128 0.02065064 0.00134266 0.00119243 0.00836851 0.00468737 0.00146304 0.00179135 0.00131051 
0.04989771 0.04518547 0.00738516 0.00307530 0.00106303 0.00147707 0.01042947 0.00504772 0.02100085 0.00134222 0.00118111 0.00862751 0.00459197 0.00149849 0.00181625 0.00131054 
0.05031544 0.04577551 0.00708366 0.00311888 0.00105672 0.00147687 0.01038563 0.00503872 0.02133286 0.00134162 0.00116871 0.00888139 0.00449501 0.00153383 0.00184102 0.00131058 
0.05076843 0.04633384 0.00679613 0.00316253 0.00105062 0.00147653 0.01032714 0.00502432 0.02164511 0.00134087 0.00115530 0.00912928 0.00439681 0.00156897 0.00186560 0.00131062 
0.05125717 0.04685855 0.00652345 0.00320609 0.00104473 0.00147607 0.01025470 0.00500460 0.02193618 0.00133997 0.00114098 0.00937029 0.00429772 0.00160378 0.00188993 0.00131067 
0.05178197 0.04734779 0.00626641 0.00324939 0.00103904 0.00147549 0.01016913 0.00497963 0.02220470 0.00133893 0.00112585 0.00960358 0.00419810 0.00163817 0.00191397 0.00131074 
0.05234304 0.04779987 0.00602573 0.00329224 0.00103356 0.00147482 0.01007136 0.00494953 0.02244944 0.00133774 0.00111003 0.00982833 0.00409830 0.00167203 0.00193767 0.00131083 
0.05294039 0.04821320 0.00580205 0.00333446 0.00102828 0.00147406 0.00996241 0.00491443 0.02266927 0.00133640 0.00109362 0.01004376 0.00399870 0.00170524 0.00196100 0.00131094 
0.05357387 0.04858632 0.00559590 0.00337586 0.00102319 0.00147324 0.00984340 0.00487448 0.02286315 0.00133493 0.00107675 0.01024912 0.00389967 0.00173770 0.00198392 0.00131107 
0.05424316 0.04891792 0.00540777 0.00341625 0.00101829 0.00147237 0.00971553 0.00482984 0.02303021 0.00133332 0.00105954 0.01044373 0.00380159 0.00176929 0.00200642 0.00131124 
0.05494772 0.04920685 0.00523803 0.00345545 0.00101357 0.00147148 0.00958007 0.00478071 0.02316968 0.00133158 0.00104213 0.01062693 0.00370485 0.00179992 0.00202849 0.00131145 
0.05568683 0.04945210 0.00508698 0.00349326 0.00100904 0.00147059 0.00943837 0.00472728 0.02328092 0.00132971 0.00102463 0.01079815 0.00360983 0.00182948 0.00205011 0.00131169 
0.05645954 0.04965285 0.00495483 0.00352949 0.00100468 0.00146972 0.00929181 0.00466978 0.02336344 0.00132773 0.00100719 0.01095689 0.00351693 0.00185787 0.00207131 0.00131198 
0.05726471 0.04980843 0.00484170 0.00356395 0.00100048 0.00146891 0.00914183 0.00460844 0.02341688 0.00132563 0.00098994 0.01110270 0.00342652 0.00188500 0.00209208 0.00131231 
0.05810095 0.04991838 0.00474761 0.00359647 0.00099645 0.00146817 0.00898989 0.00454350 0.02344103 0.00132343 0.00097301 0.01123521 0.00333899 0.00191078 0.00211246 0.00131269 
0.05896665 0.04998241 0.00467253 0.00362688 0.00099256 0.00146753 0.00883748 0.00447524 0.02343580 0.00132113 0.00095654 0.01135414 0.00325472 0.00193511 0.00213247 0.00131313 
0.05985997 0.05000041 0.00461631 0.00365499 0.00098882 0.00146704 0.00868610 0.00440391 0.02340128 0.00131876 0.00094065 0.01145930 0.00317409 0.00195793 0.00215214 0.00131361 
0.06077884 0.04997248 0.00457873 0.00368064 0.00098522 0.00146672 0.00853723 0.00432981 0.02333765 0.00131631 0.00092548 0.01155057 0.00309746 0.00197915 0.00217152 0.00131414 
0.06172096 0.04989891 0.00455948 0.00370370 0.00098173 0.00146660 0.00839234 0.00425321 0.02324528 0.00131381 0.00091115 0.01162794 0.00302519 0.00199871 0.00219066 0.00131473 
0.06268378 0.04978019 0.00455819 0.00372400 0.00097837 0.00146673 0.00825287 0.00417441 0.02312464 0.00131127 0.00089778 0.01169148 0.00295763 0.00201655 0.00220962 0.00131538 
0.06366454 0.04961699 0.00457440 0.00374142 0.00097511 0.00146713 0.00812024 0.00409372 0.02297636 0.00130870 0.00088548 0.01174137 0.00289509 0.00203263 0.00222847 0.00131608 
0.06466025 0.04941020 0.00460756 0.00375585 0.00097195 0.00146785 0.00799580 0.00401142 0.02280116 0.00130613 0.00087436 0.01177787 0.00283792 0.00204689 0.00224726 0.00131683 
0.06566772 0.04916090 0.00465708 0.00376716 0.00096887 0.00146891 0.00788083 0.00392783 0.02259993 0.00130358 0.00086453 0.01180135 0.00278640 0.00205930 0.00226607 0.00131765 
0.06668354 0.04887034 0.00472229 0.00377527 0.00096586 0.00147036 0.00777655 0.00384325 0.02237365 0.00130106 0.00085607 0.01181226 0.00274082 0.00206984 0.00228499 0.00131852 
0.06770411 0.04853997 0.00480244 0.00378010 0.00096291 0.00147224 0.00768410 0.00375798 0.02212341 0.00129860 0.00084907 0.01181117 0.00270144 0.00207848 0.00230408 0.00131944 
0.06872564 0.04817142 0.00489675 0.00378159 0.00096001 0.00147457 0.00760453 0.00367231 0.02185042 0.00129622 0.00084361 0.01179871 0.00266851 0.00208523 0.00232344 0.00132041 
0.06974418 0.04776649 0.00500437 0.00377968 0.00095715 0.00147740 0.00753877 0.00358654 0.02155598 0.00129395 0.00083976 0.01177562 0.00264225 0.00209008 0.00234315 0.00132144 
0.07075562 0.04732715 0.00512439 0.00377435 0.00095431 0.00148076 0.00748765 0.00350096 0.02124148 0.00129181 0.00083757 0.01174272 0.00262285 0.00209304 0.00236329 0.00132252 
0.07175573 0.04685553 0.00525587 0.00376558 0.00095147 0.00148468 0.00745190 0.00341584 0.02090837 0.00128984 0.00083708 0.01170092 0.00261048 0.00209413 0.00238395 0.00132365 
0.07274016 0.04635389 0.00539784 0.00375336 0.00094864 0.00148919 0.00743211 0.00333145 0.02055820 0.00128805 0.00083834 0.01165119 0.00260528 0.00209339 0.00240522 0.00132482 
0.07370445 0.04582465 0.00554927 0.00373773 0.00094578 0.00149432 0.00742875 0.00324805 0.02019257 0.00128648 0.00084136 0.01159457 0.00260738 0.00209085 0.00242718 0.00132604 
0.07464408 0.04527032 0.00570910 0.00371870 0.00094290 0.00150010 0.00744214 0.00316589 0.01981313 0.00128515 0.00084617 0.01153217 0.00261686 0.00208655 0.00244992 0.00132730 
0.07555448 0.04469355 0.00587628 0.00369633 0.00093997 0.00150654 0.00747250 0.00308520 0.01942156 0.00128410 0.00085277 0.01146515 0.00263376 0.00208056 0.00247350 0.00132860 
0.07643105 0.04409709 0.00604970 0.00367070 0.00093698 0.00151368 0.00751988 0.00300620 0.01901959 0.00128336 0.00086113 0.01139473 0.00265813 0.00207294 0.00249801 0.00132993 
0.07726919 0.04348374 0.00622826 0.00364188 0.00093392 0.00152152 0.00758421 0.00292909 0.01860896 0.00128295 0.00087126 0.01132215 0.00268995 0.00206376 0.00252352 0.00133130 
0.07806433 0.04285641 0.00641086 0.00360996 0.00093078 0.00153009 0.00766528 0.00285407 0.01819142 0.00128290 0.00088311 0.01124868 0.00272919 0.00205310 0.00255009 0.00133270 
0.07881193 0.04221804 0.00659637 0.00357508 0.00092753 0.00153938 0.00776273 0.00278130 0.01776872 0.00128325 0.00089664 0.01117562 0.00277577 0.00204105 0.00257777 0.00133412 
0.07950756 0.04157161 0.00678368 0.00353735 0.00092418 0.00154940 0.00787608 0.00271093 0.01734261 0.00128402 0.00091181 0.01110427 0.00282961 0.00202770 0.00260662 0.00133556 
0.08014687 0.04092012 0.00697169 0.00349692 0.00092070 0.00156015 0.00800472 0.00264312 0.01691481 0.00128524 0.00092855 0.01103593 0.00289055 0.00201314 0.00263668 0.00133703 
0.08072562 0.04026658 0.00715932 0.00345393 0.00091709 0.00157163 0.00814789 0.00257798 0.01648701 0.00128694 0.00094678 0.01097189 0.00295844 0.00199749 0.00266799 0.00133850 
0.08123978 0.03961400 0.00734550 0.00340857 0.00091332 0.00158383 0.00830473 0.00251560 0.01606087 0.00128913 0.00096643 0.01091341 0.00303309 0.00198085 0.00270057 0.00133999 
0.08168545 0.03896534 0.00752919 0.00336101 0.00090941 0.00159673 0.00847426 0.00245608 0.01563799 0.00129185 0.00098741 0.01086173 0.00311426 0.00196333 0.00273443 0.00134149 
0.08205895 0.03832353 0.00770936 0.00331144 0.00090532 0.00161032 0.00865538 0.00239947 0.01521992 0.00129511 0.00100963 0.01081802 0.00320169 0.00194505 0.00276958 0.00134298 
0.08235686 0.03769144 0.00788506 0.00326005 0.00090106 0.00162456 0.00884690 0.00234583 0.01480816 0.00129893 0.00103296 0.01078343 0.00329511 0.00192612 0.00280603 0.00134448 
0.08257596 0.03707186 0.00805534 0.00320706 0.00089661 0.00163942 0.00904755 0.00229519 0.01440412 0.00130333 0.00105732 0.01075901 0.00339419 0.00190666 0.00284375 0.00134597 
0.08271335 0.03646750 0.00821930 0.00315266 0.00089197 0.00165488 0.00925596 0.00224756 0.01400912 0.00130833 0.00108257 0.01074576 0.00349860 0.00188680 0.00288272 0.00134746 
0.08276641 0.03588096 0.00837610 0.00309709 0.00088713 0.00167088 0.00947068 0.00220294 0.01362443 0.00131393 0.00110860 0.01074457 0.00360797 0.00186664 0.00292291 0.00134893 
0.08273284 0.03531470 0.00852495 0.00304056 0.00088209 0.00168739 0.00969023 0.00216131 0.01325121 0.00132014 0.00113527 0.01075625 0.00372191 0.00184631 0.00296427 0.00135038 
0.08261065 0.03477109 0.00866510 0.00298330 0.00087685 0.00170434 0.00991307 0.00212263 0.01289052 0.00132697 0.00116248 0.01078152 0.00384001 0.00182592 0.00300674 0.00135181 
0.08239824 0.03425231 0.00879589 0.00292554 0.00087139 0.00172170 0.01013760 0.00208685 0.01254334 0.00133442 0.00119007 0.01082096 0.00396183 0.00180559 0.00305026 0.00135323 
0.08209433 0.03376040 0.00891669 0.00286750 0.00086572 0.00173938 0.01036223 0.00205393 0.01221051 0.00134249 0.00121792 0.01087504 0.00408692 0.00178541 0.00309475 0.00135461 
0.08169805 0.03329725 0.00902694 0.00280940 0.00085984 0.00175734 0.01058533 0.00202377 0.01189281 0.00135118 0.00124590 0.01094412 0.00421483 0.00176551 0.00314012 0.00135596 
0.08120890 0.03286454 0.00912617 0.00275148 0.00085375 0.00177549 0.01080529 0.00199630 0.01159089 0.00136046 0.00127387 0.01102842 0.00434506 0.00174598 0.00318628 0.00135728 
0.08062676 0.03246379 0.00921395 0.00269396 0.00084746 0.00179378 0.01102052 0.00197143 0.01130528 0.00137034 0.00130170 0.01112803 0.00447712 0.00172691 0.00323313 0.00135856 
0.07995192 0.03209631 0.00928994 0.00263704 0.00084096 0.00181211 0.01122942 0.00194905 0.01103642 0.00138080 0.00132927 0.01124289 0.00461053 0.00170839 0.00328055 0.00135980 
0.07918508 0.03176322 0.00935385 0.00258095 0.00083427 0.00183042 0.01143046 0.00192906 0.01078464 0.00139181 0.00135644 0.01137282 0.00474476 0.00169051 0.00332842 0.00136099 
0.07832731 0.03146542 0.00940549 0.00252588 0.00082739 0.00184862 0.01162216 0.00191133 0.01055015 0.00140335 0.00138311 0.01151747 0.00487931 0.00167333 0.00337662 0.00136214 
0.07738011 0.03120362 0.00944472 0.00247203 0.00082033 0.00186662 0.01180309 0.00189576 0.01033307 0.00141540 0.00140914 0.01167639 0.00501367 0.00165693 0.00342501 0.00136324 
0.07634536 0.03097831 0.00947147 0.00241960 0.00081310 0.00188436 0.01197190 0.00188222 0.01013339 0.00142792 0.00143444 0.01184896 0.00514733 0.00164137 0.00347346 0.00136429 
0.07522534 0.03078975 0.00948576 0.00236875 0.00080571 0.00190173 0.01212732 0.00187059 0.00995103 0.00144088 0.00145889 0.01203443 0.00527977 0.00162669 0.00352183 0.00136529 
0.07402270 0.03063803 0.00948768 0.00231967 0.00079819 0.00191865 0.01226819 0.00186075 0.00978579 0.00145424 0.00148239 0.01223193 0.00541051 0.00161293 0.00356997 0.00136622 
0.07274046 0.03052299 0.00947737 0.00227250 0.00079053 0.00193505 0.01239343 0.00185258 0.00963740 0.00146797 0.00150487 0.01244044 0.00553904 0.00160014 0.00361774 0.00136710 
0.07138200 0.03044427 0.00945504 0.00222740 0.00078276 0.00195083 0.01250210 0.00184596 0.00950547 0.00148201 0.00152623 0.01265883 0.00566490 0.00158832 0.00366499 0.00136792 
0.06995105 0.03040132 0.00942099 0.00218449 0.00077490 0.00196591 0.01259337 0.00184079 0.00938956 0.00149632 0.00154640 0.01288585 0.00578761 0.00157750 0.00371157 0.00136868 
0.06845167 0.03039338 0.00937557 0.00214389 0.00076697 0.00198022 0.01266653 0.00183695 0.00928913 0.00151086 0.00156533 0.01312017 0.00590673 0.00156769 0.00375734 0.00136938 
0.06688820 0.03041949 0.00931918 0.00210572 0.00075898 0.00199367 0.01272102 0.00183435 0.00920358 0.00152556 0.00158294 0.01336032 0.00602183 0.00155887 0.00380216 0.00137001 
0.06526529 0.03047854 0.00925229 0.00207007 0.00075096 0.00200620 0.01275641 0.00183290 0.00913225 0.00154038 0.00159921 0.01360478 0.00613251 0.00155103 0.00384588 0.00137058 
0.06358786 0.03056919 0.00917543 0.00203702 0.00074293 0.00201773 0.01277242 0.00183252 0.00907442 0.00155527 0.00161409 0.01385193 0.00623837 0.00154416 0.00388837 0.00137108 
0.06186105 0.03068998 0.00908916 0.00200664 0.00073491 0.00202820 0.01276890 0.00183313 0.00902930 0.00157016 0.00162756 0.01410010 0.00633908 0.00153823 0.00392950 0.00137152 
0.06009024 0.03083927 0.00899412 0.00197897 0.00072693 0.00203755 0.01274587 0.00183469 0.00899610 0.00158500 0.00163960 0.01434757 0.00643429 0.00153319 0.00396914 0.00137189 
0.05828100 0.03101528 0.00889096 0.00195406 0.00071902 0.00204573 0.01270349 0.00183714 0.00897395 0.00159973 0.00165021 0.01459258 0.00652371 0.00152900 0.00400718 0.00137219 
0.05643905 0.03121610 0.00878038 0.00193194 0.00071119 0.00205268 0.01264206 0.00184045 0.00896198 0.00161430 0.00165940 0.01483335 0.00660706 0.00152560 0.00404352 0.00137242 
0.05457025 0.03143970 0.00866313 0.00191260 0.00070349 0.00205838 0.01256203 0.00184461 0.00895929 0.00162864 0.00166717 0.01506809 0.00668412 0.00152295 0.00407804 0.00137259 
0.05268059 0.03168392 0.00853998 0.00189606 0.00069592 0.00206279 0.01246401 0.00184959 0.00896499 0.00164271 0.00167356 0.01529502 0.00675469 0.00152096 0.00411067 0.00137269 
0.05077613 0.03194655 0.00841170 0.00188230 0.00068852 0.00206587 0.01234873 0.00185543 0.00897814 0.00165643 0.00167860 0.01551239 0.00681859 0.00151958 0.00414131 0.00137272 
0.04886298 0.03222526 0.00827912 0.00187129 0.00068131 0.00206762 0.01221706 0.00186212 0.00899786 0.00166977 0.00168232 0.01571847 0.00687571 0.00151872 0.00416992 0.00137269 
0.04694728 0.03251768 0.00814306 0.00186299 0.00067433 0.00206803 0.01207000 0.00186972 0.00902322 0.00168266 0.00168479 0.01591160 0.00692593 0.00151831 0.00419641 0.00137260 
0.04503517 0.03282137 0.00800435 0.00185735 0.00066759 0.00206709 0.01190866 0.00187828 0.00905336 0.00169506 0.00168605 0.01609018 0.00696922 0.00151825 0.00422076 0.00137244 
0.04313274 0.03313388 0.00786384 0.00185430 0.00066113 0.00206482 0.01173429 0.00188785 0.00908742 0.00170692 0.00168617 0.01625270 0.00700554 0.00151848 0.00424293 0.00137222 
0.04124604 0.03345272 0.00772236 0.00185378 0.00065496 0.00206123 0.01154821 0.00189852 0.00912457 0.00171819 0.00168524 0.01639775 0.00703493 0.00151889 0.00426289 0.00137194 
0.03938103 0.03377539 0.00758075 0.00185570 0.00064912 0.00205635 0.01135185 0.00191038 0.00916402 0.00172883 0.00168331 0.01652401 0.00705743 0.00151940 0.00428064 0.00137160 
0.03754353 0.03409941 0.00743982 0.00185998 0.00064362 0.00205021 0.01114674 0.00192353 0.00920503 0.00173880 0.00168049 0.01663032 0.00707315 0.00151992 0.00429618 0.00137120 
0.03573925 0.03442230 0.00730039 0.00186650 0.00063849 0.00204286 0.01093446 0.00193808 0.00924689 0.00174807 0.00167685 0.01671564 0.00708220 0.00152035 0.00430953 0.00137075 
0.03397372 0.03474164 0.00716324 0.00187517 0.00063375 0.00203436 0.01071665 0.00195417 0.00928896 0.00175661 0.00167250 0.01677907 0.00708476 0.00152062 0.00432071 0.00137025 
0.03225229 0.03505505 0.00702912 0.00188587 0.00062942 0.00202477 0.01049501 0.00197192 0.00933064 0.00176438 0.00166751 0.01681987 0.00708103 0.00152064 0.00432977 0.00136970 
0.03058007 0.03536019 0.00689877 0.00189847 0.00062551 0.00201414 0.01027128 0.00199147 0.00937142 0.00177137 0.00166200 0.01683750 0.00707125 0.00152032 0.00433675 0.00136910 
0.02896197 0.03565481 0.00677289 0.00191287 0.00062204 0.00200258 0.01004720 0.00201298 0.00941081 0.00177757 0.00165606 0.01683156 0.00705567 0.00151958 0.00434172 0.00136846 
0.02740263 0.03593674 0.00665212 0.00192891 0.00061903 0.00199015 0.00982453 0.00203660 0.00944842 0.00178295 0.00164979 0.01680186 0.00703460 0.00151835 0.00434474 0.00136778 
0.02590642 0.03620390 0.00653709 0.00194648 0.00061649 0.00197696 0.00960505 0.00206248 0.00948392 0.00178750 0.00164329 0.01674837 0.00700836 0.00151656 0.00434590 0.00136707 
0.02447742 0.03645432 0.00642836 0.00196544 0.00061443 0.00196311 0.00939047 0.00209079 0.00951704 0.00179124 0.00163666 0.01667129 0.00697730 0.00151413 0.00434528 0.00136632 
0.02311939 0.03668611 0.00632645 0.00198564 0.00061285 0.00194869 0.00918253 0.00212169 0.00954759 0.00179415 0.00162999 0.01657100 0.00694180 0.00151103 0.00434299 0.00136554 
0.02183581 0.03689755 0.00623185 0.00200695 0.00061177 0.00193383 0.00898288 0.00215533 0.00957545 0.00179624 0.00162338 0.01644806 0.00690227 0.00150718 0.00433912 0.00136473 
0.02062979 0.03708700 0.00614495 0.00202923 0.00061119 0.00191863 0.00879313 0.00219187 0.00960055 0.00179753 0.00161692 0.01630325 0.00685912 0.00150254 0.00433378 0.00136391 
0.01950412 0.03725296 0.00606612 0.00205234 0.00061110 0.00190323 0.00861483 0.00223146 0.00962291 0.00179803 0.00161069 0.01613753 0.00681278 0.00149708 0.00432708 0.00136306 
0.01846124 0.03739409 0.00599567 0.00207614 0.00061152 0.00188774 0.00844943 0.00227426 0.00964262 0.00179777 0.00160478 0.01595207 0.00676371 0.00149077 0.00431914 0.00136221 
0.01750323 0.03750917 0.00593384 0.00210049 0.00061243 0.00187230 0.00829830 0.00232038 0.00965981 0.00179676 0.00159925 0.01574820 0.00671238 0.00148357 0.00431009 0.00136135 
0.01663181 0.03759712 0.00588081 0.00212526 0.00061382 0.00185702 0.00816271 0.00236997 0.00967468 0.00179504 0.00159420 0.01552744 0.00665926 0.00147548 0.00430003 0.00136048 
0.01584835 0.03765701 0.00583671 0.00215031 0.00061570 0.00184205 0.00804381 0.00242314 0.00968751 0.00179264 0.00158966 0.01529148 0.00660482 0.00146649 0.00428910 0.00135962 
0.01515383 0.03768807 0.00580159 0.00217552 0.00061805 0.00182751 0.00794263 0.00247999 0.00969861 0.00178960 0.00158572 0.01504217 0.00654955 0.00145661 0.00427741 0.00135877 
0.01454890 0.03768967 0.00577548 0.00220077 0.00062086 0.00181353 0.00786008 0.00254060 0.00970834 0.00178595 0.00158240 0.01478150 0.00649394 0.00144583 0.00426507 0.00135793 
0.01403382 0.03766131 0.00575830 0.00222592 0.00062411 0.00180023 0.00779693 0.00260506 0.00971712 0.00178175 0.00157976 0.01451160 0.00643846 0.00143419 0.00425221 0.00135711 
0.01360850 0.03760265 0.00574994 0.00225086 0.00062778 0.00178776 0.00775379 0.00267341 0.00972540 0.00177704 0.00157783 0.01423472 0.00638360 0.00142171 0.00423893 0.00135631 
0.01327251 0.03751351 0.00575024 0.00227549 0.00063186 0.00177622 0.00773114 0.00274569 0.00973366 0.00177187 0.00157663 0.01395321 0.00632981 0.00140841 0.00422533 0.00135554 
0.01302507 0.03739381 0.00575896 0.00229969 0.00063632 0.00176574 0.00772932 0.00282191 0.00974242 0.00176628 0.00157618 0.01366953 0.00627757 0.00139436 0.00421153 0.00135480 
0.01286505 0.03724365 0.00577584 0.00232337 0.00064114 0.00175644 0.00774849 0.00290207 0.00975222 0.00176034 0.00157649 0.01338618 0.00622730 0.00137959 0.00419761 0.00135411 
0.01279102 0.03706323 0.00580053 0.00234643 0.00064629 0.00174841 0.00778866 0.00298614 0.00976361 0.00175410 0.00157756 0.01310574 0.00617945 0.00136416 0.00418365 0.00135346 
0.01280120 0.03685290 0.00583268 0.00236878 0.00065175 0.00174177 0.00784970 0.00307407 0.00977715 0.00174761 0.00157939 0.01283080 0.00613441 0.00134814 0.00416973 0.00135287 
0.01289355 0.03661313 0.00587184 0.00239034 0.00065749 0.00173661 0.00793132 0.00316578 0.00979341 0.00174092 0.00158195 0.01256398 0.00609257 0.00133160 0.00415593 0.00135232 
0.01306570 0.03634451 0.00591757 0.00241104 0.00066347 0.00173303 0.00803307 0.00326117 0.00981296 0.00173410 0.00158521 0.01230790 0.00605431 0.00131462 0.00414229 0.00135185 
0.01331503 0.03604773 0.00596937 0.00243080 0.00066967 0.00173109 0.00815435 0.00336012 0.00983635 0.00172719 0.00158916 0.01206514 0.00601994 0.00129727 0.00412887 0.00135143 
0.01363866 0.03572359 0.00602670 0.00244956 0.00067605 0.00173088 0.00829443 0.00346249 0.00986413 0.00172026 0.00159374 0.01183823 0.00598979 0.00127964 0.00411570 0.00135109 
0.01403346 0.03537301 0.00608900 0.00246728 0.00068258 0.00173245 0.00845241 0.00356809 0.00989682 0.00171335 0.00159890 0.01162967 0.00596413 0.00126183 0.00410281 0.00135082 
0.01449609 0.03499698 0.00615570 0.00248388 0.00068921 0.00173586 0.00862729 0.00367673 0.00993491 0.00170652 0.00160460 0.01144183 0.00594320 0.00124392 0.00409022 0.00135064 
0.01502298 0.03459659 0.00622618 0.00249935 0.00069593 0.00174116 0.00881793 0.00378820 0.00997886 0.00169982 0.00161077 0.01127700 0.00592723 0.00122602 0.00407793 0.00135053 
0.01561041 0.03417300 0.00629983 0.00251363 0.00070268 0.00174837 0.00902307 0.00390224 0.01002908 0.00169329 0.00161734 0.01113734 0.00591639 0.00120821 0.00406594 0.00135051 
0.01625445 0.03372745 0.00637601 0.00252670 0.00070944 0.00175753 0.00924135 0.00401860 0.01008597 0.00168699 0.00162425 0.01102486 0.00591083 0.00119061 0.00405423 0.00135059 
0.01695105 0.03326125 0.00645408 0.00253853 0.00071617 0.00176863 0.00947131 0.00413698 0.01014985 0.00168095 0.00163141 0.01094143 0.00591066 0.00117330 0.00404278 0.00135075 
0.01769603 0.03277574 0.00653340 0.00254912 0.00072283 0.00178170 0.00971139 0.00425707 0.01022100 0.00167521 0.00163874 0.01088873 0.00591595 0.00115639 0.00403155 0.00135101 
0.01848509 0.03227236 0.00661334 0.00255844 0.00072938 0.00179671 0.00995999 0.00437854 0.01029963 0.00166981 0.00164615 0.01086824 0.00592673 0.00113998 0.00402050 0.00135136 
0.01931386 0.03175257 0.00669325 0.00256649 0.00073580 0.00181365 0.01021541 0.00450105 0.01038591 0.00166479 0.00165357 0.01088124 0.00594300 0.00112416 0.00400957 0.00135181 
0.02017790 0.03121785 0.00677253 0.00257328 0.00074205 0.00183250 0.01047592 0.00462424 0.01047994 0.00166017 0.00166090 0.01092881 0.00596473 0.00110904 0.00399871 0.00135236 
0.02107270 0.03066975 0.00685056 0.00257880 0.00074809 0.00185320 0.01073975 0.00474773 0.01058175 0.00165598 0.00166805 0.01101178 0.00599184 0.00109469 0.00398785 0.00135301 
0.02199377 0.03010983 0.00692676 0.00258308 0.00075389 0.00187571 0.01100511 0.00487112 0.01069130 0.00165224 0.00167493 0.01113075 0.00602422 0.00108122 0.00397690 0.00135375 
0.02293658 0.02953967 0.00700058 0.00258612 0.00075942 0.00189998 0.01127020 0.00499402 0.01080850 0.00164898 0.00168145 0.01128606 0.00606172 0.00106870 0.00396580 0.00135458 
0.02389662 0.02896088 0.00707146 0.00258795 0.00076466 0.00192593 0.01153321 0.00511601 0.01093318 0.00164620 0.00168752 0.01147782 0.00610416 0.00105722 0.00395445 0.00135550 
0.02486943 0.02837506 0.00713891 0.00258860 0.00076957 0.00195349 0.01179237 0.00523667 0.01106509 0.00164392 0.00169305 0.01170587 0.00615132 0.00104685 0.00394277 0.00135652 
0.02585059 0.02778382 0.00720247 0.00258809 0.00077413 0.00198256 0.01204593 0.00535558 0.01120393 0.00164214 0.00169797 0.01196979 0.00620298 0.00103766 0.00393066 0.00135761 
0.02683577 0.02718880 0.00726168 0.00258647 0.00077831 0.00201307 0.01229218 0.00547231 0.01134933 0.00164087 0.00170218 0.01226891 0.00625883 0.00102971 0.00391805 0.00135879 
0.02782072 0.02659160 0.00731617 0.00258376 0.00078210 0.00204490 0.01252947 0.00558644 0.01150085 0.00164012 0.00170562 0.01260228 0.00631860 0.00102306 0.00390482 0.00136004 
0.02880129 0.02599384 0.00736558 0.00258001 0.00078547 0.00207796 0.01275622 0.00569753 0.01165799 0.00163987 0.00170820 0.01296873 0.00638194 0.00101776 0.00389090 0.00136136 
0.02977347 0.02539711 0.00740960 0.00257528 0.00078842 0.00211212 0.01297094 0.00580517 0.01182018 0.00164013 0.00170988 0.01336681 0.00644850 0.00101385 0.00387619 0.00136274 
0.03073339 0.02480301 0.00744796 0.00256960 0.00079091 0.00214728 0.01317221 0.00590894 0.01198682 0.00164088 0.00171057 0.01379485 0.00651791 0.00101137 0.00386061 0.00136418 
0.03167732 0.02421310 0.00748044 0.00256302 0.00079295 0.00218329 0.01335873 0.00600843 0.01215723 0.00164212 0.00171024 0.01425093 0.00658977 0.00101035 0.00384407 0.00136565 
0.03260174 0.02362894 0.00750689 0.00255561 0.00079453 0.00222005 0.01352932 0.00610324 0.01233070 0.00164383 0.00170884 0.01473292 0.00666368 0.00101081 0.00382650 0.00136717 
0.03350326 0.02305206 0.00752716 0.00254742 0.00079563 0.00225742 0.01368289 0.00619299 0.01250646 0.00164599 0.00170633 0.01523848 0.00673921 0.00101276 0.00380782 0.00136871 
0.03437873 0.02248395 0.00754119 0.00253850 0.00079626 0.00229527 0.01381851 0.00627730 0.01268372 0.00164861 0.00170267 0.01576508 0.00681591 0.00101621 0.00378797 0.00137026 
0.03522519 0.02192610 0.00754895 0.00252892 0.00079641 0.00233346 0.01393536 0.00635583 0.01286165 0.00165164 0.00169786 0.01630999 0.00689335 0.00102115 0.00376690 0.00137182 
0.03603990 0.02137995 0.00755046 0.00251874 0.00079609 0.00237187 0.01403278 0.00642823 0.01303939 0.00165509 0.00169187 0.01687036 0.00697108 0.00102758 0.00374455 0.00137337 
0.03682035 0.02084693 0.00754578 0.00250801 0.00079530 0.00241035 0.01411025 0.00649419 0.01321606 0.00165892 0.00168470 0.01744315 0.00704863 0.00103548 0.00372089 0.00137490 
0.03756425 0.02032841 0.00753502 0.00249680 0.00079405 0.00244877 0.01416738 0.00655341 0.01339077 0.00166313 0.00167636 0.01802524 0.00712556 0.00104483 0.00369590 0.00137640 
0.03826957 0.01982575 0.00751834 0.00248518 0.00079235 0.00248700 0.01420396 0.00660563 0.01356263 0.00166768 0.00166686 0.01861337 0.00720140 0.00105560 0.00366955 0.00137785 
0.03893452 0.01934026 0.00749592 0.00247320 0.00079023 0.00252491 0.01421992 0.00665061 0.01373073 0.00167257 0.00165623 0.01920423 0.00727572 0.00106775 0.00364184 0.00137923 
0.03955755 0.01887322 0.00746801 0.00246093 0.00078768 0.00256236 0.01421532 0.00668812 0.01389417 0.00167777 0.00164450 0.01979443 0.00734807 0.00108123 0.00361277 0.00138055 
0.04013737 0.01842585 0.00743488 0.00244843 0.00078475 0.00259925 0.01419041 0.00671797 0.01405208 0.00168327 0.00163171 0.02038056 0.00741803 0.00109601 0.00358237 0.00138178 
0.04067296 0.01799937 0.00739682 0.00243576 0.00078143 0.00263543 0.01414556 0.00674000 0.01420360 0.00168905 0.00161792 0.02095920 0.00748517 0.00111202 0.00355065 0.00138290 
0.04116352 0.01759490 0.00735418 0.00242298 0.00077778 0.00267081 0.01408129 0.00675408 0.01434788 0.00169511 0.00160318 0.02152692 0.00754909 0.00112921 0.00351767 0.00138391 
0.04160854 0.01721358 0.00730732 0.00241014 0.00077380 0.00270525 0.01399826 0.00676011 0.01448412 0.00170141 0.00158757 0.02208035 0.00760941 0.00114752 0.00348348 0.00138478 
0.04200773 0.01685645 0.00725664 0.00239731 0.00076953 0.00273867 0.01389727 0.00675801 0.01461154 0.00170797 0.00157116 0.02261615 0.00766578 0.00116687 0.00344814 0.00138551 
0.04236108 0.01652452 0.00720254 0.00238454 0.00076501 0.00277095 0.01377922 0.00674775 0.01472944 0.00171476 0.00155402 0.02313110 0.00771784 0.00118719 0.00341173 0.00138608 
0.04266878 0.01621878 0.00714546 0.00237187 0.00076027 0.00280201 0.01364518 0.00672931 0.01483712 0.00172179 0.00153626 0.02362205 0.00776528 0.00120841 0.00337434 0.00138647 
0.04293130 0.01594011 0.00708584 0.00235937 0.00075535 0.00283175 0.01349627 0.00670272 0.01493397 0.00172905 0.00151797 0.02408599 0.00780781 0.00123046 0.00333607 0.00138668 
0.04314932 0.01568940 0.00702414 0.00234707 0.00075028 0.00286008 0.01333376 0.00666803 0.01501942 0.00173654 0.00149925 0.02452004 0.00784516 0.00125325 0.00329702 0.00138669 
0.04332373 0.01546744 0.00696083 0.00233501 0.00074511 0.00288694 0.01315898 0.00662533 0.01509299 0.00174425 0.00148020 0.02492151 0.00787712 0.00127670 0.00325732 0.00138649 
0.04345564 0.01527498 0.00689637 0.00232324 0.00073988 0.00291226 0.01297336 0.00657473 0.01515422 0.00175220 0.00146094 0.02528788 0.00790346 0.00130074 0.00321709 0.00138606 
0.04354638 0.01511272 0.00683125 0.00231180 0.00073464 0.00293596 0.01277838 0.00651639 0.01520277 0.00176039 0.00144159 0.02561683 0.00792403 0.00132527 0.00317647 0.00138540 
0.04359743 0.01498129 0.00676593 0.00230071 0.00072942 0.00295801 0.01257558 0.00645048 0.01523835 0.00176883 0.00142225 0.02590627 0.00793867 0.00135022 0.00313560 0.00138450 
0.04361048 0.01488126 0.00670088 0.00229002 0.00072428 0.00297834 0.01236657 0.00637721 0.01526075 0.00177754 0.00140305 0.02615432 0.00794730 0.00137551 0.00309463 0.00138334 
0.04358736 0.01481313 0.00663655 0.00227973 0.00071926 0.00299692 0.01215296 0.00629681 0.01526982 0.00178651 0.00138411 0.02635938 0.00794984 0.00140104 0.00305371 0.00138193 
0.04353007 0.01477735 0.00657339 0.00226988 0.00071442 0.00301371 0.01193638 0.00620955 0.01526553 0.00179577 0.00136554 0.02652006 0.00794625 0.00142675 0.00301301 0.00138025 
0.04344071 0.01477430 0.00651182 0.00226048 0.00070979 0.00302868 0.01171850 0.00611571 0.01524789 0.00180534 0.00134746 0.02663528 0.00793653 0.00145255 0.00297267 0.00137829 
0.04332155 0.01480427 0.00645227 0.00225155 0.00070543 0.00304182 0.01150095 0.00601562 0.01521701 0.00181523 0.00133000 0.02670420 0.00792072 0.00147836 0.00293287 0.00137607 
0.04317490 0.01486751 0.00639512 0.00224310 0.00070139 0.00305311 0.01128536 0.00590962 0.01517308 0.00182547 0.00131326 0.02672627 0.00789887 0.00150411 0.00289377 0.00137356 
0.04300321 0.01496417 0.00634074 0.00223514 0.00069772 0.00306253 0.01107331 0.00579806 0.01511635 0.00183606 0.00129736 0.02670124 0.00787111 0.00152973 0.00285553 0.00137078 
0.04280896 0.01509435 0.00628948 0.00222766 0.00069445 0.00307009 0.01086636 0.00568134 0.01504717 0.00184704 0.00128241 0.02662910 0.00783755 0.00155514 0.00281830 0.00136773 
0.04259471 0.01525807 0.00624167 0.00222068 0.00069165 0.00307578 0.01066600 0.00555985 0.01496595 0.00185842 0.00126849 0.02651017 0.00779837 0.00158028 0.00278225 0.00136439 
0.04236303 0.01545525 0.00619760 0.00221419 0.00068936 0.00307962 0.01047368 0.00543403 0.01487318 0.00187022 0.00125572 0.02634501 0.00775377 0.00160509 0.00274754 0.00136079 
0.04211652 0.01568577 0.00615753 0.00220818 0.00068761 0.00308161 0.01029073 0.00530432 0.01476941 0.00188246 0.00124418 0.02613449 0.00770397 0.00162950 0.00271430 0.00135693 
0.04185779 0.01594940 0.00612170 0.00220265 0.00068647 0.00308177 0.01011844 0.00517117 0.01465525 0.00189516 0.00123396 0.02587971 0.00764923 0.00165346 0.00268268 0.00135281 
0.04158941 0.01624585 0.00609032 0.00219759 0.00068596 0.00308013 0.00995799 0.00503506 0.01453140 0.00190833 0.00122513 0.02558207 0.00758985 0.00167691 0.00265282 0.00134845 
0.04131394 0.01657474 0.00606356 0.00219297 0.00068614 0.00307670 0.00981044 0.00489648 0.01439857 0.00192199 0.00121775 0.02524321 0.00752612 0.00169980 0.00262484 0.00134385 
0.04103387 0.01693561 0.00604157 0.00218880 0.00068703 0.00307153 0.00967677 0.00475592 0.01425756 0.00193616 0.00121189 0.02486498 0.00745839 0.00172209 0.00259886 0.00133903 
0.04075165 0.01732793 0.00602445 0.00218505 0.00068868 0.00306463 0.00955783 0.00461390 0.01410919 0.00195083 0.00120759 0.02444949 0.00738702 0.00174374 0.00257498 0.00133401 
0.04046962 0.01775108 0.00601231 0.00218171 0.00069112 0.00305604 0.00945435 0.00447093 0.01395434 0.00196602 0.00120490 0.02399906 0.00731238 0.00176470 0.00255330 0.00132881 
0.04019005 0.01820436 0.00600518 0.00217876 0.00069437 0.00304581 0.00936694 0.00432753 0.01379390 0.00198173 0.00120384 0.02351619 0.00723488 0.00178494 0.00253391 0.00132343 
0.03991509 0.01868700 0.00600309 0.00217618 0.00069848 0.00303397 0.00929607 0.00418425 0.01362881 0.00199796 0.00120443 0.02300356 0.00715491 0.00180443 0.00251688 0.00131791 
0.03964679 0.01919813 0.00600605 0.00217396 0.00070347 0.00302057 0.00924210 0.00404160 0.01346001 0.00201470 0.00120669 0.02246402 0.00707292 0.00182315 0.00250227 0.00131226 
0.03938704 0.01973682 0.00601400 0.00217208 0.00070935 0.00300564 0.00920523 0.00390013 0.01328846 0.00203194 0.00121061 0.02190055 0.00698934 0.00184105 0.00249013 0.00130651 
0.03913761 0.02030207 0.00602691 0.00217051 0.00071615 0.00298924 0.00918556 0.00376038 0.01311515 0.00204967 0.00121619 0.02131626 0.00690461 0.00185813 0.00248048 0.00130069 
0.03890011 0.02089278 0.00604469 0.00216926 0.00072388 0.00297142 0.00918304 0.00362288 0.01294103 0.00206786 0.00122339 0.02071434 0.00681919 0.00187437 0.00247335 0.00129481 
0.03867600 0.02150779 0.00606723 0.00216830 0.00073256 0.00295223 0.00919749 0.00348817 0.01276707 0.00208650 0.00123220 0.02009808 0.00673354 0.00188974 0.00246875 0.00128892 
0.03846656 0.02214588 0.00609440 0.00216762 0.00074219 0.00293171 0.00922862 0.00335679 0.01259422 0.00210555 0.00124257 0.01947080 0.00664811 0.00190425 0.00246667 0.00128304 
0.03827292 0.02280574 0.00612608 0.00216722 0.00075278 0.00290992 0.00927599 0.00322927 0.01242342 0.00212497 0.00125445 0.01883589 0.00656337 0.00191787 0.00246709 0.00127720 
0.03809601 0.02348599 0.00616208 0.00216709 0.00076433 0.00288691 0.00933906 0.00310612 0.01225556 0.00214473 0.00126778 0.01819672 0.00647977 0.00193060 0.00246998 0.00127143 
0.03793660 0.02418522 0.00620225 0.00216723 0.00077684 0.00286275 0.00941719 0.00298787 0.01209153 0.00216477 0.00128249 0.01755667 0.00639777 0.00194243 0.00247528 0.00126577 
0.03779529 0.02490191 0.00624638 0.00216762 0.00079029 0.00283748 0.00950960 0.00287503 0.01193215 0.00218505 0.00129851 0.01691906 0.00631780 0.00195336 0.00248295 0.00126024 
0.03767246 0.02563453 0.00629427 0.00216829 0.00080468 0.00281117 0.00961545 0.00276809 0.01177821 0.00220550 0.00131575 0.01628719 0.00624030 0.00196339 0.00249290 0.00125489 
0.03756836 0.02638146 0.00634573 0.00216923 0.00081999 0.00278387 0.00973378 0.00266755 0.01163046 0.00222606 0.00133413 0.01566427 0.00616569 0.00197252 0.00250506 0.00124974 
0.03748304 0.02714104 0.00640052 0.00217046 0.00083620 0.00275564 0.00986356 0.00257389 0.01148958 0.00224666 0.00135354 0.01505341 0.00609438 0.00198074 0.00251933 0.00124482 
0.03741637 0.02791156 0.00645843 0.00217199 0.00085329 0.00272655 0.01000369 0.00248756 0.01135619 0.00226722 0.00137388 0.01445763 0.00602676 0.00198807 0.00253562 0.00124018 
0.03736808 0.02869128 0.00651924 0.00217383 0.00087122 0.00269665 0.01015299 0.00240902 0.01123086 0.00228768 0.00139505 0.01387979 0.00596319 0.00199450 0.00255380 0.00123584 
0.03733771 0.02947839 0.00658271 0.00217602 0.00088996 0.00266602 0.01031024 0.00233871 0.01111408 0.00230793 0.00141692 0.01332263 0.00590405 0.00200005 0.00257377 0.00123183 
0.03732468 0.03027108 0.00664861 0.00217856 0.00090948 0.00263472 0.01047417 0.00227705 0.01100628 0.00232790 0.00143940 0.01278870 0.00584965 0.00200471 0.00259538 0.00122819 
0.03732823 0.03106748 0.00671674 0.00218150 0.00092974 0.00260281 0.01064348 0.00222443 0.01090780 0.00234749 0.00146235 0.01228041 0.00580031 0.00200849 0.00261852 0.00122494 
0.03734751 0.03186570 0.00678685 0.00218486 0.00095068 0.00257036 0.01081684 0.00218125 0.01081892 0.00236661 0.00148565 0.01179992 0.00575631 0.00201139 0.00264303 0.00122211 
0.03738151 0.03266384 0.00685874 0.00218868 0.00097227 0.00253745 0.01099291 0.00214787 0.01073984 0.00238516 0.00150920 0.01134925 0.00571791 0.00201343 0.00266879 0.00121974 
0.03742912 0.03345997 0.00693220 0.00219300 0.00099444 0.00250414 0.01117036 0.00212463 0.01067068 0.00240303 0.00153285 0.01093017 0.00568535 0.00201462 0.00269563 0.00121784 
0.03748914 0.03425214 0.00700701 0.00219784 0.00101714 0.00247052 0.01134783 0.00211187 0.01061148 0.00242013 0.00155650 0.01054424 0.00565882 0.00201495 0.00272342 0.00121644 
0.03756028 0.03503842 0.00708298 0.00220326 0.00104032 0.00243665 0.01152403 0.00210987 0.01056220 0.00243634 0.00158002 0.01019278 0.00563851 0.00201443 0.00275201 0.00121555 
0.03764117 0.03581683 0.00715992 0.00220930 0.00106390 0.00240261 0.01169764 0.00211892 0.01052272 0.00245157 0.00160330 0.00987689 0.00562456 0.00201309 0.00278124 0.00121520 
0.03773040 0.03658544 0.00723765 0.00221600 0.00108782 0.00236849 0.01186743 0.00213926 0.01049286 0.00246571 0.00162621 0.00959742 0.00561710 0.00201091 0.00281098 0.00121540 
0.03782650 0.03734229 0.00731600 0.00222341 0.00111202 0.00233436 0.01203218 0.00217114 0.01047236 0.00247864 0.00164866 0.00935499 0.00561620 0.00200791 0.00284107 0.00121616 
0.03792799 0.03808545 0.00739479 0.00223156 0.00113641 0.00230031 0.01219074 0.00221475 0.01046086 0.00249027 0.00167052 0.00914998 0.00562193 0.00200409 0.00287139 0.00121749 
0.03803336 0.03881300 0.00747389 0.00224051 0.00116093 0.00226642 0.01234200 0.00227027 0.01045796 0.00250050 0.00169171 0.00898253 0.00563431 0.00199947 0.00290178 0.00121939 
0.03814112 0.03952304 0.00755313 0.00225029 0.00118550 0.00223277 0.01248496 0.00233784 0.01046319 0.00250921 0.00171211 0.00885252 0.00565334 0.00199405 0.00293212 0.00122187 
0.03824979 0.04021369 0.00763238 0.00226095 0.00121005 0.00219946 0.01261865 0.00241758 0.01047601 0.00251632 0.00173165 0.00875964 0.00567899 0.00198784 0.00296230 0.00122492 
0.03835792 0.04088313 0.00771151 0.00227252 0.00123448 0.00216656 0.01274221 0.00250958 0.01049584 0.00252172 0.00175024 0.00870332 0.00571119 0.00198085 0.00299218 0.00122853 
0.03846411 0.04152954 0.00779039 0.00228503 0.00125873 0.00213418 0.01285486 0.00261390 0.01052203 0.00252533 0.00176780 0.00868279 0.00574985 0.00197308 0.00302166 0.00123271 
0.03856704 0.04215116 0.00786891 0.00229852 0.00128271 0.00210239 0.01295591 0.00273055 0.01055388 0.00252705 0.00178426 0.00869706 0.00579485 0.00196455 0.00305064 0.00123742 
0.03866544 0.04274626 0.00794694 0.00231301 0.00130633 0.00207128 0.01304477 0.00285955 0.01059066 0.00252681 0.00179956 0.00874494 0.00584604 0.00195526 0.00307903 0.00124266 
0.03875815 0.04331320 0.00802439 0.00232853 0.00132952 0.00204095 0.01312093 0.00300084 0.01063161 0.00252454 0.00181365 0.00882506 0.00590324 0.00194522 0.00310674 0.00124839 
0.03884410 0.04385035 0.00810114 0.00234509 0.00135220 0.00201148 0.01318400 0.00315435 0.01067594 0.00252015 0.00182647 0.00893586 0.00596625 0.00193444 0.00313371 0.00125460 
0.03892234 0.04435616 0.00817708 0.00236269 0.00137428 0.00198296 0.01323368 0.00331998 0.01072281 0.00251359 0.00183799 0.00907563 0.00603483 0.00192294 0.00315986 0.00126125 
0.03899205 0.04482916 0.00825211 0.00238134 0.00139567 0.00195548 0.01326977 0.00349757 0.01077141 0.00250480 0.00184818 0.00924250 0.00610873 0.00191072 0.00318516 0.00126830 
0.03905255 0.04526793 0.00832613 0.00240104 0.00141631 0.00192911 0.01329218 0.00368696 0.01082089 0.00249373 0.00185702 0.00943447 0.00618768 0.00189781 0.00320956 0.00127572 
0.03910329 0.04567114 0.00839902 0.00242177 0.00143611 0.00190394 0.01330090 0.00388793 0.01087040 0.00248035 0.00186449 0.00964941 0.00627136 0.00188421 0.00323302 0.00128346 
0.03914388 0.04603752 0.00847068 0.00244352 0.00145500 0.00188004 0.01329604 0.00410022 0.01091911 0.00246461 0.00187059 0.00988512 0.00635946 0.00186994 0.00325554 0.00129147 
0.03917409 0.04636592 0.00854098 0.00246625 0.00147290 0.00185749 0.01327779 0.00432355 0.01096619 0.00244650 0.00187531 0.01013929 0.00645163 0.00185502 0.00327709 0.00129970 
0.03919386 0.04665524 0.00860981 0.00248993 0.00148974 0.00183637 0.01324643 0.00455759 0.01101085 0.00242600 0.00187868 0.01040952 0.00654752 0.00183946 0.00329769 0.00130809 
0.03920329 0.04690449 0.00867703 0.00251451 0.00150546 0.00181672 0.01320234 0.00480197 0.01105230 0.00240311 0.00188070 0.01069341 0.00664673 0.00182330 0.00331734 0.00131659 
0.03920267 0.04711280 0.00874251 0.00253994 0.00151998 0.00179862 0.01314595 0.00505630 0.01108980 0.00237783 0.00188139 0.01098849 0.00674888 0.00180654 0.00333606 0.00132513 
0.03919244 0.04727936 0.00880609 0.00256615 0.00153324 0.00178212 0.01307781 0.00532014 0.01112264 0.00235017 0.00188080 0.01129228 0.00685356 0.00178923 0.00335388 0.00133365 
0.03917323 0.04740350 0.00886764 0.00259307 0.00154519 0.00176726 0.01299851 0.00559300 0.01115018 0.00232017 0.00187894 0.01160231 0.00696035 0.00177138 0.00337084 0.00134207 
0.03914584 0.04748464 0.00892696 0.00262062 0.00155577 0.00175409 0.01290871 0.00587438 0.01117179 0.00228784 0.00187587 0.01191610 0.00706880 0.00175303 0.00338699 0.00135034 
0.03911126 0.04752231 0.00898390 0.00264871 0.00156494 0.00174263 0.01280913 0.00616373 0.01118695 0.00225324 0.00187163 0.01223125 0.00717847 0.00173421 0.00340237 0.00135836 
0.03907061 0.04751619 0.00903826 0.00267725 0.00157264 0.00173292 0.01270054 0.00646046 0.01119515 0.00221642 0.00186627 0.01254536 0.00728892 0.00171495 0.00341704 0.00136608 
0.03902520 0.04746602 0.00908983 0.00270612 0.00157883 0.00172497 0.01258375 0.00676395 0.01119599 0.00217744 0.00185984 0.01285614 0.00739969 0.00169530 0.00343107 0.00137341 
0.03897650 0.04737172 0.00913841 0.00273521 0.00158349 0.00171878 0.01245960 0.00707354 0.01118912 0.00213637 0.00185240 0.01316133 0.00751030 0.00167529 0.00344452 0.00138028 
0.03892611 0.04723330 0.00918376 0.00276441 0.00158657 0.00171436 0.01232898 0.00738854 0.01117427 0.00209329 0.00184401 0.01345882 0.00762030 0.00165497 0.00345747 0.00138661 
0.03887578 0.04705090 0.00922566 0.00279358 0.00158806 0.00171169 0.01219277 0.00770822 0.01115126 0.00204829 0.00183474 0.01374656 0.00772921 0.00163438 0.00346998 0.00139232 
0.03882739 0.04682479 0.00926386 0.00282259 0.00158794 0.00171076 0.01205189 0.00803183 0.01111996 0.00200148 0.00182465 0.01402265 0.00783656 0.00161357 0.00348214 0.00139734 
0.03878293 0.04655536 0.00929810 0.00285130 0.00158618 0.00171152 0.01190723 0.00835859 0.01108037 0.00195295 0.00181380 0.01428530 0.00794190 0.00159260 0.00349402 0.00140159 
0.03874450 0.04624314 0.00932811 0.00287958 0.00158279 0.00171394 0.01175971 0.00868768 0.01103254 0.00190283 0.00180225 0.01453288 0.00804475 0.00157152 0.00350568 0.00140499 
0.03871430 0.04588879 0.00935362 0.00290726 0.00157776 0.00171796 0.01161022 0.00901826 0.01097662 0.00185123 0.00179008 0.01476388 0.00814466 0.00155039 0.00351722 0.00140748 
0.03869461 0.04549309 0.00937434 0.00293421 0.00157109 0.00172353 0.01145963 0.00934947 0.01091283 0.00179828 0.00177735 0.01497697 0.00824117 0.00152927 0.00352869 0.00140897 
0.03868775 0.04505694 0.00938999 0.00296027 0.00156279 0.00173056 0.01130879 0.00968041 0.01084150 0.00174412 0.00176412 0.01517099 0.00833385 0.00150822 0.00354016 0.00140942 
0.03869610 0.04458138 0.00940027 0.00298528 0.00155288 0.00173897 0.01115852 0.01001018 0.01076303 0.00168890 0.00175045 0.01534493 0.00842226 0.00148730 0.00355171 0.00140874 
0.03872208 0.04406757 0.00940490 0.00300910 0.00154138 0.00174867 0.01100960 0.01033785 0.01067790 0.00163276 0.00173641 0.01549795 0.00850598 0.00146658 0.00356338 0.00140688 
0.03876811 0.04351680 0.00940356 0.00303156 0.00152831 0.00175955 0.01086277 0.01066248 0.01058668 0.00157584 0.00172204 0.01562942 0.00858460 0.00144613 0.00357522 0.00140379 
0.03883660 0.04293047 0.00939599 0.00305253 0.00151370 0.00177150 0.01071870 0.01098312 0.01049000 0.00151832 0.00170741 0.01573884 0.00865774 0.00142602 0.00358729 0.00139941 
0.03892996 0.04231010 0.00938187 0.00307184 0.00149760 0.00178440 0.01057804 0.01129881 0.01038858 0.00146034 0.00169256 0.01582592 0.00872503 0.00140633 0.00359962 0.00139369 
0.03905053 0.04165731 0.00936092 0.00308935 0.00148004 0.00179810 0.01044134 0.01160856 0.01028321 0.00140208 0.00167755 0.01589055 0.00878610 0.00138712 0.00361224 0.00138660 
0.03920061 0.04097386 0.00933288 0.00310492 0.00146108 0.00181248 0.01030912 0.01191142 0.01017472 0.00134369 0.00166242 0.01593276 0.00884063 0.00136846 0.00362517 0.00137810 
0.03938241 0.04026157 0.00929747 0.00311841 0.00144075 0.00182738 0.01018182 0.01220641 0.01006402 0.00128535 0.00164720 0.01595279 0.00888830 0.00135044 0.00363843 0.00136817 
0.03959805 0.03952240 0.00925443 0.00312970 0.00141913 0.00184264 0.01005982 0.01249255 0.00995206 0.00122722 0.00163193 0.01595103 0.00892883 0.00133313 0.00365201 0.00135677 
0.03984954 0.03875838 0.00920354 0.00313866 0.00139627 0.00185811 0.00994342 0.01276890 0.00983985 0.00116947 0.00161665 0.01592802 0.00896196 0.00131660 0.00366590 0.00134390 
0.04013874 0.03797163 0.00914456 0.00314517 0.00137225 0.00187362 0.00983285 0.01303450 0.00972842 0.00111226 0.00160138 0.01588447 0.00898745 0.00130092 0.00368010 0.00132955 
0.04046739 0.03716435 0.00907730 0.00314913 0.00134712 0.00188899 0.00972829 0.01328842 0.00961884 0.00105576 0.00158615 0.01582123 0.00900509 0.00128617 0.00369456 0.00131371 
0.04083702 0.03633881 0.00900158 0.00315044 0.00132096 0.00190406 0.00962981 0.01352975 0.00951221 0.00100014 0.00157098 0.01573928 0.00901472 0.00127242 0.00370926 0.00129641 
0.04124904 0.03549736 0.00891724 0.00314901 0.00129385 0.00191863 0.00953745 0.01375758 0.00940964 0.00094555 0.00155587 0.01563975 0.00901618 0.00125973 0.00372414 0.00127765 
0.04170459 0.03464238 0.00882416 0.00314477 0.00126588 0.00193255 0.00945115 0.01397107 0.00931223 0.00089216 0.00154085 0.01552385 0.00900937 0.00124818 0.00373914 0.00125745 
0.04220467 0.03377632 0.00872224 0.00313764 0.00123711 0.00194562 0.00937079 0.01416937 0.00922112 0.00084011 0.00152592 0.01539292 0.00899420 0.00123784 0.00375420 0.00123586 
0.04275000 0.03290168 0.00861141 0.00312758 0.00120765 0.00195767 0.00929619 0.01435168 0.00913739 0.00078956 0.00151108 0.01524840 0.00897064 0.00122876 0.00376924 0.00121290 
0.04334110 0.03202097 0.00849164 0.00311455 0.00117757 0.00196852 0.00922711 0.01451726 0.00906215 0.00074064 0.00149635 0.01509179 0.00893867 0.00122099 0.00378416 0.00118863 
0.04397823 0.03113673 0.00836294 0.00309850 0.00114696 0.00197800 0.00916326 0.01466538 0.00899645 0.00069349 0.00148170 0.01492468 0.00889833 0.00121461 0.00379888 0.00116311 
0.04466140 0.03025153 0.00822533 0.00307943 0.00111592 0.00198594 0.00910426 0.01479538 0.00894132 0.00064824 0.00146715 0.01474868 0.00884968 0.00120965 0.00381328 0.00113640 
0.04539035 0.02936793 0.00807891 0.00305733 0.00108454 0.00199218 0.00904972 0.01490663 0.00889774 0.00060502 0.00145268 0.01456549 0.00879282 0.00120617 0.00382726 0.00110857 
0.04616455 0.02848851 0.00792379 0.00303222 0.00105290 0.00199656 0.00899918 0.01499858 0.00886664 0.00056394 0.00143829 0.01437678 0.00872791 0.00120420 0.00384070 0.00107970 
0.04698320 0.02761580 0.00776012 0.00300410 0.00102110 0.00199893 0.00895216 0.01507071 0.00884890 0.00052510 0.00142396 0.01418429 0.00865511 0.00120378 0.00385348 0.00104987 
0.04784522 0.02675236 0.00758811 0.00297301 0.00098924 0.00199916 0.00890813 0.01512259 0.00884532 0.00048861 0.00140969 0.01398972 0.00857467 0.00120494 0.00386546 0.00101919 
0.04874926 0.02590068 0.00740801 0.00293901 0.00095740 0.00199710 0.00886654 0.01515383 0.00885664 0.00045454 0.00139546 0.01379477 0.00848682 0.00120770 0.00387652 0.00098776 
0.04969368 0.02506324 0.00722009 0.00290215 0.00092567 0.00199265 0.00882682 0.01516411 0.00888350 0.00042298 0.00138125 0.01360112 0.00839189 0.00121208 0.00388652 0.00095567 
0.05067657 0.02424246 0.00702469 0.00286249 0.00089414 0.00198570 0.00878837 0.01515321 0.00892646 0.00039400 0.00136707 0.01341038 0.00829019 0.00121810 0.00389533 0.00092304 
0.05169573 0.02344071 0.00682218 0.00282014 0.00086291 0.00197615 0.00875059 0.01512093 0.00898601 0.00036766 0.00135289 0.01322414 0.00818212 0.00122575 0.00390280 0.00089000 
0.05274870 0.02266031 0.00661298 0.00277517 0.00083205 0.00196393 0.00871289 0.01506719 0.00906251 0.00034399 0.00133871 0.01304391 0.00806808 0.00123504 0.00390881 0.00085665 
