0.01572770 0.00739463 0.00764935 0.00452647 0.00274018 0.00295517 0.01055314 0.00292779 0.01251257 0.00285306 0.00922106 0.00114503 0.01506568 0.03596601 0.01031854 0.00032556 
0.01527286 0.00729874 0.00766924 0.00450007 0.00268767 0.00298742 0.01059790 0.00293459 0.01199594 0.00299746 0.00947622 0.00115133 0.01501763 0.03590571 0.01036510 0.00030498 
0.01480602 0.00719452 0.00767595 0.00446755 0.00263787 0.00301630 0.01062851 0.00294190 0.01150685 0.00314788 0.00974129 0.00115759 0.01494489 0.03588938 0.01043371 0.00028513 
0.01432901 0.00708238 0.00766961 0.00442903 0.00259078 0.00304169 0.01064478 0.00294967 0.01104649 0.00330399 0.01001502 0.00116384 0.01484824 0.03591672 0.01052415 0.00026618 
0.01384368 0.00696278 0.00765036 0.00438464 0.00254641 0.00306352 0.01064661 0.00295786 0.01061585 0.00346541 0.01029610 0.00117009 0.01472857 0.03598730 0.01063609 0.00024833 
0.01335191 0.00683625 0.00761841 0.00433457 0.00250478 0.00308172 0.01063396 0.00296640 0.01021575 0.00363173 0.01058319 0.00117636 0.01458690 0.03610045 0.01076909 0.00023177 
0.01285558 0.00670339 0.00757403 0.00427899 0.00246589 0.00309624 0.01060685 0.00297524 0.00984684 0.00380252 0.01087489 0.00118267 0.01442437 0.03625539 0.01092261 0.00021668 
0.01235659 0.00656486 0.00751752 0.00421813 0.00242976 0.00310703 0.01056538 0.00298431 0.00950957 0.00397729 0.01116979 0.00118902 0.01424225 0.03645114 0.01109600 0.00020324 
0.01185681 0.00642139 0.00744925 0.00415221 0.00239643 0.00311408 0.01050969 0.00299354 0.00920422 0.00415552 0.01146646 0.00119544 0.01404191 0.03668658 0.01128854 0.00019166 
0.01135811 0.00627376 0.00736962 0.00408149 0.00236592 0.00311738 0.01044001 0.00300287 0.00893091 0.00433669 0.01176341 0.00120194 0.01382480 0.03696044 0.01149937 0.00018211 
0.01086232 0.00612281 0.00727908 0.00400624 0.00233828 0.00311694 0.01035662 0.00301222 0.00868958 0.00452022 0.01205919 0.00120852 0.01359249 0.03727131 0.01172759 0.00017478 
0.01037126 0.00596942 0.00717811 0.00392676 0.00231354 0.00311277 0.01025986 0.00302152 0.00848001 0.00470552 0.01235233 0.00121520 0.01334659 0.03761766 0.01197219 0.00016984 
0.00988669 0.00581453 0.00706725 0.00384334 0.00229177 0.00310494 0.01015011 0.00303070 0.00830184 0.00489195 0.01264134 0.00122199 0.01308880 0.03799785 0.01223208 0.00016746 
0.00941033 0.00565911 0.00694706 0.00375631 0.00227302 0.00309348 0.01002784 0.00303968 0.00815453 0.00507890 0.01292479 0.00122889 0.01282088 0.03841011 0.01250612 0.00016780 
0.00894383 0.00550419 0.00681813 0.00366600 0.00225736 0.00307846 0.00989354 0.00304838 0.00803744 0.00526569 0.01320123 0.00123590 0.01254463 0.03885260 0.01279310 0.00017103 
0.00848882 0.00535080 0.00668108 0.00357276 0.00224485 0.00305998 0.00974778 0.00305674 0.00794976 0.00545166 0.01346927 0.00124302 0.01226186 0.03932338 0.01309175 0.00017727 
0.00804681 0.00520003 0.00653657 0.00347694 0.00223559 0.00303813 0.00959114 0.00306468 0.00789060 0.00563611 0.01372753 0.00125027 0.01197444 0.03982044 0.01340076 0.00018667 
0.00761928 0.00505295 0.00638526 0.00337891 0.00222965 0.00301303 0.00942427 0.00307214 0.00785892 0.00581837 0.01397470 0.00125763 0.01168422 0.04034172 0.01371878 0.00019932 
0.00720761 0.00491068 0.00622783 0.00327905 0.00222711 0.00298478 0.00924784 0.00307907 0.00785361 0.00599771 0.01420950 0.00126509 0.01139306 0.04088511 0.01404440 0.00021534 
0.00681310 0.00477431 0.00606500 0.00317772 0.00222809 0.00295354 0.00906258 0.00308539 0.00787344 0.00617346 0.01443072 0.00127266 0.01110279 0.04144844 0.01437624 0.00023481 
0.00643697 0.00464497 0.00589749 0.00307532 0.00223266 0.00291945 0.00886924 0.00309107 0.00791712 0.00634491 0.01463722 0.00128032 0.01081523 0.04202955 0.01471284 0.00025779 
0.00608035 0.00452375 0.00572600 0.00297221 0.00224094 0.00288266 0.00866858 0.00309605 0.00798329 0.00651137 0.01482793 0.00128806 0.01053216 0.04262624 0.01505279 0.00028433 
0.00574427 0.00441174 0.00555127 0.00286880 0.00225302 0.00284334 0.00846141 0.00310031 0.00807053 0.00667215 0.01500185 0.00129587 0.01025530 0.04323631 0.01539465 0.00031445 
0.00542967 0.00431000 0.00537403 0.00276545 0.00226902 0.00280168 0.00824856 0.00310381 0.00817736 0.00682660 0.01515807 0.00130372 0.00998630 0.04385759 0.01573698 0.00034817 
0.00513738 0.00421957 0.00519500 0.00266256 0.00228903 0.00275785 0.00803085 0.00310653 0.00830228 0.00697405 0.01529579 0.00131161 0.00972677 0.04448791 0.01607837 0.00038545 
0.00486815 0.00414145 0.00501490 0.00256048 0.00231316 0.00271204 0.00780914 0.00310847 0.00844375 0.00711388 0.01541427 0.00131950 0.00947819 0.04512512 0.01641743 0.00042627 
0.00462263 0.00407658 0.00483444 0.00245960 0.00234151 0.00266446 0.00758428 0.00310963 0.00860023 0.00724548 0.01551289 0.00132739 0.00924200 0.04576711 0.01675280 0.00047055 
0.00440134 0.00402588 0.00465431 0.00236027 0.00237418 0.00261530 0.00735714 0.00311002 0.00877017 0.00736828 0.01559114 0.00133524 0.00901949 0.04641183 0.01708316 0.00051821 
0.00420472 0.00399019 0.00447521 0.00226284 0.00241126 0.00256476 0.00712858 0.00310966 0.00895201 0.00748172 0.01564860 0.00134303 0.00881188 0.04705727 0.01740722 0.00056913 
0.00403312 0.00397029 0.00429778 0.00216766 0.00245286 0.00251307 0.00689947 0.00310860 0.00914423 0.00758531 0.01568496 0.00135072 0.00862025 0.04770148 0.01772375 0.00062317 
0.00388678 0.00396689 0.00412268 0.00207504 0.00249904 0.00246042 0.00667064 0.00310686 0.00934531 0.00767855 0.01570005 0.00135830 0.00844557 0.04834257 0.01803158 0.00068016 
0.00376582 0.00398064 0.00395051 0.00198532 0.00254990 0.00240704 0.00644295 0.00310452 0.00955377 0.00776102 0.01569377 0.00136573 0.00828866 0.04897874 0.01832959 0.00073992 
0.00367029 0.00401209 0.00378187 0.00189877 0.00260549 0.00235312 0.00621722 0.00310165 0.00976819 0.00783234 0.01566616 0.00137299 0.00815024 0.04960822 0.01861672 0.00080223 
0.00360015 0.00406169 0.00361731 0.00181569 0.00266588 0.00229888 0.00599426 0.00309833 0.00998716 0.00789215 0.01561737 0.00138003 0.00803087 0.05022937 0.01889201 0.00086685 
0.00355523 0.00412983 0.00345737 0.00173635 0.00273111 0.00224453 0.00577485 0.00309465 0.01020935 0.00794016 0.01554766 0.00138682 0.00793096 0.05084060 0.01915454 0.00093350 
0.00353531 0.00421679 0.00330255 0.00166098 0.00280121 0.00219027 0.00555977 0.00309072 0.01043348 0.00797612 0.01545741 0.00139335 0.00785081 0.05144041 0.01940348 0.00100191 
0.00354006 0.00432274 0.00315330 0.00158983 0.00287622 0.00213631 0.00534975 0.00308665 0.01065835 0.00799985 0.01534708 0.00139956 0.00779055 0.05202737 0.01963808 0.00107177 
0.00356907 0.00444776 0.00301005 0.00152309 0.00295614 0.00208283 0.00514549 0.00308258 0.01088281 0.00801120 0.01521728 0.00140542 0.00775017 0.05260015 0.01985766 0.00114273 
0.00362185 0.00459182 0.00287318 0.00146095 0.00304095 0.00203002 0.00494767 0.00307865 0.01110579 0.00801009 0.01506870 0.00141091 0.00772952 0.05315750 0.02006165 0.00121445 
0.00369783 0.00475479 0.00274306 0.00140358 0.00313065 0.00197807 0.00475693 0.00307499 0.01132631 0.00799648 0.01490212 0.00141600 0.00772833 0.05369823 0.02024953 0.00128655 
0.00379638 0.00493641 0.00261997 0.00135113 0.00322518 0.00192715 0.00457387 0.00307177 0.01154346 0.00797041 0.01471843 0.00142064 0.00774617 0.05422125 0.02042089 0.00135866 
0.00391679 0.00513634 0.00250420 0.00130371 0.00332448 0.00187743 0.00439904 0.00306915 0.01175641 0.00793195 0.01451862 0.00142481 0.00778247 0.05472555 0.02057538 0.00143035 
0.00405828 0.00535410 0.00239598 0.00126142 0.00342848 0.00182906 0.00423297 0.00306730 0.01196442 0.00788125 0.01430375 0.00142848 0.00783657 0.05521016 0.02071274 0.00150123 
0.00422001 0.00558913 0.00229548 0.00122433 0.00353709 0.00178218 0.00407613 0.00306640 0.01216683 0.00781849 0.01407495 0.00143162 0.00790764 0.05567421 0.02083281 0.00157086 
0.00440109 0.00584074 0.00220286 0.00119250 0.00365017 0.00173694 0.00392896 0.00306662 0.01236306 0.00774394 0.01383345 0.00143420 0.00799477 0.05611688 0.02093549 0.00163881 
0.00460059 0.00610814 0.00211822 0.00116596 0.00376760 0.00169346 0.00379184 0.00306814 0.01255264 0.00765789 0.01358052 0.00143620 0.00809692 0.05653742 0.02102075 0.00170465 
0.00481750 0.00639045 0.00204164 0.00114470 0.00388922 0.00165185 0.00366511 0.00307115 0.01273514 0.00756070 0.01331750 0.00143759 0.00821297 0.05693513 0.02108865 0.00176792 
0.00505079 0.00668667 0.00197313 0.00112872 0.00401484 0.00161221 0.00354906 0.00307584 0.01291024 0.00745278 0.01304579 0.00143836 0.00834169 0.05730935 0.02113932 0.00182820 
0.00529939 0.00699573 0.00191268 0.00111796 0.00414426 0.00157464 0.00344393 0.00308238 0.01307768 0.00733458 0.01276680 0.00143847 0.00848177 0.05765949 0.02117294 0.00188504 
0.00556219 0.00731645 0.00186025 0.00111237 0.00427726 0.00153920 0.00334992 0.00309096 0.01323729 0.00720661 0.01248202 0.00143793 0.00863183 0.05798498 0.02118977 0.00193802 
0.00583806 0.00764757 0.00181575 0.00111186 0.00441358 0.00150596 0.00326717 0.00310176 0.01338896 0.00706942 0.01219292 0.00143671 0.00879044 0.05828529 0.02119013 0.00198671 
0.00612584 0.00798775 0.00177906 0.00111632 0.00455297 0.00147498 0.00319577 0.00311493 0.01353264 0.00692360 0.01190103 0.00143479 0.00895609 0.05855994 0.02117436 0.00203072 
0.00642433 0.00833558 0.00175002 0.00112562 0.00469514 0.00144630 0.00313577 0.00313065 0.01366837 0.00676977 0.01160785 0.00143218 0.00912726 0.05880845 0.02114291 0.00206964 
0.00673235 0.00868959 0.00172845 0.00113963 0.00483977 0.00141992 0.00308718 0.00314908 0.01379621 0.00660861 0.01131492 0.00142886 0.00930237 0.05903040 0.02109621 0.00210312 
0.00704868 0.00904824 0.00171413 0.00115816 0.00498652 0.00139588 0.00304993 0.00317035 0.01391629 0.00644081 0.01102373 0.00142483 0.00947984 0.05922536 0.02103478 0.00213080 
0.00737210 0.00940995 0.00170681 0.00118104 0.00513507 0.00137417 0.00302394 0.00319459 0.01402881 0.00626710 0.01073579 0.00142010 0.00965807 0.05939295 0.02095914 0.00215237 
0.00770140 0.00977308 0.00170622 0.00120807 0.00528502 0.00135478 0.00300905 0.00322195 0.01413397 0.00608823 0.01045257 0.00141465 0.00983549 0.05953276 0.02086987 0.00216754 
0.00803535 0.01013599 0.00171207 0.00123902 0.00543599 0.00133769 0.00300508 0.00325251 0.01423203 0.00590497 0.01017549 0.00140851 0.01001050 0.05964446 0.02076755 0.00217606 
0.00837273 0.01049699 0.00172404 0.00127367 0.00558758 0.00132285 0.00301180 0.00328637 0.01432328 0.00571813 0.00990596 0.00140167 0.01018157 0.05972768 0.02065278 0.00217772 
0.00871234 0.01085439 0.00174178 0.00131177 0.00573937 0.00131022 0.00302894 0.00332361 0.01440803 0.00552849 0.00964533 0.00139415 0.01034717 0.05978209 0.02052620 0.00217233 
0.00905296 0.01120647 0.00176495 0.00135307 0.00589091 0.00129974 0.00305616 0.00336428 0.01448660 0.00533689 0.00939487 0.00138597 0.01050584 0.05980737 0.02038844 0.00215976 
0.00939343 0.01155155 0.00179316 0.00139728 0.00604176 0.00129134 0.00309313 0.00340844 0.01455934 0.00514414 0.00915582 0.00137714 0.01065617 0.05980324 0.02024013 0.00213994 
0.00973257 0.01188793 0.00182603 0.00144414 0.00619146 0.00128495 0.00313945 0.00345610 0.01462659 0.00495106 0.00892934 0.00136767 0.01079681 0.05976941 0.02008192 0.00211281 
0.01006924 0.01221397 0.00186316 0.00149336 0.00633952 0.00128048 0.00319469 0.00350727 0.01468871 0.00475847 0.00871649 0.00135760 0.01092649 0.05970562 0.01991445 0.00207841 
0.01040231 0.01252803 0.00190414 0.00154465 0.00648547 0.00127783 0.00325839 0.00356193 0.01474604 0.00456719 0.00851829 0.00134695 0.01104402 0.05961165 0.01973836 0.00203679 
0.01073070 0.01282853 0.00194857 0.00159770 0.00662882 0.00127689 0.00333007 0.00362004 0.01479892 0.00437803 0.00833563 0.00133574 0.01114830 0.05948730 0.01955428 0.00198808 
0.01105334 0.01311395 0.00199602 0.00165222 0.00676907 0.00127756 0.00340919 0.00368156 0.01484766 0.00419177 0.00816934 0.00132402 0.01123834 0.05933241 0.01936281 0.00193247 
0.01136919 0.01338280 0.00204607 0.00170789 0.00690572 0.00127972 0.00349523 0.00374640 0.01489257 0.00400918 0.00802013 0.00131180 0.01131324 0.05914687 0.01916457 0.00187019 
0.01167726 0.01363371 0.00209831 0.00176442 0.00703827 0.00128325 0.00358760 0.00381447 0.01493394 0.00383101 0.00788863 0.00129912 0.01137221 0.05893062 0.01896014 0.00180154 
0.01197658 0.01386533 0.00215230 0.00182150 0.00716623 0.00128801 0.00368573 0.00388566 0.01497201 0.00365799 0.00777536 0.00128602 0.01141459 0.05868363 0.01875009 0.00172690 
0.01226625 0.01407646 0.00220764 0.00187883 0.00728910 0.00129388 0.00378901 0.00395983 0.01500701 0.00349081 0.00768072 0.00127254 0.01143983 0.05840597 0.01853497 0.00164667 
0.01254538 0.01426594 0.00226392 0.00193610 0.00740639 0.00130071 0.00389681 0.00403683 0.01503912 0.00333014 0.00760503 0.00125872 0.01144749 0.05809777 0.01831532 0.00156134 
0.01281313 0.01443275 0.00232074 0.00199301 0.00751762 0.00130838 0.00400851 0.00411648 0.01506851 0.00317661 0.00754847 0.00124459 0.01143727 0.05775921 0.01809165 0.00147147 
0.01306871 0.01457595 0.00237769 0.00204929 0.00762231 0.00131675 0.00412346 0.00419862 0.01509528 0.00303081 0.00751114 0.00123020 0.01140899 0.05739061 0.01786446 0.00137764 
0.01331138 0.01469474 0.00243441 0.00210464 0.00772000 0.00132567 0.00424101 0.00428302 0.01511951 0.00289329 0.00749302 0.00121558 0.01136260 0.05699233 0.01763421 0.00128054 
0.01354045 0.01478843 0.00249052 0.00215880 0.00781026 0.00133501 0.00436052 0.00436947 0.01514123 0.00276456 0.00749398 0.00120079 0.01129818 0.05656488 0.01740137 0.00118087 
0.01375527 0.01485645 0.00254567 0.00221150 0.00789266 0.00134462 0.00448133 0.00445774 0.01516044 0.00264509 0.00751379 0.00118587 0.01121592 0.05610885 0.01716637 0.00107941 
0.01395525 0.01489837 0.00259951 0.00226249 0.00796679 0.00135438 0.00460279 0.00454760 0.01517708 0.00253530 0.00755210 0.00117085 0.01111615 0.05562495 0.01692964 0.00097700 
0.01413985 0.01491388 0.00265173 0.00231151 0.00803226 0.00136415 0.00472426 0.00463877 0.01519106 0.00243555 0.00760847 0.00115579 0.01099931 0.05511404 0.01669157 0.00087450 
0.01430859 0.01490281 0.00270202 0.00235836 0.00808871 0.00137379 0.00484510 0.00473102 0.01520226 0.00234618 0.00768237 0.00114072 0.01086597 0.05457708 0.01645257 0.00077285 
0.01446104 0.01486512 0.00275010 0.00240281 0.00813583 0.00138319 0.00496470 0.00482406 0.01521049 0.00226745 0.00777317 0.00112569 0.01071678 0.05401518 0.01621301 0.00067300 
0.01459682 0.01480094 0.00279570 0.00244466 0.00817329 0.00139222 0.00508244 0.00491762 0.01521554 0.00219958 0.00788013 0.00111074 0.01055254 0.05342959 0.01597327 0.00057597 
0.01471563 0.01471049 0.00283857 0.00248372 0.00820083 0.00140077 0.00519774 0.00501143 0.01521718 0.00214275 0.00800246 0.00109590 0.01037414 0.05282171 0.01573372 0.00048279 
0.01481721 0.01459416 0.00287848 0.00251984 0.00821822 0.00140872 0.00531001 0.00510520 0.01521513 0.00209708 0.00813925 0.00108123 0.01018254 0.05219308 0.01549471 0.00039453 
0.01490136 0.01445247 0.00291525 0.00255285 0.00822525 0.00141597 0.00541873 0.00519867 0.01520907 0.00206263 0.00828955 0.00106676 0.00997883 0.05154539 0.01525660 0.00031228 
0.01496795 0.01428607 0.00294869 0.00258262 0.00822176 0.00142243 0.00552335 0.00529155 0.01519867 0.00203941 0.00845232 0.00105253 0.00976415 0.05088049 0.01501975 0.00023715 
0.01501691 0.01409574 0.00297863 0.00260903 0.00820762 0.00142801 0.00562339 0.00538357 0.01518358 0.00202740 0.00862646 0.00103857 0.00953973 0.05020036 0.01478452 0.00017025 
0.01504823 0.01388239 0.00300495 0.00263199 0.00818274 0.00143263 0.00571838 0.00547447 0.01516343 0.00202650 0.00881083 0.00102492 0.00930686 0.04950714 0.01455127 0.00011272 
0.01506195 0.01364705 0.00302753 0.00265140 0.00814709 0.00143621 0.00580789 0.00556399 0.01513783 0.00203659 0.00900423 0.00101161 0.00906689 0.04880312 0.01432038 0.00006567 
0.01505819 0.01339087 0.00304630 0.00266722 0.00810067 0.00143869 0.00589151 0.00565189 0.01510639 0.00205749 0.00920541 0.00099868 0.00882122 0.04809072 0.01409222 0.00003023 
0.01503713 0.01311512 0.00306117 0.00267939 0.00804351 0.00144002 0.00596889 0.00573792 0.01506871 0.00208896 0.00941312 0.00098615 0.00857129 0.04737248 0.01386717 0.00000749 
0.01499901 0.01282117 0.00307211 0.00268789 0.00797570 0.00144016 0.00603969 0.00582188 0.01502440 0.00213073 0.00962603 0.00097406 0.00831855 0.04665108 0.01364564 0.00000147 
0.01494412 0.01251047 0.00307910 0.00269270 0.00789739 0.00143906 0.00610363 0.00590355 0.01497307 0.00218250 0.00984285 0.00096242 0.00806451 0.04592931 0.01342803 0.00000442 
0.01487285 0.01218460 0.00308214 0.00269384 0.00780874 0.00143670 0.00616047 0.00598274 0.01491436 0.00224391 0.01006224 0.00095128 0.00781065 0.04521007 0.01321477 0.00002615 
0.01478561 0.01184518 0.00308125 0.00269133 0.00770999 0.00143307 0.00620999 0.00605928 0.01484792 0.00231456 0.01028287 0.00094063 0.00755848 0.04449634 0.01300629 0.00006470 
0.01468289 0.01149394 0.00307649 0.00268522 0.00760141 0.00142816 0.00625204 0.00613302 0.01477341 0.00239403 0.01050343 0.00093052 0.00730949 0.04379118 0.01280303 0.00012099 
0.01456526 0.01113264 0.00306791 0.00267557 0.00748330 0.00142197 0.00628650 0.00620382 0.01469054 0.00248186 0.01072260 0.00092096 0.00706515 0.04309773 0.01260546 0.00019589 
0.01443331 0.01076314 0.00305560 0.00266245 0.00735603 0.00141452 0.00631328 0.00627158 0.01459906 0.00257755 0.01093909 0.00091196 0.00682692 0.04241914 0.01241404 0.00029019 
0.01428774 0.01038729 0.00303967 0.00264596 0.00722000 0.00140582 0.00633236 0.00633620 0.01449874 0.00268059 0.01115164 0.00090354 0.00659620 0.04175862 0.01222927 0.00040461 
0.01412926 0.01000703 0.00302024 0.00262620 0.00707565 0.00139590 0.00634375 0.00639763 0.01438941 0.00279044 0.01135902 0.00089572 0.00637437 0.04111938 0.01205162 0.00053982 
0.01395867 0.00962429 0.00299745 0.00260329 0.00692346 0.00138481 0.00634751 0.00645581 0.01427096 0.00290653 0.01156005 0.00088851 0.00616274 0.04050462 0.01188160 0.00069636 
0.01377681 0.00924102 0.00297145 0.00257738 0.00676396 0.00137259 0.00634372 0.00651074 0.01414332 0.00302827 0.01175360 0.00088192 0.00596257 0.03991751 0.01171970 0.00087471 
0.01358458 0.00885919 0.00294243 0.00254860 0.00659771 0.00135930 0.00633253 0.00656241 0.01400650 0.00315507 0.01193859 0.00087596 0.00577506 0.03936117 0.01156645 0.00107524 
0.01338293 0.00848075 0.00291056 0.00251712 0.00642529 0.00134500 0.00631411 0.00661085 0.01386055 0.00328631 0.01211399 0.00087065 0.00560131 0.03883864 0.01142233 0.00129824 
0.01317285 0.00810763 0.00287606 0.00248311 0.00624734 0.00132976 0.00628870 0.00665612 0.01370560 0.00342137 0.01227886 0.00086598 0.00544237 0.03835288 0.01128785 0.00154387 
0.01295540 0.00774174 0.00283912 0.00244675 0.00606449 0.00131366 0.00625654 0.00669829 0.01354187 0.00355963 0.01243231 0.00086196 0.00529918 0.03790672 0.01116351 0.00181219 
0.01273165 0.00738496 0.00279998 0.00240823 0.00587744 0.00129678 0.00621793 0.00673746 0.01336962 0.00370044 0.01257354 0.00085861 0.00517262 0.03750286 0.01104978 0.00210314 
0.01250274 0.00703910 0.00275887 0.00236774 0.00568687 0.00127922 0.00617320 0.00677376 0.01318922 0.00384319 0.01270183 0.00085592 0.00506343 0.03714382 0.01094713 0.00241656 
0.01226983 0.00670594 0.00271604 0.00232550 0.00549351 0.00126105 0.00612271 0.00680732 0.01300110 0.00398725 0.01281652 0.00085391 0.00497230 0.03683197 0.01085601 0.00275214 
0.01203411 0.00638717 0.00267172 0.00228170 0.00529810 0.00124240 0.00606685 0.00683831 0.01280576 0.00413197 0.01291708 0.00085256 0.00489977 0.03656946 0.01077684 0.00310947 
0.01179681 0.00608442 0.00262618 0.00223657 0.00510139 0.00122335 0.00600605 0.00686690 0.01260380 0.00427677 0.01300303 0.00085189 0.00484631 0.03635820 0.01071001 0.00348803 
0.01155917 0.00579921 0.00257969 0.00219032 0.00490412 0.00120401 0.00594074 0.00689331 0.01239589 0.00442102 0.01307401 0.00085191 0.00481226 0.03619987 0.01065589 0.00388714 
0.01132247 0.00553301 0.00253250 0.00214318 0.00470707 0.00118449 0.00587139 0.00691774 0.01218278 0.00456414 0.01312974 0.00085260 0.00479787 0.03609590 0.01061479 0.00430604 
0.01108799 0.00528715 0.00248488 0.00209536 0.00451099 0.00116491 0.00579849 0.00694042 0.01196529 0.00470555 0.01317002 0.00085397 0.00480327 0.03604741 0.01058699 0.00474381 
0.01085701 0.00506286 0.00243710 0.00204709 0.00431664 0.00114537 0.00572254 0.00696161 0.01174433 0.00484471 0.01319477 0.00085603 0.00482848 0.03605526 0.01057273 0.00519944 
0.01063083 0.00486128 0.00238943 0.00199860 0.00412477 0.00112599 0.00564404 0.00698154 0.01152086 0.00498106 0.01320400 0.00085878 0.00487342 0.03611998 0.01057219 0.00567179 
0.01041075 0.00468340 0.00234213 0.00195010 0.00393613 0.00110687 0.00556353 0.00700049 0.01129594 0.00511411 0.01319780 0.00086221 0.00493790 0.03624177 0.01058548 0.00615960 
0.01019804 0.00453009 0.00229547 0.00190181 0.00375145 0.00108814 0.00548153 0.00701873 0.01107067 0.00524337 0.01317635 0.00086633 0.00502162 0.03642051 0.01061269 0.00666151 
0.00999399 0.00440211 0.00224970 0.00185395 0.00357142 0.00106990 0.00539857 0.00703654 0.01084622 0.00536837 0.01313995 0.00087113 0.00512419 0.03665575 0.01065381 0.00717607 
0.00979985 0.00430006 0.00220509 0.00180673 0.00339674 0.00105225 0.00531519 0.00705419 0.01062381 0.00548868 0.01308895 0.00087663 0.00524512 0.03694667 0.01070878 0.00770170 
0.00961683 0.00422442 0.00216188 0.00176035 0.00322806 0.00103531 0.00523190 0.00707197 0.01040472 0.00560390 0.01302382 0.00088281 0.00538381 0.03729212 0.01077746 0.00823675 
0.00944615 0.00417552 0.00212030 0.00171501 0.00306602 0.00101918 0.00514922 0.00709016 0.01019026 0.00571366 0.01294508 0.00088968 0.00553959 0.03769057 0.01085965 0.00877947 
0.00928895 0.00415356 0.00208059 0.00167090 0.00291120 0.00100396 0.00506766 0.00710904 0.00998179 0.00581762 0.01285335 0.00089723 0.00571169 0.03814017 0.01095507 0.00932805 
0.00914634 0.00415858 0.00204296 0.00162821 0.00276418 0.00098973 0.00498772 0.00712888 0.00978070 0.00591546 0.01274932 0.00090547 0.00589928 0.03863870 0.01106337 0.00988059 
0.00901940 0.00419050 0.00200764 0.00158711 0.00262547 0.00097659 0.00490986 0.00714995 0.00958837 0.00600692 0.01263374 0.00091440 0.00610143 0.03918360 0.01118412 0.01043515 
0.00890911 0.00424908 0.00197481 0.00154776 0.00249555 0.00096463 0.00483454 0.00717251 0.00940625 0.00609175 0.01250743 0.00092400 0.00631718 0.03977199 0.01131682 0.01098973 
0.00881643 0.00433396 0.00194466 0.00151032 0.00237486 0.00095391 0.00476218 0.00719679 0.00923574 0.00616975 0.01237128 0.00093428 0.00654546 0.04040065 0.01146087 0.01154228 
0.00874222 0.00444462 0.00191736 0.00147493 0.00226379 0.00094451 0.00469320 0.00722305 0.00907828 0.00624074 0.01222621 0.00094523 0.00678519 0.04106607 0.01161564 0.01209073 
0.00868728 0.00458042 0.00189306 0.00144173 0.00216267 0.00093650 0.00462797 0.00725150 0.00893527 0.00630458 0.01207322 0.00095685 0.00703522 0.04176443 0.01178037 0.01263298 
0.00865233 0.00474060 0.00187191 0.00141084 0.00207180 0.00092994 0.00456682 0.00728233 0.00880811 0.00636117 0.01191332 0.00096913 0.00729436 0.04249163 0.01195429 0.01316693 
0.00863799 0.00492424 0.00185403 0.00138236 0.00199141 0.00092486 0.00451008 0.00731574 0.00869814 0.00641043 0.01174757 0.00098206 0.00756141 0.04324335 0.01213650 0.01369048 
0.00864481 0.00513034 0.00183952 0.00135639 0.00192169 0.00092132 0.00445801 0.00735189 0.00860670 0.00645233 0.01157706 0.00099564 0.00783512 0.04401500 0.01232608 0.01420154 
0.00867322 0.00535775 0.00182847 0.00133301 0.00186277 0.00091934 0.00441086 0.00739092 0.00853505 0.00648686 0.01140290 0.00100985 0.00811423 0.04480181 0.01252203 0.01469804 
0.00872357 0.00560523 0.00182096 0.00131230 0.00181473 0.00091896 0.00436883 0.00743297 0.00848440 0.00651403 0.01122621 0.00102467 0.00839747 0.04559884 0.01272329 0.01517796 
0.00879610 0.00587145 0.00181703 0.00129431 0.00177759 0.00092019 0.00433208 0.00747812 0.00845590 0.00653390 0.01104814 0.00104010 0.00868358 0.04640098 0.01292876 0.01563930 
0.00889094 0.00615496 0.00181672 0.00127908 0.00175132 0.00092305 0.00430073 0.00752645 0.00845062 0.00654655 0.01086981 0.00105612 0.00897129 0.04720302 0.01313730 0.01608014 
0.00900811 0.00645424 0.00182005 0.00126664 0.00173584 0.00092752 0.00427487 0.00757801 0.00846955 0.00655208 0.01069236 0.00107270 0.00925934 0.04799966 0.01334771 0.01649863 
0.00914752 0.00676770 0.00182701 0.00125700 0.00173100 0.00093360 0.00425453 0.00763283 0.00851359 0.00655063 0.01051691 0.00108982 0.00954651 0.04878555 0.01355876 0.01689298 
0.00930897 0.00709366 0.00183758 0.00125017 0.00173663 0.00094129 0.00423973 0.00769090 0.00858352 0.00654234 0.01034456 0.00110746 0.00983157 0.04955534 0.01376922 0.01726151 
0.00949213 0.00743041 0.00185170 0.00124614 0.00175248 0.00095054 0.00423043 0.00775220 0.00868004 0.00652741 0.01017639 0.00112560 0.01011337 0.05030369 0.01397783 0.01760263 
0.00969658 0.00777617 0.00186933 0.00124487 0.00177827 0.00096133 0.00422655 0.00781667 0.00880373 0.00650602 0.01001346 0.00114419 0.01039076 0.05102532 0.01418331 0.01791487 
0.00992177 0.00812914 0.00189038 0.00124634 0.00181366 0.00097363 0.00422798 0.00788422 0.00895502 0.00647840 0.00985678 0.00116321 0.01066264 0.05171506 0.01438438 0.01819684 
0.01016702 0.00848746 0.00191476 0.00125048 0.00185828 0.00098737 0.00423457 0.00795475 0.00913426 0.00644476 0.00970732 0.00118262 0.01092798 0.05236785 0.01457980 0.01844733 
0.01043157 0.00884930 0.00194234 0.00125724 0.00191170 0.00100251 0.00424615 0.00802812 0.00934163 0.00640537 0.00956600 0.00120238 0.01118579 0.05297882 0.01476831 0.01866522 
0.01071453 0.00921279 0.00197298 0.00126653 0.00197347 0.00101898 0.00426249 0.00810417 0.00957720 0.00636047 0.00943371 0.00122245 0.01143513 0.05354330 0.01494870 0.01884955 
0.01101491 0.00957606 0.00200655 0.00127828 0.00204310 0.00103671 0.00428336 0.00818271 0.00984090 0.00631035 0.00931125 0.00124277 0.01167515 0.05405688 0.01511978 0.01899949 
0.01133161 0.00993727 0.00204287 0.00129237 0.00212006 0.00105563 0.00430848 0.00826354 0.01013250 0.00625527 0.00919939 0.00126331 0.01190503 0.05451542 0.01528042 0.01911439 
0.01166343 0.01029460 0.00208176 0.00130870 0.00220379 0.00107565 0.00433755 0.00834641 0.01045164 0.00619553 0.00909882 0.00128401 0.01212406 0.05491507 0.01542954 0.01919372 
0.01200908 0.01064627 0.00212302 0.00132715 0.00229372 0.00109669 0.00437025 0.00843108 0.01079783 0.00613141 0.00901015 0.00130480 0.01233157 0.05525238 0.01556611 0.01923713 
0.01236719 0.01099053 0.00216645 0.00134758 0.00238923 0.00111866 0.00440625 0.00851726 0.01117040 0.00606320 0.00893393 0.00132565 0.01252698 0.05552423 0.01568918 0.01924442 
0.01273629 0.01132569 0.00221181 0.00136986 0.00248971 0.00114146 0.00444518 0.00860465 0.01156858 0.00599120 0.00887065 0.00134647 0.01270979 0.05572793 0.01579789 0.01921555 
0.01311487 0.01165013 0.00225887 0.00139384 0.00259452 0.00116499 0.00448669 0.00869294 0.01199142 0.00591570 0.00882070 0.00136722 0.01287957 0.05586121 0.01589146 0.01915065 
0.01350130 0.01196230 0.00230739 0.00141936 0.00270301 0.00118914 0.00453038 0.00878181 0.01243786 0.00583700 0.00878440 0.00138781 0.01303596 0.05592229 0.01596920 0.01904999 
0.01389394 0.01226073 0.00235711 0.00144627 0.00281453 0.00121382 0.00457588 0.00887089 0.01290668 0.00575538 0.00876199 0.00140819 0.01317869 0.05590984 0.01603052 0.01891404 
0.01429107 0.01254403 0.00240778 0.00147439 0.00292841 0.00123890 0.00462281 0.00895983 0.01339656 0.00567112 0.00875362 0.00142828 0.01330757 0.05582304 0.01607496 0.01874337 
0.01469094 0.01281092 0.00245912 0.00150354 0.00304399 0.00126430 0.00467077 0.00904825 0.01390604 0.00558449 0.00875938 0.00144801 0.01342246 0.05566158 0.01610215 0.01853876 
0.01509178 0.01306022 0.00251087 0.00153356 0.00316062 0.00128988 0.00471937 0.00913579 0.01443353 0.00549578 0.00877926 0.00146731 0.01352333 0.05542569 0.01611186 0.01830110 
0.01549178 0.01329086 0.00256274 0.00156426 0.00327765 0.00131556 0.00476826 0.00922204 0.01497734 0.00540523 0.00881317 0.00148610 0.01361019 0.05511615 0.01610396 0.01803144 
0.01588913 0.01350189 0.00261446 0.00159546 0.00339445 0.00134120 0.00481706 0.00930662 0.01553568 0.00531309 0.00886094 0.00150430 0.01368315 0.05473425 0.01607848 0.01773096 
0.01628200 0.01369246 0.00266574 0.00162697 0.00351039 0.00136672 0.00486541 0.00938912 0.01610666 0.00521961 0.00892233 0.00152183 0.01374236 0.05428186 0.01603556 0.01740097 
0.01666861 0.01386189 0.00271632 0.00165860 0.00362486 0.00139199 0.00491300 0.00946916 0.01668831 0.00512501 0.00899703 0.00153863 0.01378804 0.05376138 0.01597548 0.01704291 
0.01704715 0.01400957 0.00276591 0.00169017 0.00373728 0.00141692 0.00495950 0.00954633 0.01727857 0.00502952 0.00908462 0.00155461 0.01382048 0.05317577 0.01589864 0.01665833 
0.01741589 0.01413507 0.00281425 0.00172149 0.00384708 0.00144141 0.00500463 0.00962024 0.01787533 0.00493332 0.00918464 0.00156970 0.01384002 0.05252852 0.01580560 0.01624888 
0.01777310 0.01423807 0.00286107 0.00175238 0.00395374 0.00146536 0.00504811 0.00969051 0.01847643 0.00483663 0.00929656 0.00158383 0.01384705 0.05182363 0.01569703 0.01581631 
0.01811713 0.01431840 0.00290610 0.00178265 0.00405675 0.00148867 0.00508972 0.00975675 0.01907965 0.00473962 0.00941978 0.00159691 0.01384201 0.05106563 0.01557375 0.01536247 
0.01844638 0.01437601 0.00294911 0.00181214 0.00415562 0.00151126 0.00512923 0.00981860 0.01968277 0.00464246 0.00955362 0.00160889 0.01382538 0.05025953 0.01543669 0.01488925 
0.01875933 0.01441099 0.00298984 0.00184067 0.00424992 0.00153304 0.00516649 0.00987570 0.02028351 0.00454531 0.00969737 0.00161969 0.01379767 0.04941081 0.01528693 0.01439864 
0.01905453 0.01442356 0.00302807 0.00186806 0.00433923 0.00155394 0.00520133 0.00992771 0.02087963 0.00444831 0.00985024 0.00162925 0.01375944 0.04852538 0.01512565 0.01389266 
0.01933063 0.01441409 0.00306358 0.00189417 0.00442319 0.00157388 0.00523366 0.00997429 0.02146888 0.00435161 0.01001143 0.00163750 0.01371126 0.04760960 0.01495416 0.01337338 
0.01958638 0.01438306 0.00309617 0.00191883 0.00450145 0.00159279 0.00526339 0.01001513 0.02204902 0.00425533 0.01018006 0.00164439 0.01365374 0.04667017 0.01477388 0.01284290 
0.01982064 0.01433108 0.00312566 0.00194190 0.00457372 0.00161063 0.00529048 0.01004994 0.02261785 0.00415959 0.01035523 0.00164987 0.01358748 0.04571416 0.01458632 0.01230335 
0.02003236 0.01425888 0.00315186 0.00196324 0.00463973 0.00162733 0.00531494 0.01007846 0.02317325 0.00406451 0.01053600 0.00165388 0.01351311 0.04474896 0.01439309 0.01175685 
0.02022066 0.01416731 0.00317463 0.00198272 0.00469927 0.00164285 0.00533680 0.01010042 0.02371311 0.00397017 0.01072141 0.00165639 0.01343127 0.04378219 0.01419589 0.01120551 
0.02038474 0.01405734 0.00319382 0.00200024 0.00475216 0.00165716 0.00535611 0.01011562 0.02423542 0.00387669 0.01091047 0.00165735 0.01334260 0.04282175 0.01399651 0.01065146 
0.02052396 0.01393003 0.00320933 0.00201566 0.00479824 0.00167022 0.00537300 0.01012383 0.02473824 0.00378416 0.01110218 0.00165673 0.01324771 0.04187567 0.01379677 0.01009676 
0.02063780 0.01378653 0.00322105 0.00202891 0.00483742 0.00168201 0.00538758 0.01012490 0.02521976 0.00369265 0.01129553 0.00165450 0.01314724 0.04095215 0.01359858 0.00954347 
0.02072590 0.01362810 0.00322891 0.00203990 0.00486963 0.00169252 0.00540003 0.01011867 0.02567823 0.00360227 0.01148951 0.00165066 0.01304180 0.04005946 0.01340389 0.00899358 
0.02078803 0.01345607 0.00323285 0.00204855 0.00489484 0.00170173 0.00541055 0.01010502 0.02611204 0.00351308 0.01168310 0.00164517 0.01293197 0.03920593 0.01321466 0.00844903 
0.02082410 0.01327186 0.00323283 0.00205480 0.00491305 0.00170966 0.00541936 0.01008386 0.02651971 0.00342519 0.01187529 0.00163804 0.01281834 0.03839985 0.01303289 0.00791169 
0.02083418 0.01307692 0.00322886 0.00205861 0.00492432 0.00171631 0.00542673 0.01005512 0.02689989 0.00333867 0.01206510 0.00162926 0.01270144 0.03764946 0.01286059 0.00738337 
0.02081847 0.01287278 0.00322092 0.00205995 0.00492871 0.00172169 0.00543292 0.01001878 0.02725137 0.00325361 0.01225155 0.00161884 0.01258179 0.03696288 0.01269975 0.00686579 
0.02077731 0.01266102 0.00320906 0.00205878 0.00492633 0.00172583 0.00543825 0.00997482 0.02757310 0.00317010 0.01243369 0.00160681 0.01245989 0.03634807 0.01255236 0.00636056 
0.02071121 0.01244323 0.00319334 0.00205511 0.00491731 0.00172876 0.00544303 0.00992328 0.02786418 0.00308824 0.01261060 0.00159317 0.01233618 0.03581277 0.01242036 0.00586922 
0.02062077 0.01222106 0.00317381 0.00204894 0.00490183 0.00173051 0.00544760 0.00986421 0.02812387 0.00300813 0.01278140 0.00157797 0.01221109 0.03536443 0.01230567 0.00539319 
0.02050677 0.01199615 0.00315060 0.00204030 0.00488008 0.00173112 0.00545230 0.00979768 0.02835160 0.00292988 0.01294523 0.00156123 0.01208499 0.03501022 0.01221012 0.00493379 
0.02037007 0.01177014 0.00312380 0.00202921 0.00485226 0.00173065 0.00545750 0.00972383 0.02854698 0.00285360 0.01310130 0.00154300 0.01195822 0.03475691 0.01213550 0.00449223 
0.02021170 0.01154469 0.00309357 0.00201572 0.00481863 0.00172915 0.00546355 0.00964277 0.02870977 0.00277942 0.01324885 0.00152333 0.01183109 0.03461086 0.01208351 0.00406959 
0.02003277 0.01132142 0.00306006 0.00199990 0.00477943 0.00172667 0.00547082 0.00955469 0.02883991 0.00270746 0.01338719 0.00150228 0.01170386 0.03457797 0.01205574 0.00366683 
0.01983451 0.01110194 0.00302345 0.00198182 0.00473495 0.00172329 0.00547968 0.00945977 0.02893752 0.00263787 0.01351565 0.00147991 0.01157673 0.03466363 0.01205369 0.00328479 
0.01961824 0.01088781 0.00298394 0.00196156 0.00468547 0.00171906 0.00549048 0.00935825 0.02900290 0.00257081 0.01363367 0.00145630 0.01144989 0.03487269 0.01207873 0.00292421 
0.01938537 0.01068057 0.00294174 0.00193922 0.00463130 0.00171406 0.00550358 0.00925035 0.02903648 0.00250642 0.01374071 0.00143152 0.01132348 0.03520940 0.01213211 0.00258567 
0.01913740 0.01048167 0.00289709 0.00191491 0.00457275 0.00170836 0.00551931 0.00913635 0.02903890 0.00244488 0.01383632 0.00140566 0.01119758 0.03567742 0.01221493 0.00226964 
0.01887588 0.01029253 0.00285023 0.00188875 0.00451016 0.00170204 0.00553800 0.00901655 0.02901093 0.00238638 0.01392009 0.00137879 0.01107226 0.03627971 0.01232815 0.00197647 
0.01860244 0.01011447 0.00280141 0.00186088 0.00444385 0.00169517 0.00555996 0.00889124 0.02895351 0.00233109 0.01399171 0.00135103 0.01094753 0.03701857 0.01247257 0.00170638 
0.01831874 0.00994875 0.00275092 0.00183143 0.00437416 0.00168783 0.00558546 0.00876077 0.02886771 0.00227922 0.01405092 0.00132246 0.01082338 0.03789559 0.01264881 0.00145947 
0.01802647 0.00979654 0.00269903 0.00180056 0.00430143 0.00168011 0.00561477 0.00862547 0.02875476 0.00223097 0.01409754 0.00129318 0.01069976 0.03891162 0.01285735 0.00123574 
0.01772735 0.00965890 0.00264604 0.00176842 0.00422600 0.00167208 0.00564811 0.00848571 0.02861601 0.00218657 0.01413146 0.00126330 0.01057660 0.04006676 0.01309846 0.00103504 
0.01742313 0.00953680 0.00259224 0.00173518 0.00414822 0.00166383 0.00568569 0.00834187 0.02845294 0.00214622 0.01415263 0.00123294 0.01045378 0.04136035 0.01337223 0.00085715 
0.01711553 0.00943112 0.00253794 0.00170101 0.00406842 0.00165542 0.00572766 0.00819433 0.02826714 0.00211015 0.01416108 0.00120219 0.01033119 0.04279095 0.01367857 0.00070172 
0.01680627 0.00934259 0.00248345 0.00166609 0.00398695 0.00164693 0.00577417 0.00804350 0.02806028 0.00207860 0.01415691 0.00117118 0.01020865 0.04435633 0.01401720 0.00056831 
0.01649704 0.00927185 0.00242908 0.00163059 0.00390413 0.00163844 0.00582531 0.00788977 0.02783416 0.00205180 0.01414030 0.00114001 0.01008601 0.04605349 0.01438765 0.00045638 
0.01618952 0.00921943 0.00237514 0.00159471 0.00382029 0.00163001 0.00588113 0.00773357 0.02759061 0.00202999 0.01411147 0.00110881 0.00996309 0.04787864 0.01478924 0.00036531 
0.01588530 0.00918572 0.00232195 0.00155864 0.00373575 0.00162172 0.00594165 0.00757532 0.02733157 0.00201338 0.01407074 0.00107768 0.00983967 0.04982722 0.01522111 0.00029438 
0.01558595 0.00917099 0.00226981 0.00152255 0.00365083 0.00161362 0.00600685 0.00741542 0.02705901 0.00200223 0.01401847 0.00104675 0.00971557 0.05189391 0.01568221 0.00024283 
0.01529295 0.00917538 0.00221902 0.00148665 0.00356583 0.00160577 0.00607667 0.00725431 0.02677493 0.00199676 0.01395508 0.00101612 0.00959056 0.05407266 0.01617129 0.00020979 
0.01500772 0.00919892 0.00216989 0.00145111 0.00348104 0.00159823 0.00615100 0.00709240 0.02648137 0.00199718 0.01388105 0.00098591 0.00946446 0.05635667 0.01668693 0.00019436 
0.01473158 0.00924150 0.00212270 0.00141613 0.00339677 0.00159105 0.00622968 0.00693012 0.02618038 0.00200371 0.01379693 0.00095622 0.00933703 0.05873846 0.01722752 0.00019556 
0.01446575 0.00930291 0.00207772 0.00138189 0.00331328 0.00158427 0.00631254 0.00676787 0.02587400 0.00201656 0.01370331 0.00092717 0.00920810 0.06120989 0.01779127 0.00021240 
0.01421137 0.00938279 0.00203523 0.00134857 0.00323086 0.00157792 0.00639935 0.00660605 0.02556428 0.00203591 0.01360081 0.00089885 0.00907747 0.06376216 0.01837625 0.00024382 
0.01396945 0.00948068 0.00199548 0.00131635 0.00314975 0.00157204 0.00648984 0.00644507 0.02525321 0.00206195 0.01349012 0.00087138 0.00894496 0.06638589 0.01898034 0.00028875 
0.01374089 0.00959601 0.00195870 0.00128538 0.00307022 0.00156666 0.00658371 0.00628531 0.02494275 0.00209482 0.01337195 0.00084483 0.00881042 0.06907116 0.01960130 0.00034606 
0.01352647 0.00972809 0.00192512 0.00125585 0.00299251 0.00156178 0.00668062 0.00612715 0.02463483 0.00213468 0.01324706 0.00081931 0.00867369 0.07180751 0.02023674 0.00041465 
0.01332686 0.00987612 0.00189493 0.00122789 0.00291685 0.00155744 0.00678019 0.00597095 0.02433129 0.00218163 0.01311621 0.00079489 0.00853467 0.07458403 0.02088412 0.00049339 
0.01314258 0.01003923 0.00186833 0.00120166 0.00284349 0.00155363 0.00688203 0.00581705 0.02403389 0.00223579 0.01298022 0.00077166 0.00839326 0.07738942 0.02154084 0.00058114 
0.01297402 0.01021642 0.00184548 0.00117729 0.00277263 0.00155035 0.00698570 0.00566580 0.02374434 0.00229721 0.01283990 0.00074969 0.00824937 0.08021201 0.02220415 0.00067677 
0.01282146 0.01040663 0.00182652 0.00115490 0.00270450 0.00154761 0.00709075 0.00551749 0.02346421 0.00236594 0.01269609 0.00072905 0.00810299 0.08303984 0.02287123 0.00077918 
0.01268503 0.01060872 0.00181158 0.00113462 0.00263931 0.00154538 0.00719669 0.00537244 0.02319500 0.00244200 0.01254963 0.00070979 0.00795408 0.08586070 0.02353918 0.00088725 
0.01256474 0.01082147 0.00180074 0.00111654 0.00257726 0.00154366 0.00730303 0.00523091 0.02293807 0.00252537 0.01240137 0.00069197 0.00780266 0.08866223 0.02420507 0.00099993 
0.01246046 0.01104362 0.00179409 0.00110075 0.00251855 0.00154242 0.00740926 0.00509317 0.02269468 0.00261600 0.01225215 0.00067564 0.00764880 0.09143193 0.02486588 0.00111615 
0.01237194 0.01127384 0.00179168 0.00108732 0.00246339 0.00154162 0.00751485 0.00495945 0.02246594 0.00271382 0.01210282 0.00066082 0.00749256 0.09415729 0.02551861 0.00123491 
0.01229881 0.01151076 0.00179353 0.00107634 0.00241195 0.00154125 0.00761926 0.00482997 0.02225284 0.00281870 0.01195419 0.00064756 0.00733406 0.09682579 0.02616020 0.00135523 
0.01224057 0.01175299 0.00179964 0.00106784 0.00236445 0.00154126 0.00772197 0.00470492 0.02205623 0.00293050 0.01180709 0.00063588 0.00717346 0.09942502 0.02678765 0.00147619 
0.01219661 0.01199909 0.00181000 0.00106186 0.00232105 0.00154162 0.00782243 0.00458447 0.02187683 0.00304904 0.01166229 0.00062578 0.00701092 0.10194271 0.02739793 0.00159691 
0.01216623 0.01224764 0.00182455 0.00105842 0.00228196 0.00154227 0.00792011 0.00446878 0.02171520 0.00317408 0.01152057 0.00061729 0.00684666 0.10436682 0.02798809 0.00171655 
0.01214861 0.01249719 0.00184323 0.00105754 0.00224735 0.00154317 0.00801448 0.00435796 0.02157176 0.00330537 0.01138265 0.00061038 0.00668092 0.10668558 0.02855521 0.00183433 
0.01214285 0.01274631 0.00186594 0.00105920 0.00221741 0.00154426 0.00810503 0.00425213 0.02144678 0.00344261 0.01124924 0.00060507 0.00651397 0.10888761 0.02909644 0.00194954 
0.01214794 0.01299357 0.00189257 0.00106339 0.00219232 0.00154551 0.00819127 0.00415136 0.02134040 0.00358547 0.01112099 0.00060132 0.00634612 0.11096191 0.02960904 0.00206152 
0.01216284 0.01323759 0.00192296 0.00107008 0.00217227 0.00154684 0.00827272 0.00405572 0.02125260 0.00373358 0.01099853 0.00059912 0.00617770 0.11289798 0.03009034 0.00216966 
0.01218639 0.01347701 0.00195697 0.00107922 0.00215743 0.00154821 0.00834891 0.00396524 0.02118322 0.00388653 0.01088242 0.00059844 0.00600904 0.11468585 0.03053782 0.00227343 
0.01221743 0.01371050 0.00199441 0.00109074 0.00214799 0.00154955 0.00841943 0.00387995 0.02113198 0.00404389 0.01077318 0.00059924 0.00584054 0.11631615 0.03094907 0.00237234 
0.01225470 0.01393681 0.00203508 0.00110458 0.00214412 0.00155082 0.00848387 0.00379982 0.02109846 0.00420519 0.01067129 0.00060146 0.00567259 0.11778018 0.03132184 0.00246598 
0.01229694 0.01415473 0.00207876 0.00112065 0.00214601 0.00155194 0.00854187 0.00372485 0.02108209 0.00436992 0.01057717 0.00060507 0.00550559 0.11906993 0.03165402 0.00255400 
0.01234285 0.01436312 0.00212522 0.00113886 0.00215382 0.00155288 0.00859311 0.00365498 0.02108223 0.00453755 0.01049118 0.00061001 0.00533999 0.12017813 0.03194371 0.00263611 
0.01239112 0.01456094 0.00217420 0.00115910 0.00216773 0.00155358 0.00863728 0.00359016 0.02109808 0.00470753 0.01041361 0.00061620 0.00517623 0.12109835 0.03218915 0.00271208 
0.01244043 0.01474719 0.00222545 0.00118125 0.00218790 0.00155397 0.00867415 0.00353031 0.02112875 0.00487927 0.01034471 0.00062359 0.00501476 0.12182498 0.03238881 0.00278174 
0.01248948 0.01492099 0.00227868 0.00120519 0.00221449 0.00155403 0.00870351 0.00347532 0.02117327 0.00505217 0.01028467 0.00063210 0.00485604 0.12235327 0.03254134 0.00284498 
0.01253698 0.01508154 0.00233361 0.00123077 0.00224767 0.00155369 0.00872520 0.00342508 0.02123056 0.00522559 0.01023361 0.00064164 0.00470054 0.12267941 0.03264562 0.00290175 
0.01258166 0.01522815 0.00238996 0.00125787 0.00228757 0.00155291 0.00873910 0.00337948 0.02129948 0.00539891 0.01019158 0.00065215 0.00454872 0.12280052 0.03270075 0.00295204 
0.01262229 0.01536023 0.00244741 0.00128632 0.00233435 0.00155166 0.00874516 0.00333836 0.02137880 0.00557147 0.01015858 0.00066353 0.00440105 0.12271468 0.03270605 0.00299589 
0.01265772 0.01547728 0.00250567 0.00131598 0.00238811 0.00154991 0.00874334 0.00330158 0.02146727 0.00574261 0.01013456 0.00067570 0.00425799 0.12242095 0.03266108 0.00303342 
0.01268680 0.01557894 0.00256444 0.00134668 0.00244899 0.00154761 0.00873370 0.00326897 0.02156356 0.00591165 0.01011938 0.00068856 0.00411999 0.12191938 0.03256562 0.00306477 
0.01270851 0.01566492 0.00262339 0.00137826 0.00251709 0.00154476 0.00871630 0.00324037 0.02166632 0.00607793 0.01011287 0.00070202 0.00398751 0.12121104 0.03241971 0.00309011 
0.01272185 0.01573509 0.00268224 0.00141056 0.00259250 0.00154131 0.00869128 0.00321559 0.02177417 0.00624078 0.01011479 0.00071599 0.00386096 0.12029797 0.03222363 0.00310968 
0.01272595 0.01578938 0.00274068 0.00144341 0.00267528 0.00153728 0.00865882 0.00319444 0.02188573 0.00639954 0.01012484 0.00073037 0.00374076 0.11918324 0.03197789 0.00312373 
0.01272000 0.01582788 0.00279842 0.00147664 0.00276550 0.00153263 0.00861915 0.00317673 0.02199960 0.00655355 0.01014268 0.00074507 0.00362731 0.11787090 0.03168325 0.00313256 
0.01270329 0.01585077 0.00285516 0.00151009 0.00286318 0.00152738 0.00857254 0.00316227 0.02211441 0.00670217 0.01016791 0.00075998 0.00352098 0.11636599 0.03134070 0.00313649 
0.01267524 0.01585832 0.00291063 0.00154359 0.00296833 0.00152152 0.00851931 0.00315085 0.02222880 0.00684478 0.01020007 0.00077502 0.00342213 0.11467450 0.03095148 0.00313585 
0.01263535 0.01585093 0.00296457 0.00157698 0.00308095 0.00151506 0.00845983 0.00314227 0.02234144 0.00698078 0.01023868 0.00079009 0.00333108 0.11280335 0.03051705 0.00313101 
0.01258325 0.01582910 0.00301672 0.00161011 0.00320100 0.00150801 0.00839449 0.00313633 0.02245104 0.00710960 0.01028321 0.00080509 0.00324813 0.11076040 0.03003909 0.00312235 
0.01251867 0.01579343 0.00306684 0.00164281 0.00332841 0.00150040 0.00832375 0.00313283 0.02255636 0.00723068 0.01033309 0.00081995 0.00317357 0.10855436 0.02951951 0.00311026 
0.01244148 0.01574460 0.00311470 0.00167495 0.00346308 0.00149226 0.00824807 0.00313157 0.02265623 0.00734352 0.01038772 0.00083456 0.00310762 0.10619477 0.02896042 0.00309514 
0.01235166 0.01568338 0.00316011 0.00170639 0.00360490 0.00148360 0.00816797 0.00313235 0.02274953 0.00744763 0.01044646 0.00084884 0.00305050 0.10369200 0.02836413 0.00307740 
0.01224932 0.01561064 0.00320286 0.00173698 0.00375370 0.00147447 0.00808398 0.00313497 0.02283523 0.00754259 0.01050865 0.00086271 0.00300238 0.10105714 0.02773315 0.00305744 
0.01213467 0.01552731 0.00324280 0.00176661 0.00390931 0.00146491 0.00799669 0.00313925 0.02291239 0.00762799 0.01057363 0.00087610 0.00296342 0.09830199 0.02707016 0.00303568 
0.01200809 0.01543438 0.00327977 0.00179517 0.00407150 0.00145497 0.00790668 0.00314501 0.02298014 0.00770349 0.01064070 0.00088892 0.00293372 0.09543899 0.02637800 0.00301250 
0.01187002 0.01533293 0.00331364 0.00182254 0.00424002 0.00144469 0.00781455 0.00315206 0.02303772 0.00776879 0.01070915 0.00090112 0.00291336 0.09248115 0.02565969 0.00298831 
0.01172106 0.01522407 0.00334432 0.00184863 0.00441457 0.00143413 0.00772094 0.00316025 0.02308446 0.00782363 0.01077829 0.00091261 0.00290238 0.08944205 0.02491835 0.00296347 
0.01156192 0.01510895 0.00337171 0.00187337 0.00459483 0.00142335 0.00762647 0.00316941 0.02311980 0.00786783 0.01084739 0.00092336 0.00290078 0.08633568 0.02415726 0.00293837 
0.01139341 0.01498878 0.00339577 0.00189667 0.00478045 0.00141242 0.00753181 0.00317938 0.02314330 0.00790124 0.01091575 0.00093329 0.00290854 0.08317645 0.02337978 0.00291334 
0.01121645 0.01486479 0.00341644 0.00191847 0.00497103 0.00140139 0.00743759 0.00319002 0.02315461 0.00792378 0.01098268 0.00094236 0.00292560 0.07997910 0.02258939 0.00288872 
0.01103205 0.01473822 0.00343372 0.00193873 0.00516613 0.00139033 0.00734446 0.00320121 0.02315350 0.00793542 0.01104750 0.00095053 0.00295186 0.07675861 0.02178963 0.00286482 
0.01084134 0.01461033 0.00344762 0.00195741 0.00536529 0.00137931 0.00725306 0.00321281 0.02313986 0.00793618 0.01110954 0.00095775 0.00298718 0.07353016 0.02098410 0.00284193 
0.01064550 0.01448237 0.00345816 0.00197448 0.00556803 0.00136841 0.00716404 0.00322471 0.02311367 0.00792617 0.01116816 0.00096401 0.00303142 0.07030903 0.02017646 0.00282031 
0.01044583 0.01435561 0.00346541 0.00198994 0.00577379 0.00135769 0.00707801 0.00323681 0.02307506 0.00790551 0.01122276 0.00096926 0.00308437 0.06711055 0.01937038 0.00280019 
0.01024367 0.01423128 0.00346943 0.00200378 0.00598203 0.00134723 0.00699558 0.00324901 0.02302424 0.00787442 0.01127276 0.00097350 0.00314581 0.06395000 0.01856954 0.00278179 
0.01004043 0.01411060 0.00347032 0.00201601 0.00619216 0.00133710 0.00691734 0.00326122 0.02296153 0.00783317 0.01131761 0.00097671 0.00321550 0.06084256 0.01777762 0.00276530 
0.00983757 0.01399475 0.00346820 0.00202665 0.00640356 0.00132738 0.00684384 0.00327338 0.02288737 0.00778206 0.01135682 0.00097888 0.00329315 0.05780323 0.01699825 0.00275086 
0.00963661 0.01388488 0.00346320 0.00203574 0.00661558 0.00131812 0.00677563 0.00328542 0.02280227 0.00772146 0.01138994 0.00098000 0.00337847 0.05484674 0.01623505 0.00273860 
0.00943908 0.01378209 0.00345547 0.00204333 0.00682757 0.00130941 0.00671322 0.00329728 0.02270687 0.00765181 0.01141656 0.00098009 0.00347112 0.05198751 0.01549156 0.00272862 
0.00924655 0.01368742 0.00344518 0.00204947 0.00703883 0.00130130 0.00665706 0.00330892 0.02260189 0.00757357 0.01143634 0.00097916 0.00357076 0.04923954 0.01477123 0.00272099 
0.00906059 0.01360187 0.00343252 0.00205423 0.00724867 0.00129387 0.00660761 0.00332030 0.02248811 0.00748727 0.01144899 0.00097721 0.00367701 0.04661639 0.01407743 0.00271574 
0.00888278 0.01352636 0.00341767 0.00205768 0.00745637 0.00128718 0.00656525 0.00333139 0.02236642 0.00739347 0.01145426 0.00097427 0.00378949 0.04413108 0.01341341 0.00271290 
0.00871468 0.01346174 0.00340086 0.00205990 0.00766121 0.00128129 0.00653035 0.00334218 0.02223777 0.00729277 0.01145199 0.00097037 0.00390780 0.04179601 0.01278231 0.00271244 
0.00855784 0.01340878 0.00338229 0.00206099 0.00786245 0.00127625 0.00650321 0.00335264 0.02210316 0.00718582 0.01144207 0.00096554 0.00403152 0.03962297 0.01218710 0.00271433 
0.00841378 0.01336818 0.00336220 0.00206105 0.00805937 0.00127212 0.00648411 0.00336277 0.02196367 0.00707330 0.01142446 0.00095982 0.00416021 0.03762298 0.01163061 0.00271849 
0.00828396 0.01334056 0.00334083 0.00206018 0.00825122 0.00126894 0.00647327 0.00337256 0.02182041 0.00695590 0.01139917 0.00095325 0.00429343 0.03580634 0.01111550 0.00272485 
0.00816981 0.01332644 0.00331841 0.00205849 0.00843729 0.00126676 0.00647085 0.00338203 0.02167454 0.00683437 0.01136630 0.00094586 0.00443073 0.03418250 0.01064423 0.00273330 
0.00807269 0.01332626 0.00329518 0.00205610 0.00861684 0.00126562 0.00647698 0.00339119 0.02152725 0.00670945 0.01132602 0.00093772 0.00457166 0.03276006 0.01021907 0.00274369 
0.00799387 0.01334037 0.00327140 0.00205313 0.00878918 0.00126555 0.00649174 0.00340003 0.02137974 0.00658191 0.01127854 0.00092888 0.00471575 0.03154669 0.00984210 0.00275589 
0.00793457 0.01336902 0.00324730 0.00204970 0.00895361 0.00126657 0.00651515 0.00340858 0.02123326 0.00645253 0.01122417 0.00091939 0.00486254 0.03054914 0.00951514 0.00276972 
0.00789589 0.01341240 0.00322314 0.00204593 0.00910947 0.00126872 0.00654719 0.00341686 0.02108902 0.00632209 0.01116326 0.00090931 0.00501155 0.02977314 0.00923983 0.00278500 
0.00787884 0.01347057 0.00319915 0.00204196 0.00925611 0.00127202 0.00658778 0.00342489 0.02094828 0.00619138 0.01109626 0.00089870 0.00516232 0.02922345 0.00901755 0.00280154 
0.00788432 0.01354352 0.00317557 0.00203790 0.00939293 0.00127646 0.00663679 0.00343269 0.02081223 0.00606118 0.01102365 0.00088764 0.00531439 0.02890376 0.00884942 0.00281914 
0.00791312 0.01363115 0.00315263 0.00203388 0.00951934 0.00128207 0.00669405 0.00344027 0.02068211 0.00593226 0.01094600 0.00087618 0.00546729 0.02881671 0.00873634 0.00283758 
0.00796591 0.01373328 0.00313055 0.00203003 0.00963480 0.00128884 0.00675935 0.00344767 0.02055908 0.00580538 0.01086391 0.00086440 0.00562058 0.02896389 0.00867894 0.00285664 
0.00804321 0.01384965 0.00310953 0.00202646 0.00973882 0.00129677 0.00683240 0.00345491 0.02044429 0.00568130 0.01077807 0.00085237 0.00577379 0.02934579 0.00867761 0.00287610 
0.00814543 0.01397991 0.00308979 0.00202329 0.00983093 0.00130586 0.00691290 0.00346199 0.02033884 0.00556071 0.01068920 0.00084015 0.00592649 0.02996181 0.00873244 0.00289573 
0.00827283 0.01412364 0.00307150 0.00202064 0.00991073 0.00131608 0.00700049 0.00346894 0.02024381 0.00544432 0.01059808 0.00082782 0.00607824 0.03081030 0.00884330 0.00291529 
0.00842552 0.01428037 0.00305484 0.00201861 0.00997787 0.00132742 0.00709478 0.00347578 0.02016018 0.00533279 0.01050554 0.00081545 0.00622863 0.03188849 0.00900979 0.00293457 
0.00860347 0.01444953 0.00303997 0.00201730 0.01003204 0.00133986 0.00719532 0.00348252 0.02008892 0.00522674 0.01041244 0.00080311 0.00637724 0.03319258 0.00923122 0.00295335 
0.00880652 0.01463052 0.00302703 0.00201682 0.01007300 0.00135336 0.00730164 0.00348917 0.02003090 0.00512676 0.01031969 0.00079087 0.00652368 0.03471770 0.00950669 0.00297139 
0.00903432 0.01482269 0.00301615 0.00201724 0.01010055 0.00136790 0.00741324 0.00349573 0.01998692 0.00503339 0.01022822 0.00077880 0.00666756 0.03645797 0.00983501 0.00298850 
0.00928642 0.01502531 0.00300744 0.00201865 0.01011458 0.00138343 0.00752958 0.00350221 0.01995772 0.00494712 0.01013898 0.00076698 0.00680853 0.03840651 0.01021475 0.00300448 
0.00956217 0.01523766 0.00300098 0.00202112 0.01011501 0.00139992 0.00765009 0.00350861 0.01994395 0.00486840 0.01005297 0.00075547 0.00694622 0.04055546 0.01064426 0.00301912 
0.00986081 0.01545893 0.00299686 0.00202472 0.01010185 0.00141732 0.00777418 0.00351492 0.01994619 0.00479763 0.00997117 0.00074433 0.00708029 0.04289604 0.01112164 0.00303226 
0.01018143 0.01568833 0.00299512 0.00202950 0.01007516 0.00143559 0.00790124 0.00352113 0.01996492 0.00473515 0.00989459 0.00073364 0.00721045 0.04541858 0.01164475 0.00304373 
0.01052295 0.01592503 0.00299581 0.00203550 0.01003507 0.00145467 0.00803062 0.00352724 0.02000051 0.00468124 0.00982423 0.00072344 0.00733637 0.04811258 0.01221126 0.00305337 
0.01088419 0.01616817 0.00299893 0.00204276 0.00998175 0.00147451 0.00816169 0.00353322 0.02005329 0.00463614 0.00976110 0.00071381 0.00745779 0.05096673 0.01281864 0.00306106 
0.01126381 0.01641692 0.00300449 0.00205130 0.00991548 0.00149505 0.00829378 0.00353905 0.02012344 0.00460000 0.00970617 0.00070480 0.00757444 0.05396899 0.01346414 0.00306666 
0.01166035 0.01667042 0.00301245 0.00206115 0.00983656 0.00151624 0.00842622 0.00354472 0.02021109 0.00457294 0.00966044 0.00069646 0.00768607 0.05710664 0.01414486 0.00307008 
0.01207224 0.01692783 0.00302280 0.00207229 0.00974538 0.00153802 0.00855834 0.00355020 0.02031623 0.00455501 0.00962483 0.00068884 0.00779248 0.06036636 0.01485772 0.00307123 
0.01249778 0.01718831 0.00303545 0.00208474 0.00964237 0.00156033 0.00868945 0.00355545 0.02043880 0.00454620 0.00960027 0.00068199 0.00789345 0.06373425 0.01559952 0.00307005 
0.01293517 0.01745104 0.00305035 0.00209847 0.00952803 0.00158310 0.00881889 0.00356045 0.02057861 0.00454644 0.00958764 0.00067596 0.00798882 0.06719595 0.01636688 0.00306648 
0.01338254 0.01771524 0.00306740 0.00211346 0.00940291 0.00160628 0.00894599 0.00356516 0.02073538 0.00455560 0.00958777 0.00067078 0.00807842 0.07073667 0.01715634 0.00306050 
0.01383789 0.01798014 0.00308648 0.00212966 0.00926761 0.00162980 0.00907007 0.00356955 0.02090875 0.00457352 0.00960144 0.00066649 0.00816211 0.07434129 0.01796434 0.00305209 
0.01429918 0.01824501 0.00310749 0.00214705 0.00912279 0.00165360 0.00919050 0.00357358 0.02109825 0.00459993 0.00962939 0.00066312 0.00823979 0.07799442 0.01878723 0.00304125 
0.01476428 0.01850915 0.00313028 0.00216555 0.00896915 0.00167762 0.00930662 0.00357721 0.02130332 0.00463457 0.00967228 0.00066071 0.00831136 0.08168047 0.01962130 0.00302802 
0.01523103 0.01877192 0.00315470 0.00218512 0.00880742 0.00170180 0.00941783 0.00358041 0.02152334 0.00467707 0.00973071 0.00065927 0.00837676 0.08538376 0.02046280 0.00301243 
0.01569720 0.01903271 0.00318059 0.00220567 0.00863838 0.00172608 0.00952353 0.00358315 0.02175755 0.00472707 0.00980521 0.00065883 0.00843594 0.08908855 0.02130795 0.00299453 
0.01616056 0.01929096 0.00320778 0.00222713 0.00846285 0.00175040 0.00962314 0.00358539 0.02200517 0.00478411 0.00989622 0.00065940 0.00848887 0.09277917 0.02215298 0.00297441 
0.01661884 0.01954615 0.00323610 0.00224941 0.00828166 0.00177471 0.00971611 0.00358709 0.02226529 0.00484773 0.01000411 0.00066100 0.00853556 0.09644005 0.02299411 0.00295215 
0.01706977 0.01979783 0.00326535 0.00227241 0.00809568 0.00179894 0.00980193 0.00358823 0.02253696 0.00491742 0.01012915 0.00066363 0.00857603 0.10005583 0.02382762 0.00292785 
0.01751109 0.02004561 0.00329533 0.00229604 0.00790578 0.00182305 0.00988010 0.00358878 0.02281914 0.00499262 0.01027154 0.00066729 0.00861033 0.10361142 0.02464983 0.00290164 
0.01794055 0.02028912 0.00332586 0.00232019 0.00771287 0.00184698 0.00995018 0.00358871 0.02311073 0.00507276 0.01043138 0.00067200 0.00863852 0.10709209 0.02545714 0.00287363 
0.01835594 0.02052807 0.00335673 0.00234476 0.00751785 0.00187069 0.01001174 0.00358802 0.02341058 0.00515723 0.01060867 0.00067773 0.00866069 0.11048353 0.02624602 0.00284397 
0.01875510 0.02076222 0.00338774 0.00236961 0.00732163 0.00189412 0.01006441 0.00358668 0.02371746 0.00524542 0.01080330 0.00068449 0.00867696 0.11377193 0.02701308 0.00281282 
0.01913592 0.02099137 0.00341868 0.00239465 0.00712510 0.00191724 0.01010784 0.00358468 0.02403012 0.00533667 0.01101508 0.00069226 0.00868746 0.11694404 0.02775505 0.00278032 
0.01949635 0.02121540 0.00344935 0.00241975 0.00692916 0.00193999 0.01014174 0.00358203 0.02434725 0.00543034 0.01124372 0.00070103 0.00869234 0.11998726 0.02846877 0.00274664 
0.01983443 0.02143422 0.00347955 0.00244478 0.00673470 0.00196235 0.01016584 0.00357874 0.02466751 0.00552576 0.01148882 0.00071078 0.00869178 0.12288965 0.02915129 0.00271197 
0.02014831 0.02164778 0.00350909 0.00246963 0.00654258 0.00198427 0.01017994 0.00357480 0.02498952 0.00562227 0.01174988 0.00072147 0.00868598 0.12564007 0.02979981 0.00267646 
0.02043620 0.02185608 0.00353778 0.00249417 0.00635363 0.00200572 0.01018385 0.00357024 0.02531189 0.00571920 0.01202631 0.00073310 0.00867515 0.12822814 0.03041171 0.00264032 
0.02069647 0.02205919 0.00356543 0.00251828 0.00616868 0.00202667 0.01017746 0.00356509 0.02563321 0.00581589 0.01231742 0.00074561 0.00865952 0.13064438 0.03098460 0.00260371 
0.02092757 0.02225717 0.00359187 0.00254184 0.00598849 0.00204709 0.01016068 0.00355938 0.02595205 0.00591170 0.01262241 0.00075899 0.00863936 0.13288018 0.03151628 0.00256683 
0.02112812 0.02245015 0.00361694 0.00256473 0.00581381 0.00206694 0.01013348 0.00355316 0.02626698 0.00600598 0.01294041 0.00077320 0.00861492 0.13492790 0.03200479 0.00252986 
0.02129685 0.02263828 0.00364049 0.00258684 0.00564533 0.00208622 0.01009587 0.00354647 0.02657660 0.00609813 0.01327046 0.00078819 0.00858650 0.13678087 0.03244841 0.00249299 
0.02143265 0.02282173 0.00366238 0.00260805 0.00548371 0.00210488 0.01004791 0.00353938 0.02687949 0.00618756 0.01361149 0.00080392 0.00855439 0.13843342 0.03284566 0.00245638 
0.02153457 0.02300071 0.00368247 0.00262825 0.00532953 0.00212292 0.00998969 0.00353194 0.02717427 0.00627369 0.01396237 0.00082035 0.00851892 0.13988093 0.03319531 0.00242024 
0.02160182 0.02317543 0.00370065 0.00264735 0.00518336 0.00214032 0.00992136 0.00352425 0.02745957 0.00635600 0.01432190 0.00083743 0.00848041 0.14111982 0.03349639 0.00238472 
0.02163377 0.02334613 0.00371683 0.00266525 0.00504568 0.00215706 0.00984311 0.00351638 0.02773409 0.00643397 0.01468879 0.00085510 0.00843919 0.14214758 0.03374819 0.00234999 
0.02162995 0.02351303 0.00373092 0.00268185 0.00491692 0.00217313 0.00975517 0.00350842 0.02799653 0.00650715 0.01506171 0.00087333 0.00839564 0.14296274 0.03395026 0.00231623 
0.02159008 0.02367638 0.00374285 0.00269708 0.00479744 0.00218851 0.00965780 0.00350048 0.02824567 0.00657511 0.01543925 0.00089205 0.00835009 0.14356495 0.03410242 0.00228358 
0.02151405 0.02383643 0.00375258 0.00271086 0.00468756 0.00220319 0.00955133 0.00349266 0.02848034 0.00663747 0.01581998 0.00091122 0.00830293 0.14395486 0.03420475 0.00225219 
0.02140192 0.02399341 0.00376007 0.00272312 0.00458752 0.00221718 0.00943610 0.00348507 0.02869944 0.00669388 0.01620239 0.00093076 0.00825452 0.14413422 0.03425761 0.00222220 
0.02125392 0.02414755 0.00376530 0.00273379 0.00449748 0.00223045 0.00931249 0.00347784 0.02890195 0.00674406 0.01658498 0.00095063 0.00820525 0.14410578 0.03426158 0.00219375 
0.02107047 0.02429907 0.00376827 0.00274284 0.00441756 0.00224301 0.00918093 0.00347110 0.02908690 0.00678776 0.01696618 0.00097076 0.00815549 0.14387328 0.03421752 0.00216696 
0.02085216 0.02444816 0.00376901 0.00275022 0.00434781 0.00225484 0.00904186 0.00346496 0.02925344 0.00682478 0.01734443 0.00099110 0.00810564 0.14344146 0.03412654 0.00214193 
0.02059974 0.02459501 0.00376754 0.00275589 0.00428818 0.00226595 0.00889578 0.00345958 0.02940079 0.00685497 0.01771816 0.00101158 0.00805607 0.14281598 0.03398996 0.00211878 
0.02031413 0.02473977 0.00376393 0.00275982 0.00423861 0.00227634 0.00874318 0.00345508 0.02952830 0.00687825 0.01808578 0.00103214 0.00800718 0.14200338 0.03380936 0.00209760 
0.01999641 0.02488257 0.00375823 0.00276202 0.00419893 0.00228600 0.00858461 0.00345161 0.02963539 0.00689456 0.01844574 0.00105272 0.00795932 0.14101106 0.03358650 0.00207846 
0.01964784 0.02502352 0.00375054 0.00276246 0.00416893 0.00229493 0.00842062 0.00344931 0.02972161 0.00690390 0.01879646 0.00107327 0.00791289 0.13984720 0.03332337 0.00206146 
0.01926978 0.02516268 0.00374096 0.00276115 0.00414833 0.00230313 0.00825180 0.00344833 0.02978661 0.00690633 0.01913644 0.00109371 0.00786825 0.13852071 0.03302214 0.00204664 
0.01886377 0.02530009 0.00372959 0.00275811 0.00413680 0.00231060 0.00807873 0.00344882 0.02983019 0.00690195 0.01946417 0.00111399 0.00782575 0.13704117 0.03268515 0.00203406 
0.01843148 0.02543575 0.00371658 0.00275336 0.00413395 0.00231735 0.00790203 0.00345090 0.02985224 0.00689090 0.01977820 0.00113405 0.00778575 0.13541877 0.03231490 0.00202378 
0.01797469 0.02556965 0.00370206 0.00274692 0.00413934 0.00232337 0.00772233 0.00345474 0.02985279 0.00687337 0.02007713 0.00115383 0.00774859 0.13366423 0.03191404 0.00201582 
0.01749529 0.02570170 0.00368619 0.00273884 0.00415249 0.00232867 0.00754025 0.00346046 0.02983200 0.00684959 0.02035963 0.00117327 0.00771458 0.13178873 0.03148534 0.00201021 
0.01699531 0.02583183 0.00366913 0.00272917 0.00417287 0.00233324 0.00735643 0.00346820 0.02979016 0.00681985 0.02062441 0.00119232 0.00768405 0.12980385 0.03103165 0.00200698 
0.01647683 0.02595988 0.00365106 0.00271796 0.00419989 0.00233710 0.00717151 0.00347810 0.02972769 0.00678446 0.02087027 0.00121091 0.00765727 0.12772146 0.03055595 0.00200613 
0.01594203 0.02608569 0.00363217 0.00270527 0.00423295 0.00234024 0.00698615 0.00349027 0.02964513 0.00674375 0.02109609 0.00122900 0.00763454 0.12555369 0.03006124 0.00200766 
0.01539318 0.02620906 0.00361264 0.00269118 0.00427142 0.00234267 0.00680098 0.00350483 0.02954318 0.00669812 0.02130084 0.00124653 0.00761611 0.12331280 0.02955061 0.00201157 
0.01483257 0.02632976 0.00359266 0.00267576 0.00431463 0.00234438 0.00661663 0.00352189 0.02942263 0.00664798 0.02148358 0.00126345 0.00760221 0.12101116 0.02902713 0.00201786 
0.01426258 0.02644754 0.00357246 0.00265909 0.00436188 0.00234540 0.00643374 0.00354155 0.02928443 0.00659375 0.02164346 0.00127972 0.00759308 0.11866110 0.02849392 0.00202650 
0.01368559 0.02656209 0.00355222 0.00264127 0.00441249 0.00234571 0.00625292 0.00356391 0.02912964 0.00653589 0.02177974 0.00129530 0.00758889 0.11627490 0.02795406 0.00203746 
0.01310401 0.02667311 0.00353215 0.00262238 0.00446573 0.00234532 0.00607478 0.00358903 0.02895945 0.00647488 0.02189180 0.00131013 0.00758984 0.11386466 0.02741059 0.00205073 
0.01252027 0.02678027 0.00351247 0.00260252 0.00452088 0.00234424 0.00589992 0.00361699 0.02877516 0.00641121 0.02197910 0.00132418 0.00759606 0.11144228 0.02686653 0.00206627 
0.01193678 0.02688322 0.00349337 0.00258180 0.00457721 0.00234247 0.00572890 0.00364785 0.02857817 0.00634538 0.02204126 0.00133742 0.00760769 0.10901934 0.02632481 0.00208403 
0.01135595 0.02698159 0.00347506 0.00256032 0.00463403 0.00234002 0.00556228 0.00368165 0.02837000 0.00627789 0.02207797 0.00134981 0.00762482 0.10660704 0.02578825 0.00210399 
0.01078014 0.02707499 0.00345775 0.00253819 0.00469060 0.00233689 0.00540059 0.00371843 0.02815227 0.00620926 0.02208906 0.00136132 0.00764754 0.10421617 0.02525959 0.00212609 
0.01021169 0.02716305 0.00344161 0.00251551 0.00474624 0.00233310 0.00524435 0.00375819 0.02792668 0.00614000 0.02207449 0.00137192 0.00767588 0.10185698 0.02474144 0.00215028 
0.00965288 0.02724538 0.00342685 0.00249240 0.00480028 0.00232864 0.00509403 0.00380093 0.02769501 0.00607060 0.02203433 0.00138159 0.00770989 0.09953920 0.02423627 0.00217652 
0.00910591 0.02732158 0.00341363 0.00246896 0.00485206 0.00232353 0.00495009 0.00384666 0.02745912 0.00600156 0.02196877 0.00139032 0.00774954 0.09727194 0.02374639 0.00220475 
0.00857293 0.02739127 0.00340214 0.00244530 0.00490095 0.00231777 0.00481295 0.00389534 0.02722093 0.00593337 0.02187811 0.00139808 0.00779483 0.09506365 0.02327396 0.00223492 
0.00805599 0.02745406 0.00339252 0.00242155 0.00494638 0.00231137 0.00468301 0.00394694 0.02698240 0.00586649 0.02176278 0.00140486 0.00784569 0.09292207 0.02282094 0.00226697 
0.00755705 0.02750959 0.00338493 0.00239779 0.00498778 0.00230436 0.00456063 0.00400138 0.02674556 0.00580137 0.02162331 0.00141066 0.00790204 0.09085422 0.02238912 0.00230083 
0.00707795 0.02755751 0.00337951 0.00237414 0.00502463 0.00229672 0.00444615 0.00405862 0.02651243 0.00573844 0.02146038 0.00141547 0.00796379 0.08886633 0.02198007 0.00233646 
0.00662043 0.02759747 0.00337637 0.00235071 0.00505647 0.00228849 0.00433985 0.00411855 0.02628508 0.00567809 0.02127472 0.00141929 0.00803079 0.08696386 0.02159518 0.00237378 
0.00618611 0.02762917 0.00337563 0.00232759 0.00508288 0.00227967 0.00424200 0.00418109 0.02606557 0.00562071 0.02106721 0.00142213 0.00810290 0.08515142 0.02123562 0.00241274 
0.00577647 0.02765231 0.00337738 0.00230488 0.00510348 0.00227027 0.00415282 0.00424611 0.02585596 0.00556663 0.02083882 0.00142398 0.00817993 0.08343284 0.02090233 0.00245326 
0.00539285 0.02766664 0.00338170 0.00228266 0.00511795 0.00226032 0.00407250 0.00431350 0.02565827 0.00551616 0.02059060 0.00142487 0.00826168 0.08181106 0.02059604 0.00249529 
0.00503647 0.02767193 0.00338864 0.00226104 0.00512602 0.00224983 0.00400119 0.00438311 0.02547451 0.00546957 0.02032369 0.00142480 0.00834794 0.08028823 0.02031726 0.00253876 
0.00470839 0.02766796 0.00339827 0.00224010 0.00512748 0.00223882 0.00393900 0.00445479 0.02530664 0.00542712 0.02003933 0.00142380 0.00843844 0.07886566 0.02006630 0.00258359 
0.00440951 0.02765460 0.00341061 0.00221990 0.00512218 0.00222731 0.00388601 0.00452838 0.02515655 0.00538899 0.01973883 0.00142188 0.00853293 0.07754381 0.01984321 0.00262972 
0.00414060 0.02763170 0.00342566 0.00220053 0.00511002 0.00221532 0.00384226 0.00460370 0.02502606 0.00535535 0.01942355 0.00141908 0.00863112 0.07632236 0.01964785 0.00267707 
0.00390224 0.02759919 0.00344344 0.00218205 0.00509096 0.00220288 0.00380776 0.00468057 0.02491692 0.00532633 0.01909492 0.00141542 0.00873270 0.07520023 0.01947989 0.00272558 
0.00369489 0.02755702 0.00346392 0.00216452 0.00506504 0.00219000 0.00378247 0.00475881 0.02483075 0.00530200 0.01875445 0.00141094 0.00883734 0.07417556 0.01933874 0.00277516 
0.00351881 0.02750518 0.00348706 0.00214799 0.00503232 0.00217671 0.00376631 0.00483820 0.02476911 0.00528242 0.01840365 0.00140567 0.00894471 0.07324577 0.01922368 0.00282575 
0.00337415 0.02744371 0.00351282 0.00213251 0.00499295 0.00216305 0.00375919 0.00491854 0.02473341 0.00526759 0.01804411 0.00139966 0.00905446 0.07240763 0.01913375 0.00287725 
0.00326087 0.02737269 0.00354112 0.00211813 0.00494713 0.00214904 0.00376097 0.00499962 0.02472491 0.00525747 0.01767741 0.00139293 0.00916621 0.07165723 0.01906785 0.00292958 
0.00317878 0.02729224 0.00357189 0.00210488 0.00489510 0.00213470 0.00377147 0.00508123 0.02474478 0.00525200 0.01730519 0.00138555 0.00927958 0.07099012 0.01902470 0.00298267 
0.00312755 0.02720251 0.00360503 0.00209277 0.00483718 0.00212008 0.00379049 0.00516313 0.02479400 0.00525105 0.01692906 0.00137755 0.00939418 0.07040128 0.01900286 0.00303641 
0.00310668 0.02710371 0.00364042 0.00208185 0.00477373 0.00210520 0.00381779 0.00524512 0.02487340 0.00525450 0.01655067 0.00136899 0.00950961 0.06988521 0.01900077 0.00309073 
0.00311555 0.02699608 0.00367796 0.00207211 0.00470515 0.00209009 0.00385310 0.00532696 0.02498366 0.00526215 0.01617165 0.00135992 0.00962547 0.06943598 0.01901674 0.00314552 
0.00315338 0.02687988 0.00371750 0.00206356 0.00463190 0.00207480 0.00389614 0.00540843 0.02512527 0.00527380 0.01579362 0.00135039 0.00974133 0.06904731 0.01904896 0.00320069 
0.00321929 0.02675542 0.00375890 0.00205621 0.00455448 0.00205936 0.00394658 0.00548931 0.02529855 0.00528921 0.01541817 0.00134046 0.00985678 0.06871259 0.01909553 0.00325613 
0.00331222 0.02662306 0.00380200 0.00205005 0.00447343 0.00204380 0.00400406 0.00556938 0.02550363 0.00530811 0.01504688 0.00133018 0.00997140 0.06842500 0.01915450 0.00331174 
0.00343105 0.02648316 0.00384664 0.00204507 0.00438933 0.00202816 0.00406823 0.00564843 0.02574045 0.00533021 0.01468127 0.00131962 0.01008475 0.06817750 0.01922384 0.00336740 
0.00357451 0.02633611 0.00389265 0.00204125 0.00430279 0.00201249 0.00413869 0.00572625 0.02600879 0.00535519 0.01432282 0.00130884 0.01019642 0.06796297 0.01930146 0.00342302 
0.00374123 0.02618235 0.00393985 0.00203856 0.00421445 0.00199681 0.00421501 0.00580263 0.02630820 0.00538273 0.01397298 0.00129789 0.01030599 0.06777422 0.01938527 0.00347846 
0.00392977 0.02602231 0.00398807 0.00203697 0.00412498 0.00198118 0.00429678 0.00587737 0.02663808 0.00541246 0.01363312 0.00128683 0.01041303 0.06760411 0.01947317 0.00353360 
0.00413857 0.02585647 0.00403711 0.00203645 0.00403506 0.00196563 0.00438355 0.00595028 0.02699760 0.00544402 0.01330455 0.00127573 0.01051714 0.06744552 0.01956307 0.00358833 
0.00436602 0.02568529 0.00408679 0.00203697 0.00394540 0.00195020 0.00447484 0.00602119 0.02738579 0.00547705 0.01298852 0.00126465 0.01061791 0.06729154 0.01965289 0.00364251 
0.00461044 0.02550928 0.00413691 0.00203847 0.00385671 0.00193494 0.00457018 0.00608993 0.02780146 0.00551116 0.01268617 0.00125365 0.01071494 0.06713540 0.01974061 0.00369602 
0.00487008 0.02532892 0.00418729 0.00204090 0.00376972 0.00191988 0.00466909 0.00615633 0.02824327 0.00554598 0.01239861 0.00124279 0.01080784 0.06697063 0.01982425 0.00374871 
0.00514316 0.02514473 0.00423775 0.00204421 0.00368515 0.00190508 0.00477107 0.00622026 0.02870969 0.00558111 0.01212681 0.00123212 0.01089624 0.06679106 0.01990194 0.00380045 
0.00542787 0.02495720 0.00428808 0.00204836 0.00360372 0.00189056 0.00487562 0.00628156 0.02919904 0.00561618 0.01187169 0.00122172 0.01097978 0.06659089 0.01997186 0.00385110 
0.00572235 0.02476684 0.00433812 0.00205327 0.00352615 0.00187637 0.00498223 0.00634012 0.02970949 0.00565081 0.01163406 0.00121163 0.01105810 0.06636473 0.02003231 0.00390051 
0.00602474 0.02457416 0.00438769 0.00205888 0.00345315 0.00186255 0.00509039 0.00639584 0.03023905 0.00568464 0.01141462 0.00120191 0.01113089 0.06610766 0.02008171 0.00394856 
0.00633320 0.02437963 0.00443661 0.00206513 0.00338540 0.00184915 0.00519959 0.00644860 0.03078561 0.00571732 0.01121399 0.00119261 0.01119783 0.06581527 0.02011860 0.00399508 
0.00664586 0.02418375 0.00448473 0.00207196 0.00332357 0.00183619 0.00530932 0.00649833 0.03134692 0.00574851 0.01103268 0.00118379 0.01125861 0.06548366 0.02014167 0.00403994 
0.00696088 0.02398698 0.00453188 0.00207929 0.00326831 0.00182372 0.00541907 0.00654497 0.03192065 0.00577789 0.01087110 0.00117550 0.01131298 0.06510952 0.02014975 0.00408300 
0.00727646 0.02378977 0.00457793 0.00208705 0.00322024 0.00181178 0.00552835 0.00658845 0.03250435 0.00580515 0.01072955 0.00116779 0.01136068 0.06469015 0.02014182 0.00412410 
0.00759082 0.02359256 0.00462273 0.00209518 0.00317992 0.00180040 0.00563665 0.00662872 0.03309548 0.00583003 0.01060823 0.00116070 0.01140147 0.06422346 0.02011706 0.00416311 
0.00790224 0.02339578 0.00466615 0.00210361 0.00314791 0.00178962 0.00574349 0.00666578 0.03369146 0.00585227 0.01050722 0.00115426 0.01143516 0.06370797 0.02007477 0.00419989 
0.00820905 0.02319981 0.00470809 0.00211225 0.00312472 0.00177947 0.00584839 0.00669959 0.03428964 0.00587164 0.01042653 0.00114854 0.01146157 0.06314290 0.02001448 0.00423430 
0.00850965 0.02300504 0.00474844 0.00212105 0.00311079 0.00176998 0.00595089 0.00673016 0.03488733 0.00588794 0.01036605 0.00114355 0.01148054 0.06252810 0.01993586 0.00426621 
0.00880249 0.02281182 0.00478710 0.00212994 0.00310654 0.00176119 0.00605053 0.00675750 0.03548182 0.00590101 0.01032555 0.00113933 0.01149193 0.06186407 0.01983879 0.00429548 
0.00908614 0.02262049 0.00482400 0.00213885 0.00311234 0.00175311 0.00614687 0.00678162 0.03607040 0.00591069 0.01030473 0.00113592 0.01149566 0.06115198 0.01972331 0.00432201 
0.00935921 0.02243136 0.00485906 0.00214770 0.00312849 0.00174578 0.00623950 0.00680258 0.03665035 0.00591688 0.01030320 0.00113333 0.01149164 0.06039364 0.01958964 0.00434566 
0.00962046 0.02224472 0.00489225 0.00215644 0.00315524 0.00173922 0.00632800 0.00682041 0.03721901 0.00591951 0.01032045 0.00113160 0.01147983 0.05959149 0.01943822 0.00436634 
0.00986869 0.02206085 0.00492350 0.00216501 0.00319280 0.00173345 0.00641200 0.00683516 0.03777374 0.00591852 0.01035591 0.00113073 0.01146021 0.05874859 0.01926962 0.00438393 
0.01010285 0.02188000 0.00495279 0.00217335 0.00324129 0.00172849 0.00649113 0.00684691 0.03831194 0.00591390 0.01040891 0.00113076 0.01143279 0.05786856 0.01908459 0.00439835 
0.01032199 0.02170240 0.00498011 0.00218139 0.00330079 0.00172436 0.00656504 0.00685572 0.03883112 0.00590566 0.01047870 0.00113168 0.01139760 0.05695561 0.01888407 0.00440951 
0.01052525 0.02152827 0.00500544 0.00218909 0.00337132 0.00172106 0.00663340 0.00686169 0.03932884 0.00589384 0.01056449 0.00113350 0.01135472 0.05601447 0.01866914 0.00441734 
0.01071193 0.02135783 0.00502879 0.00219640 0.00345283 0.00171861 0.00669593 0.00686490 0.03980279 0.00587853 0.01066537 0.00113624 0.01130423 0.05505033 0.01844103 0.00442178 
0.01088140 0.02119128 0.00505018 0.00220327 0.00354521 0.00171702 0.00675233 0.00686544 0.04025074 0.00585983 0.01078042 0.00113988 0.01124625 0.05406887 0.01820110 0.00442277 
0.01103318 0.02102880 0.00506963 0.00220966 0.00364828 0.00171629 0.00680237 0.00686341 0.04067063 0.00583786 0.01090861 0.00114443 0.01118094 0.05307613 0.01795086 0.00442028 
0.01116692 0.02087059 0.00508718 0.00221553 0.00376181 0.00171641 0.00684580 0.00685893 0.04106049 0.00581278 0.01104892 0.00114988 0.01110845 0.05207854 0.01769193 0.00441427 
0.01128237 0.02071683 0.00510286 0.00222085 0.00388550 0.00171739 0.00688243 0.00685209 0.04141853 0.00578476 0.01120023 0.00115620 0.01102900 0.05108281 0.01742601 0.00440474 
0.01137941 0.02056771 0.00511673 0.00222560 0.00401900 0.00171923 0.00691208 0.00684301 0.04174310 0.00575402 0.01136143 0.00116340 0.01094280 0.05009590 0.01715493 0.00439169 
0.01145805 0.02042343 0.00512885 0.00222973 0.00416188 0.00172190 0.00693461 0.00683181 0.04203274 0.00572077 0.01153134 0.00117144 0.01085010 0.04912497 0.01688057 0.00437513 
0.01151840 0.02028420 0.00513927 0.00223325 0.00431368 0.00172541 0.00694988 0.00681859 0.04228614 0.00568524 0.01170878 0.00118030 0.01075117 0.04817731 0.01660488 0.00435508 
0.01156070 0.02015023 0.00514807 0.00223612 0.00447386 0.00172972 0.00695780 0.00680347 0.04250218 0.00564770 0.01189255 0.00118996 0.01064629 0.04726031 0.01632986 0.00433160 
0.01158531 0.02002178 0.00515531 0.00223835 0.00464184 0.00173483 0.00695831 0.00678655 0.04267993 0.00560840 0.01208143 0.00120037 0.01053578 0.04638136 0.01605754 0.00430475 
0.01159267 0.01989909 0.00516107 0.00223992 0.00481698 0.00174070 0.00695135 0.00676796 0.04281864 0.00556762 0.01227421 0.00121152 0.01041997 0.04554779 0.01578996 0.00427458 
0.01158335 0.01978246 0.00516542 0.00224084 0.00499861 0.00174731 0.00693692 0.00674779 0.04291775 0.00552564 0.01246967 0.00122335 0.01029920 0.04476688 0.01552917 0.00424120 
0.01155801 0.01967221 0.00516844 0.00224112 0.00518600 0.00175463 0.00691503 0.00672616 0.04297691 0.00548276 0.01266660 0.00123583 0.01017383 0.04404570 0.01527720 0.00420471 
0.01151741 0.01956868 0.00517021 0.00224076 0.00537838 0.00176262 0.00688570 0.00670315 0.04299596 0.00543925 0.01286382 0.00124891 0.01004425 0.04339114 0.01503605 0.00416523 
0.01146239 0.01947227 0.00517078 0.00223977 0.00557496 0.00177125 0.00684902 0.00667888 0.04297491 0.00539542 0.01306015 0.00126254 0.00991084 0.04280979 0.01480767 0.00412288 
0.01139387 0.01938339 0.00517024 0.00223818 0.00577489 0.00178046 0.00680507 0.00665342 0.04291400 0.00535155 0.01325445 0.00127667 0.00977400 0.04230795 0.01459396 0.00407781 
0.01131285 0.01930252 0.00516864 0.00223601 0.00597731 0.00179023 0.00675396 0.00662687 0.04281362 0.00530791 0.01344561 0.00129125 0.00963414 0.04189148 0.01439673 0.00403019 
0.01122039 0.01923016 0.00516606 0.00223329 0.00618134 0.00180049 0.00669584 0.00659931 0.04267438 0.00526479 0.01363256 0.00130622 0.00949169 0.04156587 0.01421770 0.00398018 
0.01111763 0.01916686 0.00516253 0.00223005 0.00638606 0.00181119 0.00663087 0.00657082 0.04249703 0.00522245 0.01381427 0.00132152 0.00934707 0.04133610 0.01405851 0.00392798 
0.01100573 0.01911323 0.00515812 0.00222633 0.00659055 0.00182229 0.00655925 0.00654145 0.04228252 0.00518113 0.01398976 0.00133709 0.00920071 0.04120664 0.01392065 0.00387378 
0.01088591 0.01906992 0.00515286 0.00222217 0.00679388 0.00183372 0.00648118 0.00651129 0.04203196 0.00514108 0.01415810 0.00135288 0.00905306 0.04118139 0.01380551 0.00381778 
0.01075942 0.01903763 0.00514678 0.00221761 0.00699510 0.00184542 0.00639691 0.00648037 0.04174661 0.00510252 0.01431842 0.00136881 0.00890454 0.04126366 0.01371433 0.00376020 
0.01062756 0.01901710 0.00513991 0.00221270 0.00719328 0.00185733 0.00630670 0.00644877 0.04142788 0.00506565 0.01446991 0.00138482 0.00875560 0.04145614 0.01364821 0.00370128 
0.01049162 0.01900912 0.00513228 0.00220749 0.00738748 0.00186938 0.00621082 0.00641651 0.04107732 0.00503067 0.01461181 0.00140085 0.00860669 0.04176087 0.01360807 0.00364125 
0.01035290 0.01901453 0.00512387 0.00220203 0.00757676 0.00188151 0.00610956 0.00638365 0.04069661 0.00499772 0.01474345 0.00141683 0.00845822 0.04217919 0.01359471 0.00358035 
0.01021273 0.01903421 0.00511470 0.00219638 0.00776022 0.00189365 0.00600327 0.00635022 0.04028754 0.00496697 0.01486420 0.00143269 0.00831065 0.04271177 0.01360872 0.00351882 
0.01007241 0.01906909 0.00510475 0.00219059 0.00793696 0.00190572 0.00589225 0.00631624 0.03985202 0.00493853 0.01497352 0.00144838 0.00816439 0.04335856 0.01365052 0.00345693 
0.00993323 0.01912013 0.00509400 0.00218474 0.00810610 0.00191765 0.00577689 0.00628174 0.03939205 0.00491251 0.01507095 0.00146382 0.00801987 0.04411882 0.01372039 0.00339493 
0.00979648 0.01918833 0.00508242 0.00217886 0.00826681 0.00192938 0.00565753 0.00624675 0.03890970 0.00488897 0.01515607 0.00147896 0.00787752 0.04499106 0.01381838 0.00333307 
0.00966339 0.01927471 0.00506997 0.00217304 0.00841827 0.00194082 0.00553457 0.00621129 0.03840712 0.00486798 0.01522856 0.00149372 0.00773772 0.04597312 0.01394439 0.00327162 
0.00953518 0.01938033 0.00505660 0.00216733 0.00855972 0.00195191 0.00540840 0.00617535 0.03788654 0.00484957 0.01528816 0.00150805 0.00760089 0.04706210 0.01409812 0.00321084 
0.00941302 0.01950626 0.00504226 0.00216179 0.00869040 0.00196256 0.00527943 0.00613897 0.03735021 0.00483374 0.01533471 0.00152189 0.00746741 0.04825444 0.01427911 0.00315099 
0.00929803 0.01965360 0.00502689 0.00215648 0.00880965 0.00197272 0.00514810 0.00610215 0.03680041 0.00482049 0.01536808 0.00153518 0.00733766 0.04954590 0.01448670 0.00309232 
0.00919128 0.01982343 0.00501041 0.00215148 0.00891682 0.00198230 0.00501481 0.00606489 0.03623948 0.00480978 0.01538826 0.00154787 0.00721199 0.05093159 0.01472009 0.00303509 
0.00909377 0.02001687 0.00499275 0.00214683 0.00901133 0.00199123 0.00488003 0.00602721 0.03566975 0.00480155 0.01539527 0.00155991 0.00709077 0.05240600 0.01497828 0.00297953 
0.00900646 0.02023500 0.00497383 0.00214260 0.00909265 0.00199945 0.00474418 0.00598912 0.03509355 0.00479574 0.01538922 0.00157124 0.00697433 0.05396304 0.01526013 0.00292590 
0.00893021 0.02047890 0.00495357 0.00213885 0.00916032 0.00200690 0.00460772 0.00595063 0.03451319 0.00479225 0.01537030 0.00158183 0.00686298 0.05559608 0.01556435 0.00287441 
0.00886583 0.02074965 0.00493187 0.00213564 0.00921392 0.00201349 0.00447112 0.00591174 0.03393100 0.00479098 0.01533873 0.00159163 0.00675704 0.05729796 0.01588949 0.00282530 
0.00881405 0.02104826 0.00490865 0.00213301 0.00925311 0.00201918 0.00433481 0.00587248 0.03334924 0.00479179 0.01529484 0.00160061 0.00665680 0.05906109 0.01623398 0.00277877 
0.00877551 0.02137574 0.00488381 0.00213102 0.00927762 0.00202390 0.00419927 0.00583285 0.03277015 0.00479457 0.01523897 0.00160874 0.00656252 0.06087745 0.01659613 0.00273502 
0.00875080 0.02173304 0.00485727 0.00212971 0.00928725 0.00202760 0.00406496 0.00579288 0.03219591 0.00479916 0.01517156 0.00161599 0.00647447 0.06273863 0.01697413 0.00269424 
0.00874039 0.02212105 0.00482895 0.00212913 0.00928185 0.00203024 0.00393232 0.00575260 0.03162866 0.00480540 0.01509308 0.00162233 0.00639288 0.06463596 0.01736608 0.00265660 
0.00874469 0.02254061 0.00479875 0.00212933 0.00926137 0.00203175 0.00380181 0.00571203 0.03107047 0.00481314 0.01500406 0.00162776 0.00631797 0.06656049 0.01777000 0.00262226 
0.00876401 0.02299248 0.00476660 0.00213033 0.00922580 0.00203211 0.00367387 0.00567121 0.03052332 0.00482220 0.01490506 0.00163226 0.00624994 0.06850307 0.01818382 0.00259136 
0.00879860 0.02347735 0.00473243 0.00213218 0.00917523 0.00203128 0.00354896 0.00563019 0.02998915 0.00483241 0.01479672 0.00163582 0.00618897 0.07045443 0.01860544 0.00256402 
0.00884861 0.02399582 0.00469617 0.00213489 0.00910981 0.00202922 0.00342749 0.00558900 0.02946978 0.00484361 0.01467967 0.00163845 0.00613523 0.07240520 0.01903268 0.00254036 
0.00891409 0.02454838 0.00465777 0.00213850 0.00902976 0.00202592 0.00330990 0.00554770 0.02896696 0.00485563 0.01455461 0.00164014 0.00608886 0.07434602 0.01946337 0.00252046 
0.00899505 0.02513545 0.00461719 0.00214301 0.00893537 0.00202134 0.00319660 0.00550636 0.02848234 0.00486829 0.01442227 0.00164093 0.00604997 0.07626756 0.01989531 0.00250439 
0.00909138 0.02575731 0.00457439 0.00214844 0.00882702 0.00201549 0.00308798 0.00546504 0.02801748 0.00488143 0.01428338 0.00164081 0.00601867 0.07816059 0.02032630 0.00249221 
0.00920292 0.02641413 0.00452935 0.00215481 0.00870512 0.00200835 0.00298442 0.00542382 0.02757383 0.00489490 0.01413872 0.00163981 0.00599504 0.08001605 0.02075416 0.00248394 
0.00932943 0.02710598 0.00448208 0.00216211 0.00857019 0.00199993 0.00288631 0.00538279 0.02715274 0.00490855 0.01398907 0.00163797 0.00597915 0.08182510 0.02117673 0.00247961 
0.00947059 0.02783278 0.00443258 0.00217034 0.00842277 0.00199023 0.00279398 0.00534203 0.02675545 0.00492226 0.01383524 0.00163531 0.00597102 0.08357917 0.02159192 0.00247919 
0.00962601 0.02859432 0.00438089 0.00217949 0.00826351 0.00197928 0.00270778 0.00530164 0.02638310 0.00493589 0.01367802 0.00163188 0.00597068 0.08527002 0.02199765 0.00248267 
0.00979525 0.02939026 0.00432705 0.00218954 0.00809308 0.00196708 0.00262801 0.00526173 0.02603671 0.00494933 0.01351823 0.00162773 0.00597813 0.08688981 0.02239196 0.00248999 
0.00997780 0.03022012 0.00427113 0.00220048 0.00791222 0.00195368 0.00255497 0.00522242 0.02571719 0.00496251 0.01335669 0.00162290 0.00599334 0.08843109 0.02277295 0.00250108 
0.01017311 0.03108327 0.00421321 0.00221229 0.00772172 0.00193911 0.00248893 0.00518381 0.02542536 0.00497534 0.01319421 0.00161744 0.00601626 0.08988692 0.02313882 0.00251587 
0.01038054 0.03197894 0.00415340 0.00222493 0.00752243 0.00192342 0.00243013 0.00514604 0.02516190 0.00498776 0.01303158 0.00161144 0.00604684 0.09125087 0.02348785 0.00253423 
0.01059945 0.03290622 0.00409183 0.00223836 0.00731522 0.00190665 0.00237880 0.00510923 0.02492738 0.00499973 0.01286959 0.00160493 0.00608499 0.09251703 0.02381847 0.00255605 
0.01082913 0.03386404 0.00402864 0.00225254 0.00710103 0.00188886 0.00233513 0.00507352 0.02472229 0.00501124 0.01270902 0.00159801 0.00613059 0.09368012 0.02412921 0.00258117 
0.01106884 0.03485120 0.00396401 0.00226744 0.00688080 0.00187013 0.00229929 0.00503905 0.02454698 0.00502228 0.01255062 0.00159073 0.00618352 0.09473544 0.02441875 0.00260943 
0.01131779 0.03586634 0.00389813 0.00228300 0.00665554 0.00185052 0.00227142 0.00500595 0.02440170 0.00503288 0.01239513 0.00158317 0.00624365 0.09567894 0.02468589 0.00264066 
0.01157521 0.03690798 0.00383121 0.00229915 0.00642625 0.00183012 0.00225164 0.00497438 0.02428660 0.00504308 0.01224325 0.00157542 0.00631079 0.09650725 0.02492957 0.00267465 
0.01184025 0.03797448 0.00376349 0.00231585 0.00619398 0.00180901 0.00224002 0.00494448 0.02420172 0.00505293 0.01209566 0.00156756 0.00638476 0.09721763 0.02514890 0.00271119 
0.01211208 0.03906408 0.00369521 0.00233304 0.00595977 0.00178728 0.00223662 0.00491639 0.02414698 0.00506253 0.01195301 0.00155967 0.00646537 0.09780807 0.02534313 0.00275006 
0.01238984 0.04017489 0.00362667 0.00235063 0.00572470 0.00176503 0.00224147 0.00489025 0.02412223 0.00507196 0.01181590 0.00155183 0.00655238 0.09827722 0.02551165 0.00279101 
0.01267267 0.04130490 0.00355814 0.00236857 0.00548982 0.00174236 0.00225456 0.00486620 0.02412720 0.00508135 0.01168491 0.00154413 0.00664557 0.09862443 0.02565403 0.00283380 
0.01295970 0.04245198 0.00348995 0.00238678 0.00525620 0.00171938 0.00227584 0.00484438 0.02416153 0.00509084 0.01156058 0.00153666 0.00674466 0.09884973 0.02576999 0.00287816 
0.01325006 0.04361389 0.00342243 0.00240518 0.00502491 0.00169621 0.00230525 0.00482493 0.02422475 0.00510057 0.01144340 0.00152950 0.00684939 0.09895384 0.02585938 0.00292381 
0.01354290 0.04478829 0.00335593 0.00242369 0.00479699 0.00167296 0.00234268 0.00480797 0.02431633 0.00511073 0.01133383 0.00152274 0.00695947 0.09893814 0.02592222 0.00297048 
0.01383735 0.04597275 0.00329080 0.00244224 0.00457348 0.00164975 0.00238800 0.00479361 0.02443561 0.00512148 0.01123227 0.00151647 0.00707460 0.09880466 0.02595870 0.00301788 
0.01413257 0.04716477 0.00322744 0.00246074 0.00435538 0.00162671 0.00244105 0.00478196 0.02458189 0.00513304 0.01113910 0.00151076 0.00719445 0.09855604 0.02596911 0.00306572 
0.01442774 0.04836176 0.00316621 0.00247911 0.00414368 0.00160395 0.00250163 0.00477314 0.02475434 0.00514560 0.01105463 0.00150571 0.00731871 0.09819554 0.02595392 0.00311370 
0.01472205 0.04956108 0.00310753 0.00249726 0.00393933 0.00158160 0.00256952 0.00476721 0.02495209 0.00515939 0.01097913 0.00150137 0.00744704 0.09772699 0.02591371 0.00316153 
0.01501471 0.05076004 0.00305179 0.00251512 0.00374325 0.00155980 0.00264446 0.00476426 0.02517418 0.00517461 0.01091284 0.00149784 0.00757907 0.09715475 0.02584920 0.00320891 
0.01530495 0.05195591 0.00299942 0.00253260 0.00355630 0.00153867 0.00272617 0.00476434 0.02541956 0.00519151 0.01085592 0.00149518 0.00771445 0.09648369 0.02576121 0.00325554 
0.01559204 0.05314594 0.00295082 0.00254961 0.00337931 0.00151833 0.00281433 0.00476751 0.02568715 0.00521031 0.01080853 0.00149346 0.00785281 0.09571914 0.02565071 0.00330114 
0.01587526 0.05432735 0.00290642 0.00256608 0.00321305 0.00149892 0.00290861 0.00477380 0.02597578 0.00523125 0.01077074 0.00149274 0.00799378 0.09486687 0.02551873 0.00334542 
0.01615395 0.05549737 0.00286663 0.00258193 0.00305825 0.00148056 0.00300865 0.00478321 0.02628422 0.00525454 0.01074260 0.00149307 0.00813697 0.09393302 0.02536642 0.00338809 
0.01642746 0.05665323 0.00283186 0.00259707 0.00291555 0.00146337 0.00311404 0.00479574 0.02661120 0.00528043 0.01072411 0.00149450 0.00828201 0.09292407 0.02519502 0.00342890 
0.01669516 0.05779220 0.00280253 0.00261143 0.00278557 0.00144747 0.00322439 0.00481136 0.02695539 0.00530912 0.01071523 0.00149709 0.00842850 0.09184679 0.02500583 0.00346757 
0.01695648 0.05891157 0.00277903 0.00262495 0.00266883 0.00143298 0.00333925 0.00483004 0.02731543 0.00534082 0.01071587 0.00150086 0.00857605 0.09070821 0.02480021 0.00350386 
0.01721089 0.06000868 0.00276176 0.00263755 0.00256579 0.00142002 0.00345818 0.00485171 0.02768989 0.00537574 0.01072590 0.00150586 0.00872428 0.08951555 0.02457960 0.00353754 
0.01745786 0.06108093 0.00275109 0.00264916 0.00247685 0.00140868 0.00358071 0.00487629 0.02807733 0.00541406 0.01074517 0.00151209 0.00887279 0.08827619 0.02434545 0.00356839 
0.01769692 0.06212578 0.00274737 0.00265972 0.00240233 0.00139907 0.00370635 0.00490367 0.02847629 0.00545594 0.01077348 0.00151958 0.00902121 0.08699759 0.02409929 0.00359621 
0.01792764 0.06314078 0.00275096 0.00266918 0.00234248 0.00139129 0.00383460 0.00493372 0.02888526 0.00550154 0.01081059 0.00152835 0.00916914 0.08568730 0.02384263 0.00362080 
0.01814961 0.06412358 0.00276218 0.00267749 0.00229747 0.00138542 0.00396494 0.00496631 0.02930275 0.00555099 0.01085624 0.00153838 0.00931622 0.08435287 0.02357701 0.00364202 
0.01836247 0.06507191 0.00278131 0.00268459 0.00226739 0.00138155 0.00409688 0.00500126 0.02972723 0.00560440 0.01091013 0.00154968 0.00946208 0.08300180 0.02330398 0.00365971 
0.01856589 0.06598362 0.00280865 0.00269044 0.00225226 0.00137974 0.00422986 0.00503839 0.03015717 0.00566185 0.01097194 0.00156223 0.00960636 0.08164153 0.02302509 0.00367376 
0.01875955 0.06685670 0.00284443 0.00269501 0.00225201 0.00138008 0.00436338 0.00507749 0.03059107 0.00572340 0.01104133 0.00157600 0.00974870 0.08027937 0.02274187 0.00368407 
0.01894321 0.06768924 0.00288887 0.00269826 0.00226651 0.00138260 0.00449689 0.00511834 0.03102742 0.00578908 0.01111792 0.00159098 0.00988876 0.07892249 0.02245580 0.00369056 
0.01911662 0.06847949 0.00294216 0.00270017 0.00229556 0.00138737 0.00462987 0.00516069 0.03146473 0.00585890 0.01120134 0.00160712 0.01002623 0.07757784 0.02216838 0.00369319 
0.01927959 0.06922583 0.00300444 0.00270072 0.00233885 0.00139442 0.00476178 0.00520429 0.03190153 0.00593282 0.01129118 0.00162437 0.01016078 0.07625213 0.02188103 0.00369193 
0.01943195 0.06992681 0.00307583 0.00269988 0.00239603 0.00140378 0.00489212 0.00524884 0.03233640 0.00601080 0.01138702 0.00164270 0.01029212 0.07495183 0.02159515 0.00368679 
0.01957354 0.07058111 0.00315641 0.00269766 0.00246667 0.00141547 0.00502037 0.00529407 0.03276794 0.00609273 0.01148844 0.00166203 0.01041996 0.07368309 0.02131206 0.00367780 
0.01970427 0.07118760 0.00324623 0.00269405 0.00255026 0.00142950 0.00514602 0.00533967 0.03319481 0.00617849 0.01159501 0.00168230 0.01054405 0.07245174 0.02103305 0.00366500 
0.01982405 0.07174530 0.00334527 0.00268905 0.00264624 0.00144587 0.00526860 0.00538532 0.03361571 0.00626793 0.01170627 0.00170344 0.01066412 0.07126324 0.02075933 0.00364849 
0.01993281 0.07225340 0.00345351 0.00268267 0.00275398 0.00146457 0.00538764 0.00543069 0.03402941 0.00636086 0.01182180 0.00172537 0.01077995 0.07012270 0.02049204 0.00362836 
0.02003052 0.07271128 0.00357086 0.00267493 0.00287278 0.00148557 0.00550269 0.00547545 0.03443473 0.00645705 0.01194116 0.00174801 0.01089133 0.06903483 0.02023225 0.00360476 
0.02011718 0.07311847 0.00369719 0.00266585 0.00300190 0.00150885 0.00561332 0.00551925 0.03483057 0.00655624 0.01206389 0.00177127 0.01099807 0.06800390 0.01998095 0.00357785 
0.02019279 0.07347468 0.00383235 0.00265544 0.00314054 0.00153436 0.00571913 0.00556176 0.03521592 0.00665815 0.01218958 0.00179506 0.01110001 0.06703380 0.01973906 0.00354781 
0.02025740 0.07377983 0.00397612 0.00264375 0.00328786 0.00156206 0.00581974 0.00560262 0.03558983 0.00676245 0.01231780 0.00181927 0.01119698 0.06612795 0.01950742 0.00351484 
0.02031106 0.07403396 0.00412826 0.00263081 0.00344297 0.00159189 0.00591481 0.00564149 0.03595145 0.00686879 0.01244812 0.00184381 0.01128888 0.06528934 0.01928676 0.00347917 
0.02035384 0.07423733 0.00428847 0.00261666 0.00360494 0.00162376 0.00600402 0.00567803 0.03630001 0.00697679 0.01258015 0.00186856 0.01137560 0.06452051 0.01907776 0.00344106 
0.02038585 0.07439034 0.00445641 0.00260135 0.00377282 0.00165762 0.00608708 0.00571189 0.03663485 0.00708604 0.01271351 0.00189344 0.01145706 0.06382355 0.01888098 0.00340078 
0.02040721 0.07449359 0.00463171 0.00258492 0.00394563 0.00169336 0.00616374 0.00574274 0.03695540 0.00719610 0.01284780 0.00191831 0.01153319 0.06320009 0.01869692 0.00335861 
0.02041805 0.07454782 0.00481396 0.00256743 0.00412235 0.00173089 0.00623379 0.00577027 0.03726118 0.00730650 0.01298269 0.00194308 0.01160398 0.06265133 0.01852598 0.00331485 
0.02041852 0.07455395 0.00500270 0.00254894 0.00430197 0.00177011 0.00629706 0.00579417 0.03755184 0.00741677 0.01311783 0.00196763 0.01166941 0.06217802 0.01836850 0.00326984 
0.02040880 0.07451302 0.00519744 0.00252952 0.00448344 0.00181090 0.00635339 0.00581414 0.03782709 0.00752640 0.01325291 0.00199185 0.01172949 0.06178048 0.01822469 0.00322389 
0.02038909 0.07442628 0.00539766 0.00250921 0.00466575 0.00185316 0.00640269 0.00582991 0.03808679 0.00763487 0.01338762 0.00201563 0.01178427 0.06145861 0.01809473 0.00317736 
0.02035958 0.07429507 0.00560279 0.00248810 0.00484784 0.00189675 0.00644490 0.00584122 0.03833088 0.00774164 0.01352169 0.00203886 0.01183379 0.06121188 0.01797870 0.00313057 
0.02032051 0.07412091 0.00581224 0.00246625 0.00502869 0.00194155 0.00647999 0.00584785 0.03855939 0.00784616 0.01365488 0.00206143 0.01187816 0.06103938 0.01787658 0.00308390 
0.02027211 0.07390541 0.00602540 0.00244373 0.00520728 0.00198742 0.00650798 0.00584958 0.03877248 0.00794788 0.01378695 0.00208324 0.01191746 0.06093983 0.01778832 0.00303769 
0.02021466 0.07365034 0.00624161 0.00242062 0.00538263 0.00203423 0.00652893 0.00584624 0.03897039 0.00804623 0.01391769 0.00210418 0.01195183 0.06091157 0.01771376 0.00299230 
0.02014843 0.07335757 0.00646020 0.00239698 0.00555374 0.00208183 0.00654294 0.00583768 0.03915346 0.00814066 0.01404693 0.00212416 0.01198141 0.06095259 0.01765271 0.00294807 
0.02007372 0.07302907 0.00668049 0.00237290 0.00571968 0.00213008 0.00655014 0.00582378 0.03932210 0.00823060 0.01417449 0.00214307 0.01200638 0.06106056 0.01760487 0.00290536 
0.01999084 0.07266693 0.00690176 0.00234845 0.00587954 0.00217884 0.00655072 0.00580445 0.03947684 0.00831550 0.01430026 0.00216084 0.01202691 0.06123286 0.01756992 0.00286451 
0.01990013 0.07227329 0.00712329 0.00232371 0.00603246 0.00222796 0.00654489 0.00577964 0.03961826 0.00839480 0.01442409 0.00217737 0.01204322 0.06146657 0.01754745 0.00282583 
0.01980193 0.07185042 0.00734434 0.00229874 0.00617759 0.00227728 0.00653289 0.00574934 0.03974703 0.00846799 0.01454592 0.00219257 0.01205554 0.06175851 0.01753704 0.00278964 
0.01969662 0.07140061 0.00756417 0.00227363 0.00631418 0.00232667 0.00651501 0.00571358 0.03986388 0.00853453 0.01466565 0.00220639 0.01206409 0.06210528 0.01753817 0.00275625 
0.01958458 0.07092624 0.00778203 0.00224844 0.00644150 0.00237598 0.00649158 0.00567242 0.03996960 0.00859393 0.01478324 0.00221875 0.01206914 0.06250324 0.01755031 0.00272591 
0.01946622 0.07042973 0.00799716 0.00222326 0.00655888 0.00242506 0.00646294 0.00562597 0.04006503 0.00864572 0.01489866 0.00222959 0.01207095 0.06294858 0.01757287 0.00269890 
0.01934196 0.06991354 0.00820882 0.00219815 0.00666573 0.00247378 0.00642947 0.00557437 0.04015106 0.00868945 0.01501187 0.00223885 0.01206980 0.06343731 0.01760523 0.00267544 
0.01921225 0.06938016 0.00841626 0.00217318 0.00676151 0.00252199 0.00639159 0.00551782 0.04022861 0.00872472 0.01512289 0.00224649 0.01206599 0.06396532 0.01764673 0.00265573 
0.01907755 0.06883208 0.00861876 0.00214842 0.00684574 0.00256957 0.00634972 0.00545654 0.04029862 0.00875114 0.01523172 0.00225247 0.01205981 0.06452837 0.01769670 0.00263996 
0.01893833 0.06827181 0.00881558 0.00212394 0.00691803 0.00261638 0.00630432 0.00539081 0.04036205 0.00876838 0.01533839 0.00225675 0.01205157 0.06512210 0.01775441 0.00262828 
0.01879509 0.06770187 0.00900602 0.00209979 0.00697805 0.00266230 0.00625588 0.00532095 0.04041987 0.00877613 0.01544294 0.00225931 0.01204159 0.06574213 0.01781913 0.00262079 
0.01864834 0.06712475 0.00918941 0.00207604 0.00702556 0.00270720 0.00620487 0.00524731 0.04047305 0.00877413 0.01554541 0.00226014 0.01203017 0.06638399 0.01789012 0.00261758 
0.01849861 0.06654291 0.00936506 0.00205274 0.00706037 0.00275099 0.00615181 0.00517030 0.04052253 0.00876220 0.01564585 0.00225923 0.01201762 0.06704321 0.01796660 0.00261870 
0.01834645 0.06595878 0.00953235 0.00202995 0.00708239 0.00279355 0.00609722 0.00509034 0.04056926 0.00874015 0.01574433 0.00225657 0.01200428 0.06771531 0.01804779 0.00262416 
0.01819240 0.06537475 0.00969067 0.00200771 0.00709160 0.00283479 0.00604163 0.00500794 0.04061413 0.00870790 0.01584092 0.00225218 0.01199044 0.06839583 0.01813291 0.00263395 
0.01803705 0.06479314 0.00983944 0.00198609 0.00708805 0.00287461 0.00598555 0.00492359 0.04065801 0.00866538 0.01593566 0.00224606 0.01197641 0.06908035 0.01822116 0.00264799 
0.01788098 0.06421624 0.00997813 0.00196512 0.00707187 0.00291294 0.00592954 0.00483786 0.04070172 0.00861260 0.01602865 0.00223824 0.01196249 0.06976451 0.01831175 0.00266620 
0.01772478 0.06364622 0.01010621 0.00194485 0.00704329 0.00294970 0.00587412 0.00475132 0.04074601 0.00854962 0.01611994 0.00222875 0.01194895 0.07044405 0.01840391 0.00268845 
0.01756905 0.06308519 0.01022324 0.00192531 0.00700257 0.00298482 0.00581981 0.00466460 0.04079158 0.00847656 0.01620960 0.00221763 0.01193609 0.07111477 0.01849683 0.00271457 
0.01741441 0.06253517 0.01032879 0.00190654 0.00695008 0.00301825 0.00576715 0.00457834 0.04083907 0.00839361 0.01629769 0.00220492 0.01192414 0.07177263 0.01858975 0.00274435 
0.01726147 0.06199808 0.01042248 0.00188857 0.00688625 0.00304994 0.00571663 0.00449322 0.04088901 0.00830098 0.01638426 0.00219067 0.01191336 0.07241371 0.01868191 0.00277756 
0.01711086 0.06147570 0.01050398 0.00187143 0.00681158 0.00307986 0.00566876 0.00440993 0.04094189 0.00819898 0.01646938 0.00217494 0.01190396 0.07303425 0.01877255 0.00281394 
0.01696320 0.06096975 0.01057301 0.00185516 0.00672662 0.00310796 0.00562402 0.00432917 0.04099809 0.00808797 0.01655307 0.00215780 0.01189614 0.07363064 0.01886097 0.00285318 
0.01681910 0.06048178 0.01062931 0.00183976 0.00663202 0.00313423 0.00558286 0.00425169 0.04105788 0.00796835 0.01663538 0.00213930 0.01189007 0.07419949 0.01894645 0.00289495 
0.01667919 0.06001323 0.01067272 0.00182527 0.00652844 0.00315866 0.00554573 0.00417822 0.04112148 0.00784060 0.01671633 0.00211953 0.01188590 0.07473757 0.01902831 0.00293891 
0.01654409 0.05956541 0.01070309 0.00181170 0.00641665 0.00318124 0.00551305 0.00410951 0.04118898 0.00770523 0.01679592 0.00209856 0.01188373 0.07524188 0.01910591 0.00298468 
0.01641439 0.05913948 0.01072033 0.00179906 0.00629742 0.00320199 0.00548520 0.00404631 0.04126037 0.00756283 0.01687417 0.00207648 0.01188367 0.07570965 0.01917862 0.00303186 
0.01629070 0.05873645 0.01072441 0.00178738 0.00617159 0.00322090 0.00546254 0.00398938 0.04133556 0.00741402 0.01695106 0.00205337 0.01188576 0.07613835 0.01924586 0.00308003 
0.01617360 0.05835721 0.01071534 0.00177665 0.00604005 0.00323800 0.00544541 0.00393945 0.04141435 0.00725947 0.01702656 0.00202932 0.01189002 0.07652567 0.01930709 0.00312876 
0.01606364 0.05800247 0.01069320 0.00176689 0.00590372 0.00325332 0.00543410 0.00389726 0.04149643 0.00709991 0.01710065 0.00200443 0.01189644 0.07686957 0.01936180 0.00317762 
0.01596139 0.05767281 0.01065809 0.00175810 0.00576354 0.00326689 0.00542888 0.00386354 0.04158142 0.00693610 0.01717327 0.00197879 0.01190496 0.07716830 0.01940953 0.00322615 
0.01586736 0.05736864 0.01061019 0.00175028 0.00562048 0.00327876 0.00542998 0.00383898 0.04166881 0.00676884 0.01724437 0.00195250 0.01191549 0.07742033 0.01944985 0.00327390 
0.01578205 0.05709022 0.01054970 0.00174345 0.00547554 0.00328898 0.00543759 0.00382426 0.04175803 0.00659897 0.01731386 0.00192565 0.01192790 0.07762445 0.01948240 0.00332042 
0.01570595 0.05683766 0.01047689 0.00173759 0.00532974 0.00329759 0.00545188 0.00382002 0.04184841 0.00642734 0.01738168 0.00189834 0.01194203 0.07777972 0.01950685 0.00336528 
0.01563948 0.05661093 0.01039206 0.00173271 0.00518408 0.00330466 0.00547295 0.00382688 0.04193920 0.00625486 0.01744771 0.00187068 0.01195767 0.07788548 0.01952296 0.00340802 
0.01558307 0.05640981 0.01029556 0.00172880 0.00503960 0.00331025 0.00550089 0.00384541 0.04202957 0.00608242 0.01751185 0.00184276 0.01197458 0.07794138 0.01953050 0.00344824 
0.01553708 0.05623397 0.01018779 0.00172586 0.00489731 0.00331444 0.00553574 0.00387613 0.04211863 0.00591095 0.01757399 0.00181467 0.01199247 0.07794734 0.01952932 0.00348552 
0.01550186 0.05608293 0.01006918 0.00172389 0.00475822 0.00331728 0.00557752 0.00391952 0.04220543 0.00574140 0.01763401 0.00178652 0.01201103 0.07790361 0.01951933 0.00351948 
0.01547769 0.05595605 0.00994020 0.00172287 0.00462333 0.00331887 0.00562618 0.00397601 0.04228897 0.00557469 0.01769177 0.00175840 0.01202991 0.07781069 0.01950050 0.00354976 
0.01546484 0.05585258 0.00980134 0.00172280 0.00449361 0.00331928 0.00568166 0.00404598 0.04236818 0.00541178 0.01774714 0.00173040 0.01204872 0.07766940 0.01947287 0.00357605 
0.01546351 0.05577162 0.00965315 0.00172367 0.00437003 0.00331858 0.00574384 0.00412972 0.04244198 0.00525359 0.01779998 0.00170260 0.01206704 0.07748086 0.01943652 0.00359804 
0.01547387 0.05571217 0.00949620 0.00172547 0.00425349 0.00331686 0.00581259 0.00422748 0.04250926 0.00510105 0.01785014 0.00167510 0.01208441 0.07724645 0.01939162 0.00361549 
0.01549602 0.05567310 0.00933108 0.00172820 0.00414489 0.00331421 0.00588773 0.00433943 0.04256890 0.00495507 0.01789748 0.00164798 0.01210038 0.07696786 0.01933840 0.00362817 
0.01553004 0.05565317 0.00915840 0.00173184 0.00404506 0.00331070 0.00596905 0.00446568 0.04261975 0.00481653 0.01794185 0.00162131 0.01211443 0.07664703 0.01927716 0.00363593 
0.01557593 0.05565108 0.00897881 0.00173638 0.00395481 0.00330643 0.00605630 0.00460625 0.04266069 0.00468629 0.01798312 0.00159517 0.01212604 0.07628620 0.01920824 0.00363865 
0.01563366 0.05566540 0.00879295 0.00174181 0.00387488 0.00330147 0.00614920 0.00476109 0.04269059 0.00456516 0.01802116 0.00156962 0.01213469 0.07588783 0.01913208 0.00363625 
0.01570313 0.05569464 0.00860151 0.00174812 0.00380596 0.00329591 0.00624747 0.00493007 0.04270838 0.00445394 0.01805583 0.00154474 0.01213981 0.07545468 0.01904917 0.00362873 
0.01578420 0.05573726 0.00840517 0.00175530 0.00374869 0.00328983 0.00635076 0.00511298 0.04271300 0.00435337 0.01808701 0.00152057 0.01214084 0.07498970 0.01896007 0.00361612 
0.01587667 0.05579165 0.00820462 0.00176333 0.00370363 0.00328330 0.00645873 0.00530954 0.04270343 0.00426413 0.01811461 0.00149718 0.01213723 0.07449611 0.01886539 0.00359853 
0.01598029 0.05585615 0.00800056 0.00177220 0.00367129 0.00327641 0.00657098 0.00551936 0.04267873 0.00418687 0.01813851 0.00147462 0.01212841 0.07397733 0.01876582 0.00357611 
0.01609475 0.05592909 0.00779368 0.00178191 0.00365211 0.00326922 0.00668713 0.00574198 0.04263800 0.00412217 0.01815865 0.00145292 0.01211381 0.07343696 0.01866210 0.00354909 
0.01621969 0.05600876 0.00758470 0.00179243 0.00364644 0.00326180 0.00680676 0.00597688 0.04258044 0.00407054 0.01817495 0.00143212 0.01209288 0.07287880 0.01855502 0.00351773 
0.01635470 0.05609348 0.00737431 0.00180376 0.00365458 0.00325423 0.00692943 0.00622342 0.04250532 0.00403246 0.01818738 0.00141225 0.01206508 0.07230682 0.01844542 0.00348239 
0.01649932 0.05618153 0.00716319 0.00181588 0.00367674 0.00324657 0.00705469 0.00648091 0.04241200 0.00400830 0.01819591 0.00139335 0.01202990 0.07172514 0.01833422 0.00344346 
0.01665304 0.05627124 0.00695204 0.00182878 0.00371305 0.00323887 0.00718209 0.00674857 0.04229996 0.00399837 0.01820054 0.00137543 0.01198683 0.07113799 0.01822235 0.00340140 
0.01681529 0.05636097 0.00674153 0.00184245 0.00376357 0.00323119 0.00731115 0.00702553 0.04216876 0.00400293 0.01820128 0.00135850 0.01193540 0.07054972 0.01811080 0.00335672 
0.01698548 0.05644912 0.00653231 0.00185687 0.00382828 0.00322357 0.00744139 0.00731088 0.04201810 0.00402213 0.01819819 0.00134258 0.01187519 0.06996477 0.01800059 0.00331001 
0.01716296 0.05653414 0.00632503 0.00187204 0.00390708 0.00321607 0.00757234 0.00760362 0.04184778 0.00405606 0.01819134 0.00132767 0.01180580 0.06938763 0.01789277 0.00326189 
0.01734704 0.05661455 0.00612031 0.00188793 0.00399979 0.00320873 0.00770350 0.00790269 0.04165775 0.00410474 0.01818081 0.00131376 0.01172687 0.06882285 0.01778842 0.00321303 
0.01753700 0.05668896 0.00591875 0.00190454 0.00410616 0.00320157 0.00783440 0.00820696 0.04144808 0.00416808 0.01816675 0.00130086 0.01163810 0.06827499 0.01768863 0.00316417 
0.01773206 0.05675606 0.00572093 0.00192185 0.00422585 0.00319463 0.00796455 0.00851527 0.04121895 0.00424593 0.01814930 0.00128895 0.01153922 0.06774859 0.01759451 0.00311607 
0.01793145 0.05681464 0.00552741 0.00193986 0.00435845 0.00318793 0.00809348 0.00882639 0.04097071 0.00433807 0.01812864 0.00127802 0.01143006 0.06724818 0.01750717 0.00306954 
0.01813433 0.05686361 0.00533872 0.00195854 0.00450347 0.00318150 0.00822070 0.00913905 0.04070384 0.00444418 0.01810499 0.00126805 0.01131046 0.06677821 0.01742773 0.00302544 
0.01833986 0.05690198 0.00515536 0.00197789 0.00466037 0.00317534 0.00834575 0.00945196 0.04041895 0.00456387 0.01807857 0.00125902 0.01118034 0.06634307 0.01735729 0.00298463 
0.01854717 0.05692891 0.00497780 0.00199790 0.00482853 0.00316946 0.00846818 0.00976378 0.04011678 0.00469668 0.01804967 0.00125089 0.01103970 0.06594701 0.01729693 0.00294802 
0.01875537 0.05694368 0.00480648 0.00201854 0.00500725 0.00316388 0.00858755 0.01007317 0.03979823 0.00484205 0.01801856 0.00124365 0.01088858 0.06559418 0.01724772 0.00291653 
0.01896356 0.05694571 0.00464182 0.00203981 0.00519579 0.00315858 0.00870342 0.01037875 0.03946432 0.00499938 0.01798557 0.00123725 0.01072712 0.06528855 0.01721069 0.00289109 
0.01917083 0.05693456 0.00448420 0.00206169 0.00539334 0.00315356 0.00881539 0.01067917 0.03911620 0.00516799 0.01795104 0.00123168 0.01055551 0.06503389 0.01718684 0.00287264 
0.01937627 0.05690996 0.00433396 0.00208418 0.00559905 0.00314881 0.00892305 0.01097305 0.03875514 0.00534713 0.01791533 0.00122688 0.01037402 0.06483380 0.01717711 0.00286213 
0.01957895 0.05687178 0.00419141 0.00210726 0.00581201 0.00314432 0.00902603 0.01125904 0.03838255 0.00553598 0.01787882 0.00122282 0.01018299 0.06469160 0.01718239 0.00286049 
0.01977795 0.05682005 0.00405685 0.00213092 0.00603126 0.00314007 0.00912397 0.01153581 0.03799993 0.00573369 0.01784192 0.00121946 0.00998283 0.06461038 0.01720351 0.00286864 
0.01997237 0.05675494 0.00393050 0.00215514 0.00625581 0.00313603 0.00921654 0.01180206 0.03760891 0.00593934 0.01780504 0.00121676 0.00977403 0.06459293 0.01724122 0.00288749 
0.02016131 0.05667679 0.00381259 0.00217992 0.00648464 0.00313218 0.00930341 0.01205651 0.03721120 0.00615195 0.01776862 0.00121469 0.00955715 0.06464175 0.01729622 0.00291791 
0.02034387 0.05658611 0.00370329 0.00220523 0.00671669 0.00312848 0.00938430 0.01229796 0.03680861 0.00637053 0.01773310 0.00121319 0.00933280 0.06475900 0.01736909 0.00296075 
0.02051920 0.05648353 0.00360275 0.00223108 0.00695088 0.00312491 0.00945895 0.01252523 0.03640303 0.00659404 0.01769892 0.00121223 0.00910170 0.06494652 0.01746035 0.00301682 
0.02068644 0.05636985 0.00351108 0.00225744 0.00718612 0.00312142 0.00952710 0.01273724 0.03599642 0.00682139 0.01766655 0.00121177 0.00886459 0.06520576 0.01757041 0.00308686 
0.02084478 0.05624600 0.00342836 0.00228431 0.00742130 0.00311797 0.00958855 0.01293295 0.03559079 0.00705150 0.01763643 0.00121177 0.00862230 0.06553783 0.01769957 0.00317157 
0.02099341 0.05611308 0.00335464 0.00231168 0.00765530 0.00311454 0.00964312 0.01311143 0.03518821 0.00728325 0.01760902 0.00121218 0.00837571 0.06594340 0.01784803 0.00327161 
0.02113160 0.05597228 0.00328994 0.00233952 0.00788702 0.00311107 0.00969063 0.01327181 0.03479077 0.00751552 0.01758476 0.00121298 0.00812574 0.06642278 0.01801590 0.00338755 
0.02125861 0.05582495 0.00323423 0.00236784 0.00811534 0.00310751 0.00973095 0.01341334 0.03440059 0.00774718 0.01756408 0.00121412 0.00787337 0.06697585 0.01820313 0.00351990 
0.02137376 0.05567252 0.00318749 0.00239661 0.00833917 0.00310384 0.00976399 0.01353537 0.03401980 0.00797710 0.01754742 0.00121557 0.00761964 0.06760207 0.01840959 0.00366907 
0.02147641 0.05551656 0.00314962 0.00242584 0.00855743 0.00309999 0.00978968 0.01363734 0.03365052 0.00820418 0.01753516 0.00121730 0.00736560 0.06830047 0.01863502 0.00383542 
0.02156596 0.05535872 0.00312055 0.00245549 0.00876907 0.00309593 0.00980795 0.01371883 0.03329486 0.00842730 0.01752769 0.00121927 0.00711235 0.06906967 0.01887901 0.00401920 
0.02164188 0.05520073 0.00310013 0.00248557 0.00897305 0.00309161 0.00981881 0.01377952 0.03295490 0.00864540 0.01752537 0.00122146 0.00686100 0.06990783 0.01914106 0.00422059 
0.02170366 0.05504440 0.00308822 0.00251607 0.00916840 0.00308698 0.00982225 0.01381924 0.03263266 0.00885742 0.01752852 0.00122384 0.00661271 0.07081270 0.01942054 0.00443965 
0.02175085 0.05489160 0.00308464 0.00254696 0.00935414 0.00308201 0.00981833 0.01383792 0.03233012 0.00906236 0.01753745 0.00122638 0.00636861 0.07178162 0.01971667 0.00467636 
0.02178307 0.05474425 0.00308920 0.00257823 0.00952938 0.00307665 0.00980712 0.01383565 0.03204917 0.00925924 0.01755241 0.00122907 0.00612987 0.07281148 0.02002859 0.00493061 
0.02179997 0.05460429 0.00310168 0.00260989 0.00969326 0.00307086 0.00978872 0.01381263 0.03179164 0.00944714 0.01757362 0.00123188 0.00589765 0.07389879 0.02035528 0.00520216 
0.02180129 0.05447368 0.00312184 0.00264190 0.00984498 0.00306461 0.00976326 0.01376920 0.03155924 0.00962519 0.01760127 0.00123480 0.00567310 0.07503966 0.02069564 0.00549068 
0.02178680 0.05435442 0.00314942 0.00267425 0.00998378 0.00305786 0.00973090 0.01370586 0.03135359 0.00979258 0.01763549 0.00123781 0.00545735 0.07622982 0.02104842 0.00579576 
0.02175633 0.05424845 0.00318416 0.00270694 0.01010899 0.00305057 0.00969183 0.01362322 0.03117618 0.00994856 0.01767637 0.00124089 0.00525150 0.07746463 0.02141231 0.00611685 
0.02170979 0.05415772 0.00322576 0.00273994 0.01021999 0.00304273 0.00964625 0.01352202 0.03102838 0.01009244 0.01772396 0.00124405 0.00505665 0.07873912 0.02178585 0.00645332 
0.02164714 0.05408415 0.00327392 0.00277324 0.01031624 0.00303431 0.00959442 0.01340317 0.03091140 0.01022363 0.01777824 0.00124726 0.00487383 0.08004799 0.02216751 0.00680445 
0.02156839 0.05402958 0.00332833 0.00280683 0.01039725 0.00302529 0.00953661 0.01326766 0.03082632 0.01034158 0.01783916 0.00125052 0.00470404 0.08138565 0.02255569 0.00716939 
0.02147362 0.05399581 0.00338866 0.00284067 0.01046264 0.00301565 0.00947309 0.01311664 0.03077406 0.01044585 0.01790661 0.00125382 0.00454823 0.08274623 0.02294867 0.00754723 
0.02136298 0.05398455 0.00345457 0.00287476 0.01051208 0.00300538 0.00940421 0.01295138 0.03075535 0.01053605 0.01798042 0.00125717 0.00440729 0.08412363 0.02334470 0.00793695 
0.02123665 0.05399743 0.00352573 0.00290906 0.01054533 0.00299447 0.00933029 0.01277324 0.03077080 0.01061190 0.01806037 0.00126055 0.00428204 0.08551154 0.02374194 0.00833745 
0.02109491 0.05403596 0.00360178 0.00294356 0.01056223 0.00298293 0.00925169 0.01258371 0.03082079 0.01067319 0.01814620 0.00126397 0.00417326 0.08690347 0.02413851 0.00874753 
0.02093806 0.05410154 0.00368236 0.00297823 0.01056270 0.00297075 0.00916882 0.01238437 0.03090555 0.01071981 0.01823759 0.00126743 0.00408160 0.08829276 0.02453249 0.00916596 
0.02076648 0.05419547 0.00376711 0.00301304 0.01054674 0.00295795 0.00908207 0.01217690 0.03102511 0.01075172 0.01833415 0.00127092 0.00400769 0.08967267 0.02492194 0.00959139 
0.02058060 0.05431888 0.00385567 0.00304797 0.01051446 0.00294454 0.00899187 0.01196306 0.03117935 0.01076898 0.01843548 0.00127445 0.00395204 0.09103638 0.02530487 0.01002243 
0.02038090 0.05447277 0.00394768 0.00308297 0.01046601 0.00293053 0.00889866 0.01174468 0.03136791 0.01077172 0.01854109 0.00127802 0.00391508 0.09237701 0.02567933 0.01045764 
0.02016793 0.05465798 0.00404276 0.00311802 0.01040165 0.00291595 0.00880290 0.01152366 0.03159029 0.01076016 0.01865049 0.00128162 0.00389715 0.09368770 0.02604333 0.01089552 
0.01994225 0.05487518 0.00414055 0.00315307 0.01032171 0.00290083 0.00870506 0.01130195 0.03184579 0.01073463 0.01876310 0.00128527 0.00389848 0.09496161 0.02639492 0.01133453 
0.01970453 0.05512491 0.00424069 0.00318809 0.01022661 0.00288519 0.00860561 0.01108153 0.03213354 0.01069549 0.01887835 0.00128896 0.00391924 0.09619198 0.02673218 0.01177311 
0.01945544 0.05540748 0.00434281 0.00322302 0.01011684 0.00286909 0.00850507 0.01086443 0.03245247 0.01064322 0.01899559 0.00129269 0.00395946 0.09737216 0.02705322 0.01220966 
0.01919570 0.05572306 0.00444655 0.00325783 0.00999297 0.00285255 0.00840393 0.01065268 0.03280136 0.01057835 0.01911418 0.00129646 0.00401910 0.09849565 0.02735621 0.01264258 
0.01892610 0.05607163 0.00455155 0.00329246 0.00985563 0.00283562 0.00830269 0.01044832 0.03317883 0.01050149 0.01923341 0.00130027 0.00409800 0.09955614 0.02763938 0.01307025 
0.01864745 0.05645298 0.00465747 0.00332685 0.00970555 0.00281836 0.00820187 0.01025339 0.03358335 0.01041333 0.01935260 0.00130412 0.00419591 0.10054751 0.02790103 0.01349108 
0.01836060 0.05686672 0.00476397 0.00336095 0.00954349 0.00280081 0.00810199 0.01006989 0.03401321 0.01031458 0.01947100 0.00130800 0.00431248 0.10146394 0.02813957 0.01390345 
0.01806644 0.05731228 0.00487069 0.00339470 0.00937030 0.00278304 0.00800355 0.00989980 0.03446661 0.01020605 0.01958789 0.00131190 0.00444725 0.10229986 0.02835346 0.01430579 
0.01776589 0.05778888 0.00497732 0.00342802 0.00918689 0.00276509 0.00790706 0.00974505 0.03494158 0.01008857 0.01970252 0.00131583 0.00459968 0.10305005 0.02854132 0.01469656 
0.01745990 0.05829560 0.00508352 0.00346085 0.00899419 0.00274703 0.00781304 0.00960751 0.03543608 0.00996304 0.01981414 0.00131977 0.00476912 0.10370963 0.02870184 0.01507426 
0.01714946 0.05883132 0.00518898 0.00349312 0.00879323 0.00272893 0.00772197 0.00948896 0.03594793 0.00983037 0.01992203 0.00132372 0.00495485 0.10427409 0.02883386 0.01543741 
0.01683556 0.05939474 0.00529339 0.00352474 0.00858506 0.00271083 0.00763435 0.00939113 0.03647488 0.00969153 0.02002545 0.00132765 0.00515604 0.10473934 0.02893636 0.01578462 
0.01651924 0.05998440 0.00539646 0.00355563 0.00837076 0.00269281 0.00755065 0.00931562 0.03701462 0.00954750 0.02012368 0.00133157 0.00537180 0.10510173 0.02900842 0.01611455 
0.01620155 0.06059870 0.00549789 0.00358571 0.00815146 0.00267494 0.00747132 0.00926395 0.03756476 0.00939929 0.02021605 0.00133545 0.00560114 0.10535804 0.02904931 0.01642592 
0.01588354 0.06123585 0.00559741 0.00361488 0.00792833 0.00265726 0.00739681 0.00923749 0.03812286 0.00924791 0.02030189 0.00133929 0.00584302 0.10550554 0.02905842 0.01671755 
0.01556629 0.06189396 0.00569474 0.00364306 0.00770255 0.00263985 0.00732754 0.00923751 0.03868648 0.00909437 0.02038058 0.00134305 0.00609630 0.10554199 0.02903532 0.01698831 
0.01525089 0.06257096 0.00578963 0.00367014 0.00747531 0.00262277 0.00726391 0.00926513 0.03925313 0.00893970 0.02045152 0.00134673 0.00635982 0.10546565 0.02897971 0.01723719 
0.01493844 0.06326469 0.00588182 0.00369603 0.00724785 0.00260607 0.00720628 0.00932131 0.03982036 0.00878492 0.02051419 0.00135030 0.00663234 0.10527530 0.02889147 0.01746328 
0.01463002 0.06397286 0.00597107 0.00372062 0.00702137 0.00258980 0.00715500 0.00940687 0.04038570 0.00863101 0.02056808 0.00135374 0.00691258 0.10497024 0.02877064 0.01766573 
0.01432675 0.06469310 0.00605716 0.00374380 0.00679711 0.00257403 0.00711039 0.00952247 0.04094674 0.00847896 0.02061275 0.00135703 0.00719921 0.10455031 0.02861744 0.01784383 
0.01402972 0.06542293 0.00613987 0.00376547 0.00657629 0.00255879 0.00707274 0.00966859 0.04150110 0.00832971 0.02064785 0.00136015 0.00749089 0.10401587 0.02843221 0.01799697 
0.01374001 0.06615979 0.00621898 0.00378552 0.00636011 0.00254414 0.00704228 0.00984554 0.04204647 0.00818418 0.02067304 0.00136307 0.00778622 0.10336783 0.02821550 0.01812463 
0.01345872 0.06690109 0.00629431 0.00380384 0.00614977 0.00253011 0.00701924 0.01005346 0.04258061 0.00804323 0.02068809 0.00136577 0.00808382 0.10260761 0.02796798 0.01822643 
0.01318691 0.06764416 0.00636566 0.00382030 0.00594644 0.00251673 0.00700379 0.01029229 0.04310139 0.00790771 0.02069281 0.00136823 0.00838228 0.10173718 0.02769051 0.01830208 
0.01292563 0.06838631 0.00643285 0.00383481 0.00575128 0.00250404 0.00699607 0.01056182 0.04360676 0.00777839 0.02068712 0.00137041 0.00868018 0.10075900 0.02738407 0.01835142 
0.01267593 0.06912483 0.00649573 0.00384724 0.00556539 0.00249206 0.00699618 0.01086162 0.04409480 0.00765599 0.02067099 0.00137230 0.00897612 0.09967605 0.02704981 0.01837438 
0.01243881 0.06985699 0.00655414 0.00385748 0.00538984 0.00248080 0.00700418 0.01119112 0.04456371 0.00754118 0.02064447 0.00137388 0.00926871 0.09849180 0.02668900 0.01837103 
0.01221528 0.07058009 0.00660793 0.00386542 0.00522567 0.00247029 0.00702007 0.01154952 0.04501183 0.00743456 0.02060769 0.00137511 0.00955658 0.09721017 0.02630306 0.01834153 
0.01200628 0.07129143 0.00665697 0.00387095 0.00507386 0.00246051 0.00704384 0.01193587 0.04543766 0.00733666 0.02056087 0.00137599 0.00983838 0.09583557 0.02589352 0.01828615 
0.01181274 0.07198836 0.00670113 0.00387395 0.00493534 0.00245147 0.00707540 0.01234905 0.04583982 0.00724794 0.02050431 0.00137648 0.01011281 0.09437280 0.02546203 0.01820527 
0.01163556 0.07266828 0.00674031 0.00387434 0.00481097 0.00244317 0.00711465 0.01278776 0.04621715 0.00716881 0.02043838 0.00137658 0.01037860 0.09282709 0.02501035 0.01809938 
0.01147559 0.07332865 0.00677440 0.00387199 0.00470157 0.00243558 0.00716142 0.01325053 0.04656860 0.00709957 0.02036353 0.00137626 0.01063454 0.09120406 0.02454034 0.01796905 
0.01133364 0.07396701 0.00680331 0.00386683 0.00460787 0.00242868 0.00721552 0.01373574 0.04689334 0.00704046 0.02028031 0.00137551 0.01087947 0.08950965 0.02405393 0.01781495 
0.01121047 0.07458098 0.00682697 0.00385875 0.00453055 0.00242245 0.00727669 0.01424163 0.04719070 0.00699164 0.02018931 0.00137433 0.01111228 0.08775016 0.02355314 0.01763785 
0.01110681 0.07516829 0.00684531 0.00384767 0.00447020 0.00241684 0.00734465 0.01476629 0.04746019 0.00695321 0.02009122 0.00137270 0.01133195 0.08593216 0.02304006 0.01743858 
0.01102331 0.07572678 0.00685826 0.00383352 0.00442734 0.00241183 0.00741908 0.01530767 0.04770151 0.00692518 0.01998680 0.00137061 0.01153751 0.08406247 0.02251680 0.01721806 
0.01096059 0.07625442 0.00686579 0.00381622 0.00440241 0.00240737 0.00749960 0.01586361 0.04791452 0.00690746 0.01987685 0.00136807 0.01172809 0.08214816 0.02198554 0.01697730 
0.01091919 0.07674931 0.00686786 0.00379571 0.00439577 0.00240339 0.00758582 0.01643185 0.04809929 0.00689992 0.01976226 0.00136507 0.01190287 0.08019648 0.02144848 0.01671733 
0.01089960 0.07720970 0.00686446 0.00377195 0.00440770 0.00239985 0.00767728 0.01701002 0.04825605 0.00690234 0.01964396 0.00136162 0.01206114 0.07821482 0.02090784 0.01643928 
0.01090225 0.07763398 0.00685557 0.00374488 0.00443837 0.00239668 0.00777352 0.01759566 0.04838520 0.00691443 0.01952295 0.00135773 0.01220227 0.07621072 0.02036583 0.01614431 
0.01092750 0.07802072 0.00684120 0.00371448 0.00448789 0.00239382 0.00787403 0.01818627 0.04848732 0.00693584 0.01940025 0.00135340 0.01232571 0.07419178 0.01982466 0.01583363 
0.01097562 0.07836865 0.00682138 0.00368073 0.00455627 0.00239121 0.00797827 0.01877926 0.04856314 0.00696614 0.01927694 0.00134866 0.01243101 0.07216565 0.01928652 0.01550849 
0.01104684 0.07867667 0.00679613 0.00364362 0.00464343 0.00238876 0.00808569 0.01937202 0.04861354 0.00700483 0.01915411 0.00134352 0.01251783 0.07014000 0.01875358 0.01517017 
0.01114130 0.07894387 0.00676551 0.00360317 0.00474920 0.00238640 0.00819569 0.01996188 0.04863957 0.00705139 0.01903291 0.00133800 0.01258588 0.06812248 0.01822794 0.01481998 
0.01125905 0.07916952 0.00672957 0.00355938 0.00487334 0.00238407 0.00830767 0.02054620 0.04864237 0.00710520 0.01891449 0.00133214 0.01263501 0.06612066 0.01771167 0.01445923 
0.01140010 0.07935308 0.00668839 0.00351230 0.00501549 0.00238169 0.00842102 0.02112230 0.04862325 0.00716561 0.01879999 0.00132595 0.01266513 0.06414206 0.01720676 0.01408928 
0.01156433 0.07949420 0.00664207 0.00346197 0.00517523 0.00237917 0.00853509 0.02168754 0.04858361 0.00723195 0.01869059 0.00131948 0.01267627 0.06219403 0.01671515 0.01371145 
