0.00814254 0.00430359 0.00131583 0.00546994 0.00195233 0.00573538 0.00125472 0.00689720 0.00525632 0.00974329 0.00087832 0.00102415 0.00217400 0.00156679 0.00257710 0.00123625 
0.00871857 0.00429540 0.00131495 0.00548793 0.00172513 0.00551363 0.00124015 0.00704078 0.00553389 0.00895634 0.00085593 0.00099113 0.00216818 0.00155356 0.00247628 0.00123930 
0.00931716 0.00429411 0.00131468 0.00550922 0.00151451 0.00530867 0.00122839 0.00718717 0.00583089 0.00820494 0.00083503 0.00095952 0.00216680 0.00154261 0.00237862 0.00124300 
0.00993623 0.00429949 0.00131496 0.00553344 0.00132099 0.00512109 0.00121942 0.00733524 0.00614502 0.00749073 0.00081567 0.00092943 0.00216988 0.00153387 0.00228448 0.00124729 
0.01057356 0.00431128 0.00131573 0.00556020 0.00114499 0.00495144 0.00121317 0.00748382 0.00647387 0.00681515 0.00079786 0.00090096 0.00217738 0.00152722 0.00219421 0.00125211 
0.01122683 0.00432916 0.00131693 0.00558910 0.00098685 0.00480016 0.00120958 0.00763177 0.00681493 0.00617942 0.00078161 0.00087419 0.00218928 0.00152255 0.00210816 0.00125738 
0.01189359 0.00435280 0.00131847 0.00561973 0.00084683 0.00466761 0.00120859 0.00777793 0.00716563 0.00558454 0.00076695 0.00084921 0.00220550 0.00151974 0.00202662 0.00126302 
0.01257131 0.00438182 0.00132031 0.00565166 0.00072506 0.00455407 0.00121011 0.00792117 0.00752330 0.00503130 0.00075387 0.00082609 0.00222596 0.00151866 0.00194990 0.00126896 
0.01325738 0.00441582 0.00132236 0.00568448 0.00062162 0.00445974 0.00121405 0.00806037 0.00788528 0.00452027 0.00074238 0.00080489 0.00225054 0.00151916 0.00187825 0.00127512 
0.01394911 0.00445438 0.00132457 0.00571776 0.00053648 0.00438472 0.00122032 0.00819443 0.00824884 0.00405184 0.00073247 0.00078567 0.00227909 0.00152110 0.00181191 0.00128142 
0.01464376 0.00449707 0.00132687 0.00575106 0.00046953 0.00432905 0.00122882 0.00832229 0.00861127 0.00362616 0.00072413 0.00076846 0.00231147 0.00152433 0.00175109 0.00128778 
0.01533853 0.00454340 0.00132920 0.00578397 0.00042056 0.00429264 0.00123944 0.00844292 0.00896987 0.00324321 0.00071735 0.00075331 0.00234750 0.00152871 0.00169598 0.00129413 
0.01603060 0.00459291 0.00133150 0.00581606 0.00038929 0.00427538 0.00125206 0.00855535 0.00932197 0.00290277 0.00071210 0.00074023 0.00238697 0.00153407 0.00164674 0.00130039 
0.01671713 0.00464511 0.00133370 0.00584694 0.00037536 0.00427702 0.00126656 0.00865865 0.00966496 0.00260446 0.00070837 0.00072924 0.00242966 0.00154028 0.00160349 0.00130649 
0.01739528 0.00469949 0.00133576 0.00587619 0.00037833 0.00429727 0.00128282 0.00875197 0.00999628 0.00234769 0.00070613 0.00072034 0.00247535 0.00154717 0.00156633 0.00131234 
0.01806221 0.00475555 0.00133763 0.00590345 0.00039769 0.00433575 0.00130072 0.00883448 0.01031348 0.00213173 0.00070535 0.00071354 0.00252379 0.00155460 0.00153533 0.00131789 
0.01871512 0.00481279 0.00133925 0.00592833 0.00043286 0.00439200 0.00132012 0.00890547 0.01061421 0.00195570 0.00070599 0.00070881 0.00257470 0.00156243 0.00151054 0.00132306 
0.01935124 0.00487071 0.00134060 0.00595049 0.00048318 0.00446550 0.00134090 0.00896426 0.01089624 0.00181856 0.00070802 0.00070614 0.00262782 0.00157050 0.00149195 0.00132778 
0.01996784 0.00492879 0.00134163 0.00596959 0.00054795 0.00455564 0.00136293 0.00901026 0.01115749 0.00171915 0.00071141 0.00070549 0.00268285 0.00157870 0.00147956 0.00133201 
0.02056227 0.00498656 0.00134231 0.00598534 0.00062640 0.00466177 0.00138607 0.00904297 0.01139601 0.00165617 0.00071611 0.00070682 0.00273950 0.00158688 0.00147330 0.00133567 
0.02113196 0.00504353 0.00134262 0.00599745 0.00071772 0.00478315 0.00141020 0.00906197 0.01161003 0.00162823 0.00072208 0.00071009 0.00279747 0.00159493 0.00147311 0.00133871 
0.02167441 0.00509923 0.00134254 0.00600567 0.00082104 0.00491901 0.00143518 0.00906691 0.01179798 0.00163381 0.00072928 0.00071522 0.00285644 0.00160273 0.00147887 0.00134110 
0.02218725 0.00515322 0.00134205 0.00600975 0.00093547 0.00506851 0.00146089 0.00905753 0.01195845 0.00167134 0.00073766 0.00072216 0.00291609 0.00161018 0.00149045 0.00134278 
0.02266821 0.00520506 0.00134114 0.00600950 0.00106005 0.00523074 0.00148721 0.00903368 0.01209026 0.00173914 0.00074717 0.00073083 0.00297612 0.00161719 0.00150769 0.00134371 
0.02311515 0.00525435 0.00133982 0.00600475 0.00119383 0.00540478 0.00151401 0.00899526 0.01219242 0.00183548 0.00075777 0.00074115 0.00303619 0.00162366 0.00153039 0.00134387 
0.02352608 0.00530071 0.00133807 0.00599536 0.00133580 0.00558965 0.00154118 0.00894229 0.01226416 0.00195856 0.00076941 0.00075303 0.00309599 0.00162952 0.00155834 0.00134322 
0.02389913 0.00534377 0.00133593 0.00598121 0.00148496 0.00578431 0.00156860 0.00887487 0.01230497 0.00210657 0.00078203 0.00076638 0.00315521 0.00163470 0.00159131 0.00134175 
0.02423263 0.00538323 0.00133338 0.00596223 0.00164026 0.00598774 0.00159616 0.00879317 0.01231452 0.00227762 0.00079559 0.00078109 0.00321352 0.00163915 0.00162903 0.00133943 
0.02452504 0.00541877 0.00133047 0.00593836 0.00180067 0.00619883 0.00162375 0.00869748 0.01229274 0.00246983 0.00081004 0.00079705 0.00327062 0.00164282 0.00167121 0.00133626 
0.02477501 0.00545014 0.00132721 0.00590960 0.00196514 0.00641649 0.00165129 0.00858813 0.01223980 0.00268130 0.00082533 0.00081417 0.00332621 0.00164568 0.00171756 0.00133223 
0.02498137 0.00547713 0.00132362 0.00587596 0.00213264 0.00663959 0.00167866 0.00846556 0.01215610 0.00291012 0.00084140 0.00083231 0.00338000 0.00164770 0.00176774 0.00132734 
0.02514315 0.00549952 0.00131976 0.00583749 0.00230213 0.00686699 0.00170579 0.00833028 0.01204225 0.00315441 0.00085821 0.00085137 0.00343170 0.00164887 0.00182143 0.00132160 
0.02525956 0.00551718 0.00131565 0.00579427 0.00247259 0.00709755 0.00173259 0.00818287 0.01189911 0.00341227 0.00087569 0.00087121 0.00348104 0.00164918 0.00187826 0.00131503 
0.02533003 0.00552998 0.00131134 0.00574641 0.00264300 0.00733011 0.00175899 0.00802399 0.01172777 0.00368185 0.00089381 0.00089172 0.00352775 0.00164864 0.00193786 0.00130763 
0.02535416 0.00553785 0.00130687 0.00569405 0.00281238 0.00756352 0.00178491 0.00785436 0.01152953 0.00396134 0.00091251 0.00091276 0.00357160 0.00164726 0.00199987 0.00129944 
0.02533179 0.00554075 0.00130230 0.00563736 0.00297977 0.00779663 0.00181030 0.00767477 0.01130588 0.00424893 0.00093173 0.00093421 0.00361235 0.00164506 0.00206388 0.00129048 
0.02526295 0.00553869 0.00129767 0.00557653 0.00314423 0.00802831 0.00183510 0.00748604 0.01105853 0.00454290 0.00095144 0.00095594 0.00364978 0.00164206 0.00212951 0.00128079 
0.02514789 0.00553170 0.00129305 0.00551180 0.00330488 0.00825743 0.00185926 0.00728907 0.01078937 0.00484155 0.00097156 0.00097781 0.00368370 0.00163832 0.00219634 0.00127041 
0.02498706 0.00551985 0.00128850 0.00544340 0.00346085 0.00848290 0.00188274 0.00708480 0.01050048 0.00514326 0.00099206 0.00099971 0.00371393 0.00163387 0.00226398 0.00125938 
0.02478113 0.00550327 0.00128406 0.00537161 0.00361133 0.00870363 0.00190550 0.00687421 0.01019409 0.00544646 0.00101288 0.00102149 0.00374030 0.00162876 0.00233202 0.00124775 
0.02453097 0.00548210 0.00127980 0.00529672 0.00375553 0.00891857 0.00192751 0.00665830 0.00987257 0.00574964 0.00103398 0.00104305 0.00376267 0.00162304 0.00240005 0.00123557 
0.02423765 0.00545654 0.00127578 0.00521904 0.00389275 0.00912672 0.00194876 0.00643811 0.00953843 0.00605138 0.00105529 0.00106424 0.00378092 0.00161678 0.00246767 0.00122291 
0.02390245 0.00542680 0.00127205 0.00513890 0.00402229 0.00932709 0.00196922 0.00621471 0.00919430 0.00635033 0.00107678 0.00108497 0.00379494 0.00161004 0.00253448 0.00120981 
0.02352685 0.00539314 0.00126869 0.00505665 0.00414356 0.00951874 0.00198888 0.00598917 0.00884290 0.00664520 0.00109838 0.00110510 0.00380466 0.00160289 0.00260009 0.00119635 
0.02311251 0.00535584 0.00126575 0.00497265 0.00425597 0.00970078 0.00200775 0.00576259 0.00848704 0.00693480 0.00112005 0.00112453 0.00381002 0.00159539 0.00266413 0.00118259 
0.02266128 0.00531521 0.00126327 0.00488725 0.00435903 0.00987237 0.00202581 0.00553606 0.00812956 0.00721800 0.00114173 0.00114316 0.00381097 0.00158762 0.00272622 0.00116860 
0.02217519 0.00527160 0.00126133 0.00480085 0.00445229 0.01003273 0.00204309 0.00531066 0.00777338 0.00749377 0.00116339 0.00116088 0.00380750 0.00157964 0.00278601 0.00115445 
0.02165644 0.00522537 0.00125996 0.00471382 0.00453536 0.01018110 0.00205959 0.00508747 0.00742140 0.00776116 0.00118495 0.00117760 0.00379961 0.00157152 0.00284315 0.00114021 
0.02110739 0.00517690 0.00125922 0.00462654 0.00460793 0.01031682 0.00207533 0.00486757 0.00707657 0.00801930 0.00120639 0.00119323 0.00378734 0.00156335 0.00289732 0.00112595 
0.02053055 0.00512660 0.00125916 0.00453942 0.00466974 0.01043927 0.00209032 0.00465200 0.00674176 0.00826738 0.00122763 0.00120768 0.00377072 0.00155518 0.00294821 0.00111175 
0.01992857 0.00507488 0.00125981 0.00445282 0.00472059 0.01054790 0.00210460 0.00444178 0.00641985 0.00850472 0.00124865 0.00122090 0.00374984 0.00154709 0.00299555 0.00109768 
0.01930425 0.00502219 0.00126121 0.00436715 0.00476035 0.01064222 0.00211820 0.00423790 0.00611364 0.00873068 0.00126938 0.00123280 0.00372477 0.00153914 0.00303906 0.00108383 
0.01866048 0.00496897 0.00126339 0.00428277 0.00478896 0.01072181 0.00213113 0.00404131 0.00582585 0.00894472 0.00128977 0.00124334 0.00369564 0.00153139 0.00307851 0.00107024 
0.01800029 0.00491566 0.00126638 0.00420005 0.00480642 0.01078633 0.00214344 0.00385293 0.00555910 0.00914637 0.00130978 0.00125246 0.00366257 0.00152390 0.00311368 0.00105702 
0.01732678 0.00486273 0.00127020 0.00411935 0.00481279 0.01083549 0.00215515 0.00367362 0.00531589 0.00933525 0.00132936 0.00126013 0.00362570 0.00151672 0.00314437 0.00104421 
0.01664315 0.00481063 0.00127486 0.00404101 0.00480819 0.01086907 0.00216632 0.00350418 0.00509861 0.00951105 0.00134845 0.00126631 0.00358522 0.00150990 0.00317043 0.00103189 
0.01595267 0.00475981 0.00128038 0.00396537 0.00479282 0.01088696 0.00217697 0.00334539 0.00490948 0.00967352 0.00136702 0.00127098 0.00354129 0.00150348 0.00319172 0.00102013 
0.01525865 0.00471072 0.00128676 0.00389274 0.00476691 0.01088908 0.00218713 0.00319794 0.00475054 0.00982250 0.00138501 0.00127412 0.00349413 0.00149751 0.00320812 0.00100899 
0.01456446 0.00466380 0.00129399 0.00382340 0.00473077 0.01087543 0.00219686 0.00306247 0.00462366 0.00995789 0.00140239 0.00127573 0.00344394 0.00149202 0.00321956 0.00099853 
0.01387349 0.00461949 0.00130207 0.00375764 0.00468477 0.01084611 0.00220618 0.00293955 0.00453053 0.01007965 0.00141910 0.00127582 0.00339097 0.00148703 0.00322599 0.00098881 
0.01318915 0.00457819 0.00131098 0.00369570 0.00462933 0.01080124 0.00221514 0.00282970 0.00447260 0.01018782 0.00143510 0.00127439 0.00333545 0.00148257 0.00322738 0.00097987 
0.01251485 0.00454031 0.00132070 0.00363781 0.00456490 0.01074107 0.00222375 0.00273334 0.00445113 0.01028249 0.00145035 0.00127147 0.00327765 0.00147864 0.00322374 0.00097177 
0.01185398 0.00450621 0.00133120 0.00358416 0.00449200 0.01066587 0.00223207 0.00265085 0.00446713 0.01036382 0.00146481 0.00126709 0.00321782 0.00147526 0.00321511 0.00096455 
0.01120989 0.00447626 0.00134244 0.00353493 0.00441121 0.01057600 0.00224010 0.00258252 0.00452138 0.01043199 0.00147844 0.00126130 0.00315624 0.00147243 0.00320155 0.00095825 
0.01058592 0.00445079 0.00135439 0.00349026 0.00432313 0.01047187 0.00224789 0.00252857 0.00461442 0.01048729 0.00149121 0.00125412 0.00309320 0.00147014 0.00318315 0.00095290 
0.00998531 0.00443009 0.00136699 0.00345027 0.00422840 0.01035398 0.00225545 0.00248914 0.00474654 0.01053001 0.00150307 0.00124562 0.00302898 0.00146838 0.00316004 0.00094854 
0.00941126 0.00441444 0.00138019 0.00341504 0.00412772 0.01022286 0.00226280 0.00246431 0.00491778 0.01056051 0.00151401 0.00123587 0.00296388 0.00146713 0.00313236 0.00094517 
0.00886686 0.00440408 0.00139394 0.00338463 0.00402180 0.01007911 0.00226996 0.00245408 0.00512791 0.01057919 0.00152398 0.00122493 0.00289821 0.00146638 0.00310028 0.00094283 
0.00835511 0.00439922 0.00140818 0.00335907 0.00391138 0.00992339 0.00227693 0.00245836 0.00537647 0.01058649 0.00153297 0.00121287 0.00283225 0.00146608 0.00306401 0.00094152 
0.00787889 0.00440003 0.00142282 0.00333835 0.00379725 0.00975640 0.00228373 0.00247701 0.00566274 0.01058290 0.00154094 0.00119977 0.00276630 0.00146621 0.00302376 0.00094125 
0.00744095 0.00440664 0.00143780 0.00332242 0.00368020 0.00957888 0.00229034 0.00250980 0.00598574 0.01056892 0.00154788 0.00118573 0.00270068 0.00146672 0.00297978 0.00094201 
0.00704391 0.00441916 0.00145304 0.00331124 0.00356103 0.00939164 0.00229676 0.00255646 0.00634426 0.01054512 0.00155377 0.00117084 0.00263567 0.00146758 0.00293234 0.00094381 
0.00669022 0.00443765 0.00146846 0.00330469 0.00344058 0.00919551 0.00230299 0.00261662 0.00673685 0.01051206 0.00155860 0.00115518 0.00257156 0.00146872 0.00288172 0.00094662 
0.00638218 0.00446212 0.00148398 0.00330265 0.00331968 0.00899136 0.00230901 0.00268986 0.00716183 0.01047036 0.00156236 0.00113887 0.00250864 0.00147010 0.00282822 0.00095042 
0.00612189 0.00449256 0.00149951 0.00330498 0.00319918 0.00878008 0.00231479 0.00277570 0.00761731 0.01042065 0.00156503 0.00112199 0.00244719 0.00147165 0.00277217 0.00095521 
0.00591129 0.00452893 0.00151495 0.00331148 0.00307991 0.00856260 0.00232030 0.00287360 0.00810118 0.01036359 0.00156663 0.00110466 0.00238747 0.00147331 0.00271388 0.00096094 
0.00575209 0.00457112 0.00153022 0.00332194 0.00296271 0.00833986 0.00232552 0.00298295 0.00861115 0.01029984 0.00156714 0.00108699 0.00232976 0.00147503 0.00265371 0.00096757 
0.00564582 0.00461899 0.00154523 0.00333614 0.00284840 0.00811284 0.00233040 0.00310312 0.00914474 0.01023011 0.00156658 0.00106907 0.00227428 0.00147672 0.00259202 0.00097508 
0.00559377 0.00467240 0.00155989 0.00335381 0.00273782 0.00788250 0.00233490 0.00323339 0.00969930 0.01015509 0.00156496 0.00105101 0.00222128 0.00147833 0.00252915 0.00098341 
0.00559702 0.00473111 0.00157409 0.00337467 0.00263175 0.00764983 0.00233897 0.00337304 0.01027206 0.01007551 0.00156228 0.00103293 0.00217099 0.00147978 0.00246548 0.00099252 
0.00565642 0.00479491 0.00158776 0.00339843 0.00253097 0.00741581 0.00234256 0.00352126 0.01086007 0.00999209 0.00155858 0.00101492 0.00212359 0.00148100 0.00240138 0.00100234 
0.00577256 0.00486350 0.00160079 0.00342476 0.00243624 0.00718142 0.00234560 0.00367726 0.01146033 0.00990556 0.00155387 0.00099709 0.00207929 0.00148192 0.00233722 0.00101283 
0.00594581 0.00493658 0.00161312 0.00345334 0.00234828 0.00694764 0.00234804 0.00384016 0.01206968 0.00981665 0.00154818 0.00097954 0.00203824 0.00148247 0.00227338 0.00102391 
0.00617627 0.00501382 0.00162464 0.00348381 0.00226779 0.00671544 0.00234981 0.00400911 0.01268494 0.00972611 0.00154153 0.00096236 0.00200061 0.00148257 0.00221021 0.00103552 
0.00646382 0.00509485 0.00163527 0.00351581 0.00219542 0.00648575 0.00235085 0.00418320 0.01330285 0.00963466 0.00153398 0.00094566 0.00196653 0.00148217 0.00214809 0.00104761 
0.00680805 0.00517928 0.00164495 0.00354897 0.00213177 0.00625950 0.00235107 0.00436151 0.01392012 0.00954304 0.00152555 0.00092951 0.00193611 0.00148118 0.00208737 0.00106008 
0.00720832 0.00526669 0.00165360 0.00358292 0.00207743 0.00603759 0.00235040 0.00454311 0.01453344 0.00945196 0.00151630 0.00091401 0.00190944 0.00147955 0.00202839 0.00107288 
0.00766372 0.00535665 0.00166114 0.00361727 0.00203291 0.00582089 0.00234878 0.00472707 0.01513953 0.00936213 0.00150625 0.00089922 0.00188659 0.00147723 0.00197150 0.00108593 
0.00817310 0.00544871 0.00166753 0.00365164 0.00199869 0.00561024 0.00234612 0.00491245 0.01573512 0.00927425 0.00149548 0.00088523 0.00186762 0.00147414 0.00191701 0.00109916 
0.00873505 0.00554239 0.00167270 0.00368564 0.00197518 0.00540642 0.00234235 0.00509831 0.01631700 0.00918900 0.00148403 0.00087209 0.00185255 0.00147024 0.00186523 0.00111248 
0.00934790 0.00563722 0.00167660 0.00371890 0.00196276 0.00521018 0.00233739 0.00528372 0.01688203 0.00910703 0.00147197 0.00085986 0.00184139 0.00146547 0.00181645 0.00112583 
0.01000976 0.00573271 0.00167920 0.00375103 0.00196172 0.00502225 0.00233117 0.00546776 0.01742714 0.00902899 0.00145934 0.00084859 0.00183413 0.00145981 0.00177095 0.00113914 
0.01071848 0.00582836 0.00168046 0.00378167 0.00197232 0.00484328 0.00232362 0.00564953 0.01794941 0.00895547 0.00144621 0.00083834 0.00183072 0.00145321 0.00172897 0.00115232 
0.01147169 0.00592368 0.00168036 0.00381047 0.00199473 0.00467386 0.00231467 0.00582814 0.01844600 0.00888707 0.00143265 0.00082912 0.00183112 0.00144564 0.00169076 0.00116531 
0.01226678 0.00601817 0.00167888 0.00383706 0.00202908 0.00451456 0.00230426 0.00600273 0.01891425 0.00882433 0.00141873 0.00082096 0.00183523 0.00143708 0.00165651 0.00117804 
0.01310095 0.00611135 0.00167602 0.00386113 0.00207544 0.00436588 0.00229232 0.00617247 0.01935166 0.00876777 0.00140451 0.00081390 0.00184297 0.00142752 0.00162642 0.00119044 
0.01397118 0.00620272 0.00167178 0.00388236 0.00213378 0.00422823 0.00227880 0.00633655 0.01975588 0.00871788 0.00139007 0.00080792 0.00185420 0.00141694 0.00160065 0.00120246 
0.01487426 0.00629181 0.00166617 0.00390046 0.00220405 0.00410201 0.00226366 0.00649423 0.02012479 0.00867509 0.00137547 0.00080304 0.00186880 0.00140535 0.00157933 0.00121402 
0.01580679 0.00637818 0.00165922 0.00391514 0.00228610 0.00398751 0.00224685 0.00664477 0.02045644 0.00863981 0.00136078 0.00079925 0.00188661 0.00139276 0.00156258 0.00122508 
0.01676523 0.00646137 0.00165096 0.00392617 0.00237973 0.00388500 0.00222834 0.00678748 0.02074912 0.00861238 0.00134609 0.00079652 0.00190744 0.00137918 0.00155048 0.00123559 
0.01774585 0.00654097 0.00164143 0.00393330 0.00248468 0.00379464 0.00220811 0.00692174 0.02100133 0.00859313 0.00133145 0.00079485 0.00193112 0.00136465 0.00154309 0.00124550 
0.01874481 0.00661658 0.00163070 0.00393634 0.00260062 0.00371657 0.00218614 0.00704696 0.02121183 0.00858230 0.00131693 0.00079419 0.00195743 0.00134920 0.00154044 0.00125477 
0.01975815 0.00668783 0.00161882 0.00393511 0.00272715 0.00365083 0.00216244 0.00716259 0.02137960 0.00858011 0.00130262 0.00079450 0.00198616 0.00133287 0.00154254 0.00126335 
0.02078181 0.00675438 0.00160587 0.00392947 0.00286383 0.00359741 0.00213701 0.00726815 0.02150388 0.00858673 0.00128857 0.00079574 0.00201707 0.00131572 0.00154936 0.00127123 
0.02181162 0.00681593 0.00159194 0.00391930 0.00301015 0.00355623 0.00210986 0.00736321 0.02158416 0.00860225 0.00127486 0.00079785 0.00204992 0.00129782 0.00156087 0.00127838 
0.02284339 0.00687218 0.00157712 0.00390452 0.00316554 0.00352716 0.00208103 0.00744740 0.02162018 0.00862672 0.00126154 0.00080077 0.00208446 0.00127924 0.00157698 0.00128478 
0.02387284 0.00692292 0.00156153 0.00388505 0.00332938 0.00350999 0.00205056 0.00752039 0.02161195 0.00866014 0.00124868 0.00080444 0.00212042 0.00126007 0.00159761 0.00129042 
0.02489571 0.00696793 0.00154527 0.00386089 0.00350100 0.00350445 0.00201852 0.00758193 0.02155972 0.00870245 0.00123633 0.00080877 0.00215755 0.00124040 0.00162262 0.00129530 
0.02590771 0.00700706 0.00152849 0.00383202 0.00367968 0.00351024 0.00198497 0.00763181 0.02146400 0.00875354 0.00122457 0.00081371 0.00219556 0.00122033 0.00165188 0.00129940 
0.02690458 0.00704020 0.00151131 0.00379850 0.00386467 0.00352696 0.00194999 0.00766989 0.02132554 0.00881321 0.00121342 0.00081915 0.00223418 0.00119998 0.00168522 0.00130275 
0.02788210 0.00706725 0.00149388 0.00376037 0.00405517 0.00355418 0.00191368 0.00769609 0.02114534 0.00888125 0.00120296 0.00082502 0.00227314 0.00117946 0.00172245 0.00130535 
0.02883613 0.00708820 0.00147636 0.00371775 0.00425033 0.00359143 0.00187617 0.00771037 0.02092463 0.00895737 0.00119322 0.00083123 0.00231216 0.00115892 0.00176336 0.00130722 
0.02976259 0.00710306 0.00145891 0.00367075 0.00444930 0.00363816 0.00183757 0.00771278 0.02066487 0.00904121 0.00118424 0.00083768 0.00235096 0.00113848 0.00180773 0.00130839 
0.03065753 0.00711190 0.00144170 0.00361953 0.00465117 0.00369381 0.00179802 0.00770340 0.02036772 0.00913239 0.00117606 0.00084429 0.00238927 0.00111829 0.00185532 0.00130889 
0.03151712 0.00711481 0.00142491 0.00356427 0.00485503 0.00375775 0.00175769 0.00768236 0.02003507 0.00923045 0.00116872 0.00085096 0.00242683 0.00109851 0.00190588 0.00130875 
0.03233772 0.00711195 0.00140873 0.00350518 0.00505995 0.00382932 0.00171674 0.00764988 0.01966897 0.00933489 0.00116224 0.00085759 0.00246338 0.00107928 0.00195912 0.00130801 
0.03311581 0.00710352 0.00139334 0.00344249 0.00526497 0.00390784 0.00167535 0.00760620 0.01927168 0.00944516 0.00115665 0.00086410 0.00249866 0.00106079 0.00201477 0.00130673 
0.03384812 0.00708977 0.00137895 0.00337646 0.00546915 0.00399258 0.00163372 0.00755162 0.01884559 0.00956067 0.00115196 0.00087039 0.00253244 0.00104319 0.00207255 0.00130495 
0.03453158 0.00707098 0.00136574 0.00330736 0.00567151 0.00408281 0.00159205 0.00748648 0.01839325 0.00968076 0.00114820 0.00087637 0.00256449 0.00102666 0.00213214 0.00130272 
0.03516335 0.00704749 0.00135394 0.00323550 0.00587112 0.00417774 0.00155057 0.00741119 0.01791735 0.00980477 0.00114537 0.00088197 0.00259458 0.00101137 0.00219325 0.00130011 
0.03574086 0.00701968 0.00134374 0.00316118 0.00606702 0.00427661 0.00150950 0.00732617 0.01742066 0.00993197 0.00114348 0.00088709 0.00262252 0.00099751 0.00225557 0.00129718 
0.03626184 0.00698796 0.00133536 0.00308474 0.00625827 0.00437861 0.00146909 0.00723190 0.01690608 0.01006160 0.00114254 0.00089165 0.00264812 0.00098525 0.00231879 0.00129398 
0.03672428 0.00695279 0.00132900 0.00300653 0.00644396 0.00448294 0.00142957 0.00712890 0.01637656 0.01019290 0.00114253 0.00089559 0.00267121 0.00097478 0.00238259 0.00129059 
0.03712651 0.00691466 0.00132487 0.00292691 0.00662318 0.00458880 0.00139122 0.00701771 0.01583511 0.01032504 0.00114345 0.00089884 0.00269162 0.00096627 0.00244667 0.00128707 
0.03746716 0.00687410 0.00132319 0.00284623 0.00679508 0.00469538 0.00135428 0.00689890 0.01528479 0.01045720 0.00114529 0.00090134 0.00270923 0.00095991 0.00251072 0.00128349 
0.03774523 0.00683167 0.00132417 0.00276487 0.00695882 0.00480188 0.00131902 0.00677307 0.01472866 0.01058854 0.00114804 0.00090303 0.00272391 0.00095586 0.00257443 0.00127992 
0.03796007 0.00678796 0.00132801 0.00268322 0.00711359 0.00490752 0.00128572 0.00664087 0.01416979 0.01071819 0.00115167 0.00090387 0.00273558 0.00095430 0.00263753 0.00127644 
0.03811137 0.00674360 0.00133492 0.00260164 0.00725865 0.00501152 0.00125465 0.00650292 0.01361123 0.01084529 0.00115617 0.00090382 0.00274413 0.00095540 0.00269971 0.00127310 
0.03819921 0.00669921 0.00134508 0.00252053 0.00739327 0.00511313 0.00122607 0.00635989 0.01305599 0.01096897 0.00116150 0.00090286 0.00274953 0.00095931 0.00276071 0.00126998 
0.03822405 0.00665546 0.00135870 0.00244026 0.00751679 0.00521161 0.00120027 0.00621246 0.01250703 0.01108837 0.00116764 0.00090095 0.00275173 0.00096618 0.00282027 0.00126714 
0.03818673 0.00661303 0.00137596 0.00236119 0.00762861 0.00530627 0.00117750 0.00606130 0.01196722 0.01120262 0.00117455 0.00089810 0.00275070 0.00097616 0.00287812 0.00126465 
0.03808846 0.00657260 0.00139704 0.00228371 0.00772816 0.00539643 0.00115803 0.00590711 0.01143936 0.01131088 0.00118220 0.00089430 0.00274646 0.00098938 0.00293404 0.00126257 
0.03793087 0.00653488 0.00142210 0.00220816 0.00781494 0.00548144 0.00114212 0.00575058 0.01092614 0.01141233 0.00119055 0.00088956 0.00273902 0.00100595 0.00298781 0.00126096 
0.03771595 0.00650057 0.00145131 0.00213488 0.00788853 0.00556073 0.00113001 0.00559239 0.01043011 0.01150615 0.00119956 0.00088389 0.00272843 0.00102600 0.00303923 0.00125987 
0.03744607 0.00647037 0.00148482 0.00206422 0.00794855 0.00563371 0.00112194 0.00543322 0.00995370 0.01159157 0.00120919 0.00087733 0.00271474 0.00104961 0.00308810 0.00125935 
0.03712399 0.00644498 0.00152277 0.00199649 0.00799469 0.00569987 0.00111814 0.00527375 0.00949921 0.01166783 0.00121939 0.00086990 0.00269804 0.00107686 0.00313426 0.00125945 
0.03675282 0.00642511 0.00156527 0.00193199 0.00802672 0.00575875 0.00111881 0.00511464 0.00906875 0.01173422 0.00123012 0.00086167 0.00267842 0.00110783 0.00317757 0.00126021 
0.03633604 0.00641143 0.00161245 0.00187099 0.00804446 0.00580991 0.00112414 0.00495653 0.00866427 0.01179007 0.00124133 0.00085268 0.00265599 0.00114255 0.00321789 0.00126166 
0.03587747 0.00640461 0.00166440 0.00181377 0.00804780 0.00585299 0.00113432 0.00480006 0.00828755 0.01183476 0.00125296 0.00084301 0.00263090 0.00118106 0.00325511 0.00126385 
0.03538125 0.00640529 0.00172120 0.00176055 0.00803672 0.00588766 0.00114949 0.00464581 0.00794018 0.01186770 0.00126498 0.00083272 0.00260327 0.00122338 0.00328914 0.00126678 
0.03485184 0.00641411 0.00178292 0.00171155 0.00801125 0.00591366 0.00116979 0.00449439 0.00762353 0.01188836 0.00127732 0.00082190 0.00257328 0.00126949 0.00331992 0.00127049 
0.03429400 0.00643166 0.00184961 0.00166697 0.00797150 0.00593076 0.00119532 0.00434634 0.00733882 0.01189628 0.00128995 0.00081065 0.00254109 0.00131937 0.00334739 0.00127499 
0.03371273 0.00645849 0.00192130 0.00162697 0.00791762 0.00593881 0.00122618 0.00420218 0.00708701 0.01189102 0.00130280 0.00079905 0.00250690 0.00137297 0.00337153 0.00128028 
0.03311331 0.00649514 0.00199801 0.00159169 0.00784987 0.00593769 0.00126242 0.00406242 0.00686890 0.01187224 0.00131582 0.00078723 0.00247089 0.00143024 0.00339232 0.00128636 
0.03250122 0.00654209 0.00207973 0.00156124 0.00776854 0.00592735 0.00130406 0.00392752 0.00668505 0.01183964 0.00132896 0.00077528 0.00243327 0.00149107 0.00340977 0.00129324 
0.03188216 0.00659978 0.00216643 0.00153572 0.00767400 0.00590779 0.00135111 0.00379790 0.00653584 0.01179299 0.00134218 0.00076333 0.00239425 0.00155537 0.00342391 0.00130089 
0.03126197 0.00666862 0.00225809 0.00151517 0.00756667 0.00587906 0.00140354 0.00367395 0.00642142 0.01173213 0.00135541 0.00075150 0.00235405 0.00162300 0.00343479 0.00130931 
0.03064664 0.00674894 0.00235463 0.00149963 0.00744703 0.00584127 0.00146129 0.00355603 0.00634175 0.01165694 0.00136860 0.00073992 0.00231290 0.00169381 0.00344245 0.00131847 
0.03004227 0.00684103 0.00245597 0.00148911 0.00731563 0.00579456 0.00152425 0.00344446 0.00629659 0.01156741 0.00138171 0.00072871 0.00227101 0.00176763 0.00344698 0.00132834 
0.02945501 0.00694513 0.00256201 0.00148358 0.00717304 0.00573914 0.00159230 0.00333950 0.00628551 0.01146355 0.00139468 0.00071802 0.00222862 0.00184427 0.00344847 0.00133889 
0.02889108 0.00706141 0.00267262 0.00148298 0.00701991 0.00567525 0.00166529 0.00324140 0.00630789 0.01134548 0.00140745 0.00070796 0.00218596 0.00192352 0.00344703 0.00135008 
0.02835669 0.00719000 0.00278766 0.00148726 0.00685691 0.00560319 0.00174301 0.00315035 0.00636292 0.01121336 0.00141999 0.00069867 0.00214325 0.00200513 0.00344276 0.00136186 
0.02785801 0.00733092 0.00290698 0.00149629 0.00668477 0.00552329 0.00182525 0.00306650 0.00644965 0.01106741 0.00143223 0.00069029 0.00210071 0.00208887 0.00343579 0.00137419 
0.02740116 0.00748418 0.00303037 0.00150996 0.00650423 0.00543593 0.00191173 0.00298997 0.00656693 0.01090793 0.00144412 0.00068295 0.00205858 0.00217445 0.00342627 0.00138701 
0.02699215 0.00764969 0.00315764 0.00152812 0.00631609 0.00534150 0.00200217 0.00292083 0.00671350 0.01073528 0.00145563 0.00067676 0.00201706 0.00226160 0.00341434 0.00140027 
0.02663687 0.00782730 0.00328857 0.00155058 0.00612115 0.00524045 0.00209624 0.00285911 0.00688793 0.01054986 0.00146669 0.00067186 0.00197637 0.00235001 0.00340014 0.00141389 
0.02634100 0.00801679 0.00342290 0.00157716 0.00592026 0.00513325 0.00219357 0.00280480 0.00708868 0.01035215 0.00147725 0.00066835 0.00193671 0.00243936 0.00338384 0.00142783 
0.02611006 0.00821787 0.00356039 0.00160764 0.00571426 0.00502040 0.00229380 0.00275786 0.00731410 0.01014268 0.00148728 0.00066636 0.00189827 0.00252932 0.00336559 0.00144201 
0.02594930 0.00843018 0.00370076 0.00164178 0.00550402 0.00490242 0.00239649 0.00271821 0.00756243 0.00992201 0.00149672 0.00066597 0.00186123 0.00261955 0.00334556 0.00145637 
0.02586370 0.00865331 0.00384370 0.00167934 0.00529040 0.00477984 0.00250120 0.00268571 0.00783184 0.00969077 0.00150553 0.00066730 0.00182578 0.00270969 0.00332392 0.00147082 
0.02585792 0.00888676 0.00398891 0.00172004 0.00507430 0.00465321 0.00260747 0.00266022 0.00812041 0.00944962 0.00151365 0.00067042 0.00179208 0.00279939 0.00330083 0.00148531 
0.02593632 0.00912997 0.00413606 0.00176361 0.00485657 0.00452311 0.00271481 0.00264155 0.00842617 0.00919927 0.00152104 0.00067540 0.00176027 0.00288826 0.00327645 0.00149976 
0.02610285 0.00938231 0.00428482 0.00180975 0.00463809 0.00439011 0.00282270 0.00262947 0.00874712 0.00894047 0.00152766 0.00068231 0.00173050 0.00297594 0.00325095 0.00151410 
0.02636108 0.00964311 0.00443483 0.00185816 0.00441972 0.00425478 0.00293062 0.00262373 0.00908121 0.00867398 0.00153345 0.00069120 0.00170290 0.00306205 0.00322448 0.00152824 
0.02671416 0.00991162 0.00458574 0.00190852 0.00420229 0.00411771 0.00303802 0.00262406 0.00942639 0.00840061 0.00153838 0.00070211 0.00167756 0.00314621 0.00319720 0.00154213 
0.02716480 0.01018703 0.00473717 0.00196051 0.00398664 0.00397947 0.00314434 0.00263013 0.00978061 0.00812119 0.00154240 0.00071506 0.00165460 0.00322804 0.00316924 0.00155569 
0.02771522 0.01046849 0.00488874 0.00201382 0.00377356 0.00384063 0.00324902 0.00264163 0.01014183 0.00783654 0.00154547 0.00073006 0.00163409 0.00330717 0.00314076 0.00156885 
0.02836718 0.01075508 0.00504007 0.00206811 0.00356382 0.00370175 0.00335149 0.00265818 0.01050805 0.00754754 0.00154754 0.00074711 0.00161611 0.00338322 0.00311187 0.00158155 
0.02912192 0.01104586 0.00519078 0.00212305 0.00335816 0.00356339 0.00345117 0.00267943 0.01087730 0.00725505 0.00154858 0.00076617 0.00160071 0.00345583 0.00308272 0.00159371 
0.02998016 0.01133982 0.00534047 0.00217832 0.00315730 0.00342607 0.00354749 0.00270497 0.01124767 0.00695994 0.00154854 0.00078722 0.00158794 0.00352465 0.00305340 0.00160528 
0.03094209 0.01163593 0.00548875 0.00223360 0.00296191 0.00329031 0.00363988 0.00273441 0.01161731 0.00666308 0.00154738 0.00081020 0.00157781 0.00358934 0.00302403 0.00161620 
0.03200738 0.01193311 0.00563522 0.00228855 0.00277261 0.00315660 0.00372780 0.00276731 0.01198445 0.00636535 0.00154507 0.00083504 0.00157035 0.00364957 0.00299470 0.00162641 
0.03317512 0.01223027 0.00577951 0.00234287 0.00259000 0.00302543 0.00381069 0.00280325 0.01234742 0.00606760 0.00154158 0.00086164 0.00156555 0.00370501 0.00296550 0.00163587 
0.03444390 0.01252629 0.00592124 0.00239624 0.00241461 0.00289722 0.00388802 0.00284179 0.01270463 0.00577069 0.00153686 0.00088992 0.00156341 0.00375539 0.00293649 0.00164452 
0.03581171 0.01282003 0.00606002 0.00244838 0.00224695 0.00277239 0.00395930 0.00288248 0.01305462 0.00547545 0.00153090 0.00091973 0.00156388 0.00380041 0.00290775 0.00165233 
0.03727604 0.01311034 0.00619549 0.00249899 0.00208746 0.00265135 0.00402405 0.00292488 0.01339603 0.00518269 0.00152365 0.00095095 0.00156694 0.00383982 0.00287932 0.00165926 
0.03883383 0.01339605 0.00632731 0.00254779 0.00193654 0.00253443 0.00408181 0.00296854 0.01372761 0.00489321 0.00151510 0.00098342 0.00157254 0.00387340 0.00285124 0.00166526 
0.04048149 0.01367602 0.00645512 0.00259453 0.00179454 0.00242197 0.00413218 0.00301301 0.01404828 0.00460778 0.00150522 0.00101698 0.00158062 0.00390092 0.00282356 0.00167033 
0.04221491 0.01394909 0.00657861 0.00263896 0.00166175 0.00231425 0.00417476 0.00305786 0.01435704 0.00432712 0.00149400 0.00105143 0.00159110 0.00392220 0.00279628 0.00167443 
0.04402949 0.01421413 0.00669747 0.00268084 0.00153843 0.00221153 0.00420923 0.00310265 0.01465308 0.00405195 0.00148142 0.00108659 0.00160391 0.00393710 0.00276943 0.00167755 
0.04592015 0.01447001 0.00681140 0.00271997 0.00142475 0.00211404 0.00423530 0.00314695 0.01493569 0.00378293 0.00146746 0.00112223 0.00161895 0.00394547 0.00274300 0.00167967 
0.04788136 0.01471564 0.00692015 0.00275613 0.00132086 0.00202195 0.00425273 0.00319036 0.01520433 0.00352070 0.00145213 0.00115814 0.00163614 0.00394723 0.00271699 0.00168080 
0.04990713 0.01494996 0.00702348 0.00278916 0.00122686 0.00193542 0.00426131 0.00323247 0.01545859 0.00326586 0.00143542 0.00119407 0.00165536 0.00394230 0.00269139 0.00168092 
0.05199108 0.01517194 0.00712115 0.00281890 0.00114277 0.00185457 0.00426093 0.00327290 0.01569820 0.00301894 0.00141734 0.00122979 0.00167651 0.00393064 0.00266617 0.00168004 
0.05412645 0.01538059 0.00721298 0.00284520 0.00106859 0.00177947 0.00425149 0.00331128 0.01592306 0.00278046 0.00139790 0.00126505 0.00169947 0.00391224 0.00264131 0.00167818 
0.05630614 0.01557499 0.00729880 0.00286794 0.00100425 0.00171017 0.00423300 0.00334727 0.01613317 0.00255090 0.00137711 0.00129957 0.00172412 0.00388714 0.00261678 0.00167534 
0.05852272 0.01575424 0.00737848 0.00288702 0.00094966 0.00164669 0.00420549 0.00338054 0.01632869 0.00233066 0.00135500 0.00133310 0.00175034 0.00385539 0.00259253 0.00167155 
0.06076848 0.01591753 0.00745190 0.00290237 0.00090465 0.00158901 0.00416907 0.00341079 0.01650992 0.00212012 0.00133160 0.00136536 0.00177800 0.00381707 0.00256852 0.00166683 
0.06303548 0.01606411 0.00751900 0.00291392 0.00086905 0.00153707 0.00412394 0.00343775 0.01667727 0.00191962 0.00130694 0.00139609 0.00180697 0.00377231 0.00254472 0.00166121 
0.06531559 0.01619329 0.00757973 0.00292164 0.00084260 0.00149080 0.00407033 0.00346116 0.01683129 0.00172944 0.00128108 0.00142502 0.00183712 0.00372126 0.00252106 0.00165472 
0.06760048 0.01630444 0.00763408 0.00292550 0.00082505 0.00145009 0.00400857 0.00348080 0.01697263 0.00154982 0.00125406 0.00145187 0.00186832 0.00366410 0.00249750 0.00164740 
0.06988174 0.01639705 0.00768208 0.00292550 0.00081608 0.00141481 0.00393904 0.00349648 0.01710205 0.00138095 0.00122595 0.00147638 0.00190044 0.00360104 0.00247400 0.00163929 
0.07215084 0.01647065 0.00772377 0.00292167 0.00081535 0.00138480 0.00386219 0.00350803 0.01722044 0.00122298 0.00119681 0.00149829 0.00193334 0.00353233 0.00245050 0.00163044 
0.07439925 0.01652489 0.00775925 0.00291404 0.00082249 0.00135987 0.00377857 0.00351532 0.01732874 0.00107601 0.00116674 0.00151735 0.00196690 0.00345824 0.00242696 0.00162089 
0.07661842 0.01655948 0.00778864 0.00290266 0.00083710 0.00133984 0.00368875 0.00351824 0.01742799 0.00094011 0.00113581 0.00153333 0.00200099 0.00337906 0.00240333 0.00161069 
0.07879987 0.01657423 0.00781210 0.00288762 0.00085877 0.00132448 0.00359341 0.00351672 0.01751932 0.00081529 0.00110412 0.00154599 0.00203547 0.00329513 0.00237956 0.00159989 
0.08093520 0.01656904 0.00782982 0.00286899 0.00088704 0.00131355 0.00349328 0.00351072 0.01760390 0.00070154 0.00107178 0.00155512 0.00207023 0.00320677 0.00235562 0.00158856 
0.08301614 0.01654393 0.00784201 0.00284689 0.00092146 0.00130682 0.00338915 0.00350023 0.01768297 0.00059879 0.00103890 0.00156053 0.00210515 0.00311437 0.00233146 0.00157674 
0.08503461 0.01649897 0.00784894 0.00282144 0.00096155 0.00130400 0.00328187 0.00348528 0.01775781 0.00050695 0.00100562 0.00156205 0.00214010 0.00301832 0.00230707 0.00156450 
0.08698274 0.01643436 0.00785089 0.00279276 0.00100683 0.00130485 0.00317235 0.00346592 0.01782972 0.00042589 0.00097206 0.00155951 0.00217498 0.00291903 0.00228241 0.00155189 
0.08885292 0.01635039 0.00784817 0.00276100 0.00105679 0.00130908 0.00306157 0.00344223 0.01790003 0.00035544 0.00093836 0.00155279 0.00220967 0.00281692 0.00225747 0.00153897 
0.09063785 0.01624742 0.00784111 0.00272632 0.00111093 0.00131641 0.00295054 0.00341434 0.01797009 0.00029541 0.00090469 0.00154179 0.00224407 0.00271243 0.00223223 0.00152581 
0.09233054 0.01612593 0.00783009 0.00268889 0.00116876 0.00132656 0.00284033 0.00338240 0.01804123 0.00024557 0.00087120 0.00152642 0.00227808 0.00260602 0.00220668 0.00151246 
0.09392440 0.01598648 0.00781549 0.00264888 0.00122976 0.00133925 0.00273205 0.00334657 0.01811481 0.00020568 0.00083806 0.00150665 0.00231160 0.00249816 0.00218082 0.00149899 
0.09541322 0.01582972 0.00779773 0.00260648 0.00129343 0.00135419 0.00262683 0.00330707 0.01819211 0.00017545 0.00080545 0.00148245 0.00234454 0.00238932 0.00215466 0.00148546 
0.09679123 0.01565640 0.00777722 0.00256187 0.00135929 0.00137111 0.00252586 0.00326414 0.01827444 0.00015459 0.00077355 0.00145384 0.00237680 0.00227997 0.00212822 0.00147191 
0.09805315 0.01546733 0.00775442 0.00251526 0.00142683 0.00138973 0.00243032 0.00321801 0.01836302 0.00014277 0.00074255 0.00142087 0.00240832 0.00217061 0.00210151 0.00145841 
0.09919416 0.01526341 0.00772979 0.00246684 0.00149560 0.00140979 0.00234145 0.00316900 0.01845907 0.00013967 0.00071265 0.00138364 0.00243901 0.00206171 0.00207456 0.00144502 
0.10020998 0.01504563 0.00770381 0.00241682 0.00156512 0.00143103 0.00226047 0.00311739 0.01856370 0.00014494 0.00068406 0.00134227 0.00246881 0.00195376 0.00204741 0.00143179 
0.10109684 0.01481501 0.00767694 0.00236539 0.00163495 0.00145322 0.00218861 0.00306351 0.01867800 0.00015820 0.00065698 0.00129691 0.00249763 0.00184724 0.00202010 0.00141876 
0.10185157 0.01457268 0.00764968 0.00231278 0.00170465 0.00147611 0.00212711 0.00300772 0.01880295 0.00017908 0.00063161 0.00124778 0.00252542 0.00174263 0.00199268 0.00140599 
0.10247153 0.01431981 0.00762252 0.00225917 0.00177383 0.00149949 0.00207719 0.00295036 0.01893948 0.00020719 0.00060819 0.00119511 0.00255213 0.00164039 0.00196520 0.00139353 
0.10295469 0.01405763 0.00759594 0.00220478 0.00184209 0.00152316 0.00204007 0.00289184 0.01908841 0.00024215 0.00058691 0.00113919 0.00257769 0.00154097 0.00193773 0.00138141 
0.10329961 0.01378739 0.00757042 0.00214981 0.00190905 0.00154693 0.00201692 0.00283252 0.01925048 0.00028355 0.00056801 0.00108033 0.00260206 0.00144483 0.00191032 0.00136968 
0.10350544 0.01351043 0.00754646 0.00209446 0.00197439 0.00157062 0.00200891 0.00277282 0.01942633 0.00033100 0.00055169 0.00101890 0.00262520 0.00135238 0.00188305 0.00135838 
0.10357195 0.01322808 0.00752450 0.00203892 0.00203779 0.00159408 0.00201714 0.00271315 0.01961648 0.00038408 0.00053818 0.00095531 0.00264707 0.00126405 0.00185599 0.00134753 
0.10349951 0.01294173 0.00750502 0.00198338 0.00209894 0.00161716 0.00204269 0.00265391 0.01982137 0.00044241 0.00052768 0.00088999 0.00266763 0.00118023 0.00182922 0.00133717 
0.10328908 0.01265277 0.00748843 0.00192803 0.00215758 0.00163976 0.00208656 0.00259553 0.02004131 0.00050557 0.00052041 0.00082342 0.00268685 0.00110129 0.00180283 0.00132733 
0.10294222 0.01236260 0.00747516 0.00187304 0.00221348 0.00166177 0.00214971 0.00253843 0.02027652 0.00057317 0.00051657 0.00075611 0.00270471 0.00102759 0.00177689 0.00131802 
0.10246109 0.01207265 0.00746561 0.00181859 0.00226642 0.00168310 0.00223303 0.00248302 0.02052709 0.00064481 0.00051635 0.00068864 0.00272119 0.00095945 0.00175150 0.00130927 
0.10184840 0.01178433 0.00746014 0.00176484 0.00231622 0.00170368 0.00233732 0.00242971 0.02079300 0.00072011 0.00051996 0.00062156 0.00273627 0.00089718 0.00172674 0.00130110 
0.10110742 0.01149905 0.00745909 0.00171194 0.00236272 0.00172347 0.00246331 0.00237891 0.02107412 0.00079868 0.00052757 0.00055552 0.00274993 0.00084105 0.00170269 0.00129351 
0.10024197 0.01121818 0.00746276 0.00166004 0.00240579 0.00174243 0.00261163 0.00233102 0.02137022 0.00088015 0.00053935 0.00049116 0.00276218 0.00079131 0.00167944 0.00128651 
0.09925638 0.01094311 0.00747144 0.00160929 0.00244532 0.00176054 0.00278284 0.00228641 0.02168093 0.00096415 0.00055547 0.00042917 0.00277301 0.00074818 0.00165708 0.00128012 
0.09815547 0.01067515 0.00748535 0.00155981 0.00248124 0.00177781 0.00297736 0.00224547 0.02200580 0.00105033 0.00057607 0.00037023 0.00278241 0.00071186 0.00163570 0.00127432 
0.09694453 0.01041561 0.00750471 0.00151172 0.00251349 0.00179425 0.00319554 0.00220853 0.02234426 0.00113833 0.00060129 0.00031509 0.00279041 0.00068250 0.00161536 0.00126912 
0.09562927 0.01016573 0.00752965 0.00146514 0.00254204 0.00180987 0.00343761 0.00217593 0.02269565 0.00122782 0.00063125 0.00026449 0.00279700 0.00066023 0.00159615 0.00126452 
0.09421583 0.00992672 0.00756031 0.00142017 0.00256689 0.00182473 0.00370367 0.00214799 0.02305920 0.00131847 0.00066604 0.00021919 0.00280221 0.00064514 0.00157815 0.00126050 
0.09271071 0.00969972 0.00759676 0.00137691 0.00258806 0.00183887 0.00399372 0.00212499 0.02343405 0.00140996 0.00070576 0.00017997 0.00280606 0.00063731 0.00156142 0.00125706 
0.09112074 0.00948580 0.00763901 0.00133543 0.00260559 0.00185236 0.00430763 0.00210719 0.02381927 0.00150198 0.00075047 0.00014763 0.00280858 0.00063675 0.00154603 0.00125417 
0.08945307 0.00928599 0.00768705 0.00129582 0.00261953 0.00186526 0.00464515 0.00209483 0.02421383 0.00159425 0.00080021 0.00012295 0.00280979 0.00064348 0.00153203 0.00125183 
0.08771508 0.00910120 0.00774082 0.00125814 0.00262996 0.00187764 0.00500591 0.00208812 0.02461662 0.00168648 0.00085502 0.00010672 0.00280975 0.00065746 0.00151948 0.00125001 
0.08591441 0.00893230 0.00780021 0.00122246 0.00263697 0.00188960 0.00538940 0.00208723 0.02502649 0.00177839 0.00091490 0.00009975 0.00280848 0.00067862 0.00150843 0.00124869 
0.08405885 0.00878006 0.00786505 0.00118882 0.00264068 0.00190122 0.00579500 0.00209231 0.02544219 0.00186972 0.00097982 0.00010282 0.00280605 0.00070687 0.00149891 0.00124785 
0.08215636 0.00864516 0.00793515 0.00115727 0.00264120 0.00191260 0.00622196 0.00210346 0.02586245 0.00196022 0.00104976 0.00011669 0.00280251 0.00074209 0.00149095 0.00124746 
0.08021498 0.00852821 0.00801024 0.00112784 0.00263868 0.00192382 0.00666939 0.00212078 0.02628594 0.00204965 0.00112465 0.00014214 0.00279792 0.00078410 0.00148458 0.00124750 
0.07824281 0.00842969 0.00809004 0.00110056 0.00263326 0.00193497 0.00713629 0.00214429 0.02671128 0.00213779 0.00120440 0.00017991 0.00279234 0.00083274 0.00147982 0.00124793 
0.07624797 0.00835002 0.00817421 0.00107546 0.00262510 0.00194616 0.00762155 0.00217402 0.02713707 0.00222440 0.00128890 0.00023072 0.00278587 0.00088778 0.00147666 0.00124872 
0.07423856 0.00828951 0.00826237 0.00105254 0.00261435 0.00195747 0.00812393 0.00220994 0.02756189 0.00230930 0.00137801 0.00029525 0.00277857 0.00094899 0.00147513 0.00124985 
0.07222260 0.00824836 0.00835409 0.00103182 0.00260120 0.00196900 0.00864208 0.00225198 0.02798429 0.00239226 0.00147158 0.00037416 0.00277053 0.00101609 0.00147520 0.00125128 
0.07020802 0.00822667 0.00844892 0.00101330 0.00258581 0.00198081 0.00917454 0.00230005 0.02840283 0.00247311 0.00156943 0.00046808 0.00276186 0.00108880 0.00147686 0.00125298 
0.06820260 0.00822447 0.00854636 0.00099697 0.00256837 0.00199299 0.00971976 0.00235402 0.02881604 0.00255167 0.00167134 0.00057759 0.00275265 0.00116680 0.00148008 0.00125491 
0.06621392 0.00824166 0.00864589 0.00098283 0.00254905 0.00200562 0.01027607 0.00241372 0.02922250 0.00262775 0.00177708 0.00070323 0.00274300 0.00124976 0.00148485 0.00125705 
0.06424935 0.00827805 0.00874695 0.00097087 0.00252803 0.00201874 0.01084175 0.00247896 0.02962077 0.00270121 0.00188642 0.00084548 0.00273304 0.00133732 0.00149111 0.00125936 
0.06231601 0.00833335 0.00884897 0.00096106 0.00250550 0.00203241 0.01141496 0.00254950 0.03000944 0.00277189 0.00199906 0.00100479 0.00272289 0.00142912 0.00149882 0.00126180 
0.06042071 0.00840720 0.00895132 0.00095339 0.00248162 0.00204669 0.01199381 0.00262508 0.03038714 0.00283965 0.00211471 0.00118152 0.00271267 0.00152476 0.00150793 0.00126435 
0.05856996 0.00849910 0.00905340 0.00094783 0.00245658 0.00206159 0.01257633 0.00270541 0.03075252 0.00290434 0.00223306 0.00137602 0.00270251 0.00162384 0.00151837 0.00126698 
0.05676991 0.00860850 0.00915456 0.00094435 0.00243053 0.00207715 0.01316053 0.00279018 0.03110429 0.00296585 0.00235377 0.00158853 0.00269255 0.00172595 0.00153009 0.00126965 
0.05502632 0.00873476 0.00925415 0.00094292 0.00240365 0.00209337 0.01374433 0.00287903 0.03144119 0.00302404 0.00247648 0.00181926 0.00268294 0.00183067 0.00154302 0.00127233 
0.05334456 0.00887714 0.00935152 0.00094351 0.00237610 0.00211025 0.01432564 0.00297159 0.03176203 0.00307882 0.00260083 0.00206833 0.00267382 0.00193757 0.00155707 0.00127499 
0.05172956 0.00903484 0.00944600 0.00094606 0.00234801 0.00212779 0.01490234 0.00306748 0.03206567 0.00313007 0.00272643 0.00233581 0.00266535 0.00204622 0.00157216 0.00127762 
0.05018582 0.00920698 0.00953694 0.00095056 0.00231953 0.00214595 0.01547229 0.00316627 0.03235105 0.00317771 0.00285288 0.00262169 0.00265768 0.00215617 0.00158822 0.00128018 
0.04871737 0.00939261 0.00962368 0.00095694 0.00229080 0.00216471 0.01603336 0.00326755 0.03261715 0.00322165 0.00297977 0.00292588 0.00265098 0.00226699 0.00160515 0.00128264 
0.04732775 0.00959072 0.00970559 0.00096517 0.00226194 0.00218401 0.01658343 0.00337086 0.03286307 0.00326180 0.00310668 0.00324824 0.00264539 0.00237824 0.00162287 0.00128500 
0.04602005 0.00980025 0.00978203 0.00097519 0.00223306 0.00220379 0.01712036 0.00347574 0.03308794 0.00329811 0.00323317 0.00358852 0.00264110 0.00248948 0.00164128 0.00128722 
0.04479681 0.01002008 0.00985239 0.00098696 0.00220428 0.00222399 0.01764210 0.00358174 0.03329100 0.00333050 0.00335882 0.00394644 0.00263826 0.00260030 0.00166029 0.00128929 
0.04366012 0.01024906 0.00991610 0.00100042 0.00217567 0.00224452 0.01814659 0.00368838 0.03347158 0.00335893 0.00348318 0.00432161 0.00263704 0.00271025 0.00167981 0.00129119 
0.04261153 0.01048600 0.00997259 0.00101552 0.00214734 0.00226530 0.01863185 0.00379518 0.03362908 0.00338336 0.00360581 0.00471359 0.00263761 0.00281895 0.00169975 0.00129291 
0.04165210 0.01072967 0.01002133 0.00103219 0.00211934 0.00228623 0.01909596 0.00390166 0.03376300 0.00340376 0.00372628 0.00512184 0.00264012 0.00292598 0.00172000 0.00129443 
0.04078240 0.01097881 0.01006184 0.00105039 0.00209176 0.00230719 0.01953705 0.00400735 0.03387294 0.00342009 0.00384413 0.00554578 0.00264475 0.00303095 0.00174050 0.00129575 
0.04000247 0.01123218 0.01009366 0.00107004 0.00206464 0.00232808 0.01995337 0.00411178 0.03395856 0.00343235 0.00395895 0.00598475 0.00265165 0.00313351 0.00176113 0.00129685 
0.03931192 0.01148849 0.01011637 0.00109109 0.00203803 0.00234877 0.02034324 0.00421448 0.03401966 0.00344052 0.00407029 0.00643800 0.00266098 0.00323328 0.00178183 0.00129772 
0.03870984 0.01174648 0.01012963 0.00111347 0.00201196 0.00236914 0.02070508 0.00431501 0.03405611 0.00344463 0.00417775 0.00690476 0.00267288 0.00332995 0.00180251 0.00129838 
0.03819489 0.01200486 0.01013310 0.00113711 0.00198646 0.00238905 0.02103744 0.00441292 0.03406788 0.00344468 0.00428091 0.00738414 0.00268751 0.00342318 0.00182309 0.00129880 
0.03776526 0.01226239 0.01012652 0.00116193 0.00196155 0.00240837 0.02133897 0.00450780 0.03405503 0.00344071 0.00437939 0.00787525 0.00270500 0.00351270 0.00184351 0.00129900 
0.03741875 0.01251781 0.01010967 0.00118787 0.00193723 0.00242697 0.02160846 0.00459924 0.03401774 0.00343275 0.00447279 0.00837710 0.00272547 0.00359822 0.00186370 0.00129897 
0.03715273 0.01276993 0.01008241 0.00121485 0.00191352 0.00244471 0.02184482 0.00468685 0.03395624 0.00342085 0.00456078 0.00888868 0.00274906 0.00367951 0.00188359 0.00129871 
0.03696421 0.01301754 0.01004462 0.00124279 0.00189040 0.00246144 0.02204712 0.00477029 0.03387091 0.00340507 0.00464299 0.00940890 0.00277587 0.00375633 0.00190314 0.00129823 
0.03684984 0.01325952 0.00999625 0.00127162 0.00186786 0.00247705 0.02221456 0.00484922 0.03376217 0.00338549 0.00471912 0.00993667 0.00280600 0.00382850 0.00192231 0.00129754 
0.03680592 0.01349474 0.00993734 0.00130123 0.00184589 0.00249138 0.02234649 0.00492334 0.03363057 0.00336219 0.00478886 0.01047081 0.00283954 0.00389584 0.00194104 0.00129665 
0.03682850 0.01372217 0.00986794 0.00133157 0.00182446 0.00250432 0.02244244 0.00499238 0.03347673 0.00333526 0.00485196 0.01101015 0.00287657 0.00395821 0.00195933 0.00129556 
0.03691332 0.01394080 0.00978818 0.00136252 0.00180355 0.00251575 0.02250206 0.00505609 0.03330136 0.00330481 0.00490815 0.01155348 0.00291715 0.00401550 0.00197713 0.00129428 
0.03705588 0.01414970 0.00969827 0.00139401 0.00178312 0.00252553 0.02252518 0.00511427 0.03310525 0.00327097 0.00495724 0.01209955 0.00296133 0.00406763 0.00199444 0.00129284 
0.03725150 0.01434799 0.00959846 0.00142595 0.00176315 0.00253357 0.02251180 0.00516673 0.03288928 0.00323385 0.00499902 0.01264712 0.00300915 0.00411452 0.00201126 0.00129123 
0.03749529 0.01453487 0.00948903 0.00145823 0.00174358 0.00253977 0.02246205 0.00521336 0.03265440 0.00319361 0.00503335 0.01319492 0.00306062 0.00415616 0.00202759 0.00128948 
0.03778224 0.01470960 0.00937038 0.00149076 0.00172440 0.00254402 0.02237625 0.00525403 0.03240164 0.00315038 0.00506010 0.01374168 0.00311575 0.00419253 0.00204344 0.00128760 
0.03810723 0.01487154 0.00924290 0.00152345 0.00170555 0.00254625 0.02225486 0.00528869 0.03213211 0.00310434 0.00507917 0.01428612 0.00317452 0.00422367 0.00205884 0.00128560 
0.03846503 0.01502010 0.00910707 0.00155620 0.00168699 0.00254638 0.02209851 0.00531731 0.03184697 0.00305566 0.00509051 0.01482700 0.00323692 0.00424962 0.00207382 0.00128351 
0.03885039 0.01515479 0.00896342 0.00158889 0.00166869 0.00254436 0.02190798 0.00533989 0.03154745 0.00300451 0.00509410 0.01536304 0.00330288 0.00427046 0.00208841 0.00128134 
0.03925804 0.01527522 0.00881250 0.00162144 0.00165060 0.00254013 0.02168418 0.00535648 0.03123484 0.00295108 0.00508994 0.01589302 0.00337236 0.00428630 0.00210267 0.00127911 
0.03968273 0.01538104 0.00865493 0.00165374 0.00163269 0.00253367 0.02142821 0.00536717 0.03091049 0.00289559 0.00507807 0.01641572 0.00344527 0.00429726 0.00211666 0.00127683 
0.04011924 0.01547204 0.00849138 0.00168569 0.00161492 0.00252493 0.02114125 0.00537207 0.03057581 0.00283822 0.00505857 0.01692996 0.00352152 0.00430349 0.00213043 0.00127453 
0.04056243 0.01554807 0.00832251 0.00171719 0.00159725 0.00251392 0.02082466 0.00537132 0.03023222 0.00277920 0.00503155 0.01743458 0.00360099 0.00430516 0.00214407 0.00127222 
0.04100729 0.01560906 0.00814907 0.00174812 0.00157965 0.00250063 0.02047991 0.00536513 0.02988122 0.00271875 0.00499715 0.01792848 0.00368356 0.00430247 0.00215765 0.00126992 
0.04144892 0.01565506 0.00797180 0.00177841 0.00156210 0.00248509 0.02010857 0.00535369 0.02952433 0.00265709 0.00495556 0.01841057 0.00376908 0.00429564 0.00217126 0.00126764 
0.04188258 0.01568618 0.00779148 0.00180793 0.00154456 0.00246731 0.01971234 0.00533727 0.02916309 0.00259446 0.00490697 0.01887984 0.00385741 0.00428489 0.00218500 0.00126541 
0.04230371 0.01570263 0.00760892 0.00183660 0.00152701 0.00244735 0.01929301 0.00531613 0.02879908 0.00253108 0.00485163 0.01933531 0.00394835 0.00427046 0.00219896 0.00126325 
0.04270799 0.01570472 0.00742494 0.00186432 0.00150944 0.00242525 0.01885248 0.00529057 0.02843390 0.00246720 0.00478980 0.01977608 0.00404174 0.00425263 0.00221325 0.00126116 
0.04309128 0.01569281 0.00724036 0.00189101 0.00149183 0.00240109 0.01839270 0.00526093 0.02806915 0.00240305 0.00472179 0.02020128 0.00413736 0.00423167 0.00222799 0.00125917 
0.04344972 0.01566739 0.00705602 0.00191656 0.00147416 0.00237493 0.01791572 0.00522756 0.02770646 0.00233888 0.00464792 0.02061012 0.00423502 0.00420786 0.00224329 0.00125729 
0.04377971 0.01562898 0.00687277 0.00194090 0.00145644 0.00234688 0.01742362 0.00519080 0.02734743 0.00227492 0.00456853 0.02100188 0.00433448 0.00418150 0.00225925 0.00125553 
0.04407792 0.01557822 0.00669143 0.00196395 0.00143866 0.00231703 0.01691856 0.00515106 0.02699369 0.00221142 0.00448400 0.02137590 0.00443553 0.00415289 0.00227602 0.00125392 
0.04434133 0.01551579 0.00651286 0.00198563 0.00142082 0.00228549 0.01640272 0.00510872 0.02664685 0.00214861 0.00439473 0.02173158 0.00453792 0.00412234 0.00229370 0.00125245 
0.04456721 0.01544248 0.00633786 0.00200587 0.00140294 0.00225239 0.01587831 0.00506420 0.02630850 0.00208673 0.00430114 0.02206843 0.00464142 0.00409017 0.00231241 0.00125115 
0.04475316 0.01535910 0.00616724 0.00202462 0.00138501 0.00221784 0.01534757 0.00501791 0.02598020 0.00202600 0.00420365 0.02238599 0.00474576 0.00405668 0.00233229 0.00125002 
0.04489710 0.01526656 0.00600180 0.00204182 0.00136706 0.00218198 0.01481271 0.00497026 0.02566351 0.00196665 0.00410272 0.02268391 0.00485071 0.00402219 0.00235345 0.00124907 
0.04499728 0.01516583 0.00584228 0.00205741 0.00134911 0.00214496 0.01427598 0.00492169 0.02535993 0.00190889 0.00399881 0.02296188 0.00495601 0.00398701 0.00237601 0.00124832 
0.04505229 0.01505790 0.00568943 0.00207137 0.00133118 0.00210692 0.01373959 0.00487261 0.02507094 0.00185295 0.00389239 0.02321971 0.00506140 0.00395145 0.00240009 0.00124776 
0.04506103 0.01494384 0.00554394 0.00208366 0.00131329 0.00206802 0.01320571 0.00482343 0.02479797 0.00179901 0.00378395 0.02345724 0.00516664 0.00391580 0.00242580 0.00124741 
0.04502276 0.01482476 0.00540649 0.00209425 0.00129548 0.00202840 0.01267649 0.00477458 0.02454240 0.00174727 0.00367397 0.02367441 0.00527147 0.00388037 0.00245325 0.00124728 
0.04493707 0.01470181 0.00527768 0.00210314 0.00127777 0.00198822 0.01215404 0.00472644 0.02430555 0.00169792 0.00356296 0.02387124 0.00537564 0.00384544 0.00248254 0.00124735 
0.04480387 0.01457616 0.00515811 0.00211032 0.00126021 0.00194765 0.01164039 0.00467940 0.02408869 0.00165112 0.00345139 0.02404781 0.00547894 0.00381128 0.00251377 0.00124765 
0.04462339 0.01444904 0.00504829 0.00211581 0.00124283 0.00190683 0.01113752 0.00463383 0.02389302 0.00160704 0.00333976 0.02420427 0.00558111 0.00377816 0.00254703 0.00124816 
0.04439618 0.01432166 0.00494873 0.00211961 0.00122568 0.00186592 0.01064733 0.00459009 0.02371967 0.00156583 0.00322858 0.02434084 0.00568194 0.00374631 0.00258240 0.00124889 
0.04412309 0.01419530 0.00485984 0.00212176 0.00120879 0.00182509 0.01017163 0.00454852 0.02356969 0.00152762 0.00311830 0.02445782 0.00578123 0.00371598 0.00261994 0.00124984 
0.04380528 0.01407121 0.00478201 0.00212230 0.00119220 0.00178447 0.00971215 0.00450940 0.02344407 0.00149252 0.00300942 0.02455556 0.00587877 0.00368738 0.00265973 0.00125100 
0.04344416 0.01395067 0.00471554 0.00212128 0.00117597 0.00174423 0.00927052 0.00447305 0.02334369 0.00146066 0.00290240 0.02463447 0.00597439 0.00366071 0.00270181 0.00125237 
0.04304145 0.01383497 0.00466071 0.00211877 0.00116014 0.00170449 0.00884825 0.00443970 0.02326937 0.00143212 0.00279768 0.02469503 0.00606791 0.00363615 0.00274622 0.00125395 
0.04259909 0.01372536 0.00461772 0.00211482 0.00114475 0.00166540 0.00844677 0.00440960 0.02322183 0.00140698 0.00269570 0.02473778 0.00615918 0.00361386 0.00279299 0.00125574 
0.04211927 0.01362313 0.00458669 0.00210954 0.00112984 0.00162709 0.00806736 0.00438294 0.02320168 0.00138530 0.00259689 0.02476328 0.00624807 0.00359398 0.00284213 0.00125771 
0.04160440 0.01352952 0.00456772 0.00210302 0.00111547 0.00158968 0.00771119 0.00435990 0.02320946 0.00136713 0.00250163 0.02477217 0.00633447 0.00357663 0.00289364 0.00125987 
0.04105708 0.01344576 0.00456082 0.00209536 0.00110167 0.00155330 0.00737933 0.00434061 0.02324560 0.00135250 0.00241031 0.02476512 0.00641827 0.00356192 0.00294751 0.00126221 
0.04048013 0.01337307 0.00456594 0.00208668 0.00108849 0.00151803 0.00707270 0.00432518 0.02331043 0.00134144 0.00232328 0.02474285 0.00649940 0.00354992 0.00300371 0.00126471 
0.03987648 0.01331261 0.00458297 0.00207711 0.00107596 0.00148400 0.00679209 0.00431368 0.02340419 0.00133394 0.00224088 0.02470611 0.00657780 0.00354068 0.00306219 0.00126737 
0.03924925 0.01326553 0.00461175 0.00206679 0.00106413 0.00145128 0.00653816 0.00430616 0.02352699 0.00132999 0.00216340 0.02465567 0.00665343 0.00353425 0.00312290 0.00127017 
0.03860167 0.01323295 0.00465204 0.00205586 0.00105303 0.00141995 0.00631146 0.00430262 0.02367887 0.00132956 0.00209112 0.02459236 0.00672629 0.00353063 0.00318576 0.00127311 
0.03793707 0.01321590 0.00470356 0.00204448 0.00104269 0.00139010 0.00611237 0.00430304 0.02385974 0.00133261 0.00202429 0.02451701 0.00679637 0.00352981 0.00325069 0.00127616 
0.03725886 0.01321540 0.00476596 0.00203282 0.00103315 0.00136177 0.00594118 0.00430736 0.02406942 0.00133909 0.00196313 0.02443048 0.00686371 0.00353178 0.00331758 0.00127932 
0.03657052 0.01323242 0.00483885 0.00202104 0.00102442 0.00133503 0.00579802 0.00431550 0.02430761 0.00134892 0.00190783 0.02433364 0.00692834 0.00353647 0.00338630 0.00128257 
0.03587556 0.01326783 0.00492175 0.00200933 0.00101654 0.00130992 0.00568290 0.00432735 0.02457394 0.00136202 0.00185854 0.02422738 0.00699034 0.00354381 0.00345673 0.00128590 
0.03517753 0.01332249 0.00501418 0.00199787 0.00100952 0.00128646 0.00559571 0.00434275 0.02486790 0.00137830 0.00181539 0.02411260 0.00704980 0.00355373 0.00352871 0.00128928 
0.03447997 0.01339715 0.00511557 0.00198684 0.00100338 0.00126469 0.00553622 0.00436153 0.02518890 0.00139765 0.00177846 0.02399020 0.00710681 0.00356610 0.00360208 0.00129271 
0.03378639 0.01349252 0.00522533 0.00197645 0.00099813 0.00124461 0.00550406 0.00438351 0.02553625 0.00141994 0.00174783 0.02386109 0.00716151 0.00358081 0.00367665 0.00129617 
0.03310028 0.01360922 0.00534282 0.00196689 0.00099379 0.00122625 0.00549876 0.00440846 0.02590916 0.00144506 0.00172351 0.02372617 0.00721404 0.00359771 0.00375224 0.00129964 
0.03242506 0.01374780 0.00546734 0.00195835 0.00099034 0.00120958 0.00551975 0.00443614 0.02630675 0.00147287 0.00170550 0.02358635 0.00726456 0.00361665 0.00382864 0.00130311 
0.03176408 0.01390873 0.00559820 0.00195105 0.00098780 0.00119462 0.00556633 0.00446629 0.02672805 0.00150321 0.00169378 0.02344252 0.00731323 0.00363745 0.00390562 0.00130656 
0.03112059 0.01409240 0.00573463 0.00194516 0.00098615 0.00118133 0.00563772 0.00449864 0.02717199 0.00153594 0.00168826 0.02329556 0.00736025 0.00365993 0.00398297 0.00130997 
0.03049774 0.01429912 0.00587587 0.00194091 0.00098539 0.00116970 0.00573304 0.00453290 0.02763744 0.00157089 0.00168885 0.02314635 0.00740582 0.00368390 0.00406045 0.00131334 
0.02989854 0.01452909 0.00602111 0.00193847 0.00098551 0.00115970 0.00585133 0.00456877 0.02812316 0.00160789 0.00169543 0.02299575 0.00745013 0.00370915 0.00413780 0.00131663 
0.02932588 0.01478245 0.00616954 0.00193805 0.00098648 0.00115130 0.00599152 0.00460594 0.02862787 0.00164678 0.00170783 0.02284459 0.00749342 0.00373547 0.00421477 0.00131985 
0.02878247 0.01505924 0.00632033 0.00193983 0.00098829 0.00114446 0.00615250 0.00464409 0.02915018 0.00168738 0.00172587 0.02269371 0.00753591 0.00376265 0.00429111 0.00132297 
0.02827088 0.01535940 0.00647263 0.00194399 0.00099091 0.00113914 0.00633309 0.00468291 0.02968867 0.00172952 0.00174935 0.02254390 0.00757783 0.00379044 0.00436654 0.00132597 
0.02779348 0.01568278 0.00662558 0.00195070 0.00099431 0.00113530 0.00653202 0.00472209 0.03024182 0.00177300 0.00177802 0.02239595 0.00761941 0.00381864 0.00444079 0.00132885 
0.02735245 0.01602915 0.00677835 0.00196013 0.00099846 0.00113288 0.00674800 0.00476130 0.03080809 0.00181765 0.00181162 0.02225061 0.00766090 0.00384701 0.00451361 0.00133159 
0.02694979 0.01639818 0.00693008 0.00197243 0.00100331 0.00113185 0.00697968 0.00480023 0.03138586 0.00186329 0.00184988 0.02210862 0.00770254 0.00387532 0.00458471 0.00133418 
0.02658728 0.01678944 0.00707992 0.00198774 0.00100884 0.00113215 0.00722567 0.00483858 0.03197348 0.00190974 0.00189249 0.02197069 0.00774455 0.00390334 0.00465383 0.00133661 
0.02626649 0.01720240 0.00722705 0.00200621 0.00101499 0.00113373 0.00748457 0.00487606 0.03256925 0.00195682 0.00193913 0.02183749 0.00778718 0.00393086 0.00472070 0.00133886 
0.02598876 0.01763647 0.00737065 0.00202794 0.00102173 0.00113655 0.00775492 0.00491239 0.03317144 0.00200436 0.00198946 0.02170969 0.00783066 0.00395765 0.00478507 0.00134093 
0.02575521 0.01809094 0.00750993 0.00205304 0.00102899 0.00114056 0.00803529 0.00494730 0.03377829 0.00205217 0.00204313 0.02158790 0.00787521 0.00398350 0.00484668 0.00134280 
0.02556675 0.01856501 0.00764410 0.00208160 0.00103674 0.00114572 0.00832421 0.00498054 0.03438801 0.00210010 0.00209979 0.02147273 0.00792104 0.00400820 0.00490529 0.00134447 
0.02542405 0.01905780 0.00777243 0.00211369 0.00104491 0.00115198 0.00862021 0.00501188 0.03499880 0.00214797 0.00215904 0.02136475 0.00796837 0.00403158 0.00496067 0.00134593 
0.02532753 0.01956836 0.00789421 0.00214936 0.00105346 0.00115930 0.00892184 0.00504112 0.03560884 0.00219564 0.00222052 0.02126450 0.00801738 0.00405343 0.00501259 0.00134717 
0.02527741 0.02009562 0.00800875 0.00218866 0.00106233 0.00116765 0.00922766 0.00506806 0.03621631 0.00224294 0.00228382 0.02117249 0.00806827 0.00407360 0.00506086 0.00134819 
0.02527366 0.02063847 0.00811542 0.00223159 0.00107146 0.00117699 0.00953624 0.00509254 0.03681939 0.00228974 0.00234857 0.02108921 0.00812120 0.00409193 0.00510529 0.00134899 
0.02531603 0.02119568 0.00821363 0.00227816 0.00108079 0.00118730 0.00984619 0.00511442 0.03741626 0.00233589 0.00241435 0.02101511 0.00817633 0.00410827 0.00514569 0.00134955 
0.02540407 0.02176597 0.00830282 0.00232835 0.00109027 0.00119855 0.01015613 0.00513358 0.03800511 0.00238127 0.00248079 0.02095061 0.00823380 0.00412251 0.00518194 0.00134989 
0.02553707 0.02234800 0.00838249 0.00238212 0.00109983 0.00121072 0.01046474 0.00514995 0.03858416 0.00242575 0.00254748 0.02089611 0.00829372 0.00413453 0.00521389 0.00134999 
0.02571414 0.02294035 0.00845219 0.00243940 0.00110943 0.00122379 0.01077072 0.00516345 0.03915163 0.00246923 0.00261403 0.02085199 0.00835622 0.00414425 0.00524143 0.00134986 
0.02593418 0.02354152 0.00851152 0.00250011 0.00111899 0.00123777 0.01107283 0.00517405 0.03970580 0.00251158 0.00268007 0.02081857 0.00842137 0.00415159 0.00526449 0.00134949 
0.02619588 0.02414999 0.00856013 0.00256414 0.00112847 0.00125263 0.01136987 0.00518174 0.04024495 0.00255272 0.00274522 0.02079616 0.00848924 0.00415650 0.00528301 0.00134890 
0.02649775 0.02476417 0.00859775 0.00263138 0.00113781 0.00126838 0.01166071 0.00518655 0.04076742 0.00259256 0.00280911 0.02078505 0.00855989 0.00415896 0.00529696 0.00134809 
0.02683812 0.02538241 0.00862413 0.00270167 0.00114696 0.00128502 0.01194427 0.00518852 0.04127160 0.00263103 0.00287140 0.02078548 0.00863334 0.00415894 0.00530633 0.00134705 
0.02721515 0.02600305 0.00863912 0.00277484 0.00115586 0.00130256 0.01221953 0.00518772 0.04175592 0.00266804 0.00293175 0.02079767 0.00870960 0.00415646 0.00531115 0.00134580 
0.02762685 0.02662436 0.00864261 0.00285072 0.00116446 0.00132102 0.01248553 0.00518425 0.04221885 0.00270354 0.00298984 0.02082181 0.00878866 0.00415154 0.00531146 0.00134434 
0.02807105 0.02724462 0.00863454 0.00292909 0.00117271 0.00134039 0.01274138 0.00517822 0.04265896 0.00273748 0.00304536 0.02085806 0.00887050 0.00414423 0.00530736 0.00134269 
0.02854549 0.02786206 0.00861493 0.00300972 0.00118057 0.00136071 0.01298626 0.00516978 0.04307484 0.00276981 0.00309802 0.02090654 0.00895506 0.00413459 0.00529896 0.00134084 
0.02904775 0.02847490 0.00858385 0.00309238 0.00118800 0.00138199 0.01321943 0.00515909 0.04346520 0.00280049 0.00314756 0.02096735 0.00904227 0.00412271 0.00528639 0.00133881 
0.02957530 0.02908137 0.00854145 0.00317680 0.00119495 0.00140426 0.01344019 0.00514633 0.04382876 0.00282951 0.00319374 0.02104056 0.00913204 0.00410869 0.00526982 0.00133661 
0.03012554 0.02967967 0.00848792 0.00326270 0.00120139 0.00142754 0.01364794 0.00513170 0.04416439 0.00285682 0.00323632 0.02112620 0.00922427 0.00409266 0.00524946 0.00133424 
0.03069575 0.03026802 0.00842351 0.00334979 0.00120728 0.00145186 0.01384214 0.00511542 0.04447098 0.00288244 0.00327511 0.02122428 0.00931882 0.00407474 0.00522554 0.00133174 
0.03128317 0.03084466 0.00834854 0.00343776 0.00121259 0.00147723 0.01402232 0.00509771 0.04474754 0.00290633 0.00330992 0.02133475 0.00941555 0.00405509 0.00519831 0.00132909 
0.03188495 0.03140784 0.00826337 0.00352629 0.00121729 0.00150369 0.01418808 0.00507881 0.04499316 0.00292851 0.00334062 0.02145756 0.00951429 0.00403389 0.00516805 0.00132633 
0.03249822 0.03195585 0.00816844 0.00361504 0.00122135 0.00153127 0.01433910 0.00505898 0.04520703 0.00294899 0.00336706 0.02159262 0.00961487 0.00401130 0.00513507 0.00132346 
0.03312006 0.03248699 0.00806422 0.00370368 0.00122476 0.00155998 0.01447511 0.00503845 0.04538843 0.00296775 0.00338914 0.02173978 0.00971709 0.00398752 0.00509971 0.00132049 
0.03374756 0.03299964 0.00795123 0.00379185 0.00122750 0.00158984 0.01459591 0.00501750 0.04553672 0.00298484 0.00340678 0.02189888 0.00982072 0.00396276 0.00506232 0.00131745 
0.03437776 0.03349221 0.00783006 0.00387919 0.00122955 0.00162088 0.01470138 0.00499638 0.04565140 0.00300025 0.00341993 0.02206973 0.00992555 0.00393721 0.00502328 0.00131434 
0.03500775 0.03396316 0.00770131 0.00396535 0.00123091 0.00165311 0.01479146 0.00497536 0.04573203 0.00301402 0.00342856 0.02225210 0.01003133 0.00391111 0.00498299 0.00131119 
0.03563462 0.03441102 0.00756566 0.00404995 0.00123155 0.00168653 0.01486612 0.00495468 0.04577831 0.00302617 0.00343266 0.02244571 0.01013781 0.00388467 0.00494186 0.00130800 
0.03625550 0.03483440 0.00742380 0.00413263 0.00123149 0.00172115 0.01492541 0.00493462 0.04579002 0.00303672 0.00343225 0.02265027 0.01024471 0.00385812 0.00490032 0.00130480 
0.03686758 0.03523199 0.00727647 0.00421303 0.00123071 0.00175698 0.01496945 0.00491539 0.04576706 0.00304571 0.00342738 0.02286544 0.01035176 0.00383169 0.00485881 0.00130160 
0.03746807 0.03560255 0.00712442 0.00429078 0.00122923 0.00179399 0.01499838 0.00489725 0.04570943 0.00305317 0.00341811 0.02309086 0.01045867 0.00380561 0.00481778 0.00129842 
0.03805428 0.03594495 0.00696847 0.00436552 0.00122704 0.00183219 0.01501241 0.00488042 0.04561724 0.00305913 0.00340452 0.02332613 0.01056513 0.00378010 0.00477770 0.00129526 
0.03862360 0.03625815 0.00680942 0.00443691 0.00122415 0.00187154 0.01501178 0.00486510 0.04549071 0.00306361 0.00338674 0.02357083 0.01067084 0.00375539 0.00473903 0.00129215 
0.03917350 0.03654120 0.00664811 0.00450459 0.00122058 0.00191203 0.01499677 0.00485148 0.04533016 0.00306666 0.00336488 0.02382450 0.01077549 0.00373170 0.00470223 0.00128911 
0.03970154 0.03679328 0.00648540 0.00456824 0.00121634 0.00195361 0.01496772 0.00483975 0.04513602 0.00306831 0.00333909 0.02408665 0.01087874 0.00370924 0.00466778 0.00128614 
0.04020542 0.03701368 0.00632215 0.00462754 0.00121145 0.00199623 0.01492499 0.00483005 0.04490882 0.00306858 0.00330955 0.02435678 0.01098028 0.00368821 0.00463612 0.00128327 
0.04068293 0.03720180 0.00615924 0.00468217 0.00120591 0.00203985 0.01486895 0.00482253 0.04464920 0.00306750 0.00327643 0.02463434 0.01107977 0.00366881 0.00460772 0.00128050 
0.04113200 0.03735717 0.00599753 0.00473187 0.00119977 0.00208440 0.01480004 0.00481729 0.04435790 0.00306510 0.00323992 0.02491880 0.01117687 0.00365121 0.00458302 0.00127785 
0.04155068 0.03747944 0.00583792 0.00477635 0.00119302 0.00212980 0.01471869 0.00481443 0.04403575 0.00306142 0.00320025 0.02520957 0.01127125 0.00363559 0.00456245 0.00127533 
0.04193717 0.03756839 0.00568127 0.00481536 0.00118571 0.00217599 0.01462538 0.00481401 0.04368368 0.00305646 0.00315764 0.02550606 0.01136257 0.00362210 0.00454643 0.00127295 
0.04228980 0.03762395 0.00552845 0.00484869 0.00117786 0.00222287 0.01452057 0.00481607 0.04330272 0.00305027 0.00311231 0.02580768 0.01145049 0.00361087 0.00453535 0.00127074 
0.04260708 0.03764616 0.00538030 0.00487611 0.00116949 0.00227033 0.01440477 0.00482063 0.04289398 0.00304284 0.00306451 0.02611382 0.01153468 0.00360203 0.00452959 0.00126869 
0.04288763 0.03763521 0.00523766 0.00489746 0.00116064 0.00231828 0.01427850 0.00482767 0.04245864 0.00303421 0.00301450 0.02642386 0.01161481 0.00359568 0.00452950 0.00126682 
0.04313027 0.03759141 0.00510134 0.00491258 0.00115132 0.00236660 0.01414226 0.00483717 0.04199800 0.00302439 0.00296252 0.02673719 0.01169054 0.00359191 0.00453540 0.00126513 
0.04333395 0.03751523 0.00497214 0.00492134 0.00114158 0.00241517 0.01399659 0.00484904 0.04151339 0.00301339 0.00290884 0.02705320 0.01176155 0.00359079 0.00454759 0.00126364 
0.04349780 0.03740726 0.00485081 0.00492364 0.00113144 0.00246385 0.01384201 0.00486322 0.04100625 0.00300122 0.00285372 0.02737129 0.01182753 0.00359234 0.00456633 0.00126236 
0.04362109 0.03726822 0.00473810 0.00491942 0.00112093 0.00251250 0.01367907 0.00487957 0.04047806 0.00298789 0.00279743 0.02769086 0.01188817 0.00359662 0.00459183 0.00126128 
0.04370329 0.03709898 0.00463468 0.00490864 0.00111009 0.00256100 0.01350829 0.00489797 0.03993037 0.00297341 0.00274023 0.02801135 0.01194317 0.00360361 0.00462431 0.00126042 
0.04374399 0.03690052 0.00454123 0.00489128 0.00109895 0.00260917 0.01333021 0.00491825 0.03936478 0.00295779 0.00268238 0.02833220 0.01199225 0.00361330 0.00466390 0.00125979 
0.04374298 0.03667397 0.00445836 0.00486738 0.00108752 0.00265688 0.01314537 0.00494023 0.03878294 0.00294102 0.00262414 0.02865291 0.01203513 0.00362566 0.00471072 0.00125937 
0.04370019 0.03642057 0.00438665 0.00483698 0.00107586 0.00270396 0.01295430 0.00496369 0.03818654 0.00292311 0.00256577 0.02897297 0.01207155 0.00364063 0.00476484 0.00125919 
0.04361571 0.03614166 0.00432662 0.00480017 0.00106398 0.00275025 0.01275751 0.00498842 0.03757733 0.00290406 0.00250751 0.02929194 0.01210126 0.00365814 0.00482629 0.00125923 
0.04348979 0.03583871 0.00427876 0.00475707 0.00105191 0.00279558 0.01255554 0.00501416 0.03695704 0.00288388 0.00244961 0.02960942 0.01212404 0.00367809 0.00489506 0.00125951 
0.04332283 0.03551331 0.00424351 0.00470783 0.00103968 0.00283980 0.01234890 0.00504065 0.03632748 0.00286257 0.00239229 0.02992504 0.01213968 0.00370037 0.00497108 0.00126001 
0.04311539 0.03516713 0.00422124 0.00465262 0.00102733 0.00288273 0.01213810 0.00506761 0.03569042 0.00284012 0.00233578 0.03023851 0.01214799 0.00372485 0.00505427 0.00126075 
0.04286814 0.03480193 0.00421227 0.00459165 0.00101486 0.00292420 0.01192364 0.00509476 0.03504769 0.00281654 0.00228030 0.03054957 0.01214880 0.00375140 0.00514447 0.00126172 
0.04258192 0.03441956 0.00421688 0.00452515 0.00100231 0.00296407 0.01170604 0.00512178 0.03440109 0.00279184 0.00222604 0.03085805 0.01214197 0.00377983 0.00524149 0.00126291 
0.04225770 0.03402195 0.00423529 0.00445340 0.00098971 0.00300215 0.01148577 0.00514838 0.03375242 0.00276602 0.00217319 0.03116383 0.01212737 0.00381000 0.00534510 0.00126432 
0.04189655 0.03361108 0.00426766 0.00437669 0.00097706 0.00303831 0.01126334 0.00517422 0.03310349 0.00273909 0.00212194 0.03146687 0.01210491 0.00384170 0.00545504 0.00126595 
0.04149970 0.03318901 0.00431408 0.00429533 0.00096440 0.00307237 0.01103923 0.00519899 0.03245607 0.00271105 0.00207243 0.03176720 0.01207452 0.00387475 0.00557098 0.00126779 
0.04106845 0.03275782 0.00437460 0.00420967 0.00095175 0.00310421 0.01081394 0.00522237 0.03181192 0.00268193 0.00202483 0.03206494 0.01203616 0.00390893 0.00569257 0.00126983 
0.04060424 0.03231965 0.00444920 0.00412006 0.00093911 0.00313367 0.01058793 0.00524402 0.03117277 0.00265173 0.00197926 0.03236027 0.01198981 0.00394405 0.00581942 0.00127208 
0.04010859 0.03187663 0.00453782 0.00402690 0.00092650 0.00316063 0.01036170 0.00526363 0.03054030 0.00262048 0.00193585 0.03265348 0.01193549 0.00397989 0.00595110 0.00127451 
0.03958310 0.03143094 0.00464032 0.00393058 0.00091395 0.00318496 0.01013573 0.00528088 0.02991617 0.00258820 0.00189470 0.03294493 0.01187326 0.00401622 0.00608716 0.00127713 
0.03902949 0.03098474 0.00475651 0.00383153 0.00090146 0.00320655 0.00991050 0.00529546 0.02930198 0.00255491 0.00185591 0.03323507 0.01180318 0.00405282 0.00622710 0.00127992 
0.03844952 0.03054017 0.00488615 0.00373019 0.00088904 0.00322530 0.00968651 0.00530707 0.02869927 0.00252066 0.00181954 0.03352446 0.01172538 0.00408949 0.00637040 0.00128287 
0.03784501 0.03009938 0.00502894 0.00362699 0.00087671 0.00324112 0.00946424 0.00531543 0.02810954 0.00248547 0.00178566 0.03381374 0.01163999 0.00412600 0.00651652 0.00128597 
0.03721788 0.02966444 0.00518453 0.00352239 0.00086447 0.00325394 0.00924419 0.00532026 0.02753421 0.00244940 0.00175431 0.03410362 0.01154719 0.00416215 0.00666490 0.00128921 
0.03657005 0.02923742 0.00535251 0.00341686 0.00085234 0.00326368 0.00902687 0.00532132 0.02697465 0.00241248 0.00172553 0.03439494 0.01144719 0.00419772 0.00681495 0.00129259 
0.03590352 0.02882029 0.00553243 0.00331087 0.00084032 0.00327030 0.00881279 0.00531836 0.02643215 0.00237477 0.00169934 0.03468860 0.01134024 0.00423253 0.00696608 0.00129607 
0.03522029 0.02841497 0.00572378 0.00320489 0.00082841 0.00327375 0.00860246 0.00531116 0.02590791 0.00233634 0.00167574 0.03498560 0.01122662 0.00426640 0.00711768 0.00129966 
0.03452240 0.02802329 0.00592600 0.00309938 0.00081663 0.00327403 0.00839641 0.00529955 0.02540309 0.00229723 0.00165472 0.03528704 0.01110663 0.00429914 0.00726913 0.00130334 
0.03381190 0.02764700 0.00613852 0.00299482 0.00080497 0.00327113 0.00819518 0.00528334 0.02491872 0.00225753 0.00163626 0.03559410 0.01098061 0.00433061 0.00741982 0.00130710 
0.03309086 0.02728772 0.00636067 0.00289167 0.00079345 0.00326505 0.00799933 0.00526240 0.02445578 0.00221730 0.00162034 0.03590802 0.01084894 0.00436066 0.00756912 0.00131092 
0.03236133 0.02694697 0.00659180 0.00279038 0.00078206 0.00325583 0.00780941 0.00523661 0.02401515 0.00217662 0.00160691 0.03623016 0.01071203 0.00438917 0.00771644 0.00131479 
0.03162535 0.02662615 0.00683117 0.00269140 0.00077082 0.00324350 0.00762599 0.00520590 0.02359762 0.00213559 0.00159592 0.03656193 0.01057031 0.00441604 0.00786116 0.00131869 
0.03088497 0.02632652 0.00707806 0.00259517 0.00075973 0.00322813 0.00744965 0.00517019 0.02320391 0.00209428 0.00158731 0.03690480 0.01042425 0.00444117 0.00800270 0.00132261 
0.03014218 0.02604919 0.00733168 0.00250209 0.00074878 0.00320979 0.00728098 0.00512948 0.02283462 0.00205280 0.00158101 0.03726035 0.01027433 0.00446451 0.00814049 0.00132654 
0.02939896 0.02579513 0.00759122 0.00241256 0.00073800 0.00318858 0.00712060 0.00508376 0.02249027 0.00201123 0.00157694 0.03763019 0.01012108 0.00448601 0.00827398 0.00133046 
0.02865726 0.02556515 0.00785585 0.00232698 0.00072737 0.00316459 0.00696911 0.00503309 0.02217129 0.00196969 0.00157502 0.03801599 0.00996502 0.00450566 0.00840265 0.00133435 
0.02791896 0.02535989 0.00812474 0.00224569 0.00071692 0.00313796 0.00682712 0.00497753 0.02187802 0.00192828 0.00157516 0.03841948 0.00980674 0.00452345 0.00852599 0.00133821 
0.02718591 0.02517984 0.00839701 0.00216903 0.00070664 0.00310882 0.00669528 0.00491718 0.02161071 0.00188710 0.00157726 0.03884243 0.00964680 0.00453943 0.00864355 0.00134201 
0.02645990 0.02502530 0.00867178 0.00209730 0.00069655 0.00307732 0.00657422 0.00485219 0.02136952 0.00184627 0.00158123 0.03928665 0.00948582 0.00455362 0.00875490 0.00134574 
0.02574264 0.02489641 0.00894817 0.00203079 0.00068665 0.00304363 0.00646457 0.00478273 0.02115450 0.00180590 0.00158697 0.03975400 0.00932440 0.00456612 0.00885966 0.00134940 
0.02503581 0.02479312 0.00922527 0.00196976 0.00067696 0.00300793 0.00636697 0.00470900 0.02096566 0.00176610 0.00159437 0.04024633 0.00916317 0.00457702 0.00895747 0.00135295 
0.02434097 0.02471522 0.00950221 0.00191441 0.00066749 0.00297040 0.00628208 0.00463124 0.02080287 0.00172699 0.00160333 0.04076553 0.00900277 0.00458645 0.00904805 0.00135640 
0.02365964 0.02466231 0.00977807 0.00186494 0.00065826 0.00293126 0.00621051 0.00454971 0.02066596 0.00168869 0.00161374 0.04131351 0.00884385 0.00459454 0.00913113 0.00135973 
0.02299325 0.02463384 0.01005197 0.00182151 0.00064927 0.00289072 0.00615291 0.00446470 0.02055467 0.00165130 0.00162550 0.04189217 0.00868705 0.00460147 0.00920651 0.00136292 
0.02234315 0.02462905 0.01032303 0.00178424 0.00064055 0.00284899 0.00610991 0.00437655 0.02046865 0.00161495 0.00163851 0.04250340 0.00853303 0.00460743 0.00927405 0.00136596 
0.02171060 0.02464706 0.01059038 0.00175322 0.00063211 0.00280631 0.00608210 0.00428559 0.02040749 0.00157974 0.00165265 0.04314910 0.00838242 0.00461261 0.00933365 0.00136885 
0.02109678 0.02468680 0.01085317 0.00172851 0.00062399 0.00276291 0.00607010 0.00419221 0.02037072 0.00154580 0.00166784 0.04383112 0.00823587 0.00461726 0.00938526 0.00137157 
0.02050276 0.02474706 0.01111056 0.00171012 0.00061619 0.00271903 0.00607448 0.00409680 0.02035779 0.00151321 0.00168397 0.04455131 0.00809402 0.00462161 0.00942890 0.00137410 
0.01992954 0.02482648 0.01136174 0.00169805 0.00060875 0.00267494 0.00609579 0.00399978 0.02036808 0.00148210 0.00170096 0.04531148 0.00795747 0.00462591 0.00946463 0.00137645 
0.01937801 0.02492356 0.01160593 0.00169223 0.00060168 0.00263086 0.00613457 0.00390160 0.02040095 0.00145256 0.00171871 0.04611337 0.00782685 0.00463046 0.00949259 0.00137860 
0.01884899 0.02503670 0.01184237 0.00169259 0.00059503 0.00258706 0.00619132 0.00380270 0.02045567 0.00142469 0.00173713 0.04695869 0.00770272 0.00463552 0.00951296 0.00138054 
0.01834319 0.02516416 0.01207033 0.00169900 0.00058882 0.00254380 0.00626650 0.00370357 0.02053149 0.00139858 0.00175615 0.04784909 0.00758566 0.00464139 0.00952597 0.00138226 
0.01786123 0.02530411 0.01228914 0.00171133 0.00058307 0.00250131 0.00636053 0.00360467 0.02062760 0.00137432 0.00177568 0.04878614 0.00747621 0.00464838 0.00953192 0.00138377 
0.01740363 0.02545462 0.01249813 0.00172937 0.00057783 0.00245985 0.00647380 0.00350652 0.02074316 0.00135198 0.00179567 0.04977134 0.00737486 0.00465680 0.00953116 0.00138505 
0.01697085 0.02561372 0.01269671 0.00175292 0.00057313 0.00241966 0.00660666 0.00340959 0.02087731 0.00133165 0.00181604 0.05080609 0.00728211 0.00466694 0.00952409 0.00138609 
0.01656322 0.02577933 0.01288429 0.00178173 0.00056900 0.00238099 0.00675937 0.00331441 0.02102913 0.00131339 0.00183673 0.05189170 0.00719839 0.00467913 0.00951116 0.00138690 
0.01618101 0.02594938 0.01306036 0.00181553 0.00056547 0.00234407 0.00693219 0.00322147 0.02119772 0.00129726 0.00185770 0.05302939 0.00712411 0.00469367 0.00949287 0.00138747 
0.01582441 0.02612173 0.01322443 0.00185401 0.00056259 0.00230911 0.00712526 0.00313128 0.02138211 0.00128331 0.00187888 0.05422025 0.00705963 0.00471086 0.00946977 0.00138780 
0.01549350 0.02629426 0.01337609 0.00189686 0.00056039 0.00227635 0.00733872 0.00304434 0.02158138 0.00127159 0.00190024 0.05546524 0.00700528 0.00473101 0.00944245 0.00138788 
0.01518833 0.02646483 0.01351495 0.00194372 0.00055891 0.00224598 0.00757259 0.00296115 0.02179455 0.00126214 0.00192174 0.05676522 0.00696133 0.00475441 0.00941154 0.00138773 
0.01490882 0.02663136 0.01364068 0.00199422 0.00055818 0.00221820 0.00782685 0.00288218 0.02202065 0.00125499 0.00194335 0.05812087 0.00692801 0.00478133 0.00937771 0.00138733 
0.01465486 0.02679176 0.01375300 0.00204798 0.00055825 0.00219319 0.00810140 0.00280790 0.02225873 0.00125016 0.00196504 0.05953276 0.00690551 0.00481203 0.00934167 0.00138669 
0.01442626 0.02694405 0.01385170 0.00210459 0.00055914 0.00217111 0.00839606 0.00273877 0.02250782 0.00124766 0.00198678 0.06100127 0.00689395 0.00484677 0.00930414 0.00138582 
0.01422278 0.02708628 0.01393660 0.00216363 0.00056089 0.00215212 0.00871057 0.00267523 0.02276698 0.00124750 0.00200855 0.06252662 0.00689342 0.00488578 0.00926588 0.00138471 
0.01404410 0.02721661 0.01400759 0.00222468 0.00056354 0.00213635 0.00904461 0.00261768 0.02303527 0.00124967 0.00203035 0.06410888 0.00690393 0.00492925 0.00922768 0.00138338 
0.01388987 0.02733332 0.01406459 0.00228728 0.00056712 0.00212393 0.00939775 0.00256653 0.02331176 0.00125417 0.00205215 0.06574791 0.00692546 0.00497739 0.00919032 0.00138182 
0.01375968 0.02743479 0.01410762 0.00235100 0.00057165 0.00211494 0.00976948 0.00252214 0.02359557 0.00126097 0.00207395 0.06744338 0.00695792 0.00503035 0.00915463 0.00138005 
0.01365310 0.02751955 0.01413670 0.00241539 0.00057717 0.00210949 0.01015923 0.00248484 0.02388580 0.00127006 0.00209574 0.06919477 0.00700117 0.00508826 0.00912141 0.00137808 
0.01356963 0.02758627 0.01415193 0.00248000 0.00058370 0.00210762 0.01056630 0.00245493 0.02418161 0.00128138 0.00211752 0.07100133 0.00705501 0.00515124 0.00909149 0.00137590 
0.01350877 0.02763379 0.01415346 0.00254437 0.00059126 0.00210939 0.01098994 0.00243271 0.02448217 0.00129491 0.00213929 0.07286212 0.00711920 0.00521937 0.00906570 0.00137354 
0.01346998 0.02766112 0.01414150 0.00260806 0.00059987 0.00211482 0.01142931 0.00241840 0.02478669 0.00131060 0.00216103 0.07477597 0.00719344 0.00529269 0.00904483 0.00137101 
0.01345269 0.02766747 0.01411628 0.00267064 0.00060954 0.00212391 0.01188345 0.00241220 0.02509441 0.00132838 0.00218276 0.07674145 0.00727735 0.00537122 0.00902970 0.00136831 
0.01345635 0.02765224 0.01407811 0.00273168 0.00062029 0.00213665 0.01235137 0.00241429 0.02540460 0.00134819 0.00220446 0.07875693 0.00737054 0.00545495 0.00902109 0.00136545 
0.01348035 0.02761503 0.01402733 0.00279076 0.00063212 0.00215301 0.01283195 0.00242478 0.02571656 0.00136997 0.00222615 0.08082053 0.00747254 0.00554382 0.00901977 0.00136246 
0.01352412 0.02755563 0.01396433 0.00284748 0.00064503 0.00217292 0.01332402 0.00244377 0.02602965 0.00139364 0.00224781 0.08293009 0.00758284 0.00563776 0.00902648 0.00135934 
0.01358707 0.02747409 0.01388953 0.00290145 0.00065903 0.00219631 0.01382630 0.00247130 0.02634323 0.00141912 0.00226945 0.08508324 0.00770089 0.00573666 0.00904192 0.00135611 
0.01366860 0.02737065 0.01380341 0.00295231 0.00067410 0.00222310 0.01433747 0.00250737 0.02665671 0.00144633 0.00229105 0.08727732 0.00782609 0.00584035 0.00906677 0.00135278 
0.01376814 0.02724576 0.01370648 0.00299972 0.00069023 0.00225315 0.01485613 0.00255195 0.02696955 0.00147518 0.00231261 0.08950943 0.00795780 0.00594867 0.00910167 0.00134938 
0.01388512 0.02710012 0.01359928 0.00304335 0.00070741 0.00228634 0.01538079 0.00260495 0.02728124 0.00150557 0.00233413 0.09177640 0.00809534 0.00606139 0.00914721 0.00134590 
0.01401900 0.02693462 0.01348240 0.00308291 0.00072561 0.00232251 0.01590993 0.00266625 0.02759128 0.00153741 0.00235558 0.09407480 0.00823801 0.00617827 0.00920393 0.00134238 
0.01416924 0.02675038 0.01335645 0.00311813 0.00074481 0.00236151 0.01644195 0.00273568 0.02789923 0.00157060 0.00237695 0.09640094 0.00838505 0.00629903 0.00927232 0.00133883 
0.01433532 0.02654873 0.01322207 0.00314878 0.00076496 0.00240313 0.01697520 0.00281304 0.02820467 0.00160503 0.00239822 0.09875087 0.00853569 0.00642335 0.00935283 0.00133526 
0.01451677 0.02633119 0.01307993 0.00317463 0.00078603 0.00244719 0.01750800 0.00289806 0.02850721 0.00164060 0.00241937 0.10112037 0.00868914 0.00655091 0.00944583 0.00133169 
0.01471310 0.02609949 0.01293071 0.00319552 0.00080798 0.00249346 0.01803863 0.00299048 0.02880650 0.00167720 0.00244037 0.10350498 0.00884460 0.00668132 0.00955163 0.00132814 
0.01492390 0.02585553 0.01277514 0.00321129 0.00083076 0.00254171 0.01856531 0.00308994 0.02910219 0.00171472 0.00246118 0.10590000 0.00900122 0.00681421 0.00967050 0.00132463 
0.01514873 0.02560139 0.01261393 0.00322184 0.00085430 0.00259170 0.01908626 0.00319610 0.02939399 0.00175306 0.00248178 0.10830048 0.00915817 0.00694915 0.00980261 0.00132117 
0.01538723 0.02533929 0.01244784 0.00322708 0.00087855 0.00264319 0.01959969 0.00330853 0.02968159 0.00179209 0.00250212 0.11070123 0.00931461 0.00708570 0.00994808 0.00131778 
0.01563903 0.02507162 0.01227763 0.00322697 0.00090345 0.00269589 0.02010377 0.00342682 0.02996473 0.00183173 0.00252216 0.11309686 0.00946969 0.00722340 0.01010696 0.00131447 
0.01590380 0.02480087 0.01210405 0.00322150 0.00092892 0.00274956 0.02059670 0.00355047 0.03024315 0.00187184 0.00254185 0.11548176 0.00962257 0.00736178 0.01027921 0.00131126 
0.01618123 0.02452965 0.01192790 0.00321069 0.00095489 0.00280390 0.02107665 0.00367900 0.03051660 0.00191232 0.00256113 0.11785013 0.00977241 0.00750034 0.01046475 0.00130817 
0.01647104 0.02426065 0.01174994 0.00319460 0.00098128 0.00285863 0.02154184 0.00381188 0.03078485 0.00195306 0.00257995 0.12019598 0.00991839 0.00763858 0.01066338 0.00130520 
0.01677297 0.02399664 0.01157096 0.00317331 0.00100800 0.00291347 0.02199049 0.00394854 0.03104768 0.00199394 0.00259825 0.12251318 0.01005970 0.00777597 0.01087487 0.00130239 
0.01708677 0.02374043 0.01139174 0.00314696 0.00103498 0.00296812 0.02242086 0.00408841 0.03130484 0.00203487 0.00261595 0.12479544 0.01019557 0.00791199 0.01109888 0.00129973 
0.01741220 0.02349486 0.01121306 0.00311570 0.00106212 0.00302229 0.02283125 0.00423089 0.03155612 0.00207574 0.00263301 0.12703636 0.01032523 0.00804612 0.01133501 0.00129724 
0.01774906 0.02326276 0.01103568 0.00307971 0.00108933 0.00307570 0.02321999 0.00437536 0.03180129 0.00211643 0.00264933 0.12922943 0.01044796 0.00817783 0.01158279 0.00129494 
0.01809712 0.02304695 0.01086038 0.00303921 0.00111652 0.00312805 0.02358549 0.00452119 0.03204012 0.00215684 0.00266486 0.13136808 0.01056306 0.00830657 0.01184168 0.00129283 
0.01845617 0.02285022 0.01068789 0.00299445 0.00114359 0.00317907 0.02392621 0.00466774 0.03227235 0.00219687 0.00267950 0.13344567 0.01066989 0.00843184 0.01211105 0.00129093 
0.01882600 0.02267527 0.01051897 0.00294569 0.00117045 0.00322846 0.02424068 0.00481436 0.03249774 0.00223641 0.00269319 0.13545554 0.01076783 0.00855309 0.01239023 0.00128924 
0.01920639 0.02252472 0.01035432 0.00289324 0.00119699 0.00327597 0.02452753 0.00496039 0.03271603 0.00227538 0.00270585 0.13739106 0.01085632 0.00866983 0.01267844 0.00128778 
0.01959711 0.02240110 0.01019466 0.00283742 0.00122314 0.00332133 0.02478545 0.00510517 0.03292692 0.00231366 0.00271738 0.13924561 0.01093483 0.00878156 0.01297489 0.00128654 
0.01999791 0.02230677 0.01004067 0.00277855 0.00124878 0.00336428 0.02501323 0.00524804 0.03313012 0.00235117 0.00272772 0.14101264 0.01100292 0.00888779 0.01327868 0.00128554 
0.02040851 0.02224395 0.00989300 0.00271701 0.00127382 0.00340458 0.02520977 0.00538836 0.03332530 0.00238780 0.00273678 0.14268569 0.01106016 0.00898805 0.01358889 0.00128478 
0.02082860 0.02221470 0.00975230 0.00265317 0.00129818 0.00344201 0.02537408 0.00552547 0.03351213 0.00242347 0.00274447 0.14425844 0.01110622 0.00908189 0.01390453 0.00128427 
0.02125786 0.02222086 0.00961917 0.00258742 0.00132175 0.00347634 0.02550526 0.00565875 0.03369024 0.00245809 0.00275073 0.14572472 0.01114078 0.00916890 0.01422456 0.00128400 
0.02169590 0.02226407 0.00949420 0.00252015 0.00134447 0.00350739 0.02560255 0.00578758 0.03385925 0.00249157 0.00275547 0.14707857 0.01116364 0.00924868 0.01454789 0.00128398 
0.02214231 0.02234573 0.00937794 0.00245179 0.00136623 0.00353496 0.02566530 0.00591135 0.03401874 0.00252381 0.00275861 0.14831423 0.01117461 0.00932085 0.01487340 0.00128421 
0.02259660 0.02246699 0.00927090 0.00238273 0.00138697 0.00355888 0.02569300 0.00602949 0.03416829 0.00255474 0.00276008 0.14942624 0.01117360 0.00938507 0.01519994 0.00128469 
0.02305825 0.02262875 0.00917357 0.00231341 0.00140660 0.00357902 0.02568525 0.00614143 0.03430744 0.00258428 0.00275981 0.15040939 0.01116056 0.00944102 0.01552632 0.00128541 
0.02352668 0.02283162 0.00908640 0.00224423 0.00142507 0.00359524 0.02564180 0.00624666 0.03443571 0.00261234 0.00275775 0.15125883 0.01113552 0.00948844 0.01585134 0.00128638 
0.02400122 0.02307594 0.00900980 0.00217563 0.00144230 0.00360744 0.02556253 0.00634466 0.03455260 0.00263884 0.00275381 0.15197006 0.01109857 0.00952708 0.01617375 0.00128758 
0.02448117 0.02336174 0.00894415 0.00210800 0.00145824 0.00361552 0.02544746 0.00643496 0.03465759 0.00266371 0.00274795 0.15253896 0.01104986 0.00955673 0.01649233 0.00128901 
0.02496573 0.02368877 0.00888979 0.00204176 0.00147284 0.00361942 0.02529675 0.00651715 0.03475015 0.00268687 0.00274012 0.15296185 0.01098960 0.00957721 0.01680583 0.00129067 
0.02545404 0.02405646 0.00884699 0.00197731 0.00148605 0.00361910 0.02511069 0.00659081 0.03482972 0.00270826 0.00273028 0.15323548 0.01091808 0.00958841 0.01711301 0.00129255 
0.02594515 0.02446394 0.00881603 0.00191502 0.00149785 0.00361452 0.02488971 0.00665558 0.03489574 0.00272780 0.00271837 0.15335709 0.01083562 0.00959022 0.01741262 0.00129463 
0.02643806 0.02491002 0.00879711 0.00185526 0.00150820 0.00360570 0.02463439 0.00671116 0.03494762 0.00274542 0.00270438 0.15332442 0.01074263 0.00958260 0.01770346 0.00129691 
0.02693167 0.02539324 0.00879039 0.00179839 0.00151708 0.00359266 0.02434544 0.00675727 0.03498479 0.00276107 0.00268828 0.15313574 0.01063956 0.00956553 0.01798431 0.00129938 
0.02742480 0.02591181 0.00879599 0.00174474 0.00152448 0.00357543 0.02402369 0.00679368 0.03500665 0.00277468 0.00267005 0.15278987 0.01052691 0.00953905 0.01825400 0.00130203 
0.02791622 0.02646365 0.00881399 0.00169461 0.00153040 0.00355409 0.02367011 0.00682021 0.03501264 0.00278620 0.00264968 0.15228619 0.01040523 0.00950322 0.01851140 0.00130484 
0.02840460 0.02704643 0.00884442 0.00164830 0.00153485 0.00352872 0.02328581 0.00683671 0.03500216 0.00279557 0.00262717 0.15162467 0.01027513 0.00945816 0.01875540 0.00130780 
0.02888854 0.02765752 0.00888727 0.00160606 0.00153784 0.00349944 0.02287200 0.00684311 0.03497465 0.00280274 0.00260253 0.15080587 0.01013726 0.00940401 0.01898495 0.00131090 
0.02936659 0.02829404 0.00894246 0.00156813 0.00153939 0.00346638 0.02243002 0.00683936 0.03492956 0.00280767 0.00257579 0.14983097 0.00999229 0.00934097 0.01919905 0.00131412 
0.02983721 0.02895288 0.00900990 0.00153472 0.00153954 0.00342968 0.02196133 0.00682547 0.03486637 0.00281031 0.00254696 0.14870176 0.00984095 0.00926927 0.01939676 0.00131745 
0.03029882 0.02963071 0.00908943 0.00150600 0.00153833 0.00338953 0.02146746 0.00680151 0.03478456 0.00281063 0.00251608 0.14742064 0.00968398 0.00918918 0.01957720 0.00132087 
0.03074978 0.03032398 0.00918085 0.00148213 0.00153581 0.00334611 0.02095008 0.00676758 0.03468367 0.00280861 0.00248319 0.14599066 0.00952218 0.00910100 0.01973958 0.00132437 
0.03118840 0.03102899 0.00928391 0.00146320 0.00153204 0.00329964 0.02041094 0.00672385 0.03456326 0.00280421 0.00244835 0.14441546 0.00935633 0.00900508 0.01988316 0.00132792 
0.03161296 0.03174187 0.00939832 0.00144932 0.00152708 0.00325034 0.01985186 0.00667052 0.03442296 0.00279743 0.00241163 0.14269930 0.00918726 0.00890179 0.02000729 0.00133153 
0.03202171 0.03245862 0.00952376 0.00144052 0.00152102 0.00319846 0.01927474 0.00660786 0.03426242 0.00278824 0.00237309 0.14084706 0.00901580 0.00879155 0.02011143 0.00133516 
0.03241285 0.03317514 0.00965984 0.00143683 0.00151393 0.00314425 0.01868156 0.00653617 0.03408138 0.00277665 0.00233282 0.13886418 0.00884279 0.00867478 0.02019510 0.00133880 
0.03278462 0.03388724 0.00980616 0.00143823 0.00150590 0.00308799 0.01807435 0.00645581 0.03387960 0.00276266 0.00229090 0.13675669 0.00866907 0.00855196 0.02025792 0.00134245 
0.03313521 0.03459072 0.00996225 0.00144468 0.00149704 0.00302996 0.01745519 0.00636717 0.03365695 0.00274629 0.00224744 0.13453119 0.00849549 0.00842359 0.02029962 0.00134607 
0.03346284 0.03528132 0.01012762 0.00145610 0.00148744 0.00297047 0.01682621 0.00627069 0.03341336 0.00272755 0.00220254 0.13219478 0.00832289 0.00829019 0.02032003 0.00134965 
0.03376577 0.03595483 0.01030175 0.00147238 0.00147723 0.00290981 0.01618955 0.00616687 0.03314883 0.00270648 0.00215632 0.12975508 0.00815208 0.00815230 0.02031908 0.00135318 
0.03404226 0.03660704 0.01048406 0.00149338 0.00146650 0.00284830 0.01554739 0.00605623 0.03286345 0.00268312 0.00210891 0.12722018 0.00798389 0.00801049 0.02029680 0.00135665 
0.03429064 0.03723385 0.01067397 0.00151893 0.00145539 0.00278627 0.01490190 0.00593933 0.03255742 0.00265753 0.00206043 0.12459860 0.00781910 0.00786534 0.02025335 0.00136003 
0.03450928 0.03783123 0.01087086 0.00154884 0.00144403 0.00272405 0.01425529 0.00581677 0.03223100 0.00262975 0.00201102 0.12189929 0.00765847 0.00771743 0.02018896 0.00136331 
0.03469665 0.03839532 0.01107407 0.00158287 0.00143253 0.00266195 0.01360972 0.00568920 0.03188458 0.00259987 0.00196082 0.11913153 0.00750275 0.00756740 0.02010402 0.00136649 
0.03485127 0.03892238 0.01128293 0.00162080 0.00142104 0.00260032 0.01296736 0.00555726 0.03151863 0.00256797 0.00190999 0.11630495 0.00735264 0.00741584 0.01999899 0.00136954 
0.03497179 0.03940888 0.01149676 0.00166234 0.00140969 0.00253949 0.01233034 0.00542166 0.03113375 0.00253415 0.00185869 0.11342945 0.00720880 0.00726339 0.01987445 0.00137245 
0.03505696 0.03985150 0.01171484 0.00170721 0.00139861 0.00247979 0.01170074 0.00528311 0.03073062 0.00249851 0.00180706 0.11051516 0.00707187 0.00711068 0.01973110 0.00137522 
0.03510564 0.04024716 0.01193645 0.00175510 0.00138796 0.00242154 0.01108064 0.00514236 0.03031006 0.00246117 0.00175529 0.10757241 0.00694244 0.00695834 0.01956972 0.00137782 
0.03511684 0.04059305 0.01216087 0.00180568 0.00137786 0.00236508 0.01047201 0.00500015 0.02987296 0.00242227 0.00170352 0.10461167 0.00682104 0.00680701 0.01939122 0.00138025 
0.03508972 0.04088663 0.01238735 0.00185861 0.00136845 0.00231072 0.00987679 0.00485727 0.02942036 0.00238194 0.00165195 0.10164349 0.00670816 0.00665729 0.01919659 0.00138250 
0.03502359 0.04112569 0.01261516 0.00191355 0.00135988 0.00225877 0.00929683 0.00471450 0.02895340 0.00234034 0.00160073 0.09867847 0.00660425 0.00650983 0.01898693 0.00138456 
0.03491795 0.04130833 0.01284356 0.00197013 0.00135228 0.00220952 0.00873392 0.00457263 0.02847332 0.00229763 0.00155005 0.09572718 0.00650968 0.00636521 0.01876343 0.00138642 
0.03477246 0.04143300 0.01307181 0.00202798 0.00134579 0.00216328 0.00818974 0.00443246 0.02798147 0.00225399 0.00150008 0.09280016 0.00642480 0.00622405 0.01852735 0.00138807 
0.03458698 0.04149851 0.01329919 0.00208674 0.00134053 0.00212032 0.00766589 0.00429479 0.02747932 0.00220962 0.00145100 0.08990782 0.00634987 0.00608693 0.01828006 0.00138951 
0.03436157 0.04150403 0.01352499 0.00214603 0.00133665 0.00208089 0.00716387 0.00416041 0.02696843 0.00216470 0.00140297 0.08706040 0.00628512 0.00595440 0.01802299 0.00139073 
0.03409649 0.04144911 0.01374852 0.00220549 0.00133425 0.00204525 0.00668506 0.00403011 0.02645045 0.00211944 0.00135618 0.08426796 0.00623070 0.00582700 0.01775764 0.00139173 
0.03379222 0.04133368 0.01396910 0.00226474 0.00133347 0.00201363 0.00623075 0.00390468 0.02592714 0.00207406 0.00131079 0.08154028 0.00618671 0.00570528 0.01748557 0.00139250 
0.03344947 0.04115807 0.01418608 0.00232344 0.00133441 0.00198625 0.00580207 0.00378487 0.02540033 0.00202878 0.00126697 0.07888684 0.00615321 0.00558970 0.01720840 0.00139303 
0.03306916 0.04092298 0.01439884 0.00238122 0.00133719 0.00196330 0.00540009 0.00367144 0.02487193 0.00198384 0.00122488 0.07631677 0.00613017 0.00548076 0.01692780 0.00139334 
0.03265243 0.04062952 0.01460677 0.00243776 0.00134191 0.00194495 0.00502569 0.00356510 0.02434393 0.00193947 0.00118468 0.07383883 0.00611753 0.00537887 0.01664548 0.00139341 
0.03220065 0.04027917 0.01480934 0.00249272 0.00134865 0.00193135 0.00467967 0.00346657 0.02381838 0.00189592 0.00114652 0.07146134 0.00611516 0.00528446 0.01636316 0.00139324 
0.03171544 0.03987377 0.01500600 0.00254580 0.00135751 0.00192265 0.00436268 0.00337650 0.02329738 0.00185342 0.00111055 0.06919214 0.00612286 0.00519790 0.01608262 0.00139284 
0.03119862 0.03941556 0.01519628 0.00259671 0.00136856 0.00191895 0.00407524 0.00329555 0.02278306 0.00181225 0.00107690 0.06703861 0.00614043 0.00511952 0.01580562 0.00139220 
0.03065225 0.03890711 0.01537973 0.00264518 0.00138188 0.00192035 0.00381773 0.00322431 0.02227762 0.00177263 0.00104572 0.06500756 0.00616755 0.00504962 0.01553394 0.00139133 
0.03007861 0.03835132 0.01555596 0.00269097 0.00139752 0.00192689 0.00359041 0.00316336 0.02178323 0.00173484 0.00101712 0.06310527 0.00620391 0.00498848 0.01526934 0.00139023 
0.02948019 0.03775144 0.01572460 0.00273385 0.00141554 0.00193863 0.00339340 0.00311320 0.02130212 0.00169911 0.00099121 0.06133743 0.00624912 0.00493632 0.01501359 0.00138890 
0.02885967 0.03711099 0.01588537 0.00277363 0.00143597 0.00195558 0.00322668 0.00307434 0.02083647 0.00166571 0.00096810 0.05970914 0.00630275 0.00489332 0.01476840 0.00138735 
0.02821998 0.03643380 0.01603799 0.00281015 0.00145885 0.00197773 0.00309012 0.00304719 0.02038848 0.00163486 0.00094788 0.05822489 0.00636435 0.00485963 0.01453548 0.00138559 
0.02756418 0.03572394 0.01618225 0.00284326 0.00148420 0.00200505 0.00298343 0.00303215 0.01996031 0.00160682 0.00093063 0.05688851 0.00643342 0.00483535 0.01431648 0.00138361 
0.02689555 0.03498569 0.01631800 0.00287284 0.00151202 0.00203748 0.00290623 0.00302954 0.01955408 0.00158181 0.00091643 0.05570323 0.00650941 0.00482055 0.01411298 0.00138142 
0.02621753 0.03422358 0.01644512 0.00289883 0.00154233 0.00207495 0.00285800 0.00303963 0.01917183 0.00156006 0.00090533 0.05467162 0.00659177 0.00481524 0.01392653 0.00137904 
0.02553369 0.03344227 0.01656356 0.00292118 0.00157510 0.00211734 0.00283808 0.00306267 0.01881558 0.00154178 0.00089738 0.05379562 0.00667991 0.00481940 0.01375858 0.00137646 
0.02484777 0.03264658 0.01667329 0.00293985 0.00161031 0.00216452 0.00284575 0.00309880 0.01848723 0.00152717 0.00089262 0.05307652 0.00677321 0.00483297 0.01361052 0.00137370 
0.02416360 0.03184145 0.01677434 0.00295488 0.00164794 0.00221636 0.00288013 0.00314813 0.01818859 0.00151642 0.00089106 0.05251499 0.00687105 0.00485583 0.01348363 0.00137076 
0.02348514 0.03103188 0.01686681 0.00296629 0.00168793 0.00227266 0.00294027 0.00321071 0.01792138 0.00150971 0.00089272 0.05211106 0.00697277 0.00488785 0.01337911 0.00136765 
0.02281643 0.03022295 0.01695080 0.00297418 0.00173023 0.00233324 0.00302510 0.00328652 0.01768719 0.00150719 0.00089759 0.05186418 0.00707772 0.00492882 0.01329804 0.00136438 
0.02216156 0.02941972 0.01702648 0.00297864 0.00177477 0.00239789 0.00313347 0.00337550 0.01748747 0.00150900 0.00090565 0.05177319 0.00718523 0.00497853 0.01324141 0.00136096 
0.02152469 0.02862725 0.01709406 0.00297981 0.00182148 0.00246636 0.00326416 0.00347749 0.01732353 0.00151526 0.00091687 0.05183636 0.00729465 0.00503670 0.01321006 0.00135741 
0.02090999 0.02785055 0.01715376 0.00297784 0.00187028 0.00253841 0.00341586 0.00359231 0.01719654 0.00152608 0.00093120 0.05205143 0.00740530 0.00510304 0.01320472 0.00135372 
0.02032165 0.02709455 0.01720587 0.00297295 0.00192105 0.00261375 0.00358718 0.00371970 0.01710749 0.00154154 0.00094859 0.05241560 0.00751652 0.00517721 0.01322600 0.00134991 
0.01976384 0.02636405 0.01725068 0.00296533 0.00197370 0.00269211 0.00377669 0.00385933 0.01705719 0.00156169 0.00096896 0.05292558 0.00762766 0.00525883 0.01327436 0.00134600 
0.01924069 0.02566371 0.01728852 0.00295523 0.00202812 0.00277318 0.00398289 0.00401083 0.01704629 0.00158656 0.00099223 0.05357765 0.00773809 0.00534749 0.01335012 0.00134199 
0.01875628 0.02499801 0.01731974 0.00294292 0.00208416 0.00285665 0.00420425 0.00417376 0.01707522 0.00161618 0.00101831 0.05436762 0.00784718 0.00544277 0.01345346 0.00133790 
0.01831459 0.02437124 0.01734471 0.00292867 0.00214171 0.00294219 0.00443920 0.00434763 0.01714425 0.00165052 0.00104708 0.05529092 0.00795432 0.00554420 0.01358442 0.00133373 
0.01791953 0.02378744 0.01736380 0.00291280 0.00220061 0.00302945 0.00468612 0.00453188 0.01725342 0.00168955 0.00107842 0.05634263 0.00805893 0.00565129 0.01374287 0.00132950 
0.01757485 0.02325039 0.01737741 0.00289562 0.00226072 0.00311810 0.00494341 0.00472593 0.01740257 0.00173320 0.00111220 0.05751751 0.00816046 0.00576354 0.01392857 0.00132522 
0.01728418 0.02276360 0.01738593 0.00287745 0.00232187 0.00320777 0.00520942 0.00492912 0.01759135 0.00178139 0.00114828 0.05881001 0.00825837 0.00588040 0.01414110 0.00132091 
0.01705098 0.02233026 0.01738977 0.00285866 0.00238392 0.00329812 0.00548252 0.00514075 0.01781916 0.00183400 0.00118651 0.06021436 0.00835217 0.00600134 0.01437990 0.00131657 
0.01687853 0.02195324 0.01738931 0.00283959 0.00244668 0.00338876 0.00576107 0.00536008 0.01808524 0.00189089 0.00122671 0.06172458 0.00844139 0.00612578 0.01464425 0.00131222 
0.01676989 0.02163507 0.01738495 0.00282059 0.00250998 0.00347935 0.00604346 0.00558633 0.01838858 0.00195191 0.00126873 0.06333449 0.00852561 0.00625315 0.01493332 0.00130787 
0.01672790 0.02137791 0.01737707 0.00280204 0.00257364 0.00356950 0.00632808 0.00581867 0.01872800 0.00201685 0.00131237 0.06503781 0.00860442 0.00638286 0.01524609 0.00130354 
0.01675519 0.02118356 0.01736602 0.00278429 0.00263748 0.00365886 0.00661337 0.00605624 0.01910208 0.00208551 0.00135747 0.06682815 0.00867749 0.00651431 0.01558145 0.00129924 
0.01685409 0.02105343 0.01735215 0.00276771 0.00270132 0.00374706 0.00689779 0.00629817 0.01950922 0.00215766 0.00140381 0.06869905 0.00874448 0.00664692 0.01593813 0.00129497 
0.01702668 0.02098853 0.01733579 0.00275264 0.00276496 0.00383374 0.00717985 0.00654353 0.01994765 0.00223303 0.00145121 0.07064404 0.00880513 0.00678008 0.01631473 0.00129077 
0.01727477 0.02098950 0.01731722 0.00273945 0.00282822 0.00391854 0.00745812 0.00679138 0.02041539 0.00231135 0.00149947 0.07265663 0.00885922 0.00691319 0.01670973 0.00128663 
0.01759985 0.02105656 0.01729672 0.00272847 0.00289091 0.00400114 0.00773120 0.00704078 0.02091030 0.00239232 0.00154837 0.07473039 0.00890654 0.00704567 0.01712152 0.00128257 
0.01800310 0.02118952 0.01727452 0.00272003 0.00295284 0.00408118 0.00799778 0.00729075 0.02143007 0.00247562 0.00159772 0.07685895 0.00894696 0.00717693 0.01754836 0.00127861 
0.01848539 0.02138783 0.01725082 0.00271443 0.00301382 0.00415834 0.00825660 0.00754032 0.02197225 0.00256093 0.00164730 0.07903604 0.00898037 0.00730639 0.01798842 0.00127475 
0.01904729 0.02165052 0.01722581 0.00271197 0.00307367 0.00423232 0.00850649 0.00778849 0.02253424 0.00264789 0.00169690 0.08125548 0.00900673 0.00743350 0.01843977 0.00127102 
0.01968898 0.02197625 0.01719960 0.00271292 0.00313220 0.00430281 0.00874635 0.00803429 0.02311333 0.00273614 0.00174631 0.08351127 0.00902600 0.00755772 0.01890042 0.00126742 
0.02041037 0.02236328 0.01717229 0.00271753 0.00318924 0.00436954 0.00897516 0.00827673 0.02370669 0.00282532 0.00179534 0.08579754 0.00903822 0.00767853 0.01936830 0.00126397 
0.02121098 0.02280955 0.01714394 0.00272603 0.00324462 0.00443223 0.00919198 0.00851485 0.02431140 0.00291505 0.00184377 0.08810862 0.00904347 0.00779541 0.01984129 0.00126068 
0.02209001 0.02331262 0.01711456 0.00273861 0.00329817 0.00449063 0.00939599 0.00874768 0.02492446 0.00300493 0.00189141 0.09043903 0.00904184 0.00790789 0.02031721 0.00125757 
0.02304633 0.02386974 0.01708414 0.00275545 0.00334972 0.00454452 0.00958643 0.00897429 0.02554282 0.00309457 0.00193806 0.09278350 0.00903349 0.00801553 0.02079386 0.00125464 
0.02407845 0.02447783 0.01705262 0.00277669 0.00339914 0.00459369 0.00976265 0.00919376 0.02616339 0.00318359 0.00198353 0.09513697 0.00901861 0.00811789 0.02126901 0.00125191 
0.02518457 0.02513355 0.01701989 0.00280243 0.00344626 0.00463795 0.00992409 0.00940521 0.02678303 0.00327158 0.00202765 0.09749461 0.00899742 0.00821458 0.02174042 0.00124939 
0.02636255 0.02583327 0.01698584 0.00283275 0.00349097 0.00467712 0.01007030 0.00960777 0.02739862 0.00335816 0.00207024 0.09985183 0.00897017 0.00830524 0.02220586 0.00124709 
0.02760994 0.02657313 0.01695028 0.00286771 0.00353314 0.00471107 0.01020093 0.00980063 0.02800704 0.00344294 0.00211112 0.10220426 0.00893716 0.00838956 0.02266309 0.00124502 
0.02892397 0.02734902 0.01691303 0.00290732 0.00357265 0.00473967 0.01031571 0.00998300 0.02860521 0.00352553 0.00215016 0.10454777 0.00889872 0.00846722 0.02310991 0.00124320 
0.03030156 0.02815669 0.01687386 0.00295154 0.00360941 0.00476283 0.01041448 0.01015415 0.02919009 0.00360556 0.00218720 0.10687848 0.00885520 0.00853799 0.02354418 0.00124162 
0.03173937 0.02899169 0.01683252 0.00300033 0.00364332 0.00478047 0.01049717 0.01031339 0.02975872 0.00368268 0.00222211 0.10919272 0.00880697 0.00860164 0.02396378 0.00124031 
0.03323376 0.02984945 0.01678873 0.00305360 0.00367431 0.00479254 0.01056383 0.01046008 0.03030820 0.00375654 0.00225476 0.11148706 0.00875444 0.00865801 0.02436666 0.00123926 
0.03478085 0.03072528 0.01674220 0.00311121 0.00370231 0.00479902 0.01061457 0.01059363 0.03083577 0.00382681 0.00228505 0.11375826 0.00869803 0.00870695 0.02475086 0.00123849 
0.03637650 0.03161443 0.01669262 0.00317303 0.00372729 0.00479989 0.01064962 0.01071352 0.03133876 0.00389317 0.00231288 0.11600334 0.00863820 0.00874836 0.02511448 0.00123800 
0.03801634 0.03251208 0.01663966 0.00323885 0.00374919 0.00479520 0.01066929 0.01081929 0.03181464 0.00395533 0.00233817 0.11821947 0.00857541 0.00878220 0.02545574 0.00123780 
0.03969580 0.03341342 0.01658299 0.00330846 0.00376802 0.00478497 0.01067396 0.01091053 0.03226104 0.00401302 0.00236084 0.12040403 0.00851013 0.00880846 0.02577296 0.00123789 
0.04141013 0.03431363 0.01652227 0.00338160 0.00378375 0.00476930 0.01066411 0.01098689 0.03267574 0.00406599 0.00238084 0.12255457 0.00844286 0.00882715 0.02606456 0.00123827 
0.04315439 0.03520794 0.01645718 0.00345801 0.00379640 0.00474826 0.01064029 0.01104810 0.03305671 0.00411402 0.00239812 0.12466882 0.00837410 0.00883835 0.02632912 0.00123895 
0.04492349 0.03609164 0.01638737 0.00353737 0.00380600 0.00472198 0.01060312 0.01109396 0.03340211 0.00415691 0.00241266 0.12674465 0.00830435 0.00884217 0.02656533 0.00123993 
0.04671222 0.03696011 0.01631253 0.00361935 0.00381259 0.00469060 0.01055331 0.01112432 0.03371028 0.00419449 0.00242444 0.12878006 0.00823414 0.00883877 0.02677202 0.00124120 
0.04851527 0.03780887 0.01623234 0.00370361 0.00381622 0.00465428 0.01049160 0.01113912 0.03397979 0.00422661 0.00243347 0.13077317 0.00816398 0.00882832 0.02694818 0.00124276 
0.05032721 0.03863357 0.01614652 0.00378976 0.00381696 0.00461320 0.01041881 0.01113835 0.03420942 0.00425318 0.00243976 0.13272223 0.00809439 0.00881106 0.02709296 0.00124462 
0.05214259 0.03943004 0.01605477 0.00387743 0.00381491 0.00456757 0.01033580 0.01112208 0.03439817 0.00427410 0.00244334 0.13462556 0.00802588 0.00878726 0.02720566 0.00124676 
0.05395588 0.04019429 0.01595687 0.00396619 0.00381015 0.00451761 0.01024348 0.01109044 0.03454527 0.00428932 0.00244424 0.13648160 0.00795897 0.00875721 0.02728574 0.00124918 
0.05576154 0.04092256 0.01585257 0.00405563 0.00380280 0.00446355 0.01014281 0.01104365 0.03465017 0.00429883 0.00244253 0.13828881 0.00789415 0.00872125 0.02733285 0.00125187 
0.05755405 0.04161130 0.01574170 0.00414533 0.00379299 0.00440565 0.01003476 0.01098196 0.03471258 0.00430264 0.00243827 0.14004575 0.00783192 0.00867975 0.02734678 0.00125482 
0.05932788 0.04225725 0.01562410 0.00423484 0.00378085 0.00434418 0.00992035 0.01090572 0.03473242 0.00430078 0.00243155 0.14175102 0.00777277 0.00863310 0.02732752 0.00125802 
0.06107757 0.04285737 0.01549964 0.00432372 0.00376654 0.00427943 0.00980061 0.01081531 0.03470985 0.00429334 0.00242245 0.14340325 0.00771717 0.00858174 0.02727520 0.00126146 
0.06279770 0.04340893 0.01536824 0.00441152 0.00375023 0.00421170 0.00967659 0.01071122 0.03464525 0.00428041 0.00241108 0.14500109 0.00766557 0.00852611 0.02719016 0.00126512 
0.06448296 0.04390948 0.01522987 0.00449782 0.00373207 0.00414129 0.00954934 0.01059394 0.03453923 0.00426213 0.00239755 0.14654325 0.00761840 0.00846668 0.02707288 0.00126898 
0.06612813 0.04435688 0.01508453 0.00458216 0.00371225 0.00406852 0.00941991 0.01046405 0.03439264 0.00423866 0.00238199 0.14802843 0.00757610 0.00840396 0.02692401 0.00127303 
0.06772810 0.04474928 0.01493227 0.00466411 0.00369096 0.00399372 0.00928937 0.01032218 0.03420650 0.00421019 0.00236453 0.14945535 0.00753905 0.00833846 0.02674436 0.00127724 
0.06927791 0.04508517 0.01477317 0.00474326 0.00366839 0.00391721 0.00915874 0.01016900 0.03398207 0.00417693 0.00234531 0.15082275 0.00750763 0.00827071 0.02653491 0.00128160 
0.07077277 0.04536334 0.01460738 0.00481920 0.00364475 0.00383935 0.00902905 0.01000523 0.03372078 0.00413913 0.00232447 0.15212936 0.00748221 0.00820125 0.02629678 0.00128608 
0.07220804 0.04558290 0.01443508 0.00489153 0.00362024 0.00376046 0.00890131 0.00983163 0.03342425 0.00409704 0.00230217 0.15337394 0.00746309 0.00813064 0.02603123 0.00129066 
0.07357927 0.04574330 0.01425650 0.00495987 0.00359508 0.00368090 0.00877648 0.00964901 0.03309427 0.00405096 0.00227857 0.15455525 0.00745060 0.00805943 0.02573967 0.00129531 
0.07488224 0.04584428 0.01407192 0.00502388 0.00356947 0.00360100 0.00865550 0.00945819 0.03273280 0.00400118 0.00225382 0.15567209 0.00744500 0.00798818 0.02542362 0.00130000 
0.07611290 0.04588591 0.01388165 0.00508323 0.00354362 0.00352110 0.00853928 0.00926003 0.03234190 0.00394804 0.00222810 0.15672324 0.00744653 0.00791747 0.02508473 0.00130471 
0.07726746 0.04586857 0.01368605 0.00513759 0.00351776 0.00344155 0.00842866 0.00905543 0.03192381 0.00389186 0.00220157 0.15770753 0.00745542 0.00784784 0.02472476 0.00130940 
0.07834235 0.04579292 0.01348553 0.00518670 0.00349208 0.00336267 0.00832445 0.00884527 0.03148084 0.00383301 0.00217440 0.15862384 0.00747185 0.00777986 0.02434555 0.00131405 
0.07933425 0.04565993 0.01328051 0.00523030 0.00346679 0.00328479 0.00822741 0.00863049 0.03101543 0.00377184 0.00214677 0.15947106 0.00749597 0.00771407 0.02394905 0.00131861 
0.08024011 0.04547084 0.01307147 0.00526817 0.00344210 0.00320824 0.00813823 0.00841201 0.03053007 0.00370873 0.00211882 0.16024815 0.00752792 0.00765099 0.02353726 0.00132306 
0.08105713 0.04522716 0.01285892 0.00530012 0.00341821 0.00313332 0.00805756 0.00819076 0.03002732 0.00364405 0.00209075 0.16095414 0.00756779 0.00759116 0.02311225 0.00132737 
0.08178276 0.04493064 0.01264339 0.00532599 0.00339530 0.00306034 0.00798595 0.00796769 0.02950980 0.00357819 0.00206270 0.16158810 0.00761563 0.00753505 0.02267615 0.00133150 
0.08241477 0.04458330 0.01242543 0.00534566 0.00337355 0.00298958 0.00792393 0.00774371 0.02898014 0.00351154 0.00203484 0.16214922 0.00767147 0.00748316 0.02223111 0.00133542 
0.08295116 0.04418736 0.01220564 0.00535903 0.00335315 0.00292132 0.00787193 0.00751977 0.02844100 0.00344448 0.00200732 0.16263678 0.00773531 0.00743593 0.02177931 0.00133908 
0.08339026 0.04374523 0.01198460 0.00536606 0.00333424 0.00285582 0.00783032 0.00729675 0.02789501 0.00337738 0.00198030 0.16305016 0.00780712 0.00739378 0.02132293 0.00134246 
0.08373065 0.04325955 0.01176292 0.00536672 0.00331697 0.00279333 0.00779939 0.00707557 0.02734479 0.00331063 0.00195391 0.16338888 0.00788682 0.00735712 0.02086417 0.00134553 
0.08397121 0.04273311 0.01154123 0.00536102 0.00330150 0.00273407 0.00777938 0.00685707 0.02679293 0.00324460 0.00192830 0.16365257 0.00797432 0.00732630 0.02040519 0.00134824 
0.08411111 0.04216884 0.01132015 0.00534902 0.00328793 0.00267827 0.00777044 0.00664211 0.02624195 0.00317963 0.00190360 0.16384104 0.00806948 0.00730166 0.01994812 0.00135057 
0.08414980 0.04156982 0.01110031 0.00533080 0.00327638 0.00262612 0.00777265 0.00643150 0.02569433 0.00311609 0.00187991 0.16395424 0.00817214 0.00728348 0.01949506 0.00135247 
0.08408702 0.04093923 0.01088232 0.00530648 0.00326695 0.00257779 0.00778602 0.00622602 0.02515243 0.00305430 0.00185737 0.16399230 0.00828209 0.00727203 0.01904804 0.00135393 
0.08392280 0.04028037 0.01066681 0.00527620 0.00325971 0.00253345 0.00781049 0.00602641 0.02461854 0.00299457 0.00183607 0.16395553 0.00839913 0.00726750 0.01860905 0.00135491 
0.08365745 0.03959659 0.01045436 0.00524014 0.00325472 0.00249324 0.00784592 0.00583338 0.02409484 0.00293721 0.00181611 0.16384444 0.00852298 0.00727007 0.01817998 0.00135537 
0.08329156 0.03889131 0.01024556 0.00519852 0.00325204 0.00245727 0.00789211 0.00564756 0.02358338 0.00288251 0.00179757 0.16365973 0.00865337 0.00727988 0.01776262 0.00135530 
0.08282600 0.03816799 0.01004097 0.00515158 0.00325169 0.00242565 0.00794879 0.00546959 0.02308611 0.00283070 0.00178052 0.16340233 0.00878998 0.00729701 0.01735870 0.00135467 
0.08226189 0.03743009 0.00984112 0.00509958 0.00325368 0.00239845 0.00801564 0.00530002 0.02260481 0.00278204 0.00176503 0.16307337 0.00893248 0.00732149 0.01696980 0.00135345 
0.08160065 0.03668108 0.00964651 0.00504280 0.00325801 0.00237574 0.00809226 0.00513937 0.02214113 0.00273674 0.00175115 0.16267420 0.00908050 0.00735333 0.01659740 0.00135162 
0.08084396 0.03592444 0.00945763 0.00498158 0.00326466 0.00235755 0.00817821 0.00498808 0.02169657 0.00269499 0.00173893 0.16220642 0.00923365 0.00739247 0.01624288 0.00134917 
0.07999373 0.03516358 0.00927489 0.00491623 0.00327358 0.00234390 0.00827297 0.00484658 0.02127249 0.00265695 0.00172839 0.16167182 0.00939151 0.00743882 0.01590744 0.00134608 
0.07905214 0.03440188 0.00909871 0.00484711 0.00328473 0.00233479 0.00837600 0.00471520 0.02087005 0.00262275 0.00171955 0.16107244 0.00955365 0.00749224 0.01559218 0.00134233 
0.07802163 0.03364266 0.00892942 0.00477459 0.00329802 0.00233020 0.00848669 0.00459425 0.02049029 0.00259252 0.00171243 0.16041055 0.00971961 0.00755256 0.01529806 0.00133792 
0.07690486 0.03288914 0.00876733 0.00469905 0.00331338 0.00233009 0.00860441 0.00448395 0.02013407 0.00256634 0.00170703 0.15968863 0.00988892 0.00761954 0.01502586 0.00133283 
0.07570472 0.03214448 0.00861271 0.00462089 0.00333069 0.00233440 0.00872847 0.00438450 0.01980209 0.00254426 0.00170334 0.15890938 0.01006107 0.00769292 0.01477626 0.00132708 
0.07442434 0.03141171 0.00846577 0.00454051 0.00334984 0.00234305 0.00885816 0.00429601 0.01949487 0.00252632 0.00170133 0.15807572 0.01023557 0.00777239 0.01454974 0.00132064 
0.07306706 0.03069376 0.00832666 0.00445830 0.00337069 0.00235595 0.00899275 0.00421856 0.01921281 0.00251253 0.00170099 0.15719076 0.01041188 0.00785762 0.01434667 0.00131354 
0.07163644 0.02999342 0.00819551 0.00437470 0.00339310 0.00237298 0.00913146 0.00415216 0.01895612 0.00250286 0.00170226 0.15625781 0.01058946 0.00794821 0.01416725 0.00130578 
0.07013622 0.02931337 0.00807235 0.00429010 0.00341691 0.00239403 0.00927352 0.00409678 0.01872487 0.00249728 0.00170511 0.15528035 0.01076776 0.00804376 0.01401154 0.00129737 
0.06857035 0.02865613 0.00795721 0.00420492 0.00344195 0.00241894 0.00941814 0.00405231 0.01851901 0.00249570 0.00170949 0.15426204 0.01094624 0.00814383 0.01387945 0.00128832 
0.06694297 0.02802407 0.00785003 0.00411956 0.00346805 0.00244756 0.00956451 0.00401862 0.01833831 0.00249805 0.00171532 0.15320667 0.01112431 0.00824793 0.01377076 0.00127866 
0.06525838 0.02741941 0.00775072 0.00403443 0.00349500 0.00247972 0.00971184 0.00399551 0.01818244 0.00250419 0.00172255 0.15211819 0.01130140 0.00835558 0.01368509 0.00126841 
0.06352105 0.02684420 0.00765913 0.00394991 0.00352263 0.00251524 0.00985932 0.00398276 0.01805095 0.00251400 0.00173110 0.15100063 0.01147695 0.00846625 0.01362195 0.00125759 
0.06173563 0.02630034 0.00757507 0.00386638 0.00355071 0.00255392 0.01000616 0.00398006 0.01794327 0.00252733 0.00174090 0.14985815 0.01165038 0.00857940 0.01358071 0.00124625 
0.05990689 0.02578956 0.00749830 0.00378421 0.00357905 0.00259557 0.01015159 0.00398711 0.01785872 0.00254399 0.00175185 0.14869496 0.01182110 0.00869447 0.01356064 0.00123440 
0.05803974 0.02531342 0.00742852 0.00370375 0.00360743 0.00263996 0.01029483 0.00400355 0.01779654 0.00256379 0.00176388 0.14751534 0.01198855 0.00881091 0.01356090 0.00122210 
0.05613922 0.02487329 0.00736542 0.00362534 0.00363564 0.00268687 0.01043515 0.00402896 0.01775590 0.00258653 0.00177689 0.14632361 0.01215217 0.00892813 0.01358051 0.00120939 
0.05421048 0.02447041 0.00730862 0.00354928 0.00366346 0.00273609 0.01057184 0.00406293 0.01773589 0.00261198 0.00179078 0.14512408 0.01231138 0.00904555 0.01361846 0.00119631 
0.05225879 0.02410582 0.00725772 0.00347588 0.00369068 0.00278738 0.01070421 0.00410500 0.01773553 0.00263992 0.00180548 0.14392105 0.01246565 0.00916260 0.01367362 0.00118292 
0.05028949 0.02378039 0.00721229 0.00340540 0.00371708 0.00284049 0.01083161 0.00415468 0.01775381 0.00267010 0.00182087 0.14271880 0.01261442 0.00927869 0.01374479 0.00116926 
0.04830801 0.02349485 0.00717186 0.00333810 0.00374245 0.00289520 0.01095343 0.00421147 0.01778970 0.00270228 0.00183687 0.14152153 0.01275719 0.00939325 0.01383073 0.00115540 
0.04631983 0.02324975 0.00713594 0.00327420 0.00376658 0.00295126 0.01106910 0.00427484 0.01784212 0.00273619 0.00185337 0.14033338 0.01289343 0.00950571 0.01393014 0.00114139 
0.04433049 0.02304548 0.00710402 0.00321391 0.00378927 0.00300842 0.01117808 0.00434426 0.01791000 0.00277158 0.00187030 0.13915837 0.01302267 0.00961554 0.01404168 0.00112731 
0.04234557 0.02288228 0.00707558 0.00315739 0.00381032 0.00306645 0.01127990 0.00441917 0.01799225 0.00280818 0.00188754 0.13800039 0.01314442 0.00972220 0.01416401 0.00111321 
0.04037067 0.02276025 0.00705006 0.00310479 0.00382956 0.00312510 0.01137412 0.00449902 0.01808781 0.00284574 0.00190501 0.13686319 0.01325825 0.00982518 0.01429573 0.00109916 
0.03841139 0.02267932 0.00702693 0.00305625 0.00384679 0.00318414 0.01146037 0.00458325 0.01819564 0.00288399 0.00192263 0.13575036 0.01336372 0.00992399 0.01443549 0.00108523 
0.03647334 0.02263931 0.00700563 0.00301185 0.00386185 0.00324333 0.01153829 0.00467129 0.01831472 0.00292268 0.00194031 0.13466529 0.01346045 0.01001817 0.01458192 0.00107149 
0.03456209 0.02263989 0.00698561 0.00297167 0.00387458 0.00330244 0.01160763 0.00476260 0.01844408 0.00296155 0.00195797 0.13361116 0.01354805 0.01010729 0.01473368 0.00105802 
0.03268318 0.02268059 0.00696632 0.00293574 0.00388484 0.00336125 0.01166815 0.00485661 0.01858279 0.00300036 0.00197554 0.13259093 0.01362621 0.01019095 0.01488947 0.00104488 
0.03084208 0.02276085 0.00694723 0.00290409 0.00389250 0.00341954 0.01171968 0.00495279 0.01872999 0.00303887 0.00199294 0.13160733 0.01369459 0.01026879 0.01504801 0.00103216 
0.02904421 0.02287996 0.00692781 0.00287671 0.00389743 0.00347709 0.01176210 0.00505060 0.01888488 0.00307686 0.00201011 0.13066283 0.01375294 0.01034049 0.01520809 0.00101992 
0.02729487 0.02303713 0.00690755 0.00285357 0.00389954 0.00353372 0.01179535 0.00514954 0.01904671 0.00311411 0.00202698 0.12975964 0.01380101 0.01040576 0.01536858 0.00100824 
0.02559928 0.02323146 0.00688597 0.00283461 0.00389872 0.00358922 0.01181942 0.00524911 0.01921482 0.00315041 0.00204352 0.12889967 0.01383860 0.01046435 0.01552839 0.00099718 
0.02396252 0.02346194 0.00686261 0.00281974 0.00389492 0.00364341 0.01183434 0.00534884 0.01938865 0.00318558 0.00205966 0.12808459 0.01386553 0.01051607 0.01568652 0.00098683 
0.02238953 0.02372748 0.00683704 0.00280888 0.00388806 0.00369612 0.01184021 0.00544828 0.01956768 0.00321945 0.00207537 0.12731573 0.01388168 0.01056074 0.01584207 0.00097725 
0.02088509 0.02402692 0.00680887 0.00280190 0.00387811 0.00374719 0.01183715 0.00554700 0.01975150 0.00325186 0.00209060 0.12659415 0.01388696 0.01059826 0.01599422 0.00096851 
0.01945379 0.02435900 0.00677772 0.00279866 0.00386505 0.00379647 0.01182537 0.00564460 0.01993978 0.00328266 0.00210534 0.12592062 0.01388132 0.01062855 0.01614226 0.00096067 
0.01810003 0.02472240 0.00674328 0.00279900 0.00384886 0.00384383 0.01180507 0.00574072 0.02013228 0.00331172 0.00211955 0.12529559 0.01386473 0.01065159 0.01628558 0.00095379 
0.01682801 0.02511574 0.00670526 0.00280275 0.00382955 0.00388913 0.01177653 0.00583503 0.02032884 0.00333896 0.00213323 0.12471922 0.01383724 0.01066740 0.01642367 0.00094795 
0.01564169 0.02553758 0.00666342 0.00280971 0.00380714 0.00393228 0.01174006 0.00592720 0.02052937 0.00336426 0.00214635 0.12419136 0.01379891 0.01067603 0.01655614 0.00094318 
0.01454476 0.02598641 0.00661756 0.00281968 0.00378168 0.00397316 0.01169598 0.00601697 0.02073389 0.00338758 0.00215892 0.12371159 0.01374984 0.01067759 0.01668272 0.00093955 
0.01354068 0.02646070 0.00656753 0.00283246 0.00375323 0.00401171 0.01164468 0.00610411 0.02094247 0.00340884 0.00217094 0.12327919 0.01369019 0.01067223 0.01680324 0.00093710 
