0.03541815 0.02738263 0.00911331 0.00158080 0.00124558 0.00102036 0.00830397 0.00269309 0.03234505 0.00258732 0.00176260 0.01991885 0.00357933 0.00417451 0.00436016 0.00130865 
0.03368279 0.02801493 0.00900180 0.00162571 0.00126924 0.00101134 0.00844216 0.00270056 0.03167604 0.00256424 0.00179767 0.01973879 0.00354714 0.00419387 0.00429906 0.00130735 
0.03203619 0.02862857 0.00889017 0.00167212 0.00129330 0.00100451 0.00858421 0.00270980 0.03098983 0.00254114 0.00183434 0.01955421 0.00351169 0.00420864 0.00423435 0.00130591 
0.03048443 0.02922228 0.00877835 0.00171995 0.00131768 0.00099985 0.00872942 0.00272061 0.03028822 0.00251808 0.00187243 0.01936740 0.00347313 0.00421883 0.00416634 0.00130433 
0.02903303 0.02979492 0.00866624 0.00176905 0.00134231 0.00099734 0.00887703 0.00273282 0.02957305 0.00249510 0.00191175 0.01918071 0.00343165 0.00422448 0.00409533 0.00130262 
0.02768695 0.03034548 0.00855372 0.00181932 0.00136710 0.00099694 0.00902630 0.00274623 0.02884621 0.00247227 0.00195211 0.01899649 0.00338745 0.00422565 0.00402166 0.00130077 
0.02645053 0.03087307 0.00844066 0.00187061 0.00139198 0.00099860 0.00917645 0.00276067 0.02810961 0.00244963 0.00199331 0.01881712 0.00334075 0.00422240 0.00394567 0.00129881 
0.02532751 0.03137692 0.00832691 0.00192280 0.00141686 0.00100228 0.00932672 0.00277595 0.02736518 0.00242721 0.00203515 0.01864498 0.00329178 0.00421484 0.00386771 0.00129673 
0.02432099 0.03185641 0.00821233 0.00197575 0.00144166 0.00100793 0.00947633 0.00279190 0.02661488 0.00240506 0.00207742 0.01848243 0.00324078 0.00420310 0.00378815 0.00129453 
0.02343343 0.03231103 0.00809676 0.00202932 0.00146627 0.00101548 0.00962449 0.00280836 0.02586070 0.00238320 0.00211991 0.01833180 0.00318801 0.00418730 0.00370734 0.00129224 
0.02266665 0.03274039 0.00798005 0.00208337 0.00149062 0.00102487 0.00977044 0.00282517 0.02510461 0.00236166 0.00216240 0.01819535 0.00313374 0.00416761 0.00362567 0.00128985 
0.02202181 0.03314424 0.00786203 0.00213774 0.00151461 0.00103604 0.00991338 0.00284217 0.02434861 0.00234047 0.00220468 0.01807528 0.00307825 0.00414420 0.00354350 0.00128738 
0.02149943 0.03352244 0.00774256 0.00219231 0.00153815 0.00104890 0.01005257 0.00285922 0.02359469 0.00231963 0.00224654 0.01797374 0.00302183 0.00411729 0.00346122 0.00128483 
0.02109937 0.03387497 0.00762150 0.00224693 0.00156114 0.00106338 0.01018725 0.00287618 0.02284486 0.00229918 0.00228774 0.01789273 0.00296477 0.00408707 0.00337920 0.00128222 
0.02082086 0.03420190 0.00749872 0.00230145 0.00158349 0.00107939 0.01031667 0.00289293 0.02210108 0.00227911 0.00232809 0.01783418 0.00290737 0.00405377 0.00329781 0.00127955 
0.02066251 0.03450342 0.00737413 0.00235573 0.00160512 0.00109686 0.01044013 0.00290935 0.02136535 0.00225943 0.00236737 0.01779987 0.00284995 0.00401765 0.00321743 0.00127684 
0.02062229 0.03477981 0.00724761 0.00240962 0.00162593 0.00111568 0.01055693 0.00292532 0.02063960 0.00224014 0.00240536 0.01779146 0.00279280 0.00397896 0.00313841 0.00127410 
0.02069758 0.03503146 0.00711911 0.00246300 0.00164583 0.00113578 0.01066639 0.00294075 0.01992579 0.00222123 0.00244188 0.01781043 0.00273624 0.00393796 0.00306112 0.00127134 
0.02088518 0.03525881 0.00698858 0.00251573 0.00166473 0.00115705 0.01076788 0.00295554 0.01922582 0.00220271 0.00247672 0.01785812 0.00268058 0.00389494 0.00298590 0.00126857 
0.02118133 0.03546239 0.00685600 0.00256766 0.00168255 0.00117941 0.01086080 0.00296961 0.01854157 0.00218457 0.00250969 0.01793569 0.00262613 0.00385018 0.00291308 0.00126580 
0.02158173 0.03564281 0.00672138 0.00261869 0.00169920 0.00120276 0.01094456 0.00298289 0.01787490 0.00216678 0.00254062 0.01804413 0.00257319 0.00380397 0.00284299 0.00126304 
0.02208157 0.03580074 0.00658475 0.00266868 0.00171461 0.00122699 0.01101863 0.00299532 0.01722760 0.00214934 0.00256932 0.01818420 0.00252209 0.00375661 0.00277592 0.00126031 
0.02267556 0.03593687 0.00644620 0.00271751 0.00172870 0.00125203 0.01108253 0.00300685 0.01660146 0.00213222 0.00259564 0.01835652 0.00247310 0.00370841 0.00271218 0.00125762 
0.02335799 0.03605198 0.00630583 0.00276508 0.00174139 0.00127776 0.01113580 0.00301742 0.01599818 0.00211542 0.00261942 0.01856145 0.00242653 0.00365966 0.00265204 0.00125497 
0.02412269 0.03614684 0.00616376 0.00281127 0.00175263 0.00130409 0.01117804 0.00302701 0.01541945 0.00209891 0.00264053 0.01879919 0.00238267 0.00361066 0.00259574 0.00125239 
0.02496317 0.03622229 0.00602019 0.00285598 0.00176234 0.00133093 0.01120889 0.00303558 0.01486687 0.00208266 0.00265884 0.01906969 0.00234178 0.00356173 0.00254352 0.00124988 
0.02587255 0.03627916 0.00587531 0.00289913 0.00177047 0.00135818 0.01122807 0.00304313 0.01434199 0.00206666 0.00267423 0.01937271 0.00230415 0.00351314 0.00249559 0.00124745 
0.02684368 0.03631831 0.00572937 0.00294062 0.00177696 0.00138575 0.01123531 0.00304964 0.01384632 0.00205088 0.00268662 0.01970782 0.00227002 0.00346520 0.00245213 0.00124511 
0.02786915 0.03634059 0.00558264 0.00298038 0.00178177 0.00141355 0.01123043 0.00305512 0.01338127 0.00203530 0.00269591 0.02007433 0.00223965 0.00341819 0.00241332 0.00124288 
0.02894131 0.03634686 0.00543543 0.00301832 0.00178486 0.00144148 0.01121328 0.00305956 0.01294819 0.00201990 0.00270204 0.02047140 0.00221327 0.00337238 0.00237929 0.00124077 
0.03005236 0.03633797 0.00528810 0.00305438 0.00178620 0.00146948 0.01118378 0.00306300 0.01254834 0.00200465 0.00270496 0.02089794 0.00219110 0.00332803 0.00235016 0.00123877 
0.03119435 0.03631475 0.00514101 0.00308851 0.00178574 0.00149744 0.01114192 0.00306544 0.01218291 0.00198953 0.00270463 0.02135271 0.00217335 0.00328540 0.00232601 0.00123691 
0.03235925 0.03627802 0.00499457 0.00312065 0.00178349 0.00152530 0.01108773 0.00306692 0.01185299 0.00197453 0.00270104 0.02183425 0.00216022 0.00324472 0.00230692 0.00123519 
0.03353897 0.03622856 0.00484922 0.00315076 0.00177941 0.00155296 0.01102130 0.00306748 0.01155960 0.00195963 0.00269418 0.02234094 0.00215188 0.00320622 0.00229291 0.00123362 
0.03472544 0.03616713 0.00470542 0.00317879 0.00177351 0.00158037 0.01094279 0.00306715 0.01130363 0.00194481 0.00268408 0.02287098 0.00214849 0.00317011 0.00228399 0.00123220 
0.03591061 0.03609446 0.00456365 0.00320473 0.00176578 0.00160744 0.01085241 0.00306598 0.01108590 0.00193006 0.00267075 0.02342242 0.00215021 0.00313659 0.00228017 0.00123095 
0.03708652 0.03601124 0.00442442 0.00322855 0.00175624 0.00163412 0.01075044 0.00306403 0.01090709 0.00191536 0.00265426 0.02399318 0.00215717 0.00310581 0.00228138 0.00122986 
0.03824534 0.03591813 0.00428827 0.00325023 0.00174490 0.00166034 0.01063719 0.00306136 0.01076780 0.00190071 0.00263467 0.02458103 0.00216948 0.00307794 0.00228758 0.00122894 
0.03937940 0.03581573 0.00415573 0.00326975 0.00173179 0.00168604 0.01051306 0.00305802 0.01066850 0.00188611 0.00261207 0.02518363 0.00218725 0.00305312 0.00229866 0.00122820 
0.04048123 0.03570462 0.00402736 0.00328713 0.00171694 0.00171117 0.01037849 0.00305407 0.01060954 0.00187155 0.00258655 0.02579855 0.00221055 0.00303146 0.00231451 0.00122764 
0.04154362 0.03558531 0.00390375 0.00330236 0.00170039 0.00173567 0.01023396 0.00304959 0.01059114 0.00185703 0.00255823 0.02642327 0.00223945 0.00301306 0.00233500 0.00122726 
0.04255964 0.03545831 0.00378545 0.00331546 0.00168218 0.00175951 0.01008002 0.00304465 0.01061340 0.00184255 0.00252724 0.02705519 0.00227401 0.00299799 0.00235997 0.00122706 
0.04352266 0.03532405 0.00367307 0.00332643 0.00166238 0.00178264 0.00991726 0.00303932 0.01067629 0.00182813 0.00249373 0.02769170 0.00231426 0.00298630 0.00238924 0.00122704 
0.04442642 0.03518294 0.00356718 0.00333530 0.00164105 0.00180503 0.00974632 0.00303367 0.01077964 0.00181377 0.00245785 0.02833011 0.00236022 0.00297804 0.00242260 0.00122721 
0.04526503 0.03503534 0.00346836 0.00334209 0.00161826 0.00182664 0.00956788 0.00302778 0.01092315 0.00179949 0.00241977 0.02896776 0.00241189 0.00297321 0.00245985 0.00122756 
0.04603303 0.03488159 0.00337720 0.00334684 0.00159408 0.00184745 0.00938264 0.00302173 0.01110637 0.00178531 0.00237969 0.02960196 0.00246926 0.00297180 0.00250075 0.00122809 
0.04672538 0.03472199 0.00329426 0.00334958 0.00156861 0.00186743 0.00919138 0.00301559 0.01132871 0.00177124 0.00233778 0.03023006 0.00253231 0.00297380 0.00254505 0.00122879 
0.04733753 0.03455680 0.00322010 0.00335034 0.00154194 0.00188657 0.00899486 0.00300944 0.01158946 0.00175732 0.00229426 0.03084946 0.00260099 0.00297914 0.00259249 0.00122967 
0.04786540 0.03438627 0.00315527 0.00334919 0.00151416 0.00190485 0.00879392 0.00300335 0.01188772 0.00174356 0.00224933 0.03145761 0.00267525 0.00298778 0.00264280 0.00123071 
0.04830542 0.03421062 0.00310028 0.00334615 0.00148539 0.00192226 0.00858938 0.00299740 0.01222249 0.00173000 0.00220322 0.03205202 0.00275503 0.00299961 0.00269570 0.00123192 
0.04865456 0.03403005 0.00305564 0.00334128 0.00145572 0.00193881 0.00838212 0.00299166 0.01259260 0.00171666 0.00215614 0.03263032 0.00284024 0.00301456 0.00275089 0.00123328 
0.04891030 0.03384476 0.00302184 0.00333463 0.00142529 0.00195447 0.00817299 0.00298621 0.01299674 0.00170359 0.00210833 0.03319024 0.00293080 0.00303248 0.00280810 0.00123480 
0.04907071 0.03365493 0.00299930 0.00332626 0.00139421 0.00196927 0.00796290 0.00298111 0.01343347 0.00169081 0.00206002 0.03372963 0.00302660 0.00305327 0.00286701 0.00123645 
0.04913440 0.03346074 0.00298847 0.00331623 0.00136260 0.00198321 0.00775273 0.00297642 0.01390119 0.00167837 0.00201144 0.03424647 0.00312752 0.00307676 0.00292734 0.00123824 
0.04910055 0.03326237 0.00298971 0.00330460 0.00133060 0.00199629 0.00754338 0.00297221 0.01439819 0.00166630 0.00196283 0.03473891 0.00323346 0.00310281 0.00298878 0.00124015 
0.04896891 0.03306000 0.00300339 0.00329142 0.00129834 0.00200854 0.00733574 0.00296854 0.01492260 0.00165464 0.00191442 0.03520525 0.00334426 0.00313124 0.00305104 0.00124218 
0.04873980 0.03285383 0.00302981 0.00327677 0.00126596 0.00201997 0.00713070 0.00296547 0.01547244 0.00164344 0.00186645 0.03564399 0.00345980 0.00316188 0.00311384 0.00124431 
0.04841412 0.03264408 0.00306924 0.00326070 0.00123358 0.00203060 0.00692915 0.00296303 0.01604561 0.00163273 0.00181914 0.03605377 0.00357992 0.00319453 0.00317688 0.00124654 
0.04799332 0.03243097 0.00312191 0.00324329 0.00120137 0.00204047 0.00673192 0.00296129 0.01663987 0.00162255 0.00177271 0.03643347 0.00370446 0.00322901 0.00323991 0.00124885 
0.04747942 0.03221476 0.00318801 0.00322460 0.00116944 0.00204959 0.00653988 0.00296027 0.01725289 0.00161295 0.00172738 0.03678214 0.00383328 0.00326511 0.00330265 0.00125123 
0.04687496 0.03199574 0.00326765 0.00320471 0.00113794 0.00205800 0.00635382 0.00296002 0.01788224 0.00160396 0.00168336 0.03709905 0.00396619 0.00330263 0.00336485 0.00125367 
0.04618304 0.03177421 0.00336094 0.00318366 0.00110702 0.00206574 0.00617454 0.00296057 0.01852538 0.00159562 0.00164086 0.03738367 0.00410302 0.00334136 0.00342629 0.00125616 
0.04540725 0.03155052 0.00346791 0.00316155 0.00107681 0.00207284 0.00600278 0.00296193 0.01917971 0.00158797 0.00160005 0.03763568 0.00424360 0.00338110 0.00348673 0.00125868 
0.04455169 0.03132506 0.00358854 0.00313843 0.00104745 0.00207934 0.00583926 0.00296414 0.01984253 0.00158104 0.00156113 0.03785499 0.00438774 0.00342164 0.00354598 0.00126122 
0.04362093 0.03109825 0.00372277 0.00311438 0.00101907 0.00208528 0.00568465 0.00296720 0.02051110 0.00157486 0.00152426 0.03804170 0.00453526 0.00346277 0.00360385 0.00126378 
0.04262000 0.03087055 0.00387047 0.00308947 0.00099181 0.00209070 0.00553957 0.00297112 0.02118261 0.00156946 0.00148960 0.03819613 0.00468596 0.00350431 0.00366018 0.00126633 
0.04155434 0.03064246 0.00403149 0.00306376 0.00096578 0.00209565 0.00540461 0.00297591 0.02185422 0.00156487 0.00145728 0.03831879 0.00483966 0.00354604 0.00371481 0.00126887 
0.04042981 0.03041454 0.00420558 0.00303733 0.00094111 0.00210018 0.00528029 0.00298155 0.02252306 0.00156110 0.00142743 0.03841041 0.00499616 0.00358778 0.00376763 0.00127139 
0.03925262 0.03018737 0.00439248 0.00301024 0.00091792 0.00210434 0.00516709 0.00298803 0.02318624 0.00155818 0.00140017 0.03847189 0.00515527 0.00362934 0.00381853 0.00127386 
0.03802932 0.02996158 0.00459185 0.00298257 0.00089632 0.00210816 0.00506542 0.00299535 0.02384088 0.00155613 0.00137559 0.03850434 0.00531678 0.00367056 0.00386743 0.00127628 
0.03676678 0.02973785 0.00480330 0.00295439 0.00087642 0.00211171 0.00497564 0.00300347 0.02448412 0.00155494 0.00135377 0.03850901 0.00548049 0.00371127 0.00391427 0.00127864 
0.03547213 0.02951689 0.00502640 0.00292576 0.00085830 0.00211502 0.00489805 0.00301238 0.02511309 0.00155464 0.00133478 0.03848732 0.00564620 0.00375132 0.00395902 0.00128093 
0.03415272 0.02929946 0.00526066 0.00289676 0.00084206 0.00211816 0.00483287 0.00302202 0.02572501 0.00155521 0.00131865 0.03844087 0.00581372 0.00379056 0.00400166 0.00128314 
0.03281613 0.02908633 0.00550554 0.00286746 0.00082779 0.00212116 0.00478028 0.00303238 0.02631712 0.00155666 0.00130543 0.03837134 0.00598282 0.00382886 0.00404220 0.00128525 
0.03147008 0.02887835 0.00576045 0.00283792 0.00081554 0.00212409 0.00474039 0.00304339 0.02688675 0.00155898 0.00129511 0.03828059 0.00615332 0.00386610 0.00408066 0.00128725 
0.03012242 0.02867635 0.00602476 0.00280821 0.00080539 0.00212698 0.00471323 0.00305502 0.02743131 0.00156216 0.00128769 0.03817053 0.00632499 0.00390219 0.00411711 0.00128915 
0.02878108 0.02848123 0.00629779 0.00277840 0.00079739 0.00212989 0.00469878 0.00306721 0.02794831 0.00156617 0.00128316 0.03804320 0.00649764 0.00393704 0.00415160 0.00129092 
0.02745404 0.02829387 0.00657881 0.00274856 0.00079158 0.00213287 0.00469694 0.00307990 0.02843537 0.00157100 0.00128148 0.03790068 0.00667105 0.00397056 0.00418423 0.00129256 
0.02614928 0.02811521 0.00686706 0.00271876 0.00078799 0.00213595 0.00470757 0.00309303 0.02889025 0.00157663 0.00128258 0.03774514 0.00684501 0.00400269 0.00421511 0.00129407 
0.02487474 0.02794617 0.00716174 0.00268905 0.00078665 0.00213919 0.00473044 0.00310654 0.02931083 0.00158301 0.00128640 0.03757875 0.00701931 0.00403340 0.00424434 0.00129544 
0.02363831 0.02778770 0.00746200 0.00265952 0.00078757 0.00214263 0.00476526 0.00312037 0.02969516 0.00159011 0.00129285 0.03740372 0.00719373 0.00406264 0.00427209 0.00129665 
0.02244775 0.02764075 0.00776698 0.00263023 0.00079076 0.00214630 0.00481171 0.00313443 0.03004146 0.00159790 0.00130182 0.03722226 0.00736805 0.00409040 0.00429849 0.00129772 
0.02131066 0.02750625 0.00807577 0.00260123 0.00079619 0.00215025 0.00486936 0.00314868 0.03034811 0.00160633 0.00131322 0.03703655 0.00754205 0.00411668 0.00432370 0.00129863 
0.02023447 0.02738516 0.00838743 0.00257260 0.00080385 0.00215451 0.00493778 0.00316303 0.03061370 0.00161535 0.00132690 0.03684876 0.00771552 0.00414148 0.00434790 0.00129938 
0.01922639 0.02727839 0.00870102 0.00254440 0.00081371 0.00215912 0.00501643 0.00317741 0.03083700 0.00162491 0.00134274 0.03666098 0.00788822 0.00416482 0.00437128 0.00129996 
0.01829336 0.02718685 0.00901556 0.00251669 0.00082573 0.00216410 0.00510476 0.00319176 0.03101699 0.00163496 0.00136057 0.03647524 0.00805992 0.00418675 0.00439400 0.00130039 
0.01744201 0.02711142 0.00933006 0.00248953 0.00083985 0.00216949 0.00520215 0.00320600 0.03115289 0.00164543 0.00138023 0.03629351 0.00823040 0.00420730 0.00441628 0.00130065 
0.01667868 0.02705295 0.00964351 0.00246299 0.00085602 0.00217530 0.00530794 0.00322007 0.03124410 0.00165628 0.00140156 0.03611763 0.00839943 0.00422655 0.00443828 0.00130075 
0.01600931 0.02701227 0.00995491 0.00243712 0.00087415 0.00218156 0.00542145 0.00323390 0.03129029 0.00166743 0.00142438 0.03594934 0.00856675 0.00424454 0.00446022 0.00130068 
0.01543947 0.02699014 0.01026325 0.00241198 0.00089417 0.00218828 0.00554192 0.00324744 0.03129133 0.00167883 0.00144850 0.03579024 0.00873213 0.00426137 0.00448227 0.00130046 
0.01497433 0.02698730 0.01056749 0.00238763 0.00091598 0.00219549 0.00566860 0.00326062 0.03124735 0.00169040 0.00147374 0.03564183 0.00889533 0.00427711 0.00450461 0.00130008 
0.01461859 0.02700443 0.01086664 0.00236413 0.00093949 0.00220318 0.00580067 0.00327338 0.03115869 0.00170209 0.00149990 0.03550541 0.00905609 0.00429186 0.00452744 0.00129954 
0.01437650 0.02704214 0.01115968 0.00234153 0.00096458 0.00221137 0.00593733 0.00328569 0.03102595 0.00171383 0.00152677 0.03538216 0.00921416 0.00430572 0.00455091 0.00129885 
0.01425180 0.02710101 0.01144563 0.00231987 0.00099113 0.00222006 0.00607773 0.00329749 0.03084996 0.00172555 0.00155417 0.03527308 0.00936928 0.00431879 0.00457518 0.00129802 
0.01424774 0.02718152 0.01172352 0.00229922 0.00101904 0.00222924 0.00622101 0.00330875 0.03063178 0.00173719 0.00158190 0.03517899 0.00952120 0.00433118 0.00460040 0.00129705 
0.01436704 0.02728412 0.01199239 0.00227961 0.00104815 0.00223892 0.00636631 0.00331943 0.03037271 0.00174868 0.00160974 0.03510056 0.00966964 0.00434301 0.00462671 0.00129595 
0.01461187 0.02740916 0.01225131 0.00226110 0.00107835 0.00224908 0.00651275 0.00332951 0.03007425 0.00175996 0.00163752 0.03503825 0.00981434 0.00435438 0.00465422 0.00129472 
0.01498385 0.02755691 0.01249940 0.00224372 0.00110948 0.00225971 0.00665946 0.00333896 0.02973815 0.00177098 0.00166503 0.03499235 0.00995502 0.00436541 0.00468303 0.00129337 
0.01548405 0.02772759 0.01273579 0.00222751 0.00114141 0.00227079 0.00680556 0.00334779 0.02936636 0.00178167 0.00169208 0.03496298 0.01009143 0.00437621 0.00471321 0.00129191 
0.01611293 0.02792132 0.01295966 0.00221252 0.00117398 0.00228230 0.00695021 0.00335597 0.02896102 0.00179198 0.00171850 0.03495006 0.01022327 0.00438690 0.00474485 0.00129035 
0.01687041 0.02813814 0.01317023 0.00219878 0.00120704 0.00229421 0.00709254 0.00336352 0.02852447 0.00180186 0.00174411 0.03495337 0.01035028 0.00439758 0.00477797 0.00128869 
0.01775580 0.02837801 0.01336678 0.00218632 0.00124045 0.00230650 0.00723174 0.00337045 0.02805923 0.00181126 0.00176873 0.03497247 0.01047218 0.00440837 0.00481260 0.00128695 
0.01876786 0.02864081 0.01354862 0.00217517 0.00127404 0.00231914 0.00736699 0.00337678 0.02756797 0.00182013 0.00179220 0.03500680 0.01058868 0.00441936 0.00484874 0.00128513 
0.01990475 0.02892632 0.01371513 0.00216536 0.00130766 0.00233208 0.00749752 0.00338253 0.02705355 0.00182844 0.00181439 0.03505562 0.01069951 0.00443066 0.00488636 0.00128325 
0.02116406 0.02923426 0.01386574 0.00215690 0.00134116 0.00234529 0.00762257 0.00338773 0.02651892 0.00183615 0.00183514 0.03511806 0.01080440 0.00444235 0.00492543 0.00128131 
0.02254282 0.02956423 0.01399995 0.00214983 0.00137438 0.00235872 0.00774144 0.00339244 0.02596719 0.00184323 0.00185433 0.03519310 0.01090307 0.00445452 0.00496587 0.00127932 
0.02403750 0.02991579 0.01411731 0.00214414 0.00140718 0.00237234 0.00785344 0.00339670 0.02540154 0.00184966 0.00187184 0.03527961 0.01099525 0.00446725 0.00500760 0.00127729 
0.02564403 0.03028839 0.01421745 0.00213986 0.00143941 0.00238608 0.00795795 0.00340056 0.02482525 0.00185541 0.00188756 0.03537635 0.01108067 0.00448062 0.00505051 0.00127524 
0.02735782 0.03068141 0.01430007 0.00213700 0.00147092 0.00239991 0.00805437 0.00340408 0.02424169 0.00186047 0.00190141 0.03548199 0.01115907 0.00449467 0.00509447 0.00127316 
0.02917376 0.03109414 0.01436493 0.00213556 0.00150158 0.00241376 0.00814216 0.00340735 0.02365424 0.00186483 0.00191332 0.03559511 0.01123020 0.00450947 0.00513933 0.00127108 
0.03108625 0.03152580 0.01441186 0.00213554 0.00153125 0.00242758 0.00822084 0.00341043 0.02306634 0.00186850 0.00192320 0.03571423 0.01129380 0.00452506 0.00518491 0.00126900 
0.03308923 0.03197556 0.01444078 0.00213695 0.00155980 0.00244131 0.00828996 0.00341339 0.02248142 0.00187146 0.00193102 0.03583784 0.01134963 0.00454149 0.00523105 0.00126693 
0.03517620 0.03244250 0.01445169 0.00213977 0.00158712 0.00245489 0.00834915 0.00341633 0.02190290 0.00187373 0.00193675 0.03596438 0.01139747 0.00455876 0.00527753 0.00126489 
0.03734022 0.03292563 0.01444463 0.00214400 0.00161309 0.00246827 0.00839807 0.00341934 0.02133419 0.00187532 0.00194035 0.03609229 0.01143709 0.00457691 0.00532413 0.00126286 
0.03957399 0.03342392 0.01441975 0.00214963 0.00163760 0.00248137 0.00843647 0.00342249 0.02077862 0.00187626 0.00194182 0.03622004 0.01146829 0.00459595 0.00537063 0.00126088 
0.04186982 0.03393626 0.01437726 0.00215665 0.00166055 0.00249414 0.00846412 0.00342590 0.02023949 0.00187655 0.00194117 0.03634609 0.01149087 0.00461586 0.00541680 0.00125894 
0.04421972 0.03446151 0.01431745 0.00216503 0.00168185 0.00250651 0.00848087 0.00342964 0.01971996 0.00187624 0.00193843 0.03646896 0.01150465 0.00463665 0.00546237 0.00125705 
0.04661538 0.03499847 0.01424067 0.00217477 0.00170143 0.00251841 0.00848664 0.00343381 0.01922313 0.00187536 0.00193362 0.03658725 0.01150947 0.00465830 0.00550710 0.00125522 
0.04904825 0.03554590 0.01414737 0.00218582 0.00171920 0.00252979 0.00848140 0.00343852 0.01875195 0.00187393 0.00192679 0.03669960 0.01150518 0.00468078 0.00555073 0.00125346 
0.05150954 0.03610253 0.01403804 0.00219818 0.00173512 0.00254058 0.00846515 0.00344385 0.01830921 0.00187202 0.00191801 0.03680479 0.01149165 0.00470405 0.00559300 0.00125177 
0.05399027 0.03666705 0.01391325 0.00221181 0.00174911 0.00255072 0.00843799 0.00344990 0.01789758 0.00186965 0.00190734 0.03690168 0.01146876 0.00472809 0.00563365 0.00125016 
0.05648132 0.03723813 0.01377362 0.00222669 0.00176116 0.00256014 0.00840006 0.00345675 0.01751951 0.00186689 0.00189487 0.03698927 0.01143644 0.00475283 0.00567243 0.00124863 
0.05897345 0.03781440 0.01361986 0.00224278 0.00177121 0.00256879 0.00835155 0.00346449 0.01717728 0.00186379 0.00188069 0.03706670 0.01139460 0.00477823 0.00570907 0.00124718 
0.06145736 0.03839449 0.01345271 0.00226005 0.00177925 0.00257660 0.00829270 0.00347320 0.01687295 0.00186039 0.00186491 0.03713327 0.01134322 0.00480422 0.00574335 0.00124583 
0.06392370 0.03897703 0.01327297 0.00227846 0.00178526 0.00258352 0.00822382 0.00348296 0.01660838 0.00185676 0.00184764 0.03718843 0.01128225 0.00483075 0.00577502 0.00124458 
0.06636313 0.03956061 0.01308150 0.00229799 0.00178924 0.00258949 0.00814523 0.00349384 0.01638519 0.00185295 0.00182900 0.03723183 0.01121171 0.00485774 0.00580387 0.00124343 
0.06876637 0.04014385 0.01287918 0.00231859 0.00179120 0.00259446 0.00805735 0.00350591 0.01620473 0.00184903 0.00180911 0.03726330 0.01113162 0.00488512 0.00582969 0.00124237 
0.07112422 0.04072536 0.01266696 0.00234023 0.00179115 0.00259838 0.00796059 0.00351922 0.01606815 0.00184506 0.00178812 0.03728283 0.01104202 0.00491281 0.00585229 0.00124142 
0.07342760 0.04130376 0.01244579 0.00236287 0.00178913 0.00260119 0.00785543 0.00353382 0.01597629 0.00184111 0.00176617 0.03729066 0.01094301 0.00494074 0.00587151 0.00124058 
0.07566761 0.04187768 0.01221667 0.00238648 0.00178515 0.00260287 0.00774238 0.00354975 0.01592978 0.00183722 0.00174338 0.03728719 0.01083468 0.00496882 0.00588720 0.00123984 
0.07783555 0.04244576 0.01198061 0.00241103 0.00177928 0.00260336 0.00762198 0.00356706 0.01592893 0.00183347 0.00171992 0.03727305 0.01071717 0.00499698 0.00589923 0.00123920 
0.07992297 0.04300668 0.01173866 0.00243647 0.00177155 0.00260263 0.00749479 0.00358576 0.01597381 0.00182991 0.00169592 0.03724907 0.01059063 0.00502513 0.00590750 0.00123867 
0.08192169 0.04355912 0.01149184 0.00246277 0.00176202 0.00260065 0.00736142 0.00360586 0.01606422 0.00182660 0.00167155 0.03721627 0.01045525 0.00505318 0.00591195 0.00123825 
0.08382388 0.04410182 0.01124122 0.00248990 0.00175078 0.00259738 0.00722248 0.00362739 0.01619968 0.00182360 0.00164693 0.03717589 0.01031124 0.00508106 0.00591252 0.00123793 
0.08562204 0.04463351 0.01098783 0.00251783 0.00173787 0.00259281 0.00707859 0.00365033 0.01637943 0.00182096 0.00162223 0.03712935 0.01015885 0.00510868 0.00590921 0.00123772 
0.08730905 0.04515299 0.01073272 0.00254652 0.00172340 0.00258690 0.00693041 0.00367467 0.01660247 0.00181874 0.00159759 0.03707826 0.00999834 0.00513596 0.00590201 0.00123760 
0.08887824 0.04565908 0.01047691 0.00257595 0.00170744 0.00257966 0.00677859 0.00370040 0.01686753 0.00181698 0.00157315 0.03702442 0.00983000 0.00516283 0.00589097 0.00123759 
0.09032338 0.04615063 0.01022141 0.00260610 0.00169008 0.00257105 0.00662379 0.00372748 0.01717310 0.00181572 0.00154905 0.03696980 0.00965416 0.00518921 0.00587617 0.00123767 
0.09163872 0.04662656 0.00996720 0.00263694 0.00167142 0.00256109 0.00646667 0.00375588 0.01751740 0.00181501 0.00152542 0.03691650 0.00947116 0.00521503 0.00585770 0.00123785 
0.09281901 0.04708581 0.00971522 0.00266845 0.00165157 0.00254976 0.00630789 0.00378555 0.01789845 0.00181489 0.00150238 0.03686680 0.00928138 0.00524021 0.00583570 0.00123812 
0.09385955 0.04752737 0.00946641 0.00270060 0.00163062 0.00253707 0.00614810 0.00381643 0.01831404 0.00181537 0.00148006 0.03682308 0.00908521 0.00526469 0.00581033 0.00123848 
0.09475618 0.04795027 0.00922163 0.00273339 0.00160868 0.00252303 0.00598795 0.00384847 0.01876175 0.00181651 0.00145856 0.03678786 0.00888307 0.00528840 0.00578178 0.00123892 
0.09550534 0.04835361 0.00898171 0.00276679 0.00158586 0.00250766 0.00582806 0.00388159 0.01923897 0.00181830 0.00143800 0.03676372 0.00867539 0.00531129 0.00575028 0.00123944 
0.09610403 0.04873651 0.00874745 0.00280080 0.00156228 0.00249097 0.00566905 0.00391572 0.01974292 0.00182078 0.00141846 0.03675334 0.00846265 0.00533330 0.00571606 0.00124004 
0.09654989 0.04909817 0.00851956 0.00283541 0.00153805 0.00247299 0.00551150 0.00395079 0.02027066 0.00182396 0.00140003 0.03675945 0.00824533 0.00535437 0.00567939 0.00124071 
0.09684115 0.04943780 0.00829871 0.00287061 0.00151327 0.00245375 0.00535600 0.00398670 0.02081912 0.00182784 0.00138279 0.03678482 0.00802392 0.00537445 0.00564058 0.00124145 
0.09697671 0.04975470 0.00808554 0.00290639 0.00148808 0.00243328 0.00520307 0.00402336 0.02138508 0.00183243 0.00136680 0.03683222 0.00779894 0.00539351 0.00559994 0.00124226 
0.09695607 0.05004821 0.00788057 0.00294276 0.00146257 0.00241164 0.00505324 0.00406069 0.02196525 0.00183772 0.00135212 0.03690443 0.00757093 0.00541149 0.00555781 0.00124313 
0.09677938 0.05031770 0.00768431 0.00297972 0.00143687 0.00238885 0.00490700 0.00409859 0.02255624 0.00184370 0.00133879 0.03700419 0.00734044 0.00542837 0.00551454 0.00124405 
0.09644744 0.05056261 0.00749717 0.00301726 0.00141109 0.00236498 0.00476479 0.00413697 0.02315462 0.00185037 0.00132684 0.03713419 0.00710801 0.00544410 0.00547051 0.00124503 
0.09596170 0.05078243 0.00731952 0.00305538 0.00138534 0.00234008 0.00462704 0.00417571 0.02375691 0.00185771 0.00131630 0.03729705 0.00687424 0.00545866 0.00542610 0.00124605 
0.09532421 0.05097670 0.00715164 0.00309410 0.00135973 0.00231421 0.00449412 0.00421474 0.02435962 0.00186569 0.00130718 0.03749528 0.00663968 0.00547203 0.00538170 0.00124712 
0.09453768 0.05114500 0.00699374 0.00313342 0.00133437 0.00228745 0.00436640 0.00425395 0.02495924 0.00187429 0.00129948 0.03773130 0.00640494 0.00548417 0.00533771 0.00124824 
0.09360541 0.05128699 0.00684600 0.00317334 0.00130936 0.00225985 0.00424417 0.00429325 0.02555234 0.00188348 0.00129318 0.03800736 0.00617060 0.00549507 0.00529455 0.00124939 
0.09253132 0.05140234 0.00670850 0.00321388 0.00128481 0.00223151 0.00412771 0.00433255 0.02613548 0.00189323 0.00128827 0.03832559 0.00593725 0.00550472 0.00525261 0.00125057 
0.09131990 0.05149079 0.00658126 0.00325502 0.00126081 0.00220249 0.00401727 0.00437176 0.02670535 0.00190351 0.00128472 0.03868791 0.00570551 0.00551310 0.00521231 0.00125178 
0.08997621 0.05155214 0.00646426 0.00329679 0.00123747 0.00217289 0.00391303 0.00441079 0.02725867 0.00191426 0.00128249 0.03909606 0.00547595 0.00552021 0.00517404 0.00125302 
0.08850585 0.05158622 0.00635739 0.00333918 0.00121487 0.00214279 0.00381515 0.00444957 0.02779233 0.00192546 0.00128154 0.03955156 0.00524918 0.00552603 0.00513821 0.00125428 
0.08691493 0.05159291 0.00626052 0.00338220 0.00119310 0.00211229 0.00372377 0.00448803 0.02830331 0.00193706 0.00128179 0.04005573 0.00502579 0.00553057 0.00510519 0.00125557 
0.08521007 0.05157216 0.00617344 0.00342584 0.00117224 0.00208149 0.00363896 0.00452609 0.02878877 0.00194900 0.00128319 0.04060960 0.00480636 0.00553382 0.00507536 0.00125687 
0.08339832 0.05152394 0.00609589 0.00347011 0.00115238 0.00205048 0.00356079 0.00456370 0.02924600 0.00196125 0.00128567 0.04121401 0.00459147 0.00553580 0.00504907 0.00125818 
0.08148717 0.05144829 0.00602759 0.00351499 0.00113359 0.00201938 0.00348927 0.00460080 0.02967252 0.00197376 0.00128914 0.04186948 0.00438168 0.00553651 0.00502667 0.00125951 
0.07948450 0.05134529 0.00596821 0.00356049 0.00111594 0.00198828 0.00342438 0.00463734 0.03006601 0.00198648 0.00129353 0.04257629 0.00417755 0.00553596 0.00500846 0.00126085 
0.07739855 0.05121505 0.00591736 0.00360659 0.00109949 0.00195729 0.00336610 0.00467329 0.03042439 0.00199937 0.00129875 0.04333443 0.00397963 0.00553417 0.00499475 0.00126220 
0.07523786 0.05105775 0.00587465 0.00365326 0.00108432 0.00192654 0.00331434 0.00470861 0.03074579 0.00201236 0.00130469 0.04414363 0.00378844 0.00553114 0.00498579 0.00126356 
0.07301127 0.05087360 0.00583966 0.00370050 0.00107046 0.00189612 0.00326901 0.00474328 0.03102859 0.00202543 0.00131127 0.04500330 0.00360449 0.00552692 0.00498183 0.00126492 
0.07072783 0.05066287 0.00581194 0.00374826 0.00105798 0.00186617 0.00322999 0.00477728 0.03127140 0.00203852 0.00131838 0.04591260 0.00342826 0.00552151 0.00498308 0.00126628 
0.06839680 0.05042586 0.00579103 0.00379652 0.00104692 0.00183678 0.00319714 0.00481060 0.03147310 0.00205159 0.00132593 0.04687039 0.00326025 0.00551496 0.00498972 0.00126765 
0.06602759 0.05016293 0.00577646 0.00384525 0.00103732 0.00180809 0.00317029 0.00484324 0.03163281 0.00206459 0.00133381 0.04787525 0.00310088 0.00550729 0.00500190 0.00126902 
0.06362971 0.04987447 0.00576776 0.00389438 0.00102921 0.00178020 0.00314929 0.00487521 0.03174994 0.00207750 0.00134192 0.04892551 0.00295060 0.00549854 0.00501972 0.00127039 
0.06121274 0.04956092 0.00576446 0.00394388 0.00102263 0.00175324 0.00313392 0.00490651 0.03182414 0.00209027 0.00135017 0.05001920 0.00280980 0.00548876 0.00504328 0.00127177 
0.05878626 0.04922277 0.00576609 0.00399368 0.00101760 0.00172733 0.00312400 0.00493717 0.03185533 0.00210287 0.00135844 0.05115412 0.00267887 0.00547799 0.00507260 0.00127314 
0.05635984 0.04886053 0.00577221 0.00404372 0.00101415 0.00170257 0.00311932 0.00496720 0.03184371 0.00211528 0.00136666 0.05232784 0.00255814 0.00546629 0.00510771 0.00127452 
0.05394297 0.04847477 0.00578239 0.00409392 0.00101227 0.00167908 0.00311965 0.00499664 0.03178972 0.00212746 0.00137472 0.05353769 0.00244795 0.00545371 0.00514857 0.00127589 
0.05154501 0.04806610 0.00579620 0.00414421 0.00101199 0.00165698 0.00312478 0.00502552 0.03169408 0.00213939 0.00138254 0.05478079 0.00234859 0.00544031 0.00519513 0.00127727 
0.04917520 0.04763517 0.00581326 0.00419449 0.00101331 0.00163637 0.00313449 0.00505386 0.03155774 0.00215105 0.00139003 0.05605406 0.00226031 0.00542616 0.00524728 0.00127864 
0.04684254 0.04718266 0.00583321 0.00424468 0.00101623 0.00161737 0.00314857 0.00508172 0.03138189 0.00216243 0.00139711 0.05735427 0.00218337 0.00541133 0.00530491 0.00128002 
0.04455580 0.04670929 0.00585574 0.00429466 0.00102073 0.00160007 0.00316680 0.00510912 0.03116797 0.00217352 0.00140372 0.05867802 0.00211794 0.00539590 0.00536783 0.00128140 
0.04232346 0.04621582 0.00588055 0.00434433 0.00102682 0.00158458 0.00318899 0.00513612 0.03091761 0.00218431 0.00140979 0.06002178 0.00206421 0.00537996 0.00543587 0.00128278 
0.04015371 0.04570305 0.00590739 0.00439358 0.00103446 0.00157099 0.00321492 0.00516275 0.03063267 0.00219480 0.00141525 0.06138191 0.00202230 0.00536359 0.00550879 0.00128416 
0.03805434 0.04517180 0.00593607 0.00444229 0.00104365 0.00155939 0.00324441 0.00518905 0.03031518 0.00220498 0.00142007 0.06275470 0.00199233 0.00534688 0.00558634 0.00128555 
0.03603277 0.04462293 0.00596640 0.00449032 0.00105434 0.00154988 0.00327730 0.00521505 0.02996736 0.00221487 0.00142419 0.06413636 0.00197436 0.00532994 0.00566825 0.00128695 
0.03409600 0.04405734 0.00599829 0.00453754 0.00106651 0.00154252 0.00331341 0.00524080 0.02959158 0.00222447 0.00142758 0.06552308 0.00196841 0.00531286 0.00575421 0.00128834 
0.03225057 0.04347594 0.00603165 0.00458382 0.00108012 0.00153739 0.00335261 0.00526633 0.02919036 0.00223379 0.00143022 0.06691104 0.00197450 0.00529576 0.00584389 0.00128975 
0.03050254 0.04287969 0.00606646 0.00462902 0.00109513 0.00153455 0.00339477 0.00529166 0.02876631 0.00224285 0.00143209 0.06829642 0.00199260 0.00527875 0.00593694 0.00129116 
0.02885746 0.04226956 0.00610274 0.00467298 0.00111148 0.00153407 0.00343977 0.00531682 0.02832218 0.00225166 0.00143317 0.06967544 0.00202262 0.00526194 0.00603302 0.00129259 
0.02732035 0.04164654 0.00614054 0.00471557 0.00112912 0.00153600 0.00348753 0.00534181 0.02786078 0.00226025 0.00143347 0.07104441 0.00206447 0.00524546 0.00613173 0.00129402 
0.02589570 0.04101167 0.00617998 0.00475664 0.00114801 0.00154038 0.00353796 0.00536666 0.02738497 0.00226864 0.00143300 0.07239969 0.00211801 0.00522942 0.00623269 0.00129546 
0.02458741 0.04036598 0.00622119 0.00479602 0.00116806 0.00154724 0.00359102 0.00539135 0.02689767 0.00227685 0.00143178 0.07373778 0.00218309 0.00521396 0.00633551 0.00129691 
0.02339884 0.03971053 0.00626436 0.00483358 0.00118921 0.00155661 0.00364667 0.00541589 0.02640180 0.00228490 0.00142982 0.07505531 0.00225948 0.00519921 0.00643979 0.00129838 
0.02233272 0.03904641 0.00630973 0.00486916 0.00121140 0.00156851 0.00370489 0.00544026 0.02590029 0.00229283 0.00142717 0.07634903 0.00234696 0.00518529 0.00654512 0.00129986 
0.02139121 0.03837471 0.00635752 0.00490262 0.00123453 0.00158293 0.00376569 0.00546443 0.02539604 0.00230067 0.00142387 0.07761592 0.00244527 0.00517233 0.00665109 0.00130135 
0.02057588 0.03769653 0.00640804 0.00493380 0.00125854 0.00159989 0.00382909 0.00548837 0.02489189 0.00230844 0.00141996 0.07885311 0.00255410 0.00516046 0.00675732 0.00130286 
0.01988769 0.03701299 0.00646158 0.00496258 0.00128333 0.00161936 0.00389512 0.00551203 0.02439065 0.00231616 0.00141550 0.08005795 0.00267314 0.00514982 0.00686341 0.00130439 
0.01932700 0.03632522 0.00651848 0.00498881 0.00130881 0.00164132 0.00396384 0.00553536 0.02389500 0.00232388 0.00141056 0.08122803 0.00280203 0.00514053 0.00696897 0.00130593 
0.01889359 0.03563435 0.00657907 0.00501235 0.00133490 0.00166573 0.00403532 0.00555829 0.02340757 0.00233160 0.00140520 0.08236116 0.00294038 0.00513272 0.00707364 0.00130748 
0.01858664 0.03494151 0.00664371 0.00503310 0.00136148 0.00169256 0.00410965 0.00558076 0.02293082 0.00233937 0.00139949 0.08345540 0.00308778 0.00512651 0.00717706 0.00130906 
0.01840479 0.03424786 0.00671276 0.00505092 0.00138846 0.00172175 0.00418691 0.00560267 0.02246711 0.00234719 0.00139353 0.08450908 0.00324381 0.00512201 0.00727890 0.00131065 
0.01834609 0.03355453 0.00678657 0.00506572 0.00141574 0.00175323 0.00426721 0.00562393 0.02201863 0.00235510 0.00138738 0.08552079 0.00340801 0.00511935 0.00737884 0.00131226 
0.01840808 0.03286266 0.00686549 0.00507740 0.00144321 0.00178693 0.00435067 0.00564444 0.02158741 0.00236312 0.00138115 0.08648939 0.00357989 0.00511862 0.00747658 0.00131388 
0.01858776 0.03217340 0.00694988 0.00508586 0.00147075 0.00182275 0.00443742 0.00566409 0.02117531 0.00237124 0.00137491 0.08741402 0.00375896 0.00511992 0.00757186 0.00131552 
0.01888163 0.03148787 0.00704004 0.00509104 0.00149827 0.00186061 0.00452756 0.00568276 0.02078398 0.00237950 0.00136876 0.08829407 0.00394469 0.00512335 0.00766443 0.00131718 
0.01928575 0.03080721 0.00713629 0.00509287 0.00152563 0.00190039 0.00462124 0.00570031 0.02041490 0.00238790 0.00136280 0.08912925 0.00413656 0.00512898 0.00775409 0.00131885 
0.01979569 0.03013254 0.00723890 0.00509129 0.00155273 0.00194198 0.00471858 0.00571662 0.02006932 0.00239643 0.00135711 0.08991948 0.00433401 0.00513689 0.00784064 0.00132053 
0.02040664 0.02946495 0.00734810 0.00508629 0.00157946 0.00198526 0.00481970 0.00573154 0.01974829 0.00240511 0.00135180 0.09066501 0.00453647 0.00514714 0.00792394 0.00132224 
0.02111339 0.02880556 0.00746411 0.00507782 0.00160569 0.00203008 0.00492473 0.00574494 0.01945265 0.00241393 0.00134695 0.09136629 0.00474337 0.00515977 0.00800387 0.00132395 
0.02191037 0.02815544 0.00758708 0.00506588 0.00163131 0.00207631 0.00503377 0.00575665 0.01918301 0.00242288 0.00134265 0.09202404 0.00495412 0.00517482 0.00808034 0.00132567 
0.02279169 0.02751567 0.00771713 0.00505048 0.00165620 0.00212379 0.00514693 0.00576655 0.01893977 0.00243194 0.00133899 0.09263921 0.00516813 0.00519231 0.00815330 0.00132741 
0.02375120 0.02688729 0.00785431 0.00503164 0.00168025 0.00217236 0.00526431 0.00577446 0.01872312 0.00244110 0.00133606 0.09321299 0.00538480 0.00521226 0.00822272 0.00132915 
0.02478248 0.02627134 0.00799863 0.00500939 0.00170335 0.00222186 0.00538597 0.00578024 0.01853300 0.00245034 0.00133394 0.09374675 0.00560352 0.00523464 0.00828863 0.00133090 
0.02587891 0.02566882 0.00815005 0.00498379 0.00172539 0.00227212 0.00551198 0.00578374 0.01836919 0.00245963 0.00133270 0.09424206 0.00582370 0.00525945 0.00835108 0.00133266 
0.02703369 0.02508072 0.00830844 0.00495491 0.00174625 0.00232295 0.00564238 0.00578480 0.01823122 0.00246893 0.00133242 0.09470066 0.00604473 0.00528665 0.00841014 0.00133441 
0.02823990 0.02450801 0.00847363 0.00492282 0.00176583 0.00237418 0.00577720 0.00578330 0.01811847 0.00247820 0.00133315 0.09512446 0.00626601 0.00531617 0.00846593 0.00133617 
0.02949051 0.02395162 0.00864538 0.00488762 0.00178404 0.00242561 0.00591642 0.00577909 0.01803008 0.00248741 0.00133495 0.09551547 0.00648694 0.00534796 0.00851860 0.00133793 
0.03077845 0.02341246 0.00882338 0.00484943 0.00180077 0.00247705 0.00606003 0.00577203 0.01796506 0.00249651 0.00133787 0.09587584 0.00670695 0.00538192 0.00856834 0.00133968 
0.03209662 0.02289141 0.00900724 0.00480836 0.00181593 0.00252832 0.00620797 0.00576201 0.01792223 0.00250545 0.00134196 0.09620780 0.00692545 0.00541796 0.00861534 0.00134142 
0.03343795 0.02238932 0.00919654 0.00476456 0.00182944 0.00257921 0.00636017 0.00574891 0.01790027 0.00251417 0.00134724 0.09651366 0.00714187 0.00545596 0.00865984 0.00134315 
0.03479541 0.02190698 0.00939074 0.00471818 0.00184121 0.00262953 0.00651650 0.00573263 0.01789773 0.00252262 0.00135373 0.09679577 0.00735568 0.00549578 0.00870210 0.00134488 
0.03616209 0.02144519 0.00958929 0.00466938 0.00185118 0.00267909 0.00667684 0.00571308 0.01791301 0.00253073 0.00136146 0.09705649 0.00756632 0.00553728 0.00874241 0.00134658 
0.03753120 0.02100466 0.00979153 0.00461832 0.00185927 0.00272769 0.00684102 0.00569018 0.01794443 0.00253844 0.00137043 0.09729821 0.00777329 0.00558029 0.00878109 0.00134827 
0.03889610 0.02058610 0.00999676 0.00456520 0.00186543 0.00277513 0.00700884 0.00566388 0.01799022 0.00254568 0.00138063 0.09752330 0.00797609 0.00562464 0.00881844 0.00134993 
0.04025037 0.02019015 0.01020423 0.00451021 0.00186960 0.00282123 0.00718005 0.00563412 0.01804853 0.00255238 0.00139204 0.09773407 0.00817424 0.00567014 0.00885482 0.00135157 
0.04158781 0.01981742 0.01041310 0.00445354 0.00187174 0.00286580 0.00735441 0.00560089 0.01811748 0.00255848 0.00140465 0.09793279 0.00836729 0.00571658 0.00889059 0.00135318 
0.04290247 0.01946846 0.01062252 0.00439540 0.00187183 0.00290866 0.00753161 0.00556416 0.01819511 0.00256390 0.00141841 0.09812165 0.00855482 0.00576376 0.00892612 0.00135476 
0.04418869 0.01914378 0.01083157 0.00433601 0.00186983 0.00294963 0.00771133 0.00552395 0.01827949 0.00256856 0.00143327 0.09830275 0.00873642 0.00581144 0.00896179 0.00135630 
0.04544113 0.01884382 0.01103928 0.00427557 0.00186572 0.00298854 0.00789320 0.00548029 0.01836867 0.00257241 0.00144919 0.09847807 0.00891173 0.00585940 0.00899798 0.00135780 
0.04665478 0.01856899 0.01124466 0.00421431 0.00185952 0.00302524 0.00807685 0.00543322 0.01846072 0.00257535 0.00146609 0.09864946 0.00908040 0.00590739 0.00903509 0.00135926 
0.04782498 0.01831962 0.01144668 0.00415244 0.00185121 0.00305957 0.00826185 0.00538281 0.01855375 0.00257734 0.00148390 0.09881865 0.00924213 0.00595516 0.00907351 0.00136067 
0.04894744 0.01809599 0.01164430 0.00409018 0.00184082 0.00309139 0.00844775 0.00532915 0.01864592 0.00257828 0.00150254 0.09898720 0.00939663 0.00600248 0.00911362 0.00136204 
0.05001829 0.01789829 0.01183644 0.00402776 0.00182837 0.00312055 0.00863409 0.00527236 0.01873546 0.00257813 0.00152191 0.09915652 0.00954368 0.00604907 0.00915582 0.00136335 
0.05103402 0.01772669 0.01202202 0.00396538 0.00181390 0.00314695 0.00882037 0.00521256 0.01882069 0.00257681 0.00154190 0.09932783 0.00968305 0.00609469 0.00920047 0.00136461 
0.05199157 0.01758126 0.01219996 0.00390326 0.00179745 0.00317046 0.00900607 0.00514990 0.01890004 0.00257427 0.00156242 0.09950221 0.00981458 0.00613908 0.00924794 0.00136581 
0.05288830 0.01746200 0.01236917 0.00384161 0.00177909 0.00319099 0.00919065 0.00508456 0.01897203 0.00257044 0.00158333 0.09968052 0.00993812 0.00618198 0.00929859 0.00136695 
0.05372199 0.01736884 0.01252858 0.00378062 0.00175888 0.00320845 0.00937355 0.00501674 0.01903533 0.00256528 0.00160452 0.09986345 0.01005359 0.00622315 0.00935275 0.00136802 
0.05449085 0.01730164 0.01267714 0.00372050 0.00173690 0.00322277 0.00955420 0.00494664 0.01908873 0.00255874 0.00162585 0.10005153 0.01016090 0.00626234 0.00941074 0.00136903 
0.05519353 0.01726018 0.01281382 0.00366141 0.00171324 0.00323388 0.00973202 0.00487450 0.01913119 0.00255078 0.00164720 0.10024507 0.01026004 0.00629932 0.00947286 0.00136997 
0.05582912 0.01724416 0.01293762 0.00360354 0.00168799 0.00324175 0.00990641 0.00480056 0.01916179 0.00254136 0.00166842 0.10044423 0.01035101 0.00633385 0.00953937 0.00137083 
0.05639712 0.01725319 0.01304758 0.00354706 0.00166127 0.00324634 0.01007676 0.00472510 0.01917982 0.00253045 0.00168937 0.10064899 0.01043387 0.00636572 0.00961053 0.00137162 
0.05689747 0.01728682 0.01314281 0.00349211 0.00163319 0.00324763 0.01024247 0.00464840 0.01918471 0.00251804 0.00170990 0.10085914 0.01050868 0.00639472 0.00968655 0.00137234 
0.05733051 0.01734450 0.01322243 0.00343883 0.00160386 0.00324563 0.01040293 0.00457075 0.01917606 0.00250410 0.00172988 0.10107435 0.01057557 0.00642066 0.00976763 0.00137298 
0.05769697 0.01742560 0.01328567 0.00338735 0.00157344 0.00324035 0.01055752 0.00449247 0.01915367 0.00248863 0.00174914 0.10129411 0.01063470 0.00644337 0.00985392 0.00137354 
0.05799797 0.01752940 0.01333178 0.00333780 0.00154205 0.00323181 0.01070565 0.00441388 0.01911749 0.00247163 0.00176755 0.10151778 0.01068623 0.00646268 0.00994555 0.00137401 
0.05823502 0.01765511 0.01336013 0.00329025 0.00150984 0.00322007 0.01084673 0.00433532 0.01906767 0.00245310 0.00178497 0.10174462 0.01073040 0.00647847 0.01004262 0.00137441 
0.05840994 0.01780184 0.01337013 0.00324481 0.00147697 0.00320517 0.01098016 0.00425712 0.01900450 0.00243307 0.00180124 0.10197375 0.01076746 0.00649059 0.01014518 0.00137473 
0.05852492 0.01796864 0.01336130 0.00320154 0.00144358 0.00318721 0.01110539 0.00417963 0.01892849 0.00241155 0.00181624 0.10220420 0.01079768 0.00649897 0.01025324 0.00137496 
0.05858243 0.01815445 0.01333325 0.00316050 0.00140985 0.00316625 0.01122185 0.00410322 0.01884027 0.00238859 0.00182983 0.10243493 0.01082137 0.00650351 0.01036680 0.00137511 
0.05858524 0.01835817 0.01328565 0.00312173 0.00137594 0.00314242 0.01132902 0.00402822 0.01874065 0.00236422 0.00184189 0.10266483 0.01083887 0.00650416 0.01048580 0.00137517 
0.05853637 0.01857857 0.01321832 0.00308525 0.00134202 0.00311582 0.01142640 0.00395501 0.01863058 0.00233849 0.00185229 0.10289275 0.01085054 0.00650088 0.01061014 0.00137516 
0.05843908 0.01881440 0.01313114 0.00305109 0.00130825 0.00308658 0.01151349 0.00388393 0.01851117 0.00231147 0.00186093 0.10311751 0.01085676 0.00649368 0.01073970 0.00137506 
0.05829684 0.01906431 0.01302411 0.00301924 0.00127481 0.00305485 0.01158985 0.00381534 0.01838362 0.00228321 0.00186770 0.10333790 0.01085793 0.00648256 0.01087432 0.00137489 
0.05811329 0.01932689 0.01289735 0.00298968 0.00124186 0.00302078 0.01165507 0.00374959 0.01824930 0.00225380 0.00187251 0.10355272 0.01085449 0.00646757 0.01101377 0.00137463 
0.05789223 0.01960068 0.01275104 0.00296239 0.00120959 0.00298455 0.01170874 0.00368701 0.01810964 0.00222331 0.00187528 0.10376081 0.01084686 0.00644875 0.01115783 0.00137430 
0.05763758 0.01988413 0.01258553 0.00293733 0.00117815 0.00294631 0.01175052 0.00362794 0.01796618 0.00219185 0.00187594 0.10396103 0.01083550 0.00642622 0.01130621 0.00137389 
0.05735336 0.02017569 0.01240124 0.00291445 0.00114770 0.00290627 0.01178011 0.00357269 0.01782055 0.00215950 0.00187444 0.10415228 0.01082088 0.00640006 0.01145860 0.00137341 
0.05704363 0.02047373 0.01219870 0.00289369 0.00111842 0.00286462 0.01179722 0.00352158 0.01767442 0.00212637 0.00187073 0.10433354 0.01080346 0.00637043 0.01161465 0.00137286 
0.05671251 0.02077659 0.01197856 0.00287497 0.00109046 0.00282155 0.01180163 0.00347488 0.01752951 0.00209257 0.00186478 0.10450387 0.01078372 0.00633747 0.01177398 0.00137225 
0.05636412 0.02108258 0.01174157 0.00285822 0.00106396 0.00277728 0.01179315 0.00343288 0.01738760 0.00205823 0.00185658 0.10466241 0.01076216 0.00630137 0.01193618 0.00137156 
0.05600254 0.02139001 0.01148858 0.00284334 0.00103907 0.00273202 0.01177164 0.00339582 0.01725043 0.00202346 0.00184613 0.10480841 0.01073924 0.00626232 0.01210080 0.00137082 
0.05563184 0.02169715 0.01122053 0.00283025 0.00101592 0.00268600 0.01173700 0.00336394 0.01711979 0.00198839 0.00183345 0.10494122 0.01071545 0.00622054 0.01226738 0.00137002 
0.05525597 0.02200227 0.01093849 0.00281885 0.00099465 0.00263943 0.01168918 0.00333745 0.01699742 0.00195315 0.00181857 0.10506032 0.01069127 0.00617628 0.01243541 0.00136916 
0.05487880 0.02230366 0.01064359 0.00280904 0.00097537 0.00259254 0.01162817 0.00331654 0.01688504 0.00191789 0.00180154 0.10516531 0.01066715 0.00612978 0.01260438 0.00136826 
0.05450408 0.02259961 0.01033705 0.00280070 0.00095819 0.00254556 0.01155402 0.00330136 0.01678431 0.00188273 0.00178242 0.10525592 0.01064357 0.00608131 0.01277375 0.00136731 
0.05413539 0.02288843 0.01002019 0.00279374 0.00094320 0.00249871 0.01146682 0.00329205 0.01669682 0.00184783 0.00176130 0.10533201 0.01062096 0.00603115 0.01294295 0.00136632 
0.05377616 0.02316850 0.00969440 0.00278805 0.00093049 0.00245221 0.01136670 0.00328872 0.01662410 0.00181331 0.00173827 0.10539357 0.01059974 0.00597960 0.01311141 0.00136529 
0.05342962 0.02343820 0.00936112 0.00278352 0.00092014 0.00240629 0.01125384 0.00329144 0.01656756 0.00177934 0.00171345 0.10544073 0.01058034 0.00592696 0.01327853 0.00136423 
0.05309878 0.02369599 0.00902187 0.00278005 0.00091221 0.00236117 0.01112848 0.00330026 0.01652852 0.00174605 0.00168696 0.10547375 0.01056314 0.00587354 0.01344372 0.00136314 
0.05278644 0.02394039 0.00867824 0.00277754 0.00090674 0.00231707 0.01099089 0.00331521 0.01650816 0.00171358 0.00165896 0.10549301 0.01054851 0.00581966 0.01360636 0.00136203 
0.05249515 0.02417000 0.00833185 0.00277590 0.00090377 0.00227418 0.01084139 0.00333627 0.01650755 0.00168208 0.00162959 0.10549901 0.01053678 0.00576563 0.01376583 0.00136090 
0.05222721 0.02438350 0.00798436 0.00277504 0.00090331 0.00223271 0.01068034 0.00336339 0.01652758 0.00165169 0.00159904 0.10549237 0.01052828 0.00571178 0.01392152 0.00135975 
0.05198465 0.02457967 0.00763746 0.00277487 0.00090539 0.00219285 0.01050814 0.00339652 0.01656903 0.00162253 0.00156749 0.10547381 0.01052328 0.00565842 0.01407280 0.00135860 
0.05176924 0.02475742 0.00729288 0.00277533 0.00090998 0.00215478 0.01032524 0.00343553 0.01663249 0.00159475 0.00153513 0.10544414 0.01052206 0.00560587 0.01421905 0.00135744 
0.05158246 0.02491573 0.00695236 0.00277635 0.00091707 0.00211869 0.01013212 0.00348030 0.01671839 0.00156847 0.00150219 0.10540427 0.01052481 0.00555443 0.01435967 0.00135628 
0.05142550 0.02505374 0.00661764 0.00277788 0.00092662 0.00208472 0.00992930 0.00353067 0.01682698 0.00154381 0.00146887 0.10535515 0.01053175 0.00550442 0.01449404 0.00135512 
0.05129927 0.02517072 0.00629046 0.00277986 0.00093858 0.00205303 0.00971734 0.00358645 0.01695835 0.00152089 0.00143541 0.10529780 0.01054301 0.00545611 0.01462158 0.00135397 
0.05120440 0.02526609 0.00597256 0.00278227 0.00095289 0.00202376 0.00949681 0.00364740 0.01711238 0.00149981 0.00140205 0.10523329 0.01055873 0.00540979 0.01474171 0.00135283 
0.05114121 0.02533940 0.00566563 0.00278509 0.00096947 0.00199704 0.00926834 0.00371329 0.01728881 0.00148068 0.00136903 0.10516271 0.01057897 0.00536573 0.01485388 0.00135170 
0.05110976 0.02539037 0.00537138 0.00278830 0.00098822 0.00197296 0.00903258 0.00378384 0.01748716 0.00146359 0.00133659 0.10508714 0.01060380 0.00532417 0.01495753 0.00135059 
0.05110982 0.02541889 0.00509143 0.00279191 0.00100904 0.00195163 0.00879020 0.00385875 0.01770679 0.00144861 0.00130501 0.10500768 0.01063321 0.00528534 0.01505216 0.00134950 
0.05114089 0.02542501 0.00482740 0.00279592 0.00103181 0.00193313 0.00854190 0.00393770 0.01794689 0.00143583 0.00127452 0.10492539 0.01066719 0.00524946 0.01513727 0.00134844 
0.05120222 0.02540896 0.00458083 0.00280036 0.00105642 0.00191751 0.00828838 0.00402034 0.01820647 0.00142530 0.00124538 0.10484130 0.01070565 0.00521672 0.01521240 0.00134740 
0.05129280 0.02537115 0.00435319 0.00280527 0.00108270 0.00190484 0.00803040 0.00410632 0.01848436 0.00141708 0.00121786 0.10475636 0.01074851 0.00518728 0.01527711 0.00134639 
0.05141137 0.02531216 0.00414590 0.00281069 0.00111052 0.00189513 0.00776870 0.00419525 0.01877927 0.00141121 0.00119220 0.10467148 0.01079562 0.00516129 0.01533102 0.00134541 
0.05155645 0.02523276 0.00396029 0.00281669 0.00113970 0.00188842 0.00750405 0.00428674 0.01908973 0.00140772 0.00116865 0.10458746 0.01084681 0.00513888 0.01537374 0.00134446 
0.05172636 0.02513391 0.00379760 0.00282333 0.00117009 0.00188469 0.00723723 0.00438037 0.01941414 0.00140662 0.00114745 0.10450500 0.01090187 0.00512013 0.01540497 0.00134354 
0.05191920 0.02501672 0.00365900 0.00283069 0.00120150 0.00188393 0.00696902 0.00447572 0.01975078 0.00140793 0.00112885 0.10442470 0.01096056 0.00510512 0.01542441 0.00134266 
0.05213292 0.02488251 0.00354553 0.00283886 0.00123375 0.00188611 0.00670022 0.00457237 0.02009780 0.00141163 0.00111307 0.10434702 0.01102261 0.00509389 0.01543181 0.00134180 
0.05236529 0.02473277 0.00345814 0.00284792 0.00126665 0.00189118 0.00643162 0.00466988 0.02045326 0.00141770 0.00110032 0.10427227 0.01108771 0.00508645 0.01542698 0.00134098 
0.05261392 0.02456915 0.00339767 0.00285799 0.00129999 0.00189908 0.00616402 0.00476780 0.02081513 0.00142612 0.00109081 0.10420064 0.01115554 0.00508280 0.01540976 0.00134019 
0.05287634 0.02439347 0.00336484 0.00286916 0.00133359 0.00190973 0.00589821 0.00486570 0.02118131 0.00143685 0.00108472 0.10413213 0.01122575 0.00508290 0.01538004 0.00133943 
0.05314993 0.02420771 0.00336025 0.00288155 0.00136723 0.00192303 0.00563498 0.00496315 0.02154962 0.00144981 0.00108225 0.10406661 0.01129794 0.00508667 0.01533775 0.00133870 
0.05343202 0.02401399 0.00338438 0.00289527 0.00140072 0.00193889 0.00537511 0.00505969 0.02191786 0.00146496 0.00108353 0.10400377 0.01137172 0.00509405 0.01528290 0.00133800 
0.05371984 0.02381460 0.00343757 0.00291043 0.00143385 0.00195717 0.00511938 0.00515491 0.02228379 0.00148221 0.00108873 0.10394312 0.01144668 0.00510490 0.01521551 0.00133733 
0.05401059 0.02361192 0.00352004 0.00292715 0.00146642 0.00197776 0.00486855 0.00524838 0.02264517 0.00150146 0.00109795 0.10388403 0.01152237 0.00511909 0.01513567 0.00133667 
0.05430146 0.02340849 0.00363189 0.00294553 0.00149822 0.00200049 0.00462336 0.00533970 0.02299976 0.00152262 0.00111130 0.10382567 0.01159835 0.00513647 0.01504354 0.00133604 
0.05458961 0.02320691 0.00377305 0.00296570 0.00152905 0.00202523 0.00438455 0.00542847 0.02334534 0.00154558 0.00112887 0.10376708 0.01167416 0.00515684 0.01493930 0.00133542 
0.05487221 0.02300990 0.00394336 0.00298775 0.00155874 0.00205181 0.00415282 0.00551432 0.02367973 0.00157020 0.00115072 0.10370713 0.01174934 0.00518002 0.01482319 0.00133482 
0.05514648 0.02282026 0.00414250 0.00301178 0.00158708 0.00208005 0.00392887 0.00559689 0.02400081 0.00159638 0.00117688 0.10364455 0.01182340 0.00520577 0.01469553 0.00133422 
0.05540968 0.02264085 0.00437001 0.00303788 0.00161389 0.00210978 0.00371335 0.00567584 0.02430653 0.00162395 0.00120737 0.10357791 0.01189588 0.00523387 0.01455666 0.00133363 
0.05565913 0.02247455 0.00462531 0.00306614 0.00163901 0.00214081 0.00350691 0.00575086 0.02459491 0.00165278 0.00124219 0.10350571 0.01196631 0.00526406 0.01440699 0.00133305 
0.05589224 0.02232429 0.00490771 0.00309661 0.00166228 0.00217295 0.00331017 0.00582166 0.02486410 0.00168272 0.00128130 0.10342628 0.01203421 0.00529609 0.01424697 0.00133246 
0.05610652 0.02219301 0.00521636 0.00312937 0.00168353 0.00220601 0.00312370 0.00588798 0.02511232 0.00171359 0.00132465 0.10333792 0.01209914 0.00532968 0.01407713 0.00133186 
0.05629957 0.02208364 0.00555030 0.00316444 0.00170262 0.00223979 0.00294804 0.00594960 0.02533798 0.00174525 0.00137216 0.10323882 0.01216063 0.00536456 0.01389801 0.00133125 
0.05646914 0.02199906 0.00590846 0.00320187 0.00171944 0.00227409 0.00278373 0.00600630 0.02553956 0.00177751 0.00142372 0.10312713 0.01221825 0.00540043 0.01371023 0.00133063 
0.05661312 0.02194215 0.00628964 0.00324166 0.00173385 0.00230871 0.00263123 0.00605792 0.02571574 0.00181021 0.00147922 0.10300097 0.01227159 0.00543703 0.01351444 0.00132999 
0.05672953 0.02191567 0.00669255 0.00328381 0.00174576 0.00234347 0.00249100 0.00610432 0.02586534 0.00184317 0.00153850 0.10285847 0.01232023 0.00547406 0.01331136 0.00132932 
0.05681656 0.02192233 0.00711578 0.00332829 0.00175508 0.00237815 0.00236342 0.00614541 0.02598736 0.00187622 0.00160140 0.10269777 0.01236379 0.00551125 0.01310172 0.00132862 
0.05687257 0.02196473 0.00755784 0.00337507 0.00176174 0.00241257 0.00224888 0.00618110 0.02608095 0.00190918 0.00166771 0.10251704 0.01240192 0.00554831 0.01288632 0.00132789 
0.05689610 0.02204535 0.00801714 0.00342408 0.00176567 0.00244655 0.00214768 0.00621137 0.02614548 0.00194188 0.00173724 0.10231456 0.01243429 0.00558498 0.01266598 0.00132712 
0.05688586 0.02216650 0.00849201 0.00347525 0.00176685 0.00247991 0.00206010 0.00623621 0.02618048 0.00197414 0.00180973 0.10208867 0.01246058 0.00562100 0.01244159 0.00132631 
0.05684074 0.02233036 0.00898071 0.00352846 0.00176524 0.00251246 0.00198638 0.00625566 0.02618567 0.00200580 0.00188495 0.10183786 0.01248051 0.00565613 0.01221404 0.00132546 
0.05675986 0.02253892 0.00948145 0.00358360 0.00176083 0.00254406 0.00192671 0.00626979 0.02616099 0.00203669 0.00196262 0.10156076 0.01249385 0.00569014 0.01198426 0.00132456 
0.05664249 0.02279398 0.00999236 0.00364052 0.00175364 0.00257453 0.00188121 0.00627871 0.02610655 0.00206665 0.00204245 0.10125619 0.01250038 0.00572282 0.01175322 0.00132360 
0.05648812 0.02309713 0.01051154 0.00369907 0.00174368 0.00260374 0.00184999 0.00628255 0.02602266 0.00209553 0.00212415 0.10092316 0.01249991 0.00575397 0.01152192 0.00132259 
0.05629642 0.02344972 0.01103704 0.00375905 0.00173102 0.00263155 0.00183309 0.00628148 0.02590981 0.00212318 0.00220741 0.10056093 0.01249231 0.00578343 0.01129135 0.00132153 
0.05606727 0.02385288 0.01156691 0.00382027 0.00171570 0.00265783 0.00183049 0.00627570 0.02576869 0.00214946 0.00229189 0.10016899 0.01247745 0.00581105 0.01106256 0.00132040 
0.05580074 0.02430747 0.01209915 0.00388251 0.00169780 0.00268249 0.00184216 0.00626545 0.02560017 0.00217426 0.00237726 0.09974711 0.01245527 0.00583670 0.01083657 0.00131921 
0.05549708 0.02481408 0.01263178 0.00394552 0.00167742 0.00270541 0.00186797 0.00625097 0.02540529 0.00219743 0.00246318 0.09929537 0.01242571 0.00586029 0.01061444 0.00131796 
0.05515673 0.02537306 0.01316281 0.00400906 0.00165467 0.00272651 0.00190778 0.00623256 0.02518527 0.00221889 0.00254931 0.09881414 0.01238879 0.00588176 0.01039722 0.00131665 
0.05478031 0.02598443 0.01369026 0.00407284 0.00162966 0.00274572 0.00196138 0.00621052 0.02494148 0.00223853 0.00263528 0.09830414 0.01234451 0.00590106 0.01018598 0.00131528 
0.05436863 0.02664796 0.01421218 0.00413659 0.00160255 0.00276299 0.00202851 0.00618519 0.02467544 0.00225626 0.00272074 0.09776641 0.01229295 0.00591818 0.00998176 0.00131384 
0.05392265 0.02736310 0.01472665 0.00420002 0.00157349 0.00277827 0.00210888 0.00615691 0.02438881 0.00227202 0.00280533 0.09720235 0.01223421 0.00593314 0.00978560 0.00131234 
0.05344350 0.02812901 0.01523180 0.00426281 0.00154263 0.00279153 0.00220213 0.00612605 0.02408338 0.00228575 0.00288870 0.09661373 0.01216841 0.00594599 0.00959852 0.00131078 
0.05293247 0.02894454 0.01572579 0.00432464 0.00151017 0.00280277 0.00230785 0.00609299 0.02376105 0.00229740 0.00297050 0.09600266 0.01209571 0.00595681 0.00942155 0.00130917 
0.05239099 0.02980825 0.01620687 0.00438521 0.00147629 0.00281197 0.00242562 0.00605813 0.02342382 0.00230694 0.00305037 0.09537164 0.01201630 0.00596571 0.00925566 0.00130749 
0.05182063 0.03071839 0.01667334 0.00444418 0.00144119 0.00281916 0.00255493 0.00602186 0.02307380 0.00231434 0.00312799 0.09472350 0.01193041 0.00597282 0.00910181 0.00130576 
0.05122308 0.03167291 0.01712358 0.00450122 0.00140509 0.00282436 0.00269525 0.00598460 0.02271313 0.00231962 0.00320302 0.09406144 0.01183826 0.00597831 0.00896091 0.00130399 
0.05060016 0.03266949 0.01755605 0.00455601 0.00136820 0.00282762 0.00284601 0.00594675 0.02234404 0.00232277 0.00327513 0.09338902 0.01174014 0.00598237 0.00883384 0.00130216 
0.04995379 0.03370551 0.01796931 0.00460822 0.00133075 0.00282898 0.00300658 0.00590872 0.02196879 0.00232383 0.00334403 0.09271011 0.01163633 0.00598522 0.00872145 0.00130030 
0.04928600 0.03477806 0.01836202 0.00465752 0.00129297 0.00282851 0.00317632 0.00587091 0.02158968 0.00232283 0.00340941 0.09202890 0.01152713 0.00598709 0.00862452 0.00129839 
0.04859890 0.03588400 0.01873294 0.00470361 0.00125509 0.00282629 0.00335453 0.00583373 0.02120899 0.00231982 0.00347101 0.09134988 0.01141288 0.00598826 0.00854378 0.00129646 
0.04789468 0.03701990 0.01908094 0.00474619 0.00121735 0.00282241 0.00354050 0.00579756 0.02082903 0.00231487 0.00352855 0.09067781 0.01129391 0.00598900 0.00847990 0.00129450 
0.04717560 0.03818213 0.01940500 0.00478495 0.00118000 0.00281696 0.00373346 0.00576278 0.02045206 0.00230806 0.00358179 0.09001768 0.01117057 0.00598962 0.00843351 0.00129252 
0.04644398 0.03936681 0.01970423 0.00481963 0.00114327 0.00281006 0.00393265 0.00572974 0.02008033 0.00229948 0.00363052 0.08937471 0.01104322 0.00599043 0.00840513 0.00129053 
0.04570217 0.04056986 0.01997785 0.00484995 0.00110740 0.00280181 0.00413725 0.00569879 0.01971603 0.00228923 0.00367453 0.08875429 0.01091224 0.00599176 0.00839524 0.00128854 
0.04495257 0.04178702 0.02022521 0.00487568 0.00107262 0.00279233 0.00434644 0.00567025 0.01936126 0.00227743 0.00371363 0.08816197 0.01077798 0.00599395 0.00840424 0.00128654 
0.04419762 0.04301386 0.02044577 0.00489660 0.00103917 0.00278176 0.00455939 0.00564441 0.01901808 0.00226419 0.00374768 0.08760339 0.01064083 0.00599734 0.00843246 0.00128456 
0.04343975 0.04424581 0.02063915 0.00491250 0.00100727 0.00277023 0.00477522 0.00562154 0.01868845 0.00224967 0.00377653 0.08708425 0.01050116 0.00600228 0.00848011 0.00128259 
0.04268140 0.04547817 0.02080507 0.00492321 0.00097714 0.00275786 0.00499309 0.00560189 0.01837419 0.00223399 0.00380008 0.08661030 0.01035933 0.00600913 0.00854737 0.00128065 
0.04192503 0.04670614 0.02094337 0.00492859 0.00094900 0.00274481 0.00521211 0.00558567 0.01807706 0.00221731 0.00381823 0.08618724 0.01021571 0.00601822 0.00863430 0.00127874 
0.04117306 0.04792485 0.02105403 0.00492851 0.00092304 0.00273120 0.00543141 0.00557305 0.01779864 0.00219979 0.00383093 0.08582072 0.01007064 0.00602991 0.00874087 0.00127687 
0.04042789 0.04912939 0.02113715 0.00492289 0.00089946 0.00271718 0.00565013 0.00556418 0.01754042 0.00218158 0.00383813 0.08551628 0.00992449 0.00604451 0.00886697 0.00127505 
0.03969191 0.05031479 0.02119293 0.00491165 0.00087843 0.00270289 0.00586739 0.00555917 0.01730371 0.00216287 0.00383984 0.08527928 0.00977757 0.00606236 0.00901241 0.00127328 
0.03896744 0.05147613 0.02122172 0.00489478 0.00086013 0.00268847 0.00608235 0.00555810 0.01708970 0.00214381 0.00383605 0.08511490 0.00963021 0.00608375 0.00917689 0.00127159 
0.03825677 0.05260847 0.02122395 0.00487227 0.00084470 0.00267404 0.00629415 0.00556099 0.01689939 0.00212459 0.00382681 0.08502807 0.00948271 0.00610896 0.00936002 0.00126996 
0.03756213 0.05370696 0.02120015 0.00484415 0.00083229 0.00265974 0.00650197 0.00556786 0.01673364 0.00210537 0.00381218 0.08502339 0.00933537 0.00613828 0.00956133 0.00126842 
0.03688569 0.05476681 0.02115099 0.00481051 0.00082302 0.00264570 0.00670502 0.00557866 0.01659314 0.00208633 0.00379223 0.08510515 0.00918844 0.00617192 0.00978026 0.00126697 
0.03622952 0.05578334 0.02107719 0.00477142 0.00081698 0.00263203 0.00690252 0.00559331 0.01647841 0.00206765 0.00376709 0.08527724 0.00904219 0.00621011 0.01001614 0.00126561 
0.03559564 0.05675200 0.02097958 0.00472704 0.00081429 0.00261885 0.00709373 0.00561171 0.01638979 0.00204950 0.00373688 0.08554314 0.00889684 0.00625302 0.01026823 0.00126436 
0.03498597 0.05766841 0.02085906 0.00467752 0.00081499 0.00260626 0.00727793 0.00563371 0.01632746 0.00203204 0.00370176 0.08590586 0.00875262 0.00630081 0.01053572 0.00126321 
0.03440233 0.05852837 0.02071662 0.00462306 0.00081916 0.00259436 0.00745445 0.00565912 0.01629143 0.00201544 0.00366189 0.08636790 0.00860971 0.00635360 0.01081768 0.00126218 
0.03384646 0.05932786 0.02055328 0.00456388 0.00082683 0.00258325 0.00762267 0.00568771 0.01628155 0.00199985 0.00361747 0.08693124 0.00846829 0.00641145 0.01111313 0.00126128 
0.03331997 0.06006312 0.02037016 0.00450025 0.00083800 0.00257299 0.00778199 0.00571925 0.01629747 0.00198543 0.00356870 0.08759730 0.00832851 0.00647442 0.01142102 0.00126050 
0.03282438 0.06073063 0.02016838 0.00443244 0.00085270 0.00256366 0.00793187 0.00575344 0.01633874 0.00197232 0.00351582 0.08836691 0.00819052 0.00654250 0.01174019 0.00125985 
0.03236107 0.06132715 0.01994914 0.00436077 0.00087088 0.00255532 0.00807184 0.00578997 0.01640470 0.00196065 0.00345907 0.08924028 0.00805443 0.00661566 0.01206947 0.00125933 
0.03193131 0.06184973 0.01971364 0.00428557 0.00089252 0.00254802 0.00820144 0.00582850 0.01649457 0.00195055 0.00339870 0.09021703 0.00792034 0.00669382 0.01240758 0.00125896 
0.03153625 0.06229571 0.01946314 0.00420720 0.00091756 0.00254179 0.00832031 0.00586867 0.01660744 0.00194213 0.00333498 0.09129609 0.00778834 0.00677687 0.01275322 0.00125873 
0.03117690 0.06266279 0.01919886 0.00412604 0.00094592 0.00253667 0.00842812 0.00591009 0.01674225 0.00193549 0.00326820 0.09247579 0.00765850 0.00686463 0.01310502 0.00125864 
0.03085414 0.06294901 0.01892207 0.00404248 0.00097752 0.00253266 0.00852460 0.00595236 0.01689782 0.00193072 0.00319864 0.09375378 0.00753086 0.00695690 0.01346156 0.00125870 
0.03056871 0.06315274 0.01863403 0.00395694 0.00101224 0.00252978 0.00860955 0.00599505 0.01707286 0.00192791 0.00312661 0.09512706 0.00740549 0.00705345 0.01382142 0.00125890 
0.03032122 0.06327274 0.01833597 0.00386985 0.00104996 0.00252803 0.00868283 0.00603774 0.01726598 0.00192711 0.00305241 0.09659201 0.00728240 0.00715398 0.01418310 0.00125925 
0.03011211 0.06330816 0.01802911 0.00378164 0.00109054 0.00252737 0.00874436 0.00607997 0.01747570 0.00192838 0.00297635 0.09814434 0.00716163 0.00725818 0.01454512 0.00125975 
0.02994172 0.06325851 0.01771465 0.00369276 0.00113383 0.00252780 0.00879412 0.00612129 0.01770045 0.00193175 0.00289875 0.09977917 0.00704319 0.00736568 0.01490595 0.00126039 
0.02981020 0.06312373 0.01739375 0.00360366 0.00117964 0.00252927 0.00883215 0.00616126 0.01793862 0.00193724 0.00281993 0.10149101 0.00692709 0.00747609 0.01526408 0.00126118 
0.02971759 0.06290413 0.01706755 0.00351479 0.00122781 0.00253175 0.00885857 0.00619941 0.01818851 0.00194487 0.00274019 0.10327380 0.00681335 0.00758898 0.01561797 0.00126210 
0.02966374 0.06260043 0.01673711 0.00342660 0.00127813 0.00253517 0.00887353 0.00623531 0.01844839 0.00195462 0.00265986 0.10512092 0.00670197 0.00770388 0.01596612 0.00126316 
0.02964840 0.06221376 0.01640347 0.00333955 0.00133041 0.00253947 0.00887727 0.00626852 0.01871650 0.00196648 0.00257925 0.10702527 0.00659297 0.00782032 0.01630701 0.00126435 
0.02967115 0.06174566 0.01606761 0.00325408 0.00138442 0.00254459 0.00887008 0.00629859 0.01899106 0.00198041 0.00249866 0.10897925 0.00648635 0.00793776 0.01663916 0.00126567 
0.02973141 0.06119805 0.01573044 0.00317062 0.00143994 0.00255046 0.00885228 0.00632513 0.01927030 0.00199636 0.00241841 0.11097484 0.00638213 0.00805569 0.01696111 0.00126711 
0.02982849 0.06057325 0.01539282 0.00308960 0.00149675 0.00255698 0.00882428 0.00634772 0.01955242 0.00201427 0.00233879 0.11300365 0.00628034 0.00817353 0.01727145 0.00126866 
0.02996152 0.05987398 0.01505554 0.00301143 0.00155461 0.00256407 0.00878652 0.00636600 0.01983565 0.00203405 0.00226008 0.11505692 0.00618100 0.00829071 0.01756878 0.00127032 
0.03012953 0.05910331 0.01471931 0.00293649 0.00161327 0.00257164 0.00873951 0.00637962 0.02011827 0.00205562 0.00218257 0.11712564 0.00608417 0.00840666 0.01785179 0.00127208 
0.03033138 0.05826472 0.01438479 0.00286518 0.00167249 0.00257960 0.00868377 0.00638826 0.02039858 0.00207889 0.00210652 0.11920054 0.00598990 0.00852078 0.01811921 0.00127394 
0.03056582 0.05736199 0.01405258 0.00279782 0.00173203 0.00258784 0.00861989 0.00639161 0.02067491 0.00210372 0.00203220 0.12127221 0.00589825 0.00863246 0.01836981 0.00127588 
0.03083146 0.05639929 0.01372318 0.00273477 0.00179165 0.00259627 0.00854848 0.00638942 0.02094569 0.00213000 0.00195984 0.12333108 0.00580931 0.00874112 0.01860248 0.00127789 
0.03112679 0.05538109 0.01339703 0.00267632 0.00185109 0.00260478 0.00847021 0.00638146 0.02120940 0.00215759 0.00188968 0.12536757 0.00572317 0.00884616 0.01881613 0.00127997 
0.03145019 0.05431215 0.01307453 0.00262274 0.00191011 0.00261328 0.00838576 0.00636755 0.02146457 0.00218635 0.00182193 0.12737208 0.00563995 0.00894699 0.01900979 0.00128210 
0.03179992 0.05319755 0.01275599 0.00257429 0.00196848 0.00262166 0.00829582 0.00634753 0.02170986 0.00221612 0.00175679 0.12933507 0.00555979 0.00904304 0.01918257 0.00128428 
0.03217414 0.05204261 0.01244166 0.00253119 0.00202596 0.00262983 0.00820113 0.00632129 0.02194398 0.00224674 0.00169446 0.13124714 0.00548283 0.00913375 0.01933365 0.00128650 
0.03257091 0.05085290 0.01213173 0.00249363 0.00208233 0.00263769 0.00810243 0.00628877 0.02216578 0.00227805 0.00163510 0.13309907 0.00540925 0.00921858 0.01946233 0.00128874 
0.03298821 0.04963421 0.01182633 0.00246175 0.00213735 0.00264514 0.00800047 0.00624995 0.02237416 0.00230987 0.00157886 0.13488189 0.00533922 0.00929703 0.01956799 0.00129099 
0.03342392 0.04839253 0.01152557 0.00243569 0.00219083 0.00265209 0.00789602 0.00620483 0.02256818 0.00234203 0.00152587 0.13658692 0.00527296 0.00936859 0.01965014 0.00129324 
0.03387587 0.04713399 0.01122947 0.00241553 0.00224255 0.00265848 0.00778983 0.00615349 0.02274698 0.00237435 0.00147627 0.13820586 0.00521069 0.00943282 0.01970837 0.00129549 
0.03434182 0.04586490 0.01093802 0.00240133 0.00229233 0.00266420 0.00768266 0.00609603 0.02290981 0.00240665 0.00143014 0.13973081 0.00515265 0.00948929 0.01974238 0.00129771 
0.03481946 0.04459165 0.01065120 0.00239312 0.00233999 0.00266920 0.00757527 0.00603260 0.02305606 0.00243875 0.00138758 0.14115434 0.00509911 0.00953763 0.01975200 0.00129991 
0.03530646 0.04332073 0.01036893 0.00239088 0.00238534 0.00267341 0.00746837 0.00596339 0.02318521 0.00247046 0.00134864 0.14246953 0.00505032 0.00957748 0.01973715 0.00130207 
0.03580045 0.04205866 0.01009110 0.00239457 0.00242826 0.00267676 0.00736270 0.00588865 0.02329688 0.00250161 0.00131338 0.14367002 0.00500659 0.00960855 0.01969788 0.00130417 
0.03629904 0.04081203 0.00981761 0.00240412 0.00246858 0.00267922 0.00725895 0.00580863 0.02339078 0.00253203 0.00128183 0.14475004 0.00496822 0.00963059 0.01963434 0.00130621 
0.03679983 0.03958738 0.00954832 0.00241942 0.00250618 0.00268073 0.00715778 0.00572367 0.02346677 0.00256154 0.00125400 0.14570448 0.00493551 0.00964338 0.01954680 0.00130818 
0.03730042 0.03839122 0.00928311 0.00244034 0.00254096 0.00268127 0.00705984 0.00563412 0.02352478 0.00258997 0.00122989 0.14652886 0.00490878 0.00964678 0.01943563 0.00131007 
0.03779843 0.03723000 0.00902182 0.00246671 0.00257281 0.00268081 0.00696572 0.00554036 0.02356489 0.00261717 0.00120948 0.14721942 0.00488838 0.00964068 0.01930134 0.00131187 
0.03829151 0.03611008 0.00876433 0.00249834 0.00260166 0.00267934 0.00687600 0.00544282 0.02358725 0.00264299 0.00119273 0.14777312 0.00487463 0.00962503 0.01914450 0.00131357 
0.03877733 0.03503768 0.00851051 0.00253502 0.00262744 0.00267685 0.00679119 0.00534196 0.02359215 0.00266728 0.00117961 0.14818765 0.00486787 0.00959983 0.01896584 0.00131516 
0.03925363 0.03401884 0.00826027 0.00257649 0.00265010 0.00267335 0.00671177 0.00523825 0.02357995 0.00268992 0.00117004 0.14846144 0.00486843 0.00956513 0.01876615 0.00131664 
0.03971822 0.03305944 0.00801352 0.00262250 0.00266961 0.00266884 0.00663819 0.00513221 0.02355112 0.00271077 0.00116394 0.14859368 0.00487664 0.00952104 0.01854634 0.00131799 
0.04016896 0.03216512 0.00777021 0.00267276 0.00268596 0.00266336 0.00657081 0.00502436 0.02350618 0.00272972 0.00116123 0.14858432 0.00489284 0.00946773 0.01830742 0.00131921 
0.04060384 0.03134128 0.00753031 0.00272697 0.00269915 0.00265694 0.00650998 0.00491525 0.02344578 0.00274668 0.00116180 0.14843407 0.00491734 0.00940541 0.01805046 0.00132030 
0.04102090 0.03059305 0.00729384 0.00278481 0.00270918 0.00264961 0.00645597 0.00480545 0.02337062 0.00276157 0.00116553 0.14814437 0.00495045 0.00933434 0.01777666 0.00132125 
0.04141835 0.02992524 0.00706086 0.00284595 0.00271611 0.00264144 0.00640902 0.00469553 0.02328146 0.00277429 0.00117231 0.14771741 0.00499246 0.00925485 0.01748726 0.00132205 
0.04179448 0.02934233 0.00683147 0.00291004 0.00271996 0.00263247 0.00636929 0.00458607 0.02317912 0.00278481 0.00118198 0.14715608 0.00504363 0.00916729 0.01718361 0.00132270 
0.04214775 0.02884847 0.00660581 0.00297674 0.00272080 0.00262278 0.00633690 0.00447765 0.02306450 0.00279307 0.00119442 0.14646397 0.00510422 0.00907209 0.01686709 0.00132320 
0.04247676 0.02844741 0.00638409 0.00304567 0.00271872 0.00261244 0.00631191 0.00437087 0.02293851 0.00279903 0.00120946 0.14564531 0.00517445 0.00896969 0.01653917 0.00132355 
0.04278026 0.02814250 0.00616654 0.00311649 0.00271379 0.00260153 0.00629434 0.00426630 0.02280211 0.00280269 0.00122695 0.14470499 0.00525452 0.00886060 0.01620136 0.00132374 
0.04305719 0.02793668 0.00595349 0.00318882 0.00270612 0.00259015 0.00628414 0.00416453 0.02265631 0.00280405 0.00124672 0.14364846 0.00534460 0.00874535 0.01585523 0.00132377 
0.04330665 0.02783246 0.00574527 0.00326229 0.00269582 0.00257838 0.00628122 0.00406610 0.02250211 0.00280311 0.00126860 0.14248173 0.00544481 0.00862452 0.01550239 0.00132365 
0.04352795 0.02783186 0.00554230 0.00333656 0.00268302 0.00256634 0.00628542 0.00397156 0.02234054 0.00279991 0.00129241 0.14121131 0.00555525 0.00849871 0.01514445 0.00132337 
0.04372058 0.02793648 0.00534504 0.00341125 0.00266785 0.00255412 0.00629655 0.00388145 0.02217266 0.00279449 0.00131798 0.13984418 0.00567596 0.00836855 0.01478308 0.00132294 
0.04388426 0.02814740 0.00515400 0.00348602 0.00265046 0.00254183 0.00631438 0.00379626 0.02199949 0.00278690 0.00134511 0.13838772 0.00580697 0.00823470 0.01441996 0.00132235 
0.04401890 0.02846522 0.00496974 0.00356053 0.00263100 0.00252959 0.00633861 0.00371648 0.02182209 0.00277722 0.00137364 0.13684964 0.00594824 0.00809783 0.01405677 0.00132162 
0.04412465 0.02889005 0.00479288 0.00363444 0.00260962 0.00251752 0.00636892 0.00364255 0.02164146 0.00276553 0.00140337 0.13523798 0.00609968 0.00795865 0.01369518 0.00132074 
0.04420185 0.02942146 0.00462406 0.00370745 0.00258650 0.00250572 0.00640494 0.00357488 0.02145862 0.00275194 0.00143412 0.13356100 0.00626117 0.00781785 0.01333688 0.00131972 
0.04425110 0.03005855 0.00446397 0.00377924 0.00256181 0.00249433 0.00644629 0.00351385 0.02127456 0.00273654 0.00146572 0.13182714 0.00643253 0.00767615 0.01298351 0.00131857 
0.04427322 0.03079987 0.00431334 0.00384954 0.00253571 0.00248345 0.00649252 0.00345980 0.02109023 0.00271947 0.00149797 0.13004497 0.00661352 0.00753427 0.01263670 0.00131729 
0.04426925 0.03164348 0.00417293 0.00391806 0.00250839 0.00247320 0.00654319 0.00341303 0.02090655 0.00270085 0.00153070 0.12822312 0.00680385 0.00739291 0.01229807 0.00131588 
0.04424049 0.03258693 0.00404351 0.00398456 0.00248004 0.00246370 0.00659782 0.00337380 0.02072441 0.00268083 0.00156374 0.12637022 0.00700319 0.00725280 0.01196916 0.00131436 
0.04418844 0.03362725 0.00392588 0.00404882 0.00245082 0.00245507 0.00665589 0.00334230 0.02054465 0.00265957 0.00159691 0.12449487 0.00721114 0.00711462 0.01165149 0.00131273 
0.04411485 0.03476100 0.00382086 0.00411061 0.00242092 0.00244741 0.00671692 0.00331871 0.02036806 0.00263721 0.00163006 0.12260553 0.00742726 0.00697907 0.01134651 0.00131100 
0.04402167 0.03598424 0.00372927 0.00416975 0.00239053 0.00244082 0.00678036 0.00330313 0.02019540 0.00261394 0.00166301 0.12071051 0.00765104 0.00684681 0.01105562 0.00130918 
0.04391110 0.03729255 0.00365191 0.00422607 0.00235981 0.00243542 0.00684569 0.00329563 0.02002736 0.00258992 0.00169563 0.11881791 0.00788194 0.00671848 0.01078013 0.00130728 
0.04378554 0.03868108 0.00358961 0.00427943 0.00232895 0.00243130 0.00691237 0.00329623 0.01986457 0.00256533 0.00172775 0.11693554 0.00811934 0.00659470 0.01052129 0.00130531 
0.04364760 0.04014452 0.00354315 0.00432971 0.00229810 0.00242854 0.00697988 0.00330488 0.01970764 0.00254035 0.00175924 0.11507090 0.00836260 0.00647606 0.01028028 0.00130327 
0.04350007 0.04167715 0.00351331 0.00437680 0.00226745 0.00242724 0.00704768 0.00332150 0.01955708 0.00251518 0.00178998 0.11323116 0.00861101 0.00636310 0.01005817 0.00130118 
0.04334594 0.04327286 0.00350082 0.00442063 0.00223713 0.00242746 0.00711526 0.00334595 0.01941337 0.00249000 0.00181982 0.11142303 0.00886383 0.00625636 0.00985595 0.00129904 
0.04318838 0.04492517 0.00350638 0.00446115 0.00220732 0.00242928 0.00718212 0.00337804 0.01927692 0.00246499 0.00184866 0.10965282 0.00912026 0.00615630 0.00967451 0.00129688 
0.04303072 0.04662724 0.00353065 0.00449832 0.00217815 0.00243276 0.00724776 0.00341754 0.01914810 0.00244034 0.00187639 0.10792635 0.00937949 0.00606335 0.00951463 0.00129469 
0.04287642 0.04837195 0.00357424 0.00453212 0.00214977 0.00243794 0.00731172 0.00346417 0.01902720 0.00241625 0.00190291 0.10624895 0.00964064 0.00597790 0.00937701 0.00129249 
0.04272909 0.05015186 0.00363769 0.00456258 0.00212229 0.00244487 0.00737356 0.00351759 0.01891446 0.00239289 0.00192813 0.10462540 0.00990282 0.00590030 0.00926222 0.00129029 
0.04259246 0.05195931 0.00372147 0.00458971 0.00209583 0.00245358 0.00743286 0.00357743 0.01881007 0.00237044 0.00195197 0.10305993 0.01016512 0.00583083 0.00917073 0.00128810 
0.04247033 0.05378641 0.00382598 0.00461357 0.00207052 0.00246410 0.00748923 0.00364328 0.01871417 0.00234908 0.00197436 0.10155623 0.01042658 0.00576973 0.00910289 0.00128592 
0.04236660 0.05562509 0.00395155 0.00463421 0.00204644 0.00247644 0.00754232 0.00371468 0.01862683 0.00232897 0.00199524 0.10011739 0.01068624 0.00571719 0.00905895 0.00128378 
0.04228521 0.05746715 0.00409841 0.00465173 0.00202368 0.00249060 0.00759181 0.00379116 0.01854809 0.00231028 0.00201455 0.09874591 0.01094315 0.00567335 0.00903902 0.00128168 
0.04223017 0.05930426 0.00426671 0.00466621 0.00200232 0.00250657 0.00763741 0.00387219 0.01847793 0.00229315 0.00203225 0.09744373 0.01119630 0.00563829 0.00904314 0.00127962 
0.04220547 0.06112807 0.00445650 0.00467777 0.00198244 0.00252434 0.00767887 0.00395722 0.01841629 0.00227774 0.00204832 0.09621217 0.01144473 0.00561203 0.00907118 0.00127763 
0.04221511 0.06293018 0.00466773 0.00468653 0.00196407 0.00254388 0.00771598 0.00404568 0.01836306 0.00226418 0.00206271 0.09505200 0.01168745 0.00559454 0.00912294 0.00127570 
0.04226306 0.06470220 0.00490024 0.00469262 0.00194727 0.00256516 0.00774858 0.00413697 0.01831811 0.00225259 0.00207543 0.09396342 0.01192350 0.00558576 0.00919810 0.00127384 
0.04235323 0.06643583 0.00515377 0.00469618 0.00193208 0.00258812 0.00777652 0.00423048 0.01828125 0.00224308 0.00208647 0.09294608 0.01215194 0.00558554 0.00929620 0.00127207 
0.04248947 0.06812285 0.00542796 0.00469737 0.00191850 0.00261271 0.00779973 0.00432558 0.01825227 0.00223577 0.00209582 0.09199909 0.01237183 0.00559371 0.00941671 0.00127039 
0.04267551 0.06975520 0.00572232 0.00469634 0.00190656 0.00263887 0.00781816 0.00442164 0.01823092 0.00223073 0.00210350 0.09112107 0.01258227 0.00561003 0.00955898 0.00126881 
0.04291497 0.07132500 0.00603627 0.00469325 0.00189626 0.00266653 0.00783178 0.00451802 0.01821693 0.00222804 0.00210953 0.09031014 0.01278242 0.00563422 0.00972226 0.00126734 
0.04321133 0.07282460 0.00636910 0.00468827 0.00188758 0.00269560 0.00784065 0.00461408 0.01821000 0.00222777 0.00211393 0.08956400 0.01297143 0.00566596 0.00990569 0.00126597 
0.04356788 0.07424663 0.00672000 0.00468156 0.00188050 0.00272600 0.00784482 0.00470918 0.01820982 0.00222997 0.00211674 0.08887990 0.01314855 0.00570488 0.01010834 0.00126472 
0.04398773 0.07558403 0.00708805 0.00467329 0.00187500 0.00275763 0.00784440 0.00480270 0.01821604 0.00223467 0.00211801 0.08825475 0.01331304 0.00575057 0.01032919 0.00126359 
0.04447379 0.07683007 0.00747222 0.00466362 0.00187103 0.00279039 0.00783953 0.00489403 0.01822831 0.00224189 0.00211777 0.08768509 0.01346424 0.00580259 0.01056711 0.00126259 
0.04502871 0.07797844 0.00787139 0.00465270 0.00186855 0.00282417 0.00783039 0.00498257 0.01824627 0.00225164 0.00211610 0.08716717 0.01360155 0.00586044 0.01082092 0.00126171 
0.04565490 0.07902324 0.00828433 0.00464071 0.00186751 0.00285886 0.00781719 0.00506775 0.01826954 0.00226392 0.00211304 0.08669699 0.01372442 0.00592363 0.01108937 0.00126096 
0.04635449 0.07995904 0.00870970 0.00462777 0.00186782 0.00289435 0.00780016 0.00514902 0.01829773 0.00227871 0.00210866 0.08627031 0.01383240 0.00599160 0.01137112 0.00126035 
0.04712931 0.08078088 0.00914611 0.00461405 0.00186944 0.00293051 0.00777957 0.00522588 0.01833045 0.00229596 0.00210304 0.08588274 0.01392509 0.00606379 0.01166481 0.00125986 
0.04798090 0.08148435 0.00959204 0.00459968 0.00187227 0.00296722 0.00775570 0.00529784 0.01836731 0.00231563 0.00209625 0.08552977 0.01400219 0.00613962 0.01196898 0.00125951 
0.04891045 0.08206560 0.01004593 0.00458477 0.00187623 0.00300437 0.00772887 0.00536446 0.01840790 0.00233766 0.00208836 0.08520678 0.01406347 0.00621847 0.01228218 0.00125930 
0.04991884 0.08252133 0.01050614 0.00456945 0.00188124 0.00304182 0.00769942 0.00542534 0.01845182 0.00236196 0.00207947 0.08490913 0.01410878 0.00629974 0.01260287 0.00125922 
0.05100656 0.08284886 0.01097096 0.00455383 0.00188720 0.00307945 0.00766767 0.00548013 0.01849869 0.00238846 0.00206966 0.08463219 0.01413806 0.00638280 0.01292952 0.00125927 
0.05217378 0.08304614 0.01143863 0.00453799 0.00189400 0.00311714 0.00763400 0.00552853 0.01854811 0.00241705 0.00205901 0.08437137 0.01415135 0.00646701 0.01326056 0.00125944 
0.05342027 0.08311176 0.01190735 0.00452202 0.00190156 0.00315476 0.00759877 0.00557026 0.01859968 0.00244761 0.00204762 0.08412216 0.01414876 0.00655174 0.01359440 0.00125975 
0.05474543 0.08304495 0.01237528 0.00450599 0.00190976 0.00319220 0.00756236 0.00560514 0.01865302 0.00248002 0.00203558 0.08388019 0.01413050 0.00663637 0.01392945 0.00126018 
0.05614828 0.08284561 0.01284056 0.00448996 0.00191849 0.00322933 0.00752514 0.00563301 0.01870776 0.00251414 0.00202297 0.08364126 0.01409687 0.00672027 0.01426413 0.00126072 
0.05762746 0.08251434 0.01330131 0.00447397 0.00192766 0.00326605 0.00748750 0.00565379 0.01876352 0.00254983 0.00200989 0.08340135 0.01404825 0.00680283 0.01459685 0.00126138 
0.05918123 0.08205239 0.01375564 0.00445806 0.00193715 0.00330223 0.00744980 0.00566743 0.01881994 0.00258692 0.00199643 0.08315670 0.01398511 0.00688344 0.01492603 0.00126215 
0.06080745 0.08146169 0.01420168 0.00444223 0.00194684 0.00333779 0.00741243 0.00567396 0.01887665 0.00262524 0.00198268 0.08290379 0.01390801 0.00696154 0.01525013 0.00126303 
0.06250360 0.08074486 0.01463755 0.00442651 0.00195664 0.00337261 0.00737575 0.00567346 0.01893332 0.00266464 0.00196873 0.08263941 0.01381757 0.00703655 0.01556763 0.00126400 
0.06426681 0.07990517 0.01506142 0.00441088 0.00196644 0.00340662 0.00734010 0.00566607 0.01898960 0.00270491 0.00195466 0.08236065 0.01371451 0.00710795 0.01587704 0.00126506 
0.06609382 0.07894656 0.01547148 0.00439533 0.00197612 0.00343971 0.00730582 0.00565199 0.01904516 0.00274588 0.00194056 0.08206494 0.01359961 0.00717522 0.01617693 0.00126621 
0.06798102 0.07787361 0.01586597 0.00437983 0.00198558 0.00347183 0.00727324 0.00563146 0.01909968 0.00278734 0.00192651 0.08175007 0.01347372 0.00723790 0.01646589 0.00126744 
0.06992447 0.07669153 0.01624319 0.00436434 0.00199472 0.00350288 0.00724265 0.00560481 0.01915285 0.00282910 0.00191259 0.08141418 0.01333776 0.00729553 0.01674259 0.00126874 
0.07191987 0.07540610 0.01660148 0.00434881 0.00200345 0.00353281 0.00721434 0.00557238 0.01920436 0.00287096 0.00189887 0.08105580 0.01319270 0.00734771 0.01700576 0.00127010 
0.07396264 0.07402372 0.01693929 0.00433319 0.00201166 0.00356157 0.00718856 0.00553460 0.01925393 0.00291270 0.00188541 0.08067383 0.01303957 0.00739407 0.01725417 0.00127151 
0.07604788 0.07255132 0.01725513 0.00431741 0.00201926 0.00358911 0.00716556 0.00549193 0.01930127 0.00295411 0.00187229 0.08026757 0.01287943 0.00743428 0.01748670 0.00127297 
0.07817041 0.07099632 0.01754761 0.00430141 0.00202616 0.00361539 0.00714553 0.00544486 0.01934612 0.00299500 0.00185956 0.07983668 0.01271339 0.00746805 0.01770227 0.00127447 
0.08032482 0.06936666 0.01781544 0.00428509 0.00203229 0.00364038 0.00712866 0.00539396 0.01938821 0.00303513 0.00184728 0.07938123 0.01254259 0.00749514 0.01789990 0.00127600 
0.08250543 0.06767070 0.01805741 0.00426839 0.00203756 0.00366407 0.00711510 0.00533982 0.01942730 0.00307431 0.00183550 0.07890164 0.01236819 0.00751533 0.01807871 0.00127756 
0.08470637 0.06591718 0.01827247 0.00425121 0.00204190 0.00368644 0.00710498 0.00528304 0.01946316 0.00311232 0.00182425 0.07839871 0.01219138 0.00752849 0.01823788 0.00127913 
0.08692158 0.06411524 0.01845964 0.00423348 0.00204523 0.00370748 0.00709838 0.00522429 0.01949556 0.00314896 0.00181358 0.07787356 0.01201333 0.00753449 0.01837669 0.00128070 
0.08914483 0.06227427 0.01861811 0.00421510 0.00204751 0.00372721 0.00709537 0.00516425 0.01952429 0.00318403 0.00180352 0.07732767 0.01183522 0.00753326 0.01849453 0.00128228 
0.09136978 0.06040396 0.01874716 0.00419599 0.00204866 0.00374563 0.00709599 0.00510361 0.01954917 0.00321732 0.00179409 0.07676281 0.01165825 0.00752480 0.01859088 0.00128385 
0.09358995 0.05851418 0.01884623 0.00417606 0.00204863 0.00376277 0.00710024 0.00504309 0.01957002 0.00324864 0.00178530 0.07618104 0.01148356 0.00750912 0.01866531 0.00128539 
0.09579880 0.05661498 0.01891488 0.00415523 0.00204739 0.00377865 0.00710809 0.00498342 0.01958667 0.00327780 0.00177718 0.07558470 0.01131230 0.00748628 0.01871751 0.00128692 
0.09798975 0.05471647 0.01895281 0.00413342 0.00204489 0.00379331 0.00711948 0.00492532 0.01959900 0.00330463 0.00176972 0.07497634 0.01114557 0.00745641 0.01874725 0.00128841 
0.10015618 0.05282884 0.01895986 0.00411057 0.00204109 0.00380679 0.00713435 0.00486953 0.01960687 0.00332895 0.00176292 0.07435874 0.01098444 0.00741966 0.01875443 0.00128987 
0.10229147 0.05096223 0.01893601 0.00408659 0.00203596 0.00381914 0.00715257 0.00481678 0.01961018 0.00335060 0.00175678 0.07373484 0.01082992 0.00737622 0.01873903 0.00129128 
0.10438907 0.04912673 0.01888138 0.00406144 0.00202950 0.00383041 0.00717401 0.00476777 0.01960887 0.00336942 0.00175128 0.07310773 0.01068298 0.00732632 0.01870116 0.00129264 
0.10644245 0.04733231 0.01879623 0.00403508 0.00202167 0.00384067 0.00719851 0.00472321 0.01960287 0.00338527 0.00174640 0.07248062 0.01054453 0.00727024 0.01864100 0.00129394 
0.10844521 0.04558873 0.01868094 0.00400744 0.00201247 0.00384996 0.00722589 0.00468377 0.01959215 0.00339801 0.00174212 0.07185678 0.01041541 0.00720829 0.01855885 0.00129518 
0.11039104 0.04390552 0.01853605 0.00397852 0.00200189 0.00385836 0.00725593 0.00465010 0.01957673 0.00340753 0.00173840 0.07123954 0.01029638 0.00714079 0.01845511 0.00129636 
0.11227379 0.04229191 0.01836221 0.00394829 0.00198994 0.00386594 0.00728843 0.00462282 0.01955661 0.00341371 0.00173521 0.07063224 0.01018813 0.00706812 0.01833029 0.00129746 
0.11408749 0.04075678 0.01816019 0.00391675 0.00197662 0.00387277 0.00732313 0.00460251 0.01953187 0.00341647 0.00173250 0.07003819 0.01009128 0.00699067 0.01818497 0.00129848 
0.11582634 0.03930861 0.01793090 0.00388391 0.00196195 0.00387893 0.00735977 0.00458971 0.01950258 0.00341571 0.00173023 0.06946065 0.01000634 0.00690887 0.01801984 0.00129943 
0.11748479 0.03795539 0.01767536 0.00384978 0.00194594 0.00388448 0.00739809 0.00458491 0.01946888 0.00341137 0.00172835 0.06890278 0.00993375 0.00682316 0.01783569 0.00130029 
0.11905750 0.03670466 0.01739467 0.00381441 0.00192862 0.00388950 0.00743781 0.00458855 0.01943091 0.00340339 0.00172680 0.06836765 0.00987385 0.00673398 0.01763336 0.00130106 
0.12053943 0.03556337 0.01709007 0.00377784 0.00191002 0.00389408 0.00747862 0.00460103 0.01938887 0.00339174 0.00172552 0.06785816 0.00982689 0.00664183 0.01741382 0.00130175 
0.12192580 0.03453787 0.01676288 0.00374014 0.00189018 0.00389828 0.00752023 0.00462266 0.01934298 0.00337639 0.00172445 0.06737702 0.00979302 0.00654718 0.01717808 0.00130234 
0.12321214 0.03363392 0.01641449 0.00370139 0.00186913 0.00390217 0.00756234 0.00465372 0.01929350 0.00335733 0.00172353 0.06692677 0.00977230 0.00645053 0.01692725 0.00130284 
0.12439429 0.03285655 0.01604638 0.00366167 0.00184691 0.00390584 0.00760464 0.00469442 0.01924073 0.00333457 0.00172270 0.06650969 0.00976470 0.00635238 0.01666250 0.00130325 
0.12546843 0.03221013 0.01566011 0.00362110 0.00182359 0.00390936 0.00764681 0.00474490 0.01918502 0.00330813 0.00172187 0.06612785 0.00977006 0.00625324 0.01638505 0.00130356 
0.12643108 0.03169828 0.01525728 0.00357980 0.00179921 0.00391278 0.00768857 0.00480522 0.01912672 0.00327805 0.00172099 0.06578300 0.00978819 0.00615360 0.01609622 0.00130378 
0.12727915 0.03132387 0.01483955 0.00353790 0.00177383 0.00391617 0.00772960 0.00487540 0.01906624 0.00324439 0.00171998 0.06547666 0.00981874 0.00605396 0.01579734 0.00130390 
0.12800987 0.03108897 0.01440862 0.00349555 0.00174752 0.00391960 0.00776961 0.00495538 0.01900404 0.00320721 0.00171877 0.06521002 0.00986133 0.00595482 0.01548981 0.00130393 
0.12862087 0.03099488 0.01396623 0.00345290 0.00172035 0.00392312 0.00780830 0.00504500 0.01894058 0.00316661 0.00171730 0.06498395 0.00991545 0.00585666 0.01517507 0.00130386 
0.12911019 0.03104207 0.01351413 0.00341014 0.00169238 0.00392678 0.00784541 0.00514409 0.01887638 0.00312267 0.00171549 0.06479904 0.00998055 0.00575993 0.01485459 0.00130370 
0.12947621 0.03123023 0.01305408 0.00336743 0.00166369 0.00393064 0.00788066 0.00525235 0.01881198 0.00307554 0.00171329 0.06465553 0.01005597 0.00566511 0.01452988 0.00130345 
0.12971773 0.03155822 0.01258786 0.00332498 0.00163436 0.00393473 0.00791381 0.00536945 0.01874794 0.00302532 0.00171062 0.06455334 0.01014101 0.00557261 0.01420246 0.00130311 
0.12983393 0.03202407 0.01211724 0.00328297 0.00160448 0.00393909 0.00794460 0.00549498 0.01868485 0.00297218 0.00170742 0.06449207 0.01023487 0.00548285 0.01387388 0.00130268 
0.12982439 0.03262503 0.01164395 0.00324163 0.00157412 0.00394376 0.00797281 0.00562848 0.01862335 0.00291627 0.00170363 0.06447101 0.01033672 0.00539623 0.01354569 0.00130217 
0.12968909 0.03335756 0.01116972 0.00320115 0.00154338 0.00394877 0.00799825 0.00576942 0.01856405 0.00285778 0.00169920 0.06448913 0.01044568 0.00531311 0.01321945 0.00130158 
0.12942837 0.03421735 0.01069626 0.00316176 0.00151235 0.00395413 0.00802071 0.00591719 0.01850762 0.00279688 0.00169408 0.06454509 0.01056081 0.00523382 0.01289670 0.00130091 
0.12904297 0.03519932 0.01022521 0.00312369 0.00148112 0.00395986 0.00804004 0.00607117 0.01845472 0.00273378 0.00168822 0.06463729 0.01068113 0.00515868 0.01257900 0.00130016 
0.12853399 0.03629770 0.00975818 0.00308715 0.00144978 0.00396598 0.00805607 0.00623064 0.01840601 0.00266869 0.00168157 0.06476382 0.01080566 0.00508798 0.01226787 0.00129934 
0.12790293 0.03750602 0.00929671 0.00305236 0.00141844 0.00397249 0.00806868 0.00639489 0.01836217 0.00260185 0.00167410 0.06492255 0.01093336 0.00502195 0.01196482 0.00129845 
0.12715160 0.03881715 0.00884229 0.00301955 0.00138719 0.00397939 0.00807777 0.00656311 0.01832387 0.00253348 0.00166579 0.06511110 0.01106319 0.00496083 0.01167132 0.00129750 
0.12628221 0.04022335 0.00839634 0.00298894 0.00135614 0.00398667 0.00808324 0.00673449 0.01829177 0.00246382 0.00165659 0.06532689 0.01119413 0.00490479 0.01138880 0.00129649 
0.12529726 0.04171633 0.00796020 0.00296075 0.00132538 0.00399432 0.00808503 0.00690818 0.01826652 0.00239314 0.00164651 0.06556715 0.01132512 0.00485399 0.01111865 0.00129542 
0.12419960 0.04328726 0.00753515 0.00293519 0.00129502 0.00400233 0.00808309 0.00708329 0.01824876 0.00232170 0.00163551 0.06582894 0.01145513 0.00480855 0.01086224 0.00129430 
0.12299240 0.04492686 0.00712235 0.00291245 0.00126515 0.00401067 0.00807740 0.00725894 0.01823909 0.00224976 0.00162360 0.06610921 0.01158315 0.00476857 0.01062083 0.00129313 
0.12167911 0.04662544 0.00672290 0.00289273 0.00123588 0.00401931 0.00806797 0.00743419 0.01823808 0.00217759 0.00161077 0.06640480 0.01170819 0.00473408 0.01039567 0.00129192 
0.12026347 0.04837294 0.00633781 0.00287622 0.00120731 0.00402823 0.00805479 0.00760814 0.01824629 0.00210548 0.00159704 0.06671248 0.01182928 0.00470512 0.01018790 0.00129067 
0.11874949 0.05015902 0.00596798 0.00286309 0.00117954 0.00403739 0.00803793 0.00777985 0.01826421 0.00203371 0.00158242 0.06702899 0.01194551 0.00468167 0.00999862 0.00128939 
0.11714144 0.05197311 0.00561422 0.00285349 0.00115267 0.00404675 0.00801742 0.00794839 0.01829229 0.00196255 0.00156692 0.06735105 0.01205600 0.00466370 0.00982884 0.00128808 
0.11544382 0.05380446 0.00527725 0.00284757 0.00112679 0.00405625 0.00799335 0.00811286 0.01833095 0.00189231 0.00155059 0.06767541 0.01215991 0.00465113 0.00967948 0.00128675 
0.11366136 0.05564223 0.00495769 0.00284546 0.00110200 0.00406586 0.00796581 0.00827234 0.01838053 0.00182325 0.00153345 0.06799888 0.01225649 0.00464387 0.00955139 0.00128540 
0.11179900 0.05747555 0.00465605 0.00284727 0.00107839 0.00407551 0.00793492 0.00842597 0.01844131 0.00175567 0.00151555 0.06831836 0.01234500 0.00464177 0.00944531 0.00128403 
0.10986185 0.05929356 0.00437277 0.00285308 0.00105604 0.00408514 0.00790079 0.00857287 0.01851352 0.00168984 0.00149694 0.06863086 0.01242482 0.00464470 0.00936188 0.00128265 
0.10785522 0.06108551 0.00410817 0.00286299 0.00103505 0.00409470 0.00786357 0.00871224 0.01859730 0.00162605 0.00147767 0.06893355 0.01249536 0.00465247 0.00930167 0.00128127 
0.10578457 0.06284081 0.00386249 0.00287702 0.00101549 0.00410412 0.00782341 0.00884328 0.01869274 0.00156457 0.00145781 0.06922378 0.01255612 0.00466488 0.00926511 0.00127989 
0.10365549 0.06454910 0.00363586 0.00289523 0.00099743 0.00411333 0.00778048 0.00896525 0.01879982 0.00150565 0.00143742 0.06949908 0.01260666 0.00468170 0.00925256 0.00127852 
0.10147371 0.06620030 0.00342834 0.00291762 0.00098096 0.00412225 0.00773494 0.00907744 0.01891847 0.00144957 0.00141659 0.06975725 0.01264663 0.00470270 0.00926424 0.00127715 
0.09924507 0.06778470 0.00323991 0.00294418 0.00096613 0.00413082 0.00768700 0.00917921 0.01904851 0.00139657 0.00139539 0.06999630 0.01267576 0.00472761 0.00930028 0.00127580 
0.09697551 0.06929300 0.00307043 0.00297487 0.00095300 0.00413895 0.00763684 0.00926996 0.01918972 0.00134688 0.00137390 0.07021455 0.01269384 0.00475617 0.00936069 0.00127446 
0.09467105 0.07071637 0.00291974 0.00300965 0.00094162 0.00414656 0.00758466 0.00934916 0.01934174 0.00130075 0.00135223 0.07041060 0.01270076 0.00478807 0.00944538 0.00127315 
0.09233777 0.07204650 0.00278755 0.00304842 0.00093205 0.00415357 0.00753066 0.00941633 0.01950417 0.00125837 0.00133046 0.07058336 0.01269647 0.00482304 0.00955412 0.00127186 
0.08998180 0.07327567 0.00267353 0.00309109 0.00092432 0.00415990 0.00747506 0.00947106 0.01967650 0.00121996 0.00130870 0.07073205 0.01268102 0.00486075 0.00968660 0.00127061 
0.08760933 0.07439677 0.00257730 0.00313754 0.00091846 0.00416546 0.00741807 0.00951301 0.01985813 0.00118570 0.00128704 0.07085625 0.01265450 0.00490089 0.00984237 0.00126939 
0.08522655 0.07540339 0.00249839 0.00318761 0.00091449 0.00417017 0.00735989 0.00954189 0.02004841 0.00115576 0.00126559 0.07095588 0.01261711 0.00494315 0.01002088 0.00126821 
0.08283969 0.07628979 0.00243630 0.00324114 0.00091244 0.00417392 0.00730075 0.00955750 0.02024658 0.00113030 0.00124447 0.07103117 0.01256910 0.00498719 0.01022148 0.00126707 
0.08045495 0.07705102 0.00239048 0.00329794 0.00091231 0.00417665 0.00724085 0.00955971 0.02045180 0.00110946 0.00122379 0.07108276 0.01251078 0.00503271 0.01044340 0.00126597 
0.07807854 0.07768287 0.00236033 0.00335780 0.00091410 0.00417825 0.00718041 0.00954844 0.02066318 0.00109334 0.00120364 0.07111157 0.01244253 0.00507938 0.01068575 0.00126493 
0.07571663 0.07818195 0.00234522 0.00342050 0.00091779 0.00417864 0.00711962 0.00952370 0.02087974 0.00108206 0.00118416 0.07111892 0.01236480 0.00512688 0.01094758 0.00126393 
0.07337537 0.07854570 0.00234449 0.00348578 0.00092337 0.00417772 0.00705869 0.00948556 0.02110045 0.00107569 0.00116545 0.07110642 0.01227808 0.00517489 0.01122781 0.00126299 
0.07106085 0.07877240 0.00235747 0.00355338 0.00093081 0.00417542 0.00699781 0.00943417 0.02132420 0.00107429 0.00114763 0.07107603 0.01218290 0.00522311 0.01152527 0.00126211 
0.06877912 0.07886116 0.00238345 0.00362302 0.00094008 0.00417164 0.00693718 0.00936973 0.02154983 0.00107789 0.00113080 0.07103001 0.01207985 0.00527125 0.01183871 0.00126130 
0.06653612 0.07881198 0.00242172 0.00369442 0.00095113 0.00416630 0.00687697 0.00929253 0.02177616 0.00108652 0.00111509 0.07097091 0.01196955 0.00531900 0.01216679 0.00126054 
0.06433775 0.07862569 0.00247156 0.00376725 0.00096389 0.00415931 0.00681735 0.00920290 0.02200194 0.00110016 0.00110060 0.07090155 0.01185266 0.00536610 0.01250809 0.00125985 
0.06218979 0.07830398 0.00253226 0.00384122 0.00097832 0.00415061 0.00675849 0.00910125 0.02222590 0.00111879 0.00108743 0.07082501 0.01172984 0.00541228 0.01286113 0.00125923 
0.06009795 0.07784938 0.00260308 0.00391598 0.00099434 0.00414010 0.00670054 0.00898803 0.02244673 0.00114235 0.00107570 0.07074457 0.01160180 0.00545728 0.01322436 0.00125867 
0.05806778 0.07726526 0.00268333 0.00399122 0.00101185 0.00412773 0.00664365 0.00886376 0.02266313 0.00117077 0.00106550 0.07066374 0.01146925 0.00550087 0.01359616 0.00125819 
0.05610475 0.07655575 0.00277231 0.00406658 0.00103079 0.00411341 0.00658794 0.00872900 0.02287375 0.00120396 0.00105693 0.07058617 0.01133290 0.00554282 0.01397488 0.00125778 
0.05421417 0.07572580 0.00286934 0.00414173 0.00105104 0.00409710 0.00653354 0.00858437 0.02307729 0.00124180 0.00105008 0.07051564 0.01119348 0.00558292 0.01435881 0.00125744 
0.05240120 0.07478109 0.00297375 0.00421633 0.00107251 0.00407874 0.00648057 0.00843051 0.02327241 0.00128414 0.00104503 0.07045606 0.01105170 0.00562099 0.01474622 0.00125718 
0.05067086 0.07372801 0.00308491 0.00429003 0.00109509 0.00405827 0.00642911 0.00826813 0.02345782 0.00133083 0.00104187 0.07041138 0.01090828 0.00565685 0.01513536 0.00125700 
0.04902799 0.07257360 0.00320221 0.00436249 0.00111865 0.00403565 0.00637926 0.00809795 0.02363225 0.00138168 0.00104068 0.07038558 0.01076389 0.00569035 0.01552443 0.00125689 
0.04747726 0.07132555 0.00332507 0.00443338 0.00114307 0.00401085 0.00633110 0.00792072 0.02379444 0.00143650 0.00104152 0.07038266 0.01061922 0.00572135 0.01591166 0.00125686 
0.04602313 0.06999212 0.00345294 0.00450238 0.00116822 0.00398384 0.00628467 0.00773723 0.02394320 0.00149505 0.00104445 0.07040654 0.01047492 0.00574972 0.01629526 0.00125690 
0.04466988 0.06858208 0.00358529 0.00456915 0.00119398 0.00395460 0.00624005 0.00754827 0.02407739 0.00155709 0.00104952 0.07046109 0.01033161 0.00577537 0.01667347 0.00125703 
0.04342155 0.06710468 0.00372165 0.00463341 0.00122019 0.00392314 0.00619726 0.00735467 0.02419592 0.00162238 0.00105678 0.07055003 0.01018987 0.00579822 0.01704452 0.00125723 
0.04228197 0.06556956 0.00386156 0.00469484 0.00124673 0.00388944 0.00615634 0.00715724 0.02429776 0.00169063 0.00106628 0.07067697 0.01005025 0.00581819 0.01740671 0.00125751 
0.04125473 0.06398674 0.00400462 0.00475318 0.00127345 0.00385353 0.00611731 0.00695683 0.02438196 0.00176155 0.00107803 0.07084527 0.00991327 0.00583525 0.01775835 0.00125787 
0.04034316 0.06236650 0.00415045 0.00480815 0.00130021 0.00381542 0.00608016 0.00675425 0.02444767 0.00183484 0.00109206 0.07105810 0.00977941 0.00584936 0.01809780 0.00125830 
0.03955034 0.06071935 0.00429869 0.00485953 0.00132685 0.00377516 0.00604490 0.00655033 0.02449411 0.00191018 0.00110839 0.07131837 0.00964907 0.00586052 0.01842349 0.00125881 
0.03887905 0.05905593 0.00444905 0.00490707 0.00135324 0.00373279 0.00601152 0.00634589 0.02452059 0.00198724 0.00112700 0.07162867 0.00952265 0.00586872 0.01873392 0.00125940 
0.03833182 0.05738701 0.00460125 0.00495057 0.00137924 0.00368837 0.00597999 0.00614174 0.02452653 0.00206568 0.00114791 0.07199128 0.00940048 0.00587398 0.01902764 0.00126006 
0.03791084 0.05572334 0.00475505 0.00498987 0.00140469 0.00364198 0.00595028 0.00593866 0.02451145 0.00214517 0.00117108 0.07240814 0.00928284 0.00587636 0.01930332 0.00126080 
0.03761801 0.05407564 0.00491023 0.00502480 0.00142947 0.00359370 0.00592235 0.00573741 0.02447498 0.00222534 0.00119651 0.07288078 0.00916997 0.00587589 0.01955970 0.00126161 
0.03745492 0.05245450 0.00506662 0.00505522 0.00145344 0.00354364 0.00589614 0.00553873 0.02441687 0.00230584 0.00122415 0.07341036 0.00906206 0.00587266 0.01979563 0.00126249 
0.03742279 0.05087035 0.00522404 0.00508105 0.00147647 0.00349189 0.00587162 0.00534333 0.02433697 0.00238631 0.00125395 0.07399759 0.00895925 0.00586673 0.02001005 0.00126344 
0.03752253 0.04933334 0.00538237 0.00510220 0.00149843 0.00343860 0.00584870 0.00515190 0.02423526 0.00246638 0.00128587 0.07464276 0.00886164 0.00585822 0.02020204 0.00126447 
0.03775469 0.04785333 0.00554150 0.00511861 0.00151921 0.00338390 0.00582733 0.00496507 0.02411182 0.00254571 0.00131985 0.07534571 0.00876927 0.00584723 0.02037078 0.00126556 
0.03811943 0.04643979 0.00570133 0.00513028 0.00153870 0.00332793 0.00580743 0.00478344 0.02396687 0.00262393 0.00135580 0.07610579 0.00868215 0.00583389 0.02051559 0.00126673 
0.03861658 0.04510177 0.00586177 0.00513720 0.00155680 0.00327087 0.00578892 0.00460759 0.02380074 0.00270069 0.00139366 0.07692191 0.00860025 0.00581833 0.02063592 0.00126796 
0.03924557 0.04384783 0.00602277 0.00513941 0.00157342 0.00321289 0.00577172 0.00443804 0.02361387 0.00277565 0.00143334 0.07779249 0.00852350 0.00580070 0.02073134 0.00126925 
0.04000544 0.04268597 0.00618425 0.00513698 0.00158847 0.00315418 0.00575575 0.00427527 0.02340683 0.00284846 0.00147473 0.07871549 0.00845179 0.00578116 0.02080159 0.00127062 
0.04089484 0.04162360 0.00634617 0.00512999 0.00160187 0.00309493 0.00574091 0.00411971 0.02318030 0.00291882 0.00151773 0.07968839 0.00838498 0.00575988 0.02084652 0.00127205 
0.04191204 0.04066752 0.00650847 0.00511857 0.00161358 0.00303536 0.00572713 0.00397175 0.02293506 0.00298639 0.00156222 0.08070823 0.00832290 0.00573704 0.02086614 0.00127354 
0.04305491 0.03982380 0.00667109 0.00510285 0.00162354 0.00297568 0.00571431 0.00383174 0.02267200 0.00305089 0.00160810 0.08177158 0.00826535 0.00571282 0.02086061 0.00127509 
0.04432091 0.03909782 0.00683399 0.00508302 0.00163172 0.00291613 0.00570236 0.00369996 0.02239213 0.00311202 0.00165523 0.08287460 0.00821213 0.00568743 0.02083023 0.00127671 
0.04570712 0.03849421 0.00699709 0.00505927 0.00163809 0.00285692 0.00569119 0.00357669 0.02209655 0.00316953 0.00170348 0.08401303 0.00816299 0.00566108 0.02077545 0.00127838 
0.04721021 0.03801681 0.00716032 0.00503182 0.00164264 0.00279832 0.00568072 0.00346210 0.02178642 0.00322317 0.00175271 0.08518224 0.00811769 0.00563397 0.02069685 0.00128012 
0.04882647 0.03766865 0.00732359 0.00500091 0.00164537 0.00274056 0.00567087 0.00335637 0.02146304 0.00327271 0.00180277 0.08637723 0.00807598 0.00560634 0.02059516 0.00128192 
0.05055179 0.03745195 0.00748680 0.00496681 0.00164631 0.00268389 0.00566155 0.00325961 0.02112774 0.00331796 0.00185353 0.08759267 0.00803759 0.00557840 0.02047127 0.00128377 
0.05238169 0.03736809 0.00764983 0.00492980 0.00164548 0.00262857 0.00565270 0.00317188 0.02078196 0.00335872 0.00190481 0.08882294 0.00800224 0.00555040 0.02032617 0.00128568 
0.05431133 0.03741761 0.00781254 0.00489018 0.00164292 0.00257486 0.00564423 0.00309321 0.02042717 0.00339484 0.00195648 0.09006216 0.00796968 0.00552257 0.02016101 0.00128765 
0.05633551 0.03760020 0.00797476 0.00484827 0.00163870 0.00252300 0.00563608 0.00302360 0.02006494 0.00342621 0.00200836 0.09130424 0.00793964 0.00549516 0.01997704 0.00128967 
0.05844866 0.03791473 0.00813632 0.00480440 0.00163289 0.00247326 0.00562820 0.00296298 0.01969684 0.00345270 0.00206030 0.09254290 0.00791188 0.00546843 0.01977565 0.00129175 
0.06064491 0.03835920 0.00829701 0.00475891 0.00162557 0.00242589 0.00562054 0.00291128 0.01932451 0.00347426 0.00211214 0.09377173 0.00788613 0.00544264 0.01955833 0.00129388 
0.06291806 0.03893082 0.00845659 0.00471215 0.00161684 0.00238112 0.00561304 0.00286837 0.01894962 0.00349082 0.00216372 0.09498423 0.00786219 0.00541803 0.01932668 0.00129607 
0.06526164 0.03962601 0.00861481 0.00466449 0.00160681 0.00233921 0.00560567 0.00283410 0.01857387 0.00350237 0.00221486 0.09617386 0.00783983 0.00539488 0.01908238 0.00129830 
0.06766888 0.04044038 0.00877139 0.00461627 0.00159562 0.00230039 0.00559842 0.00280828 0.01819894 0.00350893 0.00226542 0.09733409 0.00781887 0.00537346 0.01882721 0.00130059 
0.07013276 0.04136883 0.00892601 0.00456788 0.00158339 0.00226487 0.00559126 0.00279072 0.01782657 0.00351053 0.00231522 0.09845842 0.00779912 0.00535403 0.01856302 0.00130293 
0.07264606 0.04240553 0.00907835 0.00451968 0.00157027 0.00223288 0.00558418 0.00278118 0.01745844 0.00350723 0.00236412 0.09954047 0.00778045 0.00533687 0.01829173 0.00130532 
0.07520133 0.04354399 0.00922805 0.00447202 0.00155643 0.00220462 0.00557719 0.00277942 0.01709627 0.00349914 0.00241195 0.10057400 0.00776271 0.00532225 0.01801531 0.00130775 
0.07779098 0.04477708 0.00937473 0.00442527 0.00154203 0.00218027 0.00557031 0.00278515 0.01674174 0.00348638 0.00245857 0.10155298 0.00774582 0.00531045 0.01773576 0.00131023 
0.08040723 0.04609710 0.00951801 0.00437978 0.00152724 0.00216000 0.00556357 0.00279812 0.01639649 0.00346910 0.00250383 0.10247159 0.00772970 0.00530173 0.01745513 0.00131275 
0.08304224 0.04749581 0.00965745 0.00433590 0.00151226 0.00214397 0.00555699 0.00281801 0.01606214 0.00344748 0.00254760 0.10332434 0.00771429 0.00529638 0.01717547 0.00131532 
0.08568804 0.04896450 0.00979264 0.00429395 0.00149727 0.00213232 0.00555064 0.00284453 0.01574028 0.00342173 0.00258973 0.10410602 0.00769959 0.00529466 0.01689886 0.00131793 
0.08833664 0.05049405 0.00992312 0.00425426 0.00148247 0.00212517 0.00554458 0.00287737 0.01543242 0.00339209 0.00263010 0.10481185 0.00768557 0.00529684 0.01662735 0.00132057 
0.09098003 0.05207495 0.01004845 0.00421712 0.00146807 0.00212261 0.00553887 0.00291623 0.01514004 0.00335880 0.00266859 0.10543740 0.00767229 0.00530319 0.01636298 0.00132325 
0.09361019 0.05369744 0.01016815 0.00418282 0.00145427 0.00212473 0.00553362 0.00296078 0.01486454 0.00332214 0.00270508 0.10597874 0.00765978 0.00531397 0.01610775 0.00132596 
0.09621917 0.05535149 0.01028177 0.00415162 0.00144128 0.00213158 0.00552891 0.00301074 0.01460727 0.00328242 0.00273949 0.10643238 0.00764812 0.00532944 0.01586364 0.00132870 
0.09879911 0.05702693 0.01038884 0.00412378 0.00142931 0.00214318 0.00552486 0.00306578 0.01436949 0.00323996 0.00277171 0.10679537 0.00763741 0.00534985 0.01563253 0.00133146 
0.10134226 0.05871348 0.01048890 0.00409950 0.00141857 0.00215955 0.00552159 0.00312563 0.01415238 0.00319509 0.00280165 0.10706528 0.00762776 0.00537544 0.01541628 0.00133425 
0.10384102 0.06040083 0.01058149 0.00407898 0.00140928 0.00218068 0.00551924 0.00318998 0.01395705 0.00314817 0.00282925 0.10724024 0.00761931 0.00540643 0.01521663 0.00133706 
0.10628797 0.06207873 0.01066618 0.00406240 0.00140163 0.00220652 0.00551795 0.00325857 0.01378452 0.00309957 0.00285445 0.10731896 0.00761219 0.00544307 0.01503525 0.00133988 
0.10867591 0.06373702 0.01074253 0.00404990 0.00139584 0.00223700 0.00551787 0.00333114 0.01363569 0.00304967 0.00287719 0.10730073 0.00760657 0.00548555 0.01487369 0.00134271 
0.11099790 0.06536570 0.01081015 0.00404159 0.00139209 0.00227204 0.00551917 0.00340743 0.01351142 0.00299885 0.00289743 0.10718547 0.00760263 0.00553407 0.01473341 0.00134555 
0.11324726 0.06695504 0.01086866 0.00403756 0.00139059 0.00231153 0.00552203 0.00348722 0.01341241 0.00294753 0.00291514 0.10697367 0.00760052 0.00558883 0.01461572 0.00134838 
0.11541765 0.06849560 0.01091770 0.00403788 0.00139151 0.00235531 0.00552662 0.00357028 0.01333932 0.00289610 0.00293032 0.10666645 0.00760043 0.00565000 0.01452181 0.00135121 
0.11750303 0.06997831 0.01095696 0.00404256 0.00139503 0.00240324 0.00553314 0.00365643 0.01329266 0.00284498 0.00294295 0.10626553 0.00760255 0.00571772 0.01445274 0.00135403 
0.11949776 0.07139454 0.01098617 0.00405161 0.00140131 0.00245513 0.00554177 0.00374548 0.01327287 0.00279456 0.00295304 0.10577320 0.00760704 0.00579212 0.01440941 0.00135684 
0.12139656 0.07273614 0.01100507 0.00406500 0.00141052 0.00251076 0.00555273 0.00383726 0.01328029 0.00274527 0.00296062 0.10519238 0.00761409 0.00587334 0.01439257 0.00135962 
0.12319456 0.07399550 0.01101349 0.00408267 0.00142279 0.00256991 0.00556621 0.00393165 0.01331512 0.00269750 0.00296572 0.10452650 0.00762385 0.00596146 0.01440280 0.00136237 
0.12488735 0.07516561 0.01101127 0.00410453 0.00143825 0.00263232 0.00558242 0.00402852 0.01337751 0.00265165 0.00296837 0.10377958 0.00763648 0.00605655 0.01444054 0.00136509 
0.12647093 0.07624011 0.01099834 0.00413046 0.00145702 0.00269773 0.00560157 0.00412775 0.01346747 0.00260811 0.00296865 0.10295613 0.00765213 0.00615866 0.01450603 0.00136776 
0.12794178 0.07721330 0.01097464 0.00416032 0.00147919 0.00276584 0.00562387 0.00422927 0.01358492 0.00256727 0.00296661 0.10206115 0.00767091 0.00626781 0.01459937 0.00137038 
0.12929685 0.07808024 0.01094021 0.00419394 0.00150486 0.00283635 0.00564952 0.00433301 0.01372969 0.00252948 0.00296234 0.10110012 0.00769294 0.00638400 0.01472047 0.00137295 
0.13053359 0.07883672 0.01089512 0.00423113 0.00153409 0.00290895 0.00567874 0.00443890 0.01390152 0.00249509 0.00295592 0.10007890 0.00771829 0.00650720 0.01486907 0.00137546 
0.13164992 0.07947934 0.01083951 0.00427165 0.00156692 0.00298329 0.00571172 0.00454693 0.01410003 0.00246445 0.00294746 0.09900377 0.00774704 0.00663735 0.01504476 0.00137789 
0.13264426 0.08000549 0.01077361 0.00431527 0.00160340 0.00305905 0.00574865 0.00465705 0.01432477 0.00243786 0.00293707 0.09788133 0.00777921 0.00677436 0.01524693 0.00138024 
0.13351554 0.08041342 0.01069767 0.00436172 0.00164353 0.00313585 0.00578974 0.00476927 0.01457520 0.00241562 0.00292485 0.09671846 0.00781482 0.00691811 0.01547483 0.00138251 
0.13426316 0.08070220 0.01061204 0.00441072 0.00168732 0.00321336 0.00583515 0.00488358 0.01485069 0.00239799 0.00291096 0.09552232 0.00785384 0.00706844 0.01572753 0.00138469 
0.13488703 0.08087177 0.01051711 0.00446197 0.00173474 0.00329119 0.00588506 0.00500000 0.01515053 0.00238522 0.00289550 0.09430024 0.00789625 0.00722518 0.01600395 0.00138677 
0.13538754 0.08092291 0.01041336 0.00451514 0.00178576 0.00336899 0.00593963 0.00511854 0.01547393 0.00237753 0.00287864 0.09305971 0.00794195 0.00738810 0.01630287 0.00138873 
0.13576554 0.08085725 0.01030132 0.00456990 0.00184030 0.00344638 0.00599901 0.00523923 0.01582004 0.00237511 0.00286051 0.09180833 0.00799085 0.00755696 0.01662291 0.00139059 
0.13602235 0.08067729 0.01018158 0.00462592 0.00189829 0.00352301 0.00606332 0.00536211 0.01618792 0.00237812 0.00284128 0.09055374 0.00804281 0.00773146 0.01696257 0.00139232 
0.13615973 0.08038631 0.01005481 0.00468284 0.00195963 0.00359851 0.00613268 0.00548719 0.01657659 0.00238669 0.00282109 0.08930356 0.00809767 0.00791131 0.01732022 0.00139393 
0.13617986 0.07998843 0.00992171 0.00474029 0.00202422 0.00367253 0.00620720 0.00561452 0.01698498 0.00240093 0.00280011 0.08806540 0.00815522 0.00809613 0.01769410 0.00139540 
0.13608532 0.07948853 0.00978306 0.00479792 0.00209190 0.00374472 0.00628696 0.00574413 0.01741199 0.00242090 0.00277851 0.08684672 0.00821526 0.00828557 0.01808237 0.00139673 
0.13587907 0.07889223 0.00963969 0.00485536 0.00216254 0.00381476 0.00637201 0.00587605 0.01785646 0.00244664 0.00275644 0.08565487 0.00827752 0.00847919 0.01848308 0.00139792 
0.13556445 0.07820587 0.00949247 0.00491223 0.00223596 0.00388231 0.00646241 0.00601029 0.01831718 0.00247815 0.00273408 0.08449697 0.00834174 0.00867655 0.01889420 0.00139895 
0.13514508 0.07743645 0.00934232 0.00496817 0.00231198 0.00394708 0.00655817 0.00614688 0.01879290 0.00251541 0.00271159 0.08337993 0.00840761 0.00887718 0.01931364 0.00139983 
0.13462493 0.07659158 0.00919020 0.00502283 0.00239040 0.00400877 0.00665930 0.00628582 0.01928235 0.00255837 0.00268913 0.08231033 0.00847481 0.00908057 0.01973925 0.00140055 
0.13400819 0.07567944 0.00903711 0.00507583 0.00247101 0.00406713 0.00676577 0.00642711 0.01978419 0.00260692 0.00266687 0.08129447 0.00854300 0.00928619 0.02016884 0.00140111 
0.13329932 0.07470872 0.00888407 0.00512684 0.00255358 0.00412190 0.00687753 0.00657074 0.02029710 0.00266095 0.00264495 0.08033825 0.00861181 0.00949348 0.02060017 0.00140150 
0.13250298 0.07368856 0.00873215 0.00517552 0.00263786 0.00417287 0.00699451 0.00671667 0.02081971 0.00272029 0.00262355 0.07944718 0.00868087 0.00970186 0.02103103 0.00140173 
0.13162397 0.07262849 0.00858240 0.00522155 0.00272362 0.00421982 0.00711663 0.00686486 0.02135064 0.00278478 0.00260280 0.07862635 0.00874979 0.00991071 0.02145916 0.00140178 
0.13066725 0.07153833 0.00843591 0.00526460 0.00281058 0.00426259 0.00724375 0.00701525 0.02188850 0.00285419 0.00258284 0.07788038 0.00881818 0.01011941 0.02188235 0.00140166 
0.12963788 0.07042820 0.00829377 0.00530440 0.00289848 0.00430104 0.00737574 0.00716777 0.02243190 0.00292828 0.00256381 0.07721340 0.00888562 0.01032733 0.02229840 0.00140137 
0.12854098 0.06930834 0.00815708 0.00534066 0.00298704 0.00433504 0.00751243 0.00732231 0.02297943 0.00300679 0.00254584 0.07662906 0.00895172 0.01053379 0.02270516 0.00140090 
0.12738169 0.06818914 0.00802690 0.00537313 0.00307598 0.00436452 0.00765362 0.00747877 0.02352970 0.00308942 0.00252904 0.07613045 0.00901605 0.01073814 0.02310052 0.00140027 
0.12616517 0.06708101 0.00790432 0.00540156 0.00316500 0.00438939 0.00779909 0.00763700 0.02408133 0.00317586 0.00251352 0.07572017 0.00907822 0.01093969 0.02348246 0.00139946 
0.12489652 0.06599431 0.00779037 0.00542576 0.00325383 0.00440965 0.00794861 0.00779687 0.02463294 0.00326578 0.00249938 0.07540025 0.00913783 0.01113775 0.02384902 0.00139849 
0.12358078 0.06493928 0.00768607 0.00544552 0.00334217 0.00442529 0.00810191 0.00795819 0.02518318 0.00335881 0.00248670 0.07517218 0.00919448 0.01133164 0.02419835 0.00139736 
0.12222289 0.06392598 0.00759242 0.00546068 0.00342972 0.00443635 0.00825870 0.00812076 0.02573070 0.00345459 0.00247557 0.07503689 0.00924781 0.01152067 0.02452868 0.00139606 
0.12082766 0.06296420 0.00751035 0.00547111 0.00351620 0.00444287 0.00841867 0.00828439 0.02627419 0.00355272 0.00246604 0.07499480 0.00929743 0.01170415 0.02483838 0.00139461 
0.11939973 0.06206339 0.00744076 0.00547667 0.00360131 0.00444497 0.00858149 0.00844884 0.02681238 0.00365281 0.00245817 0.07504576 0.00934303 0.01188141 0.02512592 0.00139301 
0.11794356 0.06123258 0.00738448 0.00547729 0.00368477 0.00444275 0.00874682 0.00861386 0.02734402 0.00375445 0.00245199 0.07518910 0.00938426 0.01205178 0.02538991 0.00139126 
0.11646341 0.06048034 0.00734230 0.00547290 0.00376630 0.00443637 0.00891427 0.00877919 0.02786789 0.00385721 0.00244753 0.07542365 0.00942083 0.01221461 0.02562912 0.00138938 
0.11496328 0.05981470 0.00731494 0.00546346 0.00384564 0.00442599 0.00908346 0.00894453 0.02838283 0.00396067 0.00244481 0.07574775 0.00945248 0.01236927 0.02584244 0.00138736 
0.11344695 0.05924309 0.00730303 0.00544897 0.00392251 0.00441183 0.00925399 0.00910960 0.02888770 0.00406441 0.00244382 0.07615925 0.00947895 0.01251515 0.02602892 0.00138523 
0.11191790 0.05877226 0.00730715 0.00542945 0.00399667 0.00439411 0.00942545 0.00927409 0.02938142 0.00416798 0.00244455 0.07665556 0.00950003 0.01265165 0.02618779 0.00138297 
0.11037933 0.05840828 0.00732777 0.00540492 0.00406787 0.00437307 0.00959739 0.00943767 0.02986296 0.00427098 0.00244698 0.07723368 0.00951555 0.01277824 0.02631840 0.00138062 
0.10883415 0.05815643 0.00736529 0.00537547 0.00413588 0.00434899 0.00976938 0.00960000 0.03033135 0.00437296 0.00245106 0.07789020 0.00952536 0.01289438 0.02642031 0.00137817 
0.10728495 0.05802121 0.00742004 0.00534119 0.00420049 0.00432215 0.00994096 0.00976075 0.03078565 0.00447353 0.00245675 0.07862136 0.00952934 0.01299958 0.02649321 0.00137563 
0.10573402 0.05800626 0.00749222 0.00530218 0.00426149 0.00429286 0.01011168 0.00991956 0.03122498 0.00457226 0.00246398 0.07942309 0.00952743 0.01309339 0.02653698 0.00137301 
0.10418331 0.05811436 0.00758195 0.00525861 0.00431869 0.00426144 0.01028106 0.01007609 0.03164854 0.00466876 0.00247267 0.08029099 0.00951957 0.01317541 0.02655166 0.00137034 
0.10263448 0.05834739 0.00768927 0.00521062 0.00437193 0.00422822 0.01044863 0.01022998 0.03205558 0.00476264 0.00248274 0.08122045 0.00950578 0.01324527 0.02653743 0.00136761 
0.10108883 0.05870632 0.00781410 0.00515841 0.00442104 0.00419354 0.01061391 0.01038086 0.03244538 0.00485355 0.00249409 0.08220661 0.00948608 0.01330266 0.02649467 0.00136483 
0.09954738 0.05919117 0.00795627 0.00510217 0.00446589 0.00415774 0.01077644 0.01052840 0.03281732 0.00494112 0.00250662 0.08324445 0.00946056 0.01334731 0.02642388 0.00136203 
0.09801084 0.05980104 0.00811551 0.00504214 0.00450636 0.00412118 0.01093573 0.01067223 0.03317082 0.00502503 0.00252020 0.08432879 0.00942931 0.01337901 0.02632575 0.00135920 
0.09647960 0.06053409 0.00829145 0.00497854 0.00454235 0.00408422 0.01109131 0.01081201 0.03350537 0.00510495 0.00253471 0.08545439 0.00939249 0.01339760 0.02620107 0.00135637 
0.09495379 0.06138754 0.00848362 0.00491164 0.00457378 0.00404720 0.01124272 0.01094742 0.03382050 0.00518061 0.00255001 0.08661589 0.00935027 0.01340297 0.02605081 0.00135353 
0.09343327 0.06235771 0.00869147 0.00484171 0.00460057 0.00401049 0.01138950 0.01107813 0.03411584 0.00525172 0.00256597 0.08780795 0.00930286 0.01339508 0.02587604 0.00135071 
0.09191764 0.06344001 0.00891433 0.00476903 0.00462270 0.00397441 0.01153119 0.01120382 0.03439105 0.00531806 0.00258244 0.08902523 0.00925052 0.01337393 0.02567797 0.00134792 
0.09040628 0.06462899 0.00915145 0.00469388 0.00464012 0.00393930 0.01166734 0.01132421 0.03464584 0.00537940 0.00259926 0.09026241 0.00919351 0.01333961 0.02545791 0.00134515 
0.08889835 0.06591835 0.00940200 0.00461658 0.00465284 0.00390550 0.01179755 0.01143901 0.03488001 0.00543555 0.00261628 0.09151429 0.00913215 0.01329223 0.02521728 0.00134243 
0.08739283 0.06730102 0.00966507 0.00453742 0.00466086 0.00387330 0.01192137 0.01154798 0.03509339 0.00548635 0.00263334 0.09277575 0.00906675 0.01323200 0.02495759 0.00133976 
0.08588856 0.06876915 0.00993966 0.00445674 0.00466421 0.00384301 0.01203843 0.01165087 0.03528587 0.00553165 0.00265028 0.09404185 0.00899767 0.01315915 0.02468044 0.00133716 
0.08438421 0.07031422 0.01022470 0.00437483 0.00466295 0.00381489 0.01214833 0.01174748 0.03545741 0.00557136 0.00266693 0.09530779 0.00892528 0.01307400 0.02438747 0.00133462 
0.08287838 0.07192702 0.01051905 0.00429202 0.00465713 0.00378921 0.01225072 0.01183761 0.03560800 0.00560538 0.00268313 0.09656898 0.00884998 0.01297692 0.02408041 0.00133216 
0.08136957 0.07359780 0.01082151 0.00420863 0.00464683 0.00376619 0.01234525 0.01192111 0.03573769 0.00563367 0.00269872 0.09782107 0.00877217 0.01286832 0.02376101 0.00132978 
0.07985627 0.07531627 0.01113084 0.00412498 0.00463215 0.00374605 0.01243161 0.01199784 0.03584656 0.00565619 0.00271353 0.09905991 0.00869227 0.01274870 0.02343107 0.00132749 
0.07833691 0.07707170 0.01144573 0.00404138 0.00461321 0.00372896 0.01250949 0.01206770 0.03593475 0.00567294 0.00272741 0.10028167 0.00861071 0.01261858 0.02309241 0.00132529 
0.07680998 0.07885298 0.01176485 0.00395814 0.00459012 0.00371508 0.01257863 0.01213062 0.03600244 0.00568396 0.00274022 0.10148276 0.00852793 0.01247855 0.02274684 0.00132319 
0.07527398 0.08064868 0.01208681 0.00387557 0.00456302 0.00370454 0.01263878 0.01218653 0.03604985 0.00568929 0.00275179 0.10265990 0.00844437 0.01232925 0.02239618 0.00132118 
0.07372752 0.08244718 0.01241022 0.00379395 0.00453207 0.00369743 0.01268974 0.01223545 0.03607722 0.00568900 0.00276198 0.10381009 0.00836046 0.01217137 0.02204223 0.00131928 
0.07216929 0.08423669 0.01273367 0.00371358 0.00449742 0.00369384 0.01273130 0.01227737 0.03608484 0.00568320 0.00277067 0.10493066 0.00827665 0.01200563 0.02168678 0.00131747 
0.07059814 0.08600538 0.01305574 0.00363472 0.00445925 0.00369378 0.01276332 0.01231234 0.03607301 0.00567200 0.00277773 0.10601924 0.00819337 0.01183280 0.02133154 0.00131577 
0.06901306 0.08774142 0.01337499 0.00355765 0.00441773 0.00369727 0.01278566 0.01234045 0.03604210 0.00565556 0.00278303 0.10707380 0.00811105 0.01165369 0.02097823 0.00131415 
0.06741325 0.08943310 0.01369001 0.00348260 0.00437305 0.00370429 0.01279824 0.01236181 0.03599245 0.00563402 0.00278647 0.10809259 0.00803011 0.01146915 0.02062845 0.00131263 
0.06579812 0.09106888 0.01399939 0.00340982 0.00432540 0.00371478 0.01280099 0.01237654 0.03592446 0.00560757 0.00278795 0.10907419 0.00795095 0.01128005 0.02028377 0.00131120 
0.06416733 0.09263748 0.01430177 0.00333952 0.00427499 0.00372865 0.01279388 0.01238483 0.03583854 0.00557641 0.00278738 0.11001748 0.00787396 0.01108728 0.01994566 0.00130985 
0.06252077 0.09412799 0.01459579 0.00327191 0.00422201 0.00374580 0.01277691 0.01238686 0.03573512 0.00554075 0.00278468 0.11092164 0.00779951 0.01089177 0.01961554 0.00130857 
0.06085865 0.09552989 0.01488015 0.00320718 0.00416666 0.00376608 0.01275013 0.01238286 0.03561463 0.00550080 0.00277980 0.11178611 0.00772795 0.01069445 0.01929469 0.00130736 
