0.02015233 0.00418948 0.00169803 0.00692321 0.00297238 0.01268534 0.00239446 0.00250294 0.02142081 0.01089732 0.00169567 0.00055891 0.00232762 0.00074670 0.00243876 0.00162747 
0.01944943 0.00426107 0.00173687 0.00714419 0.00294428 0.01252387 0.00240422 0.00248591 0.02202499 0.01057398 0.00166055 0.00055929 0.00232832 0.00073777 0.00241327 0.00163071 
0.01876464 0.00433180 0.00177781 0.00736775 0.00291448 0.01235144 0.00241226 0.00246897 0.02261021 0.01025124 0.00162402 0.00056016 0.00232883 0.00072961 0.00238674 0.00163263 
0.01810082 0.00440138 0.00182068 0.00759297 0.00288302 0.01216867 0.00241853 0.00245214 0.02317352 0.00993006 0.00158621 0.00056153 0.00232910 0.00072222 0.00235926 0.00163324 
0.01746078 0.00446951 0.00186530 0.00781892 0.00284997 0.01197622 0.00242296 0.00243543 0.02371206 0.00961138 0.00154725 0.00056337 0.00232909 0.00071557 0.00233092 0.00163256 
0.01684723 0.00453590 0.00191147 0.00804462 0.00281536 0.01177477 0.00242550 0.00241887 0.02422301 0.00929617 0.00150727 0.00056568 0.00232877 0.00070963 0.00230182 0.00163062 
0.01626276 0.00460025 0.00195900 0.00826910 0.00277926 0.01156502 0.00242610 0.00240246 0.02470366 0.00898536 0.00146643 0.00056843 0.00232810 0.00070439 0.00227207 0.00162745 
0.01570984 0.00466228 0.00200765 0.00849138 0.00274175 0.01134771 0.00242473 0.00238624 0.02515140 0.00867985 0.00142487 0.00057160 0.00232706 0.00069981 0.00224175 0.00162307 
0.01519083 0.00472171 0.00205719 0.00871048 0.00270290 0.01112361 0.00242134 0.00237023 0.02556374 0.00838054 0.00138275 0.00057519 0.00232562 0.00069587 0.00221098 0.00161754 
0.01470791 0.00477828 0.00210739 0.00892542 0.00266280 0.01089349 0.00241590 0.00235447 0.02593832 0.00808829 0.00134021 0.00057916 0.00232376 0.00069254 0.00217985 0.00161090 
0.01426314 0.00483175 0.00215799 0.00913523 0.00262152 0.01065814 0.00240839 0.00233900 0.02627295 0.00780393 0.00129742 0.00058350 0.00232148 0.00068978 0.00214845 0.00160320 
0.01385838 0.00488187 0.00220874 0.00933898 0.00257916 0.01041837 0.00239879 0.00232384 0.02656559 0.00752827 0.00125454 0.00058820 0.00231875 0.00068757 0.00211689 0.00159449 
0.01349531 0.00492842 0.00225936 0.00953574 0.00253582 0.01017499 0.00238707 0.00230905 0.02681439 0.00726205 0.00121173 0.00059322 0.00231557 0.00068587 0.00208526 0.00158485 
0.01317546 0.00497120 0.00230961 0.00972460 0.00249161 0.00992881 0.00237325 0.00229467 0.02701769 0.00700600 0.00116916 0.00059854 0.00231195 0.00068465 0.00205366 0.00157433 
0.01290011 0.00501003 0.00235920 0.00990473 0.00244662 0.00968067 0.00235732 0.00228074 0.02717403 0.00676079 0.00112699 0.00060414 0.00230789 0.00068388 0.00202219 0.00156300 
0.01267037 0.00504476 0.00240787 0.01007529 0.00240097 0.00943137 0.00233929 0.00226733 0.02728216 0.00652706 0.00108538 0.00061000 0.00230341 0.00068352 0.00199092 0.00155093 
0.01248712 0.00507524 0.00245535 0.01023551 0.00235477 0.00918173 0.00231918 0.00225449 0.02734107 0.00630537 0.00104450 0.00061610 0.00229852 0.00068354 0.00195996 0.00153821 
0.01235103 0.00510136 0.00250138 0.01038468 0.00230814 0.00893255 0.00229702 0.00224227 0.02734996 0.00609625 0.00100450 0.00062241 0.00229325 0.00068391 0.00192939 0.00152489 
0.01226256 0.00512304 0.00254570 0.01052212 0.00226119 0.00868464 0.00227284 0.00223074 0.02730829 0.00590019 0.00096555 0.00062890 0.00228763 0.00068459 0.00189929 0.00151106 
0.01222191 0.00514022 0.00258805 0.01064724 0.00221404 0.00843876 0.00224668 0.00221996 0.02721574 0.00571759 0.00092780 0.00063556 0.00228170 0.00068555 0.00186974 0.00149681 
0.01222909 0.00515286 0.00262820 0.01075950 0.00216682 0.00819568 0.00221862 0.00221000 0.02707225 0.00554881 0.00089139 0.00064235 0.00227549 0.00068676 0.00184081 0.00148220 
0.01228385 0.00516096 0.00266590 0.01085841 0.00211964 0.00795615 0.00218870 0.00220091 0.02687802 0.00539415 0.00085649 0.00064926 0.00226905 0.00068819 0.00181259 0.00146733 
0.01238575 0.00516455 0.00270093 0.01094357 0.00207263 0.00772088 0.00215700 0.00219277 0.02663348 0.00525385 0.00082323 0.00065626 0.00226244 0.00068981 0.00178514 0.00145227 
0.01253409 0.00516367 0.00273309 0.01101466 0.00202590 0.00749057 0.00212360 0.00218564 0.02633933 0.00512810 0.00079174 0.00066334 0.00225570 0.00069160 0.00175853 0.00143710 
0.01272797 0.00515840 0.00276218 0.01107141 0.00197959 0.00726587 0.00208860 0.00217959 0.02599649 0.00501701 0.00076216 0.00067045 0.00224891 0.00069353 0.00173282 0.00142190 
0.01296625 0.00514885 0.00278801 0.01111365 0.00193381 0.00704743 0.00205211 0.00217469 0.02560617 0.00492064 0.00073461 0.00067760 0.00224212 0.00069557 0.00170807 0.00140675 
0.01324759 0.00513517 0.00281042 0.01114127 0.00188867 0.00683585 0.00201422 0.00217099 0.02516977 0.00483899 0.00070921 0.00068475 0.00223540 0.00069771 0.00168433 0.00139173 
0.01357046 0.00511750 0.00282927 0.01115426 0.00184430 0.00663168 0.00197508 0.00216857 0.02468898 0.00477199 0.00068606 0.00069188 0.00222882 0.00069992 0.00166165 0.00137690 
0.01393310 0.00509604 0.00284443 0.01115266 0.00180081 0.00643547 0.00193480 0.00216747 0.02416566 0.00471953 0.00066526 0.00069898 0.00222246 0.00070218 0.00164009 0.00136234 
0.01433358 0.00507100 0.00285578 0.01113661 0.00175831 0.00624770 0.00189353 0.00216777 0.02360194 0.00468143 0.00064692 0.00070602 0.00221639 0.00070447 0.00161967 0.00134812 
0.01476980 0.00504261 0.00286325 0.01110630 0.00171690 0.00606883 0.00185141 0.00216949 0.02300013 0.00465745 0.00063110 0.00071299 0.00221069 0.00070679 0.00160044 0.00133430 
0.01523946 0.00501114 0.00286676 0.01106204 0.00167670 0.00589925 0.00180861 0.00217271 0.02236274 0.00464730 0.00061789 0.00071988 0.00220544 0.00070911 0.00158243 0.00132095 
0.01574014 0.00497686 0.00286627 0.01100416 0.00163780 0.00573934 0.00176530 0.00217745 0.02169247 0.00465063 0.00060734 0.00072666 0.00220071 0.00071143 0.00156568 0.00130812 
0.01626925 0.00494007 0.00286175 0.01093309 0.00160030 0.00558942 0.00172163 0.00218375 0.02099220 0.00466705 0.00059951 0.00073333 0.00219659 0.00071374 0.00155019 0.00129586 
0.01682410 0.00490107 0.00285321 0.01084932 0.00156428 0.00544977 0.00167781 0.00219164 0.02026496 0.00469611 0.00059445 0.00073986 0.00219315 0.00071603 0.00153601 0.00128422 
0.01740186 0.00486020 0.00284065 0.01075341 0.00152984 0.00532061 0.00163400 0.00220114 0.01951392 0.00473734 0.00059218 0.00074626 0.00219047 0.00071830 0.00152313 0.00127326 
0.01799961 0.00481780 0.00282413 0.01064596 0.00149706 0.00520214 0.00159041 0.00221227 0.01874237 0.00479018 0.00059272 0.00075250 0.00218862 0.00072054 0.00151158 0.00126300 
0.01861434 0.00477420 0.00280371 0.01052763 0.00146600 0.00509449 0.00154722 0.00222504 0.01795373 0.00485407 0.00059610 0.00075858 0.00218768 0.00072275 0.00150135 0.00125349 
0.01924300 0.00472976 0.00277946 0.01039916 0.00143674 0.00499776 0.00150464 0.00223943 0.01715149 0.00492840 0.00060230 0.00076449 0.00218771 0.00072493 0.00149246 0.00124474 
0.01988246 0.00468484 0.00275150 0.01026128 0.00140934 0.00491199 0.00146288 0.00225544 0.01633922 0.00501252 0.00061131 0.00077022 0.00218879 0.00072708 0.00148490 0.00123680 
0.02052957 0.00463980 0.00271994 0.01011481 0.00138385 0.00483719 0.00142213 0.00227305 0.01552056 0.00510576 0.00062312 0.00077577 0.00219096 0.00072921 0.00147866 0.00122967 
0.02118117 0.00459498 0.00268493 0.00996057 0.00136033 0.00477331 0.00138260 0.00229223 0.01469917 0.00520741 0.00063769 0.00078113 0.00219429 0.00073132 0.00147374 0.00122337 
0.02183408 0.00455074 0.00264664 0.00979941 0.00133881 0.00472025 0.00134451 0.00231293 0.01387872 0.00531674 0.00065497 0.00078630 0.00219884 0.00073342 0.00147013 0.00121792 
0.02248517 0.00450742 0.00260523 0.00963223 0.00131934 0.00467790 0.00130805 0.00233510 0.01306290 0.00543302 0.00067491 0.00079127 0.00220463 0.00073551 0.00146779 0.00121330 
0.02313131 0.00446536 0.00256090 0.00945991 0.00130193 0.00464608 0.00127342 0.00235869 0.01225537 0.00555548 0.00069744 0.00079604 0.00221172 0.00073760 0.00146672 0.00120954 
0.02376945 0.00442486 0.00251387 0.00928335 0.00128661 0.00462455 0.00124084 0.00238362 0.01145974 0.00568334 0.00072248 0.00080061 0.00222014 0.00073970 0.00146689 0.00120661 
0.02439659 0.00438624 0.00246434 0.00910347 0.00127340 0.00461308 0.00121049 0.00240981 0.01067958 0.00581581 0.00074995 0.00080499 0.00222990 0.00074183 0.00146826 0.00120451 
0.02500983 0.00434978 0.00241257 0.00892117 0.00126229 0.00461136 0.00118256 0.00243717 0.00991836 0.00595212 0.00077974 0.00080917 0.00224104 0.00074398 0.00147081 0.00120323 
0.02560636 0.00431575 0.00235878 0.00873733 0.00125329 0.00461907 0.00115724 0.00246560 0.00917949 0.00609147 0.00081176 0.00081315 0.00225355 0.00074617 0.00147450 0.00120275 
0.02618349 0.00428437 0.00230324 0.00855285 0.00124639 0.00463582 0.00113470 0.00249498 0.00846623 0.00623306 0.00084588 0.00081693 0.00226745 0.00074841 0.00147928 0.00120303 
0.02673863 0.00425588 0.00224620 0.00836857 0.00124157 0.00466122 0.00111511 0.00252521 0.00778174 0.00637612 0.00088198 0.00082052 0.00228272 0.00075072 0.00148512 0.00120406 
0.02726938 0.00423045 0.00218794 0.00818533 0.00123880 0.00469484 0.00109862 0.00255615 0.00712901 0.00651986 0.00091992 0.00082393 0.00229935 0.00075310 0.00149197 0.00120581 
0.02777344 0.00420825 0.00212872 0.00800394 0.00123807 0.00473621 0.00108539 0.00258766 0.00651090 0.00666353 0.00095956 0.00082714 0.00231732 0.00075556 0.00149978 0.00120824 
0.02824872 0.00418940 0.00206882 0.00782515 0.00123932 0.00478485 0.00107553 0.00261961 0.00593007 0.00680637 0.00100074 0.00083018 0.00233660 0.00075811 0.00150849 0.00121131 
0.02869327 0.00417400 0.00200851 0.00764968 0.00124251 0.00484023 0.00106918 0.00265184 0.00538901 0.00694764 0.00104332 0.00083303 0.00235715 0.00076077 0.00151805 0.00121499 
0.02910534 0.00416211 0.00194806 0.00747823 0.00124760 0.00490183 0.00106643 0.00268421 0.00488999 0.00708665 0.00108712 0.00083572 0.00237891 0.00076354 0.00152840 0.00121923 
0.02948336 0.00415376 0.00188775 0.00731141 0.00125453 0.00496909 0.00106737 0.00271655 0.00443509 0.00722269 0.00113199 0.00083823 0.00240184 0.00076642 0.00153949 0.00122398 
0.02982597 0.00414893 0.00182785 0.00714980 0.00126323 0.00504143 0.00107209 0.00274870 0.00402616 0.00735511 0.00117773 0.00084058 0.00242585 0.00076944 0.00155124 0.00122921 
0.03013198 0.00414760 0.00176861 0.00699393 0.00127362 0.00511828 0.00108062 0.00278050 0.00366483 0.00748327 0.00122418 0.00084276 0.00245089 0.00077258 0.00156360 0.00123485 
0.03040045 0.00414968 0.00171030 0.00684427 0.00128564 0.00519902 0.00109302 0.00281178 0.00335247 0.00760655 0.00127114 0.00084480 0.00247687 0.00077587 0.00157650 0.00124087 
0.03063062 0.00415506 0.00165316 0.00670121 0.00129921 0.00528306 0.00110930 0.00284238 0.00309023 0.00772440 0.00131844 0.00084667 0.00250370 0.00077930 0.00158986 0.00124722 
0.03082194 0.00416359 0.00159742 0.00656510 0.00131423 0.00536977 0.00112946 0.00287212 0.00287899 0.00783626 0.00136588 0.00084840 0.00253128 0.00078287 0.00160363 0.00125383 
0.03097408 0.00417509 0.00154333 0.00643623 0.00133062 0.00545855 0.00115348 0.00290085 0.00271941 0.00794162 0.00141327 0.00084999 0.00255951 0.00078659 0.00161772 0.00126066 
0.03108690 0.00418934 0.00149108 0.00631481 0.00134829 0.00554877 0.00118133 0.00292841 0.00261186 0.00804002 0.00146042 0.00085143 0.00258828 0.00079046 0.00163207 0.00126767 
0.03116048 0.00420611 0.00144089 0.00620100 0.00136712 0.00563981 0.00121294 0.00295463 0.00255647 0.00813101 0.00150714 0.00085273 0.00261746 0.00079447 0.00164661 0.00127479 
0.03119511 0.00422512 0.00139294 0.00609490 0.00138703 0.00573107 0.00124824 0.00297937 0.00255312 0.00821421 0.00155323 0.00085390 0.00264695 0.00079862 0.00166126 0.00128198 
0.03119126 0.00424606 0.00134741 0.00599654 0.00140790 0.00582194 0.00128712 0.00300248 0.00260144 0.00828924 0.00159852 0.00085493 0.00267660 0.00080291 0.00167595 0.00128919 
0.03114959 0.00426861 0.00130445 0.00590589 0.00142962 0.00591183 0.00132948 0.00302383 0.00270080 0.00835579 0.00164281 0.00085582 0.00270628 0.00080733 0.00169060 0.00129637 
0.03107095 0.00429241 0.00126420 0.00582287 0.00145210 0.00600014 0.00137517 0.00304328 0.00285032 0.00841357 0.00168591 0.00085658 0.00273587 0.00081187 0.00170515 0.00130348 
0.03095636 0.00431710 0.00122678 0.00574734 0.00147521 0.00608632 0.00142403 0.00306072 0.00304889 0.00846235 0.00172765 0.00085720 0.00276521 0.00081652 0.00171952 0.00131047 
0.03080702 0.00434226 0.00119231 0.00567911 0.00149884 0.00616981 0.00147589 0.00307605 0.00329517 0.00850190 0.00176785 0.00085768 0.00279416 0.00082127 0.00173364 0.00131730 
0.03062428 0.00436751 0.00116087 0.00561793 0.00152288 0.00625007 0.00153055 0.00308916 0.00358760 0.00853208 0.00180634 0.00085803 0.00282259 0.00082611 0.00174743 0.00132392 
0.03040961 0.00439242 0.00113252 0.00556350 0.00154722 0.00632660 0.00158781 0.00309999 0.00392438 0.00855273 0.00184296 0.00085823 0.00285033 0.00083102 0.00176084 0.00133031 
0.03016465 0.00441656 0.00110733 0.00551550 0.00157175 0.00639892 0.00164742 0.00310844 0.00430354 0.00856378 0.00187754 0.00085829 0.00287725 0.00083599 0.00177379 0.00133641 
0.02989115 0.00443950 0.00108532 0.00547355 0.00159634 0.00646655 0.00170916 0.00311449 0.00472289 0.00856517 0.00190995 0.00085820 0.00290319 0.00084100 0.00178622 0.00134221 
0.02959094 0.00446079 0.00106651 0.00543723 0.00162090 0.00652906 0.00177276 0.00311808 0.00518007 0.00855687 0.00194004 0.00085796 0.00292801 0.00084603 0.00179806 0.00134767 
0.02926600 0.00448001 0.00105089 0.00540610 0.00164531 0.00658604 0.00183796 0.00311919 0.00567257 0.00853890 0.00196768 0.00085756 0.00295156 0.00085106 0.00180925 0.00135277 
0.02891833 0.00449671 0.00103845 0.00537969 0.00166947 0.00663712 0.00190447 0.00311782 0.00619769 0.00851131 0.00199274 0.00085700 0.00297370 0.00085606 0.00181974 0.00135747 
0.02855006 0.00451047 0.00102915 0.00535751 0.00169327 0.00668196 0.00197201 0.00311398 0.00675263 0.00847419 0.00201511 0.00085626 0.00299429 0.00086103 0.00182946 0.00136177 
0.02816332 0.00452089 0.00102293 0.00533903 0.00171661 0.00672023 0.00204026 0.00310770 0.00733445 0.00842763 0.00203470 0.00085535 0.00301318 0.00086592 0.00183836 0.00136563 
0.02776032 0.00452756 0.00101972 0.00532374 0.00173941 0.00675167 0.00210895 0.00309902 0.00794010 0.00837179 0.00205142 0.00085426 0.00303025 0.00087073 0.00184640 0.00136905 
0.02734328 0.00453010 0.00101944 0.00531109 0.00176156 0.00677603 0.00217774 0.00308800 0.00856647 0.00830684 0.00206518 0.00085297 0.00304537 0.00087542 0.00185353 0.00137202 
0.02691444 0.00452815 0.00102198 0.00530055 0.00178299 0.00679310 0.00224634 0.00307473 0.00921035 0.00823297 0.00207592 0.00085148 0.00305841 0.00087996 0.00185969 0.00137452 
0.02647603 0.00452139 0.00102723 0.00529157 0.00180360 0.00680271 0.00231442 0.00305929 0.00986849 0.00815041 0.00208359 0.00084978 0.00306926 0.00088434 0.00186486 0.00137655 
0.02603027 0.00450949 0.00103507 0.00528360 0.00182332 0.00680473 0.00238169 0.00304180 0.01053761 0.00805943 0.00208815 0.00084786 0.00307781 0.00088852 0.00186899 0.00137811 
0.02557937 0.00449220 0.00104534 0.00527613 0.00184208 0.00679906 0.00244784 0.00302240 0.01121440 0.00796028 0.00208958 0.00084571 0.00308397 0.00089248 0.00187205 0.00137920 
0.02512549 0.00446926 0.00105791 0.00526862 0.00185982 0.00678563 0.00251257 0.00300122 0.01189556 0.00785326 0.00208786 0.00084332 0.00308763 0.00089619 0.00187401 0.00137983 
0.02467074 0.00444047 0.00107261 0.00526058 0.00187648 0.00676443 0.00257558 0.00297843 0.01257781 0.00773870 0.00208300 0.00084069 0.00308871 0.00089962 0.00187485 0.00138000 
0.02421718 0.00440567 0.00108927 0.00525152 0.00189200 0.00673547 0.00263660 0.00295420 0.01325791 0.00761693 0.00207502 0.00083781 0.00308714 0.00090276 0.00187454 0.00137972 
0.02376680 0.00436472 0.00110772 0.00524098 0.00190635 0.00669880 0.00269536 0.00292871 0.01393267 0.00748831 0.00206394 0.00083466 0.00308286 0.00090556 0.00187306 0.00137900 
0.02332150 0.00431753 0.00112777 0.00522852 0.00191947 0.00665450 0.00275160 0.00290218 0.01459896 0.00735321 0.00204981 0.00083124 0.00307582 0.00090802 0.00187041 0.00137785 
0.02288310 0.00426408 0.00114925 0.00521374 0.00193134 0.00660270 0.00280510 0.00287481 0.01525378 0.00721201 0.00203270 0.00082754 0.00306597 0.00091010 0.00186657 0.00137630 
0.02245335 0.00420434 0.00117194 0.00519627 0.00194193 0.00654354 0.00285563 0.00284682 0.01589418 0.00706513 0.00201268 0.00082355 0.00305328 0.00091177 0.00186153 0.00137437 
0.02203385 0.00413839 0.00119567 0.00517574 0.00195123 0.00647722 0.00290299 0.00281844 0.01651738 0.00691296 0.00198983 0.00081927 0.00303774 0.00091303 0.00185529 0.00137207 
0.02162614 0.00406630 0.00122024 0.00515188 0.00195923 0.00640396 0.00294701 0.00278992 0.01712071 0.00675594 0.00196426 0.00081469 0.00301933 0.00091385 0.00184785 0.00136942 
0.02123162 0.00398822 0.00124546 0.00512439 0.00196591 0.00632400 0.00298755 0.00276151 0.01770165 0.00659450 0.00193609 0.00080981 0.00299808 0.00091420 0.00183922 0.00136646 
0.02085160 0.00390433 0.00127112 0.00509306 0.00197128 0.00623764 0.00302447 0.00273344 0.01825785 0.00642908 0.00190545 0.00080462 0.00297399 0.00091408 0.00182940 0.00136320 
0.02048725 0.00381487 0.00129704 0.00505769 0.00197536 0.00614517 0.00305769 0.00270599 0.01878714 0.00626014 0.00187247 0.00079911 0.00294710 0.00091346 0.00181840 0.00135968 
0.02013963 0.00372011 0.00132304 0.00501813 0.00197815 0.00604693 0.00308712 0.00267940 0.01928753 0.00608813 0.00183733 0.00079330 0.00291745 0.00091233 0.00180624 0.00135592 
0.01980968 0.00362037 0.00134892 0.00497427 0.00197968 0.00594328 0.00311275 0.00265393 0.01975723 0.00591351 0.00180019 0.00078717 0.00288511 0.00091068 0.00179293 0.00135195 
0.01949822 0.00351601 0.00137452 0.00492604 0.00197998 0.00583460 0.00313454 0.00262985 0.02019465 0.00573674 0.00176122 0.00078073 0.00285015 0.00090850 0.00177850 0.00134780 
0.01920594 0.00340744 0.00139966 0.00487340 0.00197908 0.00572129 0.00315254 0.00260740 0.02059842 0.00555830 0.00172062 0.00077398 0.00281264 0.00090578 0.00176297 0.00134351 
0.01893344 0.00329511 0.00142418 0.00481637 0.00197701 0.00560377 0.00316680 0.00258684 0.02096738 0.00537864 0.00167859 0.00076692 0.00277270 0.00090251 0.00174637 0.00133909 
0.01868117 0.00317948 0.00144793 0.00475499 0.00197382 0.00548247 0.00317740 0.00256841 0.02130061 0.00519824 0.00163534 0.00075956 0.00273043 0.00089870 0.00172871 0.00133458 
0.01844948 0.00306108 0.00147077 0.00468935 0.00196955 0.00535786 0.00318447 0.00255236 0.02159740 0.00501755 0.00159110 0.00075191 0.00268596 0.00089434 0.00171004 0.00133002 
0.01823861 0.00294045 0.00149257 0.00461957 0.00196427 0.00523037 0.00318816 0.00253890 0.02185729 0.00483704 0.00154608 0.00074398 0.00263942 0.00088943 0.00169039 0.00132543 
0.01804870 0.00281816 0.00151320 0.00454581 0.00195802 0.00510050 0.00318864 0.00252827 0.02208004 0.00465717 0.00150053 0.00073578 0.00259096 0.00088398 0.00166979 0.00132083 
0.01787980 0.00269481 0.00153255 0.00446824 0.00195086 0.00496871 0.00318615 0.00252067 0.02226564 0.00447837 0.00145469 0.00072731 0.00254073 0.00087799 0.00164828 0.00131627 
0.01773183 0.00257103 0.00155054 0.00438709 0.00194285 0.00483548 0.00318092 0.00251629 0.02241431 0.00430111 0.00140880 0.00071860 0.00248892 0.00087148 0.00162590 0.00131176 
0.01760465 0.00244746 0.00156707 0.00430260 0.00193406 0.00470131 0.00317324 0.00251533 0.02252651 0.00412580 0.00136312 0.00070966 0.00243570 0.00086444 0.00160270 0.00130733 
0.01749803 0.00232474 0.00158208 0.00421505 0.00192456 0.00456668 0.00316339 0.00251793 0.02260291 0.00395287 0.00131789 0.00070052 0.00238127 0.00085690 0.00157870 0.00130302 
0.01741167 0.00220353 0.00159552 0.00412472 0.00191439 0.00443206 0.00315173 0.00252427 0.02264438 0.00378275 0.00127338 0.00069118 0.00232581 0.00084886 0.00155397 0.00129883 
0.01734518 0.00208452 0.00160734 0.00403194 0.00190364 0.00429795 0.00313858 0.00253445 0.02265203 0.00361582 0.00122983 0.00068167 0.00226955 0.00084036 0.00152854 0.00129480 
0.01729814 0.00196836 0.00161751 0.00393702 0.00189237 0.00416480 0.00312435 0.00254861 0.02262715 0.00345247 0.00118750 0.00067203 0.00221270 0.00083140 0.00150247 0.00129095 
0.01727004 0.00185574 0.00162603 0.00384032 0.00188065 0.00403308 0.00310941 0.00256684 0.02257122 0.00329309 0.00114666 0.00066226 0.00215547 0.00082200 0.00147580 0.00128729 
0.01726033 0.00174730 0.00163290 0.00374220 0.00186854 0.00390324 0.00309419 0.00258921 0.02248591 0.00313801 0.00110754 0.00065241 0.00209811 0.00081220 0.00144858 0.00128385 
0.01726845 0.00164372 0.00163814 0.00364303 0.00185610 0.00377572 0.00307911 0.00261577 0.02237304 0.00298759 0.00107039 0.00064250 0.00204084 0.00080202 0.00142087 0.00128064 
0.01729375 0.00154561 0.00164178 0.00354317 0.00184339 0.00365095 0.00306461 0.00264655 0.02223460 0.00284214 0.00103545 0.00063255 0.00198391 0.00079147 0.00139272 0.00127767 
0.01733561 0.00145361 0.00164386 0.00344300 0.00183049 0.00352931 0.00305115 0.00268158 0.02207272 0.00270196 0.00100296 0.00062262 0.00192755 0.00078060 0.00136418 0.00127497 
0.01739333 0.00136831 0.00164445 0.00334290 0.00181743 0.00341121 0.00303919 0.00272083 0.02188964 0.00256733 0.00097314 0.00061272 0.00187201 0.00076943 0.00133531 0.00127253 
0.01746624 0.00129028 0.00164362 0.00324324 0.00180428 0.00329700 0.00302917 0.00276427 0.02168771 0.00243852 0.00094621 0.00060289 0.00181754 0.00075798 0.00130616 0.00127036 
0.01755363 0.00122005 0.00164145 0.00314440 0.00179108 0.00318703 0.00302157 0.00281185 0.02146940 0.00231575 0.00092237 0.00059317 0.00176437 0.00074630 0.00127680 0.00126848 
0.01765481 0.00115814 0.00163805 0.00304672 0.00177789 0.00308161 0.00301683 0.00286349 0.02123723 0.00219923 0.00090182 0.00058360 0.00171275 0.00073441 0.00124729 0.00126689 
0.01776907 0.00110501 0.00163352 0.00295058 0.00176474 0.00298105 0.00301540 0.00291908 0.02099379 0.00208917 0.00088473 0.00057421 0.00166293 0.00072234 0.00121768 0.00126559 
0.01789572 0.00106109 0.00162798 0.00285630 0.00175167 0.00288560 0.00301771 0.00297851 0.02074170 0.00198571 0.00087128 0.00056505 0.00161514 0.00071014 0.00118804 0.00126459 
0.01803406 0.00102675 0.00162158 0.00276421 0.00173871 0.00279551 0.00302419 0.00304163 0.02048362 0.00188899 0.00086161 0.00055615 0.00156962 0.00069782 0.00115844 0.00126387 
0.01818343 0.00100234 0.00161444 0.00267461 0.00172590 0.00271098 0.00303525 0.00310827 0.02022221 0.00179913 0.00085586 0.00054755 0.00152658 0.00068543 0.00112893 0.00126345 
0.01834317 0.00098815 0.00160672 0.00258780 0.00171324 0.00263220 0.00305125 0.00317825 0.01996012 0.00171622 0.00085415 0.00053930 0.00148626 0.00067300 0.00109959 0.00126331 
0.01851264 0.00098439 0.00159859 0.00250405 0.00170078 0.00255932 0.00307257 0.00325137 0.01969997 0.00164029 0.00085657 0.00053144 0.00144886 0.00066056 0.00107047 0.00126345 
0.01869121 0.00099127 0.00159019 0.00242360 0.00168850 0.00249246 0.00309952 0.00332740 0.01944432 0.00157140 0.00086321 0.00052400 0.00141459 0.00064815 0.00104166 0.00126386 
0.01887831 0.00100890 0.00158170 0.00234668 0.00167643 0.00243172 0.00313241 0.00340610 0.01919569 0.00150953 0.00087414 0.00051702 0.00138363 0.00063580 0.00101323 0.00126453 
0.01907335 0.00103735 0.00157330 0.00227350 0.00166456 0.00237716 0.00317150 0.00348722 0.01895651 0.00145466 0.00088938 0.00051054 0.00135618 0.00062353 0.00098524 0.00126545 
0.01927580 0.00107665 0.00156517 0.00220422 0.00165290 0.00232879 0.00321700 0.00357047 0.01872910 0.00140674 0.00090896 0.00050461 0.00133239 0.00061138 0.00095776 0.00126660 
0.01948514 0.00112675 0.00155748 0.00213900 0.00164143 0.00228664 0.00326912 0.00365557 0.01851570 0.00136569 0.00093289 0.00049926 0.00131243 0.00059938 0.00093088 0.00126799 
0.01970088 0.00118754 0.00155042 0.00207796 0.00163014 0.00225065 0.00332800 0.00374223 0.01831839 0.00133141 0.00096113 0.00049452 0.00129644 0.00058756 0.00090467 0.00126958 
0.01992255 0.00125887 0.00154417 0.00202121 0.00161902 0.00222079 0.00339373 0.00383012 0.01813914 0.00130375 0.00099364 0.00049043 0.00128453 0.00057594 0.00087921 0.00127137 
0.02014972 0.00134052 0.00153892 0.00196882 0.00160805 0.00219694 0.00346637 0.00391893 0.01797975 0.00128256 0.00103035 0.00048702 0.00127682 0.00056456 0.00085457 0.00127334 
0.02038197 0.00143223 0.00153485 0.00192083 0.00159720 0.00217901 0.00354592 0.00400833 0.01784186 0.00126767 0.00107119 0.00048433 0.00127341 0.00055343 0.00083084 0.00127547 
0.02061890 0.00153366 0.00153212 0.00187727 0.00158644 0.00216684 0.00363236 0.00409798 0.01772695 0.00125885 0.00111603 0.00048238 0.00127437 0.00054258 0.00080809 0.00127774 
0.02086014 0.00164444 0.00153093 0.00183812 0.00157574 0.00216026 0.00372557 0.00418753 0.01763630 0.00125587 0.00116474 0.00048121 0.00127975 0.00053203 0.00078641 0.00128014 
0.02110535 0.00176414 0.00153143 0.00180337 0.00156507 0.00215907 0.00382543 0.00427664 0.01757103 0.00125850 0.00121717 0.00048083 0.00128959 0.00052180 0.00076587 0.00128264 
0.02135418 0.00189228 0.00153379 0.00177296 0.00155438 0.00216307 0.00393175 0.00436496 0.01753202 0.00126644 0.00127316 0.00048127 0.00130392 0.00051190 0.00074656 0.00128523 
0.02160633 0.00202833 0.00153817 0.00174681 0.00154365 0.00217200 0.00404428 0.00445214 0.01751999 0.00127941 0.00133249 0.00048254 0.00132273 0.00050236 0.00072856 0.00128788 
0.02186147 0.00217173 0.00154471 0.00172483 0.00153283 0.00218560 0.00416272 0.00453784 0.01753544 0.00129710 0.00139497 0.00048467 0.00134601 0.00049319 0.00071195 0.00129058 
0.02211933 0.00232187 0.00155355 0.00170689 0.00152187 0.00220359 0.00428675 0.00462171 0.01757866 0.00131917 0.00146035 0.00048767 0.00137370 0.00048440 0.00069680 0.00129331 
0.02237962 0.00247810 0.00156483 0.00169287 0.00151074 0.00222567 0.00441597 0.00470341 0.01764974 0.00134528 0.00152840 0.00049154 0.00140576 0.00047600 0.00068319 0.00129605 
0.02264205 0.00263975 0.00157867 0.00168261 0.00149939 0.00225152 0.00454994 0.00478260 0.01774857 0.00137508 0.00159883 0.00049630 0.00144211 0.00046800 0.00067121 0.00129877 
0.02290637 0.00280611 0.00159516 0.00167594 0.00148779 0.00228082 0.00468820 0.00485897 0.01787482 0.00140819 0.00167138 0.00050195 0.00148264 0.00046040 0.00066092 0.00130146 
0.02317231 0.00297645 0.00161442 0.00167267 0.00147588 0.00231322 0.00483022 0.00493220 0.01802797 0.00144424 0.00174576 0.00050849 0.00152724 0.00045322 0.00065239 0.00130411 
0.02343960 0.00315001 0.00163652 0.00167260 0.00146363 0.00234837 0.00497543 0.00500198 0.01820731 0.00148284 0.00182164 0.00051591 0.00157576 0.00044645 0.00064571 0.00130669 
0.02370799 0.00332604 0.00166153 0.00167554 0.00145100 0.00238591 0.00512325 0.00506803 0.01841193 0.00152359 0.00189872 0.00052421 0.00162806 0.00044009 0.00064092 0.00130918 
0.02397722 0.00350375 0.00168952 0.00168126 0.00143795 0.00242548 0.00527304 0.00513006 0.01864074 0.00156610 0.00197667 0.00053337 0.00168396 0.00043415 0.00063810 0.00131158 
0.02424702 0.00368236 0.00172052 0.00168953 0.00142446 0.00246671 0.00542415 0.00518782 0.01889249 0.00160997 0.00205516 0.00054339 0.00174327 0.00042862 0.00063730 0.00131386 
0.02451715 0.00386107 0.00175458 0.00170014 0.00141048 0.00250922 0.00557588 0.00524107 0.01916576 0.00165480 0.00213385 0.00055424 0.00180577 0.00042350 0.00063857 0.00131601 
0.02478733 0.00403911 0.00179169 0.00171284 0.00139600 0.00255264 0.00572752 0.00528957 0.01945896 0.00170019 0.00221239 0.00056590 0.00187126 0.00041878 0.00064196 0.00131801 
0.02505733 0.00421571 0.00183188 0.00172740 0.00138098 0.00259661 0.00587836 0.00533312 0.01977039 0.00174574 0.00229044 0.00057834 0.00193948 0.00041446 0.00064752 0.00131986 
0.02532687 0.00439008 0.00187511 0.00174359 0.00136542 0.00264075 0.00602764 0.00537154 0.02009821 0.00179107 0.00236766 0.00059154 0.00201018 0.00041052 0.00065527 0.00132154 
0.02559572 0.00456150 0.00192137 0.00176118 0.00134929 0.00268471 0.00617462 0.00540465 0.02044045 0.00183579 0.00244371 0.00060546 0.00208311 0.00040696 0.00066526 0.00132303 
0.02586361 0.00472923 0.00197061 0.00177994 0.00133258 0.00272814 0.00631854 0.00543233 0.02079506 0.00187953 0.00251824 0.00062006 0.00215798 0.00040376 0.00067748 0.00132434 
0.02613030 0.00489258 0.00202278 0.00179964 0.00131530 0.00277070 0.00645865 0.00545445 0.02115991 0.00192193 0.00259093 0.00063530 0.00223452 0.00040091 0.00069197 0.00132545 
0.02639557 0.00505087 0.00207780 0.00182008 0.00129744 0.00281204 0.00659419 0.00547090 0.02153277 0.00196264 0.00266145 0.00065115 0.00231242 0.00039840 0.00070873 0.00132636 
0.02665917 0.00520349 0.00213559 0.00184103 0.00127901 0.00285186 0.00672442 0.00548163 0.02191139 0.00200133 0.00272948 0.00066754 0.00239139 0.00039621 0.00072775 0.00132705 
0.02692091 0.00534983 0.00219605 0.00186231 0.00126002 0.00288986 0.00684862 0.00548659 0.02229344 0.00203768 0.00279473 0.00068443 0.00247111 0.00039433 0.00074902 0.00132753 
0.02718058 0.00548934 0.00225907 0.00188374 0.00124048 0.00292574 0.00696608 0.00548574 0.02267661 0.00207138 0.00285690 0.00070177 0.00255128 0.00039274 0.00077252 0.00132779 
0.02743800 0.00562152 0.00232453 0.00190512 0.00122041 0.00295923 0.00707610 0.00547910 0.02305855 0.00210216 0.00291573 0.00071949 0.00263158 0.00039141 0.00079823 0.00132783 
0.02769301 0.00574592 0.00239228 0.00192632 0.00119986 0.00299009 0.00717804 0.00546668 0.02343694 0.00212976 0.00297095 0.00073755 0.00271170 0.00039034 0.00082609 0.00132765 
0.02794548 0.00586213 0.00246219 0.00194717 0.00117884 0.00301809 0.00727128 0.00544854 0.02380945 0.00215394 0.00302233 0.00075588 0.00279133 0.00038951 0.00085606 0.00132724 
0.02819531 0.00596981 0.00253410 0.00196756 0.00115740 0.00304301 0.00735521 0.00542476 0.02417383 0.00217448 0.00306965 0.00077442 0.00287014 0.00038889 0.00088808 0.00132662 
0.02844241 0.00606865 0.00260783 0.00198736 0.00113557 0.00306467 0.00742931 0.00539543 0.02452784 0.00219119 0.00311271 0.00079310 0.00294783 0.00038846 0.00092207 0.00132577 
0.02868674 0.00615845 0.00268322 0.00200648 0.00111342 0.00308291 0.00749306 0.00536067 0.02486934 0.00220390 0.00315134 0.00081186 0.00302410 0.00038821 0.00095797 0.00132471 
0.02892831 0.00623901 0.00276007 0.00202484 0.00109098 0.00309757 0.00754602 0.00532063 0.02519626 0.00221248 0.00318540 0.00083062 0.00309865 0.00038811 0.00099567 0.00132343 
0.02916714 0.00631023 0.00283819 0.00204238 0.00106833 0.00310854 0.00758779 0.00527548 0.02550661 0.00221679 0.00321475 0.00084933 0.00317119 0.00038814 0.00103507 0.00132195 
0.02940331 0.00637207 0.00291739 0.00205904 0.00104551 0.00311574 0.00761802 0.00522541 0.02579852 0.00221676 0.00323931 0.00086790 0.00324144 0.00038829 0.00107607 0.00132027 
0.02963696 0.00642454 0.00299747 0.00207481 0.00102260 0.00311908 0.00763642 0.00517061 0.02607023 0.00221232 0.00325899 0.00088628 0.00330913 0.00038853 0.00111855 0.00131840 
0.02986824 0.00646772 0.00307820 0.00208967 0.00099966 0.00311852 0.00764278 0.00511132 0.02632009 0.00220342 0.00327376 0.00090439 0.00337400 0.00038885 0.00116237 0.00131635 
0.03009739 0.00650175 0.00315938 0.00210364 0.00097676 0.00311404 0.00763691 0.00504779 0.02654662 0.00219006 0.00328360 0.00092217 0.00343581 0.00038922 0.00120739 0.00131411 
0.03032467 0.00652683 0.00324081 0.00211672 0.00095398 0.00310565 0.00761874 0.00498027 0.02674845 0.00217226 0.00328852 0.00093954 0.00349434 0.00038963 0.00125348 0.00131171 
0.03055040 0.00654322 0.00332225 0.00212898 0.00093140 0.00309336 0.00758822 0.00490904 0.02692438 0.00215004 0.00328855 0.00095644 0.00354936 0.00039005 0.00130047 0.00130916 
0.03077496 0.00655125 0.00340349 0.00214046 0.00090908 0.00307723 0.00754538 0.00483439 0.02707335 0.00212349 0.00328377 0.00097281 0.00360069 0.00039047 0.00134820 0.00130646 
0.03099877 0.00655128 0.00348433 0.00215124 0.00088710 0.00305732 0.00749032 0.00475663 0.02719448 0.00209269 0.00327427 0.00098858 0.00364814 0.00039087 0.00139651 0.00130363 
0.03122232 0.00654375 0.00356454 0.00216141 0.00086555 0.00303374 0.00742321 0.00467607 0.02728705 0.00205775 0.00326017 0.00100368 0.00369156 0.00039124 0.00144521 0.00130067 
0.03144612 0.00652915 0.00364392 0.00217106 0.00084450 0.00300659 0.00734428 0.00459303 0.02735050 0.00201881 0.00324161 0.00101807 0.00373080 0.00039156 0.00149413 0.00129760 
0.03167076 0.00650799 0.00372225 0.00218031 0.00082403 0.00297601 0.00725383 0.00450785 0.02738445 0.00197604 0.00321876 0.00103167 0.00376575 0.00039182 0.00154309 0.00129444 
0.03189686 0.00648085 0.00379935 0.00218929 0.00080422 0.00294214 0.00715222 0.00442086 0.02738869 0.00192962 0.00319183 0.00104445 0.00379630 0.00039200 0.00159188 0.00129118 
0.03212507 0.00644836 0.00387500 0.00219814 0.00078513 0.00290517 0.00703988 0.00433241 0.02736318 0.00187974 0.00316102 0.00105635 0.00382237 0.00039209 0.00164033 0.00128786 
0.03235611 0.00641116 0.00394902 0.00220699 0.00076685 0.00286527 0.00691729 0.00424284 0.02730804 0.00182663 0.00312658 0.00106733 0.00384391 0.00039209 0.00168824 0.00128447 
0.03259070 0.00636993 0.00402124 0.00221601 0.00074943 0.00282265 0.00678500 0.00415249 0.02722358 0.00177052 0.00308877 0.00107733 0.00386087 0.00039197 0.00173541 0.00128104 
0.03282963 0.00632539 0.00409147 0.00222536 0.00073295 0.00277752 0.00664361 0.00406172 0.02711025 0.00171167 0.00304787 0.00108633 0.00387324 0.00039174 0.00178166 0.00127757 
0.03307368 0.00627828 0.00415955 0.00223520 0.00071747 0.00273010 0.00649378 0.00397086 0.02696867 0.00165035 0.00300417 0.00109429 0.00388102 0.00039138 0.00182678 0.00127408 
0.03332367 0.00622936 0.00422534 0.00224570 0.00070305 0.00268063 0.00633622 0.00388027 0.02679963 0.00158684 0.00295798 0.00110118 0.00388423 0.00039090 0.00187059 0.00127058 
0.03358041 0.00617940 0.00428868 0.00225703 0.00068974 0.00262936 0.00617168 0.00379026 0.02660404 0.00152142 0.00290963 0.00110698 0.00388291 0.00039028 0.00191290 0.00126708 
0.03384476 0.00612919 0.00434945 0.00226937 0.00067760 0.00257653 0.00600095 0.00370118 0.02638298 0.00145440 0.00285945 0.00111167 0.00387713 0.00038953 0.00195353 0.00126359 
0.03411753 0.00607950 0.00440753 0.00228290 0.00066666 0.00252242 0.00582486 0.00361335 0.02613764 0.00138608 0.00280778 0.00111523 0.00386697 0.00038864 0.00199229 0.00126013 
0.03439956 0.00603114 0.00446281 0.00229778 0.00065696 0.00246727 0.00564429 0.00352707 0.02586936 0.00131679 0.00275498 0.00111766 0.00385252 0.00038761 0.00202903 0.00125670 
0.03469165 0.00598488 0.00451520 0.00231418 0.00064855 0.00241135 0.00546013 0.00344265 0.02557959 0.00124683 0.00270139 0.00111895 0.00383390 0.00038646 0.00206356 0.00125332 
0.03499459 0.00594151 0.00456462 0.00233226 0.00064144 0.00235493 0.00527330 0.00336037 0.02526989 0.00117652 0.00264738 0.00111910 0.00381125 0.00038517 0.00209574 0.00125000 
0.03530914 0.00590177 0.00461102 0.00235219 0.00063566 0.00229827 0.00508475 0.00328052 0.02494192 0.00110619 0.00259330 0.00111813 0.00378471 0.00038376 0.00212542 0.00124674 
0.03563600 0.00586643 0.00465433 0.00237410 0.00063122 0.00224162 0.00489543 0.00320336 0.02459743 0.00103615 0.00253951 0.00111604 0.00375444 0.00038223 0.00215246 0.00124356 
0.03597585 0.00583619 0.00469453 0.00239815 0.00062813 0.00218526 0.00470630 0.00312913 0.02423825 0.00096672 0.00248635 0.00111285 0.00372062 0.00038059 0.00217674 0.00124046 
0.03632931 0.00581177 0.00473159 0.00242447 0.00062640 0.00212943 0.00451834 0.00305807 0.02386628 0.00089821 0.00243418 0.00110858 0.00368343 0.00037885 0.00219814 0.00123745 
0.03669692 0.00579381 0.00476551 0.00245316 0.00062601 0.00207437 0.00433251 0.00299039 0.02348349 0.00083091 0.00238333 0.00110327 0.00364307 0.00037703 0.00221655 0.00123455 
0.03707916 0.00578295 0.00479631 0.00248434 0.00062697 0.00202032 0.00414978 0.00292628 0.02309190 0.00076514 0.00233412 0.00109695 0.00359975 0.00037512 0.00223190 0.00123174 
0.03747645 0.00577980 0.00482401 0.00251810 0.00062925 0.00196751 0.00397110 0.00286594 0.02269354 0.00070116 0.00228686 0.00108964 0.00355368 0.00037316 0.00224409 0.00122905 
0.03788910 0.00578490 0.00484864 0.00255451 0.00063283 0.00191615 0.00379741 0.00280952 0.02229050 0.00063925 0.00224186 0.00108140 0.00350507 0.00037115 0.00225308 0.00122647 
0.03831734 0.00579877 0.00487027 0.00259365 0.00063769 0.00186645 0.00362962 0.00275717 0.02188488 0.00057969 0.00219939 0.00107228 0.00345417 0.00036910 0.00225880 0.00122402 
0.03876132 0.00582189 0.00488897 0.00263555 0.00064378 0.00181860 0.00346862 0.00270901 0.02147877 0.00052270 0.00215972 0.00106231 0.00340118 0.00036704 0.00226124 0.00122169 
0.03922105 0.00585466 0.00490482 0.00268025 0.00065108 0.00177278 0.00331526 0.00266514 0.02107427 0.00046854 0.00212310 0.00105156 0.00334636 0.00036499 0.00226037 0.00121948 
0.03969648 0.00589748 0.00491792 0.00272776 0.00065952 0.00172915 0.00317037 0.00262566 0.02067346 0.00041740 0.00208973 0.00104008 0.00328992 0.00036295 0.00225618 0.00121741 
0.04018743 0.00595066 0.00492839 0.00277807 0.00066907 0.00168786 0.00303473 0.00259063 0.02027840 0.00036950 0.00205984 0.00102793 0.00323211 0.00036096 0.00224870 0.00121548 
0.04069360 0.00601449 0.00493635 0.00283115 0.00067967 0.00164905 0.00290907 0.00256011 0.01989111 0.00032502 0.00203359 0.00101518 0.00317315 0.00035902 0.00223794 0.00121367 
0.04121460 0.00608919 0.00494194 0.00288696 0.00069126 0.00161283 0.00279409 0.00253412 0.01951356 0.00028411 0.00201115 0.00100188 0.00311328 0.00035717 0.00222395 0.00121201 
0.04174990 0.00617495 0.00494531 0.00294545 0.00070377 0.00157930 0.00269043 0.00251267 0.01914768 0.00024692 0.00199263 0.00098810 0.00305271 0.00035542 0.00220678 0.00121047 
0.04229887 0.00627190 0.00494663 0.00300653 0.00071714 0.00154854 0.00259866 0.00249577 0.01879534 0.00021358 0.00197814 0.00097392 0.00299167 0.00035378 0.00218652 0.00120908 
0.04286077 0.00638011 0.00494607 0.00307009 0.00073131 0.00152063 0.00251932 0.00248338 0.01845831 0.00018418 0.00196776 0.00095940 0.00293037 0.00035229 0.00216323 0.00120782 
0.04343473 0.00649964 0.00494381 0.00313604 0.00074619 0.00149562 0.00245287 0.00247548 0.01813830 0.00015882 0.00196155 0.00094460 0.00286903 0.00035097 0.00213702 0.00120669 
0.04401978 0.00663047 0.00494004 0.00320422 0.00076172 0.00147353 0.00239970 0.00247200 0.01783695 0.00013755 0.00195953 0.00092960 0.00280783 0.00034982 0.00210801 0.00120570 
0.04461484 0.00677255 0.00493497 0.00327448 0.00077781 0.00145440 0.00236017 0.00247288 0.01755576 0.00012041 0.00196169 0.00091445 0.00274697 0.00034888 0.00207631 0.00120484 
0.04521873 0.00692580 0.00492880 0.00334667 0.00079439 0.00143821 0.00233453 0.00247802 0.01729617 0.00010743 0.00196802 0.00089924 0.00268663 0.00034815 0.00204206 0.00120411 
0.04583017 0.00709008 0.00492176 0.00342059 0.00081139 0.00142497 0.00232299 0.00248734 0.01705949 0.00009861 0.00197845 0.00088402 0.00262698 0.00034767 0.00200540 0.00120350 
0.04644779 0.00726525 0.00491405 0.00349604 0.00082872 0.00141463 0.00232569 0.00250071 0.01684693 0.00009393 0.00199293 0.00086885 0.00256818 0.00034744 0.00196650 0.00120302 
0.04707012 0.00745111 0.00490591 0.00357281 0.00084630 0.00140716 0.00234269 0.00251801 0.01665956 0.00009335 0.00201134 0.00085379 0.00251039 0.00034748 0.00192552 0.00120266 
0.04769564 0.00764744 0.00489756 0.00365068 0.00086405 0.00140250 0.00237398 0.00253910 0.01649834 0.00009681 0.00203356 0.00083891 0.00245373 0.00034781 0.00188263 0.00120241 
0.04832274 0.00785399 0.00488924 0.00372940 0.00088191 0.00140058 0.00241949 0.00256385 0.01636411 0.00010423 0.00205946 0.00082425 0.00239835 0.00034843 0.00183801 0.00120228 
0.04894974 0.00807051 0.00488118 0.00380873 0.00089979 0.00140132 0.00247908 0.00259208 0.01625756 0.00011553 0.00208886 0.00080986 0.00234435 0.00034937 0.00179185 0.00120226 
0.04957492 0.00829672 0.00487361 0.00388840 0.00091761 0.00140463 0.00255254 0.00262363 0.01617925 0.00013059 0.00212159 0.00079579 0.00229184 0.00035063 0.00174433 0.00120235 
0.05019653 0.00853232 0.00486677 0.00396816 0.00093531 0.00141041 0.00263958 0.00265833 0.01612961 0.00014929 0.00215744 0.00078208 0.00224091 0.00035221 0.00169566 0.00120255 
0.05081277 0.00877702 0.00486088 0.00404773 0.00095282 0.00141854 0.00273987 0.00269600 0.01610892 0.00017148 0.00219620 0.00076877 0.00219164 0.00035413 0.00164602 0.00120284 
0.05142183 0.00903050 0.00485619 0.00412683 0.00097007 0.00142891 0.00285301 0.00273644 0.01611733 0.00019702 0.00223763 0.00075588 0.00214411 0.00035639 0.00159563 0.00120323 
0.05202187 0.00929247 0.00485290 0.00420518 0.00098700 0.00144138 0.00297852 0.00277946 0.01615484 0.00022573 0.00228150 0.00074345 0.00209837 0.00035898 0.00154467 0.00120372 
0.05261108 0.00956261 0.00485125 0.00428251 0.00100354 0.00145582 0.00311589 0.00282487 0.01622131 0.00025744 0.00232754 0.00073149 0.00205447 0.00036192 0.00149336 0.00120429 
0.05318763 0.00984062 0.00485144 0.00435853 0.00101964 0.00147210 0.00326453 0.00287246 0.01631647 0.00029196 0.00237550 0.00072002 0.00201244 0.00036520 0.00144188 0.00120496 
0.05374973 0.01012621 0.00485369 0.00443296 0.00103525 0.00149007 0.00342383 0.00292203 0.01643989 0.00032909 0.00242510 0.00070904 0.00197233 0.00036881 0.00139043 0.00120570 
0.05429563 0.01041911 0.00485820 0.00450552 0.00105033 0.00150958 0.00359309 0.00297337 0.01659102 0.00036864 0.00247607 0.00069857 0.00193415 0.00037274 0.00133920 0.00120654 
0.05482362 0.01071904 0.00486515 0.00457594 0.00106482 0.00153050 0.00377161 0.00302627 0.01676917 0.00041039 0.00252812 0.00068860 0.00189791 0.00037700 0.00128838 0.00120745 
0.05533202 0.01102576 0.00487472 0.00464396 0.00107868 0.00155266 0.00395861 0.00308052 0.01697351 0.00045412 0.00258099 0.00067911 0.00186361 0.00038155 0.00123815 0.00120843 
0.05581925 0.01133903 0.00488709 0.00470931 0.00109189 0.00157592 0.00415329 0.00313593 0.01720310 0.00049963 0.00263439 0.00067010 0.00183126 0.00038640 0.00118868 0.00120950 
0.05628378 0.01165865 0.00490241 0.00477176 0.00110442 0.00160013 0.00435484 0.00319227 0.01745685 0.00054669 0.00268804 0.00066155 0.00180085 0.00039152 0.00114014 0.00121063 
0.05672419 0.01198442 0.00492083 0.00483105 0.00111623 0.00162515 0.00456239 0.00324935 0.01773357 0.00059509 0.00274168 0.00065343 0.00177236 0.00039690 0.00109269 0.00121184 
0.05713911 0.01231617 0.00494248 0.00488698 0.00112731 0.00165084 0.00477506 0.00330697 0.01803197 0.00064460 0.00279503 0.00064572 0.00174577 0.00040252 0.00104647 0.00121312 
0.05752731 0.01265376 0.00496748 0.00493932 0.00113764 0.00167705 0.00499195 0.00336492 0.01835061 0.00069501 0.00284783 0.00063837 0.00172106 0.00040834 0.00100162 0.00121447 
0.05788765 0.01299706 0.00499592 0.00498787 0.00114721 0.00170365 0.00521215 0.00342301 0.01868800 0.00074611 0.00289985 0.00063136 0.00169821 0.00041436 0.00095828 0.00121589 
0.05821910 0.01334597 0.00502789 0.00503246 0.00115601 0.00173051 0.00543474 0.00348106 0.01904251 0.00079770 0.00295084 0.00062463 0.00167719 0.00042053 0.00091657 0.00121738 
0.05852075 0.01370040 0.00506346 0.00507292 0.00116404 0.00175751 0.00565879 0.00353887 0.01941247 0.00084957 0.00300057 0.00061814 0.00165796 0.00042684 0.00087658 0.00121893 
0.05879183 0.01406028 0.00510268 0.00510911 0.00117131 0.00178452 0.00588338 0.00359627 0.01979610 0.00090153 0.00304884 0.00061184 0.00164051 0.00043326 0.00083841 0.00122056 
0.05903167 0.01442557 0.00514559 0.00514089 0.00117781 0.00181145 0.00610759 0.00365310 0.02019156 0.00095340 0.00309544 0.00060567 0.00162480 0.00043975 0.00080215 0.00122225 
0.05923976 0.01479622 0.00519219 0.00516815 0.00118357 0.00183817 0.00633051 0.00370918 0.02059695 0.00100500 0.00314020 0.00059959 0.00161080 0.00044627 0.00076788 0.00122401 
0.05941570 0.01517221 0.00524248 0.00519081 0.00118859 0.00186460 0.00655126 0.00376435 0.02101033 0.00105616 0.00318295 0.00059353 0.00159848 0.00045281 0.00073564 0.00122585 
0.05955924 0.01555352 0.00529645 0.00520880 0.00119288 0.00189066 0.00676896 0.00381847 0.02142972 0.00110674 0.00322355 0.00058744 0.00158782 0.00045931 0.00070548 0.00122775 
0.05967026 0.01594013 0.00535404 0.00522207 0.00119648 0.00191625 0.00698275 0.00387141 0.02185308 0.00115659 0.00326186 0.00058126 0.00157878 0.00046576 0.00067745 0.00122972 
0.05974875 0.01633202 0.00541519 0.00523058 0.00119940 0.00194131 0.00719182 0.00392302 0.02227839 0.00120558 0.00329778 0.00057493 0.00157136 0.00047211 0.00065157 0.00123177 
0.05979487 0.01672917 0.00547982 0.00523434 0.00120168 0.00196577 0.00739537 0.00397319 0.02270360 0.00125360 0.00333121 0.00056839 0.00156553 0.00047833 0.00062783 0.00123389 
0.05980890 0.01713154 0.00554782 0.00523336 0.00120333 0.00198957 0.00759266 0.00402181 0.02312666 0.00130054 0.00336210 0.00056159 0.00156128 0.00048438 0.00060626 0.00123608 
0.05979123 0.01753907 0.00561907 0.00522766 0.00120440 0.00201268 0.00778296 0.00406877 0.02354554 0.00134632 0.00339037 0.00055448 0.00155859 0.00049023 0.00058682 0.00123835 
0.05974238 0.01795171 0.00569344 0.00521730 0.00120491 0.00203504 0.00796561 0.00411398 0.02395822 0.00139086 0.00341600 0.00054699 0.00155745 0.00049585 0.00056951 0.00124070 
0.05966301 0.01836936 0.00577074 0.00520236 0.00120490 0.00205664 0.00813997 0.00415736 0.02436271 0.00143410 0.00343898 0.00053909 0.00155787 0.00050120 0.00055429 0.00124312 
0.05955386 0.01879187 0.00585081 0.00518293 0.00120441 0.00207743 0.00830546 0.00419885 0.02475708 0.00147600 0.00345931 0.00053072 0.00155984 0.00050624 0.00054111 0.00124563 
0.05941581 0.01921909 0.00593345 0.00515913 0.00120347 0.00209742 0.00846156 0.00423839 0.02513943 0.00151652 0.00347701 0.00052186 0.00156337 0.00051096 0.00052992 0.00124821 
0.05924982 0.01965082 0.00601842 0.00513107 0.00120212 0.00211658 0.00860778 0.00427593 0.02550795 0.00155565 0.00349213 0.00051246 0.00156845 0.00051532 0.00052067 0.00125087 
0.05905696 0.02008678 0.00610550 0.00509891 0.00120040 0.00213492 0.00874371 0.00431143 0.02586087 0.00159339 0.00350472 0.00050249 0.00157512 0.00051928 0.00051328 0.00125362 
0.05883837 0.02052669 0.00619443 0.00506282 0.00119835 0.00215244 0.00886896 0.00434487 0.02619652 0.00162974 0.00351485 0.00049194 0.00158337 0.00052284 0.00050768 0.00125645 
0.05859530 0.02097016 0.00628494 0.00502296 0.00119601 0.00216914 0.00898324 0.00437624 0.02651330 0.00166473 0.00352262 0.00048079 0.00159322 0.00052596 0.00050378 0.00125935 
0.05832906 0.02141678 0.00637675 0.00497954 0.00119342 0.00218504 0.00908627 0.00440553 0.02680974 0.00169840 0.00352811 0.00046902 0.00160471 0.00052861 0.00050151 0.00126234 
0.05804101 0.02186604 0.00646955 0.00493276 0.00119060 0.00220017 0.00917787 0.00443276 0.02708444 0.00173079 0.00353145 0.00045665 0.00161784 0.00053080 0.00050076 0.00126541 
0.05773258 0.02231740 0.00656304 0.00488284 0.00118761 0.00221453 0.00925788 0.00445796 0.02733613 0.00176197 0.00353276 0.00044366 0.00163264 0.00053249 0.00050144 0.00126856 
0.05740527 0.02277020 0.00665688 0.00483000 0.00118448 0.00222816 0.00932622 0.00448114 0.02756365 0.00179199 0.00353218 0.00043009 0.00164914 0.00053367 0.00050344 0.00127179 
0.05706059 0.02322374 0.00675075 0.00477449 0.00118124 0.00224109 0.00938287 0.00450235 0.02776597 0.00182095 0.00352985 0.00041596 0.00166737 0.00053434 0.00050668 0.00127509 
0.05670010 0.02367723 0.00684429 0.00471655 0.00117792 0.00225335 0.00942784 0.00452165 0.02794219 0.00184893 0.00352591 0.00040129 0.00168735 0.00053448 0.00051103 0.00127847 
0.05632539 0.02412979 0.00693715 0.00465643 0.00117456 0.00226497 0.00946121 0.00453910 0.02809152 0.00187602 0.00352053 0.00038613 0.00170911 0.00053409 0.00051640 0.00128192 
0.05593806 0.02458049 0.00702897 0.00459441 0.00117118 0.00227598 0.00948311 0.00455477 0.02821333 0.00190232 0.00351387 0.00037053 0.00173267 0.00053318 0.00052267 0.00128544 
0.05553973 0.02502829 0.00711939 0.00453073 0.00116782 0.00228643 0.00949373 0.00456873 0.02830714 0.00192795 0.00350608 0.00035455 0.00175805 0.00053174 0.00052976 0.00128903 
0.05513202 0.02547209 0.00720804 0.00446567 0.00116450 0.00229635 0.00949327 0.00458109 0.02837257 0.00195301 0.00349734 0.00033826 0.00178529 0.00052978 0.00053754 0.00129268 
0.05471654 0.02591069 0.00729455 0.00439951 0.00116124 0.00230578 0.00948202 0.00459192 0.02840941 0.00197762 0.00348780 0.00032173 0.00181439 0.00052730 0.00054592 0.00129639 
0.05429490 0.02634284 0.00737855 0.00433250 0.00115807 0.00231474 0.00946029 0.00460135 0.02841759 0.00200189 0.00347763 0.00030505 0.00184537 0.00052433 0.00055480 0.00130014 
0.05386870 0.02676722 0.00745966 0.00426492 0.00115500 0.00232328 0.00942843 0.00460946 0.02839718 0.00202594 0.00346699 0.00028832 0.00187823 0.00052087 0.00056408 0.00130395 
0.05343950 0.02718240 0.00753753 0.00419703 0.00115205 0.00233143 0.00938683 0.00461639 0.02834838 0.00204989 0.00345602 0.00027163 0.00191300 0.00051694 0.00057368 0.00130780 
0.05300885 0.02758695 0.00761179 0.00412911 0.00114923 0.00233922 0.00933590 0.00462223 0.02827154 0.00207385 0.00344489 0.00025509 0.00194966 0.00051257 0.00058350 0.00131168 
0.05257826 0.02797933 0.00768208 0.00406141 0.00114656 0.00234667 0.00927610 0.00462712 0.02816715 0.00209793 0.00343372 0.00023883 0.00198820 0.00050777 0.00059346 0.00131559 
0.05214920 0.02835798 0.00774806 0.00399420 0.00114404 0.00235381 0.00920790 0.00463118 0.02803581 0.00212225 0.00342265 0.00022295 0.00202862 0.00050258 0.00060349 0.00131953 
0.05172310 0.02872128 0.00780940 0.00392771 0.00114168 0.00236067 0.00913180 0.00463453 0.02787826 0.00214690 0.00341180 0.00020760 0.00207089 0.00049702 0.00061351 0.00132347 
0.05130136 0.02906758 0.00786577 0.00386220 0.00113948 0.00236726 0.00904831 0.00463729 0.02769537 0.00217199 0.00340128 0.00019290 0.00211499 0.00049113 0.00062345 0.00132743 
0.05088529 0.02939523 0.00791685 0.00379791 0.00113744 0.00237360 0.00895796 0.00463960 0.02748812 0.00219760 0.00339120 0.00017898 0.00216087 0.00048493 0.00063327 0.00133138 
0.05047619 0.02970251 0.00796236 0.00373504 0.00113557 0.00237970 0.00886129 0.00464156 0.02725759 0.00222382 0.00338164 0.00016600 0.00220850 0.00047847 0.00064291 0.00133531 
0.05007528 0.02998775 0.00800201 0.00367384 0.00113385 0.00238558 0.00875885 0.00464329 0.02700499 0.00225072 0.00337268 0.00015408 0.00225782 0.00047179 0.00065232 0.00133923 
0.04968372 0.03024925 0.00803553 0.00361450 0.00113229 0.00239123 0.00865119 0.00464492 0.02673159 0.00227836 0.00336437 0.00014338 0.00230876 0.00046492 0.00066146 0.00134312 
0.04930260 0.03048533 0.00806269 0.00355721 0.00113087 0.00239666 0.00853885 0.00464656 0.02643879 0.00230681 0.00335677 0.00013404 0.00236127 0.00045790 0.00067030 0.00134696 
0.04893298 0.03069436 0.00808326 0.00350217 0.00112958 0.00240187 0.00842239 0.00464829 0.02612804 0.00233609 0.00334991 0.00012621 0.00241524 0.00045077 0.00067882 0.00135076 
0.04857580 0.03087472 0.00809704 0.00344955 0.00112841 0.00240686 0.00830234 0.00465023 0.02580087 0.00236625 0.00334380 0.00012002 0.00247061 0.00044358 0.00068700 0.00135449 
0.04823196 0.03102487 0.00810385 0.00339950 0.00112734 0.00241160 0.00817923 0.00465246 0.02545889 0.00239730 0.00333844 0.00011562 0.00252726 0.00043637 0.00069483 0.00135816 
0.04790230 0.03114331 0.00810354 0.00335218 0.00112636 0.00241610 0.00805358 0.00465505 0.02510374 0.00242925 0.00333384 0.00011314 0.00258509 0.00042919 0.00070230 0.00136174 
0.04758755 0.03122865 0.00809598 0.00330772 0.00112546 0.00242034 0.00792589 0.00465808 0.02473713 0.00246208 0.00332996 0.00011271 0.00264399 0.00042207 0.00070942 0.00136523 
0.04728839 0.03127955 0.00808105 0.00326624 0.00112460 0.00242429 0.00779663 0.00466161 0.02436079 0.00249579 0.00332675 0.00011447 0.00270383 0.00041507 0.00071619 0.00136861 
0.04700542 0.03129482 0.00805869 0.00322784 0.00112377 0.00242794 0.00766627 0.00466569 0.02397648 0.00253034 0.00332417 0.00011852 0.00276448 0.00040821 0.00072262 0.00137188 
0.04673915 0.03127334 0.00802884 0.00319263 0.00112296 0.00243125 0.00753524 0.00467035 0.02358600 0.00256568 0.00332215 0.00012499 0.00282579 0.00040155 0.00072874 0.00137503 
0.04649002 0.03121416 0.00799148 0.00316068 0.00112212 0.00243422 0.00740396 0.00467561 0.02319112 0.00260176 0.00332061 0.00013397 0.00288763 0.00039513 0.00073456 0.00137803 
0.04625838 0.03111645 0.00794661 0.00313205 0.00112125 0.00243680 0.00727281 0.00468149 0.02279366 0.00263850 0.00331945 0.00014555 0.00294984 0.00038897 0.00074012 0.00138090 
0.04604450 0.03097952 0.00789426 0.00310679 0.00112031 0.00243896 0.00714215 0.00468799 0.02239539 0.00267582 0.00331858 0.00015982 0.00301226 0.00038313 0.00074545 0.00138360 
0.04584857 0.03080287 0.00783449 0.00308494 0.00111928 0.00244068 0.00701230 0.00469509 0.02199808 0.00271362 0.00331788 0.00017685 0.00307472 0.00037764 0.00075059 0.00138614 
0.04567070 0.03058615 0.00776739 0.00306653 0.00111813 0.00244192 0.00688357 0.00470275 0.02160348 0.00275179 0.00331722 0.00019670 0.00313706 0.00037253 0.00075556 0.00138849 
0.04551089 0.03032920 0.00769308 0.00305156 0.00111685 0.00244264 0.00675623 0.00471095 0.02121330 0.00279022 0.00331648 0.00021940 0.00319911 0.00036784 0.00076042 0.00139067 
0.04536908 0.03003206 0.00761168 0.00304002 0.00111539 0.00244281 0.00663050 0.00471963 0.02082922 0.00282878 0.00331553 0.00024500 0.00326069 0.00036359 0.00076521 0.00139264 
0.04524512 0.02969496 0.00752339 0.00303190 0.00111375 0.00244241 0.00650661 0.00472871 0.02045285 0.00286732 0.00331421 0.00027350 0.00332162 0.00035980 0.00076997 0.00139441 
0.04513876 0.02931832 0.00742838 0.00302716 0.00111188 0.00244138 0.00638472 0.00473812 0.02008576 0.00290571 0.00331238 0.00030490 0.00338173 0.00035651 0.00077475 0.00139596 
0.04504966 0.02890279 0.00732689 0.00302576 0.00110978 0.00243970 0.00626500 0.00474776 0.01972946 0.00294377 0.00330990 0.00033919 0.00344083 0.00035374 0.00077960 0.00139729 
0.04497743 0.02844922 0.00721916 0.00302763 0.00110740 0.00243734 0.00614755 0.00475753 0.01938539 0.00298136 0.00330660 0.00037634 0.00349876 0.00035150 0.00078455 0.00139839 
0.04492155 0.02795870 0.00710547 0.00303271 0.00110474 0.00243426 0.00603248 0.00476732 0.01905492 0.00301831 0.00330235 0.00041630 0.00355532 0.00034982 0.00078966 0.00139926 
0.04488143 0.02743251 0.00698611 0.00304091 0.00110177 0.00243042 0.00591985 0.00477700 0.01873934 0.00305443 0.00329700 0.00045901 0.00361036 0.00034869 0.00079497 0.00139988 
0.04485641 0.02687216 0.00686140 0.00305212 0.00109846 0.00242581 0.00580971 0.00478644 0.01843984 0.00308956 0.00329039 0.00050438 0.00366369 0.00034814 0.00080052 0.00140026 
0.04484574 0.02627937 0.00673168 0.00306626 0.00109480 0.00242039 0.00570208 0.00479549 0.01815754 0.00312353 0.00328239 0.00055232 0.00371515 0.00034816 0.00080636 0.00140038 
0.04484858 0.02565609 0.00659731 0.00308319 0.00109077 0.00241414 0.00559697 0.00480401 0.01789348 0.00315614 0.00327286 0.00060272 0.00376459 0.00034877 0.00081251 0.00140024 
0.04486402 0.02500447 0.00645868 0.00310278 0.00108635 0.00240703 0.00549436 0.00481185 0.01764857 0.00318722 0.00326166 0.00065544 0.00381184 0.00034995 0.00081901 0.00139985 
0.04489109 0.02432687 0.00631619 0.00312490 0.00108153 0.00239904 0.00539422 0.00481884 0.01742367 0.00321659 0.00324869 0.00071035 0.00385676 0.00035172 0.00082590 0.00139919 
0.04492872 0.02362584 0.00617024 0.00314940 0.00107629 0.00239015 0.00529650 0.00482482 0.01721950 0.00324409 0.00323384 0.00076728 0.00389920 0.00035406 0.00083319 0.00139827 
0.04497580 0.02290412 0.00602128 0.00317612 0.00107063 0.00238036 0.00520116 0.00482964 0.01703670 0.00326954 0.00321699 0.00082607 0.00393904 0.00035696 0.00084092 0.00139708 
0.04503115 0.02216464 0.00586974 0.00320488 0.00106453 0.00236964 0.00510813 0.00483313 0.01687580 0.00329278 0.00319807 0.00088652 0.00397614 0.00036042 0.00084909 0.00139563 
0.04509353 0.02141049 0.00571608 0.00323553 0.00105799 0.00235798 0.00501735 0.00483513 0.01673724 0.00331364 0.00317699 0.00094845 0.00401039 0.00036441 0.00085772 0.00139391 
0.04516166 0.02064492 0.00556077 0.00326786 0.00105100 0.00234538 0.00492874 0.00483549 0.01662133 0.00333198 0.00315371 0.00101163 0.00404169 0.00036893 0.00086682 0.00139194 
0.04523421 0.01987131 0.00540429 0.00330170 0.00104356 0.00233184 0.00484224 0.00483404 0.01652832 0.00334767 0.00312817 0.00107586 0.00406994 0.00037395 0.00087638 0.00138970 
0.04530981 0.01909319 0.00524713 0.00333686 0.00103567 0.00231736 0.00475777 0.00483064 0.01645832 0.00336056 0.00310035 0.00114091 0.00409506 0.00037946 0.00088641 0.00138722 
0.04538708 0.01831418 0.00508976 0.00337312 0.00102733 0.00230193 0.00467528 0.00482516 0.01641137 0.00337055 0.00307023 0.00120655 0.00411697 0.00038542 0.00089690 0.00138448 
0.04546459 0.01753800 0.00493269 0.00341029 0.00101854 0.00228557 0.00459472 0.00481746 0.01638737 0.00337752 0.00303781 0.00127252 0.00413561 0.00039183 0.00090782 0.00138151 
0.04554092 0.01676844 0.00477642 0.00344817 0.00100932 0.00226827 0.00451603 0.00480743 0.01638617 0.00338138 0.00300313 0.00133860 0.00415093 0.00039864 0.00091916 0.00137830 
0.04561465 0.01600935 0.00462143 0.00348653 0.00099967 0.00225007 0.00443919 0.00479495 0.01640750 0.00338205 0.00296621 0.00140453 0.00416290 0.00040584 0.00093090 0.00137486 
0.04568437 0.01526462 0.00446824 0.00352517 0.00098959 0.00223097 0.00436417 0.00477992 0.01645100 0.00337948 0.00292712 0.00147007 0.00417147 0.00041339 0.00094299 0.00137121 
0.04574868 0.01453813 0.00431732 0.00356388 0.00097911 0.00221099 0.00429098 0.00476228 0.01651622 0.00337361 0.00288592 0.00153497 0.00417665 0.00042127 0.00095541 0.00136735 
0.04580621 0.01383379 0.00416918 0.00360244 0.00096824 0.00219015 0.00421963 0.00474195 0.01660263 0.00336441 0.00284272 0.00159899 0.00417842 0.00042945 0.00096812 0.00136330 
0.04585563 0.01315545 0.00402429 0.00364063 0.00095700 0.00216847 0.00415016 0.00471888 0.01670962 0.00335186 0.00279762 0.00166189 0.00417679 0.00043789 0.00098105 0.00135907 
0.04589567 0.01250691 0.00388313 0.00367826 0.00094540 0.00214599 0.00408262 0.00469305 0.01683649 0.00333597 0.00275076 0.00172344 0.00417178 0.00044658 0.00099417 0.00135466 
0.04592512 0.01189192 0.00374617 0.00371510 0.00093347 0.00212273 0.00401709 0.00466443 0.01698248 0.00331676 0.00270227 0.00178342 0.00416343 0.00045547 0.00100742 0.00135010 
0.04594284 0.01131412 0.00361387 0.00375095 0.00092123 0.00209873 0.00395367 0.00463303 0.01714675 0.00329426 0.00265231 0.00184161 0.00415177 0.00046455 0.00102074 0.00134540 
0.04594779 0.01077702 0.00348666 0.00378562 0.00090870 0.00207401 0.00389249 0.00459888 0.01732840 0.00326852 0.00260107 0.00189781 0.00413685 0.00047377 0.00103406 0.00134058 
0.04593902 0.01028400 0.00336499 0.00381890 0.00089592 0.00204862 0.00383369 0.00456201 0.01752646 0.00323963 0.00254873 0.00195184 0.00411873 0.00048312 0.00104732 0.00133565 
0.04591568 0.00983828 0.00324925 0.00385060 0.00088291 0.00202260 0.00377744 0.00452250 0.01773991 0.00320766 0.00249549 0.00200352 0.00409749 0.00049257 0.00106045 0.00133063 
0.04587705 0.00944289 0.00313986 0.00388054 0.00086969 0.00199598 0.00372393 0.00448041 0.01796769 0.00317273 0.00244158 0.00205270 0.00407320 0.00050209 0.00107339 0.00132554 
0.04582255 0.00910068 0.00303719 0.00390855 0.00085631 0.00196880 0.00367339 0.00443586 0.01820867 0.00313495 0.00238722 0.00209925 0.00404595 0.00051166 0.00108605 0.00132040 
0.04575172 0.00881424 0.00294160 0.00393445 0.00084279 0.00194112 0.00362604 0.00438895 0.01846169 0.00309446 0.00233265 0.00214305 0.00401584 0.00052126 0.00109837 0.00131522 
0.04566427 0.00858594 0.00285344 0.00395808 0.00082916 0.00191297 0.00358216 0.00433984 0.01872556 0.00305142 0.00227811 0.00218400 0.00398297 0.00053086 0.00111026 0.00131004 
0.04556005 0.00841790 0.00277300 0.00397930 0.00081547 0.00188440 0.00354200 0.00428867 0.01899906 0.00300599 0.00222387 0.00222204 0.00394745 0.00054045 0.00112167 0.00130485 
0.04543908 0.00831195 0.00270060 0.00399797 0.00080173 0.00185546 0.00350588 0.00423561 0.01928091 0.00295835 0.00217017 0.00225712 0.00390940 0.00055000 0.00113252 0.00129970 
0.04530157 0.00826963 0.00263650 0.00401396 0.00078799 0.00182620 0.00347410 0.00418086 0.01956986 0.00290869 0.00211729 0.00228922 0.00386894 0.00055951 0.00114273 0.00129460 
0.04514788 0.00829219 0.00258094 0.00402716 0.00077429 0.00179667 0.00344699 0.00412462 0.01986460 0.00285723 0.00206548 0.00231834 0.00382619 0.00056896 0.00115223 0.00128956 
0.04497858 0.00838055 0.00253413 0.00403747 0.00076065 0.00176691 0.00342488 0.00406711 0.02016384 0.00280416 0.00201502 0.00234452 0.00378130 0.00057834 0.00116097 0.00128462 
0.04479441 0.00853532 0.00249628 0.00404480 0.00074711 0.00173698 0.00340812 0.00400856 0.02046626 0.00274973 0.00196617 0.00236781 0.00373439 0.00058764 0.00116887 0.00127979 
0.04459629 0.00875678 0.00246753 0.00404906 0.00073372 0.00170693 0.00339706 0.00394920 0.02077055 0.00269415 0.00191920 0.00238830 0.00368560 0.00059686 0.00117588 0.00127510 
0.04438534 0.00904485 0.00244802 0.00405021 0.00072050 0.00167681 0.00339207 0.00388930 0.02107540 0.00263767 0.00187436 0.00240609 0.00363508 0.00060598 0.00118194 0.00127056 
0.04416288 0.00939913 0.00243786 0.00404820 0.00070748 0.00164666 0.00339349 0.00382910 0.02137951 0.00258053 0.00183191 0.00242133 0.00358297 0.00061500 0.00118699 0.00126620 
0.04393038 0.00981886 0.00243710 0.00404299 0.00069471 0.00161656 0.00340168 0.00376888 0.02168158 0.00252297 0.00179210 0.00243418 0.00352942 0.00062392 0.00119101 0.00126204 
0.04368952 0.01030294 0.00244580 0.00403458 0.00068221 0.00158654 0.00341699 0.00370891 0.02198035 0.00246525 0.00175515 0.00244484 0.00347458 0.00063275 0.00119394 0.00125809 
0.04344215 0.01084994 0.00246396 0.00402296 0.00067001 0.00155665 0.00343977 0.00364945 0.02227456 0.00240762 0.00172129 0.00245351 0.00341860 0.00064148 0.00119575 0.00125438 
0.04319026 0.01145806 0.00249155 0.00400814 0.00065816 0.00152695 0.00347034 0.00359077 0.02256299 0.00235031 0.00169075 0.00246044 0.00336162 0.00065012 0.00119641 0.00125092 
0.04293604 0.01212519 0.00252853 0.00399016 0.00064668 0.00149750 0.00350901 0.00353317 0.02284442 0.00229358 0.00166371 0.00246589 0.00330381 0.00065867 0.00119591 0.00124774 
0.04268181 0.01284889 0.00257479 0.00396907 0.00063559 0.00146833 0.00355608 0.00347689 0.02311769 0.00223768 0.00164035 0.00247015 0.00324531 0.00066714 0.00119424 0.00124485 
0.04243001 0.01362640 0.00263022 0.00394492 0.00062493 0.00143951 0.00361182 0.00342221 0.02338167 0.00218283 0.00162086 0.00247352 0.00318628 0.00067553 0.00119138 0.00124226 
0.04218322 0.01445465 0.00269467 0.00391780 0.00061471 0.00141108 0.00367648 0.00336938 0.02363526 0.00212927 0.00160536 0.00247632 0.00312686 0.00068385 0.00118734 0.00124000 
0.04194414 0.01533029 0.00276795 0.00388779 0.00060498 0.00138309 0.00375029 0.00331865 0.02387740 0.00207723 0.00159400 0.00247889 0.00306721 0.00069211 0.00118214 0.00123807 
0.04171553 0.01624969 0.00284984 0.00385500 0.00059575 0.00135559 0.00383342 0.00327027 0.02410709 0.00202692 0.00158688 0.00248157 0.00300748 0.00070031 0.00117579 0.00123649 
0.04150025 0.01720898 0.00294010 0.00381955 0.00058703 0.00132863 0.00392604 0.00322445 0.02432337 0.00197853 0.00158409 0.00248474 0.00294782 0.00070847 0.00116833 0.00123528 
0.04130121 0.01820402 0.00303843 0.00378158 0.00057886 0.00130225 0.00402827 0.00318141 0.02452532 0.00193228 0.00158569 0.00248876 0.00288839 0.00071658 0.00115978 0.00123443 
0.04112134 0.01923049 0.00314454 0.00374122 0.00057125 0.00127651 0.00414018 0.00314136 0.02471208 0.00188832 0.00159172 0.00249400 0.00282932 0.00072467 0.00115019 0.00123396 
0.04096362 0.02028384 0.00325806 0.00369865 0.00056422 0.00125144 0.00426180 0.00310446 0.02488285 0.00184684 0.00160221 0.00250086 0.00277077 0.00073273 0.00113962 0.00123388 
0.04083099 0.02135939 0.00337865 0.00365402 0.00055778 0.00122710 0.00439315 0.00307089 0.02503688 0.00180798 0.00161715 0.00250970 0.00271289 0.00074076 0.00112812 0.00123418 
0.04072637 0.02245228 0.00350589 0.00360753 0.00055194 0.00120353 0.00453415 0.00304079 0.02517347 0.00177188 0.00163650 0.00252091 0.00265583 0.00074878 0.00111578 0.00123489 
0.04065265 0.02355756 0.00363935 0.00355935 0.00054671 0.00118076 0.00468473 0.00301429 0.02529198 0.00173866 0.00166023 0.00253485 0.00259972 0.00075679 0.00110265 0.00123599 
0.04061262 0.02467016 0.00377859 0.00350968 0.00054211 0.00115885 0.00484472 0.00299148 0.02539186 0.00170842 0.00168824 0.00255190 0.00254472 0.00076479 0.00108884 0.00123748 
0.04060899 0.02578496 0.00392313 0.00345874 0.00053814 0.00113782 0.00501394 0.00297246 0.02547259 0.00168125 0.00172045 0.00257239 0.00249097 0.00077278 0.00107442 0.00123937 
0.04064434 0.02689682 0.00407246 0.00340673 0.00053481 0.00111773 0.00519214 0.00295727 0.02553372 0.00165722 0.00175671 0.00259667 0.00243861 0.00078076 0.00105951 0.00124166 
0.04072112 0.02800057 0.00422606 0.00335387 0.00053212 0.00109860 0.00537903 0.00294596 0.02557487 0.00163637 0.00179689 0.00262506 0.00238778 0.00078872 0.00104419 0.00124433 
0.04084162 0.02909107 0.00438338 0.00330038 0.00053007 0.00108047 0.00557425 0.00293853 0.02559572 0.00161875 0.00184082 0.00265786 0.00233863 0.00079666 0.00102859 0.00124738 
0.04100791 0.03016323 0.00454387 0.00324648 0.00052866 0.00106338 0.00577741 0.00293499 0.02559603 0.00160436 0.00188829 0.00269533 0.00229129 0.00080457 0.00101282 0.00125080 
0.04122191 0.03121205 0.00470694 0.00319241 0.00052789 0.00104735 0.00598807 0.00293529 0.02557561 0.00159320 0.00193911 0.00273772 0.00224591 0.00081245 0.00099700 0.00125458 
0.04148526 0.03223261 0.00487199 0.00313838 0.00052776 0.00103243 0.00620573 0.00293938 0.02553434 0.00158524 0.00199302 0.00278527 0.00220261 0.00082027 0.00098125 0.00125871 
0.04179939 0.03322017 0.00503843 0.00308462 0.00052825 0.00101863 0.00642985 0.00294718 0.02547218 0.00158046 0.00204978 0.00283814 0.00216154 0.00082803 0.00096570 0.00126317 
0.04216545 0.03417012 0.00520563 0.00303136 0.00052937 0.00100598 0.00665984 0.00295859 0.02538914 0.00157878 0.00210913 0.00289650 0.00212283 0.00083571 0.00095048 0.00126795 
0.04258432 0.03507804 0.00537297 0.00297881 0.00053111 0.00099452 0.00689508 0.00297348 0.02528532 0.00158015 0.00217076 0.00296046 0.00208660 0.00084329 0.00093572 0.00127303 
0.04305660 0.03593975 0.00553982 0.00292719 0.00053345 0.00098426 0.00713488 0.00299172 0.02516087 0.00158446 0.00223437 0.00303011 0.00205299 0.00085075 0.00092156 0.00127839 
0.04358256 0.03675128 0.00570553 0.00287671 0.00053638 0.00097522 0.00737855 0.00301313 0.02501602 0.00159162 0.00229966 0.00310549 0.00202212 0.00085807 0.00090812 0.00128400 
0.04416218 0.03750894 0.00586948 0.00282757 0.00053990 0.00096742 0.00762532 0.00303755 0.02485107 0.00160149 0.00236630 0.00318659 0.00199411 0.00086523 0.00089554 0.00128986 
0.04479509 0.03820933 0.00603103 0.00277996 0.00054398 0.00096088 0.00787441 0.00306476 0.02466639 0.00161396 0.00243394 0.00327339 0.00196909 0.00087219 0.00088394 0.00129592 
0.04548062 0.03884932 0.00618955 0.00273407 0.00054861 0.00095561 0.00812503 0.00309455 0.02446241 0.00162886 0.00250224 0.00336579 0.00194716 0.00087894 0.00087347 0.00130218 
0.04621774 0.03942614 0.00634440 0.00269006 0.00055377 0.00095163 0.00837632 0.00312670 0.02423966 0.00164604 0.00257084 0.00346367 0.00192844 0.00088544 0.00086424 0.00130859 
0.04700512 0.03993732 0.00649499 0.00264811 0.00055944 0.00094894 0.00862744 0.00316097 0.02399870 0.00166534 0.00263940 0.00356686 0.00191304 0.00089166 0.00085638 0.00131514 
0.04784107 0.04038077 0.00664070 0.00260836 0.00056561 0.00094756 0.00887749 0.00319709 0.02374020 0.00168656 0.00270755 0.00367516 0.00190105 0.00089759 0.00085000 0.00132180 
0.04872356 0.04075473 0.00678096 0.00257094 0.00057226 0.00094748 0.00912560 0.00323481 0.02346488 0.00170953 0.00277492 0.00378832 0.00189256 0.00090318 0.00084521 0.00132854 
0.04965027 0.04105784 0.00691517 0.00253598 0.00057936 0.00094871 0.00937086 0.00327386 0.02317353 0.00173404 0.00284117 0.00390603 0.00188767 0.00090841 0.00084213 0.00133532 
0.05061853 0.04128910 0.00704281 0.00250357 0.00058689 0.00095124 0.00961236 0.00331395 0.02286704 0.00175989 0.00290593 0.00402798 0.00188646 0.00091325 0.00084084 0.00134212 
0.05162539 0.04144788 0.00716334 0.00247383 0.00059482 0.00095508 0.00984919 0.00335482 0.02254633 0.00178689 0.00296886 0.00415380 0.00188899 0.00091768 0.00084144 0.00134891 
0.05266760 0.04153397 0.00727625 0.00244680 0.00060314 0.00096023 0.01008045 0.00339618 0.02221242 0.00181480 0.00302961 0.00428307 0.00189533 0.00092166 0.00084402 0.00135565 
0.05374160 0.04154751 0.00738107 0.00242256 0.00061182 0.00096666 0.01030525 0.00343775 0.02186640 0.00184344 0.00308784 0.00441537 0.00190553 0.00092517 0.00084865 0.00136232 
0.05484363 0.04148904 0.00747737 0.00240114 0.00062083 0.00097438 0.01052271 0.00347924 0.02150942 0.00187257 0.00314323 0.00455022 0.00191964 0.00092820 0.00085539 0.00136888 
0.05596963 0.04135947 0.00756471 0.00238257 0.00063015 0.00098336 0.01073195 0.00352039 0.02114271 0.00190198 0.00319547 0.00468713 0.00193769 0.00093072 0.00086430 0.00137531 
0.05711537 0.04116008 0.00764274 0.00236684 0.00063975 0.00099361 0.01093215 0.00356092 0.02076756 0.00193148 0.00324427 0.00482557 0.00195970 0.00093271 0.00087541 0.00138157 
0.05827638 0.04089252 0.00771110 0.00235395 0.00064960 0.00100508 0.01112248 0.00360057 0.02038535 0.00196084 0.00328933 0.00496502 0.00198568 0.00093416 0.00088878 0.00138764 
0.05944806 0.04055878 0.00776950 0.00234387 0.00065967 0.00101778 0.01130217 0.00363908 0.01999750 0.00198986 0.00333040 0.00510491 0.00201563 0.00093507 0.00090441 0.00139349 
0.06062564 0.04016118 0.00781767 0.00233654 0.00066995 0.00103167 0.01147046 0.00367622 0.01960551 0.00201835 0.00336723 0.00524467 0.00204954 0.00093542 0.00092232 0.00139908 
0.06180424 0.03970237 0.00785540 0.00233191 0.00068039 0.00104673 0.01162667 0.00371175 0.01921095 0.00204611 0.00339960 0.00538372 0.00208737 0.00093523 0.00094250 0.00140440 
0.06297890 0.03918531 0.00788250 0.00232988 0.00069097 0.00106293 0.01177011 0.00374546 0.01881543 0.00207295 0.00342730 0.00552149 0.00212909 0.00093448 0.00096495 0.00140941 
0.06414461 0.03861324 0.00789885 0.00233037 0.00070166 0.00108025 0.01190020 0.00377714 0.01842064 0.00209870 0.00345015 0.00565738 0.00217463 0.00093319 0.00098963 0.00141409 
0.06529632 0.03798964 0.00790436 0.00233326 0.00071244 0.00109865 0.01201635 0.00380662 0.01802831 0.00212320 0.00346799 0.00579082 0.00222392 0.00093137 0.00101652 0.00141842 
0.06642901 0.03731827 0.00789900 0.00233842 0.00072327 0.00111810 0.01211807 0.00383372 0.01764024 0.00214628 0.00348070 0.00592125 0.00227688 0.00092906 0.00104555 0.00142238 
0.06753767 0.03660307 0.00788275 0.00234570 0.00073412 0.00113856 0.01220491 0.00385830 0.01725826 0.00216780 0.00348816 0.00604812 0.00233339 0.00092626 0.00107668 0.00142594 
0.06861738 0.03584820 0.00785570 0.00235496 0.00074497 0.00116001 0.01227648 0.00388023 0.01688424 0.00218762 0.00349029 0.00617090 0.00239335 0.00092302 0.00110982 0.00142909 
0.06966335 0.03505796 0.00781792 0.00236602 0.00075578 0.00118238 0.01233247 0.00389940 0.01652010 0.00220563 0.00348703 0.00628909 0.00245661 0.00091937 0.00114489 0.00143182 
0.07067087 0.03423681 0.00776958 0.00237870 0.00076653 0.00120566 0.01237261 0.00391572 0.01616780 0.00222171 0.00347835 0.00640220 0.00252302 0.00091536 0.00118180 0.00143411 
0.07163545 0.03338931 0.00771088 0.00239282 0.00077719 0.00122978 0.01239672 0.00392912 0.01582929 0.00223577 0.00346426 0.00650980 0.00259243 0.00091104 0.00122045 0.00143594 
0.07255277 0.03252011 0.00764204 0.00240817 0.00078772 0.00125472 0.01240467 0.00393957 0.01550657 0.00224773 0.00344477 0.00661150 0.00266463 0.00090647 0.00126071 0.00143731 
0.07341875 0.03163391 0.00756337 0.00242455 0.00079811 0.00128042 0.01239641 0.00394703 0.01520163 0.00225753 0.00341993 0.00670693 0.00273944 0.00090171 0.00130245 0.00143820 
0.07422955 0.03073544 0.00747519 0.00244175 0.00080831 0.00130683 0.01237197 0.00395149 0.01491649 0.00226510 0.00338982 0.00679580 0.00281664 0.00089683 0.00134556 0.00143863 
0.07498162 0.02982942 0.00737788 0.00245954 0.00081831 0.00133391 0.01233143 0.00395299 0.01465314 0.00227040 0.00335453 0.00687784 0.00289600 0.00089191 0.00138987 0.00143857 
0.07567172 0.02892055 0.00727185 0.00247772 0.00082808 0.00136161 0.01227496 0.00395155 0.01441354 0.00227342 0.00331420 0.00695287 0.00297728 0.00088703 0.00143524 0.00143803 
0.07629694 0.02801347 0.00715756 0.00249606 0.00083758 0.00138987 0.01220279 0.00394724 0.01419967 0.00227415 0.00326897 0.00702074 0.00306022 0.00088228 0.00148152 0.00143701 
0.07685471 0.02711273 0.00703550 0.00251432 0.00084680 0.00141864 0.01211522 0.00394012 0.01401344 0.00227257 0.00321901 0.00708137 0.00314456 0.00087775 0.00152854 0.00143551 
0.07734283 0.02622277 0.00690620 0.00253230 0.00085570 0.00144787 0.01201262 0.00393029 0.01385671 0.00226872 0.00316452 0.00713477 0.00323002 0.00087353 0.00157613 0.00143355 
0.07775949 0.02534790 0.00677021 0.00254977 0.00086426 0.00147750 0.01189544 0.00391787 0.01373132 0.00226262 0.00310572 0.00718099 0.00331630 0.00086973 0.00162413 0.00143112 
0.07810327 0.02449226 0.00662812 0.00256651 0.00087245 0.00150748 0.01176417 0.00390298 0.01363899 0.00225432 0.00304284 0.00722015 0.00340309 0.00086645 0.00167234 0.00142824 
0.07837314 0.02365981 0.00648055 0.00258232 0.00088026 0.00153775 0.01161939 0.00388577 0.01358141 0.00224386 0.00297613 0.00725246 0.00349010 0.00086381 0.00172060 0.00142492 
0.07856853 0.02285431 0.00632813 0.00259698 0.00088765 0.00156825 0.01146172 0.00386638 0.01356015 0.00223131 0.00290587 0.00727818 0.00357700 0.00086190 0.00176873 0.00142117 
0.07868924 0.02207927 0.00617152 0.00261030 0.00089461 0.00159892 0.01129184 0.00384498 0.01357667 0.00221675 0.00283235 0.00729766 0.00366347 0.00086086 0.00181655 0.00141702 
0.07873553 0.02133799 0.00601140 0.00262209 0.00090111 0.00162972 0.01111051 0.00382176 0.01363234 0.00220027 0.00275586 0.00731130 0.00374918 0.00086078 0.00186388 0.00141247 
0.07870805 0.02063348 0.00584845 0.00263217 0.00090713 0.00166057 0.01091850 0.00379689 0.01372838 0.00218197 0.00267671 0.00731959 0.00383379 0.00086179 0.00191054 0.00140756 
0.07860788 0.01996850 0.00568337 0.00264037 0.00091265 0.00169141 0.01071667 0.00377058 0.01386590 0.00216194 0.00259524 0.00732308 0.00391698 0.00086401 0.00195635 0.00140229 
0.07843652 0.01934548 0.00551686 0.00264655 0.00091766 0.00172220 0.01050589 0.00374301 0.01404582 0.00214030 0.00251178 0.00732239 0.00399841 0.00086754 0.00200116 0.00139670 
0.07819585 0.01876659 0.00534963 0.00265056 0.00092214 0.00175286 0.01028710 0.00371439 0.01426893 0.00211718 0.00242666 0.00731820 0.00407774 0.00087250 0.00204478 0.00139081 
0.07788814 0.01823367 0.00518238 0.00265226 0.00092606 0.00178334 0.01006124 0.00368492 0.01453584 0.00209269 0.00234022 0.00731126 0.00415466 0.00087900 0.00208707 0.00138464 
0.07751604 0.01774825 0.00501581 0.00265156 0.00092943 0.00181358 0.00982931 0.00365481 0.01484698 0.00206696 0.00225283 0.00730235 0.00422882 0.00088714 0.00212787 0.00137822 
0.07708254 0.01731153 0.00485062 0.00264834 0.00093221 0.00184352 0.00959234 0.00362426 0.01520258 0.00204014 0.00216482 0.00729234 0.00429992 0.00089704 0.00216703 0.00137159 
0.07659099 0.01692440 0.00468748 0.00264254 0.00093441 0.00187310 0.00935134 0.00359347 0.01560268 0.00201235 0.00207654 0.00728213 0.00436765 0.00090880 0.00220441 0.00136477 
0.07604502 0.01658742 0.00452705 0.00263409 0.00093601 0.00190225 0.00910739 0.00356263 0.01604713 0.00198375 0.00198835 0.00727265 0.00443170 0.00092249 0.00223989 0.00135778 
0.07544855 0.01630080 0.00436998 0.00262293 0.00093699 0.00193092 0.00886156 0.00353194 0.01653552 0.00195446 0.00190058 0.00726490 0.00449179 0.00093822 0.00227335 0.00135067 
0.07480576 0.01606448 0.00421690 0.00260905 0.00093737 0.00195906 0.00861490 0.00350156 0.01706728 0.00192464 0.00181357 0.00725986 0.00454765 0.00095606 0.00230468 0.00134346 
0.07412107 0.01587804 0.00406840 0.00259243 0.00093713 0.00198660 0.00836851 0.00347168 0.01764156 0.00189441 0.00172765 0.00725859 0.00459901 0.00097609 0.00233377 0.00133618 
0.07339907 0.01574077 0.00392504 0.00257306 0.00093626 0.00201349 0.00812346 0.00344244 0.01825733 0.00186393 0.00164314 0.00726213 0.00464565 0.00099837 0.00236055 0.00132886 
0.07264453 0.01565168 0.00378737 0.00255099 0.00093477 0.00203967 0.00788080 0.00341402 0.01891331 0.00183333 0.00156034 0.00727154 0.00468733 0.00102294 0.00238495 0.00132154 
0.07186235 0.01560947 0.00365589 0.00252624 0.00093265 0.00206509 0.00764161 0.00338653 0.01960798 0.00180274 0.00147956 0.00728788 0.00472385 0.00104987 0.00240689 0.00131425 
0.07105753 0.01561256 0.00353106 0.00249886 0.00092992 0.00208970 0.00740690 0.00336010 0.02033962 0.00177229 0.00140108 0.00731221 0.00475505 0.00107918 0.00242633 0.00130702 
0.07023513 0.01565915 0.00341332 0.00246894 0.00092657 0.00211344 0.00717771 0.00333484 0.02110626 0.00174211 0.00132516 0.00734556 0.00478075 0.00111089 0.00244324 0.00129987 
0.06940023 0.01574715 0.00330306 0.00243656 0.00092261 0.00213627 0.00695500 0.00331084 0.02190574 0.00171232 0.00125206 0.00738896 0.00480083 0.00114503 0.00245759 0.00129284 
0.06855789 0.01587428 0.00320062 0.00240183 0.00091804 0.00215813 0.00673975 0.00328818 0.02273563 0.00168304 0.00118200 0.00744338 0.00481519 0.00118157 0.00246938 0.00128596 
0.06771316 0.01603804 0.00310631 0.00236485 0.00091289 0.00217898 0.00653286 0.00326693 0.02359336 0.00165438 0.00111521 0.00750979 0.00482373 0.00122052 0.00247860 0.00127925 
0.06687097 0.01623573 0.00302039 0.00232575 0.00090716 0.00219878 0.00633522 0.00324713 0.02447610 0.00162643 0.00105189 0.00758907 0.00482643 0.00126185 0.00248529 0.00127274 
0.06603617 0.01646451 0.00294307 0.00228469 0.00090087 0.00221749 0.00614768 0.00322880 0.02538085 0.00159929 0.00099219 0.00768208 0.00482324 0.00130552 0.00248945 0.00126646 
0.06521343 0.01672139 0.00287453 0.00224182 0.00089404 0.00223507 0.00597101 0.00321197 0.02630445 0.00157305 0.00093629 0.00778959 0.00481419 0.00135148 0.00249115 0.00126043 
0.06440728 0.01700323 0.00281489 0.00219729 0.00088667 0.00225148 0.00580597 0.00319662 0.02724356 0.00154780 0.00088431 0.00791232 0.00479930 0.00139966 0.00249044 0.00125468 
0.06362200 0.01730684 0.00276422 0.00215129 0.00087880 0.00226669 0.00565323 0.00318275 0.02819466 0.00152359 0.00083637 0.00805090 0.00477865 0.00144999 0.00248739 0.00124922 
0.06286165 0.01762890 0.00272257 0.00210400 0.00087045 0.00228067 0.00551344 0.00317031 0.02915415 0.00150051 0.00079256 0.00820588 0.00475233 0.00150236 0.00248207 0.00124408 
0.06213002 0.01796608 0.00268992 0.00205559 0.00086164 0.00229340 0.00538716 0.00315927 0.03011827 0.00147859 0.00075294 0.00837772 0.00472047 0.00155669 0.00247458 0.00123928 
0.06143061 0.01831500 0.00266622 0.00200628 0.00085241 0.00230485 0.00527491 0.00314955 0.03108317 0.00145789 0.00071756 0.00856678 0.00468324 0.00161285 0.00246502 0.00123483 
0.06076660 0.01867228 0.00265137 0.00195626 0.00084276 0.00231500 0.00517713 0.00314109 0.03204492 0.00143846 0.00068645 0.00877331 0.00464083 0.00167071 0.00245351 0.00123075 
0.06014084 0.01903457 0.00264523 0.00190573 0.00083275 0.00232384 0.00509421 0.00313380 0.03299952 0.00142031 0.00065960 0.00899747 0.00459345 0.00173013 0.00244016 0.00122705 
0.05955581 0.01939853 0.00264763 0.00185489 0.00082240 0.00233136 0.00502648 0.00312759 0.03394295 0.00140348 0.00063700 0.00923929 0.00454136 0.00179095 0.00242512 0.00122375 
0.05901365 0.01976090 0.00265836 0.00180396 0.00081174 0.00233754 0.00497417 0.00312234 0.03487115 0.00138798 0.00061860 0.00949869 0.00448484 0.00185302 0.00240852 0.00122085 
0.05851609 0.02011852 0.00267716 0.00175314 0.00080080 0.00234239 0.00493749 0.00311796 0.03578007 0.00137381 0.00060435 0.00977549 0.00442418 0.00191615 0.00239051 0.00121836 
0.05806448 0.02046830 0.00270376 0.00170263 0.00078963 0.00234591 0.00491653 0.00311431 0.03666569 0.00136098 0.00059416 0.01006937 0.00435974 0.00198016 0.00237124 0.00121629 
0.05765978 0.02080731 0.00273785 0.00165264 0.00077826 0.00234810 0.00491136 0.00311127 0.03752404 0.00134948 0.00058794 0.01037988 0.00429185 0.00204485 0.00235087 0.00121464 
0.05730254 0.02113273 0.00277909 0.00160335 0.00076672 0.00234897 0.00492196 0.00310871 0.03835120 0.00133929 0.00058558 0.01070648 0.00422092 0.00211003 0.00232958 0.00121341 
0.05699292 0.02144191 0.00282712 0.00155498 0.00075506 0.00234854 0.00494823 0.00310650 0.03914337 0.00133040 0.00058692 0.01104849 0.00414733 0.00217548 0.00230752 0.00121262 
0.05673066 0.02173240 0.00288155 0.00150769 0.00074331 0.00234681 0.00499003 0.00310452 0.03989684 0.00132278 0.00059184 0.01140510 0.00407153 0.00224098 0.00228487 0.00121224 
0.05651512 0.02200191 0.00294200 0.00146167 0.00073151 0.00234383 0.00504713 0.00310261 0.04060808 0.00131640 0.00060015 0.01177541 0.00399395 0.00230631 0.00226180 0.00121229 
0.05634529 0.02224836 0.00300804 0.00141710 0.00071970 0.00233961 0.00511926 0.00310067 0.04127366 0.00131122 0.00061169 0.01215838 0.00391505 0.00237125 0.00223849 0.00121276 
0.05621977 0.02246989 0.00307925 0.00137414 0.00070793 0.00233418 0.00520606 0.00309855 0.04189038 0.00130721 0.00062627 0.01255287 0.00383531 0.00243557 0.00221512 0.00121364 
0.05613680 0.02266487 0.00315521 0.00133294 0.00069622 0.00232757 0.00530715 0.00309614 0.04245521 0.00130431 0.00064367 0.01295764 0.00375522 0.00249902 0.00219185 0.00121492 
0.05609430 0.02283189 0.00323547 0.00129364 0.00068462 0.00231984 0.00542204 0.00309331 0.04296535 0.00130247 0.00066371 0.01337133 0.00367527 0.00256139 0.00216887 0.00121660 
0.05608985 0.02296979 0.00331959 0.00125639 0.00067317 0.00231102 0.00555022 0.00308997 0.04341823 0.00130165 0.00068614 0.01379252 0.00359597 0.00262243 0.00214634 0.00121866 
0.05612075 0.02307765 0.00340715 0.00122129 0.00066190 0.00230115 0.00569113 0.00308601 0.04381154 0.00130179 0.00071075 0.01421967 0.00351784 0.00268191 0.00212444 0.00122109 
0.05618401 0.02315480 0.00349772 0.00118847 0.00065085 0.00229029 0.00584413 0.00308134 0.04414321 0.00130284 0.00073732 0.01465117 0.00344137 0.00273960 0.00210332 0.00122387 
0.05627641 0.02320083 0.00359088 0.00115802 0.00064005 0.00227850 0.00600856 0.00307587 0.04441148 0.00130472 0.00076559 0.01508535 0.00336710 0.00279528 0.00208315 0.00122700 
0.05639450 0.02321556 0.00368623 0.00113003 0.00062955 0.00226582 0.00618370 0.00306954 0.04461486 0.00130739 0.00079534 0.01552046 0.00329551 0.00284873 0.00206407 0.00123046 
0.05653466 0.02319906 0.00378338 0.00110457 0.00061937 0.00225233 0.00636880 0.00306229 0.04475216 0.00131078 0.00082633 0.01595472 0.00322713 0.00289973 0.00204624 0.00123422 
0.05669310 0.02315166 0.00388195 0.00108170 0.00060953 0.00223807 0.00656307 0.00305408 0.04482250 0.00131483 0.00085831 0.01638629 0.00316244 0.00294807 0.00202979 0.00123828 
0.05686592 0.02307392 0.00398160 0.00106148 0.00060009 0.00222313 0.00676568 0.00304487 0.04482531 0.00131948 0.00089106 0.01681330 0.00310193 0.00299355 0.00201486 0.00124260 
0.05704912 0.02296662 0.00408200 0.00104394 0.00059105 0.00220755 0.00697577 0.00303464 0.04476032 0.00132466 0.00092434 0.01723388 0.00304607 0.00303599 0.00200156 0.00124718 
0.05723868 0.02283079 0.00418285 0.00102910 0.00058244 0.00219142 0.00719247 0.00302339 0.04462761 0.00133031 0.00095791 0.01764612 0.00299530 0.00307520 0.00199001 0.00125198 
0.05743053 0.02266764 0.00428388 0.00101697 0.00057429 0.00217481 0.00741487 0.00301113 0.04442754 0.00133638 0.00099156 0.01804813 0.00295008 0.00311102 0.00198032 0.00125700 
0.05762065 0.02247861 0.00438486 0.00100757 0.00056662 0.00215777 0.00764204 0.00299789 0.04416081 0.00134280 0.00102506 0.01843805 0.00291080 0.00314329 0.00197257 0.00126220 
0.05780504 0.02226531 0.00448556 0.00100086 0.00055944 0.00214040 0.00787307 0.00298369 0.04382841 0.00134952 0.00105820 0.01881401 0.00287786 0.00317187 0.00196685 0.00126757 
0.05797983 0.02202956 0.00458582 0.00099684 0.00055278 0.00212275 0.00810699 0.00296858 0.04343163 0.00135647 0.00109079 0.01917421 0.00285163 0.00319664 0.00196323 0.00127308 
0.05814125 0.02177330 0.00468549 0.00099546 0.00054664 0.00210490 0.00834286 0.00295264 0.04297208 0.00136362 0.00112262 0.01951688 0.00283242 0.00321748 0.00196178 0.00127871 
0.05828571 0.02149865 0.00478447 0.00099669 0.00054104 0.00208693 0.00857973 0.00293593 0.04245163 0.00137089 0.00115352 0.01984032 0.00282056 0.00323429 0.00196253 0.00128443 
0.05840981 0.02120784 0.00488267 0.00100046 0.00053599 0.00206890 0.00881665 0.00291855 0.04187242 0.00137824 0.00118332 0.02014291 0.00281630 0.00324701 0.00196554 0.00129022 
0.05851036 0.02090323 0.00498007 0.00100671 0.00053148 0.00205089 0.00905268 0.00290058 0.04123686 0.00138563 0.00121185 0.02042310 0.00281989 0.00325556 0.00197081 0.00129606 
0.05858444 0.02058726 0.00507665 0.00101538 0.00052753 0.00203296 0.00928688 0.00288213 0.04054761 0.00139302 0.00123896 0.02067944 0.00283153 0.00325991 0.00197837 0.00130193 
0.05862942 0.02026248 0.00517245 0.00102638 0.00052413 0.00201517 0.00951833 0.00286332 0.03980752 0.00140034 0.00126453 0.02091059 0.00285137 0.00326003 0.00198822 0.00130780 
0.05864296 0.01993147 0.00526754 0.00103963 0.00052129 0.00199760 0.00974615 0.00284428 0.03901970 0.00140758 0.00128843 0.02111531 0.00287954 0.00325590 0.00200034 0.00131364 
0.05862308 0.01959686 0.00536202 0.00105502 0.00051899 0.00198030 0.00996944 0.00282513 0.03818741 0.00141468 0.00131055 0.02129252 0.00291614 0.00324755 0.00201471 0.00131944 
0.05856813 0.01926130 0.00545600 0.00107246 0.00051724 0.00196334 0.01018735 0.00280600 0.03731409 0.00142162 0.00133079 0.02144123 0.00296119 0.00323500 0.00203131 0.00132518 
0.05847686 0.01892747 0.00554965 0.00109184 0.00051601 0.00194677 0.01039907 0.00278705 0.03640332 0.00142837 0.00134909 0.02156061 0.00301470 0.00321830 0.00205007 0.00133082 
0.05834839 0.01859802 0.00564316 0.00111305 0.00051531 0.00193063 0.01060380 0.00276841 0.03545884 0.00143489 0.00136537 0.02164997 0.00307663 0.00319752 0.00207094 0.00133636 
0.05818226 0.01827555 0.00573673 0.00113597 0.00051511 0.00191498 0.01080080 0.00275022 0.03448444 0.00144116 0.00137957 0.02170879 0.00314691 0.00317274 0.00209386 0.00134177 
0.05797840 0.01796265 0.00583060 0.00116049 0.00051540 0.00189987 0.01098933 0.00273264 0.03348404 0.00144716 0.00139167 0.02173670 0.00322541 0.00314407 0.00211875 0.00134702 
0.05773720 0.01766181 0.00592503 0.00118648 0.00051616 0.00188532 0.01116872 0.00271580 0.03246159 0.00145286 0.00140163 0.02173347 0.00331196 0.00311162 0.00214551 0.00135211 
0.05745944 0.01737546 0.00602028 0.00121382 0.00051738 0.00187139 0.01133835 0.00269985 0.03142108 0.00145824 0.00140945 0.02169907 0.00340636 0.00307553 0.00217405 0.00135701 
0.05714635 0.01710594 0.00611664 0.00124239 0.00051904 0.00185808 0.01149764 0.00268492 0.03036652 0.00146330 0.00141512 0.02163361 0.00350836 0.00303596 0.00220426 0.00136170 
0.05679956 0.01685545 0.00621440 0.00127205 0.00052110 0.00184544 0.01164603 0.00267116 0.02930192 0.00146802 0.00141866 0.02153739 0.00361769 0.00299308 0.00223602 0.00136617 
0.05642114 0.01662608 0.00631387 0.00130268 0.00052355 0.00183349 0.01178305 0.00265867 0.02823122 0.00147238 0.00142009 0.02141088 0.00373400 0.00294708 0.00226921 0.00137040 
0.05601356 0.01641978 0.00641536 0.00133416 0.00052637 0.00182223 0.01190826 0.00264759 0.02715834 0.00147638 0.00141946 0.02125468 0.00385696 0.00289814 0.00230369 0.00137437 
0.05557967 0.01623835 0.00651917 0.00136634 0.00052953 0.00181168 0.01202129 0.00263803 0.02608713 0.00148001 0.00141681 0.02106961 0.00398615 0.00284649 0.00233933 0.00137809 
0.05512273 0.01608343 0.00662562 0.00139912 0.00053300 0.00180184 0.01212181 0.00263008 0.02502130 0.00148327 0.00141220 0.02085662 0.00412115 0.00279234 0.00237598 0.00138152 
0.05464633 0.01595647 0.00673499 0.00143237 0.00053676 0.00179272 0.01220954 0.00262384 0.02396450 0.00148615 0.00140570 0.02061682 0.00426150 0.00273594 0.00241348 0.00138466 
0.05415441 0.01585876 0.00684758 0.00146596 0.00054078 0.00178431 0.01228429 0.00261939 0.02292022 0.00148866 0.00139738 0.02035148 0.00440672 0.00267752 0.00245170 0.00138749 
0.05365123 0.01579140 0.00696365 0.00149978 0.00054504 0.00177660 0.01234588 0.00261680 0.02189181 0.00149079 0.00138734 0.02006202 0.00455628 0.00261735 0.00249046 0.00139002 
0.05314132 0.01575529 0.00708348 0.00153370 0.00054951 0.00176958 0.01239423 0.00261613 0.02088245 0.00149256 0.00137566 0.01975000 0.00470964 0.00255567 0.00252960 0.00139223 
0.05262949 0.01575113 0.00720728 0.00156762 0.00055416 0.00176323 0.01242930 0.00261741 0.01989513 0.00149395 0.00136244 0.01941709 0.00486625 0.00249276 0.00256897 0.00139411 
0.05212075 0.01577943 0.00733527 0.00160142 0.00055897 0.00175752 0.01245110 0.00262068 0.01893269 0.00149499 0.00134780 0.01906513 0.00502551 0.00242889 0.00260839 0.00139566 
0.05162030 0.01584049 0.00746764 0.00163499 0.00056393 0.00175243 0.01245971 0.00262594 0.01799772 0.00149567 0.00133183 0.01869602 0.00518682 0.00236434 0.00264769 0.00139687 
0.05113351 0.01593439 0.00760454 0.00166824 0.00056899 0.00174793 0.01245525 0.00263321 0.01709264 0.00149601 0.00131466 0.01831180 0.00534959 0.00229937 0.00268672 0.00139774 
0.05066584 0.01606103 0.00774608 0.00170107 0.00057415 0.00174399 0.01243791 0.00264247 0.01621962 0.00149602 0.00129640 0.01791459 0.00551318 0.00223427 0.00272531 0.00139827 
0.05022284 0.01622011 0.00789235 0.00173338 0.00057938 0.00174056 0.01240794 0.00265369 0.01538063 0.00149571 0.00127717 0.01750657 0.00567696 0.00216932 0.00276329 0.00139846 
0.04981008 0.01641111 0.00804338 0.00176507 0.00058466 0.00173761 0.01236561 0.00266683 0.01457738 0.00149509 0.00125710 0.01709002 0.00584029 0.00210478 0.00280050 0.00139830 
0.04943314 0.01663333 0.00819919 0.00179607 0.00058998 0.00173510 0.01231127 0.00268183 0.01381138 0.00149418 0.00123631 0.01666725 0.00600255 0.00204093 0.00283679 0.00139780 
0.04909752 0.01688588 0.00835973 0.00182629 0.00059532 0.00173297 0.01224530 0.00269862 0.01308388 0.00149300 0.00121491 0.01624062 0.00616310 0.00197803 0.00287200 0.00139696 
0.04880864 0.01716769 0.00852492 0.00185566 0.00060067 0.00173118 0.01216815 0.00271713 0.01239592 0.00149156 0.00119304 0.01581251 0.00632130 0.00191635 0.00290598 0.00139578 
0.04857179 0.01747751 0.00869463 0.00188410 0.00060601 0.00172969 0.01208028 0.00273726 0.01174827 0.00148988 0.00117082 0.01538532 0.00647653 0.00185613 0.00293859 0.00139427 
0.04839205 0.01781393 0.00886867 0.00191155 0.00061134 0.00172844 0.01198221 0.00275890 0.01114152 0.00148798 0.00114836 0.01496144 0.00662819 0.00179762 0.00296969 0.00139244 
0.04827432 0.01817538 0.00904684 0.00193795 0.00061664 0.00172739 0.01187450 0.00278194 0.01057599 0.00148588 0.00112578 0.01454324 0.00677568 0.00174104 0.00299915 0.00139028 
0.04822321 0.01856015 0.00922885 0.00196323 0.00062192 0.00172648 0.01175774 0.00280624 0.01005181 0.00148360 0.00110320 0.01413308 0.00691841 0.00168663 0.00302684 0.00138782 
0.04824303 0.01896640 0.00941440 0.00198735 0.00062716 0.00172566 0.01163254 0.00283167 0.00956889 0.00148117 0.00108074 0.01373326 0.00705583 0.00163459 0.00305266 0.00138505 
0.04833774 0.01939216 0.00960311 0.00201026 0.00063237 0.00172489 0.01149956 0.00285809 0.00912694 0.00147860 0.00105848 0.01334602 0.00718740 0.00158512 0.00307649 0.00138199 
0.04851094 0.01983535 0.00979458 0.00203192 0.00063755 0.00172411 0.01135946 0.00288533 0.00872546 0.00147593 0.00103655 0.01297353 0.00731260 0.00153839 0.00309823 0.00137864 
0.04876582 0.02029381 0.00998836 0.00205229 0.00064270 0.00172329 0.01121295 0.00291325 0.00836380 0.00147318 0.00101503 0.01261788 0.00743095 0.00149458 0.00311779 0.00137503 
0.04910510 0.02076528 0.01018394 0.00207133 0.00064781 0.00172237 0.01106072 0.00294168 0.00804111 0.00147037 0.00099403 0.01228105 0.00754198 0.00145384 0.00313510 0.00137115 
0.04953105 0.02124744 0.01038079 0.00208903 0.00065291 0.00172131 0.01090351 0.00297044 0.00775640 0.00146753 0.00097362 0.01196493 0.00764528 0.00141630 0.00315008 0.00136703 
0.05004543 0.02173792 0.01057833 0.00210535 0.00065800 0.00172007 0.01074205 0.00299938 0.00750851 0.00146469 0.00095390 0.01167127 0.00774045 0.00138209 0.00316267 0.00136268 
0.05064948 0.02223431 0.01077596 0.00212028 0.00066308 0.00171862 0.01057707 0.00302831 0.00729617 0.00146188 0.00093492 0.01140170 0.00782714 0.00135129 0.00317282 0.00135811 
0.05134390 0.02273418 0.01097302 0.00213381 0.00066816 0.00171691 0.01040931 0.00305706 0.00711800 0.00145912 0.00091678 0.01115769 0.00790501 0.00132400 0.00318049 0.00135334 
0.05212883 0.02323507 0.01116883 0.00214594 0.00067327 0.00171492 0.01023952 0.00308546 0.00697248 0.00145645 0.00089953 0.01094057 0.00797379 0.00130027 0.00318565 0.00134837 
0.05300382 0.02373455 0.01136270 0.00215665 0.00067841 0.00171263 0.01006842 0.00311334 0.00685803 0.00145389 0.00088322 0.01075152 0.00803324 0.00128017 0.00318828 0.00134324 
0.05396786 0.02423020 0.01155391 0.00216595 0.00068359 0.00171000 0.00989673 0.00314053 0.00677299 0.00145147 0.00086792 0.01059153 0.00808314 0.00126370 0.00318837 0.00133795 
0.05501933 0.02471962 0.01174169 0.00217384 0.00068884 0.00170702 0.00972516 0.00316686 0.00671563 0.00144922 0.00085366 0.01046143 0.00812335 0.00125089 0.00318591 0.00133252 
0.05615604 0.02520048 0.01192531 0.00218035 0.00069416 0.00170367 0.00955441 0.00319219 0.00668419 0.00144718 0.00084048 0.01036186 0.00815372 0.00124172 0.00318093 0.00132697 
0.05737521 0.02567049 0.01210397 0.00218548 0.00069958 0.00169995 0.00938513 0.00321636 0.00667686 0.00144537 0.00082843 0.01029328 0.00817419 0.00123617 0.00317344 0.00132132 
0.05867346 0.02612744 0.01227692 0.00218926 0.00070510 0.00169583 0.00921798 0.00323922 0.00669182 0.00144382 0.00081752 0.01025597 0.00818472 0.00123420 0.00316347 0.00131557 
0.06004687 0.02656920 0.01244336 0.00219171 0.00071075 0.00169133 0.00905357 0.00326063 0.00672727 0.00144256 0.00080777 0.01025001 0.00818530 0.00123573 0.00315106 0.00130976 
0.06149093 0.02699375 0.01260253 0.00219286 0.00071654 0.00168645 0.00889249 0.00328048 0.00678137 0.00144162 0.00079922 0.01027530 0.00817599 0.00124070 0.00313626 0.00130390 
0.06300061 0.02739915 0.01275365 0.00219275 0.00072249 0.00168119 0.00873529 0.00329865 0.00685234 0.00144102 0.00079185 0.01033153 0.00815687 0.00124901 0.00311911 0.00129801 
0.06457038 0.02778360 0.01289597 0.00219141 0.00072860 0.00167556 0.00858250 0.00331503 0.00693841 0.00144080 0.00078569 0.01041822 0.00812806 0.00126054 0.00309969 0.00129209 
0.06619418 0.02814542 0.01302876 0.00218891 0.00073490 0.00166957 0.00843458 0.00332952 0.00703788 0.00144098 0.00078073 0.01053470 0.00808974 0.00127516 0.00307807 0.00128618 
0.06786553 0.02848306 0.01315129 0.00218527 0.00074140 0.00166326 0.00829198 0.00334204 0.00714909 0.00144158 0.00077697 0.01068009 0.00804210 0.00129275 0.00305432 0.00128029 
0.06957750 0.02879509 0.01326287 0.00218056 0.00074810 0.00165663 0.00815510 0.00335253 0.00727042 0.00144262 0.00077440 0.01085338 0.00798538 0.00131314 0.00302852 0.00127444 
0.07132276 0.02908026 0.01336285 0.00217483 0.00075502 0.00164972 0.00802429 0.00336092 0.00740037 0.00144413 0.00077300 0.01105335 0.00791987 0.00133617 0.00300077 0.00126864 
0.07309366 0.02933746 0.01345060 0.00216814 0.00076217 0.00164257 0.00789985 0.00336718 0.00753747 0.00144613 0.00077276 0.01127861 0.00784588 0.00136166 0.00297117 0.00126291 
0.07488221 0.02956573 0.01352555 0.00216057 0.00076954 0.00163519 0.00778206 0.00337126 0.00768037 0.00144864 0.00077366 0.01152764 0.00776376 0.00138942 0.00293980 0.00125727 
0.07668016 0.02976427 0.01358714 0.00215218 0.00077715 0.00162764 0.00767112 0.00337317 0.00782780 0.00145166 0.00077567 0.01179874 0.00767387 0.00141924 0.00290678 0.00125174 
0.07847905 0.02993244 0.01363490 0.00214305 0.00078499 0.00161995 0.00756720 0.00337288 0.00797859 0.00145522 0.00077878 0.01209009 0.00757663 0.00145094 0.00287220 0.00124632 
0.08027023 0.03006977 0.01366837 0.00213324 0.00079306 0.00161216 0.00747043 0.00337041 0.00813164 0.00145933 0.00078294 0.01239973 0.00747247 0.00148428 0.00283618 0.00124104 
0.08204495 0.03017595 0.01368718 0.00212285 0.00080136 0.00160432 0.00738088 0.00336578 0.00828600 0.00146399 0.00078813 0.01272558 0.00736185 0.00151905 0.00279884 0.00123591 
0.08379438 0.03025084 0.01369100 0.00211196 0.00080989 0.00159647 0.00729857 0.00335903 0.00844079 0.00146921 0.00079430 0.01306546 0.00724524 0.00155503 0.00276027 0.00123094 
0.08550966 0.03029444 0.01367956 0.00210065 0.00081863 0.00158867 0.00722348 0.00335021 0.00859523 0.00147498 0.00080144 0.01341709 0.00712316 0.00159198 0.00272059 0.00122615 
0.08718197 0.03030692 0.01365267 0.00208902 0.00082757 0.00158096 0.00715557 0.00333937 0.00874867 0.00148132 0.00080948 0.01377811 0.00699613 0.00162967 0.00267992 0.00122155 
0.08880261 0.03028861 0.01361018 0.00207715 0.00083669 0.00157340 0.00709470 0.00332658 0.00890053 0.00148822 0.00081840 0.01414610 0.00686468 0.00166786 0.00263837 0.00121716 
0.09036296 0.03023998 0.01355202 0.00206515 0.00084599 0.00156602 0.00704075 0.00331193 0.00905035 0.00149567 0.00082816 0.01451857 0.00672936 0.00170634 0.00259605 0.00121298 
0.09185465 0.03016166 0.01347821 0.00205310 0.00085544 0.00155889 0.00699352 0.00329552 0.00919777 0.00150366 0.00083870 0.01489301 0.00659074 0.00174485 0.00255307 0.00120902 
0.09326953 0.03005439 0.01338880 0.00204110 0.00086501 0.00155205 0.00695278 0.00327743 0.00934249 0.00151217 0.00084999 0.01526688 0.00644939 0.00178318 0.00250955 0.00120531 
0.09459973 0.02991907 0.01328393 0.00202926 0.00087468 0.00154556 0.00691828 0.00325778 0.00948434 0.00152119 0.00086197 0.01563762 0.00630589 0.00182109 0.00246557 0.00120184 
0.09583776 0.02975671 0.01316383 0.00201766 0.00088443 0.00153944 0.00688972 0.00323669 0.00962321 0.00153070 0.00087460 0.01600270 0.00616081 0.00185836 0.00242126 0.00119862 
0.09697649 0.02956844 0.01302876 0.00200642 0.00089423 0.00153377 0.00686677 0.00321428 0.00975906 0.00154067 0.00088784 0.01635959 0.00601475 0.00189477 0.00237671 0.00119567 
0.09800924 0.02935550 0.01287909 0.00199563 0.00090403 0.00152856 0.00684909 0.00319069 0.00989194 0.00155108 0.00090163 0.01670581 0.00586829 0.00193011 0.00233202 0.00119298 
0.09892980 0.02911922 0.01271523 0.00198538 0.00091381 0.00152388 0.00683630 0.00316603 0.01002195 0.00156190 0.00091593 0.01703893 0.00572200 0.00196419 0.00228729 0.00119057 
0.09973250 0.02886103 0.01253768 0.00197577 0.00092353 0.00151975 0.00682800 0.00314047 0.01014926 0.00157308 0.00093069 0.01735659 0.00557646 0.00199679 0.00224260 0.00118844 
0.10041219 0.02858244 0.01234698 0.00196691 0.00093315 0.00151621 0.00682377 0.00311412 0.01027407 0.00158459 0.00094586 0.01765650 0.00543223 0.00202775 0.00219804 0.00118659 
0.10096434 0.02828502 0.01214375 0.00195888 0.00094264 0.00151329 0.00682320 0.00308714 0.01039664 0.00159640 0.00096138 0.01793647 0.00528987 0.00205687 0.00215370 0.00118503 
0.10138502 0.02797040 0.01192868 0.00195176 0.00095195 0.00151103 0.00682584 0.00305967 0.01051726 0.00160844 0.00097721 0.01819443 0.00514993 0.00208401 0.00210965 0.00118376 
0.10167093 0.02764027 0.01170251 0.00194566 0.00096104 0.00150943 0.00683124 0.00303185 0.01063625 0.00162069 0.00099330 0.01842841 0.00501292 0.00210900 0.00206598 0.00118279 
0.10181947 0.02729635 0.01146601 0.00194065 0.00096987 0.00150854 0.00683896 0.00300382 0.01075394 0.00163308 0.00100960 0.01863659 0.00487936 0.00213171 0.00202274 0.00118210 
0.10182868 0.02694039 0.01122005 0.00193681 0.00097839 0.00150835 0.00684853 0.00297571 0.01087068 0.00164556 0.00102605 0.01881729 0.00474975 0.00215201 0.00198002 0.00118170 
0.10169734 0.02657415 0.01096551 0.00193421 0.00098657 0.00150888 0.00685952 0.00294766 0.01098682 0.00165807 0.00104261 0.01896898 0.00462455 0.00216979 0.00193788 0.00118159 
0.10142490 0.02619941 0.01070333 0.00193292 0.00099435 0.00151013 0.00687147 0.00291980 0.01110272 0.00167057 0.00105922 0.01909031 0.00450421 0.00218494 0.00189637 0.00118177 
0.10101154 0.02581794 0.01043447 0.00193301 0.00100171 0.00151212 0.00688396 0.00289225 0.01121870 0.00168298 0.00107584 0.01918009 0.00438916 0.00219739 0.00185555 0.00118223 
0.10045813 0.02543151 0.01015996 0.00193454 0.00100859 0.00151483 0.00689656 0.00286513 0.01133511 0.00169524 0.00109241 0.01923730 0.00427980 0.00220706 0.00181548 0.00118297 
0.09976627 0.02504184 0.00988082 0.00193754 0.00101497 0.00151826 0.00690886 0.00283854 0.01145224 0.00170729 0.00110888 0.01926114 0.00417650 0.00221390 0.00177621 0.00118398 
0.09893824 0.02465066 0.00959811 0.00194207 0.00102079 0.00152238 0.00692048 0.00281258 0.01157037 0.00171907 0.00112521 0.01925098 0.00407960 0.00221787 0.00173778 0.00118525 
0.09797701 0.02425962 0.00931292 0.00194816 0.00102602 0.00152720 0.00693105 0.00278735 0.01168974 0.00173051 0.00114133 0.01920639 0.00398942 0.00221894 0.00170025 0.00118679 
0.09688621 0.02387036 0.00902634 0.00195584 0.00103064 0.00153267 0.00694023 0.00276293 0.01181055 0.00174154 0.00115721 0.01912714 0.00390624 0.00221711 0.00166366 0.00118857 
0.09567013 0.02348444 0.00873947 0.00196512 0.00103460 0.00153878 0.00694769 0.00273939 0.01193298 0.00175209 0.00117278 0.01901322 0.00383031 0.00221237 0.00162804 0.00119060 
0.09433368 0.02310337 0.00845341 0.00197602 0.00103787 0.00154549 0.00695314 0.00271678 0.01205714 0.00176210 0.00118801 0.01886480 0.00376186 0.00220475 0.00159343 0.00119286 
0.09288234 0.02272859 0.00816927 0.00198854 0.00104044 0.00155277 0.00695633 0.00269516 0.01218311 0.00177151 0.00120284 0.01868227 0.00370107 0.00219429 0.00155988 0.00119533 
0.09132217 0.02236147 0.00788814 0.00200267 0.00104228 0.00156057 0.00695703 0.00267457 0.01231090 0.00178025 0.00121723 0.01846622 0.00364808 0.00218103 0.00152742 0.00119802 
0.08965975 0.02200330 0.00761109 0.00201839 0.00104336 0.00156884 0.00695504 0.00265503 0.01244049 0.00178824 0.00123112 0.01821742 0.00360303 0.00216503 0.00149609 0.00120091 
0.08790213 0.02165529 0.00733918 0.00203568 0.00104367 0.00157756 0.00695019 0.00263656 0.01257180 0.00179544 0.00124448 0.01793687 0.00356599 0.00214637 0.00146592 0.00120398 
0.08605681 0.02131856 0.00707344 0.00205449 0.00104320 0.00158664 0.00694236 0.00261915 0.01270469 0.00180178 0.00125725 0.01762573 0.00353701 0.00212515 0.00143694 0.00120721 
0.08413169 0.02099414 0.00681489 0.00207479 0.00104193 0.00159606 0.00693147 0.00260281 0.01283899 0.00180720 0.00126940 0.01728535 0.00351612 0.00210145 0.00140919 0.00121061 
0.08213500 0.02068297 0.00656447 0.00209653 0.00103987 0.00160574 0.00691745 0.00258750 0.01297445 0.00181165 0.00128087 0.01691726 0.00350328 0.00207539 0.00138270 0.00121415 
0.08007530 0.02038591 0.00632313 0.00211963 0.00103701 0.00161562 0.00690029 0.00257320 0.01311079 0.00181507 0.00129163 0.01652317 0.00349845 0.00204710 0.00135749 0.00121782 
0.07796138 0.02010370 0.00609174 0.00214402 0.00103336 0.00162565 0.00688001 0.00255986 0.01324767 0.00181742 0.00130164 0.01610493 0.00350153 0.00201671 0.00133362 0.00122159 
0.07580221 0.01983701 0.00587113 0.00216962 0.00102892 0.00163576 0.00685667 0.00254743 0.01338473 0.00181865 0.00131087 0.01566454 0.00351241 0.00198436 0.00131109 0.00122547 
0.07360693 0.01958640 0.00566209 0.00219634 0.00102370 0.00164589 0.00683035 0.00253584 0.01352154 0.00181873 0.00131927 0.01520415 0.00353094 0.00195020 0.00128995 0.00122942 
0.07138476 0.01935235 0.00546534 0.00222408 0.00101772 0.00165596 0.00680119 0.00252502 0.01365764 0.00181761 0.00132682 0.01472603 0.00355693 0.00191439 0.00127022 0.00123344 
0.06914496 0.01913524 0.00528153 0.00225273 0.00101100 0.00166592 0.00676935 0.00251489 0.01379254 0.00181526 0.00133349 0.01423255 0.00359017 0.00187710 0.00125194 0.00123751 
0.06689675 0.01893535 0.00511127 0.00228218 0.00100356 0.00167570 0.00673502 0.00250535 0.01392573 0.00181166 0.00133925 0.01372620 0.00363041 0.00183849 0.00123513 0.00124161 
0.06464930 0.01875290 0.00495509 0.00231230 0.00099544 0.00168523 0.00669844 0.00249630 0.01405665 0.00180679 0.00134408 0.01320954 0.00367737 0.00179875 0.00121983 0.00124572 
0.06241164 0.01858799 0.00481344 0.00234297 0.00098665 0.00169445 0.00665987 0.00248765 0.01418475 0.00180063 0.00134796 0.01268521 0.00373076 0.00175804 0.00120605 0.00124983 
0.06019263 0.01844068 0.00468672 0.00237405 0.00097724 0.00170330 0.00661959 0.00247928 0.01430945 0.00179318 0.00135088 0.01215590 0.00379025 0.00171656 0.00119384 0.00125393 
0.05800089 0.01831091 0.00457525 0.00240541 0.00096725 0.00171171 0.00657792 0.00247107 0.01443015 0.00178444 0.00135282 0.01162434 0.00385548 0.00167448 0.00118321 0.00125799 
0.05584478 0.01819857 0.00447926 0.00243689 0.00095672 0.00171963 0.00653521 0.00246291 0.01454627 0.00177440 0.00135379 0.01109331 0.00392609 0.00163200 0.00117418 0.00126200 
0.05373232 0.01810349 0.00439893 0.00246835 0.00094569 0.00172700 0.00649181 0.00245466 0.01465721 0.00176307 0.00135377 0.01056557 0.00400168 0.00158930 0.00116679 0.00126595 
0.05167117 0.01802540 0.00433435 0.00249964 0.00093420 0.00173377 0.00644812 0.00244623 0.01476240 0.00175049 0.00135278 0.01004389 0.00408183 0.00154655 0.00116105 0.00126981 
0.04966856 0.01796401 0.00428554 0.00253060 0.00092232 0.00173990 0.00640454 0.00243746 0.01486127 0.00173666 0.00135082 0.00953102 0.00416611 0.00150395 0.00115697 0.00127358 
0.04773129 0.01791895 0.00425244 0.00256109 0.00091009 0.00174532 0.00636148 0.00242826 0.01495326 0.00172163 0.00134791 0.00902969 0.00425406 0.00146167 0.00115458 0.00127725 
0.04586568 0.01788981 0.00423491 0.00259093 0.00089756 0.00175001 0.00631939 0.00241849 0.01503785 0.00170542 0.00134406 0.00854254 0.00434524 0.00141989 0.00115388 0.00128079 
0.04407749 0.01787612 0.00423276 0.00261999 0.00088480 0.00175393 0.00627870 0.00240803 0.01511455 0.00168809 0.00133931 0.00807220 0.00443915 0.00137878 0.00115489 0.00128419 
0.04237198 0.01787738 0.00424570 0.00264810 0.00087185 0.00175705 0.00623986 0.00239679 0.01518289 0.00166969 0.00133368 0.00762118 0.00453533 0.00133851 0.00115760 0.00128745 
0.04075380 0.01789307 0.00427340 0.00267511 0.00085878 0.00175934 0.00620334 0.00238464 0.01524244 0.00165027 0.00132721 0.00719192 0.00463326 0.00129923 0.00116202 0.00129055 
0.03922700 0.01792262 0.00431544 0.00270087 0.00084564 0.00176078 0.00616958 0.00237150 0.01529283 0.00162990 0.00131995 0.00678676 0.00473246 0.00126111 0.00116815 0.00129349 
0.03779504 0.01796542 0.00437135 0.00272524 0.00083250 0.00176135 0.00613904 0.00235726 0.01533372 0.00160866 0.00131195 0.00640790 0.00483242 0.00122428 0.00117598 0.00129624 
0.03646073 0.01802089 0.00444059 0.00274807 0.00081940 0.00176104 0.00611218 0.00234185 0.01536482 0.00158663 0.00130326 0.00605744 0.00493264 0.00118889 0.00118550 0.00129881 
0.03522624 0.01808837 0.00452256 0.00276923 0.00080642 0.00175986 0.00608944 0.00232519 0.01538590 0.00156388 0.00129394 0.00573733 0.00503261 0.00115506 0.00119668 0.00130118 
0.03409308 0.01816724 0.00461662 0.00278860 0.00079360 0.00175780 0.00607125 0.00230721 0.01539680 0.00154051 0.00128407 0.00544937 0.00513182 0.00112292 0.00120950 0.00130336 
0.03306214 0.01825684 0.00472208 0.00280603 0.00078099 0.00175486 0.00605804 0.00228788 0.01539738 0.00151662 0.00127372 0.00519519 0.00522979 0.00109257 0.00122394 0.00130532 
0.03213362 0.01835653 0.00483819 0.00282143 0.00076867 0.00175107 0.00605021 0.00226714 0.01538759 0.00149231 0.00126296 0.00497629 0.00532602 0.00106413 0.00123996 0.00130708 
0.03130711 0.01846564 0.00496417 0.00283468 0.00075667 0.00174643 0.00604814 0.00224497 0.01536745 0.00146770 0.00125189 0.00479397 0.00542003 0.00103768 0.00125752 0.00130862 
0.03058154 0.01858353 0.00509919 0.00284569 0.00074504 0.00174098 0.00605220 0.00222137 0.01533700 0.00144288 0.00124060 0.00464934 0.00551134 0.00101330 0.00127658 0.00130995 
0.02995522 0.01870956 0.00524242 0.00285437 0.00073385 0.00173474 0.00606273 0.00219633 0.01529639 0.00141798 0.00122918 0.00454336 0.00559950 0.00099107 0.00129707 0.00131105 
0.02942589 0.01884307 0.00539297 0.00286063 0.00072312 0.00172775 0.00608005 0.00216987 0.01524580 0.00139312 0.00121773 0.00447678 0.00568405 0.00097105 0.00131895 0.00131195 
0.02899065 0.01898346 0.00554995 0.00286442 0.00071291 0.00172005 0.00610443 0.00214202 0.01518549 0.00136842 0.00120635 0.00445015 0.00576457 0.00095328 0.00134215 0.00131262 
0.02864607 0.01913010 0.00571245 0.00286566 0.00070325 0.00171168 0.00613613 0.00211284 0.01511577 0.00134401 0.00119516 0.00446385 0.00584065 0.00093781 0.00136659 0.00131308 
0.02838820 0.01928240 0.00587954 0.00286433 0.00069418 0.00170269 0.00617537 0.00208238 0.01503701 0.00132002 0.00118427 0.00451804 0.00591189 0.00092466 0.00139221 0.00131334 
0.02821256 0.01943977 0.00605029 0.00286038 0.00068574 0.00169314 0.00622233 0.00205073 0.01494964 0.00129659 0.00117380 0.00461270 0.00597792 0.00091385 0.00141892 0.00131339 
0.02811422 0.01960165 0.00622378 0.00285380 0.00067794 0.00168307 0.00627715 0.00201797 0.01485415 0.00127383 0.00116385 0.00474762 0.00603839 0.00090538 0.00144663 0.00131324 
0.02808782 0.01976750 0.00639908 0.00284457 0.00067083 0.00167256 0.00633994 0.00198422 0.01475108 0.00125190 0.00115455 0.00492239 0.00609297 0.00089927 0.00147526 0.00131290 
0.02812758 0.01993678 0.00657528 0.00283269 0.00066441 0.00166167 0.00641076 0.00194960 0.01464100 0.00123091 0.00114602 0.00513640 0.00614136 0.00089548 0.00150470 0.00131238 
0.02822741 0.02010898 0.00675149 0.00281819 0.00065871 0.00165046 0.00648963 0.00191426 0.01452456 0.00121100 0.00113838 0.00538887 0.00618327 0.00089401 0.00153486 0.00131168 
0.02838088 0.02028363 0.00692682 0.00280108 0.00065375 0.00163899 0.00657652 0.00187833 0.01440242 0.00119231 0.00113175 0.00567885 0.00621847 0.00089481 0.00156563 0.00131082 
0.02858132 0.02046025 0.00710043 0.00278140 0.00064952 0.00162735 0.00667137 0.00184200 0.01427530 0.00117496 0.00112624 0.00600518 0.00624672 0.00089784 0.00159690 0.00130981 
0.02882183 0.02063839 0.00727149 0.00275921 0.00064605 0.00161560 0.00677406 0.00180543 0.01414395 0.00115908 0.00112198 0.00636657 0.00626783 0.00090306 0.00162857 0.00130866 
0.02909534 0.02081764 0.00743921 0.00273457 0.00064333 0.00160382 0.00688443 0.00176881 0.01400912 0.00114479 0.00111907 0.00676154 0.00628164 0.00091040 0.00166052 0.00130738 
0.02939468 0.02099757 0.00760283 0.00270754 0.00064136 0.00159207 0.00700228 0.00173235 0.01387164 0.00113222 0.00111764 0.00718848 0.00628801 0.00091980 0.00169264 0.00130599 
0.02971261 0.02117780 0.00776166 0.00267822 0.00064014 0.00158043 0.00712735 0.00169624 0.01373231 0.00112146 0.00111777 0.00764563 0.00628684 0.00093118 0.00172481 0.00130451 
0.03004185 0.02135796 0.00791501 0.00264669 0.00063965 0.00156897 0.00725934 0.00166072 0.01359197 0.00111264 0.00111958 0.00813108 0.00627804 0.00094446 0.00175691 0.00130294 
0.03037517 0.02153770 0.00806227 0.00261306 0.00063990 0.00155777 0.00739791 0.00162600 0.01345146 0.00110587 0.00112316 0.00864283 0.00626157 0.00095956 0.00178884 0.00130130 
0.03070543 0.02171669 0.00820288 0.00257745 0.00064085 0.00154689 0.00754266 0.00159230 0.01331164 0.00110122 0.00112859 0.00917874 0.00623743 0.00097638 0.00182047 0.00129962 
0.03102561 0.02189460 0.00833630 0.00253997 0.00064250 0.00153639 0.00769317 0.00155987 0.01317335 0.00109880 0.00113597 0.00973657 0.00620561 0.00099482 0.00185169 0.00129791 
0.03132888 0.02207113 0.00846209 0.00250076 0.00064482 0.00152636 0.00784895 0.00152893 0.01303746 0.00109869 0.00114536 0.01031400 0.00616618 0.00101477 0.00188239 0.00129618 
0.03160863 0.02224601 0.00857982 0.00245995 0.00064779 0.00151683 0.00800950 0.00149971 0.01290478 0.00110095 0.00115682 0.01090863 0.00611920 0.00103614 0.00191247 0.00129445 
0.03185854 0.02241895 0.00868916 0.00241769 0.00065138 0.00150789 0.00817424 0.00147246 0.01277615 0.00110566 0.00117042 0.01151800 0.00606479 0.00105880 0.00194181 0.00129275 
0.03207260 0.02258970 0.00878981 0.00237413 0.00065557 0.00149958 0.00834260 0.00144741 0.01265239 0.00111287 0.00118620 0.01213958 0.00600308 0.00108265 0.00197033 0.00129108 
0.03224517 0.02275804 0.00888153 0.00232943 0.00066032 0.00149195 0.00851393 0.00142477 0.01253426 0.00112262 0.00120419 0.01277082 0.00593424 0.00110756 0.00199791 0.00128948 
0.03237102 0.02292371 0.00896415 0.00228373 0.00066560 0.00148506 0.00868759 0.00140478 0.01242254 0.00113495 0.00122442 0.01340912 0.00585846 0.00113342 0.00202449 0.00128794 
0.03244536 0.02308653 0.00903755 0.00223722 0.00067137 0.00147894 0.00886287 0.00138763 0.01231796 0.00114988 0.00124690 0.01405190 0.00577596 0.00116011 0.00204996 0.00128650 
0.03246388 0.02324629 0.00910167 0.00219006 0.00067761 0.00147365 0.00903907 0.00137355 0.01222121 0.00116743 0.00127163 0.01469654 0.00568699 0.00118750 0.00207426 0.00128517 
0.03242278 0.02340281 0.00915651 0.00214241 0.00068427 0.00146921 0.00921544 0.00136272 0.01213296 0.00118760 0.00129860 0.01534046 0.00559184 0.00121547 0.00209731 0.00128397 
0.03231881 0.02355593 0.00920211 0.00209445 0.00069132 0.00146565 0.00939123 0.00135531 0.01205382 0.00121038 0.00132778 0.01598108 0.00549079 0.00124391 0.00211906 0.00128291 
0.03214930 0.02370549 0.00923857 0.00204636 0.00069872 0.00146301 0.00956566 0.00135151 0.01198437 0.00123574 0.00135914 0.01661588 0.00538419 0.00127269 0.00213945 0.00128201 
0.03191216 0.02385136 0.00926605 0.00199829 0.00070643 0.00146130 0.00973795 0.00135145 0.01192516 0.00126366 0.00139263 0.01724236 0.00527237 0.00130168 0.00215844 0.00128128 
0.03160591 0.02399342 0.00928475 0.00195043 0.00071441 0.00146055 0.00990730 0.00135527 0.01187665 0.00129409 0.00142819 0.01785812 0.00515571 0.00133079 0.00217598 0.00128074 
0.03122971 0.02413158 0.00929490 0.00190294 0.00072262 0.00146076 0.01007293 0.00136309 0.01183930 0.00132697 0.00146574 0.01846079 0.00503462 0.00135988 0.00219207 0.00128040 
0.03078336 0.02426576 0.00929681 0.00185599 0.00073104 0.00146194 0.01023403 0.00137500 0.01181349 0.00136224 0.00150521 0.01904811 0.00490949 0.00138884 0.00220667 0.00128026 
0.03026731 0.02439588 0.00929079 0.00180975 0.00073961 0.00146409 0.01038982 0.00139109 0.01179954 0.00139982 0.00154648 0.01961791 0.00478078 0.00141758 0.00221978 0.00128036 
0.02968267 0.02452192 0.00927720 0.00176438 0.00074830 0.00146722 0.01053951 0.00141140 0.01179775 0.00143960 0.00158945 0.02016810 0.00464893 0.00144597 0.00223141 0.00128068 
0.02903119 0.02464385 0.00925644 0.00172003 0.00075708 0.00147132 0.01068236 0.00143596 0.01180834 0.00148150 0.00163401 0.02069674 0.00451441 0.00147391 0.00224157 0.00128124 
0.02831528 0.02476168 0.00922893 0.00167686 0.00076592 0.00147639 0.01081760 0.00146479 0.01183147 0.00152540 0.00168001 0.02120197 0.00437772 0.00150132 0.00225028 0.00128205 
0.02753800 0.02487544 0.00919512 0.00163501 0.00077477 0.00148240 0.01094453 0.00149788 0.01186728 0.00157117 0.00172733 0.02168211 0.00423935 0.00152809 0.00225757 0.00128310 
0.02670303 0.02498517 0.00915546 0.00159462 0.00078361 0.00148935 0.01106246 0.00153518 0.01191581 0.00161869 0.00177579 0.02213556 0.00409982 0.00155413 0.00226350 0.00128442 
0.02581466 0.02509096 0.00911045 0.00155584 0.00079240 0.00149722 0.01117072 0.00157663 0.01197707 0.00166780 0.00182526 0.02256091 0.00395965 0.00157937 0.00226810 0.00128598 
0.02487779 0.02519291 0.00906058 0.00151879 0.00080113 0.00150598 0.01126871 0.00162216 0.01205103 0.00171836 0.00187556 0.02295689 0.00381940 0.00160372 0.00227144 0.00128780 
0.02389788 0.02529116 0.00900634 0.00148358 0.00080975 0.00151562 0.01135585 0.00167164 0.01213757 0.00177021 0.00192652 0.02332236 0.00367959 0.00162710 0.00227359 0.00128988 
0.02288093 0.02538587 0.00894824 0.00145034 0.00081825 0.00152610 0.01143161 0.00172494 0.01223654 0.00182317 0.00197796 0.02365637 0.00354079 0.00164946 0.00227463 0.00129220 
0.02183345 0.02547722 0.00888679 0.00141917 0.00082661 0.00153741 0.01149552 0.00178192 0.01234774 0.00187709 0.00202969 0.02395811 0.00340357 0.00167073 0.00227465 0.00129477 
0.02076243 0.02556545 0.00882249 0.00139017 0.00083480 0.00154951 0.01154716 0.00184239 0.01247092 0.00193177 0.00208153 0.02422696 0.00326847 0.00169085 0.00227374 0.00129757 
0.01967529 0.02565081 0.00875584 0.00136343 0.00084280 0.00156237 0.01158618 0.00190614 0.01260576 0.00198703 0.00213329 0.02446246 0.00313609 0.00170979 0.00227200 0.00130059 
0.01857985 0.02573357 0.00868732 0.00133903 0.00085059 0.00157597 0.01161226 0.00197297 0.01275191 0.00204269 0.00218477 0.02466430 0.00300699 0.00172748 0.00226953 0.00130384 
0.01748427 0.02581405 0.00861740 0.00131704 0.00085816 0.00159027 0.01162519 0.00204263 0.01290897 0.00209855 0.00223579 0.02483237 0.00288174 0.00174391 0.00226647 0.00130728 
0.01639702 0.02589259 0.00854653 0.00129753 0.00086550 0.00160524 0.01162480 0.00211486 0.01307649 0.00215441 0.00228616 0.02496670 0.00276091 0.00175903 0.00226291 0.00131091 
0.01532682 0.02596956 0.00847515 0.00128055 0.00087259 0.00162085 0.01161100 0.00218938 0.01325399 0.00221009 0.00233567 0.02506750 0.00264507 0.00177284 0.00225898 0.00131471 
0.01428259 0.02604536 0.00840366 0.00126615 0.00087943 0.00163708 0.01158377 0.00226591 0.01344093 0.00226538 0.00238416 0.02513516 0.00253478 0.00178530 0.00225482 0.00131866 
0.01327340 0.02612042 0.00833245 0.00125436 0.00088600 0.00165390 0.01154317 0.00234414 0.01363673 0.00232010 0.00243144 0.02517020 0.00243061 0.00179642 0.00225054 0.00132274 
0.01230841 0.02619519 0.00826188 0.00124522 0.00089230 0.00167127 0.01148933 0.00242376 0.01384080 0.00237404 0.00247733 0.02517332 0.00233309 0.00180618 0.00224629 0.00132693 
0.01139680 0.02627014 0.00819227 0.00123875 0.00089833 0.00168917 0.01142247 0.00250443 0.01405248 0.00242702 0.00252167 0.02514537 0.00224278 0.00181461 0.00224219 0.00133121 
0.01054774 0.02634579 0.00812392 0.00123495 0.00090407 0.00170758 0.01134288 0.00258584 0.01427109 0.00247885 0.00256429 0.02508734 0.00216018 0.00182169 0.00223838 0.00133554 
0.00977033 0.02642263 0.00805710 0.00123383 0.00090954 0.00172648 0.01125091 0.00266763 0.01449591 0.00252935 0.00260505 0.02500036 0.00208583 0.00182746 0.00223499 0.00133991 
0.00907349 0.02650121 0.00799203 0.00123538 0.00091472 0.00174584 0.01114702 0.00274947 0.01472619 0.00257834 0.00264380 0.02488570 0.00202020 0.00183194 0.00223214 0.00134428 
0.00846599 0.02658208 0.00792892 0.00123959 0.00091962 0.00176563 0.01103172 0.00283102 0.01496117 0.00262565 0.00268041 0.02474475 0.00196379 0.00183516 0.00222999 0.00134864 
0.00795630 0.02666580 0.00786793 0.00124643 0.00092424 0.00178585 0.01090561 0.00291193 0.01520002 0.00267113 0.00271477 0.02457902 0.00191705 0.00183715 0.00222864 0.00135294 
0.00755261 0.02675293 0.00780919 0.00125588 0.00092858 0.00180648 0.01076936 0.00299187 0.01544193 0.00271461 0.00274676 0.02439013 0.00188042 0.00183795 0.00222822 0.00135716 
0.00726271 0.02684404 0.00775280 0.00126788 0.00093265 0.00182750 0.01062369 0.00307050 0.01568603 0.00275596 0.00277629 0.02417978 0.00185431 0.00183762 0.00222886 0.00136126 
0.00709399 0.02693972 0.00769882 0.00128241 0.00093644 0.00184890 0.01046941 0.00314751 0.01593144 0.00279504 0.00280329 0.02394979 0.00183912 0.00183620 0.00223066 0.00136522 
0.00705336 0.02704051 0.00764729 0.00129939 0.00093998 0.00187067 0.01030739 0.00322258 0.01617727 0.00283172 0.00282769 0.02370203 0.00183520 0.00183376 0.00223374 0.00136901 
0.00714717 0.02714699 0.00759820 0.00131878 0.00094325 0.00189279 0.01013856 0.00329542 0.01642260 0.00286590 0.00284943 0.02343845 0.00184288 0.00183035 0.00223821 0.00137259 
0.00738124 0.02725969 0.00755153 0.00134050 0.00094627 0.00191526 0.00996388 0.00336574 0.01666649 0.00289747 0.00286849 0.02316105 0.00186247 0.00182605 0.00224415 0.00137593 
0.00776074 0.02737914 0.00750722 0.00136446 0.00094904 0.00193807 0.00978440 0.00343327 0.01690799 0.00292635 0.00288483 0.02287188 0.00189423 0.00182093 0.00225166 0.00137900 
0.00829018 0.02750586 0.00746519 0.00139060 0.00095157 0.00196122 0.00960117 0.00349777 0.01714614 0.00295247 0.00289846 0.02257301 0.00193839 0.00181507 0.00226082 0.00138177 
