0.04793623 0.00454005 0.00659308 0.00131247 0.00047538 0.00186645 0.00243140 0.00129016 0.00487660 0.00152653 0.00198613 0.00111264 0.00126084 0.00165970 0.00257764 0.00128689 
0.04923028 0.00460388 0.00655061 0.00132554 0.00047125 0.00175860 0.00248484 0.00128064 0.00471331 0.00149992 0.00199147 0.00108991 0.00120328 0.00162622 0.00247819 0.00128688 
0.05055436 0.00467069 0.00650192 0.00134021 0.00046823 0.00165245 0.00253942 0.00127232 0.00454604 0.00147410 0.00199412 0.00106814 0.00114665 0.00159067 0.00238129 0.00128683 
0.05190242 0.00474027 0.00644733 0.00135635 0.00046628 0.00154838 0.00259516 0.00126519 0.00437593 0.00144920 0.00199407 0.00104736 0.00109114 0.00155319 0.00228714 0.00128675 
0.05326829 0.00481239 0.00638718 0.00137383 0.00046534 0.00144674 0.00265207 0.00125921 0.00420424 0.00142534 0.00199137 0.00102757 0.00103693 0.00151390 0.00219596 0.00128662 
0.05464575 0.00488683 0.00632184 0.00139252 0.00046535 0.00134788 0.00271018 0.00125437 0.00403229 0.00140262 0.00198607 0.00100878 0.00098421 0.00147296 0.00210793 0.00128644 
0.05602854 0.00496335 0.00625171 0.00141225 0.00046625 0.00125213 0.00276950 0.00125065 0.00386150 0.00138114 0.00197822 0.00099097 0.00093314 0.00143051 0.00202319 0.00128623 
0.05741041 0.00504169 0.00617720 0.00143289 0.00046798 0.00115979 0.00283005 0.00124802 0.00369333 0.00136099 0.00196792 0.00097414 0.00088391 0.00138672 0.00194191 0.00128596 
0.05878516 0.00512161 0.00609874 0.00145426 0.00047048 0.00107116 0.00289187 0.00124646 0.00352933 0.00134228 0.00195524 0.00095825 0.00083668 0.00134176 0.00186420 0.00128565 
0.06014663 0.00520284 0.00601677 0.00147621 0.00047369 0.00098653 0.00295496 0.00124595 0.00337110 0.00132507 0.00194029 0.00094328 0.00079159 0.00129580 0.00179016 0.00128528 
0.06148882 0.00528513 0.00593176 0.00149856 0.00047753 0.00090616 0.00301937 0.00124648 0.00322028 0.00130944 0.00192318 0.00092919 0.00074881 0.00124902 0.00171989 0.00128487 
0.06280583 0.00536821 0.00584418 0.00152114 0.00048194 0.00083027 0.00308512 0.00124803 0.00307854 0.00129547 0.00190406 0.00091593 0.00070848 0.00120159 0.00165345 0.00128441 
0.06409194 0.00545183 0.00575450 0.00154378 0.00048685 0.00075910 0.00315222 0.00125058 0.00294760 0.00128321 0.00188304 0.00090345 0.00067073 0.00115371 0.00159090 0.00128390 
0.06534164 0.00553574 0.00566322 0.00156630 0.00049220 0.00069284 0.00322072 0.00125412 0.00282918 0.00127272 0.00186029 0.00089170 0.00063569 0.00110555 0.00153227 0.00128334 
0.06654962 0.00561970 0.00557080 0.00158854 0.00049792 0.00063168 0.00329063 0.00125864 0.00272503 0.00126405 0.00183596 0.00088061 0.00060348 0.00105730 0.00147758 0.00128273 
0.06771084 0.00570346 0.00547776 0.00161032 0.00050396 0.00057576 0.00336198 0.00126413 0.00263687 0.00125723 0.00181023 0.00087012 0.00057421 0.00100913 0.00142684 0.00128209 
0.06882054 0.00578680 0.00538456 0.00163147 0.00051024 0.00052522 0.00343478 0.00127058 0.00256641 0.00125232 0.00178326 0.00086015 0.00054798 0.00096124 0.00138003 0.00128140 
0.06987423 0.00586951 0.00529170 0.00165183 0.00051671 0.00048018 0.00350907 0.00127799 0.00251536 0.00124933 0.00175524 0.00085064 0.00052488 0.00091379 0.00133712 0.00128067 
0.07086776 0.00595138 0.00519963 0.00167124 0.00052332 0.00044073 0.00358484 0.00128636 0.00248536 0.00124828 0.00172636 0.00084149 0.00050501 0.00086696 0.00129809 0.00127991 
0.07179730 0.00603223 0.00510884 0.00168955 0.00053001 0.00040694 0.00366212 0.00129568 0.00247802 0.00124920 0.00169681 0.00083264 0.00048843 0.00082090 0.00126288 0.00127911 
0.07265936 0.00611189 0.00501977 0.00170662 0.00053673 0.00037885 0.00374091 0.00130595 0.00249487 0.00125209 0.00166679 0.00082400 0.00047521 0.00077579 0.00123142 0.00127830 
0.07345081 0.00619020 0.00493285 0.00172231 0.00054343 0.00035650 0.00382122 0.00131718 0.00253740 0.00125696 0.00163650 0.00081550 0.00046541 0.00073178 0.00120365 0.00127746 
0.07416888 0.00626703 0.00484852 0.00173650 0.00055008 0.00033989 0.00390304 0.00132937 0.00260699 0.00126380 0.00160615 0.00080705 0.00045907 0.00068900 0.00117948 0.00127661 
0.07481119 0.00634226 0.00476716 0.00174907 0.00055663 0.00032899 0.00398638 0.00134252 0.00270492 0.00127260 0.00157592 0.00079858 0.00045624 0.00064759 0.00115882 0.00127575 
0.07537572 0.00641580 0.00468917 0.00175991 0.00056305 0.00032379 0.00407123 0.00135664 0.00283237 0.00128335 0.00154603 0.00079002 0.00045694 0.00060768 0.00114157 0.00127489 
0.07586084 0.00648757 0.00461491 0.00176894 0.00056930 0.00032421 0.00415756 0.00137173 0.00299041 0.00129603 0.00151667 0.00078128 0.00046119 0.00056938 0.00112763 0.00127403 
0.07626529 0.00655751 0.00454472 0.00177607 0.00057537 0.00033018 0.00424536 0.00138779 0.00317999 0.00131061 0.00148803 0.00077232 0.00046900 0.00053280 0.00111688 0.00127319 
0.07658820 0.00662558 0.00447890 0.00178125 0.00058124 0.00034161 0.00433461 0.00140482 0.00340188 0.00132706 0.00146032 0.00076306 0.00048037 0.00049803 0.00110919 0.00127236 
0.07682904 0.00669177 0.00441776 0.00178441 0.00058687 0.00035839 0.00442528 0.00142284 0.00365676 0.00134534 0.00143372 0.00075345 0.00049529 0.00046516 0.00110446 0.00127156 
0.07698770 0.00675609 0.00436154 0.00178553 0.00059227 0.00038037 0.00451734 0.00144184 0.00394511 0.00136541 0.00140840 0.00074345 0.00051375 0.00043425 0.00110254 0.00127080 
0.07706436 0.00681854 0.00431049 0.00178457 0.00059743 0.00040742 0.00461074 0.00146182 0.00426727 0.00138721 0.00138455 0.00073302 0.00053571 0.00040536 0.00110331 0.00127009 
0.07705960 0.00687917 0.00426480 0.00178154 0.00060233 0.00043936 0.00470544 0.00148277 0.00462341 0.00141070 0.00136232 0.00072214 0.00056115 0.00037854 0.00110662 0.00126942 
0.07697431 0.00693804 0.00422466 0.00177645 0.00060699 0.00047602 0.00480140 0.00150470 0.00501352 0.00143581 0.00134188 0.00071079 0.00059001 0.00035382 0.00111235 0.00126881 
0.07680969 0.00699521 0.00419022 0.00176931 0.00061140 0.00051720 0.00489857 0.00152759 0.00543742 0.00146248 0.00132337 0.00069896 0.00062225 0.00033123 0.00112035 0.00126828 
0.07656726 0.00705078 0.00416159 0.00176018 0.00061557 0.00056268 0.00499690 0.00155144 0.00589473 0.00149064 0.00130692 0.00068666 0.00065779 0.00031077 0.00113047 0.00126781 
0.07624882 0.00710484 0.00413886 0.00174910 0.00061953 0.00061226 0.00509633 0.00157622 0.00638491 0.00152023 0.00129266 0.00067393 0.00069658 0.00029244 0.00114259 0.00126744 
0.07585645 0.00715750 0.00412210 0.00173614 0.00062328 0.00066569 0.00519680 0.00160193 0.00690720 0.00155115 0.00128071 0.00066078 0.00073853 0.00027624 0.00115654 0.00126715 
0.07539247 0.00720889 0.00411135 0.00172141 0.00062684 0.00072272 0.00529825 0.00162853 0.00746069 0.00158334 0.00127115 0.00064729 0.00078355 0.00026213 0.00117220 0.00126696 
0.07485944 0.00725914 0.00410660 0.00170499 0.00063024 0.00078310 0.00540063 0.00165600 0.00804425 0.00161670 0.00126409 0.00063351 0.00083155 0.00025008 0.00118942 0.00126687 
0.07426012 0.00730837 0.00410784 0.00168700 0.00063350 0.00084656 0.00550388 0.00168432 0.00865658 0.00165114 0.00125958 0.00061953 0.00088242 0.00024006 0.00120804 0.00126690 
0.07359748 0.00735673 0.00411502 0.00166758 0.00063665 0.00091283 0.00560793 0.00171344 0.00929622 0.00168658 0.00125769 0.00060545 0.00093606 0.00023200 0.00122794 0.00126705 
0.07287465 0.00740436 0.00412807 0.00164687 0.00063972 0.00098162 0.00571274 0.00174332 0.00996149 0.00172291 0.00125847 0.00059140 0.00099234 0.00022584 0.00124897 0.00126732 
0.07209493 0.00745141 0.00414690 0.00162503 0.00064275 0.00105265 0.00581824 0.00177393 0.01065058 0.00176004 0.00126194 0.00057752 0.00105114 0.00022151 0.00127099 0.00126771 
0.07126174 0.00749801 0.00417140 0.00160222 0.00064577 0.00112562 0.00592440 0.00180520 0.01136149 0.00179786 0.00126813 0.00056396 0.00111232 0.00021894 0.00129387 0.00126824 
0.07037862 0.00754431 0.00420142 0.00157863 0.00064882 0.00120023 0.00603115 0.00183709 0.01209207 0.00183628 0.00127702 0.00055089 0.00117574 0.00021804 0.00131746 0.00126890 
0.06944919 0.00759043 0.00423681 0.00155444 0.00065192 0.00127618 0.00613845 0.00186954 0.01284004 0.00187519 0.00128861 0.00053853 0.00124126 0.00021871 0.00134163 0.00126970 
0.06847717 0.00763650 0.00427740 0.00152987 0.00065513 0.00135316 0.00624628 0.00190248 0.01360295 0.00191448 0.00130287 0.00052707 0.00130872 0.00022087 0.00136625 0.00127064 
0.06746633 0.00768263 0.00432300 0.00150510 0.00065849 0.00143087 0.00635459 0.00193585 0.01437825 0.00195403 0.00131975 0.00051677 0.00137796 0.00022441 0.00139118 0.00127172 
0.06642046 0.00772894 0.00437340 0.00148036 0.00066202 0.00150901 0.00646337 0.00196957 0.01516327 0.00199375 0.00133921 0.00050786 0.00144882 0.00022923 0.00141631 0.00127294 
0.06534341 0.00777551 0.00442838 0.00145588 0.00066577 0.00158726 0.00657259 0.00200356 0.01595525 0.00203353 0.00136118 0.00050063 0.00152112 0.00023522 0.00144149 0.00127430 
0.06423902 0.00782243 0.00448773 0.00143186 0.00066978 0.00166532 0.00668224 0.00203776 0.01675131 0.00207324 0.00138557 0.00049537 0.00159470 0.00024228 0.00146661 0.00127580 
0.06311113 0.00786977 0.00455119 0.00140855 0.00067408 0.00174290 0.00679233 0.00207207 0.01754854 0.00211279 0.00141229 0.00049238 0.00166935 0.00025030 0.00149155 0.00127744 
0.06196355 0.00791757 0.00461853 0.00138618 0.00067872 0.00181969 0.00690284 0.00210642 0.01834396 0.00215206 0.00144123 0.00049199 0.00174491 0.00025916 0.00151618 0.00127920 
0.06080008 0.00796587 0.00468949 0.00136496 0.00068372 0.00189540 0.00701381 0.00214071 0.01913452 0.00219095 0.00147229 0.00049455 0.00182118 0.00026877 0.00154039 0.00128109 
0.05962446 0.00801469 0.00476382 0.00134515 0.00068913 0.00196974 0.00712525 0.00217486 0.01991719 0.00222935 0.00150533 0.00050040 0.00189797 0.00027901 0.00156407 0.00128311 
0.05844041 0.00806403 0.00484127 0.00132695 0.00069498 0.00204245 0.00723719 0.00220878 0.02068890 0.00226716 0.00154022 0.00050994 0.00197508 0.00028979 0.00158710 0.00128523 
0.05725155 0.00811388 0.00492156 0.00131061 0.00070129 0.00211323 0.00734967 0.00224237 0.02144661 0.00230427 0.00157682 0.00052354 0.00205232 0.00030100 0.00160937 0.00128747 
0.05606146 0.00816420 0.00500446 0.00129634 0.00070810 0.00218184 0.00746274 0.00227556 0.02218730 0.00234059 0.00161498 0.00054159 0.00212947 0.00031254 0.00163080 0.00128980 
0.05487365 0.00821494 0.00508968 0.00128435 0.00071544 0.00224802 0.00757645 0.00230823 0.02290800 0.00237602 0.00165454 0.00056452 0.00220635 0.00032433 0.00165126 0.00129223 
0.05369153 0.00826605 0.00517699 0.00127485 0.00072331 0.00231153 0.00769086 0.00234032 0.02360577 0.00241047 0.00169533 0.00059273 0.00228274 0.00033629 0.00167067 0.00129473 
0.05251845 0.00831744 0.00526614 0.00126805 0.00073176 0.00237213 0.00780605 0.00237174 0.02427780 0.00244384 0.00173720 0.00062666 0.00235844 0.00034832 0.00168893 0.00129731 
0.05135764 0.00836901 0.00535688 0.00126412 0.00074079 0.00242962 0.00792208 0.00240239 0.02492133 0.00247607 0.00177997 0.00066673 0.00243325 0.00036035 0.00170596 0.00129994 
0.05021228 0.00842068 0.00544897 0.00126325 0.00075043 0.00248378 0.00803903 0.00243219 0.02553374 0.00250706 0.00182347 0.00071337 0.00250698 0.00037233 0.00172166 0.00130262 
0.04908543 0.00847231 0.00554218 0.00126560 0.00076068 0.00253444 0.00815699 0.00246108 0.02611253 0.00253675 0.00186752 0.00076702 0.00257940 0.00038418 0.00173597 0.00130534 
0.04798006 0.00852378 0.00563630 0.00127132 0.00077155 0.00258141 0.00827604 0.00248898 0.02665533 0.00256506 0.00191196 0.00082813 0.00265034 0.00039586 0.00174880 0.00130807 
0.04689906 0.00857497 0.00573110 0.00128054 0.00078305 0.00262453 0.00839627 0.00251581 0.02715994 0.00259193 0.00195661 0.00089711 0.00271960 0.00040731 0.00176010 0.00131082 
0.04584520 0.00862573 0.00582640 0.00129340 0.00079518 0.00266367 0.00851777 0.00254153 0.02762432 0.00261732 0.00200130 0.00097440 0.00278697 0.00041851 0.00176978 0.00131356 
0.04482117 0.00867593 0.00592199 0.00130999 0.00080795 0.00269869 0.00864061 0.00256606 0.02804664 0.00264115 0.00204586 0.00106041 0.00285229 0.00042942 0.00177780 0.00131628 
0.04382957 0.00872543 0.00601769 0.00133040 0.00082134 0.00272950 0.00876489 0.00258937 0.02842524 0.00266340 0.00209012 0.00115557 0.00291536 0.00044003 0.00178410 0.00131896 
0.04287290 0.00877410 0.00611334 0.00135471 0.00083536 0.00275600 0.00889068 0.00261141 0.02875866 0.00268403 0.00213394 0.00126025 0.00297601 0.00045031 0.00178864 0.00132160 
0.04195356 0.00882180 0.00620877 0.00138295 0.00084998 0.00277811 0.00901805 0.00263214 0.02904569 0.00270299 0.00217715 0.00137486 0.00303408 0.00046026 0.00179138 0.00132417 
0.04107386 0.00886842 0.00630384 0.00141516 0.00086520 0.00279579 0.00914707 0.00265155 0.02928531 0.00272028 0.00221961 0.00149974 0.00308940 0.00046988 0.00179228 0.00132667 
0.04023601 0.00891384 0.00639842 0.00145135 0.00088101 0.00280901 0.00927778 0.00266961 0.02947675 0.00273586 0.00226117 0.00163526 0.00314183 0.00047919 0.00179133 0.00132908 
0.03944215 0.00895798 0.00649237 0.00149152 0.00089737 0.00281773 0.00941025 0.00268632 0.02961947 0.00274974 0.00230171 0.00178173 0.00319121 0.00048820 0.00178850 0.00133139 
0.03869431 0.00900076 0.00658558 0.00153563 0.00091427 0.00282198 0.00954448 0.00270167 0.02971318 0.00276190 0.00234110 0.00193945 0.00323742 0.00049694 0.00178379 0.00133358 
0.03799442 0.00904211 0.00667795 0.00158364 0.00093168 0.00282177 0.00968051 0.00271568 0.02975782 0.00277236 0.00237923 0.00210870 0.00328033 0.00050543 0.00177720 0.00133564 
0.03734432 0.00908202 0.00676940 0.00163547 0.00094958 0.00281715 0.00981832 0.00272837 0.02975359 0.00278111 0.00241600 0.00228971 0.00331984 0.00051370 0.00176872 0.00133756 
0.03674578 0.00912047 0.00685983 0.00169103 0.00096793 0.00280816 0.00995790 0.00273976 0.02970093 0.00278817 0.00245130 0.00248269 0.00335585 0.00052182 0.00175838 0.00133933 
0.03620045 0.00915748 0.00694918 0.00175022 0.00098670 0.00279490 0.01009921 0.00274991 0.02960051 0.00279358 0.00248507 0.00268783 0.00338826 0.00052981 0.00174620 0.00134093 
0.03570989 0.00919311 0.00703740 0.00181290 0.00100585 0.00277746 0.01024220 0.00275885 0.02945328 0.00279735 0.00251721 0.00290525 0.00341701 0.00053773 0.00173221 0.00134237 
0.03527555 0.00922744 0.00712442 0.00187892 0.00102534 0.00275595 0.01038677 0.00276666 0.02926039 0.00279952 0.00254768 0.00313506 0.00344204 0.00054563 0.00171645 0.00134362 
0.03489879 0.00926061 0.00721021 0.00194811 0.00104514 0.00273051 0.01053283 0.00277339 0.02902324 0.00280013 0.00257643 0.00337732 0.00346330 0.00055358 0.00169898 0.00134468 
0.03458087 0.00929277 0.00729474 0.00202029 0.00106520 0.00270127 0.01068024 0.00277914 0.02874345 0.00279922 0.00260340 0.00363204 0.00348076 0.00056163 0.00167984 0.00134554 
0.03432292 0.00932412 0.00737798 0.00209526 0.00108548 0.00266841 0.01082886 0.00278398 0.02842285 0.00279685 0.00262859 0.00389920 0.00349441 0.00056985 0.00165911 0.00134620 
0.03412598 0.00935491 0.00745992 0.00217279 0.00110593 0.00263210 0.01097849 0.00278803 0.02806348 0.00279308 0.00265196 0.00417874 0.00350425 0.00057830 0.00163686 0.00134666 
0.03399095 0.00938541 0.00754055 0.00225265 0.00112650 0.00259254 0.01112893 0.00279137 0.02766759 0.00278795 0.00267352 0.00447052 0.00351030 0.00058704 0.00161318 0.00134690 
0.03391861 0.00941595 0.00761987 0.00233459 0.00114716 0.00254993 0.01127996 0.00279414 0.02723759 0.00278154 0.00269327 0.00477439 0.00351259 0.00059613 0.00158815 0.00134693 
0.03390963 0.00944691 0.00769789 0.00241834 0.00116784 0.00250448 0.01143130 0.00279645 0.02677607 0.00277390 0.00271122 0.00509013 0.00351117 0.00060564 0.00156188 0.00134674 
0.03396452 0.00947869 0.00777463 0.00250364 0.00118851 0.00245644 0.01158268 0.00279843 0.02628577 0.00276512 0.00272741 0.00541748 0.00350611 0.00061564 0.00153447 0.00134635 
0.03408366 0.00951173 0.00785009 0.00259019 0.00120910 0.00240602 0.01173378 0.00280022 0.02576959 0.00275526 0.00274186 0.00575613 0.00349749 0.00062617 0.00150604 0.00134574 
0.03426728 0.00954655 0.00792432 0.00267771 0.00122959 0.00235349 0.01188426 0.00280196 0.02523052 0.00274440 0.00275462 0.00610572 0.00348540 0.00063729 0.00147672 0.00134492 
0.03451546 0.00958367 0.00799734 0.00276589 0.00124990 0.00229909 0.01203377 0.00280380 0.02467169 0.00273261 0.00276574 0.00646584 0.00346998 0.00064906 0.00144662 0.00134389 
0.03482811 0.00962366 0.00806919 0.00285443 0.00127000 0.00224309 0.01218192 0.00280589 0.02409630 0.00271998 0.00277529 0.00683604 0.00345134 0.00066153 0.00141590 0.00134266 
0.03520499 0.00966714 0.00813992 0.00294301 0.00128983 0.00218575 0.01232831 0.00280839 0.02350764 0.00270658 0.00278333 0.00721582 0.00342964 0.00067473 0.00138468 0.00134124 
0.03564566 0.00971474 0.00820958 0.00303132 0.00130935 0.00212735 0.01247251 0.00281145 0.02290902 0.00269249 0.00278993 0.00760462 0.00340504 0.00068870 0.00135311 0.00133964 
0.03614951 0.00976714 0.00827824 0.00311905 0.00132851 0.00206816 0.01261408 0.00281522 0.02230383 0.00267779 0.00279518 0.00800185 0.00337773 0.00070348 0.00132135 0.00133785 
0.03671576 0.00982503 0.00834594 0.00320589 0.00134727 0.00200844 0.01275258 0.00281988 0.02169544 0.00266256 0.00279915 0.00840688 0.00334789 0.00071910 0.00128954 0.00133590 
0.03734342 0.00988916 0.00841277 0.00329151 0.00136558 0.00194848 0.01288752 0.00282558 0.02108724 0.00264689 0.00280194 0.00881903 0.00331573 0.00073557 0.00125786 0.00133379 
0.03803130 0.00996025 0.00847881 0.00337562 0.00138340 0.00188854 0.01301844 0.00283247 0.02048259 0.00263084 0.00280363 0.00923758 0.00328149 0.00075291 0.00122646 0.00133154 
0.03877803 0.01003907 0.00854412 0.00345790 0.00140069 0.00182891 0.01314486 0.00284071 0.01988481 0.00261450 0.00280433 0.00966179 0.00324539 0.00077113 0.00119550 0.00132915 
0.03958202 0.01012639 0.00860881 0.00353808 0.00141741 0.00176983 0.01326628 0.00285045 0.01929717 0.00259793 0.00280413 0.01009086 0.00320768 0.00079022 0.00116515 0.00132664 
0.04044147 0.01022300 0.00867298 0.00361585 0.00143353 0.00171157 0.01338221 0.00286184 0.01872287 0.00258123 0.00280312 0.01052399 0.00316863 0.00081018 0.00113557 0.00132403 
0.04135437 0.01032965 0.00873673 0.00369095 0.00144900 0.00165439 0.01349219 0.00287502 0.01816499 0.00256444 0.00280140 0.01096034 0.00312850 0.00083100 0.00110694 0.00132133 
0.04231851 0.01044714 0.00880017 0.00376312 0.00146380 0.00159853 0.01359572 0.00289013 0.01762654 0.00254765 0.00279906 0.01139903 0.00308756 0.00085265 0.00107941 0.00131855 
0.04333145 0.01057621 0.00886343 0.00383209 0.00147791 0.00154424 0.01369235 0.00290728 0.01711038 0.00253092 0.00279621 0.01183920 0.00304612 0.00087512 0.00105315 0.00131572 
0.04439056 0.01071762 0.00892664 0.00389765 0.00149128 0.00149172 0.01378162 0.00292659 0.01661924 0.00251430 0.00279293 0.01227994 0.00300446 0.00089835 0.00102833 0.00131284 
0.04549298 0.01087209 0.00898993 0.00395956 0.00150391 0.00144121 0.01386310 0.00294818 0.01615570 0.00249787 0.00278931 0.01272034 0.00296289 0.00092233 0.00100509 0.00130994 
0.04663566 0.01104031 0.00905346 0.00401764 0.00151577 0.00139292 0.01393639 0.00297215 0.01572216 0.00248168 0.00278544 0.01315949 0.00292170 0.00094699 0.00098360 0.00130702 
0.04781534 0.01122294 0.00911739 0.00407168 0.00152685 0.00134702 0.01400109 0.00299857 0.01532086 0.00246577 0.00278139 0.01359647 0.00288121 0.00097229 0.00096401 0.00130411 
0.04902856 0.01142060 0.00918189 0.00412154 0.00153712 0.00130370 0.01405686 0.00302751 0.01495383 0.00245021 0.00277725 0.01403038 0.00284174 0.00099818 0.00094645 0.00130123 
0.05027169 0.01163386 0.00924713 0.00416706 0.00154659 0.00126313 0.01410336 0.00305905 0.01462294 0.00243503 0.00277308 0.01446030 0.00280358 0.00102459 0.00093108 0.00129838 
0.05154088 0.01186324 0.00931332 0.00420813 0.00155523 0.00122545 0.01414032 0.00309322 0.01432980 0.00242027 0.00276896 0.01488534 0.00276706 0.00105145 0.00091801 0.00129559 
0.05283214 0.01210919 0.00938064 0.00424464 0.00156306 0.00119080 0.01416748 0.00313006 0.01407585 0.00240598 0.00276493 0.01530462 0.00273248 0.00107870 0.00090738 0.00129287 
0.05414132 0.01237211 0.00944932 0.00427651 0.00157007 0.00115931 0.01418465 0.00316958 0.01386229 0.00239219 0.00276105 0.01571729 0.00270015 0.00110626 0.00089931 0.00129023 
0.05546410 0.01265233 0.00951958 0.00430369 0.00157626 0.00113106 0.01419166 0.00321179 0.01369010 0.00237893 0.00275737 0.01612252 0.00267037 0.00113407 0.00089390 0.00128769 
0.05679603 0.01295010 0.00959166 0.00432614 0.00158163 0.00110616 0.01418840 0.00325665 0.01356003 0.00236623 0.00275392 0.01651952 0.00264344 0.00116205 0.00089126 0.00128526 
0.05813255 0.01326558 0.00966580 0.00434385 0.00158620 0.00108466 0.01417482 0.00330416 0.01347260 0.00235411 0.00275073 0.01690751 0.00261964 0.00119011 0.00089147 0.00128296 
0.05946899 0.01359885 0.00974226 0.00435683 0.00158998 0.00106662 0.01415089 0.00335424 0.01342810 0.00234258 0.00274783 0.01728578 0.00259925 0.00121819 0.00089461 0.00128079 
0.06080057 0.01394991 0.00982132 0.00436512 0.00159298 0.00105208 0.01411667 0.00340684 0.01342660 0.00233168 0.00274523 0.01765366 0.00258254 0.00124621 0.00090076 0.00127878 
0.06212247 0.01431867 0.00990325 0.00436876 0.00159522 0.00104106 0.01407225 0.00346188 0.01346794 0.00232140 0.00274294 0.01801050 0.00256976 0.00127409 0.00090997 0.00127692 
0.06342979 0.01470494 0.00998835 0.00436783 0.00159673 0.00103355 0.01401779 0.00351925 0.01355171 0.00231177 0.00274097 0.01835575 0.00256116 0.00130176 0.00092230 0.00127522 
0.06471761 0.01510841 0.01007691 0.00436244 0.00159752 0.00102955 0.01395350 0.00357884 0.01367732 0.00230277 0.00273929 0.01868886 0.00255697 0.00132916 0.00093777 0.00127370 
0.06598099 0.01552871 0.01016924 0.00435269 0.00159762 0.00102903 0.01387964 0.00364050 0.01384394 0.00229443 0.00273791 0.01900939 0.00255739 0.00135621 0.00095641 0.00127236 
0.06721501 0.01596533 0.01026567 0.00433873 0.00159706 0.00103193 0.01379652 0.00370410 0.01405055 0.00228673 0.00273680 0.01931694 0.00256263 0.00138285 0.00097825 0.00127120 
0.06841476 0.01641769 0.01036651 0.00432070 0.00159586 0.00103820 0.01370454 0.00376947 0.01429592 0.00227967 0.00273592 0.01961116 0.00257285 0.00140902 0.00100327 0.00127023 
0.06957540 0.01688510 0.01047210 0.00429879 0.00159407 0.00104777 0.01360410 0.00383642 0.01457862 0.00227326 0.00273526 0.01989179 0.00258823 0.00143468 0.00103147 0.00126945 
0.07069215 0.01736674 0.01058277 0.00427318 0.00159171 0.00106054 0.01349569 0.00390475 0.01489708 0.00226746 0.00273476 0.02015863 0.00260889 0.00145977 0.00106283 0.00126886 
0.07176035 0.01786172 0.01069886 0.00424406 0.00158882 0.00107641 0.01337983 0.00397427 0.01524950 0.00226229 0.00273439 0.02041156 0.00263496 0.00148426 0.00109731 0.00126846 
0.07277542 0.01836904 0.01082071 0.00421166 0.00158543 0.00109527 0.01325710 0.00404474 0.01563399 0.00225772 0.00273409 0.02065052 0.00266653 0.00150812 0.00113487 0.00126826 
0.07373296 0.01888761 0.01094867 0.00417621 0.00158158 0.00111698 0.01312811 0.00411593 0.01604845 0.00225373 0.00273382 0.02087552 0.00270367 0.00153131 0.00117544 0.00126824 
0.07462871 0.01941623 0.01108307 0.00413793 0.00157731 0.00114141 0.01299352 0.00418759 0.01649069 0.00225030 0.00273351 0.02108665 0.00274644 0.00155381 0.00121897 0.00126840 
0.07545861 0.01995364 0.01122425 0.00409708 0.00157266 0.00116840 0.01285402 0.00425947 0.01695839 0.00224742 0.00273310 0.02128407 0.00279485 0.00157563 0.00126537 0.00126875 
0.07621880 0.02049845 0.01137254 0.00405391 0.00156766 0.00119781 0.01271032 0.00433131 0.01744912 0.00224507 0.00273254 0.02146802 0.00284892 0.00159675 0.00131455 0.00126926 
0.07690566 0.02104924 0.01152826 0.00400867 0.00156236 0.00122946 0.01256318 0.00440283 0.01796035 0.00224320 0.00273175 0.02163880 0.00290862 0.00161719 0.00136642 0.00126994 
0.07751580 0.02160449 0.01169173 0.00396164 0.00155678 0.00126318 0.01241337 0.00447375 0.01848950 0.00224181 0.00273067 0.02179678 0.00297391 0.00163694 0.00142086 0.00127077 
0.07804611 0.02216261 0.01186326 0.00391307 0.00155097 0.00129879 0.01226168 0.00454379 0.01903389 0.00224085 0.00272923 0.02194241 0.00304472 0.00165605 0.00147775 0.00127175 
0.07849377 0.02272195 0.01204312 0.00386323 0.00154497 0.00133609 0.01210891 0.00461267 0.01959081 0.00224030 0.00272737 0.02207618 0.00312095 0.00167453 0.00153697 0.00127287 
0.07885626 0.02328082 0.01223159 0.00381238 0.00153880 0.00137491 0.01195586 0.00468009 0.02015753 0.00224012 0.00272501 0.02219867 0.00320249 0.00169243 0.00159838 0.00127411 
0.07913139 0.02383748 0.01242892 0.00376078 0.00153250 0.00141504 0.01180336 0.00474577 0.02073127 0.00224028 0.00272211 0.02231050 0.00328919 0.00170980 0.00166185 0.00127546 
0.07931727 0.02439015 0.01263535 0.00370870 0.00152612 0.00145629 0.01165220 0.00480942 0.02130927 0.00224075 0.00271858 0.02241236 0.00338090 0.00172667 0.00172721 0.00127691 
0.07941240 0.02493702 0.01285106 0.00365637 0.00151966 0.00149846 0.01150319 0.00487076 0.02188876 0.00224148 0.00271437 0.02250496 0.00347742 0.00174313 0.00179432 0.00127844 
0.07941561 0.02547628 0.01307625 0.00360405 0.00151317 0.00154135 0.01135710 0.00492949 0.02246700 0.00224244 0.00270943 0.02258910 0.00357854 0.00175922 0.00186302 0.00128004 
0.07932610 0.02600609 0.01331106 0.00355198 0.00150667 0.00158476 0.01121469 0.00498536 0.02304128 0.00224358 0.00270370 0.02266559 0.00368405 0.00177504 0.00193313 0.00128170 
0.07914345 0.02652463 0.01355560 0.00350036 0.00150019 0.00162849 0.01107671 0.00503809 0.02360895 0.00224488 0.00269712 0.02273529 0.00379367 0.00179064 0.00200450 0.00128340 
0.07886764 0.02703008 0.01380996 0.00344942 0.00149375 0.00167235 0.01094385 0.00508743 0.02416740 0.00224627 0.00268966 0.02279909 0.00390716 0.00180613 0.00207695 0.00128513 
0.07849899 0.02752065 0.01407417 0.00339936 0.00148736 0.00171615 0.01081679 0.00513312 0.02471411 0.00224773 0.00268127 0.02285790 0.00402422 0.00182158 0.00215031 0.00128687 
0.07803824 0.02799460 0.01434823 0.00335037 0.00148105 0.00175970 0.01069615 0.00517493 0.02524663 0.00224920 0.00267192 0.02291265 0.00414455 0.00183708 0.00222439 0.00128860 
0.07748650 0.02845019 0.01463211 0.00330263 0.00147482 0.00180282 0.01058251 0.00521264 0.02576260 0.00225063 0.00266157 0.02296429 0.00426783 0.00185273 0.00229904 0.00129031 
0.07684529 0.02888579 0.01492573 0.00325628 0.00146869 0.00184533 0.01047640 0.00524604 0.02625977 0.00225199 0.00265021 0.02301377 0.00439373 0.00186862 0.00237407 0.00129199 
0.07611647 0.02929979 0.01522894 0.00321148 0.00146267 0.00188705 0.01037831 0.00527492 0.02673599 0.00225323 0.00263781 0.02306205 0.00452190 0.00188485 0.00244930 0.00129363 
0.07530231 0.02969068 0.01554157 0.00316836 0.00145676 0.00192783 0.01028865 0.00529913 0.02718924 0.00225429 0.00262436 0.02311007 0.00465198 0.00190151 0.00252456 0.00129519 
0.07440540 0.03005704 0.01586339 0.00312702 0.00145097 0.00196750 0.01020779 0.00531850 0.02761762 0.00225513 0.00260986 0.02315879 0.00478363 0.00191869 0.00259969 0.00129668 
0.07342874 0.03039751 0.01619412 0.00308757 0.00144530 0.00200592 0.01013601 0.00533288 0.02801935 0.00225570 0.00259430 0.02320910 0.00491645 0.00193649 0.00267452 0.00129808 
0.07237562 0.03071088 0.01653342 0.00305007 0.00143973 0.00204295 0.01007356 0.00534217 0.02839280 0.00225595 0.00257770 0.02326192 0.00505007 0.00195500 0.00274889 0.00129938 
0.07124968 0.03099603 0.01688090 0.00301460 0.00143427 0.00207846 0.01002060 0.00534626 0.02873647 0.00225583 0.00256007 0.02331809 0.00518412 0.00197429 0.00282262 0.00130057 
0.07005488 0.03125196 0.01723612 0.00298121 0.00142891 0.00211232 0.00997722 0.00534507 0.02904902 0.00225529 0.00254142 0.02337846 0.00531820 0.00199446 0.00289558 0.00130162 
0.06879544 0.03147781 0.01759858 0.00294991 0.00142364 0.00214443 0.00994345 0.00533854 0.02932925 0.00225428 0.00252179 0.02344380 0.00545193 0.00201557 0.00296762 0.00130254 
0.06747588 0.03167284 0.01796773 0.00292072 0.00141844 0.00217468 0.00991925 0.00532665 0.02957610 0.00225275 0.00250120 0.02351485 0.00558492 0.00203769 0.00303859 0.00130332 
0.06610095 0.03183647 0.01834296 0.00289365 0.00141329 0.00220299 0.00990451 0.00530938 0.02978868 0.00225065 0.00247970 0.02359228 0.00571680 0.00206088 0.00310836 0.00130395 
0.06467564 0.03196826 0.01872360 0.00286868 0.00140819 0.00222926 0.00989905 0.00528674 0.02996624 0.00224794 0.00245732 0.02367672 0.00584719 0.00208520 0.00317680 0.00130441 
0.06320514 0.03206792 0.01910895 0.00284577 0.00140310 0.00225344 0.00990263 0.00525876 0.03010818 0.00224455 0.00243412 0.02376872 0.00597571 0.00211069 0.00324379 0.00130471 
0.06169480 0.03213533 0.01949823 0.00282489 0.00139801 0.00227546 0.00991493 0.00522551 0.03021405 0.00224046 0.00241014 0.02386878 0.00610200 0.00213739 0.00330923 0.00130483 
0.06015015 0.03217053 0.01989062 0.00280598 0.00139289 0.00229526 0.00993558 0.00518706 0.03028356 0.00223560 0.00238545 0.02397729 0.00622572 0.00216531 0.00337301 0.00130479 
0.05857681 0.03217370 0.02028526 0.00278898 0.00138773 0.00231283 0.00996414 0.00514351 0.03031657 0.00222995 0.00236011 0.02409461 0.00634651 0.00219448 0.00343503 0.00130456 
0.05698050 0.03214522 0.02068123 0.00277381 0.00138248 0.00232811 0.01000012 0.00509499 0.03031306 0.00222344 0.00233418 0.02422099 0.00646405 0.00222489 0.00349521 0.00130416 
0.05536703 0.03208560 0.02107758 0.00276038 0.00137714 0.00234111 0.01004299 0.00504164 0.03027318 0.00221605 0.00230772 0.02435660 0.00657802 0.00225654 0.00355347 0.00130358 
0.05374221 0.03199553 0.02147330 0.00274860 0.00137166 0.00235180 0.01009214 0.00498362 0.03019720 0.00220773 0.00228082 0.02450153 0.00668812 0.00228942 0.00360975 0.00130282 
0.05211186 0.03187588 0.02186736 0.00273837 0.00136602 0.00236020 0.01014693 0.00492113 0.03008554 0.00219845 0.00225354 0.02465579 0.00679406 0.00232348 0.00366399 0.00130188 
0.05048179 0.03172765 0.02225869 0.00272959 0.00136020 0.00236631 0.01020669 0.00485436 0.02993872 0.00218816 0.00222596 0.02481928 0.00689559 0.00235869 0.00371614 0.00130078 
0.04885775 0.03155201 0.02264618 0.00272215 0.00135416 0.00237015 0.01027069 0.00478354 0.02975741 0.00217685 0.00219815 0.02499184 0.00699245 0.00239500 0.00376616 0.00129951 
0.04724539 0.03135030 0.02302873 0.00271593 0.00134789 0.00237176 0.01033820 0.00470891 0.02954240 0.00216448 0.00217020 0.02517321 0.00708441 0.00243235 0.00381401 0.00129808 
0.04565027 0.03112397 0.02340517 0.00271082 0.00134135 0.00237117 0.01040845 0.00463071 0.02929457 0.00215103 0.00214217 0.02536303 0.00717127 0.00247065 0.00385968 0.00129650 
0.04407777 0.03087464 0.02377434 0.00270671 0.00133452 0.00236844 0.01048063 0.00454923 0.02901493 0.00213647 0.00211414 0.02556087 0.00725283 0.00250982 0.00390316 0.00129477 
0.04253314 0.03060406 0.02413508 0.00270347 0.00132737 0.00236360 0.01055396 0.00446475 0.02870458 0.00212080 0.00208619 0.02576620 0.00732894 0.00254978 0.00394444 0.00129290 
0.04102141 0.03031411 0.02448620 0.00270101 0.00131989 0.00235673 0.01062761 0.00437755 0.02836471 0.00210399 0.00205840 0.02597843 0.00739945 0.00259040 0.00398352 0.00129091 
0.03954739 0.03000676 0.02482652 0.00269920 0.00131205 0.00234790 0.01070078 0.00428795 0.02799662 0.00208603 0.00203083 0.02619686 0.00746423 0.00263159 0.00402041 0.00128880 
0.03811565 0.02968413 0.02515487 0.00269794 0.00130384 0.00233717 0.01077265 0.00419626 0.02760166 0.00206693 0.00200356 0.02642073 0.00752319 0.00267323 0.00405514 0.00128660 
0.03673048 0.02934840 0.02547008 0.00269713 0.00129524 0.00232464 0.01084242 0.00410280 0.02718129 0.00204668 0.00197666 0.02664922 0.00757626 0.00271517 0.00408773 0.00128430 
0.03539590 0.02900186 0.02577102 0.00269668 0.00128624 0.00231038 0.01090931 0.00400791 0.02673700 0.00202528 0.00195019 0.02688141 0.00762337 0.00275730 0.00411822 0.00128192 
0.03411560 0.02864687 0.02605655 0.00269650 0.00127682 0.00229449 0.01097255 0.00391191 0.02627039 0.00200276 0.00192422 0.02711633 0.00766450 0.00279947 0.00414664 0.00127948 
0.03289296 0.02828586 0.02632558 0.00269650 0.00126698 0.00227707 0.01103140 0.00381514 0.02578306 0.00197913 0.00189881 0.02735297 0.00769964 0.00284154 0.00417305 0.00127699 
0.03173101 0.02792129 0.02657706 0.00269661 0.00125672 0.00225822 0.01108516 0.00371795 0.02527670 0.00195440 0.00187401 0.02759024 0.00772881 0.00288337 0.00419748 0.00127447 
0.03063242 0.02755568 0.02680995 0.00269677 0.00124603 0.00223804 0.01113314 0.00362066 0.02475303 0.00192861 0.00184987 0.02782701 0.00775203 0.00292481 0.00422001 0.00127192 
0.02959951 0.02719157 0.02702329 0.00269691 0.00123492 0.00221663 0.01117472 0.00352362 0.02421380 0.00190180 0.00182645 0.02806213 0.00776936 0.00296572 0.00424070 0.00126938 
0.02863422 0.02683150 0.02721616 0.00269701 0.00122339 0.00219412 0.01120931 0.00342717 0.02366079 0.00187399 0.00180379 0.02829438 0.00778088 0.00300595 0.00425960 0.00126684 
0.02773810 0.02647803 0.02738768 0.00269700 0.00121145 0.00217061 0.01123636 0.00333163 0.02309582 0.00184524 0.00178192 0.02852254 0.00778669 0.00304537 0.00427680 0.00126434 
0.02691232 0.02613368 0.02753706 0.00269688 0.00119912 0.00214621 0.01125539 0.00323733 0.02252070 0.00181560 0.00176090 0.02874537 0.00778690 0.00308383 0.00429235 0.00126187 
0.02615768 0.02580096 0.02766356 0.00269663 0.00118641 0.00212105 0.01126596 0.00314458 0.02193726 0.00178512 0.00174074 0.02896161 0.00778164 0.00312120 0.00430635 0.00125947 
0.02547457 0.02548233 0.02776652 0.00269623 0.00117333 0.00209524 0.01126770 0.00305370 0.02134735 0.00175388 0.00172148 0.02916999 0.00777106 0.00315737 0.00431887 0.00125714 
0.02486303 0.02518020 0.02784533 0.00269568 0.00115993 0.00206890 0.01126028 0.00296499 0.02075280 0.00172194 0.00170314 0.02936927 0.00775533 0.00319220 0.00432999 0.00125489 
0.02432268 0.02489690 0.02789950 0.00269501 0.00114621 0.00204215 0.01124345 0.00287873 0.02015543 0.00168938 0.00168574 0.02955819 0.00773464 0.00322560 0.00433979 0.00125275 
0.02385281 0.02463468 0.02792860 0.00269423 0.00113222 0.00201511 0.01121702 0.00279522 0.01955706 0.00165628 0.00166929 0.02973554 0.00770917 0.00325746 0.00434835 0.00125073 
0.02345233 0.02439571 0.02793229 0.00269338 0.00111798 0.00198789 0.01118086 0.00271470 0.01895949 0.00162272 0.00165381 0.02990012 0.00767914 0.00328770 0.00435577 0.00124883 
0.02311982 0.02418204 0.02791031 0.00269249 0.00110354 0.00196062 0.01113489 0.00263744 0.01836449 0.00158880 0.00163930 0.03005077 0.00764477 0.00331625 0.00436212 0.00124708 
0.02285350 0.02399560 0.02786250 0.00269160 0.00108893 0.00193340 0.01107912 0.00256366 0.01777380 0.00155463 0.00162576 0.03018637 0.00760629 0.00334304 0.00436749 0.00124548 
0.02265131 0.02383821 0.02778881 0.00269078 0.00107420 0.00190637 0.01101360 0.00249360 0.01718914 0.00152029 0.00161320 0.03030587 0.00756395 0.00336804 0.00437196 0.00124405 
0.02251087 0.02371152 0.02768924 0.00269008 0.00105939 0.00187962 0.01093845 0.00242746 0.01661217 0.00148590 0.00160162 0.03040826 0.00751801 0.00339121 0.00437562 0.00124279 
0.02242952 0.02361707 0.02756392 0.00268956 0.00104456 0.00185328 0.01085386 0.00236543 0.01604452 0.00145157 0.00159100 0.03049262 0.00746871 0.00341254 0.00437854 0.00124171 
0.02240435 0.02355621 0.02741308 0.00268929 0.00102975 0.00182745 0.01076007 0.00230768 0.01548778 0.00141742 0.00158133 0.03055808 0.00741633 0.00343203 0.00438081 0.00124083 
0.02243222 0.02353015 0.02723701 0.00268936 0.00101501 0.00180225 0.01065737 0.00225436 0.01494346 0.00138356 0.00157260 0.03060387 0.00736115 0.00344971 0.00438250 0.00124015 
0.02250977 0.02353991 0.02703612 0.00268983 0.00100041 0.00177777 0.01054611 0.00220562 0.01441305 0.00135011 0.00156480 0.03062930 0.00730344 0.00346560 0.00438369 0.00123967 
0.02263347 0.02358634 0.02681090 0.00269078 0.00098599 0.00175412 0.01042669 0.00216156 0.01389796 0.00131721 0.00155790 0.03063379 0.00724349 0.00347978 0.00438445 0.00123940 
0.02279962 0.02367012 0.02656194 0.00269229 0.00097182 0.00173140 0.01029957 0.00212229 0.01339952 0.00128497 0.00155188 0.03061684 0.00718159 0.00349230 0.00438485 0.00123935 
0.02300440 0.02379172 0.02628991 0.00269443 0.00095794 0.00170971 0.01016523 0.00208788 0.01291903 0.00125351 0.00154673 0.03057807 0.00711802 0.00350326 0.00438496 0.00123950 
0.02324387 0.02395144 0.02599557 0.00269729 0.00094443 0.00168913 0.01002421 0.00205840 0.01245768 0.00122298 0.00154241 0.03051721 0.00705309 0.00351276 0.00438484 0.00123988 
0.02351403 0.02414938 0.02567976 0.00270094 0.00093133 0.00166976 0.00987708 0.00203389 0.01201662 0.00119350 0.00153891 0.03043411 0.00698708 0.00352094 0.00438455 0.00124047 
0.02381083 0.02438546 0.02534338 0.00270546 0.00091871 0.00165167 0.00972443 0.00201437 0.01159689 0.00116518 0.00153618 0.03032871 0.00692028 0.00352793 0.00438415 0.00124127 
0.02413018 0.02465938 0.02498743 0.00271089 0.00090662 0.00163496 0.00956688 0.00199984 0.01119948 0.00113817 0.00153420 0.03020112 0.00685299 0.00353388 0.00438369 0.00124228 
0.02446804 0.02497068 0.02461297 0.00271732 0.00089512 0.00161969 0.00940510 0.00199029 0.01082528 0.00111258 0.00153293 0.03005155 0.00678551 0.00353897 0.00438322 0.00124350 
0.02482037 0.02531869 0.02422112 0.00272479 0.00088427 0.00160594 0.00923975 0.00198569 0.01047510 0.00108853 0.00153236 0.02988032 0.00671811 0.00354338 0.00438278 0.00124492 
0.02518320 0.02570258 0.02381305 0.00273336 0.00087412 0.00159377 0.00907150 0.00198597 0.01014965 0.00106615 0.00153243 0.02968792 0.00665110 0.00354730 0.00438241 0.00124653 
0.02555266 0.02612131 0.02338999 0.00274305 0.00086472 0.00158323 0.00890105 0.00199107 0.00984957 0.00104554 0.00153311 0.02947493 0.00658475 0.00355094 0.00438216 0.00124833 
0.02592498 0.02657368 0.02295322 0.00275392 0.00085612 0.00157440 0.00872908 0.00200091 0.00957540 0.00102682 0.00153438 0.02924208 0.00651934 0.00355452 0.00438204 0.00125031 
0.02629654 0.02705832 0.02250405 0.00276598 0.00084836 0.00156730 0.00855629 0.00201537 0.00932758 0.00101009 0.00153618 0.02899022 0.00645515 0.00355826 0.00438210 0.00125245 
0.02666387 0.02757370 0.02204384 0.00277924 0.00084150 0.00156199 0.00838337 0.00203433 0.00910647 0.00099545 0.00153849 0.02872034 0.00639246 0.00356239 0.00438235 0.00125475 
0.02702369 0.02811813 0.02157396 0.00279372 0.00083557 0.00155851 0.00821097 0.00205765 0.00891233 0.00098300 0.00154127 0.02843353 0.00633153 0.00356715 0.00438281 0.00125719 
0.02737291 0.02868978 0.02109581 0.00280939 0.00083062 0.00155688 0.00803978 0.00208518 0.00874531 0.00097281 0.00154447 0.02813101 0.00627262 0.00357276 0.00438349 0.00125977 
0.02770867 0.02928668 0.02061079 0.00282626 0.00082666 0.00155713 0.00787042 0.00211675 0.00860549 0.00096497 0.00154806 0.02781414 0.00621598 0.00357948 0.00438442 0.00126246 
0.02802834 0.02990674 0.02012034 0.00284428 0.00082374 0.00155927 0.00770351 0.00215216 0.00849283 0.00095955 0.00155200 0.02748434 0.00616188 0.00358753 0.00438558 0.00126525 
0.02832955 0.03054774 0.01962586 0.00286342 0.00082188 0.00156332 0.00753965 0.00219122 0.00840721 0.00095660 0.00155624 0.02714319 0.00611054 0.00359715 0.00438700 0.00126812 
0.02861016 0.03120737 0.01912878 0.00288364 0.00082110 0.00156928 0.00737939 0.00223372 0.00834841 0.00095617 0.00156075 0.02679233 0.00606221 0.00360856 0.00438866 0.00127107 
0.02886834 0.03188324 0.01863048 0.00290486 0.00082142 0.00157714 0.00722327 0.00227943 0.00831611 0.00095832 0.00156549 0.02643353 0.00601711 0.00362200 0.00439056 0.00127407 
0.02910251 0.03257287 0.01813236 0.00292702 0.00082285 0.00158689 0.00707177 0.00232811 0.00830990 0.00096306 0.00157041 0.02606860 0.00597546 0.00363766 0.00439270 0.00127711 
0.02931141 0.03327370 0.01763577 0.00295004 0.00082539 0.00159852 0.00692535 0.00237951 0.00832927 0.00097043 0.00157547 0.02569947 0.00593748 0.00365576 0.00439507 0.00128017 
0.02949402 0.03398314 0.01714205 0.00297383 0.00082906 0.00161200 0.00678443 0.00243337 0.00837364 0.00098042 0.00158063 0.02532812 0.00590335 0.00367648 0.00439765 0.00128323 
0.02964966 0.03469855 0.01665248 0.00299828 0.00083384 0.00162729 0.00664936 0.00248943 0.00844231 0.00099305 0.00158584 0.02495658 0.00587327 0.00369999 0.00440043 0.00128628 
0.02977791 0.03541728 0.01616831 0.00302329 0.00083973 0.00164436 0.00652047 0.00254739 0.00853451 0.00100829 0.00159107 0.02458695 0.00584743 0.00372645 0.00440340 0.00128930 
0.02987864 0.03613664 0.01569076 0.00304874 0.00084672 0.00166314 0.00639805 0.00260699 0.00864940 0.00102612 0.00159627 0.02422135 0.00582600 0.00375600 0.00440653 0.00129227 
0.02995202 0.03685396 0.01522099 0.00307451 0.00085480 0.00168360 0.00628232 0.00266791 0.00878603 0.00104650 0.00160140 0.02386193 0.00580912 0.00378875 0.00440981 0.00129518 
0.02999847 0.03756659 0.01476008 0.00310046 0.00086392 0.00170567 0.00617346 0.00272986 0.00894339 0.00106939 0.00160641 0.02351089 0.00579696 0.00382481 0.00441322 0.00129801 
0.03001869 0.03827191 0.01430910 0.00312645 0.00087408 0.00172926 0.00607162 0.00279254 0.00912039 0.00109473 0.00161126 0.02317038 0.00578964 0.00386425 0.00441674 0.00130074 
0.03001364 0.03896732 0.01386903 0.00315236 0.00088524 0.00175432 0.00597687 0.00285564 0.00931587 0.00112245 0.00161590 0.02284259 0.00578730 0.00390712 0.00442036 0.00130336 
0.02998450 0.03965030 0.01344079 0.00317803 0.00089737 0.00178074 0.00588927 0.00291883 0.00952860 0.00115246 0.00162030 0.02252966 0.00579003 0.00395344 0.00442405 0.00130585 
0.02993271 0.04031838 0.01302525 0.00320331 0.00091041 0.00180845 0.00580880 0.00298182 0.00975730 0.00118467 0.00162442 0.02223374 0.00579793 0.00400322 0.00442782 0.00130820 
0.02985990 0.04096918 0.01262318 0.00322807 0.00092434 0.00183733 0.00573542 0.00304427 0.01000061 0.00121898 0.00162820 0.02195689 0.00581109 0.00405643 0.00443164 0.00131040 
0.02976790 0.04160041 0.01223533 0.00325215 0.00093909 0.00186729 0.00566904 0.00310588 0.01025713 0.00125527 0.00163161 0.02170115 0.00582956 0.00411302 0.00443551 0.00131244 
0.02965871 0.04220988 0.01186233 0.00327541 0.00095462 0.00189822 0.00560951 0.00316633 0.01052542 0.00129341 0.00163460 0.02146848 0.00585341 0.00417291 0.00443943 0.00131430 
0.02953450 0.04279551 0.01150479 0.00329770 0.00097087 0.00192999 0.00555666 0.00322530 0.01080399 0.00133327 0.00163715 0.02126077 0.00588266 0.00423600 0.00444339 0.00131597 
0.02939757 0.04335535 0.01116322 0.00331888 0.00098777 0.00196249 0.00551028 0.00328249 0.01109131 0.00137471 0.00163919 0.02107982 0.00591734 0.00430215 0.00444741 0.00131746 
0.02925032 0.04388756 0.01083806 0.00333883 0.00100528 0.00199560 0.00547012 0.00333759 0.01138582 0.00141757 0.00164071 0.02092733 0.00595744 0.00437121 0.00445149 0.00131874 
0.02909526 0.04439048 0.01052971 0.00335739 0.00102332 0.00202917 0.00543590 0.00339030 0.01168594 0.00146169 0.00164166 0.02080488 0.00600294 0.00444300 0.00445566 0.00131981 
0.02893495 0.04486255 0.01023848 0.00337447 0.00104182 0.00206309 0.00540729 0.00344034 0.01199009 0.00150690 0.00164201 0.02071394 0.00605382 0.00451730 0.00445994 0.00132067 
0.02877203 0.04530240 0.00996463 0.00338993 0.00106071 0.00209720 0.00538398 0.00348741 0.01229663 0.00155302 0.00164172 0.02065586 0.00611001 0.00459388 0.00446437 0.00132132 
0.02860912 0.04570878 0.00970835 0.00340367 0.00107993 0.00213138 0.00536558 0.00353125 0.01260397 0.00159989 0.00164077 0.02063182 0.00617144 0.00467250 0.00446899 0.00132175 
0.02844886 0.04608065 0.00946977 0.00341560 0.00109940 0.00216548 0.00535172 0.00357159 0.01291048 0.00164730 0.00163912 0.02064289 0.00623803 0.00475287 0.00447385 0.00132197 
0.02829388 0.04641710 0.00924898 0.00342564 0.00111904 0.00219935 0.00534200 0.00360819 0.01321457 0.00169507 0.00163674 0.02068996 0.00630966 0.00483470 0.00447901 0.00132196 
0.02814675 0.04671740 0.00904601 0.00343370 0.00113879 0.00223286 0.00533600 0.00364081 0.01351464 0.00174301 0.00163362 0.02077376 0.00638620 0.00491768 0.00448455 0.00132175 
0.02800996 0.04698099 0.00886082 0.00343972 0.00115856 0.00226586 0.00533330 0.00366922 0.01380914 0.00179091 0.00162973 0.02089487 0.00646750 0.00500148 0.00449053 0.00132132 
0.02788593 0.04720750 0.00869336 0.00344366 0.00117828 0.00229822 0.00533346 0.00369323 0.01409651 0.00183859 0.00162506 0.02105366 0.00655339 0.00508575 0.00449706 0.00132069 
0.02777697 0.04739671 0.00854351 0.00344549 0.00119787 0.00232977 0.00533604 0.00371265 0.01437528 0.00188585 0.00161959 0.02125037 0.00664368 0.00517015 0.00450423 0.00131986 
0.02768527 0.04754857 0.00841113 0.00344517 0.00121727 0.00236040 0.00534061 0.00372730 0.01464397 0.00193248 0.00161330 0.02148502 0.00673815 0.00525431 0.00451215 0.00131884 
0.02761284 0.04766321 0.00829604 0.00344270 0.00123640 0.00238997 0.00534674 0.00373706 0.01490119 0.00197830 0.00160619 0.02175746 0.00683658 0.00533785 0.00452093 0.00131764 
0.02756157 0.04774092 0.00819801 0.00343808 0.00125518 0.00241834 0.00535399 0.00374178 0.01514558 0.00202311 0.00159827 0.02206738 0.00693872 0.00542041 0.00453072 0.00131627 
0.02753314 0.04778216 0.00811683 0.00343134 0.00127355 0.00244538 0.00536194 0.00374137 0.01537586 0.00206671 0.00158951 0.02241423 0.00704430 0.00550161 0.00454165 0.00131473 
0.02752906 0.04778754 0.00805221 0.00342251 0.00129144 0.00247098 0.00537019 0.00373575 0.01559083 0.00210893 0.00157994 0.02279734 0.00715303 0.00558107 0.00455386 0.00131305 
0.02755063 0.04775782 0.00800389 0.00341163 0.00130879 0.00249502 0.00537834 0.00372486 0.01578933 0.00214959 0.00156955 0.02321581 0.00726460 0.00565841 0.00456752 0.00131124 
0.02759892 0.04769390 0.00797156 0.00339878 0.00132552 0.00251739 0.00538602 0.00370868 0.01597031 0.00218851 0.00155836 0.02366858 0.00737870 0.00573327 0.00458278 0.00130931 
0.02767480 0.04759683 0.00795492 0.00338401 0.00134158 0.00253799 0.00539287 0.00368720 0.01613282 0.00222552 0.00154638 0.02415442 0.00749497 0.00580529 0.00459982 0.00130727 
0.02777890 0.04746779 0.00795366 0.00336743 0.00135692 0.00255672 0.00539856 0.00366044 0.01627596 0.00226047 0.00153364 0.02467192 0.00761308 0.00587413 0.00461882 0.00130514 
0.02791161 0.04730806 0.00796745 0.00334913 0.00137147 0.00257349 0.00540277 0.00362848 0.01639896 0.00229321 0.00152015 0.02521949 0.00773264 0.00593943 0.00463995 0.00130295 
0.02807310 0.04711906 0.00799597 0.00332921 0.00138519 0.00258824 0.00540522 0.00359137 0.01650116 0.00232359 0.00150595 0.02579542 0.00785327 0.00600090 0.00466341 0.00130070 
0.02826327 0.04690229 0.00803890 0.00330780 0.00139803 0.00260090 0.00540565 0.00354924 0.01658199 0.00235150 0.00149107 0.02639782 0.00797457 0.00605821 0.00468938 0.00129841 
0.02848181 0.04665936 0.00809590 0.00328504 0.00140995 0.00261141 0.00540384 0.00350223 0.01664098 0.00237680 0.00147554 0.02702467 0.00809613 0.00611110 0.00471806 0.00129610 
0.02872816 0.04639193 0.00816667 0.00326106 0.00142091 0.00261971 0.00539958 0.00345050 0.01667780 0.00239940 0.00145940 0.02767381 0.00821755 0.00615930 0.00474963 0.00129379 
0.02900152 0.04610176 0.00825089 0.00323600 0.00143086 0.00262579 0.00539270 0.00339426 0.01669223 0.00241920 0.00144270 0.02834298 0.00833837 0.00620258 0.00478429 0.00129150 
0.02930088 0.04579066 0.00834826 0.00321002 0.00143979 0.00262960 0.00538308 0.00333373 0.01668416 0.00243611 0.00142548 0.02902977 0.00845818 0.00624073 0.00482221 0.00128924 
0.02962500 0.04546049 0.00845847 0.00318328 0.00144767 0.00263115 0.00537059 0.00326916 0.01665361 0.00245008 0.00140779 0.02973171 0.00857653 0.00627356 0.00486359 0.00128704 
0.02997243 0.04511311 0.00858124 0.00315593 0.00145446 0.00263043 0.00535517 0.00320085 0.01660072 0.00246104 0.00138969 0.03044623 0.00869298 0.00630093 0.00490859 0.00128490 
0.03034153 0.04475046 0.00871628 0.00312816 0.00146016 0.00262745 0.00533677 0.00312911 0.01652576 0.00246896 0.00137122 0.03117067 0.00880708 0.00632270 0.00495739 0.00128285 
0.03073046 0.04437444 0.00886333 0.00310011 0.00146474 0.00262223 0.00531538 0.00305427 0.01642911 0.00247380 0.00135244 0.03190235 0.00891837 0.00633880 0.00501015 0.00128091 
0.03113721 0.04398697 0.00902210 0.00307195 0.00146821 0.00261481 0.00529102 0.00297671 0.01631128 0.00247556 0.00133342 0.03263849 0.00902642 0.00634916 0.00506700 0.00127908 
0.03155961 0.04358995 0.00919235 0.00304386 0.00147054 0.00260522 0.00526374 0.00289680 0.01617292 0.00247423 0.00131422 0.03337633 0.00913078 0.00635375 0.00512808 0.00127738 
0.03199536 0.04318527 0.00937381 0.00301599 0.00147175 0.00259354 0.00523361 0.00281497 0.01601477 0.00246984 0.00129489 0.03411306 0.00923101 0.00635259 0.00519351 0.00127584 
0.03244203 0.04277475 0.00956625 0.00298850 0.00147183 0.00257982 0.00520074 0.00273164 0.01583772 0.00246241 0.00127549 0.03484588 0.00932669 0.00634571 0.00526339 0.00127445 
0.03289706 0.04236020 0.00976940 0.00296154 0.00147079 0.00256415 0.00516525 0.00264728 0.01564274 0.00245199 0.00125610 0.03557199 0.00941737 0.00633318 0.00533780 0.00127323 
0.03335782 0.04194333 0.00998303 0.00293526 0.00146864 0.00254661 0.00512729 0.00256235 0.01543094 0.00243864 0.00123676 0.03628865 0.00950267 0.00631511 0.00541681 0.00127220 
0.03382160 0.04152582 0.01020688 0.00290980 0.00146539 0.00252731 0.00508706 0.00247733 0.01520353 0.00242242 0.00121755 0.03699312 0.00958216 0.00629165 0.00550046 0.00127135 
0.03428566 0.04110924 0.01044070 0.00288529 0.00146107 0.00250634 0.00504473 0.00239273 0.01496183 0.00240343 0.00119852 0.03768274 0.00965548 0.00626296 0.00558877 0.00127071 
0.03474720 0.04069509 0.01068423 0.00286185 0.00145568 0.00248384 0.00500053 0.00230907 0.01470724 0.00238175 0.00117974 0.03835491 0.00972224 0.00622924 0.00568174 0.00127028 
0.03520343 0.04028477 0.01093720 0.00283958 0.00144926 0.00245991 0.00495469 0.00222684 0.01444128 0.00235750 0.00116126 0.03900713 0.00978210 0.00619073 0.00577932 0.00127006 
0.03565154 0.03987956 0.01119932 0.00281859 0.00144184 0.00243470 0.00490746 0.00214659 0.01416552 0.00233080 0.00114314 0.03963698 0.00983472 0.00614768 0.00588148 0.00127005 
0.03608877 0.03948064 0.01147031 0.00279896 0.00143343 0.00240835 0.00485909 0.00206883 0.01388164 0.00230178 0.00112543 0.04024217 0.00987979 0.00610039 0.00598813 0.00127027 
0.03651241 0.03908907 0.01174984 0.00278076 0.00142408 0.00238099 0.00480985 0.00199409 0.01359139 0.00227058 0.00110818 0.04082051 0.00991702 0.00604916 0.00609916 0.00127070 
0.03691980 0.03870579 0.01203757 0.00276405 0.00141382 0.00235277 0.00476001 0.00192289 0.01329656 0.00223736 0.00109145 0.04136998 0.00994616 0.00599433 0.00621443 0.00127136 
0.03730837 0.03833160 0.01233316 0.00274888 0.00140268 0.00232386 0.00470987 0.00185575 0.01299902 0.00220226 0.00107526 0.04188868 0.00996695 0.00593627 0.00633378 0.00127223 
0.03767565 0.03796719 0.01263621 0.00273528 0.00139072 0.00229440 0.00465969 0.00179317 0.01270067 0.00216546 0.00105967 0.04237488 0.00997919 0.00587535 0.00645702 0.00127332 
0.03801929 0.03761308 0.01294630 0.00272325 0.00137796 0.00226456 0.00460977 0.00173563 0.01240346 0.00212713 0.00104470 0.04282702 0.00998270 0.00581196 0.00658393 0.00127461 
0.03833707 0.03726968 0.01326300 0.00271280 0.00136445 0.00223449 0.00456039 0.00168362 0.01210938 0.00208745 0.00103040 0.04324370 0.00997732 0.00574651 0.00671426 0.00127611 
0.03862692 0.03693726 0.01358582 0.00270391 0.00135024 0.00220435 0.00451183 0.00163758 0.01182039 0.00204661 0.00101678 0.04362374 0.00996293 0.00567944 0.00684774 0.00127780 
0.03888693 0.03661595 0.01391425 0.00269655 0.00133537 0.00217429 0.00446434 0.00159795 0.01153853 0.00200478 0.00100387 0.04396612 0.00993943 0.00561117 0.00698407 0.00127968 
0.03911537 0.03630572 0.01424773 0.00269069 0.00131989 0.00214449 0.00441821 0.00156512 0.01126577 0.00196217 0.00099169 0.04427005 0.00990676 0.00554215 0.00712292 0.00128173 
0.03931068 0.03600646 0.01458569 0.00268625 0.00130385 0.00211508 0.00437368 0.00153947 0.01100413 0.00191896 0.00098025 0.04453491 0.00986490 0.00547282 0.00726396 0.00128394 
0.03947152 0.03571787 0.01492748 0.00268316 0.00128730 0.00208622 0.00433100 0.00152134 0.01075556 0.00187534 0.00096955 0.04476032 0.00981386 0.00540363 0.00740680 0.00128630 
0.03959672 0.03543955 0.01527244 0.00268134 0.00127029 0.00205805 0.00429038 0.00151103 0.01052200 0.00183151 0.00095960 0.04494610 0.00975366 0.00533504 0.00755107 0.00128880 
0.03968535 0.03517100 0.01561987 0.00268069 0.00125286 0.00203071 0.00425205 0.00150880 0.01030536 0.00178766 0.00095040 0.04509228 0.00968439 0.00526750 0.00769634 0.00129141 
0.03973667 0.03491155 0.01596901 0.00268110 0.00123507 0.00200433 0.00421619 0.00151488 0.01010747 0.00174399 0.00094193 0.04519911 0.00960615 0.00520145 0.00784221 0.00129413 
0.03975017 0.03466048 0.01631907 0.00268245 0.00121697 0.00197904 0.00418299 0.00152944 0.00993012 0.00170066 0.00093419 0.04526706 0.00951909 0.00513732 0.00798823 0.00129693 
0.03972556 0.03441692 0.01666923 0.00268460 0.00119861 0.00195496 0.00415260 0.00155262 0.00977503 0.00165788 0.00092716 0.04529681 0.00942337 0.00507555 0.00813395 0.00129980 
0.03966276 0.03417994 0.01701862 0.00268741 0.00118003 0.00193218 0.00412515 0.00158449 0.00964383 0.00161581 0.00092082 0.04528926 0.00931922 0.00501655 0.00827891 0.00130271 
0.03956192 0.03394850 0.01736634 0.00269074 0.00116130 0.00191081 0.00410078 0.00162510 0.00953805 0.00157463 0.00091514 0.04524550 0.00920687 0.00496073 0.00842264 0.00130566 
0.03942340 0.03372151 0.01771146 0.00269444 0.00114246 0.00189094 0.00407957 0.00167441 0.00945914 0.00153450 0.00091010 0.04516684 0.00908660 0.00490847 0.00856468 0.00130861 
0.03924776 0.03349779 0.01805301 0.00269833 0.00112356 0.00187265 0.00406160 0.00173235 0.00940843 0.00149558 0.00090565 0.04505478 0.00895873 0.00486014 0.00870456 0.00131155 
0.03903580 0.03327613 0.01838999 0.00270226 0.00110465 0.00185599 0.00404691 0.00179881 0.00938714 0.00145802 0.00090177 0.04491102 0.00882359 0.00481609 0.00884180 0.00131447 
0.03878849 0.03305525 0.01872139 0.00270606 0.00108578 0.00184103 0.00403555 0.00187358 0.00939638 0.00142197 0.00089842 0.04473745 0.00868155 0.00477665 0.00897594 0.00131733 
0.03850698 0.03283388 0.01904618 0.00270956 0.00106699 0.00182780 0.00402753 0.00195643 0.00943710 0.00138754 0.00089556 0.04453611 0.00853303 0.00474212 0.00910653 0.00132012 
0.03819265 0.03261068 0.01936328 0.00271260 0.00104834 0.00181635 0.00402282 0.00204708 0.00951014 0.00135488 0.00089314 0.04430923 0.00837846 0.00471279 0.00923312 0.00132282 
0.03784699 0.03238435 0.01967163 0.00271500 0.00102986 0.00180669 0.00402140 0.00214516 0.00961618 0.00132408 0.00089112 0.04405919 0.00821830 0.00468890 0.00935528 0.00132542 
0.03747170 0.03215357 0.01997016 0.00271661 0.00101161 0.00179882 0.00402321 0.00225028 0.00975577 0.00129526 0.00088946 0.04378850 0.00805304 0.00467068 0.00947259 0.00132789 
0.03706859 0.03191704 0.02025779 0.00271726 0.00099362 0.00179275 0.00402820 0.00236197 0.00992930 0.00126849 0.00088810 0.04349983 0.00788320 0.00465833 0.00958466 0.00133021 
0.03663961 0.03167348 0.02053343 0.00271680 0.00097594 0.00178846 0.00403626 0.00247973 0.01013699 0.00124387 0.00088701 0.04319593 0.00770932 0.00465202 0.00969112 0.00133237 
0.03618684 0.03142169 0.02079602 0.00271508 0.00095862 0.00178593 0.00404730 0.00260301 0.01037894 0.00122146 0.00088615 0.04287968 0.00753197 0.00465189 0.00979161 0.00133435 
0.03571245 0.03116047 0.02104452 0.00271196 0.00094168 0.00178511 0.00406119 0.00273119 0.01065505 0.00120133 0.00088546 0.04255405 0.00735173 0.00465806 0.00988582 0.00133614 
0.03521869 0.03088873 0.02127787 0.00270730 0.00092517 0.00178596 0.00407780 0.00286362 0.01096509 0.00118350 0.00088490 0.04222208 0.00716922 0.00467059 0.00997346 0.00133773 
0.03470789 0.03060543 0.02149507 0.00270100 0.00090913 0.00178842 0.00409699 0.00299962 0.01130864 0.00116803 0.00088445 0.04188687 0.00698507 0.00468954 0.01005427 0.00133909 
0.03418243 0.03030963 0.02169514 0.00269293 0.00089360 0.00179243 0.00411860 0.00313845 0.01168515 0.00115494 0.00088405 0.04155154 0.00679992 0.00471493 0.01012802 0.00134022 
0.03364472 0.03000047 0.02187716 0.00268299 0.00087859 0.00179791 0.00414246 0.00327934 0.01209389 0.00114423 0.00088368 0.04121928 0.00661443 0.00474675 0.01019453 0.00134111 
0.03309721 0.02967723 0.02204021 0.00267111 0.00086416 0.00180479 0.00416841 0.00342152 0.01253398 0.00113592 0.00088330 0.04089325 0.00642928 0.00478495 0.01025365 0.00134174 
0.03254233 0.02933926 0.02218345 0.00265721 0.00085033 0.00181296 0.00419627 0.00356414 0.01300438 0.00112999 0.00088289 0.04057663 0.00624515 0.00482946 0.01030526 0.00134213 
0.03198249 0.02898606 0.02230611 0.00264122 0.00083713 0.00182234 0.00422585 0.00370638 0.01350389 0.00112642 0.00088242 0.04027254 0.00606275 0.00488018 0.01034931 0.00134224 
0.03142011 0.02861727 0.02240744 0.00262311 0.00082459 0.00183283 0.00425697 0.00384737 0.01403120 0.00112520 0.00088189 0.03998409 0.00588277 0.00493699 0.01038575 0.00134209 
0.03085752 0.02823263 0.02248680 0.00260284 0.00081273 0.00184432 0.00428947 0.00398625 0.01458481 0.00112627 0.00088127 0.03971431 0.00570593 0.00499972 0.01041460 0.00134167 
0.03029701 0.02783206 0.02254359 0.00258040 0.00080158 0.00185670 0.00432315 0.00412214 0.01516312 0.00112960 0.00088056 0.03946616 0.00553294 0.00506820 0.01043592 0.00134099 
0.02974080 0.02741560 0.02257732 0.00255579 0.00079116 0.00186987 0.00435784 0.00425418 0.01576439 0.00113513 0.00087976 0.03924251 0.00536452 0.00514221 0.01044981 0.00134003 
0.02919101 0.02698344 0.02258755 0.00252902 0.00078149 0.00188372 0.00439338 0.00438148 0.01638676 0.00114280 0.00087886 0.03904609 0.00520137 0.00522153 0.01045641 0.00133881 
0.02864967 0.02653594 0.02257395 0.00250012 0.00077259 0.00189813 0.00442961 0.00450321 0.01702825 0.00115254 0.00087789 0.03887954 0.00504422 0.00530591 0.01045590 0.00133732 
0.02811868 0.02607359 0.02253628 0.00246915 0.00076448 0.00191300 0.00446639 0.00461853 0.01768680 0.00116428 0.00087685 0.03874533 0.00489375 0.00539505 0.01044850 0.00133558 
0.02759983 0.02559704 0.02247438 0.00243616 0.00075717 0.00192822 0.00450356 0.00472662 0.01836023 0.00117793 0.00087577 0.03864578 0.00475067 0.00548868 0.01043448 0.00133360 
0.02709478 0.02510710 0.02238822 0.00240122 0.00075068 0.00194369 0.00454101 0.00482670 0.01904628 0.00119342 0.00087468 0.03858301 0.00461567 0.00558648 0.01041416 0.00133138 
0.02660503 0.02460470 0.02227785 0.00236442 0.00074501 0.00195930 0.00457862 0.00491805 0.01974263 0.00121065 0.00087359 0.03855899 0.00448940 0.00568811 0.01038786 0.00132893 
0.02613194 0.02409095 0.02214342 0.00232586 0.00074018 0.00197497 0.00461631 0.00499994 0.02044688 0.00122953 0.00087257 0.03857547 0.00437252 0.00579324 0.01035597 0.00132627 
0.02567673 0.02356707 0.02198520 0.00228566 0.00073619 0.00199060 0.00465399 0.00507175 0.02115659 0.00124996 0.00087164 0.03863397 0.00426567 0.00590150 0.01031890 0.00132341 
0.02524043 0.02303444 0.02180356 0.00224394 0.00073305 0.00200611 0.00469160 0.00513288 0.02186928 0.00127184 0.00087085 0.03873581 0.00416946 0.00601252 0.01027709 0.00132037 
0.02482393 0.02249454 0.02159899 0.00220084 0.00073076 0.00202143 0.00472911 0.00518278 0.02258243 0.00129507 0.00087027 0.03888205 0.00408448 0.00612593 0.01023103 0.00131715 
0.02442795 0.02194900 0.02137207 0.00215650 0.00072932 0.00203649 0.00476648 0.00522100 0.02329352 0.00131956 0.00086995 0.03907352 0.00401127 0.00624134 0.01018122 0.00131380 
0.02405304 0.02139953 0.02112349 0.00211107 0.00072872 0.00205123 0.00480371 0.00524715 0.02400000 0.00134519 0.00086995 0.03931080 0.00395038 0.00635835 0.01012817 0.00131031 
0.02369957 0.02084797 0.02085408 0.00206471 0.00072898 0.00206562 0.00484082 0.00526090 0.02469936 0.00137187 0.00087033 0.03959420 0.00390230 0.00647657 0.01007244 0.00130671 
0.02336778 0.02029623 0.02056472 0.00201760 0.00073007 0.00207961 0.00487784 0.00526202 0.02538909 0.00139950 0.00087116 0.03992378 0.00386748 0.00659560 0.01001460 0.00130302 
0.02305773 0.01974631 0.02025644 0.00196990 0.00073201 0.00209317 0.00491483 0.00525036 0.02606670 0.00142798 0.00087253 0.04029931 0.00384635 0.00671504 0.00995522 0.00129927 
0.02276932 0.01920027 0.01993036 0.00192180 0.00073476 0.00210630 0.00495186 0.00522586 0.02672978 0.00145721 0.00087449 0.04072033 0.00383930 0.00683448 0.00989491 0.00129546 
0.02250232 0.01866024 0.01958766 0.00187346 0.00073833 0.00211898 0.00498903 0.00518853 0.02737595 0.00148709 0.00087712 0.04118607 0.00384665 0.00695353 0.00983425 0.00129164 
0.02225633 0.01812839 0.01922967 0.00182508 0.00074271 0.00213122 0.00502644 0.00513852 0.02800289 0.00151754 0.00088051 0.04169552 0.00386870 0.00707180 0.00977386 0.00128782 
0.02203083 0.01760690 0.01885777 0.00177683 0.00074787 0.00214304 0.00506423 0.00507603 0.02860838 0.00154846 0.00088472 0.04224740 0.00390569 0.00718890 0.00971434 0.00128402 
0.02182517 0.01709798 0.01847342 0.00172890 0.00075380 0.00215446 0.00510254 0.00500140 0.02919027 0.00157976 0.00088982 0.04284017 0.00395781 0.00730445 0.00965630 0.00128027 
0.02163860 0.01660384 0.01807817 0.00168145 0.00076048 0.00216554 0.00514152 0.00491503 0.02974652 0.00161137 0.00089590 0.04347202 0.00402521 0.00741809 0.00960034 0.00127658 
0.02147023 0.01612668 0.01767365 0.00163467 0.00076790 0.00217631 0.00518135 0.00481744 0.03027519 0.00164321 0.00090302 0.04414093 0.00410796 0.00752944 0.00954704 0.00127299 
0.02131911 0.01566865 0.01726152 0.00158872 0.00077604 0.00218684 0.00522222 0.00470926 0.03077447 0.00167520 0.00091125 0.04484462 0.00420609 0.00763816 0.00949697 0.00126952 
0.02118419 0.01523188 0.01684352 0.00154377 0.00078486 0.00219719 0.00526431 0.00459119 0.03124266 0.00170727 0.00092065 0.04558059 0.00431957 0.00774392 0.00945071 0.00126618 
0.02106434 0.01481844 0.01642144 0.00149998 0.00079435 0.00220745 0.00530783 0.00446405 0.03167821 0.00173936 0.00093129 0.04634614 0.00444831 0.00784640 0.00940878 0.00126300 
0.02095838 0.01443032 0.01599709 0.00145749 0.00080448 0.00221770 0.00535300 0.00432875 0.03207970 0.00177141 0.00094322 0.04713835 0.00459216 0.00794529 0.00937169 0.00126000 
0.02086511 0.01406942 0.01557232 0.00141644 0.00081523 0.00222803 0.00540001 0.00418628 0.03244586 0.00180336 0.00095649 0.04795415 0.00475089 0.00804031 0.00933994 0.00125720 
0.02078325 0.01373756 0.01514901 0.00137697 0.00082657 0.00223855 0.00544909 0.00403774 0.03277558 0.00183517 0.00097114 0.04879028 0.00492425 0.00813118 0.00931398 0.00125462 
0.02071154 0.01343644 0.01472903 0.00133920 0.00083848 0.00224935 0.00550045 0.00388428 0.03306789 0.00186677 0.00098722 0.04964336 0.00511187 0.00821765 0.00929424 0.00125228 
0.02064870 0.01316763 0.01431429 0.00130323 0.00085091 0.00226056 0.00555430 0.00372717 0.03332200 0.00189814 0.00100475 0.05050985 0.00531337 0.00829949 0.00928109 0.00125018 
0.02059346 0.01293256 0.01390664 0.00126917 0.00086386 0.00227228 0.00561086 0.00356771 0.03353728 0.00192923 0.00102375 0.05138614 0.00552826 0.00837649 0.00927490 0.00124836 
0.02054456 0.01273253 0.01350797 0.00123709 0.00087727 0.00228464 0.00567031 0.00340731 0.03371326 0.00196001 0.00104424 0.05226851 0.00575602 0.00844845 0.00927597 0.00124681 
0.02050079 0.01256867 0.01312010 0.00120708 0.00089114 0.00229774 0.00573285 0.00324740 0.03384964 0.00199045 0.00106621 0.05315320 0.00599606 0.00851521 0.00928456 0.00124556 
0.02046098 0.01244196 0.01274484 0.00117918 0.00090542 0.00231170 0.00579866 0.00308949 0.03394629 0.00202053 0.00108968 0.05403639 0.00624771 0.00857661 0.00930090 0.00124462 
0.02042399 0.01235319 0.01238394 0.00115345 0.00092009 0.00232665 0.00586790 0.00293512 0.03400327 0.00205021 0.00111461 0.05491426 0.00651026 0.00863254 0.00932516 0.00124399 
0.02038879 0.01230297 0.01203910 0.00112992 0.00093512 0.00234270 0.00594071 0.00278589 0.03402076 0.00207948 0.00114100 0.05578299 0.00678293 0.00868287 0.00935746 0.00124368 
0.02035440 0.01229174 0.01171195 0.00110860 0.00095049 0.00235995 0.00601724 0.00264339 0.03399915 0.00210833 0.00116880 0.05663879 0.00706490 0.00872755 0.00939789 0.00124370 
0.02031991 0.01231973 0.01140406 0.00108951 0.00096615 0.00237852 0.00609757 0.00250927 0.03393897 0.00213673 0.00119797 0.05747794 0.00735527 0.00876649 0.00944646 0.00124404 
0.02028454 0.01238700 0.01111689 0.00107263 0.00098209 0.00239849 0.00618179 0.00238515 0.03384090 0.00216468 0.00122846 0.05829679 0.00765311 0.00879967 0.00950315 0.00124473 
0.02024759 0.01249338 0.01085185 0.00105794 0.00099828 0.00241996 0.00626998 0.00227267 0.03370580 0.00219217 0.00126020 0.05909178 0.00795742 0.00882708 0.00956790 0.00124574 
0.02020847 0.01263852 0.01061021 0.00104542 0.00101469 0.00244302 0.00636215 0.00217346 0.03353466 0.00221919 0.00129313 0.05985950 0.00826717 0.00884872 0.00964057 0.00124709 
0.02016669 0.01282189 0.01039316 0.00103501 0.00103130 0.00246774 0.00645831 0.00208913 0.03332862 0.00224573 0.00132716 0.06059667 0.00858129 0.00886462 0.00972098 0.00124877 
0.02012190 0.01304274 0.01020175 0.00102666 0.00104808 0.00249418 0.00655844 0.00202125 0.03308894 0.00227179 0.00136220 0.06130020 0.00889867 0.00887483 0.00980892 0.00125078 
0.02007384 0.01330013 0.01003693 0.00102030 0.00106502 0.00252239 0.00666249 0.00197136 0.03281702 0.00229736 0.00139814 0.06196717 0.00921814 0.00887942 0.00990411 0.00125310 
0.02002241 0.01359293 0.00989953 0.00101586 0.00108210 0.00255241 0.00677037 0.00194092 0.03251438 0.00232245 0.00143489 0.06259487 0.00953854 0.00887850 0.01000623 0.00125573 
0.01996758 0.01391986 0.00979022 0.00101324 0.00109929 0.00258427 0.00688195 0.00193136 0.03218266 0.00234703 0.00147233 0.06318082 0.00985866 0.00887216 0.01011491 0.00125867 
0.01990950 0.01427941 0.00970956 0.00101235 0.00111658 0.00261797 0.00699710 0.00194401 0.03182359 0.00237112 0.00151032 0.06372281 0.01017728 0.00886054 0.01022974 0.00126189 
0.01984838 0.01466995 0.00965795 0.00101309 0.00113396 0.00265351 0.00711562 0.00198015 0.03143898 0.00239471 0.00154875 0.06421885 0.01049317 0.00884380 0.01035027 0.00126538 
0.01978461 0.01508966 0.00963565 0.00101535 0.00115141 0.00269088 0.00723731 0.00204093 0.03103076 0.00241780 0.00158748 0.06466725 0.01080506 0.00882209 0.01047600 0.00126914 
0.01971864 0.01553658 0.00964280 0.00101901 0.00116892 0.00273004 0.00736191 0.00212743 0.03060091 0.00244038 0.00162636 0.06506659 0.01111172 0.00879561 0.01060641 0.00127314 
0.01965106 0.01600862 0.00967935 0.00102395 0.00118649 0.00277093 0.00748914 0.00224059 0.03015146 0.00246245 0.00166526 0.06541576 0.01141189 0.00876454 0.01074094 0.00127737 
0.01958256 0.01650355 0.00974514 0.00103005 0.00120410 0.00281350 0.00761870 0.00238124 0.02968453 0.00248400 0.00170401 0.06571395 0.01170434 0.00872911 0.01087899 0.00128180 
0.01951392 0.01701904 0.00983983 0.00103718 0.00122175 0.00285766 0.00775025 0.00255010 0.02920224 0.00250504 0.00174249 0.06596066 0.01198783 0.00868954 0.01101994 0.00128642 
0.01944602 0.01755265 0.00996297 0.00104522 0.00123945 0.00290330 0.00788341 0.00274774 0.02870677 0.00252555 0.00178052 0.06615569 0.01226116 0.00864606 0.01116316 0.00129121 
0.01937983 0.01810186 0.01011393 0.00105403 0.00125718 0.00295032 0.00801779 0.00297458 0.02820032 0.00254554 0.00181796 0.06629919 0.01252315 0.00859893 0.01130799 0.00129615 
0.01931638 0.01866410 0.01029195 0.00106350 0.00127496 0.00299859 0.00815297 0.00323091 0.02768508 0.00256499 0.00185466 0.06639160 0.01277266 0.00854840 0.01145374 0.00130121 
0.01925677 0.01923670 0.01049615 0.00107349 0.00129277 0.00304796 0.00828850 0.00351685 0.02716326 0.00258389 0.00189047 0.06643369 0.01300856 0.00849474 0.01159973 0.00130637 
0.01920216 0.01981699 0.01072549 0.00108389 0.00131064 0.00309826 0.00842392 0.00383238 0.02663704 0.00260225 0.00192524 0.06642654 0.01322980 0.00843822 0.01174526 0.00131160 
0.01915376 0.02040227 0.01097882 0.00109459 0.00132856 0.00314934 0.00855874 0.00417730 0.02610860 0.00262006 0.00195882 0.06637154 0.01343535 0.00837912 0.01188965 0.00131689 
0.01911282 0.02098983 0.01125485 0.00110546 0.00134655 0.00320099 0.00869247 0.00455127 0.02558008 0.00263730 0.00199108 0.06627039 0.01362426 0.00831773 0.01203218 0.00132220 
0.01908060 0.02157697 0.01155219 0.00111641 0.00136461 0.00325304 0.00882458 0.00495376 0.02505356 0.00265397 0.00202188 0.06612506 0.01379563 0.00825432 0.01217218 0.00132752 
0.01905839 0.02216102 0.01186933 0.00112734 0.00138275 0.00330525 0.00895456 0.00538410 0.02453111 0.00267006 0.00205110 0.06593782 0.01394862 0.00818919 0.01230896 0.00133281 
0.01904748 0.02273936 0.01220466 0.00113815 0.00140099 0.00335743 0.00908187 0.00584144 0.02401470 0.00268557 0.00207862 0.06571122 0.01408247 0.00812262 0.01244187 0.00133806 
0.01904916 0.02330941 0.01255650 0.00114878 0.00141933 0.00340933 0.00920597 0.00632475 0.02350627 0.00270049 0.00210431 0.06544803 0.01419650 0.00805490 0.01257025 0.00134323 
0.01906469 0.02386869 0.01292305 0.00115914 0.00143780 0.00346074 0.00932633 0.00683288 0.02300766 0.00271482 0.00212809 0.06515128 0.01429011 0.00798631 0.01269349 0.00134831 
0.01909531 0.02441480 0.01330248 0.00116918 0.00145640 0.00351141 0.00944241 0.00736447 0.02252064 0.00272855 0.00214986 0.06482423 0.01436278 0.00791712 0.01281099 0.00135328 
0.01914223 0.02494544 0.01369285 0.00117885 0.00147514 0.00356109 0.00955369 0.00791806 0.02204689 0.00274167 0.00216953 0.06447034 0.01441408 0.00784762 0.01292219 0.00135809 
0.01920661 0.02545844 0.01409221 0.00118811 0.00149405 0.00360955 0.00965964 0.00849200 0.02158798 0.00275419 0.00218704 0.06409325 0.01444367 0.00777806 0.01302658 0.00136275 
0.01928954 0.02595175 0.01449855 0.00119693 0.00151312 0.00365654 0.00975975 0.00908451 0.02114541 0.00276611 0.00220233 0.06369677 0.01445132 0.00770871 0.01312365 0.00136722 
0.01939207 0.02642347 0.01490983 0.00120529 0.00153238 0.00370182 0.00985352 0.00969369 0.02072055 0.00277742 0.00221534 0.06328484 0.01443689 0.00763982 0.01321298 0.00137148 
0.01951515 0.02687186 0.01532399 0.00121321 0.00155183 0.00374513 0.00994049 0.01031748 0.02031468 0.00278812 0.00222604 0.06286155 0.01440033 0.00757163 0.01329415 0.00137551 
0.01965968 0.02729534 0.01573898 0.00122068 0.00157149 0.00378625 0.01002020 0.01095374 0.01992894 0.00279823 0.00223441 0.06243108 0.01434171 0.00750437 0.01336682 0.00137930 
0.01982645 0.02769251 0.01615275 0.00122772 0.00159135 0.00382495 0.01009222 0.01160019 0.01956438 0.00280775 0.00224045 0.06199767 0.01426119 0.00743825 0.01343070 0.00138282 
0.02001616 0.02806214 0.01656324 0.00123439 0.00161143 0.00386099 0.01015615 0.01225447 0.01922192 0.00281668 0.00224415 0.06156563 0.01415905 0.00737349 0.01348553 0.00138607 
0.02022941 0.02840322 0.01696845 0.00124070 0.00163172 0.00389417 0.01021161 0.01291413 0.01890235 0.00282504 0.00224553 0.06113932 0.01403566 0.00731027 0.01353114 0.00138902 
0.02046671 0.02871489 0.01736641 0.00124674 0.00165224 0.00392429 0.01025828 0.01357664 0.01860637 0.00283283 0.00224462 0.06072307 0.01389150 0.00724877 0.01356738 0.00139167 
0.02072844 0.02899652 0.01775520 0.00125257 0.00167296 0.00395114 0.01029584 0.01423943 0.01833451 0.00284007 0.00224146 0.06032123 0.01372715 0.00718916 0.01359419 0.00139400 
0.02101489 0.02924768 0.01813295 0.00125826 0.00169390 0.00397455 0.01032404 0.01489986 0.01808723 0.00284678 0.00223611 0.05993810 0.01354330 0.00713158 0.01361155 0.00139599 
0.02132622 0.02946814 0.01849788 0.00126390 0.00171503 0.00399435 0.01034264 0.01555526 0.01786482 0.00285297 0.00222864 0.05957792 0.01334075 0.00707617 0.01361950 0.00139765 
0.02166250 0.02965787 0.01884829 0.00126961 0.00173636 0.00401041 0.01035146 0.01620295 0.01766749 0.00285867 0.00221911 0.05924484 0.01312036 0.00702303 0.01361816 0.00139897 
0.02202366 0.02981703 0.01918255 0.00127548 0.00175785 0.00402259 0.01035035 0.01684022 0.01749530 0.00286388 0.00220763 0.05894294 0.01288311 0.00697228 0.01360768 0.00139993 
0.02240952 0.02994601 0.01949916 0.00128163 0.00177950 0.00403078 0.01033923 0.01746441 0.01734822 0.00286864 0.00219430 0.05867616 0.01263009 0.00692399 0.01358830 0.00140054 
0.02281980 0.03004538 0.01979670 0.00128819 0.00180128 0.00403489 0.01031803 0.01807283 0.01722608 0.00287296 0.00217921 0.05844828 0.01236244 0.00687824 0.01356028 0.00140079 
0.02325410 0.03011589 0.02007388 0.00129529 0.00182315 0.00403485 0.01028675 0.01866288 0.01712862 0.00287688 0.00216249 0.05826296 0.01208141 0.00683506 0.01352399 0.00140068 
0.02371191 0.03015848 0.02032954 0.00130305 0.00184509 0.00403061 0.01024541 0.01923198 0.01705546 0.00288041 0.00214427 0.05812366 0.01178830 0.00679451 0.01347980 0.00140022 
0.02419260 0.03017428 0.02056262 0.00131162 0.00186707 0.00402214 0.01019411 0.01977763 0.01700612 0.00288357 0.00212468 0.05803365 0.01148452 0.00675659 0.01342816 0.00139940 
0.02469548 0.03016459 0.02077224 0.00132113 0.00188903 0.00400943 0.01013297 0.02029739 0.01698003 0.00288640 0.00210386 0.05799599 0.01117151 0.00672131 0.01336958 0.00139823 
0.02521971 0.03013083 0.02095760 0.00133174 0.00191094 0.00399250 0.01006217 0.02078896 0.01697652 0.00288892 0.00208196 0.05801352 0.01085079 0.00668867 0.01330459 0.00139671 
0.02576440 0.03007462 0.02111809 0.00134358 0.00193275 0.00397138 0.00998191 0.02125009 0.01699482 0.00289114 0.00205912 0.05808886 0.01052394 0.00665863 0.01323379 0.00139486 
0.02632855 0.02999768 0.02125322 0.00135679 0.00195440 0.00394615 0.00989247 0.02167869 0.01703409 0.00289310 0.00203549 0.05822436 0.01019255 0.00663116 0.01315780 0.00139268 
0.02691107 0.02990187 0.02136265 0.00137152 0.00197584 0.00391687 0.00979413 0.02207280 0.01709340 0.00289481 0.00201124 0.05842213 0.00985830 0.00660620 0.01307730 0.00139019 
0.02751083 0.02978916 0.02144619 0.00138789 0.00199701 0.00388365 0.00968725 0.02243059 0.01717176 0.00289630 0.00198651 0.05868401 0.00952286 0.00658370 0.01299298 0.00138738 
0.02812658 0.02966161 0.02150378 0.00140604 0.00201784 0.00384662 0.00957220 0.02275038 0.01726811 0.00289757 0.00196146 0.05901156 0.00918794 0.00656358 0.01290558 0.00138429 
0.02875706 0.02952138 0.02153554 0.00142610 0.00203828 0.00380593 0.00944941 0.02303068 0.01738133 0.00289865 0.00193625 0.05940608 0.00885527 0.00654576 0.01281586 0.00138091 
0.02940091 0.02937067 0.02154169 0.00144817 0.00205824 0.00376172 0.00931932 0.02327016 0.01751022 0.00289956 0.00191102 0.05986855 0.00852656 0.00653014 0.01272459 0.00137727 
0.03005676 0.02921177 0.02152262 0.00147238 0.00207767 0.00371420 0.00918241 0.02346765 0.01765357 0.00290029 0.00188592 0.06039971 0.00820357 0.00651663 0.01263256 0.00137338 
0.03072315 0.02904699 0.02147885 0.00149882 0.00209648 0.00366356 0.00903921 0.02362219 0.01781011 0.00290085 0.00186110 0.06099997 0.00788799 0.00650513 0.01254059 0.00136926 
0.03139864 0.02887866 0.02141102 0.00152757 0.00211460 0.00361001 0.00889026 0.02373303 0.01797852 0.00290125 0.00183670 0.06166947 0.00758153 0.00649551 0.01244948 0.00136493 
0.03208171 0.02870913 0.02131991 0.00155873 0.00213197 0.00355380 0.00873611 0.02379957 0.01815748 0.00290150 0.00181284 0.06240805 0.00728586 0.00648768 0.01236004 0.00136041 
0.03277085 0.02854074 0.02120641 0.00159234 0.00214849 0.00349516 0.00857736 0.02382146 0.01834562 0.00290157 0.00178965 0.06321525 0.00700262 0.00648152 0.01227310 0.00135571 
0.03346452 0.02837581 0.02107152 0.00162848 0.00216409 0.00343436 0.00841462 0.02379852 0.01854157 0.00290148 0.00176725 0.06409035 0.00673340 0.00647690 0.01218945 0.00135086 
0.03416118 0.02821664 0.02091637 0.00166716 0.00217871 0.00337166 0.00824850 0.02373079 0.01874394 0.00290120 0.00174575 0.06503230 0.00647975 0.00647372 0.01210988 0.00134588 
0.03485926 0.02806546 0.02074216 0.00170841 0.00219226 0.00330734 0.00807964 0.02361851 0.01895133 0.00290072 0.00172524 0.06603982 0.00624313 0.00647185 0.01203517 0.00134078 
0.03555723 0.02792446 0.02055018 0.00175225 0.00220467 0.00324170 0.00790868 0.02346213 0.01916236 0.00290002 0.00170581 0.06711130 0.00602496 0.00647120 0.01196608 0.00133560 
0.03625354 0.02779573 0.02034181 0.00179866 0.00221586 0.00317501 0.00773627 0.02326230 0.01937565 0.00289908 0.00168754 0.06824491 0.00582657 0.00647165 0.01190332 0.00133035 
0.03694665 0.02768130 0.02011851 0.00184762 0.00222578 0.00310758 0.00756307 0.02301985 0.01958982 0.00289787 0.00167050 0.06943852 0.00564922 0.00647309 0.01184759 0.00132505 
0.03763503 0.02758309 0.01988176 0.00189909 0.00223435 0.00303971 0.00738972 0.02273581 0.01980352 0.00289636 0.00165474 0.07068975 0.00549407 0.00647545 0.01179955 0.00131972 
0.03831720 0.02750291 0.01963312 0.00195301 0.00224151 0.00297170 0.00721689 0.02241142 0.02001543 0.00289452 0.00164031 0.07199599 0.00536219 0.00647863 0.01175983 0.00131440 
0.03899167 0.02744247 0.01937419 0.00200929 0.00224721 0.00290384 0.00704520 0.02204808 0.02022425 0.00289231 0.00162724 0.07335436 0.00525452 0.00648255 0.01172899 0.00130909 
0.03965699 0.02740334 0.01910657 0.00206786 0.00225139 0.00283642 0.00687530 0.02164734 0.02042872 0.00288970 0.00161554 0.07476178 0.00517194 0.00648714 0.01170759 0.00130382 
0.04031173 0.02738695 0.01883191 0.00212860 0.00225400 0.00276975 0.00670782 0.02121096 0.02062762 0.00288663 0.00160524 0.07621494 0.00511518 0.00649235 0.01169609 0.00129861 
0.04095449 0.02739461 0.01855183 0.00219139 0.00225499 0.00270410 0.00654336 0.02074082 0.02081979 0.00288308 0.00159632 0.07771031 0.00508486 0.00649814 0.01169493 0.00129349 
0.04158392 0.02742746 0.01826796 0.00225609 0.00225434 0.00263975 0.00638252 0.02023894 0.02100409 0.00287899 0.00158877 0.07924417 0.00508148 0.00650446 0.01170449 0.00128846 
0.04219868 0.02748652 0.01798192 0.00232254 0.00225201 0.00257696 0.00622588 0.01970750 0.02117947 0.00287431 0.00158257 0.08081261 0.00510542 0.00651129 0.01172507 0.00128355 
0.04279748 0.02757262 0.01769530 0.00239057 0.00224798 0.00251600 0.00607398 0.01914877 0.02134491 0.00286901 0.00157768 0.08241155 0.00515692 0.00651862 0.01175695 0.00127878 
0.04337905 0.02768646 0.01740964 0.00245999 0.00224223 0.00245710 0.00592737 0.01856514 0.02149948 0.00286304 0.00157406 0.08403675 0.00523611 0.00652645 0.01180032 0.00127416 
0.04394218 0.02782857 0.01712644 0.00253061 0.00223475 0.00240050 0.00578655 0.01795909 0.02164230 0.00285634 0.00157164 0.08568381 0.00534297 0.00653480 0.01185531 0.00126972 
0.04448568 0.02799931 0.01684715 0.00260222 0.00222554 0.00234642 0.00565199 0.01733318 0.02177258 0.00284889 0.00157036 0.08734819 0.00547734 0.00654369 0.01192199 0.00126546 
0.04500840 0.02819891 0.01657313 0.00267459 0.00221461 0.00229504 0.00552416 0.01669005 0.02188959 0.00284063 0.00157015 0.08902525 0.00563896 0.00655316 0.01200037 0.00126140 
0.04550923 0.02842741 0.01630569 0.00274750 0.00220196 0.00224656 0.00540348 0.01603237 0.02199267 0.00283152 0.00157093 0.09071021 0.00582740 0.00656325 0.01209039 0.00125756 
0.04598709 0.02868471 0.01604606 0.00282070 0.00218763 0.00220114 0.00529033 0.01536286 0.02208128 0.00282154 0.00157261 0.09239821 0.00604212 0.00657403 0.01219192 0.00125395 
0.04644096 0.02897056 0.01579534 0.00289395 0.00217164 0.00215893 0.00518508 0.01468427 0.02215493 0.00281064 0.00157509 0.09408430 0.00628246 0.00658556 0.01230479 0.00125057 
0.04686984 0.02928455 0.01555458 0.00296699 0.00215402 0.00212006 0.00508806 0.01399935 0.02221323 0.00279880 0.00157827 0.09576348 0.00654760 0.00659793 0.01242872 0.00124745 
0.04727276 0.02962612 0.01532470 0.00303957 0.00213483 0.00208463 0.00499957 0.01331084 0.02225588 0.00278599 0.00158205 0.09743067 0.00683662 0.00661121 0.01256342 0.00124458 
0.04764881 0.02999459 0.01510652 0.00311142 0.00211411 0.00205273 0.00491985 0.01262148 0.02228268 0.00277219 0.00158632 0.09908077 0.00714849 0.00662549 0.01270851 0.00124198 
0.04799710 0.03038913 0.01490075 0.00318227 0.00209192 0.00202444 0.00484915 0.01193396 0.02229349 0.00275740 0.00159098 0.10070865 0.00748203 0.00664088 0.01286354 0.00123965 
0.04831679 0.03080879 0.01470798 0.00325186 0.00206835 0.00199980 0.00478765 0.01125095 0.02228831 0.00274161 0.00159590 0.10230919 0.00783599 0.00665747 0.01302804 0.00123760 
0.04860706 0.03125248 0.01452868 0.00331993 0.00204345 0.00197883 0.00473552 0.01057503 0.02226721 0.00272481 0.00160098 0.10387724 0.00820898 0.00667537 0.01320144 0.00123583 
0.04886716 0.03171903 0.01436321 0.00338622 0.00201731 0.00196156 0.00469287 0.00990874 0.02223034 0.00270701 0.00160610 0.10540772 0.00859954 0.00669467 0.01338315 0.00123435 
0.04909636 0.03220713 0.01421180 0.00345046 0.00199001 0.00194796 0.00465980 0.00925453 0.02217797 0.00268823 0.00161115 0.10689556 0.00900610 0.00671549 0.01357252 0.00123315 
0.04929398 0.03271540 0.01407456 0.00351241 0.00196166 0.00193800 0.00463636 0.00861473 0.02211047 0.00266848 0.00161603 0.10833576 0.00942701 0.00673792 0.01376886 0.00123225 
0.04945936 0.03324235 0.01395148 0.00357182 0.00193236 0.00193165 0.00462258 0.00799162 0.02202827 0.00264781 0.00162062 0.10972339 0.00986054 0.00676205 0.01397144 0.00123162 
0.04959193 0.03378641 0.01384244 0.00362844 0.00190219 0.00192882 0.00461844 0.00738731 0.02193192 0.00262624 0.00162483 0.11105362 0.01030490 0.00678799 0.01417946 0.00123128 
0.04969112 0.03434595 0.01374719 0.00368206 0.00187128 0.00192943 0.00462391 0.00680384 0.02182206 0.00260383 0.00162856 0.11232173 0.01075823 0.00681579 0.01439214 0.00123123 
0.04975643 0.03491927 0.01366538 0.00373246 0.00183974 0.00193339 0.00463892 0.00624308 0.02169939 0.00258062 0.00163172 0.11352312 0.01121864 0.00684555 0.01460862 0.00123145 
0.04978742 0.03550462 0.01359655 0.00377942 0.00180768 0.00194056 0.00466335 0.00570679 0.02156473 0.00255668 0.00163422 0.11465333 0.01168416 0.00687731 0.01482805 0.00123194 
0.04978368 0.03610018 0.01354014 0.00382277 0.00177522 0.00195083 0.00469709 0.00519658 0.02141897 0.00253208 0.00163598 0.11570809 0.01215283 0.00691113 0.01504953 0.00123270 
0.04974488 0.03670413 0.01349548 0.00386231 0.00174248 0.00196404 0.00473997 0.00471390 0.02126306 0.00250690 0.00163694 0.11668328 0.01262263 0.00694704 0.01527217 0.00123372 
0.04967073 0.03731458 0.01346183 0.00389790 0.00170959 0.00198003 0.00479180 0.00426007 0.02109805 0.00248122 0.00163704 0.11757501 0.01309155 0.00698506 0.01549506 0.00123498 
0.04956100 0.03792966 0.01343834 0.00392938 0.00167666 0.00199863 0.00485238 0.00383623 0.02092504 0.00245513 0.00163621 0.11837959 0.01355758 0.00702520 0.01571727 0.00123649 
0.04941555 0.03854745 0.01342412 0.00395663 0.00164383 0.00201965 0.00492146 0.00344337 0.02074522 0.00242873 0.00163442 0.11909357 0.01401869 0.00706742 0.01593788 0.00123823 
0.04923429 0.03916606 0.01341817 0.00397954 0.00161121 0.00204292 0.00499878 0.00308233 0.02055980 0.00240214 0.00163164 0.11971377 0.01447289 0.00711170 0.01615599 0.00124020 
0.04901719 0.03978357 0.01341947 0.00399801 0.00157892 0.00206822 0.00508407 0.00275378 0.02037009 0.00237545 0.00162783 0.12023726 0.01491822 0.00715799 0.01637067 0.00124237 
0.04876433 0.04039809 0.01342693 0.00401198 0.00154710 0.00209534 0.00517702 0.00245821 0.02017740 0.00234878 0.00162298 0.12066144 0.01535274 0.00720620 0.01658105 0.00124474 
0.04847583 0.04100774 0.01343941 0.00402138 0.00151585 0.00212409 0.00527730 0.00219597 0.01998312 0.00232227 0.00161710 0.12098397 0.01577456 0.00725625 0.01678623 0.00124730 
0.04815192 0.04161067 0.01345576 0.00402620 0.00148530 0.00215424 0.00538459 0.00196726 0.01978865 0.00229601 0.00161017 0.12120289 0.01618185 0.00730801 0.01698538 0.00125002 
0.04779291 0.04220506 0.01347481 0.00402642 0.00145555 0.00218557 0.00549852 0.00177210 0.01959542 0.00227016 0.00160223 0.12131655 0.01657285 0.00736135 0.01717767 0.00125291 
0.04739919 0.04278912 0.01349535 0.00402203 0.00142671 0.00221787 0.00561872 0.00161036 0.01940489 0.00224482 0.00159329 0.12132367 0.01694587 0.00741611 0.01736230 0.00125595 
0.04697123 0.04336112 0.01351620 0.00401309 0.00139890 0.00225091 0.00574482 0.00148178 0.01921852 0.00222014 0.00158340 0.12122335 0.01729930 0.00747211 0.01753854 0.00125911 
0.04650963 0.04391935 0.01353616 0.00399962 0.00137220 0.00228447 0.00587641 0.00138592 0.01903777 0.00219625 0.00157259 0.12101508 0.01763162 0.00752915 0.01770566 0.00126240 
0.04601506 0.04446218 0.01355408 0.00398171 0.00134671 0.00231834 0.00601309 0.00132224 0.01886410 0.00217327 0.00156092 0.12069875 0.01794141 0.00758703 0.01786301 0.00126579 
0.04548828 0.04498803 0.01356882 0.00395943 0.00132253 0.00235230 0.00615445 0.00129004 0.01869897 0.00215133 0.00154845 0.12027467 0.01822737 0.00764550 0.01800997 0.00126926 
0.04493018 0.04549538 0.01357926 0.00393290 0.00129972 0.00238614 0.00630006 0.00128850 0.01854379 0.00213056 0.00153526 0.11974356 0.01848828 0.00770432 0.01814597 0.00127281 
0.04434172 0.04598277 0.01358435 0.00390224 0.00127838 0.00241967 0.00644950 0.00131668 0.01839996 0.00211109 0.00152143 0.11910662 0.01872308 0.00776322 0.01827052 0.00127642 
0.04372397 0.04644884 0.01358309 0.00386759 0.00125856 0.00245268 0.00660234 0.00137352 0.01826884 0.00209303 0.00150703 0.11836545 0.01893080 0.00782194 0.01838317 0.00128008 
0.04307811 0.04689229 0.01357453 0.00382912 0.00124034 0.00248499 0.00675815 0.00145786 0.01815174 0.00207649 0.00149217 0.11752213 0.01911063 0.00788017 0.01848353 0.00128376 
0.04240543 0.04731187 0.01355780 0.00378700 0.00122376 0.00251641 0.00691648 0.00156845 0.01804991 0.00206160 0.00147695 0.11657919 0.01926188 0.00793764 0.01857128 0.00128747 
0.04170728 0.04770647 0.01353211 0.00374142 0.00120887 0.00254679 0.00707692 0.00170395 0.01796454 0.00204844 0.00146146 0.11553961 0.01938398 0.00799403 0.01864617 0.00129117 
0.04098515 0.04807502 0.01349674 0.00369259 0.00119572 0.00257595 0.00723902 0.00186292 0.01789675 0.00203711 0.00144582 0.11440684 0.01947654 0.00804905 0.01870801 0.00129487 
0.04024062 0.04841656 0.01345107 0.00364072 0.00118433 0.00260376 0.00740235 0.00204387 0.01784758 0.00202770 0.00143013 0.11318479 0.01953929 0.00810238 0.01875669 0.00129854 
0.03947533 0.04873020 0.01339455 0.00358606 0.00117473 0.00263006 0.00756650 0.00224525 0.01781799 0.00202029 0.00141452 0.11187782 0.01957212 0.00815374 0.01879215 0.00130217 
0.03869105 0.04901518 0.01332677 0.00352884 0.00116694 0.00265475 0.00773105 0.00246543 0.01780883 0.00201495 0.00139910 0.11049074 0.01957504 0.00820281 0.01881441 0.00130575 
0.03788963 0.04927080 0.01324737 0.00346931 0.00116096 0.00267772 0.00789558 0.00270277 0.01782088 0.00201173 0.00138399 0.10902882 0.01954823 0.00824930 0.01882357 0.00130928 
0.03707297 0.04949648 0.01315613 0.00340773 0.00115680 0.00269885 0.00805970 0.00295558 0.01785479 0.00201068 0.00136930 0.10749772 0.01949203 0.00829294 0.01881977 0.00131273 
0.03624309 0.04969174 0.01305293 0.00334437 0.00115445 0.00271808 0.00822302 0.00322214 0.01791110 0.00201184 0.00135516 0.10590357 0.01940688 0.00833345 0.01880324 0.00131609 
0.03540204 0.04985618 0.01293773 0.00327951 0.00115390 0.00273533 0.00838516 0.00350071 0.01799024 0.00201523 0.00134169 0.10425285 0.01929342 0.00837057 0.01877428 0.00131936 
0.03455197 0.04998952 0.01281062 0.00321341 0.00115512 0.00275054 0.00854575 0.00378956 0.01809252 0.00202087 0.00132898 0.10255246 0.01915238 0.00840409 0.01873324 0.00132253 
0.03369505 0.05009159 0.01267180 0.00314637 0.00115809 0.00276369 0.00870444 0.00408695 0.01821813 0.00202877 0.00131717 0.10080965 0.01898465 0.00843377 0.01868053 0.00132558 
0.03283354 0.05016233 0.01252155 0.00307865 0.00116278 0.00277473 0.00886090 0.00439114 0.01836712 0.00203890 0.00130634 0.09903200 0.01879127 0.00845942 0.01861664 0.00132851 
0.03196971 0.05020176 0.01236026 0.00301055 0.00116914 0.00278366 0.00901480 0.00470042 0.01853941 0.00205125 0.00129661 0.09722741 0.01857337 0.00848089 0.01854208 0.00133131 
0.03110587 0.05021004 0.01218844 0.00294234 0.00117713 0.00279049 0.00916586 0.00501311 0.01873480 0.00206579 0.00128808 0.09540407 0.01833224 0.00849803 0.01845746 0.00133398 
0.03024436 0.05018742 0.01200666 0.00287430 0.00118670 0.00279522 0.00931377 0.00532754 0.01895295 0.00208247 0.00128083 0.09357042 0.01806926 0.00851073 0.01836339 0.00133649 
0.02938753 0.05013427 0.01181559 0.00280669 0.00119777 0.00279789 0.00945827 0.00564211 0.01919338 0.00210124 0.00127494 0.09173510 0.01778594 0.00851891 0.01826058 0.00133886 
0.02853774 0.05005106 0.01161600 0.00273980 0.00121031 0.00279854 0.00959913 0.00595523 0.01945549 0.00212202 0.00127051 0.08990695 0.01748386 0.00852254 0.01814973 0.00134108 
0.02769733 0.04993838 0.01140873 0.00267388 0.00122422 0.00279723 0.00973611 0.00626540 0.01973853 0.00214474 0.00126759 0.08809496 0.01716474 0.00852159 0.01803161 0.00134313 
0.02686864 0.04979694 0.01119468 0.00260919 0.00123945 0.00279402 0.00986902 0.00657116 0.02004163 0.00216931 0.00126624 0.08630820 0.01683035 0.00851610 0.01790701 0.00134502 
0.02605397 0.04962753 0.01097482 0.00254597 0.00125592 0.00278900 0.00999767 0.00687111 0.02036379 0.00219563 0.00126652 0.08455584 0.01648254 0.00850612 0.01777675 0.00134675 
0.02525561 0.04943108 0.01075020 0.00248445 0.00127354 0.00278226 0.01012189 0.00716393 0.02070390 0.00222360 0.00126847 0.08284704 0.01612326 0.00849176 0.01764167 0.00134830 
0.02447578 0.04920862 0.01052189 0.00242486 0.00129224 0.00277389 0.01024156 0.00744837 0.02106069 0.00225310 0.00127212 0.08119093 0.01575447 0.00847314 0.01750262 0.00134968 
0.02371665 0.04896127 0.01029102 0.00236742 0.00131193 0.00276402 0.01035655 0.00772327 0.02143282 0.00228401 0.00127750 0.07959660 0.01537822 0.00845044 0.01736049 0.00135089 
0.02298033 0.04869027 0.01005873 0.00231232 0.00133252 0.00275276 0.01046677 0.00798752 0.02181882 0.00231620 0.00128462 0.07807300 0.01499655 0.00842386 0.01721615 0.00135193 
0.02226885 0.04839698 0.00982622 0.00225974 0.00135394 0.00274025 0.01057215 0.00824014 0.02221710 0.00234953 0.00129349 0.07662891 0.01461158 0.00839364 0.01707048 0.00135279 
0.02158415 0.04808283 0.00959468 0.00220987 0.00137608 0.00272661 0.01067264 0.00848020 0.02262600 0.00238387 0.00130409 0.07527289 0.01422541 0.00836005 0.01692436 0.00135349 
0.02092809 0.04774936 0.00936531 0.00216286 0.00139886 0.00271200 0.01076821 0.00870688 0.02304376 0.00241907 0.00131642 0.07401327 0.01384014 0.00832340 0.01677865 0.00135401 
0.02030241 0.04739821 0.00913931 0.00211884 0.00142219 0.00269656 0.01085885 0.00891945 0.02346855 0.00245499 0.00133043 0.07285803 0.01345788 0.00828403 0.01663420 0.00135436 
0.01970876 0.04703111 0.00891788 0.00207794 0.00144598 0.00268044 0.01094457 0.00911727 0.02389845 0.00249147 0.00134611 0.07181481 0.01308072 0.00824231 0.01649186 0.00135454 
0.01914865 0.04664987 0.00870219 0.00204028 0.00147015 0.00266380 0.01102540 0.00929981 0.02433149 0.00252838 0.00136339 0.07089082 0.01271071 0.00819861 0.01635242 0.00135457 
0.01862346 0.04625640 0.00849338 0.00200595 0.00149461 0.00264679 0.01110139 0.00946660 0.02476564 0.00256555 0.00138223 0.07009286 0.01234987 0.00815336 0.01621667 0.00135443 
0.01813448 0.04585265 0.00829256 0.00197502 0.00151927 0.00262959 0.01117262 0.00961730 0.02519885 0.00260285 0.00140257 0.06942717 0.01200015 0.00810698 0.01608537 0.00135413 
0.01768280 0.04544067 0.00810078 0.00194754 0.00154405 0.00261235 0.01123915 0.00975165 0.02562901 0.00264012 0.00142431 0.06889950 0.01166347 0.00805994 0.01595921 0.00135368 
0.01726942 0.04502258 0.00791907 0.00192357 0.00156887 0.00259523 0.01130109 0.00986948 0.02605401 0.00267724 0.00144740 0.06851498 0.01134164 0.00801268 0.01583886 0.00135309 
0.01689516 0.04460054 0.00774838 0.00190313 0.00159367 0.00257840 0.01135856 0.00997072 0.02647172 0.00271405 0.00147172 0.06827814 0.01103640 0.00796570 0.01572496 0.00135235 
0.01656071 0.04417675 0.00758959 0.00188622 0.00161835 0.00256199 0.01141167 0.01005539 0.02688003 0.00275043 0.00149720 0.06819284 0.01074942 0.00791946 0.01561807 0.00135147 
0.01626659 0.04375348 0.00744351 0.00187283 0.00164286 0.00254618 0.01146055 0.01012359 0.02727683 0.00278626 0.00152371 0.06826223 0.01048224 0.00787445 0.01551872 0.00135047 
0.01601317 0.04333301 0.00731090 0.00186294 0.00166714 0.00253111 0.01150536 0.01017552 0.02766004 0.00282141 0.00155116 0.06848875 0.01023628 0.00783116 0.01542738 0.00134933 
0.01580067 0.04291766 0.00719239 0.00185651 0.00169111 0.00251692 0.01154624 0.01021145 0.02802761 0.00285577 0.00157943 0.06887410 0.01001289 0.00779006 0.01534446 0.00134808 
0.01562915 0.04250976 0.00708857 0.00185348 0.00171473 0.00250375 0.01158335 0.01023174 0.02837757 0.00288924 0.00160840 0.06941918 0.00981324 0.00775161 0.01527032 0.00134672 
0.01549850 0.04211163 0.00699991 0.00185378 0.00173795 0.00249173 0.01161684 0.01023682 0.02870799 0.00292173 0.00163793 0.07012410 0.00963840 0.00771629 0.01520525 0.00134525 
0.01540847 0.04172560 0.00692679 0.00185732 0.00176072 0.00248098 0.01164688 0.01022719 0.02901700 0.00295315 0.00166791 0.07098817 0.00948928 0.00768452 0.01514948 0.00134368 
0.01535866 0.04135398 0.00686952 0.00186400 0.00178300 0.00247162 0.01167364 0.01020344 0.02930283 0.00298344 0.00169820 0.07200987 0.00936666 0.00765672 0.01510318 0.00134203 
0.01534852 0.04099906 0.00682828 0.00187371 0.00180477 0.00246374 0.01169726 0.01016619 0.02956382 0.00301252 0.00172867 0.07318685 0.00927117 0.00763328 0.01506647 0.00134028 
0.01537735 0.04066307 0.00680316 0.00188631 0.00182598 0.00245743 0.01171792 0.01011616 0.02979839 0.00304035 0.00175919 0.07451595 0.00920327 0.00761458 0.01503940 0.00133846 
0.01544431 0.04034820 0.00679416 0.00190167 0.00184663 0.00245280 0.01173575 0.01005409 0.03000508 0.00306689 0.00178961 0.07599314 0.00916329 0.00760094 0.01502194 0.00133657 
0.01554843 0.04005659 0.00680118 0.00191965 0.00186670 0.00244989 0.01175091 0.00998080 0.03018256 0.00309210 0.00181981 0.07761363 0.00915137 0.00759266 0.01501403 0.00133461 
0.01568862 0.03979028 0.00682402 0.00194007 0.00188618 0.00244878 0.01176352 0.00989714 0.03032963 0.00311598 0.00184965 0.07937177 0.00916752 0.00759001 0.01501553 0.00133260 
0.01586364 0.03955125 0.00686237 0.00196278 0.00190507 0.00244950 0.01177372 0.00980400 0.03044523 0.00313852 0.00187899 0.08126117 0.00921157 0.00759321 0.01502625 0.00133054 
0.01607216 0.03934135 0.00691587 0.00198758 0.00192336 0.00245209 0.01178162 0.00970231 0.03052844 0.00315972 0.00190772 0.08327464 0.00928321 0.00760243 0.01504595 0.00132844 
0.01631275 0.03916234 0.00698401 0.00201431 0.00194108 0.00245658 0.01178732 0.00959303 0.03057850 0.00317961 0.00193569 0.08540427 0.00938194 0.00761780 0.01507431 0.00132630 
0.01658387 0.03901585 0.00706624 0.00204276 0.00195824 0.00246297 0.01179090 0.00947715 0.03059480 0.00319821 0.00196279 0.08764146 0.00950715 0.00763942 0.01511099 0.00132414 
0.01688388 0.03890338 0.00716191 0.00207273 0.00197486 0.00247126 0.01179244 0.00935569 0.03057690 0.00321556 0.00198890 0.08997692 0.00965803 0.00766732 0.01515557 0.00132195 
0.01721109 0.03882627 0.00727029 0.00210403 0.00199097 0.00248142 0.01179199 0.00922964 0.03052453 0.00323171 0.00201390 0.09240077 0.00983366 0.00770149 0.01520762 0.00131974 
0.01756373 0.03878572 0.00739058 0.00213645 0.00200660 0.00249343 0.01178958 0.00910006 0.03043757 0.00324672 0.00203768 0.09490252 0.01003295 0.00774186 0.01526664 0.00131753 
0.01793995 0.03878274 0.00752191 0.00216979 0.00202180 0.00250724 0.01178524 0.00896796 0.03031610 0.00326067 0.00206014 0.09747119 0.01025471 0.00778833 0.01533210 0.00131531 
0.01833787 0.03881818 0.00766336 0.00220382 0.00203661 0.00252279 0.01177897 0.00883439 0.03016034 0.00327363 0.00208119 0.10009532 0.01049757 0.00784073 0.01540342 0.00131309 
0.01875557 0.03889269 0.00781393 0.00223835 0.00205108 0.00254001 0.01177074 0.00870037 0.02997069 0.00328569 0.00210073 0.10276303 0.01076009 0.00789884 0.01548001 0.00131088 
0.01919110 0.03900672 0.00797260 0.00227317 0.00206527 0.00255883 0.01176053 0.00856691 0.02974773 0.00329694 0.00211868 0.10546210 0.01104067 0.00796242 0.01556123 0.00130868 
0.01964249 0.03916053 0.00813828 0.00230806 0.00207923 0.00257914 0.01174827 0.00843501 0.02949220 0.00330749 0.00213496 0.10818005 0.01133765 0.00803113 0.01564643 0.00130649 
0.02010775 0.03935415 0.00830987 0.00234283 0.00209304 0.00260084 0.01173390 0.00830564 0.02920499 0.00331743 0.00214951 0.11090415 0.01164923 0.00810463 0.01573492 0.00130433 
0.02058491 0.03958740 0.00848623 0.00237726 0.00210675 0.00262382 0.01171732 0.00817976 0.02888717 0.00332687 0.00216227 0.11362154 0.01197355 0.00818251 0.01582601 0.00130219 
0.02107199 0.03985987 0.00866619 0.00241117 0.00212044 0.00264795 0.01169843 0.00805827 0.02853995 0.00333594 0.00217318 0.11631931 0.01230869 0.00826434 0.01591898 0.00130007 
0.02156705 0.04017093 0.00884858 0.00244437 0.00213419 0.00267310 0.01167711 0.00794207 0.02816469 0.00334475 0.00218221 0.11898451 0.01265263 0.00834961 0.01601311 0.00129799 
0.02206817 0.04051970 0.00903222 0.00247666 0.00214806 0.00269912 0.01165321 0.00783198 0.02776289 0.00335342 0.00218932 0.12160430 0.01300334 0.00843782 0.01610767 0.00129594 
0.02257345 0.04090508 0.00921593 0.00250787 0.00216214 0.00272587 0.01162660 0.00772882 0.02733620 0.00336206 0.00219449 0.12416597 0.01335871 0.00852840 0.01620192 0.00129393 
0.02308107 0.04132573 0.00939852 0.00253784 0.00217651 0.00275319 0.01159711 0.00763333 0.02688636 0.00337080 0.00219770 0.12665704 0.01371664 0.00862078 0.01629512 0.00129196 
0.02358922 0.04178007 0.00957885 0.00256639 0.00219124 0.00278091 0.01156458 0.00754621 0.02641525 0.00337975 0.00219894 0.12906532 0.01407500 0.00871433 0.01638653 0.00129004 
0.02409619 0.04226630 0.00975578 0.00259339 0.00220641 0.00280887 0.01152882 0.00746811 0.02592486 0.00338902 0.00219823 0.13137899 0.01443165 0.00880843 0.01647543 0.00128815 
0.02460032 0.04278238 0.00992818 0.00261868 0.00222210 0.00283691 0.01148967 0.00739962 0.02541726 0.00339875 0.00219556 0.13358667 0.01478447 0.00890242 0.01656109 0.00128632 
0.02510002 0.04332603 0.01009499 0.00264215 0.00223839 0.00286485 0.01144694 0.00734128 0.02489461 0.00340902 0.00219095 0.13567749 0.01513136 0.00899564 0.01664280 0.00128452 
0.02559377 0.04389478 0.01025516 0.00266367 0.00225536 0.00289252 0.01140044 0.00729353 0.02435914 0.00341995 0.00218445 0.13764115 0.01547027 0.00908742 0.01671985 0.00128278 
0.02608015 0.04448592 0.01040771 0.00268313 0.00227307 0.00291975 0.01135002 0.00725681 0.02381315 0.00343163 0.00217608 0.13946798 0.01579919 0.00917707 0.01679158 0.00128109 
0.02655781 0.04509656 0.01055168 0.00270044 0.00229160 0.00294637 0.01129548 0.00723144 0.02325898 0.00344415 0.00216589 0.14114903 0.01611616 0.00926391 0.01685731 0.00127945 
0.02702549 0.04572359 0.01068619 0.00271552 0.00231102 0.00297221 0.01123668 0.00721770 0.02269901 0.00345761 0.00215393 0.14267608 0.01641929 0.00934728 0.01691639 0.00127785 
0.02748205 0.04636374 0.01081041 0.00272830 0.00233138 0.00299711 0.01117346 0.00721580 0.02213566 0.00347207 0.00214026 0.14404171 0.01670680 0.00942650 0.01696821 0.00127631 
0.02792639 0.04701355 0.01092357 0.00273873 0.00235275 0.00302092 0.01110570 0.00722587 0.02157134 0.00348761 0.00212496 0.14523937 0.01697698 0.00950094 0.01701217 0.00127483 
0.02835756 0.04766941 0.01102498 0.00274677 0.00237516 0.00304348 0.01103326 0.00724800 0.02100848 0.00350428 0.00210810 0.14626339 0.01722824 0.00956995 0.01704769 0.00127339 
0.02877465 0.04832759 0.01111400 0.00275239 0.00239868 0.00306464 0.01095607 0.00728218 0.02044947 0.00352213 0.00208976 0.14710904 0.01745907 0.00963294 0.01707422 0.00127201 
0.02917689 0.04898421 0.01119008 0.00275557 0.00242333 0.00308428 0.01087405 0.00732835 0.01989672 0.00354120 0.00207003 0.14777253 0.01766814 0.00968933 0.01709125 0.00127068 
0.02956358 0.04963529 0.01125273 0.00275632 0.00244915 0.00310226 0.01078715 0.00738638 0.01935256 0.00356152 0.00204900 0.14825107 0.01785419 0.00973857 0.01709829 0.00126941 
0.02993410 0.05027678 0.01130156 0.00275466 0.00247615 0.00311848 0.01069537 0.00745608 0.01881931 0.00358311 0.00202678 0.14854289 0.01801614 0.00978015 0.01709488 0.00126819 
0.03028795 0.05090453 0.01133623 0.00275060 0.00250436 0.00313283 0.01059871 0.00753719 0.01829920 0.00360597 0.00200347 0.14864722 0.01815303 0.00981362 0.01708060 0.00126702 
0.03062469 0.05151437 0.01135649 0.00274420 0.00253378 0.00314522 0.01049724 0.00762939 0.01779442 0.00363010 0.00197919 0.14856432 0.01826407 0.00983854 0.01705505 0.00126591 
0.03094397 0.05210210 0.01136217 0.00273550 0.00256440 0.00315558 0.01039105 0.00773230 0.01730706 0.00365548 0.00195404 0.14829549 0.01834861 0.00985455 0.01701787 0.00126486 
0.03124551 0.05266352 0.01135319 0.00272457 0.00259620 0.00316384 0.01028026 0.00784547 0.01683912 0.00368208 0.00192816 0.14784304 0.01840616 0.00986132 0.01696875 0.00126386 
0.03152912 0.05319444 0.01132952 0.00271149 0.00262918 0.00316996 0.01016504 0.00796843 0.01639252 0.00370987 0.00190165 0.14721033 0.01843639 0.00985858 0.01690739 0.00126293 
0.03179466 0.05369073 0.01129124 0.00269636 0.00266328 0.00317392 0.01004560 0.00810062 0.01596906 0.00373879 0.00187466 0.14640166 0.01843915 0.00984613 0.01683355 0.00126205 
0.03204206 0.05414831 0.01123848 0.00267927 0.00269846 0.00317568 0.00992220 0.00824146 0.01557042 0.00376878 0.00184730 0.14542237 0.01841442 0.00982380 0.01674701 0.00126123 
0.03227132 0.05456322 0.01117146 0.00266033 0.00273468 0.00317527 0.00979514 0.00839030 0.01519818 0.00379977 0.00181970 0.14427869 0.01836238 0.00979152 0.01664760 0.00126047 
0.03248248 0.05493158 0.01109046 0.00263967 0.00277186 0.00317270 0.00966476 0.00854646 0.01485376 0.00383168 0.00179200 0.14297782 0.01828334 0.00974924 0.01653520 0.00125978 
0.03267561 0.05524969 0.01099585 0.00261742 0.00280991 0.00316800 0.00953145 0.00870924 0.01453848 0.00386441 0.00176433 0.14152778 0.01817780 0.00969701 0.01640972 0.00125915 
0.03285086 0.05551399 0.01088805 0.00259371 0.00284877 0.00316124 0.00939564 0.00887788 0.01425348 0.00389786 0.00173682 0.13993747 0.01804639 0.00963493 0.01627110 0.00125859 
0.03300837 0.05572113 0.01076755 0.00256870 0.00288832 0.00315249 0.00925782 0.00905160 0.01399980 0.00393192 0.00170961 0.13821654 0.01788991 0.00956315 0.01611935 0.00125811 
0.03314834 0.05586794 0.01063490 0.00254254 0.00292845 0.00314184 0.00911850 0.00922961 0.01377830 0.00396646 0.00168282 0.13637539 0.01770929 0.00948190 0.01595451 0.00125769 
0.03327097 0.05595153 0.01049071 0.00251538 0.00296905 0.00312939 0.00897824 0.00941107 0.01358971 0.00400136 0.00165659 0.13442507 0.01750563 0.00939148 0.01577669 0.00125735 
0.03337649 0.05596924 0.01033564 0.00248738 0.00300998 0.00311527 0.00883765 0.00959515 0.01343459 0.00403648 0.00163104 0.13237726 0.01728014 0.00929224 0.01558602 0.00125709 
0.03346513 0.05591869 0.01017041 0.00245873 0.00305110 0.00309963 0.00869737 0.00978100 0.01331336 0.00407168 0.00160631 0.13024418 0.01703416 0.00918459 0.01538270 0.00125691 
0.03353712 0.05579781 0.00999576 0.00242957 0.00309226 0.00308262 0.00855807 0.00996776 0.01322629 0.00410680 0.00158251 0.12803854 0.01676916 0.00906903 0.01516698 0.00125682 
0.03359271 0.05560485 0.00981252 0.00240010 0.00313331 0.00306441 0.00842047 0.01015457 0.01317348 0.00414169 0.00155977 0.12577344 0.01648671 0.00894607 0.01493917 0.00125682 
0.03363211 0.05533838 0.00962151 0.00237047 0.00317407 0.00304519 0.00828530 0.01034057 0.01315490 0.00417619 0.00153821 0.12346235 0.01618848 0.00881632 0.01469963 0.00125691 
0.03365556 0.05499735 0.00942361 0.00234086 0.00321438 0.00302516 0.00815333 0.01052492 0.01317035 0.00421013 0.00151793 0.12111897 0.01587625 0.00868043 0.01444878 0.00125709 
0.03366325 0.05458105 0.00921972 0.00231145 0.00325404 0.00300454 0.00802535 0.01070677 0.01321950 0.00424335 0.00149905 0.11875721 0.01555184 0.00853908 0.01418711 0.00125738 
0.03365537 0.05408918 0.00901076 0.00228240 0.00329288 0.00298355 0.00790215 0.01088530 0.01330186 0.00427567 0.00148166 0.11639111 0.01521717 0.00839302 0.01391517 0.00125777 
0.03363208 0.05352181 0.00879769 0.00225388 0.00333070 0.00296242 0.00778455 0.01105970 0.01341682 0.00430693 0.00146586 0.11403473 0.01487421 0.00824305 0.01363358 0.00125827 
0.03359352 0.05287941 0.00858146 0.00222605 0.00336731 0.00294139 0.00767338 0.01122920 0.01356361 0.00433695 0.00145175 0.11170210 0.01452497 0.00808998 0.01334301 0.00125888 
0.03353980 0.05216288 0.00836304 0.00219908 0.00340250 0.00292073 0.00756946 0.01139303 0.01374134 0.00436556 0.00143940 0.10940715 0.01417150 0.00793469 0.01304424 0.00125960 
0.03347100 0.05137353 0.00814342 0.00217310 0.00343607 0.00290067 0.00747362 0.01155048 0.01394901 0.00439259 0.00142890 0.10716363 0.01381585 0.00777807 0.01273807 0.00126045 
0.03338719 0.05051307 0.00792358 0.00214828 0.00346783 0.00288149 0.00738668 0.01170086 0.01418547 0.00441786 0.00142031 0.10498501 0.01346011 0.00762105 0.01242542 0.00126141 
0.03328839 0.04958366 0.00770449 0.00212475 0.00349756 0.00286345 0.00730944 0.01184351 0.01444949 0.00444121 0.00141369 0.10288447 0.01310633 0.00746456 0.01210726 0.00126251 
0.03317459 0.04858785 0.00748713 0.00210264 0.00352506 0.00284682 0.00724268 0.01197783 0.01473971 0.00446248 0.00140911 0.10087478 0.01275658 0.00730958 0.01178464 0.00126373 
0.03304579 0.04752862 0.00727246 0.00208208 0.00355015 0.00283184 0.00718717 0.01210323 0.01505468 0.00448151 0.00140660 0.09896826 0.01241289 0.00715707 0.01145869 0.00126508 
0.03290191 0.04640937 0.00706142 0.00206318 0.00357261 0.00281880 0.00714362 0.01221920 0.01539285 0.00449815 0.00140620 0.09717670 0.01207722 0.00700802 0.01113062 0.00126657 
0.03274290 0.04523387 0.00685494 0.00204605 0.00359226 0.00280795 0.00711273 0.01232527 0.01575261 0.00451223 0.00140795 0.09551131 0.01175153 0.00686341 0.01080172 0.00126820 
0.03256865 0.04400632 0.00665394 0.00203078 0.00360892 0.00279953 0.00709515 0.01242099 0.01613226 0.00452364 0.00141185 0.09398268 0.01143768 0.00672422 0.01047333 0.00126996 
0.03237906 0.04273127 0.00645928 0.00201747 0.00362240 0.00279379 0.00709148 0.01250600 0.01653001 0.00453223 0.00141793 0.09260070 0.01113747 0.00659143 0.01014692 0.00127186 
0.03217400 0.04141365 0.00627183 0.00200618 0.00363254 0.00279098 0.00710227 0.01257996 0.01694406 0.00453787 0.00142617 0.09137452 0.01085261 0.00646599 0.00982397 0.00127391 
0.03195336 0.04005872 0.00609239 0.00199698 0.00363918 0.00279130 0.00712799 0.01264260 0.01737251 0.00454046 0.00143658 0.09031251 0.01058474 0.00634883 0.00950610 0.00127609 
0.03171700 0.03867208 0.00592175 0.00198993 0.00364216 0.00279498 0.00716909 0.01269370 0.01781346 0.00453989 0.00144914 0.08942223 0.01033537 0.00624088 0.00919494 0.00127841 
0.03146480 0.03725964 0.00576065 0.00198506 0.00364136 0.00280220 0.00722591 0.01273308 0.01826495 0.00453605 0.00146382 0.08871038 0.01010592 0.00614300 0.00889223 0.00128088 
0.03119666 0.03582758 0.00560980 0.00198242 0.00363664 0.00281316 0.00729874 0.01276062 0.01872500 0.00452888 0.00148059 0.08818276 0.00989767 0.00605606 0.00859976 0.00128348 
0.03091246 0.03438233 0.00546985 0.00198203 0.00362790 0.00282801 0.00738779 0.01277627 0.01919162 0.00451829 0.00149940 0.08784428 0.00971181 0.00598086 0.00831938 0.00128621 
0.03061216 0.03293055 0.00534142 0.00198388 0.00361504 0.00284691 0.00749317 0.01278000 0.01966280 0.00450423 0.00152019 0.08769890 0.00954937 0.00591815 0.00805299 0.00128908 
0.03029569 0.03147911 0.00522507 0.00198799 0.00359799 0.00286997 0.00761493 0.01277185 0.02013654 0.00448665 0.00154292 0.08774965 0.00941125 0.00586866 0.00780254 0.00129208 
0.02996307 0.03003504 0.00512132 0.00199434 0.00357668 0.00289730 0.00775302 0.01275190 0.02061085 0.00446552 0.00156750 0.08799858 0.00929823 0.00583304 0.00757003 0.00129520 
0.02961434 0.02860548 0.00503062 0.00200291 0.00355108 0.00292899 0.00790732 0.01272028 0.02108375 0.00444082 0.00159386 0.08844678 0.00921091 0.00581190 0.00735749 0.00129845 
0.02924959 0.02719769 0.00495339 0.00201366 0.00352116 0.00296509 0.00807760 0.01267718 0.02155328 0.00441255 0.00162192 0.08909438 0.00914979 0.00580577 0.00716698 0.00130181 
0.02886899 0.02581900 0.00488999 0.00202657 0.00348691 0.00300565 0.00826354 0.01262282 0.02201751 0.00438072 0.00165158 0.08994054 0.00911517 0.00581512 0.00700058 0.00130528 
0.02847275 0.02447674 0.00484070 0.00204157 0.00344835 0.00305066 0.00846475 0.01255746 0.02247457 0.00434536 0.00168274 0.09098347 0.00910725 0.00584037 0.00686036 0.00130885 
0.02806118 0.02317823 0.00480578 0.00205860 0.00340552 0.00310013 0.00868072 0.01248141 0.02292260 0.00430651 0.00171529 0.09222044 0.00912604 0.00588183 0.00674842 0.00131251 
0.02763466 0.02193075 0.00478542 0.00207761 0.00335847 0.00315401 0.00891086 0.01239500 0.02335981 0.00426423 0.00174913 0.09364778 0.00917143 0.00593979 0.00666683 0.00131627 
0.02719367 0.02074149 0.00477973 0.00209851 0.00330730 0.00321223 0.00915449 0.01229862 0.02378448 0.00421859 0.00178413 0.09526093 0.00924314 0.00601440 0.00661764 0.00132010 
0.02673875 0.01961749 0.00478879 0.00212121 0.00325209 0.00327472 0.00941086 0.01219267 0.02419494 0.00416969 0.00182017 0.09705445 0.00934078 0.00610579 0.00660288 0.00132399 
0.02627058 0.01856562 0.00481262 0.00214564 0.00319297 0.00334135 0.00967911 0.01207760 0.02458958 0.00411763 0.00185713 0.09902207 0.00946378 0.00621397 0.00662451 0.00132795 
0.02578991 0.01759257 0.00485117 0.00217169 0.00313009 0.00341200 0.00995832 0.01195387 0.02496689 0.00406254 0.00189487 0.10115668 0.00961146 0.00633889 0.00668446 0.00133196 
0.02529763 0.01670473 0.00490434 0.00219925 0.00306361 0.00348649 0.01024746 0.01182198 0.02532541 0.00400456 0.00193326 0.10345041 0.00978300 0.00648040 0.00678456 0.00133600 
0.02479473 0.01590824 0.00497197 0.00222823 0.00299373 0.00356464 0.01054545 0.01168243 0.02566378 0.00394384 0.00197216 0.10589467 0.00997743 0.00663828 0.00692659 0.00134006 
0.02428230 0.01520889 0.00505384 0.00225850 0.00292066 0.00364625 0.01085116 0.01153577 0.02598075 0.00388056 0.00201144 0.10848016 0.01019371 0.00681224 0.00711219 0.00134414 
0.02376156 0.01461211 0.00514970 0.00228996 0.00284462 0.00373108 0.01116335 0.01138253 0.02627511 0.00381491 0.00205095 0.11119694 0.01043064 0.00700189 0.00734294 0.00134822 
0.02323385 0.01412292 0.00525921 0.00232248 0.00276587 0.00381889 0.01148076 0.01122329 0.02654580 0.00374708 0.00209055 0.11403449 0.01068693 0.00720676 0.00762026 0.00135229 
0.02270063 0.01374591 0.00538199 0.00235594 0.00268468 0.00390941 0.01180207 0.01105861 0.02679182 0.00367730 0.00213011 0.11698175 0.01096120 0.00742631 0.00794544 0.00135633 
0.02216348 0.01348521 0.00551763 0.00239022 0.00260135 0.00400234 0.01212590 0.01088908 0.02701229 0.00360579 0.00216949 0.12002717 0.01125198 0.00765992 0.00831963 0.00136033 
0.02162409 0.01334443 0.00566564 0.00242518 0.00251618 0.00409739 0.01245086 0.01071529 0.02720643 0.00353281 0.00220854 0.12315876 0.01155770 0.00790689 0.00874383 0.00136429 
0.02108426 0.01332664 0.00582550 0.00246071 0.00242950 0.00419424 0.01277551 0.01053783 0.02737357 0.00345862 0.00224713 0.12636418 0.01187674 0.00816646 0.00921882 0.00136817 
0.02054591 0.01343439 0.00599663 0.00249667 0.00234166 0.00429257 0.01309840 0.01035729 0.02751313 0.00338348 0.00228513 0.12963075 0.01220741 0.00843780 0.00974525 0.00137198 
0.02001107 0.01366960 0.00617842 0.00253293 0.00225300 0.00439203 0.01341806 0.01017427 0.02762467 0.00330767 0.00232241 0.13294557 0.01254795 0.00872000 0.01032353 0.00137570 
0.01948187 0.01403364 0.00637021 0.00256938 0.00216392 0.00449227 0.01373303 0.00998937 0.02770782 0.00323150 0.00235883 0.13629551 0.01289660 0.00901210 0.01095390 0.00137931 
0.01896052 0.01452720 0.00657130 0.00260587 0.00207478 0.00459293 0.01404183 0.00980317 0.02776235 0.00315527 0.00239428 0.13966733 0.01325153 0.00931308 0.01163634 0.00138281 
0.01844935 0.01515038 0.00678095 0.00264230 0.00198600 0.00469367 0.01434301 0.00961625 0.02778812 0.00307928 0.00242864 0.14304770 0.01361090 0.00962186 0.01237064 0.00138617 
0.01795072 0.01590260 0.00699839 0.00267853 0.00189796 0.00479412 0.01463515 0.00942919 0.02778512 0.00300385 0.00246180 0.14642329 0.01397286 0.00993734 0.01315634 0.00138939 
0.01746711 0.01678264 0.00722282 0.00271444 0.00181110 0.00489391 0.01491683 0.00924256 0.02775342 0.00292932 0.00249365 0.14978081 0.01433556 0.01025834 0.01399275 0.00139245 
0.01700103 0.01778860 0.00745339 0.00274992 0.00172582 0.00499269 0.01518671 0.00905691 0.02769321 0.00285601 0.00252408 0.15310708 0.01469715 0.01058367 0.01487894 0.00139534 
0.01655505 0.01891792 0.00768925 0.00278486 0.00164255 0.00509011 0.01544345 0.00887280 0.02760480 0.00278425 0.00255301 0.15638907 0.01505580 0.01091208 0.01581370 0.00139805 
0.01613178 0.02016738 0.00792950 0.00281914 0.00156173 0.00518580 0.01568581 0.00869075 0.02748857 0.00271439 0.00258035 0.15961398 0.01540973 0.01124233 0.01679560 0.00140058 
0.01573383 0.02153310 0.00817325 0.00285265 0.00148378 0.00527945 0.01591257 0.00851129 0.02734503 0.00264674 0.00260601 0.16276928 0.01575716 0.01157314 0.01782295 0.00140290 
0.01536386 0.02301055 0.00841956 0.00288530 0.00140912 0.00537070 0.01612262 0.00833493 0.02717479 0.00258167 0.00262992 0.16584276 0.01609638 0.01190320 0.01889380 0.00140501 
0.01502450 0.02459457 0.00866750 0.00291699 0.00133819 0.00545925 0.01631492 0.00816217 0.02697852 0.00251948 0.00265202 0.16882259 0.01642573 0.01223123 0.02000596 0.00140691 
0.01471838 0.02627937 0.00891610 0.00294762 0.00127141 0.00554480 0.01648848 0.00799348 0.02675702 0.00246053 0.00267225 0.17169738 0.01674361 0.01255591 0.02115698 0.00140857 
0.01444809 0.02805859 0.00916440 0.00297711 0.00120918 0.00562706 0.01664244 0.00782934 0.02651117 0.00240512 0.00269055 0.17445619 0.01704849 0.01287596 0.02234418 0.00141001 
0.01421618 0.02992528 0.00941145 0.00300538 0.00115191 0.00570576 0.01677603 0.00767018 0.02624193 0.00235358 0.00270688 0.17708860 0.01733893 0.01319008 0.02356462 0.00141120 
0.01402513 0.03187194 0.00965626 0.00303234 0.00109999 0.00578066 0.01688857 0.00751646 0.02595034 0.00230621 0.00272120 0.17958477 0.01761355 0.01349701 0.02481516 0.00141215 
0.01387737 0.03389060 0.00989787 0.00305793 0.00105382 0.00585152 0.01697949 0.00736858 0.02563751 0.00226331 0.00273349 0.18193543 0.01787108 0.01379551 0.02609242 0.00141284 
0.01377521 0.03597278 0.01013531 0.00308209 0.00101374 0.00591815 0.01704834 0.00722694 0.02530465 0.00222517 0.00274372 0.18413195 0.01811035 0.01408436 0.02739283 0.00141329 
0.01372089 0.03810959 0.01036763 0.00310475 0.00098012 0.00598036 0.01709477 0.00709194 0.02495302 0.00219205 0.00275188 0.18616637 0.01833028 0.01436238 0.02871260 0.00141347 
0.01371649 0.04029174 0.01059388 0.00312588 0.00095328 0.00603800 0.01711856 0.00696393 0.02458393 0.00216422 0.00275796 0.18803142 0.01852989 0.01462843 0.03004778 0.00141341 
0.01376399 0.04250961 0.01081313 0.00314541 0.00093353 0.00609093 0.01711960 0.00684328 0.02419877 0.00214191 0.00276197 0.18972053 0.01870832 0.01488144 0.03139426 0.00141308 
0.01386522 0.04475327 0.01102447 0.00316332 0.00092116 0.00613906 0.01709789 0.00673030 0.02379898 0.00212535 0.00276389 0.19122791 0.01886483 0.01512036 0.03274775 0.00141250 
0.01402183 0.04701256 0.01122701 0.00317958 0.00091644 0.00618229 0.01705358 0.00662531 0.02338605 0.00211473 0.00276376 0.19254850 0.01899877 0.01534423 0.03410385 0.00141166 
0.01423532 0.04927713 0.01141988 0.00319417 0.00091959 0.00622059 0.01698690 0.00652862 0.02296149 0.00211023 0.00276159 0.19367802 0.01910964 0.01555212 0.03545805 0.00141058 
0.01450700 0.05153649 0.01160225 0.00320706 0.00093084 0.00625392 0.01689824 0.00644048 0.02252687 0.00211202 0.00275739 0.19461299 0.01919702 0.01574321 0.03680575 0.00140924 
0.01483798 0.05378008 0.01177330 0.00321826 0.00095035 0.00628229 0.01678807 0.00636116 0.02208379 0.00212021 0.00275121 0.19535074 0.01926065 0.01591671 0.03814227 0.00140767 
0.01522918 0.05599732 0.01193227 0.00322776 0.00097828 0.00630573 0.01665699 0.00629090 0.02163386 0.00213492 0.00274307 0.19588937 0.01930034 0.01607193 0.03946290 0.00140586 
0.01568129 0.05817768 0.01207842 0.00323558 0.00101475 0.00632429 0.01650572 0.00622990 0.02117874 0.00215623 0.00273301 0.19622781 0.01931607 0.01620827 0.04076288 0.00140382 
0.01619479 0.06031073 0.01221105 0.00324173 0.00105985 0.00633804 0.01633506 0.00617835 0.02072006 0.00218419 0.00272108 0.19636579 0.01930789 0.01632520 0.04203747 0.00140157 
0.01676994 0.06238620 0.01232951 0.00324624 0.00111361 0.00634711 0.01614593 0.00613643 0.02025950 0.00221883 0.00270733 0.19630385 0.01927600 0.01642227 0.04328197 0.00139911 
0.01740676 0.06439404 0.01243320 0.00324914 0.00117607 0.00635160 0.01593936 0.00610428 0.01979872 0.00226014 0.00269180 0.19604331 0.01922069 0.01649915 0.04449168 0.00139644 
0.01810503 0.06632451 0.01252155 0.00325048 0.00124719 0.00635167 0.01571643 0.00608201 0.01933939 0.00230809 0.00267456 0.19558628 0.01914236 0.01655556 0.04566202 0.00139359 
0.01886431 0.06816818 0.01259406 0.00325030 0.00132692 0.00634750 0.01547835 0.00606973 0.01888317 0.00236262 0.00265565 0.19493563 0.01904152 0.01659134 0.04678849 0.00139057 
0.01968391 0.06991605 0.01265027 0.00324868 0.00141517 0.00633927 0.01522637 0.00606750 0.01843168 0.00242363 0.00263515 0.19409498 0.01891879 0.01660643 0.04786670 0.00138739 
0.02056291 0.07155956 0.01268978 0.00324566 0.00151181 0.00632719 0.01496183 0.00607535 0.01798657 0.00249099 0.00261310 0.19306868 0.01877487 0.01660085 0.04889244 0.00138406 
0.02150014 0.07309067 0.01271224 0.00324134 0.00161666 0.00631149 0.01468613 0.00609332 0.01754942 0.00256455 0.00258959 0.19186179 0.01861057 0.01657471 0.04986164 0.00138059 
0.02249422 0.07450191 0.01271737 0.00323580 0.00172953 0.00629241 0.01440071 0.00612136 0.01712180 0.00264413 0.00256466 0.19048005 0.01842676 0.01652824 0.05077043 0.00137701 
0.02354352 0.07578641 0.01270495 0.00322913 0.00185016 0.00627020 0.01410707 0.00615945 0.01670526 0.00272951 0.00253841 0.18892984 0.01822442 0.01646174 0.05161517 0.00137333 
0.02464622 0.07693797 0.01267479 0.00322144 0.00197827 0.00624512 0.01380674 0.00620749 0.01630128 0.00282044 0.00251088 0.18721818 0.01800459 0.01637563 0.05239244 0.00136957 
0.02580026 0.07795109 0.01262680 0.00321284 0.00211356 0.00621746 0.01350127 0.00626538 0.01591132 0.00291665 0.00248216 0.18535264 0.01776837 0.01627038 0.05309909 0.00136573 
0.02700337 0.07882101 0.01256094 0.00320343 0.00225566 0.00618748 0.01319223 0.00633298 0.01553678 0.00301784 0.00245232 0.18334137 0.01751694 0.01614661 0.05373224 0.00136185 
0.02825312 0.07954374 0.01247723 0.00319336 0.00240418 0.00615548 0.01288122 0.00641011 0.01517900 0.00312369 0.00242142 0.18119302 0.01725153 0.01600496 0.05428931 0.00135794 
0.02954687 0.08011611 0.01237575 0.00318276 0.00255872 0.00612174 0.01256980 0.00649655 0.01483929 0.00323382 0.00238956 0.17891671 0.01697340 0.01584622 0.05476802 0.00135401 
0.03088182 0.08053576 0.01225664 0.00317176 0.00271881 0.00608656 0.01225956 0.00659207 0.01451886 0.00334787 0.00235679 0.17652198 0.01668388 0.01567120 0.05516643 0.00135009 
0.03225502 0.08080119 0.01212013 0.00316051 0.00288398 0.00605021 0.01195203 0.00669638 0.01421889 0.00346544 0.00232320 0.17401876 0.01638432 0.01548084 0.05548293 0.00134619 
0.03366335 0.08091177 0.01196648 0.00314917 0.00305370 0.00601299 0.01164875 0.00680916 0.01394047 0.00358610 0.00228887 0.17141734 0.01607609 0.01527612 0.05571626 0.00134233 
0.03510361 0.08086775 0.01179603 0.00313789 0.00322745 0.00597517 0.01135119 0.00693007 0.01368463 0.00370940 0.00225387 0.16872827 0.01576059 0.01505809 0.05586550 0.00133852 
0.03657245 0.08067024 0.01160919 0.00312683 0.00340465 0.00593703 0.01106079 0.00705873 0.01345232 0.00383490 0.00221829 0.16596237 0.01543923 0.01482789 0.05593014 0.00133479 
0.03806644 0.08032124 0.01140640 0.00311618 0.00358472 0.00589884 0.01077895 0.00719471 0.01324442 0.00396211 0.00218220 0.16313066 0.01511343 0.01458669 0.05590999 0.00133116 
0.03958207 0.07982365 0.01118818 0.00310608 0.00376705 0.00586084 0.01050698 0.00733757 0.01306171 0.00409054 0.00214568 0.16024431 0.01478460 0.01433572 0.05580526 0.00132763 
0.04111580 0.07918120 0.01095512 0.00309673 0.00395103 0.00582328 0.01024613 0.00748682 0.01290491 0.00421969 0.00210882 0.15731458 0.01445414 0.01407627 0.05561654 0.00132422 
0.04266400 0.07839849 0.01070785 0.00308829 0.00413600 0.00578639 0.00999759 0.00764195 0.01277465 0.00434906 0.00207170 0.15435281 0.01412345 0.01380966 0.05534477 0.00132096 
