0.02445368 0.02760332 0.00746518 0.00225526 0.00093159 0.00145137 0.00792905 0.00195628 0.03632467 0.00174242 0.00162265 0.01579434 0.00289563 0.00498066 0.00346337 0.00128901 
0.02522454 0.02872563 0.00743996 0.00231495 0.00092062 0.00139881 0.00782381 0.00187147 0.03643701 0.00169222 0.00158171 0.01532598 0.00279784 0.00491864 0.00342713 0.00129512 
0.02602737 0.02983814 0.00740622 0.00237753 0.00090936 0.00134893 0.00771690 0.00179368 0.03656420 0.00164264 0.00154132 0.01485789 0.00270827 0.00485150 0.00338767 0.00130104 
0.02686178 0.03093680 0.00736393 0.00244273 0.00089782 0.00130192 0.00760875 0.00172305 0.03670494 0.00159385 0.00150158 0.01439322 0.00262771 0.00477960 0.00334523 0.00130677 
0.02772726 0.03201756 0.00731311 0.00251023 0.00088605 0.00125800 0.00749978 0.00165968 0.03685776 0.00154601 0.00146258 0.01393514 0.00255690 0.00470333 0.00330010 0.00131228 
0.02862319 0.03307638 0.00725385 0.00257971 0.00087407 0.00121734 0.00739047 0.00160365 0.03702108 0.00149928 0.00142440 0.01348684 0.00249656 0.00462311 0.00325256 0.00131757 
0.02954886 0.03410930 0.00718629 0.00265086 0.00086192 0.00118010 0.00728128 0.00155500 0.03719317 0.00145382 0.00138714 0.01305149 0.00244737 0.00453937 0.00320291 0.00132262 
0.03050343 0.03511240 0.00711064 0.00272334 0.00084964 0.00114645 0.00717269 0.00151373 0.03737220 0.00140976 0.00135088 0.01263225 0.00240992 0.00445258 0.00315147 0.00132743 
0.03148595 0.03608187 0.00702717 0.00279681 0.00083727 0.00111652 0.00706519 0.00147979 0.03755622 0.00136727 0.00131572 0.01223220 0.00238479 0.00436322 0.00309859 0.00133199 
0.03249536 0.03701399 0.00693622 0.00287093 0.00082485 0.00109042 0.00695927 0.00145312 0.03774321 0.00132647 0.00128173 0.01185440 0.00237247 0.00427177 0.00304459 0.00133629 
0.03353045 0.03790519 0.00683819 0.00294535 0.00081244 0.00106828 0.00685541 0.00143360 0.03793106 0.00128750 0.00124900 0.01150178 0.00237340 0.00417874 0.00298985 0.00134032 
0.03458992 0.03875204 0.00673353 0.00301973 0.00080006 0.00105016 0.00675411 0.00142110 0.03811760 0.00125049 0.00121760 0.01117720 0.00238796 0.00408467 0.00293471 0.00134409 
0.03567230 0.03955128 0.00662276 0.00309373 0.00078779 0.00103614 0.00665585 0.00141545 0.03830063 0.00121554 0.00118762 0.01088339 0.00241644 0.00399007 0.00287955 0.00134759 
0.03677602 0.04029984 0.00650645 0.00316699 0.00077566 0.00102628 0.00656111 0.00141645 0.03847792 0.00118277 0.00115911 0.01062296 0.00245908 0.00389550 0.00282474 0.00135081 
0.03789939 0.04099484 0.00638522 0.00323918 0.00076372 0.00102059 0.00647035 0.00142386 0.03864722 0.00115227 0.00113215 0.01039833 0.00251601 0.00380149 0.00277066 0.00135376 
0.03904055 0.04163364 0.00625975 0.00330998 0.00075203 0.00101911 0.00638403 0.00143744 0.03880630 0.00112414 0.00110678 0.01021180 0.00258733 0.00370859 0.00271767 0.00135643 
0.04019757 0.04221383 0.00613077 0.00337906 0.00074064 0.00102181 0.00630258 0.00145691 0.03895295 0.00109845 0.00108308 0.01006545 0.00267302 0.00361735 0.00266616 0.00135883 
0.04136834 0.04273325 0.00599904 0.00344611 0.00072961 0.00102868 0.00622643 0.00148197 0.03908499 0.00107527 0.00106107 0.00996117 0.00277301 0.00352831 0.00261651 0.00136095 
0.04255069 0.04319001 0.00586537 0.00351083 0.00071898 0.00103968 0.00615596 0.00151229 0.03920033 0.00105466 0.00104080 0.00990064 0.00288713 0.00344202 0.00256906 0.00136281 
0.04374229 0.04358247 0.00573060 0.00357293 0.00070880 0.00105474 0.00609155 0.00154755 0.03929693 0.00103666 0.00102230 0.00988534 0.00301514 0.00335899 0.00252419 0.00136439 
0.04494073 0.04390931 0.00559561 0.00363214 0.00069913 0.00107379 0.00603355 0.00158739 0.03937286 0.00102130 0.00100560 0.00991647 0.00315672 0.00327976 0.00248224 0.00136571 
0.04614348 0.04416947 0.00546129 0.00368819 0.00069002 0.00109672 0.00598229 0.00163145 0.03942626 0.00100862 0.00099071 0.00999503 0.00331147 0.00320483 0.00244355 0.00136677 
0.04734793 0.04436221 0.00532856 0.00374085 0.00068152 0.00112344 0.00593804 0.00167935 0.03945545 0.00099861 0.00097765 0.01012175 0.00347893 0.00313469 0.00240846 0.00136758 
0.04855138 0.04448710 0.00519835 0.00378989 0.00067366 0.00115380 0.00590107 0.00173071 0.03945884 0.00099129 0.00096640 0.01029709 0.00365854 0.00306982 0.00237728 0.00136813 
0.04975105 0.04454400 0.00507161 0.00383511 0.00066651 0.00118767 0.00587160 0.00178515 0.03943501 0.00098663 0.00095697 0.01052128 0.00384968 0.00301067 0.00235030 0.00136845 
0.05094410 0.04453309 0.00494926 0.00387632 0.00066009 0.00122488 0.00584982 0.00184226 0.03938269 0.00098462 0.00094935 0.01079425 0.00405168 0.00295767 0.00232781 0.00136852 
0.05212763 0.04445486 0.00483226 0.00391336 0.00065446 0.00126526 0.00583588 0.00190167 0.03930079 0.00098521 0.00094350 0.01111569 0.00426377 0.00291124 0.00231007 0.00136837 
0.05329870 0.04431011 0.00472153 0.00394608 0.00064965 0.00130862 0.00582991 0.00196297 0.03918840 0.00098837 0.00093941 0.01148499 0.00448516 0.00287175 0.00229733 0.00136800 
0.05445435 0.04409993 0.00461798 0.00397437 0.00064569 0.00135475 0.00583197 0.00202578 0.03904479 0.00099404 0.00093703 0.01190131 0.00471497 0.00283956 0.00228981 0.00136741 
0.05559160 0.04382573 0.00452249 0.00399812 0.00064261 0.00140346 0.00584211 0.00208972 0.03886944 0.00100215 0.00093631 0.01236352 0.00495229 0.00281498 0.00228771 0.00136662 
0.05670744 0.04348920 0.00443593 0.00401725 0.00064045 0.00145451 0.00586032 0.00215441 0.03866203 0.00101261 0.00093722 0.01287025 0.00519615 0.00279832 0.00229122 0.00136563 
0.05779892 0.04309231 0.00435912 0.00403172 0.00063923 0.00150768 0.00588658 0.00221948 0.03842242 0.00102535 0.00093968 0.01341985 0.00544555 0.00278982 0.00230048 0.00136446 
0.05886307 0.04263731 0.00429285 0.00404149 0.00063896 0.00156272 0.00592079 0.00228459 0.03815070 0.00104027 0.00094364 0.01401045 0.00569947 0.00278971 0.00231562 0.00136311 
0.05989699 0.04212671 0.00423783 0.00404655 0.00063967 0.00161938 0.00596284 0.00234938 0.03784716 0.00105725 0.00094903 0.01463995 0.00595682 0.00279818 0.00233677 0.00136159 
0.06089784 0.04156326 0.00419476 0.00404693 0.00064137 0.00167743 0.00601258 0.00241353 0.03751230 0.00107620 0.00095577 0.01530599 0.00621654 0.00281538 0.00236398 0.00135991 
0.06186282 0.04094995 0.00416426 0.00404265 0.00064407 0.00173659 0.00606980 0.00247672 0.03714682 0.00109698 0.00096378 0.01600604 0.00647750 0.00284141 0.00239733 0.00135809 
0.06278925 0.04028998 0.00414688 0.00403378 0.00064777 0.00179661 0.00613429 0.00253866 0.03675161 0.00111947 0.00097298 0.01673736 0.00673861 0.00287636 0.00243683 0.00135614 
0.06367454 0.03958674 0.00414311 0.00402040 0.00065248 0.00185722 0.00620577 0.00259907 0.03632778 0.00114353 0.00098328 0.01749701 0.00699875 0.00292026 0.00248249 0.00135405 
0.06451622 0.03884381 0.00415336 0.00400262 0.00065819 0.00191817 0.00628394 0.00265768 0.03587660 0.00116902 0.00099460 0.01828191 0.00725682 0.00297309 0.00253429 0.00135186 
0.06531196 0.03806492 0.00417798 0.00398055 0.00066490 0.00197920 0.00636846 0.00271426 0.03539953 0.00119581 0.00100684 0.01908881 0.00751171 0.00303482 0.00259217 0.00134956 
0.06605958 0.03725394 0.00421721 0.00395434 0.00067259 0.00204003 0.00645898 0.00276858 0.03489822 0.00122373 0.00101991 0.01991435 0.00776234 0.00310536 0.00265606 0.00134717 
0.06675704 0.03641486 0.00427122 0.00392415 0.00068125 0.00210042 0.00655510 0.00282045 0.03437444 0.00125263 0.00103370 0.02075505 0.00800767 0.00318458 0.00272585 0.00134470 
0.06740251 0.03555176 0.00434011 0.00389017 0.00069086 0.00216012 0.00665639 0.00286969 0.03383015 0.00128237 0.00104814 0.02160733 0.00824667 0.00327232 0.00280143 0.00134216 
0.06799433 0.03466879 0.00442386 0.00385259 0.00070139 0.00221888 0.00676242 0.00291612 0.03326742 0.00131279 0.00106312 0.02246757 0.00847834 0.00336837 0.00288264 0.00133956 
0.06853105 0.03377013 0.00452237 0.00381162 0.00071283 0.00227646 0.00687271 0.00295963 0.03268844 0.00134372 0.00107855 0.02333208 0.00870174 0.00347250 0.00296929 0.00133692 
0.06901143 0.03286001 0.00463546 0.00376750 0.00072515 0.00233263 0.00698679 0.00300009 0.03209553 0.00137501 0.00109434 0.02419714 0.00891598 0.00358442 0.00306120 0.00133424 
0.06943446 0.03194265 0.00476285 0.00372046 0.00073830 0.00238717 0.00710414 0.00303741 0.03149109 0.00140650 0.00111039 0.02505903 0.00912022 0.00370382 0.00315815 0.00133154 
0.06979936 0.03102224 0.00490415 0.00367076 0.00075225 0.00243987 0.00722426 0.00307150 0.03087759 0.00143805 0.00112663 0.02591407 0.00931366 0.00383034 0.00325989 0.00132882 
0.07010561 0.03010292 0.00505890 0.00361866 0.00076696 0.00249053 0.00734661 0.00310233 0.03025758 0.00146948 0.00114297 0.02675859 0.00949558 0.00396360 0.00336615 0.00132611 
0.07035292 0.02918876 0.00522655 0.00356444 0.00078240 0.00253896 0.00747067 0.00312985 0.02963364 0.00150066 0.00115933 0.02758899 0.00966534 0.00410317 0.00347667 0.00132341 
0.07054127 0.02828376 0.00540645 0.00350837 0.00079851 0.00258499 0.00759588 0.00315406 0.02900838 0.00153144 0.00117564 0.02840176 0.00982234 0.00424861 0.00359113 0.00132073 
0.07067089 0.02739177 0.00559787 0.00345075 0.00081525 0.00262846 0.00772172 0.00317494 0.02838444 0.00156167 0.00119183 0.02919349 0.00996607 0.00439944 0.00370923 0.00131808 
0.07074228 0.02651652 0.00580000 0.00339186 0.00083257 0.00266922 0.00784764 0.00319253 0.02776444 0.00159122 0.00120784 0.02996087 0.01009610 0.00455514 0.00383064 0.00131548 
0.07075622 0.02566158 0.00601194 0.00333201 0.00085041 0.00270714 0.00797311 0.00320686 0.02715098 0.00161997 0.00122361 0.03070077 0.01021207 0.00471519 0.00395500 0.00131293 
0.07071375 0.02483034 0.00623275 0.00327149 0.00086873 0.00274211 0.00809761 0.00321798 0.02654662 0.00164778 0.00123909 0.03141020 0.01031371 0.00487902 0.00408196 0.00131045 
0.07061617 0.02402601 0.00646137 0.00321060 0.00088747 0.00277403 0.00822061 0.00322596 0.02595389 0.00167454 0.00125423 0.03208634 0.01040082 0.00504607 0.00421116 0.00130804 
0.07046506 0.02325157 0.00669672 0.00314963 0.00090658 0.00280281 0.00834162 0.00323089 0.02537523 0.00170014 0.00126901 0.03272657 0.01047328 0.00521572 0.00434222 0.00130572 
0.07026225 0.02250978 0.00693764 0.00308888 0.00092599 0.00282840 0.00846016 0.00323285 0.02481299 0.00172449 0.00128340 0.03332851 0.01053107 0.00538737 0.00447475 0.00130349 
0.07000982 0.02180316 0.00718292 0.00302863 0.00094565 0.00285074 0.00857575 0.00323195 0.02426946 0.00174748 0.00129737 0.03388994 0.01057422 0.00556038 0.00460836 0.00130137 
0.06971012 0.02113397 0.00743132 0.00296918 0.00096550 0.00286981 0.00868796 0.00322832 0.02374677 0.00176905 0.00131091 0.03440894 0.01060287 0.00573412 0.00474265 0.00129935 
0.06936573 0.02050422 0.00768155 0.00291079 0.00098548 0.00288558 0.00879637 0.00322206 0.02324697 0.00178911 0.00132402 0.03488378 0.01061723 0.00590795 0.00487723 0.00129746 
0.06897946 0.01991563 0.00793229 0.00285374 0.00100553 0.00289806 0.00890059 0.00321332 0.02277194 0.00180761 0.00133671 0.03531303 0.01061756 0.00608120 0.00501169 0.00129569 
0.06855433 0.01936964 0.00818221 0.00279827 0.00102560 0.00290727 0.00900025 0.00320223 0.02232345 0.00182450 0.00134897 0.03569548 0.01060423 0.00625321 0.00514563 0.00129406 
0.06809359 0.01886741 0.00842997 0.00274465 0.00104563 0.00291324 0.00909503 0.00318893 0.02190309 0.00183973 0.00136083 0.03603024 0.01057765 0.00642334 0.00527866 0.00129257 
0.06760066 0.01840981 0.00867419 0.00269309 0.00106556 0.00291602 0.00918462 0.00317358 0.02151228 0.00185328 0.00137233 0.03631663 0.01053830 0.00659092 0.00541037 0.00129123 
0.06707917 0.01799742 0.00891353 0.00264382 0.00108533 0.00291568 0.00926877 0.00315633 0.02115229 0.00186512 0.00138348 0.03655429 0.01048675 0.00675531 0.00554038 0.00129004 
0.06653288 0.01763051 0.00914666 0.00259705 0.00110488 0.00291229 0.00934725 0.00313732 0.02082419 0.00187525 0.00139433 0.03674313 0.01042358 0.00691587 0.00566829 0.00128901 
0.06596570 0.01730907 0.00937224 0.00255296 0.00112417 0.00290596 0.00941986 0.00311672 0.02052889 0.00188367 0.00140494 0.03688331 0.01034945 0.00707196 0.00579373 0.00128814 
0.06538169 0.01703281 0.00958900 0.00251173 0.00114313 0.00289678 0.00948645 0.00309467 0.02026707 0.00189040 0.00141534 0.03697528 0.01026508 0.00722298 0.00591632 0.00128743 
0.06478498 0.01680116 0.00979567 0.00247351 0.00116171 0.00288487 0.00954691 0.00307133 0.02003927 0.00189546 0.00142561 0.03701975 0.01017119 0.00736833 0.00603571 0.00128690 
0.06417983 0.01661325 0.00999104 0.00243844 0.00117986 0.00287037 0.00960116 0.00304684 0.01984580 0.00189888 0.00143581 0.03701769 0.01006856 0.00750742 0.00615154 0.00128654 
0.06357053 0.01646798 0.01017396 0.00240663 0.00119754 0.00285341 0.00964915 0.00302136 0.01968678 0.00190071 0.00144600 0.03697034 0.00995801 0.00763970 0.00626348 0.00128634 
0.06296143 0.01636397 0.01034333 0.00237819 0.00121469 0.00283414 0.00969089 0.00299503 0.01956214 0.00190101 0.00145626 0.03687915 0.00984036 0.00776464 0.00637120 0.00128632 
0.06235690 0.01629961 0.01049811 0.00235320 0.00123126 0.00281273 0.00972641 0.00296798 0.01947163 0.00189984 0.00146667 0.03674583 0.00971645 0.00788174 0.00647439 0.00128648 
0.06176131 0.01627307 0.01063736 0.00233171 0.00124722 0.00278932 0.00975579 0.00294036 0.01941479 0.00189727 0.00147730 0.03657230 0.00958715 0.00799054 0.00657276 0.00128681 
0.06117901 0.01628230 0.01076020 0.00231377 0.00126252 0.00276410 0.00977912 0.00291228 0.01939098 0.00189339 0.00148825 0.03636069 0.00945332 0.00809057 0.00666602 0.00128731 
0.06061430 0.01632504 0.01086583 0.00229938 0.00127711 0.00273724 0.00979656 0.00288387 0.01939938 0.00188829 0.00149959 0.03611332 0.00931581 0.00818146 0.00675392 0.00128797 
0.06007142 0.01639887 0.01095357 0.00228856 0.00129096 0.00270892 0.00980828 0.00285524 0.01943900 0.00188206 0.00151141 0.03583269 0.00917549 0.00826281 0.00683621 0.00128881 
0.05955450 0.01650122 0.01102281 0.00228127 0.00130404 0.00267932 0.00981447 0.00282650 0.01950867 0.00187480 0.00152379 0.03552146 0.00903318 0.00833432 0.00691267 0.00128981 
0.05906758 0.01662935 0.01107306 0.00227748 0.00131630 0.00264862 0.00981538 0.00279775 0.01960706 0.00186664 0.00153681 0.03518242 0.00888972 0.00839567 0.00698310 0.00129096 
0.05861455 0.01678045 0.01110391 0.00227712 0.00132771 0.00261700 0.00981126 0.00276908 0.01973270 0.00185768 0.00155057 0.03481849 0.00874590 0.00844664 0.00704730 0.00129228 
0.05819915 0.01695157 0.01111508 0.00228012 0.00133825 0.00258464 0.00980241 0.00274057 0.01988396 0.00184804 0.00156513 0.03443272 0.00860249 0.00848700 0.00710511 0.00129374 
0.05782493 0.01713970 0.01110639 0.00228637 0.00134788 0.00255173 0.00978911 0.00271230 0.02005909 0.00183785 0.00158058 0.03402821 0.00846022 0.00851661 0.00715639 0.00129534 
0.05749527 0.01734179 0.01107777 0.00229576 0.00135658 0.00251844 0.00977171 0.00268433 0.02025620 0.00182723 0.00159699 0.03360815 0.00831978 0.00853534 0.00720100 0.00129708 
0.05721330 0.01755476 0.01102926 0.00230815 0.00136433 0.00248494 0.00975053 0.00265673 0.02047331 0.00181631 0.00161443 0.03317576 0.00818184 0.00854312 0.00723886 0.00129894 
0.05698193 0.01777551 0.01096103 0.00232340 0.00137110 0.00245140 0.00972594 0.00262954 0.02070833 0.00180523 0.00163295 0.03273429 0.00804699 0.00853993 0.00726987 0.00130093 
0.05680381 0.01800096 0.01087333 0.00234134 0.00137688 0.00241797 0.00969830 0.00260281 0.02095908 0.00179410 0.00165263 0.03228701 0.00791580 0.00852579 0.00729398 0.00130303 
0.05668133 0.01822809 0.01076655 0.00236178 0.00138164 0.00238481 0.00966798 0.00257657 0.02122330 0.00178307 0.00167350 0.03183715 0.00778876 0.00850077 0.00731115 0.00130524 
0.05661659 0.01845392 0.01064115 0.00238454 0.00138538 0.00235207 0.00963536 0.00255085 0.02149870 0.00177225 0.00169562 0.03138794 0.00766634 0.00846497 0.00732135 0.00130754 
0.05661138 0.01867555 0.01049774 0.00240941 0.00138808 0.00231988 0.00960081 0.00252567 0.02178291 0.00176177 0.00171901 0.03094252 0.00754892 0.00841856 0.00732460 0.00130992 
0.05666720 0.01889021 0.01033700 0.00243618 0.00138974 0.00228836 0.00956471 0.00250105 0.02207353 0.00175176 0.00174371 0.03050400 0.00743684 0.00836174 0.00732092 0.00131238 
0.05678523 0.01909523 0.01015970 0.00246462 0.00139033 0.00225764 0.00952742 0.00247699 0.02236816 0.00174232 0.00176974 0.03007536 0.00733038 0.00829475 0.00731036 0.00131491 
0.05696628 0.01928810 0.00996674 0.00249449 0.00138987 0.00222781 0.00948931 0.00245350 0.02266437 0.00173358 0.00179710 0.02965951 0.00722977 0.00821789 0.00729298 0.00131749 
0.05721088 0.01946644 0.00975906 0.00252556 0.00138834 0.00219897 0.00945073 0.00243057 0.02295975 0.00172564 0.00182579 0.02925921 0.00713515 0.00813148 0.00726888 0.00132011 
0.05751918 0.01962810 0.00953773 0.00255759 0.00138575 0.00217120 0.00941202 0.00240819 0.02325191 0.00171860 0.00185581 0.02887709 0.00704665 0.00803588 0.00723817 0.00132277 
0.05789098 0.01977107 0.00930384 0.00259033 0.00138210 0.00214458 0.00937349 0.00238635 0.02353849 0.00171256 0.00188713 0.02851565 0.00696430 0.00793152 0.00720097 0.00132545 
0.05832575 0.01989359 0.00905859 0.00262352 0.00137740 0.00211917 0.00933544 0.00236504 0.02381718 0.00170759 0.00191973 0.02817721 0.00688810 0.00781882 0.00715744 0.00132814 
0.05882260 0.01999409 0.00880323 0.00265692 0.00137164 0.00209500 0.00929815 0.00234424 0.02408573 0.00170378 0.00195357 0.02786390 0.00681798 0.00769827 0.00710775 0.00133083 
0.05938030 0.02007125 0.00853905 0.00269027 0.00136485 0.00207211 0.00926187 0.00232393 0.02434197 0.00170119 0.00198858 0.02757769 0.00675384 0.00757036 0.00705209 0.00133351 
0.05999726 0.02012398 0.00826740 0.00272334 0.00135702 0.00205053 0.00922684 0.00230408 0.02458380 0.00169988 0.00202472 0.02732033 0.00669552 0.00743564 0.00699067 0.00133617 
0.06067157 0.02015144 0.00798965 0.00275588 0.00134819 0.00203026 0.00919325 0.00228467 0.02480923 0.00169990 0.00206190 0.02709340 0.00664280 0.00729466 0.00692372 0.00133880 
0.06140096 0.02015305 0.00770721 0.00278764 0.00133836 0.00201131 0.00916127 0.00226568 0.02501637 0.00170129 0.00210005 0.02689823 0.00659546 0.00714800 0.00685148 0.00134138 
0.06218286 0.02012847 0.00742151 0.00281842 0.00132755 0.00199365 0.00913105 0.00224708 0.02520347 0.00170408 0.00213908 0.02673596 0.00655320 0.00699627 0.00677422 0.00134391 
0.06301438 0.02007765 0.00713399 0.00284797 0.00131579 0.00197727 0.00910269 0.00222886 0.02536887 0.00170827 0.00217888 0.02660752 0.00651570 0.00684009 0.00669223 0.00134638 
0.06389231 0.02000077 0.00684609 0.00287609 0.00130311 0.00196213 0.00907627 0.00221098 0.02551109 0.00171388 0.00221934 0.02651361 0.00648263 0.00668008 0.00660579 0.00134878 
0.06481319 0.01989828 0.00655923 0.00290258 0.00128952 0.00194819 0.00905182 0.00219344 0.02562877 0.00172090 0.00226035 0.02645470 0.00645360 0.00651691 0.00651524 0.00135109 
0.06577325 0.01977090 0.00627484 0.00292725 0.00127505 0.00193538 0.00902937 0.00217621 0.02572072 0.00172931 0.00230176 0.02643105 0.00642823 0.00635121 0.00642091 0.00135331 
0.06676848 0.01961957 0.00599431 0.00294992 0.00125975 0.00192365 0.00900888 0.00215928 0.02578590 0.00173909 0.00234345 0.02644272 0.00640612 0.00618365 0.00632313 0.00135542 
0.06779464 0.01944550 0.00571900 0.00297045 0.00124363 0.00191292 0.00899031 0.00214265 0.02582344 0.00175019 0.00238527 0.02648953 0.00638683 0.00601489 0.00622227 0.00135743 
0.06884726 0.01925012 0.00545024 0.00298868 0.00122675 0.00190312 0.00897356 0.00212631 0.02583266 0.00176257 0.00242708 0.02657111 0.00636995 0.00584558 0.00611872 0.00135932 
0.06992167 0.01903509 0.00518931 0.00300449 0.00120914 0.00189416 0.00895850 0.00211027 0.02581305 0.00177617 0.00246871 0.02668688 0.00635505 0.00567637 0.00601286 0.00136108 
0.07101305 0.01880227 0.00493743 0.00301776 0.00119083 0.00188595 0.00894500 0.00209452 0.02576427 0.00179091 0.00251000 0.02683608 0.00634170 0.00550792 0.00590510 0.00136271 
0.07211640 0.01855375 0.00469575 0.00302840 0.00117187 0.00187839 0.00893287 0.00207908 0.02568618 0.00180672 0.00255079 0.02701774 0.00632949 0.00534086 0.00579585 0.00136420 
0.07322661 0.01829178 0.00446538 0.00303635 0.00115231 0.00187139 0.00892190 0.00206397 0.02557881 0.00182351 0.00259091 0.02723074 0.00631800 0.00517580 0.00568554 0.00136555 
0.07433845 0.01801878 0.00424733 0.00304154 0.00113220 0.00186483 0.00891186 0.00204922 0.02544241 0.00184118 0.00263018 0.02747378 0.00630686 0.00501336 0.00557460 0.00136674 
0.07544664 0.01773733 0.00404254 0.00304394 0.00111157 0.00185863 0.00890250 0.00203485 0.02527739 0.00185962 0.00266844 0.02774542 0.00629567 0.00485412 0.00546349 0.00136778 
0.07654581 0.01745014 0.00385187 0.00304354 0.00109049 0.00185266 0.00889354 0.00202091 0.02508435 0.00187873 0.00270551 0.02804407 0.00628410 0.00469863 0.00535267 0.00136865 
0.07763061 0.01716004 0.00367609 0.00304033 0.00106901 0.00184683 0.00888468 0.00200744 0.02486408 0.00189838 0.00274120 0.02836802 0.00627182 0.00454746 0.00524258 0.00136936 
0.07869564 0.01686994 0.00351588 0.00303435 0.00104717 0.00184103 0.00887562 0.00199450 0.02461755 0.00191845 0.00277536 0.02871544 0.00625855 0.00440110 0.00513371 0.00136989 
0.07973557 0.01658285 0.00337181 0.00302562 0.00102503 0.00183517 0.00886603 0.00198215 0.02434590 0.00193882 0.00280781 0.02908442 0.00624401 0.00426004 0.00502652 0.00137026 
0.08074509 0.01630181 0.00324438 0.00301423 0.00100266 0.00182914 0.00885557 0.00197046 0.02405045 0.00195935 0.00283838 0.02947295 0.00622798 0.00412473 0.00492149 0.00137044 
0.08171900 0.01602991 0.00313396 0.00300023 0.00098010 0.00182284 0.00884391 0.00195950 0.02373269 0.00197990 0.00286691 0.02987895 0.00621028 0.00399561 0.00481911 0.00137045 
0.08265218 0.01577024 0.00304085 0.00298374 0.00095742 0.00181620 0.00883071 0.00194935 0.02339426 0.00200034 0.00289323 0.03030031 0.00619075 0.00387306 0.00471984 0.00137028 
0.08353964 0.01552589 0.00296521 0.00296486 0.00093467 0.00180911 0.00881561 0.00194012 0.02303695 0.00202053 0.00291720 0.03073486 0.00616928 0.00375743 0.00462418 0.00136992 
0.08437656 0.01529989 0.00290714 0.00294372 0.00091192 0.00180152 0.00879827 0.00193188 0.02266269 0.00204033 0.00293867 0.03118043 0.00614581 0.00364903 0.00453260 0.00136939 
0.08515829 0.01509526 0.00286661 0.00292048 0.00088922 0.00179334 0.00877837 0.00192476 0.02227355 0.00205961 0.00295750 0.03163483 0.00612030 0.00354816 0.00444556 0.00136867 
0.08588037 0.01491491 0.00284350 0.00289528 0.00086664 0.00178451 0.00875557 0.00191884 0.02187173 0.00207822 0.00297357 0.03209589 0.00609277 0.00345505 0.00436353 0.00136777 
0.08653858 0.01476166 0.00283759 0.00286831 0.00084423 0.00177499 0.00872955 0.00191426 0.02145951 0.00209604 0.00298674 0.03256147 0.00606329 0.00336991 0.00428698 0.00136669 
0.08712892 0.01463824 0.00284858 0.00283975 0.00082206 0.00176473 0.00870002 0.00191113 0.02103929 0.00211294 0.00299692 0.03302947 0.00603193 0.00329289 0.00421634 0.00136542 
0.08764766 0.01454721 0.00287605 0.00280979 0.00080018 0.00175369 0.00866670 0.00190956 0.02061357 0.00212879 0.00300400 0.03349785 0.00599885 0.00322413 0.00415206 0.00136398 
0.08809136 0.01449099 0.00291951 0.00277863 0.00077866 0.00174185 0.00862932 0.00190970 0.02018488 0.00214347 0.00300790 0.03396463 0.00596422 0.00316371 0.00409455 0.00136237 
0.08845686 0.01447184 0.00297838 0.00274650 0.00075756 0.00172919 0.00858764 0.00191166 0.01975584 0.00215688 0.00300855 0.03442792 0.00592825 0.00311167 0.00404422 0.00136058 
0.08874130 0.01449182 0.00305199 0.00271360 0.00073692 0.00171573 0.00854147 0.00191558 0.01932911 0.00216891 0.00300588 0.03488593 0.00589120 0.00306802 0.00400146 0.00135862 
0.08894217 0.01455279 0.00313962 0.00268017 0.00071681 0.00170146 0.00849061 0.00192159 0.01890737 0.00217947 0.00299984 0.03533699 0.00585334 0.00303274 0.00396662 0.00135649 
0.08905726 0.01465639 0.00324045 0.00264641 0.00069729 0.00168641 0.00843492 0.00192982 0.01849330 0.00218846 0.00299041 0.03577954 0.00581500 0.00300574 0.00394007 0.00135420 
0.08908472 0.01480405 0.00335361 0.00261257 0.00067841 0.00167061 0.00837428 0.00194040 0.01808961 0.00219581 0.00297756 0.03621214 0.00577652 0.00298694 0.00392210 0.00135176 
0.08902305 0.01499692 0.00347816 0.00257886 0.00066022 0.00165411 0.00830861 0.00195346 0.01769897 0.00220146 0.00296129 0.03663352 0.00573826 0.00297618 0.00391303 0.00134916 
0.08887109 0.01523595 0.00361312 0.00254552 0.00064276 0.00163696 0.00823786 0.00196913 0.01732401 0.00220534 0.00294161 0.03704253 0.00570062 0.00297329 0.00391311 0.00134641 
0.08862806 0.01552178 0.00375746 0.00251275 0.00062610 0.00161923 0.00816202 0.00198753 0.01696732 0.00220741 0.00291855 0.03743820 0.00566401 0.00297807 0.00392257 0.00134352 
0.08829352 0.01585483 0.00391011 0.00248078 0.00061027 0.00160099 0.00808112 0.00200878 0.01663142 0.00220765 0.00289216 0.03781970 0.00562884 0.00299027 0.00394162 0.00134050 
0.08786739 0.01623522 0.00406995 0.00244982 0.00059532 0.00158234 0.00799522 0.00203299 0.01631874 0.00220602 0.00286248 0.03818640 0.00559556 0.00300963 0.00397043 0.00133735 
0.08734997 0.01666281 0.00423586 0.00242005 0.00058129 0.00156338 0.00790445 0.00206026 0.01603164 0.00220252 0.00282959 0.03853782 0.00556461 0.00303585 0.00400912 0.00133408 
0.08674190 0.01713718 0.00440668 0.00239168 0.00056822 0.00154420 0.00780894 0.00209068 0.01577233 0.00219716 0.00279358 0.03887365 0.00553644 0.00306861 0.00405778 0.00133069 
0.08604418 0.01765765 0.00458125 0.00236489 0.00055614 0.00152494 0.00770887 0.00212435 0.01554291 0.00218995 0.00275455 0.03919377 0.00551150 0.00310756 0.00411649 0.00132720 
0.08525814 0.01822324 0.00475839 0.00233983 0.00054509 0.00150572 0.00760448 0.00216134 0.01534533 0.00218091 0.00271263 0.03949824 0.00549024 0.00315234 0.00418524 0.00132362 
0.08438545 0.01883273 0.00493693 0.00231666 0.00053509 0.00148666 0.00749602 0.00220171 0.01518140 0.00217010 0.00266793 0.03978730 0.00547308 0.00320256 0.00426401 0.00131995 
0.08342813 0.01948462 0.00511571 0.00229552 0.00052617 0.00146791 0.00738380 0.00224551 0.01505274 0.00215756 0.00262061 0.04006134 0.00546047 0.00325781 0.00435273 0.00131620 
0.08238847 0.02017716 0.00529358 0.00227654 0.00051836 0.00144962 0.00726814 0.00229279 0.01496081 0.00214336 0.00257083 0.04032096 0.00545282 0.00331768 0.00445129 0.00131238 
0.08126910 0.02090833 0.00546940 0.00225981 0.00051167 0.00143194 0.00714941 0.00234356 0.01490686 0.00212757 0.00251876 0.04056688 0.00545051 0.00338172 0.00455954 0.00130850 
0.08007293 0.02167592 0.00564208 0.00224542 0.00050611 0.00141501 0.00702801 0.00239783 0.01489195 0.00211029 0.00246459 0.04080004 0.00545393 0.00344951 0.00467728 0.00130458 
0.07880315 0.02247744 0.00581054 0.00223346 0.00050171 0.00139900 0.00690436 0.00245560 0.01491692 0.00209162 0.00240850 0.04102148 0.00546343 0.00352058 0.00480425 0.00130062 
0.07746318 0.02331022 0.00597375 0.00222396 0.00049847 0.00138408 0.00677893 0.00251684 0.01498240 0.00207166 0.00235071 0.04123243 0.00547933 0.00359449 0.00494019 0.00129663 
0.07605673 0.02417138 0.00613072 0.00221696 0.00049639 0.00137038 0.00665219 0.00258151 0.01508878 0.00205053 0.00229144 0.04143424 0.00550193 0.00367077 0.00508475 0.00129264 
0.07458769 0.02505785 0.00628051 0.00221248 0.00049547 0.00135809 0.00652463 0.00264955 0.01523625 0.00202836 0.00223091 0.04162840 0.00553147 0.00374897 0.00523756 0.00128864 
0.07306019 0.02596641 0.00642223 0.00221051 0.00049571 0.00134735 0.00639678 0.00272089 0.01542473 0.00200530 0.00216935 0.04181651 0.00556820 0.00382862 0.00539821 0.00128465 
0.07147855 0.02689366 0.00655505 0.00221103 0.00049711 0.00133832 0.00626916 0.00279541 0.01565392 0.00198147 0.00210700 0.04200029 0.00561230 0.00390926 0.00556625 0.00128068 
0.06984723 0.02783609 0.00667819 0.00221399 0.00049965 0.00133115 0.00614233 0.00287302 0.01592328 0.00195703 0.00204412 0.04218155 0.00566391 0.00399046 0.00574117 0.00127674 
0.06817089 0.02879007 0.00679096 0.00221933 0.00050331 0.00132599 0.00601682 0.00295357 0.01623204 0.00193214 0.00198094 0.04236219 0.00572316 0.00407177 0.00592246 0.00127286 
0.06645428 0.02975188 0.00689272 0.00222699 0.00050809 0.00132298 0.00589321 0.00303691 0.01657918 0.00190696 0.00191774 0.04254418 0.00579010 0.00415275 0.00610953 0.00126904 
0.06470229 0.03071774 0.00698291 0.00223685 0.00051395 0.00132225 0.00577204 0.00312287 0.01696345 0.00188164 0.00185475 0.04272955 0.00586476 0.00423300 0.00630179 0.00126528 
0.06291991 0.03168378 0.00706102 0.00224881 0.00052087 0.00132392 0.00565387 0.00321126 0.01738339 0.00185635 0.00179225 0.04292036 0.00594712 0.00431210 0.00649860 0.00126162 
0.06111220 0.03264614 0.00712664 0.00226274 0.00052882 0.00132811 0.00553925 0.00330187 0.01783729 0.00183127 0.00173050 0.04311873 0.00603713 0.00438967 0.00669930 0.00125805 
0.05928427 0.03360092 0.00717944 0.00227851 0.00053777 0.00133493 0.00542872 0.00339447 0.01832325 0.00180655 0.00166975 0.04332676 0.00613468 0.00446533 0.00690321 0.00125460 
0.05744130 0.03454426 0.00721914 0.00229594 0.00054768 0.00134446 0.00532280 0.00348883 0.01883914 0.00178237 0.00161025 0.04354657 0.00623961 0.00453873 0.00710962 0.00125127 
0.05558847 0.03547232 0.00724556 0.00231488 0.00055851 0.00135679 0.00522199 0.00358467 0.01938267 0.00175889 0.00155227 0.04378026 0.00635174 0.00460955 0.00731779 0.00124807 
0.05373097 0.03638130 0.00725861 0.00233515 0.00057022 0.00137199 0.00512678 0.00368173 0.01995135 0.00173626 0.00149604 0.04402989 0.00647083 0.00467747 0.00752697 0.00124503 
0.05187399 0.03726751 0.00725824 0.00235655 0.00058276 0.00139011 0.00503764 0.00377971 0.02054251 0.00171465 0.00144182 0.04429750 0.00659661 0.00474220 0.00773641 0.00124214 
0.05002270 0.03812732 0.00724450 0.00237890 0.00059608 0.00141119 0.00495500 0.00387832 0.02115335 0.00169421 0.00138984 0.04458504 0.00672877 0.00480350 0.00794534 0.00123943 
0.04818221 0.03895724 0.00721754 0.00240200 0.00061014 0.00143525 0.00487925 0.00397724 0.02178090 0.00167509 0.00134033 0.04489441 0.00686694 0.00486110 0.00815297 0.00123690 
0.04635759 0.03975390 0.00717754 0.00242562 0.00062486 0.00146231 0.00481077 0.00407615 0.02242211 0.00165743 0.00129350 0.04522740 0.00701074 0.00491482 0.00835854 0.00123457 
0.04455384 0.04051408 0.00712478 0.00244957 0.00064021 0.00149235 0.00474990 0.00417472 0.02307379 0.00164135 0.00124957 0.04558571 0.00715975 0.00496446 0.00856127 0.00123244 
0.04277587 0.04123476 0.00705962 0.00247364 0.00065612 0.00152536 0.00469692 0.00427261 0.02373267 0.00162698 0.00120873 0.04597093 0.00731350 0.00500986 0.00876038 0.00123052 
0.04102851 0.04191306 0.00698247 0.00249760 0.00067252 0.00156130 0.00465209 0.00436947 0.02439543 0.00161444 0.00117118 0.04638451 0.00747152 0.00505090 0.00895512 0.00122883 
0.03931647 0.04254634 0.00689382 0.00252126 0.00068936 0.00160010 0.00461562 0.00446495 0.02505869 0.00160383 0.00113707 0.04682776 0.00763329 0.00508746 0.00914475 0.00122737 
0.03764434 0.04313215 0.00679422 0.00254440 0.00070657 0.00164171 0.00458768 0.00455871 0.02571904 0.00159524 0.00110658 0.04730186 0.00779827 0.00511949 0.00932852 0.00122614 
0.03601659 0.04366828 0.00668428 0.00256682 0.00072408 0.00168602 0.00456838 0.00465039 0.02637306 0.00158875 0.00107984 0.04780781 0.00796589 0.00514693 0.00950573 0.00122516 
0.03443755 0.04415276 0.00656467 0.00258832 0.00074184 0.00173294 0.00455779 0.00473966 0.02701736 0.00158444 0.00105699 0.04834644 0.00813559 0.00516975 0.00967571 0.00122443 
0.03291139 0.04458385 0.00643611 0.00260872 0.00075976 0.00178235 0.00455595 0.00482615 0.02764857 0.00158235 0.00103813 0.04891842 0.00830677 0.00518796 0.00983779 0.00122395 
0.03144215 0.04496010 0.00629939 0.00262784 0.00077779 0.00183411 0.00456282 0.00490954 0.02826338 0.00158254 0.00102337 0.04952422 0.00847882 0.00520161 0.00999136 0.00122373 
0.03003366 0.04528030 0.00615532 0.00264551 0.00079585 0.00188807 0.00457833 0.00498949 0.02885855 0.00158502 0.00101278 0.05016413 0.00865112 0.00521073 0.01013582 0.00122376 
0.02868962 0.04554351 0.00600477 0.00266158 0.00081389 0.00194406 0.00460236 0.00506569 0.02943095 0.00158983 0.00100642 0.05083823 0.00882306 0.00521542 0.01027064 0.00122406 
0.02741351 0.04574906 0.00584863 0.00267589 0.00083182 0.00200192 0.00463474 0.00513783 0.02997754 0.00159696 0.00100434 0.05154643 0.00899402 0.00521579 0.01039531 0.00122462 
0.02620866 0.04589658 0.00568786 0.00268833 0.00084959 0.00206144 0.00467524 0.00520562 0.03049544 0.00160639 0.00100656 0.05228840 0.00916336 0.00521195 0.01050936 0.00122544 
0.02507817 0.04598594 0.00552341 0.00269877 0.00086713 0.00212243 0.00472361 0.00526877 0.03098191 0.00161812 0.00101308 0.05306364 0.00933048 0.00520406 0.01061239 0.00122652 
0.02402496 0.04601730 0.00535628 0.00270713 0.00088437 0.00218467 0.00477953 0.00532702 0.03143436 0.00163209 0.00102390 0.05387143 0.00949476 0.00519228 0.01070402 0.00122785 
0.02305173 0.04599111 0.00518748 0.00271331 0.00090126 0.00224794 0.00484265 0.00538015 0.03185043 0.00164826 0.00103899 0.05471085 0.00965560 0.00517681 0.01078396 0.00122943 
0.02216096 0.04590806 0.00501803 0.00271725 0.00091773 0.00231201 0.00491257 0.00542791 0.03222791 0.00166656 0.00105828 0.05558080 0.00981243 0.00515786 0.01085194 0.00123125 
0.02135493 0.04576910 0.00484898 0.00271891 0.00093373 0.00237664 0.00498886 0.00547013 0.03256484 0.00168691 0.00108173 0.05647995 0.00996466 0.00513564 0.01090776 0.00123331 
0.02063568 0.04557546 0.00468137 0.00271826 0.00094919 0.00244159 0.00507105 0.00550661 0.03285948 0.00170923 0.00110924 0.05740681 0.01011176 0.00511038 0.01095127 0.00123559 
0.02000501 0.04532860 0.00451625 0.00271529 0.00096408 0.00250661 0.00515863 0.00553722 0.03311030 0.00173342 0.00114070 0.05835968 0.01025320 0.00508235 0.01098238 0.00123809 
0.01946451 0.04503021 0.00435465 0.00271000 0.00097833 0.00257144 0.00525106 0.00556184 0.03331606 0.00175935 0.00117601 0.05933671 0.01038848 0.00505179 0.01100107 0.00124080 
0.01901550 0.04468221 0.00419762 0.00270243 0.00099191 0.00263583 0.00534779 0.00558036 0.03347574 0.00178691 0.00121501 0.06033585 0.01051714 0.00501897 0.01100735 0.00124371 
0.01865907 0.04428674 0.00404618 0.00269261 0.00100477 0.00269952 0.00544821 0.00559272 0.03358860 0.00181596 0.00125756 0.06135492 0.01063873 0.00498418 0.01100133 0.00124679 
0.01839605 0.04384612 0.00390133 0.00268060 0.00101688 0.00276226 0.00555172 0.00559889 0.03365415 0.00184635 0.00130349 0.06239156 0.01075284 0.00494769 0.01098312 0.00125004 
0.01822703 0.04336287 0.00376406 0.00266650 0.00102820 0.00282380 0.00565770 0.00559885 0.03367219 0.00187794 0.00135261 0.06344330 0.01085912 0.00490978 0.01095295 0.00125344 
0.01815233 0.04283967 0.00363532 0.00265039 0.00103870 0.00288388 0.00576550 0.00559262 0.03364278 0.00191057 0.00140473 0.06450751 0.01095722 0.00487075 0.01091106 0.00125698 
0.01817200 0.04227936 0.00351605 0.00263237 0.00104837 0.00294225 0.00587447 0.00558026 0.03356623 0.00194406 0.00145963 0.06558146 0.01104685 0.00483088 0.01085777 0.00126064 
0.01828583 0.04168490 0.00340713 0.00261259 0.00105717 0.00299869 0.00598395 0.00556185 0.03344314 0.00197825 0.00151710 0.06666233 0.01112775 0.00479047 0.01079344 0.00126440 
0.01849334 0.04105938 0.00330942 0.00259118 0.00106511 0.00305295 0.00609329 0.00553749 0.03327438 0.00201296 0.00157690 0.06774720 0.01119971 0.00474978 0.01071848 0.00126823 
0.01879378 0.04040599 0.00322374 0.00256828 0.00107216 0.00310482 0.00620183 0.00550732 0.03306105 0.00204800 0.00163879 0.06883307 0.01126257 0.00470911 0.01063336 0.00127214 
0.01918611 0.03972799 0.00315085 0.00254407 0.00107833 0.00315408 0.00630892 0.00547152 0.03280451 0.00208318 0.00170252 0.06991690 0.01131619 0.00466873 0.01053859 0.00127608 
0.01966903 0.03902871 0.00309147 0.00251872 0.00108363 0.00320053 0.00641391 0.00543026 0.03250637 0.00211833 0.00176783 0.07099559 0.01136048 0.00462890 0.01043472 0.00128005 
0.02024096 0.03831153 0.00304625 0.00249242 0.00108805 0.00324399 0.00651618 0.00538378 0.03216845 0.00215325 0.00183444 0.07206602 0.01139541 0.00458989 0.01032236 0.00128402 
0.02090002 0.03757985 0.00301582 0.00246535 0.00109161 0.00328427 0.00661513 0.00533232 0.03179281 0.00218775 0.00190210 0.07312505 0.01142099 0.00455194 0.01020212 0.00128797 
0.02164407 0.03683707 0.00300071 0.00243772 0.00109434 0.00332122 0.00671017 0.00527615 0.03138170 0.00222165 0.00197053 0.07416955 0.01143725 0.00451528 0.01007469 0.00129189 
0.02247068 0.03608658 0.00300142 0.00240973 0.00109626 0.00335468 0.00680072 0.00521556 0.03093755 0.00225475 0.00203945 0.07519642 0.01144428 0.00448014 0.00994075 0.00129574 
0.02337715 0.03533176 0.00301836 0.00238158 0.00109740 0.00338454 0.00688626 0.00515087 0.03046299 0.00228687 0.00210858 0.07620257 0.01144223 0.00444673 0.00980104 0.00129951 
0.02436050 0.03457592 0.00305188 0.00235349 0.00109779 0.00341068 0.00696629 0.00508240 0.02996078 0.00231784 0.00217765 0.07718498 0.01143126 0.00441525 0.00965630 0.00130319 
0.02541749 0.03382232 0.00310228 0.00232567 0.00109749 0.00343301 0.00704033 0.00501051 0.02943383 0.00234747 0.00224638 0.07814068 0.01141159 0.00438588 0.00950729 0.00130674 
0.02654459 0.03307415 0.00316977 0.00229832 0.00109653 0.00345144 0.00710795 0.00493557 0.02888516 0.00237560 0.00231449 0.07906679 0.01138346 0.00435878 0.00935480 0.00131016 
0.02773803 0.03233450 0.00325448 0.00227166 0.00109497 0.00346592 0.00716875 0.00485794 0.02831791 0.00240206 0.00238172 0.07996051 0.01134718 0.00433411 0.00919962 0.00131342 
0.02899379 0.03160634 0.00335649 0.00224588 0.00109287 0.00347642 0.00722240 0.00477802 0.02773528 0.00242669 0.00244780 0.08081915 0.01130306 0.00431199 0.00904255 0.00131650 
0.03030757 0.03089253 0.00347579 0.00222118 0.00109029 0.00348292 0.00726857 0.00469621 0.02714053 0.00244935 0.00251248 0.08164015 0.01125148 0.00429255 0.00888439 0.00131939 
0.03167486 0.03019582 0.00361229 0.00219776 0.00108730 0.00348541 0.00730700 0.00461292 0.02653696 0.00246989 0.00257549 0.08242107 0.01119281 0.00427587 0.00872593 0.00132207 
0.03309092 0.02951877 0.00376584 0.00217579 0.00108397 0.00348393 0.00733748 0.00452854 0.02592790 0.00248818 0.00263661 0.08315961 0.01112747 0.00426204 0.00856797 0.00132452 
0.03455080 0.02886383 0.00393619 0.00215545 0.00108037 0.00347850 0.00735984 0.00444349 0.02531665 0.00250411 0.00269561 0.08385361 0.01105593 0.00425113 0.00841129 0.00132674 
0.03604933 0.02823328 0.00412304 0.00213690 0.00107658 0.00346919 0.00737395 0.00435818 0.02470652 0.00251756 0.00275225 0.08450111 0.01097864 0.00424317 0.00825665 0.00132871 
0.03758117 0.02762920 0.00432600 0.00212030 0.00107268 0.00345608 0.00737973 0.00427303 0.02410075 0.00252842 0.00280633 0.08510026 0.01089611 0.00423821 0.00810480 0.00133042 
0.03914079 0.02705354 0.00454460 0.00210578 0.00106875 0.00343926 0.00737718 0.00418842 0.02350252 0.00253662 0.00285765 0.08564945 0.01080885 0.00423624 0.00795646 0.00133186 
0.04072254 0.02650805 0.00477830 0.00209347 0.00106489 0.00341885 0.00736630 0.00410476 0.02291492 0.00254208 0.00290604 0.08614719 0.01071737 0.00423727 0.00781233 0.00133302 
0.04232059 0.02599429 0.00502650 0.00208347 0.00106118 0.00339499 0.00734718 0.00402243 0.02234096 0.00254473 0.00295132 0.08659223 0.01062224 0.00424127 0.00767309 0.00133389 
0.04392902 0.02551366 0.00528852 0.00207588 0.00105770 0.00336783 0.00731993 0.00394180 0.02178351 0.00254453 0.00299334 0.08698347 0.01052399 0.00424821 0.00753935 0.00133447 
0.04554182 0.02506733 0.00556359 0.00207079 0.00105454 0.00333753 0.00728471 0.00386324 0.02124530 0.00254143 0.00303196 0.08732004 0.01042319 0.00425805 0.00741172 0.00133476 
0.04715288 0.02465634 0.00585092 0.00206824 0.00105181 0.00330427 0.00724174 0.00378709 0.02072892 0.00253541 0.00306707 0.08760123 0.01032040 0.00427071 0.00729076 0.00133476 
0.04875607 0.02428151 0.00614961 0.00206830 0.00104957 0.00326825 0.00719126 0.00371368 0.02023678 0.00252646 0.00309855 0.08782655 0.01021619 0.00428612 0.00717697 0.00133446 
0.05034521 0.02394348 0.00645872 0.00207098 0.00104792 0.00322969 0.00713358 0.00364331 0.01977111 0.00251458 0.00312632 0.08799572 0.01011111 0.00430418 0.00707083 0.00133386 
0.05191412 0.02364273 0.00677727 0.00207630 0.00104695 0.00318880 0.00706903 0.00357627 0.01933396 0.00249979 0.00315030 0.08810861 0.01000573 0.00432481 0.00697276 0.00133298 
0.05345667 0.02337955 0.00710419 0.00208425 0.00104674 0.00314582 0.00699798 0.00351283 0.01892716 0.00248211 0.00317045 0.08816534 0.00990060 0.00434789 0.00688313 0.00133182 
0.05496675 0.02315408 0.00743838 0.00209480 0.00104736 0.00310099 0.00692083 0.00345322 0.01855233 0.00246159 0.00318672 0.08816618 0.00979625 0.00437329 0.00680226 0.00133037 
0.05643834 0.02296629 0.00777869 0.00210793 0.00104891 0.00305456 0.00683803 0.00339768 0.01821086 0.00243829 0.00319911 0.08811160 0.00969321 0.00440089 0.00673042 0.00132866 
0.05786552 0.02281600 0.00812394 0.00212356 0.00105144 0.00300680 0.00675003 0.00334638 0.01790394 0.00241227 0.00320760 0.08800225 0.00959199 0.00443055 0.00666783 0.00132670 
0.05924251 0.02270287 0.00847291 0.00214162 0.00105503 0.00295796 0.00665733 0.00329950 0.01763249 0.00238362 0.00321221 0.08783897 0.00949308 0.00446213 0.00661463 0.00132449 
0.06056367 0.02262645 0.00882433 0.00216203 0.00105975 0.00290833 0.00656045 0.00325717 0.01739721 0.00235242 0.00321298 0.08762275 0.00939696 0.00449548 0.00657095 0.00132204 
0.06182358 0.02258615 0.00917692 0.00218468 0.00106564 0.00285817 0.00645993 0.00321951 0.01719858 0.00231878 0.00320995 0.08735476 0.00930405 0.00453045 0.00653682 0.00131938 
0.06301700 0.02258127 0.00952939 0.00220945 0.00107277 0.00280775 0.00635630 0.00318660 0.01703681 0.00228283 0.00320320 0.08703632 0.00921480 0.00456688 0.00651224 0.00131653 
0.06413894 0.02261099 0.00988041 0.00223620 0.00108118 0.00275737 0.00625014 0.00315849 0.01691190 0.00224468 0.00319279 0.08666890 0.00912958 0.00460460 0.00649715 0.00131348 
0.06518470 0.02267441 0.01022865 0.00226479 0.00109090 0.00270728 0.00614202 0.00313523 0.01682360 0.00220448 0.00317882 0.08625410 0.00904877 0.00464346 0.00649144 0.00131028 
0.06614983 0.02277054 0.01057280 0.00229506 0.00110197 0.00265777 0.00603253 0.00311681 0.01677144 0.00216237 0.00316141 0.08579366 0.00897268 0.00468329 0.00649493 0.00130693 
0.06703025 0.02289832 0.01091151 0.00232685 0.00111442 0.00260911 0.00592224 0.00310321 0.01675473 0.00211852 0.00314067 0.08528945 0.00890163 0.00472394 0.00650742 0.00130346 
0.06782216 0.02305662 0.01124348 0.00235997 0.00112825 0.00256156 0.00581174 0.00309438 0.01677255 0.00207309 0.00311675 0.08474344 0.00883587 0.00476522 0.00652862 0.00129988 
0.06852218 0.02324426 0.01156741 0.00239424 0.00114348 0.00251537 0.00570160 0.00309024 0.01682379 0.00202626 0.00308978 0.08415769 0.00877562 0.00480699 0.00655823 0.00129623 
0.06912727 0.02346002 0.01188200 0.00242946 0.00116010 0.00247081 0.00559241 0.00309071 0.01690714 0.00197822 0.00305994 0.08353438 0.00872109 0.00484909 0.00659587 0.00129252 
0.06963483 0.02370265 0.01218602 0.00246545 0.00117810 0.00242811 0.00548472 0.00309564 0.01702109 0.00192914 0.00302738 0.08287576 0.00867243 0.00489134 0.00664115 0.00128878 
0.07004264 0.02397088 0.01247824 0.00250199 0.00119747 0.00238751 0.00537909 0.00310491 0.01716399 0.00187924 0.00299228 0.08218415 0.00862975 0.00493361 0.00669360 0.00128502 
0.07034895 0.02426342 0.01275749 0.00253888 0.00121817 0.00234922 0.00527604 0.00311835 0.01733399 0.00182870 0.00295484 0.08146194 0.00859312 0.00497573 0.00675274 0.00128128 
0.07055244 0.02457900 0.01302262 0.00257592 0.00124018 0.00231347 0.00517610 0.00313577 0.01752913 0.00177775 0.00291524 0.08071155 0.00856260 0.00501755 0.00681804 0.00127758 
0.07065226 0.02491632 0.01327258 0.00261289 0.00126343 0.00228045 0.00507976 0.00315698 0.01774729 0.00172658 0.00287368 0.07993547 0.00853818 0.00505894 0.00688896 0.00127393 
0.07064804 0.02527413 0.01350633 0.00264961 0.00128788 0.00225033 0.00498748 0.00318174 0.01798625 0.00167541 0.00283038 0.07913622 0.00851982 0.00509974 0.00696489 0.00127037 
0.07053986 0.02565117 0.01372292 0.00268586 0.00131347 0.00222330 0.00489972 0.00320985 0.01824369 0.00162447 0.00278552 0.07831634 0.00850745 0.00513983 0.00704523 0.00126691 
0.07032832 0.02604624 0.01392146 0.00272145 0.00134011 0.00219950 0.00481690 0.00324103 0.01851721 0.00157395 0.00273933 0.07747837 0.00850096 0.00517906 0.00712934 0.00126357 
0.07001448 0.02645816 0.01410114 0.00275620 0.00136774 0.00217908 0.00473940 0.00327505 0.01880434 0.00152410 0.00269203 0.07662487 0.00850020 0.00521732 0.00721657 0.00126038 
0.06959988 0.02688578 0.01426123 0.00278992 0.00139625 0.00216215 0.00466757 0.00331164 0.01910256 0.00147511 0.00264381 0.07575841 0.00850499 0.00525448 0.00730625 0.00125736 
0.06908657 0.02732801 0.01440106 0.00282243 0.00142556 0.00214882 0.00460175 0.00335053 0.01940931 0.00142722 0.00259490 0.07488153 0.00851512 0.00529041 0.00739770 0.00125453 
0.06847704 0.02778379 0.01452009 0.00285358 0.00145555 0.00213917 0.00454223 0.00339143 0.01972204 0.00138063 0.00254551 0.07399677 0.00853033 0.00532501 0.00749023 0.00125189 
0.06777428 0.02825213 0.01461783 0.00288321 0.00148612 0.00213329 0.00448925 0.00343407 0.02003818 0.00133555 0.00249585 0.07310663 0.00855036 0.00535816 0.00758315 0.00124948 
0.06698173 0.02873209 0.01469392 0.00291119 0.00151716 0.00213121 0.00444305 0.00347816 0.02035520 0.00129220 0.00244613 0.07221358 0.00857488 0.00538977 0.00767577 0.00124730 
0.06610326 0.02922276 0.01474806 0.00293738 0.00154853 0.00213297 0.00440380 0.00352343 0.02067058 0.00125079 0.00239654 0.07132007 0.00860357 0.00541973 0.00776739 0.00124536 
0.06514319 0.02972331 0.01478009 0.00296168 0.00158011 0.00213858 0.00437165 0.00356959 0.02098187 0.00121150 0.00234728 0.07042848 0.00863608 0.00544795 0.00785735 0.00124369 
0.06410625 0.03023295 0.01478991 0.00298399 0.00161176 0.00214805 0.00434672 0.00361636 0.02128669 0.00117453 0.00229856 0.06954116 0.00867201 0.00547433 0.00794498 0.00124229 
0.06299754 0.03075097 0.01477757 0.00300423 0.00164336 0.00216136 0.00432908 0.00366349 0.02158273 0.00114007 0.00225054 0.06866039 0.00871097 0.00549879 0.00802961 0.00124116 
0.06182254 0.03127666 0.01474319 0.00302233 0.00167476 0.00217846 0.00431876 0.00371069 0.02186778 0.00110830 0.00220341 0.06778842 0.00875254 0.00552126 0.00811063 0.00124032 
0.06058710 0.03180942 0.01468699 0.00303826 0.00170582 0.00219930 0.00431577 0.00375772 0.02213976 0.00107940 0.00215734 0.06692740 0.00879629 0.00554164 0.00818743 0.00123977 
0.05929735 0.03234865 0.01460933 0.00305197 0.00173640 0.00222380 0.00432008 0.00380434 0.02239668 0.00105351 0.00211249 0.06607942 0.00884176 0.00555987 0.00825941 0.00123952 
0.05795973 0.03289380 0.01451064 0.00306346 0.00176635 0.00225189 0.00433162 0.00385031 0.02263670 0.00103080 0.00206901 0.06524653 0.00888852 0.00557587 0.00832602 0.00123956 
0.05658093 0.03344439 0.01439147 0.00307274 0.00179554 0.00228345 0.00435028 0.00389542 0.02285813 0.00101141 0.00202705 0.06443066 0.00893608 0.00558959 0.00838675 0.00123990 
0.05516788 0.03399995 0.01425247 0.00307981 0.00182382 0.00231837 0.00437593 0.00393944 0.02305942 0.00099548 0.00198672 0.06363370 0.00898400 0.00560097 0.00844112 0.00124053 
0.05372769 0.03456002 0.01409438 0.00308474 0.00185105 0.00235651 0.00440841 0.00398221 0.02323920 0.00098311 0.00194816 0.06285742 0.00903180 0.00560994 0.00848866 0.00124145 
0.05226762 0.03512422 0.01391804 0.00308756 0.00187709 0.00239772 0.00444752 0.00402354 0.02339625 0.00097443 0.00191147 0.06210355 0.00907901 0.00561647 0.00852898 0.00124266 
0.05079509 0.03569213 0.01372438 0.00308837 0.00190182 0.00244184 0.00449304 0.00406328 0.02352954 0.00096952 0.00187675 0.06137369 0.00912518 0.00562049 0.00856171 0.00124414 
0.04931758 0.03626339 0.01351443 0.00308724 0.00192510 0.00248869 0.00454471 0.00410129 0.02363820 0.00096847 0.00184409 0.06066939 0.00916985 0.00562197 0.00858653 0.00124590 
0.04784262 0.03683762 0.01328930 0.00308428 0.00194681 0.00253811 0.00460226 0.00413745 0.02372156 0.00097135 0.00181355 0.05999209 0.00921259 0.00562088 0.00860318 0.00124791 
0.04637776 0.03741446 0.01305016 0.00307962 0.00196683 0.00258987 0.00466539 0.00417165 0.02377914 0.00097822 0.00178521 0.05934314 0.00925296 0.00561719 0.00861144 0.00125017 
0.04493052 0.03799354 0.01279827 0.00307339 0.00198505 0.00264380 0.00473377 0.00420383 0.02381063 0.00098912 0.00175912 0.05872380 0.00929055 0.00561086 0.00861112 0.00125267 
0.04350838 0.03857447 0.01253497 0.00306572 0.00200138 0.00269966 0.00480707 0.00423390 0.02381592 0.00100408 0.00173531 0.05813523 0.00932498 0.00560189 0.00860212 0.00125539 
0.04211868 0.03915688 0.01226164 0.00305679 0.00201571 0.00275725 0.00488492 0.00426184 0.02379507 0.00102311 0.00171381 0.05757849 0.00935586 0.00559025 0.00858436 0.00125831 
0.04076866 0.03974035 0.01197972 0.00304675 0.00202797 0.00281633 0.00496694 0.00428761 0.02374834 0.00104620 0.00169463 0.05705456 0.00938286 0.00557595 0.00855782 0.00126143 
0.03946536 0.04032445 0.01169071 0.00303579 0.00203807 0.00287668 0.00505275 0.00431122 0.02367615 0.00107335 0.00167779 0.05656430 0.00940565 0.00555898 0.00852256 0.00126472 
0.03821565 0.04090872 0.01139613 0.00302409 0.00204595 0.00293806 0.00514195 0.00433268 0.02357911 0.00110452 0.00166327 0.05610848 0.00942395 0.00553936 0.00847866 0.00126816 
0.03702610 0.04149266 0.01109755 0.00301184 0.00205156 0.00300024 0.00523411 0.00435202 0.02345799 0.00113966 0.00165106 0.05568777 0.00943748 0.00551710 0.00842626 0.00127174 
0.03590305 0.04207576 0.01079655 0.00299922 0.00205485 0.00306297 0.00532882 0.00436930 0.02331372 0.00117871 0.00164113 0.05530272 0.00944603 0.00549223 0.00836555 0.00127544 
0.03485252 0.04265745 0.01049476 0.00298645 0.00205580 0.00312602 0.00542565 0.00438458 0.02314739 0.00122159 0.00163343 0.05495380 0.00944940 0.00546478 0.00829680 0.00127924 
0.03388017 0.04323712 0.01019378 0.00297372 0.00205437 0.00318915 0.00552417 0.00439795 0.02296023 0.00126822 0.00162793 0.05464136 0.00944744 0.00543479 0.00822030 0.00128311 
0.03299132 0.04381413 0.00989522 0.00296122 0.00205057 0.00325212 0.00562394 0.00440950 0.02275359 0.00131847 0.00162456 0.05436565 0.00944002 0.00540232 0.00813639 0.00128705 
0.03219088 0.04438778 0.00960070 0.00294915 0.00204439 0.00331471 0.00572453 0.00441936 0.02252896 0.00137223 0.00162326 0.05412681 0.00942708 0.00536743 0.00804547 0.00129102 
0.03148335 0.04495734 0.00931181 0.00293771 0.00203585 0.00337667 0.00582550 0.00442766 0.02228796 0.00142937 0.00162395 0.05392487 0.00940856 0.00533020 0.00794799 0.00129502 
0.03087278 0.04552203 0.00903012 0.00292707 0.00202499 0.00343779 0.00592642 0.00443454 0.02203227 0.00148972 0.00162656 0.05375977 0.00938448 0.00529070 0.00784442 0.00129902 
0.03036274 0.04608102 0.00875714 0.00291743 0.00201184 0.00349785 0.00602686 0.00444014 0.02176370 0.00155313 0.00163099 0.05363131 0.00935487 0.00524904 0.00773529 0.00130300 
0.02995637 0.04663346 0.00849439 0.00290894 0.00199645 0.00355664 0.00612641 0.00444464 0.02148410 0.00161941 0.00163715 0.05353922 0.00931982 0.00520530 0.00762117 0.00130695 
0.02965625 0.04717842 0.00824330 0.00290178 0.00197889 0.00361395 0.00622465 0.00444821 0.02119542 0.00168838 0.00164494 0.05348309 0.00927946 0.00515962 0.00750265 0.00131085 
0.02946451 0.04771497 0.00800525 0.00289610 0.00195923 0.00366959 0.00632118 0.00445102 0.02089963 0.00175983 0.00165425 0.05346243 0.00923396 0.00511211 0.00738037 0.00131467 
0.02938272 0.04824213 0.00778156 0.00289202 0.00193756 0.00372339 0.00641561 0.00445326 0.02059876 0.00183354 0.00166496 0.05347661 0.00918352 0.00506292 0.00725499 0.00131842 
0.02941194 0.04875888 0.00757348 0.00288968 0.00191398 0.00377515 0.00650755 0.00445512 0.02029485 0.00190929 0.00167698 0.05352494 0.00912840 0.00501219 0.00712719 0.00132207 
0.02955269 0.04926418 0.00738217 0.00288918 0.00188860 0.00382473 0.00659665 0.00445680 0.01998994 0.00198683 0.00169016 0.05360657 0.00906888 0.00496008 0.00699768 0.00132560 
0.02980497 0.04975697 0.00720872 0.00289062 0.00186153 0.00387197 0.00668255 0.00445848 0.01968610 0.00206593 0.00170441 0.05372060 0.00900529 0.00490675 0.00686720 0.00132902 
0.03016823 0.05023618 0.00705410 0.00289407 0.00183291 0.00391674 0.00676491 0.00446037 0.01938536 0.00214633 0.00171959 0.05386599 0.00893799 0.00485239 0.00673648 0.00133230 
0.03064140 0.05070071 0.00691920 0.00289959 0.00180286 0.00395890 0.00684343 0.00446265 0.01908972 0.00222776 0.00173557 0.05404163 0.00886739 0.00479719 0.00660628 0.00133543 
0.03122288 0.05114946 0.00680482 0.00290722 0.00177153 0.00399836 0.00691779 0.00446552 0.01880114 0.00230996 0.00175224 0.05424628 0.00879391 0.00474134 0.00647736 0.00133841 
0.03191057 0.05158135 0.00671161 0.00291698 0.00173907 0.00403501 0.00698773 0.00446917 0.01852153 0.00239264 0.00176946 0.05447865 0.00871802 0.00468504 0.00635048 0.00134124 
0.03270183 0.05199528 0.00664015 0.00292888 0.00170564 0.00406878 0.00705298 0.00447377 0.01825273 0.00247552 0.00178712 0.05473732 0.00864021 0.00462852 0.00622640 0.00134390 
0.03359358 0.05239018 0.00659089 0.00294289 0.00167140 0.00409959 0.00711330 0.00447949 0.01799650 0.00255833 0.00180508 0.05502082 0.00856098 0.00457198 0.00610588 0.00134638 
0.03458222 0.05276499 0.00656413 0.00295898 0.00163650 0.00412738 0.00716848 0.00448652 0.01775452 0.00264077 0.00182324 0.05532757 0.00848088 0.00451566 0.00598966 0.00134870 
0.03566372 0.05311870 0.00656009 0.00297710 0.00160113 0.00415214 0.00721832 0.00449499 0.01752836 0.00272255 0.00184145 0.05565593 0.00840047 0.00445979 0.00587848 0.00135084 
0.03683362 0.05345030 0.00657886 0.00299717 0.00156545 0.00417382 0.00726264 0.00450506 0.01731949 0.00280338 0.00185961 0.05600419 0.00832032 0.00440460 0.00577304 0.00135281 
0.03808702 0.05375886 0.00662037 0.00301909 0.00152964 0.00419243 0.00730130 0.00451687 0.01712926 0.00288297 0.00187761 0.05637057 0.00824100 0.00435032 0.00567405 0.00135460 
0.03941868 0.05404346 0.00668447 0.00304276 0.00149387 0.00420796 0.00733417 0.00453052 0.01695889 0.00296103 0.00189532 0.05675324 0.00816312 0.00429720 0.00558217 0.00135622 
0.04082295 0.05430326 0.00677086 0.00306804 0.00145830 0.00422044 0.00736114 0.00454615 0.01680949 0.00303728 0.00191265 0.05715032 0.00808727 0.00424548 0.00549802 0.00135767 
0.04229390 0.05453747 0.00687912 0.00309479 0.00142312 0.00422991 0.00738214 0.00456383 0.01668201 0.00311143 0.00192949 0.05755986 0.00801406 0.00419539 0.00542223 0.00135896 
0.04382526 0.05474538 0.00700872 0.00312285 0.00138850 0.00423641 0.00739711 0.00458365 0.01657726 0.00318321 0.00194574 0.05797992 0.00794407 0.00414716 0.00535534 0.00136009 
0.04541051 0.05492632 0.00715898 0.00315205 0.00135459 0.00424000 0.00740601 0.00460568 0.01649590 0.00325235 0.00196130 0.05840848 0.00787789 0.00410103 0.00529788 0.00136107 
0.04704291 0.05507973 0.00732913 0.00318219 0.00132156 0.00424076 0.00740883 0.00462995 0.01643847 0.00331859 0.00197609 0.05884353 0.00781611 0.00405723 0.00525033 0.00136191 
0.04871549 0.05520511 0.00751829 0.00321307 0.00128956 0.00423877 0.00740559 0.00465652 0.01640531 0.00338168 0.00199002 0.05928306 0.00775928 0.00401596 0.00521313 0.00136261 
0.05042115 0.05530206 0.00772546 0.00324449 0.00125875 0.00423414 0.00739633 0.00468538 0.01639665 0.00344136 0.00200302 0.05972501 0.00770794 0.00397745 0.00518665 0.00136318 
0.05215262 0.05537025 0.00794952 0.00327622 0.00122926 0.00422696 0.00738109 0.00471654 0.01641253 0.00349741 0.00201501 0.06016737 0.00766262 0.00394189 0.00517123 0.00136363 
0.05390258 0.05540945 0.00818929 0.00330803 0.00120123 0.00421736 0.00735996 0.00474999 0.01645285 0.00354961 0.00202593 0.06060812 0.00762379 0.00390947 0.00516714 0.00136398 
0.05566362 0.05541952 0.00844347 0.00333970 0.00117478 0.00420546 0.00733305 0.00478568 0.01651736 0.00359775 0.00203572 0.06104526 0.00759193 0.00388036 0.00517459 0.00136422 
0.05742833 0.05540042 0.00871069 0.00337099 0.00115004 0.00419139 0.00730047 0.00482357 0.01660566 0.00364164 0.00204432 0.06147684 0.00756746 0.00385474 0.00519374 0.00136438 
0.05918931 0.05535220 0.00898947 0.00340166 0.00112711 0.00417531 0.00726236 0.00486358 0.01671719 0.00368110 0.00205169 0.06190094 0.00755075 0.00383274 0.00522470 0.00136447 
0.06093922 0.05527499 0.00927831 0.00343146 0.00110608 0.00415735 0.00721888 0.00490564 0.01685125 0.00371596 0.00205778 0.06231567 0.00754214 0.00381450 0.00526749 0.00136449 
0.06267079 0.05516905 0.00957560 0.00346017 0.00108704 0.00413767 0.00717022 0.00494964 0.01700701 0.00374609 0.00206257 0.06271923 0.00754194 0.00380013 0.00532209 0.00136445 
0.06437689 0.05503469 0.00987971 0.00348754 0.00107006 0.00411642 0.00711657 0.00499547 0.01718350 0.00377135 0.00206601 0.06310985 0.00755040 0.00378971 0.00538841 0.00136436 
0.06605056 0.05487235 0.01018894 0.00351336 0.00105520 0.00409377 0.00705814 0.00504300 0.01737962 0.00379163 0.00206810 0.06348587 0.00756769 0.00378333 0.00546629 0.00136424 
0.06768502 0.05468252 0.01050157 0.00353739 0.00104251 0.00406988 0.00699515 0.00509208 0.01759415 0.00380684 0.00206881 0.06384568 0.00759397 0.00378104 0.00555551 0.00136410 
0.06927370 0.05446581 0.01081583 0.00355942 0.00103203 0.00404490 0.00692786 0.00514257 0.01782576 0.00381691 0.00206814 0.06418776 0.00762932 0.00378286 0.00565580 0.00136394 
0.07081030 0.05422290 0.01112997 0.00357925 0.00102377 0.00401900 0.00685652 0.00519430 0.01807301 0.00382179 0.00206607 0.06451070 0.00767377 0.00378880 0.00576681 0.00136377 
0.07228882 0.05395453 0.01144219 0.00359669 0.00101775 0.00399234 0.00678140 0.00524708 0.01833437 0.00382144 0.00206261 0.06481317 0.00772728 0.00379886 0.00588814 0.00136360 
0.07370354 0.05366154 0.01175071 0.00361157 0.00101396 0.00396507 0.00670277 0.00530072 0.01860822 0.00381585 0.00205777 0.06509396 0.00778976 0.00381299 0.00601932 0.00136344 
0.07504910 0.05334483 0.01205376 0.00362370 0.00101238 0.00393736 0.00662093 0.00535504 0.01889287 0.00380502 0.00205157 0.06535196 0.00786105 0.00383113 0.00615983 0.00136329 
0.07632049 0.05300535 0.01234959 0.00363296 0.00101300 0.00390935 0.00653617 0.00540982 0.01918654 0.00378899 0.00204400 0.06558618 0.00794095 0.00385320 0.00630909 0.00136317 
0.07751311 0.05264412 0.01263648 0.00363921 0.00101575 0.00388119 0.00644879 0.00546486 0.01948741 0.00376780 0.00203511 0.06579573 0.00802917 0.00387909 0.00646647 0.00136306 
0.07862272 0.05226221 0.01291274 0.00364234 0.00102060 0.00385301 0.00635912 0.00551994 0.01979363 0.00374152 0.00202492 0.06597986 0.00812538 0.00390867 0.00663130 0.00136299 
0.07964553 0.05186073 0.01317674 0.00364226 0.00102747 0.00382495 0.00626746 0.00557484 0.02010329 0.00371023 0.00201346 0.06613793 0.00822918 0.00394179 0.00680284 0.00136295 
0.08057819 0.05144084 0.01342689 0.00363889 0.00103629 0.00379713 0.00617414 0.00562934 0.02041445 0.00367405 0.00200076 0.06626942 0.00834013 0.00397828 0.00698033 0.00136293 
0.08141779 0.05100372 0.01366167 0.00363219 0.00104697 0.00376966 0.00607948 0.00568321 0.02072519 0.00363310 0.00198687 0.06637394 0.00845770 0.00401794 0.00716294 0.00136296 
0.08216187 0.05055058 0.01387965 0.00362212 0.00105940 0.00374266 0.00598381 0.00573624 0.02103356 0.00358752 0.00197183 0.06645121 0.00858134 0.00406055 0.00734985 0.00136301 
0.08280846 0.05008265 0.01407945 0.00360868 0.00107348 0.00371622 0.00588744 0.00578819 0.02133762 0.00353749 0.00195569 0.06650108 0.00871044 0.00410588 0.00754016 0.00136310 
0.08335604 0.04960117 0.01425980 0.00359189 0.00108909 0.00369043 0.00579071 0.00583886 0.02163547 0.00348317 0.00193850 0.06652353 0.00884434 0.00415369 0.00773298 0.00136322 
0.08380358 0.04910740 0.01441953 0.00357178 0.00110611 0.00366535 0.00569395 0.00588803 0.02192521 0.00342476 0.00192032 0.06651862 0.00898232 0.00420370 0.00792738 0.00136336 
0.08415053 0.04860257 0.01455754 0.00354840 0.00112439 0.00364107 0.00559745 0.00593548 0.02220502 0.00336248 0.00190119 0.06648655 0.00912366 0.00425563 0.00812241 0.00136353 
0.08439681 0.04808794 0.01467287 0.00352184 0.00114380 0.00361762 0.00550156 0.00598103 0.02247308 0.00329656 0.00188119 0.06642763 0.00926756 0.00430919 0.00831712 0.00136372 
0.08454280 0.04756473 0.01476465 0.00349220 0.00116420 0.00359506 0.00540657 0.00602446 0.02272768 0.00322723 0.00186037 0.06634226 0.00941323 0.00436407 0.00851055 0.00136392 
0.08458935 0.04703416 0.01483214 0.00345960 0.00118543 0.00357342 0.00531278 0.00606561 0.02296715 0.00315475 0.00183879 0.06623093 0.00955982 0.00441996 0.00870173 0.00136413 
0.08453777 0.04649742 0.01487470 0.00342418 0.00120733 0.00355271 0.00522051 0.00610430 0.02318992 0.00307938 0.00181653 0.06609425 0.00970648 0.00447654 0.00888970 0.00136433 
0.08438981 0.04595567 0.01489184 0.00338611 0.00122976 0.00353295 0.00513003 0.00614037 0.02339448 0.00300140 0.00179364 0.06593288 0.00985235 0.00453347 0.00907350 0.00136453 
0.08414764 0.04541005 0.01488317 0.00334555 0.00125254 0.00351413 0.00504162 0.00617365 0.02357943 0.00292110 0.00177020 0.06574760 0.00999653 0.00459042 0.00925222 0.00136472 
0.08381385 0.04486165 0.01484844 0.00330271 0.00127551 0.00349623 0.00495557 0.00620403 0.02374349 0.00283876 0.00174628 0.06553924 0.01013816 0.00464708 0.00942491 0.00136488 
0.08339141 0.04431152 0.01478754 0.00325779 0.00129853 0.00347925 0.00487213 0.00623137 0.02388546 0.00275468 0.00172194 0.06530867 0.01027634 0.00470310 0.00959071 0.00136501 
0.08288370 0.04376068 0.01470046 0.00321102 0.00132143 0.00346314 0.00479154 0.00625558 0.02400427 0.00266918 0.00169726 0.06505687 0.01041020 0.00475816 0.00974873 0.00136510 
0.08229440 0.04321010 0.01458735 0.00316263 0.00134404 0.00344786 0.00471405 0.00627655 0.02409898 0.00258256 0.00167230 0.06478482 0.01053890 0.00481194 0.00989816 0.00136514 
0.08162757 0.04266069 0.01444846 0.00311287 0.00136623 0.00343337 0.00463989 0.00629421 0.02416875 0.00249512 0.00164714 0.06449357 0.01066158 0.00486412 0.01003821 0.00136512 
0.08088754 0.04211331 0.01428419 0.00306200 0.00138783 0.00341959 0.00456926 0.00630851 0.02421289 0.00240719 0.00162185 0.06418421 0.01077744 0.00491441 0.01016815 0.00136503 
0.08007893 0.04156878 0.01409504 0.00301028 0.00140870 0.00340647 0.00450237 0.00631940 0.02423084 0.00231908 0.00159649 0.06385783 0.01088570 0.00496251 0.01028726 0.00136487 
0.07920662 0.04102786 0.01388165 0.00295798 0.00142871 0.00339393 0.00443940 0.00632686 0.02422218 0.00223109 0.00157114 0.06351555 0.01098562 0.00500814 0.01039493 0.00136462 
0.07827568 0.04049125 0.01364478 0.00290537 0.00144773 0.00338189 0.00438051 0.00633087 0.02418660 0.00214353 0.00154586 0.06315852 0.01107649 0.00505105 0.01049057 0.00136428 
0.07729140 0.03995959 0.01338527 0.00285272 0.00146562 0.00337028 0.00432588 0.00633145 0.02412396 0.00205671 0.00152073 0.06278787 0.01115767 0.00509099 0.01057365 0.00136384 
0.07625923 0.03943349 0.01310410 0.00280031 0.00148228 0.00335899 0.00427563 0.00632863 0.02403424 0.00197093 0.00149580 0.06240475 0.01122857 0.00512773 0.01064371 0.00136329 
0.07518473 0.03891349 0.01280235 0.00274842 0.00149759 0.00334793 0.00422990 0.00632245 0.02391757 0.00188648 0.00147114 0.06201030 0.01128863 0.00516108 0.01070038 0.00136263 
0.07407359 0.03840006 0.01248118 0.00269730 0.00151147 0.00333702 0.00418878 0.00631296 0.02377420 0.00180364 0.00144682 0.06160563 0.01133738 0.00519086 0.01074332 0.00136186 
0.07293153 0.03789364 0.01214185 0.00264722 0.00152383 0.00332616 0.00415238 0.00630024 0.02360453 0.00172268 0.00142290 0.06119186 0.01137441 0.00521690 0.01077229 0.00136096 
0.07176433 0.03739460 0.01178571 0.00259844 0.00153458 0.00331525 0.00412078 0.00628439 0.02340908 0.00164388 0.00139943 0.06077008 0.01139937 0.00523909 0.01078710 0.00135994 
0.07057778 0.03690329 0.01141416 0.00255121 0.00154367 0.00330419 0.00409403 0.00626551 0.02318851 0.00156749 0.00137647 0.06034134 0.01141200 0.00525730 0.01078765 0.00135878 
0.06937761 0.03641997 0.01102869 0.00250575 0.00155104 0.00329289 0.00407218 0.00624372 0.02294358 0.00149374 0.00135408 0.05990669 0.01141208 0.00527147 0.01077392 0.00135750 
0.06816954 0.03594489 0.01063086 0.00246228 0.00155666 0.00328126 0.00405526 0.00621916 0.02267520 0.00142287 0.00133231 0.05946714 0.01139951 0.00528154 0.01074593 0.00135608 
0.06695917 0.03547824 0.01022225 0.00242103 0.00156050 0.00326921 0.00404328 0.00619196 0.02238437 0.00135510 0.00131120 0.05902367 0.01137423 0.00528749 0.01070382 0.00135454 
0.06575198 0.03502017 0.00980451 0.00238217 0.00156253 0.00325664 0.00403623 0.00616229 0.02207222 0.00129061 0.00129082 0.05857722 0.01133627 0.00528932 0.01064776 0.00135286 
0.06455332 0.03457079 0.00937931 0.00234588 0.00156276 0.00324348 0.00403410 0.00613032 0.02173995 0.00122960 0.00127119 0.05812871 0.01128574 0.00528707 0.01057803 0.00135106 
0.06336837 0.03413017 0.00894836 0.00231232 0.00156119 0.00322966 0.00403685 0.00609621 0.02138888 0.00117224 0.00125235 0.05767903 0.01122284 0.00528079 0.01049495 0.00134914 
0.06220211 0.03369837 0.00851337 0.00228164 0.00155785 0.00321510 0.00404444 0.00606016 0.02102042 0.00111867 0.00123436 0.05722904 0.01114782 0.00527057 0.01039893 0.00134709 
0.06105929 0.03327539 0.00807606 0.00225394 0.00155277 0.00319973 0.00405678 0.00602234 0.02063604 0.00106904 0.00121724 0.05677956 0.01106103 0.00525652 0.01029043 0.00134493 
0.05994442 0.03286122 0.00763817 0.00222932 0.00154598 0.00318351 0.00407380 0.00598297 0.02023729 0.00102345 0.00120101 0.05633140 0.01096287 0.00523879 0.01016999 0.00134267 
0.05886175 0.03245583 0.00720142 0.00220786 0.00153755 0.00316639 0.00409541 0.00594224 0.01982579 0.00098202 0.00118572 0.05588533 0.01085384 0.00521753 0.01003819 0.00134031 
0.05781525 0.03205916 0.00676749 0.00218962 0.00152755 0.00314831 0.00412148 0.00590034 0.01940321 0.00094481 0.00117138 0.05544213 0.01073447 0.00519294 0.00989569 0.00133785 
0.05680859 0.03167114 0.00633808 0.00217463 0.00151603 0.00312926 0.00415190 0.00585749 0.01897126 0.00091190 0.00115802 0.05500253 0.01060541 0.00516524 0.00974317 0.00133532 
0.05584511 0.03129167 0.00591480 0.00216289 0.00150310 0.00310921 0.00418653 0.00581389 0.01853170 0.00088333 0.00114564 0.05456726 0.01046730 0.00513464 0.00958139 0.00133272 
0.05492783 0.03092067 0.00549928 0.00215440 0.00148884 0.00308815 0.00422520 0.00576974 0.01808631 0.00085913 0.00113426 0.05413705 0.01032090 0.00510140 0.00941115 0.00133005 
0.05405944 0.03055802 0.00509304 0.00214912 0.00147336 0.00306607 0.00426776 0.00572523 0.01763688 0.00083931 0.00112390 0.05371262 0.01016698 0.00506581 0.00923326 0.00132734 
0.05324229 0.03020362 0.00469759 0.00214700 0.00145677 0.00304298 0.00431402 0.00568057 0.01718524 0.00082386 0.00111455 0.05329469 0.01000639 0.00502813 0.00904860 0.00132460 
0.05247835 0.02985735 0.00431435 0.00214796 0.00143917 0.00301889 0.00436380 0.00563595 0.01673318 0.00081275 0.00110622 0.05288398 0.00983998 0.00498869 0.00885807 0.00132183 
0.05176925 0.02951911 0.00394468 0.00215189 0.00142070 0.00299383 0.00441689 0.00559154 0.01628252 0.00080595 0.00109890 0.05248122 0.00966867 0.00494778 0.00866257 0.00131905 
0.05111628 0.02918879 0.00358986 0.00215870 0.00140147 0.00296783 0.00447309 0.00554753 0.01583505 0.00080340 0.00109260 0.05208715 0.00949339 0.00490575 0.00846305 0.00131627 
0.05052035 0.02886628 0.00325108 0.00216823 0.00138163 0.00294094 0.00453216 0.00550409 0.01539252 0.00080502 0.00108729 0.05170255 0.00931512 0.00486291 0.00826045 0.00131351 
0.04998201 0.02855151 0.00292948 0.00218033 0.00136129 0.00291321 0.00459389 0.00546137 0.01495667 0.00081071 0.00108297 0.05132818 0.00913482 0.00481962 0.00805575 0.00131078 
0.04950150 0.02824440 0.00262605 0.00219484 0.00134059 0.00288470 0.00465803 0.00541952 0.01452919 0.00082039 0.00107961 0.05096486 0.00895349 0.00477622 0.00784989 0.00130810 
0.04907869 0.02794489 0.00234174 0.00221157 0.00131968 0.00285548 0.00472433 0.00537868 0.01411172 0.00083392 0.00107721 0.05061340 0.00877212 0.00473306 0.00764384 0.00130547 
0.04871314 0.02765294 0.00207737 0.00223032 0.00129868 0.00282563 0.00479255 0.00533898 0.01370586 0.00085117 0.00107572 0.05027465 0.00859171 0.00469048 0.00743856 0.00130291 
0.04840406 0.02736853 0.00183367 0.00225088 0.00127772 0.00279524 0.00486242 0.00530052 0.01331312 0.00087199 0.00107514 0.04994951 0.00841324 0.00464884 0.00723497 0.00130043 
0.04815040 0.02709167 0.00161127 0.00227303 0.00125694 0.00276440 0.00493369 0.00526341 0.01293496 0.00089624 0.00107541 0.04963887 0.00823770 0.00460847 0.00703402 0.00129804 
0.04795079 0.02682239 0.00141067 0.00229654 0.00123647 0.00273320 0.00500607 0.00522774 0.01257278 0.00092373 0.00107652 0.04934368 0.00806602 0.00456971 0.00683658 0.00129576 
0.04780361 0.02656075 0.00123231 0.00232116 0.00121642 0.00270175 0.00507931 0.00519358 0.01222787 0.00095430 0.00107842 0.04906490 0.00789915 0.00453289 0.00664354 0.00129359 
0.04770698 0.02630683 0.00107647 0.00234666 0.00119693 0.00267017 0.00515313 0.00516098 0.01190146 0.00098775 0.00108108 0.04880352 0.00773797 0.00449832 0.00645575 0.00129155 
0.04765878 0.02606077 0.00094337 0.00237280 0.00117810 0.00263856 0.00522725 0.00512999 0.01159467 0.00102388 0.00108445 0.04856054 0.00758335 0.00446632 0.00627400 0.00128965 
0.04765670 0.02582271 0.00083309 0.00239931 0.00116003 0.00260705 0.00530140 0.00510065 0.01130854 0.00106249 0.00108848 0.04833699 0.00743612 0.00443717 0.00609906 0.00128788 
0.04769823 0.02559285 0.00074563 0.00242596 0.00114283 0.00257576 0.00537530 0.00507297 0.01104402 0.00110338 0.00109314 0.04813393 0.00729703 0.00441116 0.00593167 0.00128626 
0.04778068 0.02537143 0.00068086 0.00245250 0.00112659 0.00254481 0.00544868 0.00504695 0.01080195 0.00114631 0.00109838 0.04795241 0.00716682 0.00438853 0.00577249 0.00128479 
0.04790126 0.02515872 0.00063858 0.00247868 0.00111139 0.00251433 0.00552127 0.00502258 0.01058307 0.00119108 0.00110413 0.04779347 0.00704616 0.00436953 0.00562217 0.00128349 
0.04805704 0.02495502 0.00061847 0.00250427 0.00109729 0.00248445 0.00559280 0.00499984 0.01038803 0.00123745 0.00111036 0.04765819 0.00693566 0.00435439 0.00548128 0.00128234 
0.04824500 0.02476071 0.00062012 0.00252905 0.00108438 0.00245528 0.00566301 0.00497868 0.01021735 0.00128521 0.00111700 0.04754760 0.00683586 0.00434330 0.00535034 0.00128135 
0.04846204 0.02457618 0.00064304 0.00255279 0.00107269 0.00242697 0.00573163 0.00495907 0.01007147 0.00133412 0.00112402 0.04746273 0.00674727 0.00433643 0.00522984 0.00128053 
0.04870506 0.02440189 0.00068663 0.00257528 0.00106226 0.00239962 0.00579841 0.00494094 0.00995071 0.00138395 0.00113134 0.04740458 0.00667029 0.00433395 0.00512018 0.00127987 
0.04897090 0.02423831 0.00075023 0.00259633 0.00105313 0.00237337 0.00586311 0.00492422 0.00985529 0.00143447 0.00113891 0.04737411 0.00660528 0.00433599 0.00502173 0.00127938 
0.04925644 0.02408601 0.00083309 0.00261577 0.00104532 0.00234834 0.00592548 0.00490883 0.00978534 0.00148546 0.00114669 0.04737226 0.00655253 0.00434264 0.00493478 0.00127903 
0.04955856 0.02394555 0.00093438 0.00263341 0.00103883 0.00232464 0.00598530 0.00489467 0.00974086 0.00153669 0.00115461 0.04739988 0.00651225 0.00435400 0.00485956 0.00127884 
0.04987421 0.02381759 0.00105323 0.00264912 0.00103367 0.00230238 0.00604234 0.00488165 0.00972177 0.00158794 0.00116262 0.04745777 0.00648459 0.00437011 0.00479628 0.00127880 
0.05020042 0.02370280 0.00118867 0.00266276 0.00102980 0.00228167 0.00609638 0.00486966 0.00972788 0.00163898 0.00117067 0.04754668 0.00646962 0.00439101 0.00474503 0.00127890 
0.05053429 0.02360191 0.00133972 0.00267422 0.00102722 0.00226261 0.00614724 0.00485859 0.00975892 0.00168961 0.00117870 0.04766725 0.00646735 0.00441670 0.00470590 0.00127912 
0.05087305 0.02351570 0.00150530 0.00268341 0.00102587 0.00224530 0.00619470 0.00484831 0.00981451 0.00173961 0.00118667 0.04782003 0.00647771 0.00444715 0.00467888 0.00127947 
0.05121406 0.02344499 0.00168433 0.00269026 0.00102572 0.00222982 0.00623860 0.00483871 0.00989418 0.00178879 0.00119451 0.04800548 0.00650058 0.00448232 0.00466393 0.00127993 
0.05155481 0.02339064 0.00187568 0.00269472 0.00102671 0.00221625 0.00627877 0.00482965 0.00999740 0.00183694 0.00120218 0.04822394 0.00653575 0.00452214 0.00466094 0.00128049 
0.05189296 0.02335357 0.00207817 0.00269675 0.00102875 0.00220466 0.00631505 0.00482101 0.01012352 0.00188388 0.00120964 0.04847563 0.00658297 0.00456650 0.00466976 0.00128113 
0.05222633 0.02333471 0.00229062 0.00269636 0.00103179 0.00219513 0.00634730 0.00481265 0.01027184 0.00192943 0.00121684 0.04876067 0.00664191 0.00461529 0.00469018 0.00128185 
0.05255293 0.02333505 0.00251183 0.00269356 0.00103573 0.00218770 0.00637540 0.00480444 0.01044158 0.00197341 0.00122374 0.04907901 0.00671219 0.00466835 0.00472193 0.00128263 
0.05287094 0.02335561 0.00274059 0.00268838 0.00104047 0.00218242 0.00639922 0.00479625 0.01063190 0.00201567 0.00123030 0.04943048 0.00679339 0.00472553 0.00476473 0.00128346 
0.05317876 0.02339744 0.00297567 0.00268090 0.00104592 0.00217933 0.00641867 0.00478795 0.01084187 0.00205605 0.00123648 0.04981477 0.00688501 0.00478662 0.00481822 0.00128431 
0.05347497 0.02346162 0.00321586 0.00267118 0.00105196 0.00217846 0.00643367 0.00477941 0.01107053 0.00209440 0.00124225 0.05023141 0.00698651 0.00485142 0.00488201 0.00128518 
0.05375834 0.02354925 0.00345996 0.00265934 0.00105849 0.00217982 0.00644414 0.00477050 0.01131685 0.00213061 0.00124757 0.05067980 0.00709733 0.00491970 0.00495569 0.00128605 
0.05402786 0.02366145 0.00370677 0.00264549 0.00106538 0.00218342 0.00645003 0.00476112 0.01157977 0.00216454 0.00125243 0.05115917 0.00721683 0.00499120 0.00503879 0.00128691 
0.05428271 0.02379935 0.00395513 0.00262979 0.00107251 0.00218927 0.00645130 0.00475113 0.01185818 0.00219608 0.00125679 0.05166861 0.00734437 0.00506566 0.00513082 0.00128773 
0.05452226 0.02396410 0.00420389 0.00261239 0.00107975 0.00219733 0.00644793 0.00474044 0.01215092 0.00222514 0.00126065 0.05220704 0.00747926 0.00514281 0.00523126 0.00128850 
0.05474607 0.02415685 0.00445195 0.00259348 0.00108698 0.00220760 0.00643990 0.00472894 0.01245682 0.00225164 0.00126397 0.05277326 0.00762078 0.00522233 0.00533958 0.00128922 
0.05495388 0.02437874 0.00469823 0.00257325 0.00109407 0.00222004 0.00642724 0.00471654 0.01277467 0.00227548 0.00126676 0.05336591 0.00776819 0.00530394 0.00545520 0.00128985 
0.05514561 0.02463091 0.00494170 0.00255191 0.00110088 0.00223461 0.00640996 0.00470316 0.01310325 0.00229663 0.00126900 0.05398350 0.00792073 0.00538730 0.00557755 0.00129040 
0.05532134 0.02491448 0.00518138 0.00252969 0.00110731 0.00225126 0.00638810 0.00468871 0.01344132 0.00231501 0.00127070 0.05462438 0.00807763 0.00547210 0.00570602 0.00129084 
0.05548128 0.02523054 0.00541635 0.00250684 0.00111320 0.00226991 0.00636171 0.00467313 0.01378763 0.00233060 0.00127184 0.05528682 0.00823812 0.00555800 0.00584002 0.00129116 
0.05562581 0.02558017 0.00564571 0.00248359 0.00111846 0.00229051 0.00633087 0.00465637 0.01414093 0.00234336 0.00127244 0.05596893 0.00840140 0.00564465 0.00597893 0.00129135 
0.05575541 0.02596440 0.00586867 0.00246022 0.00112295 0.00231297 0.00629566 0.00463838 0.01449996 0.00235329 0.00127251 0.05666876 0.00856669 0.00573172 0.00612212 0.00129140 
0.05587068 0.02638421 0.00608447 0.00243697 0.00112657 0.00233719 0.00625619 0.00461912 0.01486349 0.00236038 0.00127206 0.05738423 0.00873320 0.00581887 0.00626899 0.00129129 
0.05597230 0.02684053 0.00629241 0.00241414 0.00112921 0.00236309 0.00621256 0.00459857 0.01523028 0.00236463 0.00127110 0.05811320 0.00890014 0.00590574 0.00641892 0.00129103 
0.05606105 0.02733423 0.00649188 0.00239198 0.00113077 0.00239056 0.00616492 0.00457673 0.01559911 0.00236608 0.00126966 0.05885346 0.00906677 0.00599200 0.00657129 0.00129059 
0.05613775 0.02786613 0.00668233 0.00237078 0.00113117 0.00241948 0.00611340 0.00455358 0.01596877 0.00236474 0.00126777 0.05960274 0.00923231 0.00607732 0.00672551 0.00128998 
0.05620327 0.02843693 0.00686327 0.00235081 0.00113031 0.00244972 0.00605817 0.00452915 0.01633810 0.00236067 0.00126545 0.06035875 0.00939604 0.00616134 0.00688099 0.00128919 
0.05625852 0.02904728 0.00703430 0.00233235 0.00112814 0.00248118 0.00599941 0.00450347 0.01670595 0.00235392 0.00126274 0.06111915 0.00955723 0.00624376 0.00703715 0.00128821 
0.05630441 0.02969771 0.00719507 0.00231567 0.00112457 0.00251370 0.00593728 0.00447656 0.01707119 0.00234455 0.00125968 0.06188163 0.00971521 0.00632426 0.00719345 0.00128704 
0.05634186 0.03038868 0.00734533 0.00230102 0.00111958 0.00254715 0.00587201 0.00444847 0.01743274 0.00233264 0.00125629 0.06264388 0.00986930 0.00640254 0.00734933 0.00128568 
0.05637175 0.03112050 0.00748489 0.00228866 0.00111311 0.00258139 0.00580379 0.00441928 0.01778956 0.00231827 0.00125264 0.06340362 0.01001887 0.00647829 0.00750429 0.00128413 
0.05639494 0.03189339 0.00761362 0.00227884 0.00110515 0.00261627 0.00573286 0.00438906 0.01814064 0.00230153 0.00124876 0.06415860 0.01016332 0.00655126 0.00765783 0.00128240 
0.05641225 0.03270744 0.00773148 0.00227179 0.00109567 0.00265164 0.00565946 0.00435788 0.01848502 0.00228254 0.00124470 0.06490665 0.01030209 0.00662116 0.00780951 0.00128048 
0.05642444 0.03356259 0.00783848 0.00226773 0.00108467 0.00268734 0.00558382 0.00432585 0.01882178 0.00226139 0.00124052 0.06564569 0.01043463 0.00668777 0.00795887 0.00127838 
0.05643217 0.03445866 0.00793472 0.00226687 0.00107218 0.00272321 0.00550620 0.00429307 0.01915004 0.00223822 0.00123627 0.06637372 0.01056045 0.00675085 0.00810551 0.00127611 
0.05643607 0.03539530 0.00802036 0.00226938 0.00105821 0.00275910 0.00542688 0.00425967 0.01946899 0.00221314 0.00123201 0.06708884 0.01067910 0.00681020 0.00824906 0.00127367 
0.05643662 0.03637205 0.00809559 0.00227544 0.00104280 0.00279485 0.00534613 0.00422577 0.01977785 0.00218629 0.00122779 0.06778929 0.01079015 0.00686564 0.00838918 0.00127108 
0.05643426 0.03738824 0.00816072 0.00228520 0.00102601 0.00283029 0.00526423 0.00419150 0.02007590 0.00215781 0.00122367 0.06847346 0.01089324 0.00691700 0.00852555 0.00126834 
0.05642929 0.03844308 0.00821605 0.00229879 0.00100791 0.00286526 0.00518148 0.00415703 0.02036246 0.00212785 0.00121971 0.06913987 0.01098801 0.00696414 0.00865791 0.00126547 
0.05642190 0.03953560 0.00826199 0.00231632 0.00098856 0.00289961 0.00509817 0.00412249 0.02063693 0.00209656 0.00121597 0.06978720 0.01107419 0.00700695 0.00878601 0.00126247 
0.05641220 0.04066464 0.00829897 0.00233786 0.00096807 0.00293318 0.00501460 0.00408805 0.02089872 0.00206409 0.00121251 0.07041432 0.01115151 0.00704533 0.00890965 0.00125937 
0.05640015 0.04182891 0.00832747 0.00236348 0.00094654 0.00296582 0.00493108 0.00405389 0.02114734 0.00203061 0.00120940 0.07102026 0.01121976 0.00707921 0.00902865 0.00125618 
0.05638561 0.04302690 0.00834801 0.00239321 0.00092409 0.00299736 0.00484793 0.00402017 0.02138232 0.00199628 0.00120669 0.07160424 0.01127877 0.00710856 0.00914289 0.00125291 
0.05636834 0.04425697 0.00836115 0.00242707 0.00090084 0.00302767 0.00476545 0.00398707 0.02160324 0.00196127 0.00120444 0.07216568 0.01132841 0.00713335 0.00925226 0.00124959 
0.05634798 0.04551728 0.00836747 0.00246504 0.00087694 0.00305660 0.00468397 0.00395478 0.02180976 0.00192574 0.00120272 0.07270419 0.01136858 0.00715360 0.00935670 0.00124622 
0.05632407 0.04680581 0.00836761 0.00250708 0.00085253 0.00308401 0.00460380 0.00392348 0.02200156 0.00188986 0.00120156 0.07321956 0.01139923 0.00716934 0.00945618 0.00124283 
0.05629604 0.04812040 0.00836218 0.00255313 0.00082778 0.00310977 0.00452524 0.00389336 0.02217839 0.00185382 0.00120104 0.07371179 0.01142034 0.00718062 0.00955070 0.00123944 
0.05626324 0.04945870 0.00835186 0.00260309 0.00080284 0.00313375 0.00444862 0.00386460 0.02234003 0.00181777 0.00120120 0.07418106 0.01143193 0.00718753 0.00964030 0.00123606 
0.05622494 0.05081818 0.00833730 0.00265686 0.00077790 0.00315583 0.00437424 0.00383739 0.02248633 0.00178188 0.00120209 0.07462774 0.01143407 0.00719018 0.00972503 0.00123272 
0.05618033 0.05219619 0.00831918 0.00271428 0.00075314 0.00317589 0.00430241 0.00381191 0.02261716 0.00174634 0.00120376 0.07505239 0.01142683 0.00718870 0.00980500 0.00122944 
0.05612853 0.05358990 0.00829818 0.00277520 0.00072873 0.00319384 0.00423342 0.00378836 0.02273246 0.00171131 0.00120625 0.07545574 0.01141034 0.00718324 0.00988034 0.00122623 
0.05606861 0.05499634 0.00827498 0.00283944 0.00070488 0.00320957 0.00416757 0.00376690 0.02283218 0.00167694 0.00120959 0.07583866 0.01138475 0.00717398 0.00995119 0.00122312 
0.05599962 0.05641239 0.00825023 0.00290678 0.00068177 0.00322300 0.00410513 0.00374771 0.02291634 0.00164341 0.00121383 0.07620220 0.01135025 0.00716112 0.01001774 0.00122012 
0.05592055 0.05783481 0.00822459 0.00297699 0.00065961 0.00323404 0.00404638 0.00373095 0.02298498 0.00161088 0.00121900 0.07654755 0.01130704 0.00714487 0.01008017 0.00121726 
0.05583039 0.05926025 0.00819870 0.00304982 0.00063858 0.00324263 0.00399158 0.00371679 0.02303819 0.00157949 0.00122511 0.07687601 0.01125537 0.00712548 0.01013873 0.00121455 
0.05572814 0.06068522 0.00817316 0.00312502 0.00061888 0.00324871 0.00394098 0.00370537 0.02307609 0.00154940 0.00123219 0.07718899 0.01119549 0.00710319 0.01019366 0.00121201 
0.05561278 0.06210616 0.00814856 0.00320228 0.00060071 0.00325223 0.00389481 0.00369684 0.02309881 0.00152076 0.00124026 0.07748801 0.01112769 0.00707827 0.01024521 0.00120966 
0.05548333 0.06351940 0.00812547 0.00328131 0.00058425 0.00325314 0.00385328 0.00369133 0.02310655 0.00149370 0.00124932 0.07777465 0.01105227 0.00705101 0.01029366 0.00120752 
0.05533886 0.06492120 0.00810439 0.00336180 0.00056969 0.00325142 0.00381661 0.00368895 0.02309952 0.00146835 0.00125939 0.07805056 0.01096957 0.00702171 0.01033932 0.00120560 
0.05517847 0.06630776 0.00808581 0.00344342 0.00055721 0.00324705 0.00378497 0.00368981 0.02307794 0.00144483 0.00127045 0.07831744 0.01087991 0.00699068 0.01038248 0.00120391 
0.05500132 0.06767523 0.00807018 0.00352583 0.00054698 0.00324003 0.00375853 0.00369400 0.02304207 0.00142327 0.00128251 0.07857698 0.01078367 0.00695822 0.01042346 0.00120248 
0.05480665 0.06901974 0.00805789 0.00360869 0.00053916 0.00323035 0.00373743 0.00370160 0.02299221 0.00140378 0.00129554 0.07883090 0.01068122 0.00692468 0.01046259 0.00120131 
0.05459379 0.07033738 0.00804929 0.00369164 0.00053391 0.00321804 0.00372180 0.00371266 0.02292866 0.00138644 0.00130954 0.07908089 0.01057295 0.00689037 0.01050019 0.00120041 
0.05436213 0.07162424 0.00804469 0.00377434 0.00053137 0.00320311 0.00371173 0.00372724 0.02285174 0.00137136 0.00132448 0.07932860 0.01045925 0.00685564 0.01053660 0.00119980 
0.05411121 0.07287643 0.00804433 0.00385641 0.00053168 0.00318561 0.00370731 0.00374536 0.02276180 0.00135862 0.00134032 0.07957564 0.01034054 0.00682083 0.01057215 0.00119947 
0.05384064 0.07409009 0.00804841 0.00393750 0.00053494 0.00316559 0.00370859 0.00376703 0.02265920 0.00134828 0.00135702 0.07982353 0.01021724 0.00678626 0.01060718 0.00119945 
0.05355016 0.07526139 0.00805707 0.00401726 0.00054127 0.00314310 0.00371559 0.00379224 0.02254431 0.00134041 0.00137456 0.08007370 0.01008977 0.00675229 0.01064202 0.00119973 
0.05323964 0.07638657 0.00807040 0.00409532 0.00055076 0.00311821 0.00372832 0.00382097 0.02241754 0.00133506 0.00139287 0.08032747 0.00995858 0.00671923 0.01067700 0.00120031 
0.05290906 0.07746193 0.00808844 0.00417134 0.00056347 0.00309100 0.00374675 0.00385317 0.02227927 0.00133228 0.00141191 0.08058605 0.00982410 0.00668743 0.01071243 0.00120121 
0.05255854 0.07848389 0.00811116 0.00424497 0.00057948 0.00306157 0.00377084 0.00388877 0.02212994 0.00133208 0.00143162 0.08085048 0.00968677 0.00665720 0.01074864 0.00120241 
0.05218833 0.07944895 0.00813849 0.00431589 0.00059881 0.00303000 0.00380050 0.00392769 0.02196997 0.00133449 0.00145193 0.08112168 0.00954704 0.00662885 0.01078593 0.00120393 
0.05179880 0.08035374 0.00817029 0.00438377 0.00062149 0.00299642 0.00383565 0.00396983 0.02179981 0.00133953 0.00147277 0.08140039 0.00940536 0.00660269 0.01082458 0.00120574 
0.05139047 0.08119504 0.00820639 0.00444830 0.00064753 0.00296093 0.00387613 0.00401506 0.02161992 0.00134717 0.00149407 0.08168716 0.00926218 0.00657900 0.01086488 0.00120786 
0.05096397 0.08196976 0.00824654 0.00450918 0.00067691 0.00292367 0.00392180 0.00406326 0.02143075 0.00135742 0.00151575 0.08198236 0.00911795 0.00655806 0.01090708 0.00121027 
0.05052006 0.08267500 0.00829047 0.00456615 0.00070960 0.00288477 0.00397248 0.00411425 0.02123279 0.00137025 0.00153773 0.08228620 0.00897311 0.00654012 0.01095145 0.00121297 
0.05005962 0.08330802 0.00833784 0.00461893 0.00074555 0.00284437 0.00402795 0.00416786 0.02102653 0.00138561 0.00155993 0.08259865 0.00882811 0.00652544 0.01099820 0.00121594 
0.04958364 0.08386630 0.00838827 0.00466728 0.00078469 0.00280261 0.00408798 0.00422390 0.02081246 0.00140346 0.00158226 0.08291949 0.00868338 0.00651423 0.01104755 0.00121918 
0.04909322 0.08434750 0.00844136 0.00471099 0.00082694 0.00275966 0.00415231 0.00428216 0.02059110 0.00142374 0.00160463 0.08324831 0.00853938 0.00650670 0.01109969 0.00122267 
0.04858956 0.08474951 0.00849663 0.00474985 0.00087219 0.00271567 0.00422066 0.00434242 0.02036296 0.00144639 0.00162694 0.08358448 0.00839652 0.00650303 0.01115479 0.00122641 
0.04807395 0.08507046 0.00855361 0.00478368 0.00092031 0.00267082 0.00429271 0.00440444 0.02012858 0.00147132 0.00164910 0.08392719 0.00825522 0.00650338 0.01121299 0.00123036 
0.04754774 0.08530872 0.00861176 0.00481232 0.00097116 0.00262526 0.00436815 0.00446797 0.01988851 0.00149845 0.00167102 0.08427540 0.00811592 0.00650789 0.01127443 0.00123452 
0.04701238 0.08546288 0.00867054 0.00483565 0.00102458 0.00257917 0.00444663 0.00453275 0.01964330 0.00152767 0.00169260 0.08462791 0.00797900 0.00651667 0.01133920 0.00123888 
0.04646936 0.08553183 0.00872938 0.00485356 0.00108041 0.00253273 0.00452778 0.00459851 0.01939353 0.00155887 0.00171374 0.08498332 0.00784488 0.00652982 0.01140738 0.00124340 
0.04592020 0.08551470 0.00878769 0.00486596 0.00113844 0.00248611 0.00461121 0.00466496 0.01913977 0.00159195 0.00173436 0.08534006 0.00771394 0.00654739 0.01147903 0.00124808 
0.04536648 0.08541090 0.00884486 0.00487280 0.00119847 0.00243950 0.00469653 0.00473181 0.01888263 0.00162677 0.00175436 0.08569639 0.00758655 0.00656942 0.01155416 0.00125289 
0.04480979 0.08522013 0.00890027 0.00487405 0.00126028 0.00239307 0.00478332 0.00479879 0.01862270 0.00166321 0.00177364 0.08605042 0.00746308 0.00659593 0.01163278 0.00125781 
0.04425171 0.08494236 0.00895330 0.00486970 0.00132365 0.00234700 0.00487117 0.00486558 0.01836063 0.00170111 0.00179212 0.08640012 0.00734388 0.00662689 0.01171487 0.00126282 
0.04369385 0.08457786 0.00900334 0.00485978 0.00138833 0.00230148 0.00495964 0.00493189 0.01809704 0.00174034 0.00180971 0.08674334 0.00722928 0.00666226 0.01180037 0.00126790 
0.04313777 0.08412718 0.00904976 0.00484432 0.00145406 0.00225667 0.00504829 0.00499743 0.01783258 0.00178074 0.00182634 0.08707783 0.00711960 0.00670197 0.01188920 0.00127302 
0.04258502 0.08359118 0.00909196 0.00482341 0.00152058 0.00221274 0.00513667 0.00506189 0.01756793 0.00182215 0.00184191 0.08740123 0.00701513 0.00674591 0.01198125 0.00127817 
0.04203708 0.08297098 0.00912934 0.00479713 0.00158763 0.00216988 0.00522434 0.00512499 0.01730375 0.00186442 0.00185636 0.08771112 0.00691617 0.00679397 0.01207640 0.00128331 
0.04149541 0.08226804 0.00916133 0.00476562 0.00165492 0.00212825 0.00531084 0.00518644 0.01704074 0.00190736 0.00186962 0.08800502 0.00682297 0.00684600 0.01217449 0.00128844 
0.04096139 0.08148406 0.00918736 0.00472901 0.00172218 0.00208799 0.00539575 0.00524597 0.01677960 0.00195082 0.00188162 0.08828044 0.00673579 0.00690180 0.01227532 0.00129352 
0.04043631 0.08062108 0.00920691 0.00468746 0.00178913 0.00204928 0.00547860 0.00530329 0.01652105 0.00199462 0.00189231 0.08853485 0.00665482 0.00696117 0.01237869 0.00129854 
0.03992139 0.07968138 0.00921948 0.00464118 0.00185548 0.00201225 0.00555897 0.00535817 0.01626581 0.00203859 0.00190164 0.08876573 0.00658029 0.00702389 0.01248436 0.00130347 
0.03941776 0.07866755 0.00922461 0.00459037 0.00192094 0.00197705 0.00563643 0.00541034 0.01601461 0.00208256 0.00190956 0.08897059 0.00651235 0.00708970 0.01259206 0.00130830 
0.03892643 0.07758244 0.00922187 0.00453526 0.00198524 0.00194382 0.00571057 0.00545960 0.01576819 0.00212634 0.00191603 0.08914700 0.00645116 0.00715831 0.01270151 0.00131300 
0.03844831 0.07642917 0.00921087 0.00447610 0.00204808 0.00191267 0.00578099 0.00550572 0.01552730 0.00216977 0.00192104 0.08929257 0.00639685 0.00722943 0.01281239 0.00131755 
0.03798419 0.07521112 0.00919127 0.00441316 0.00210921 0.00188372 0.00584731 0.00554852 0.01529270 0.00221267 0.00192455 0.08940502 0.00634949 0.00730274 0.01292437 0.00132194 
0.03753475 0.07393193 0.00916278 0.00434672 0.00216835 0.00185708 0.00590917 0.00558782 0.01506512 0.00225489 0.00192656 0.08948216 0.00630917 0.00737788 0.01303708 0.00132615 
0.03710054 0.07259547 0.00912515 0.00427708 0.00222524 0.00183285 0.00596622 0.00562347 0.01484533 0.00229624 0.00192706 0.08952195 0.00627593 0.00745449 0.01315016 0.00133016 
0.03668199 0.07120582 0.00907818 0.00420455 0.00227963 0.00181111 0.00601814 0.00565534 0.01463407 0.00233657 0.00192606 0.08952245 0.00624976 0.00753220 0.01326319 0.00133396 
0.03627938 0.06976732 0.00902174 0.00412946 0.00233128 0.00179193 0.00606464 0.00568334 0.01443207 0.00237572 0.00192356 0.08948192 0.00623065 0.00761060 0.01337575 0.00133753 
0.03589290 0.06828447 0.00895573 0.00405213 0.00237997 0.00177539 0.00610546 0.00570738 0.01424007 0.00241355 0.00191960 0.08939878 0.00621854 0.00768929 0.01348741 0.00134087 
0.03552258 0.06676200 0.00888013 0.00397292 0.00242548 0.00176152 0.00614035 0.00572741 0.01405879 0.00244990 0.00191420 0.08927164 0.00621336 0.00776785 0.01359771 0.00134396 
0.03516834 0.06520477 0.00879496 0.00389216 0.00246761 0.00175038 0.00616911 0.00574341 0.01388892 0.00248465 0.00190739 0.08909930 0.00621497 0.00784583 0.01370618 0.00134680 
0.03482999 0.06361784 0.00870029 0.00381023 0.00250619 0.00174200 0.00619157 0.00575538 0.01373115 0.00251766 0.00189924 0.08888080 0.00622325 0.00792280 0.01381232 0.00134937 
0.03450720 0.06200639 0.00859627 0.00372747 0.00254105 0.00173638 0.00620758 0.00576334 0.01358612 0.00254881 0.00188979 0.08861540 0.00623799 0.00799831 0.01391566 0.00135167 
0.03419956 0.06037573 0.00848308 0.00364424 0.00257204 0.00173354 0.00621704 0.00576735 0.01345448 0.00257799 0.00187910 0.08830258 0.00625900 0.00807190 0.01401567 0.00135370 
0.03390653 0.05873128 0.00836096 0.00356092 0.00259903 0.00173347 0.00621987 0.00576750 0.01333681 0.00260509 0.00186726 0.08794210 0.00628602 0.00814311 0.01411185 0.00135546 
0.03362750 0.05707853 0.00823023 0.00347786 0.00262193 0.00173614 0.00621604 0.00576389 0.01323367 0.00263003 0.00185434 0.08753393 0.00631877 0.00821151 0.01420368 0.00135694 
0.03336175 0.05542308 0.00809122 0.00339543 0.00264064 0.00174154 0.00620556 0.00575667 0.01314558 0.00265273 0.00184042 0.08707832 0.00635695 0.00827662 0.01429063 0.00135815 
0.03310849 0.05377053 0.00794434 0.00331396 0.00265511 0.00174962 0.00618846 0.00574600 0.01307302 0.00267310 0.00182561 0.08657578 0.00640022 0.00833800 0.01437217 0.00135908 
0.03286687 0.05212653 0.00779004 0.00323382 0.00266528 0.00176032 0.00616482 0.00573207 0.01301642 0.00269111 0.00181000 0.08602708 0.00644821 0.00839522 0.01444780 0.00135975 
0.03263599 0.05049675 0.00762880 0.00315535 0.00267114 0.00177359 0.00613477 0.00571510 0.01297614 0.00270668 0.00179370 0.08543323 0.00650052 0.00844783 0.01451698 0.00136015 
0.03241487 0.04888683 0.00746116 0.00307887 0.00267268 0.00178934 0.00609844 0.00569532 0.01295250 0.00271981 0.00177682 0.08479553 0.00655673 0.00849543 0.01457922 0.00136030 
0.03220254 0.04730238 0.00728771 0.00300471 0.00266995 0.00180750 0.00605604 0.00567299 0.01294577 0.00273044 0.00175947 0.08411552 0.00661639 0.00853760 0.01463400 0.00136021 
0.03199797 0.04574893 0.00710903 0.00293318 0.00266297 0.00182797 0.00600779 0.00564840 0.01295613 0.00273859 0.00174178 0.08339500 0.00667901 0.00857397 0.01468085 0.00135987 
0.03180014 0.04423197 0.00692579 0.00286457 0.00265181 0.00185064 0.00595396 0.00562185 0.01298372 0.00274424 0.00172388 0.08263600 0.00674412 0.00860416 0.01471929 0.00135932 
0.03160803 0.04275687 0.00673863 0.00279917 0.00263658 0.00187541 0.00589484 0.00559364 0.01302860 0.00274742 0.00170588 0.08184080 0.00681119 0.00862783 0.01474888 0.00135855 
0.03142062 0.04132887 0.00654827 0.00273723 0.00261737 0.00190216 0.00583077 0.00556412 0.01309074 0.00274813 0.00168792 0.08101190 0.00687970 0.00864466 0.01476919 0.00135759 
0.03123695 0.03995306 0.00635540 0.00267901 0.00259432 0.00193077 0.00576212 0.00553363 0.01317007 0.00274644 0.00167013 0.08015202 0.00694909 0.00865435 0.01477980 0.00135644 
0.03105604 0.03863439 0.00616077 0.00262474 0.00256758 0.00196109 0.00568927 0.00550253 0.01326642 0.00274237 0.00165263 0.07926410 0.00701880 0.00865664 0.01478036 0.00135513 
0.03087701 0.03737760 0.00596511 0.00257463 0.00253731 0.00199299 0.00561267 0.00547119 0.01337956 0.00273600 0.00163557 0.07835124 0.00708828 0.00865130 0.01477051 0.00135366 
0.03069901 0.03618722 0.00576917 0.00252887 0.00250371 0.00202632 0.00553275 0.00543997 0.01350915 0.00272740 0.00161907 0.07741675 0.00715694 0.00863813 0.01474995 0.00135207 
0.03052127 0.03506758 0.00557370 0.00248763 0.00246698 0.00206095 0.00545001 0.00540926 0.01365482 0.00271664 0.00160325 0.07646408 0.00722421 0.00861695 0.01471842 0.00135036 
0.03034308 0.03402272 0.00537945 0.00245105 0.00242734 0.00209672 0.00536494 0.00537943 0.01381607 0.00270383 0.00158826 0.07549685 0.00728951 0.00858765 0.01467568 0.00134856 
0.03016385 0.03305644 0.00518716 0.00241927 0.00238502 0.00213348 0.00527807 0.00535086 0.01399236 0.00268906 0.00157420 0.07451877 0.00735228 0.00855012 0.01462155 0.00134668 
0.02998304 0.03217225 0.00499757 0.00239239 0.00234027 0.00217107 0.00518993 0.00532393 0.01418306 0.00267245 0.00156119 0.07353370 0.00741194 0.00850432 0.01455590 0.00134474 
0.02980025 0.03137336 0.00481139 0.00237048 0.00229334 0.00220934 0.00510110 0.00529901 0.01438747 0.00265413 0.00154936 0.07254557 0.00746796 0.00845025 0.01447863 0.00134276 
0.02961517 0.03066266 0.00462932 0.00235360 0.00224451 0.00224814 0.00501214 0.00527647 0.01460479 0.00263421 0.00153881 0.07155838 0.00751978 0.00838792 0.01438972 0.00134077 
0.02942759 0.03004270 0.00445204 0.00234179 0.00219406 0.00228730 0.00492362 0.00525664 0.01483420 0.00261284 0.00152964 0.07057620 0.00756690 0.00831742 0.01428917 0.00133877 
0.02923743 0.02951569 0.00428019 0.00233506 0.00214225 0.00232668 0.00483615 0.00523987 0.01507477 0.00259016 0.00152194 0.06960311 0.00760882 0.00823887 0.01417707 0.00133680 
0.02904472 0.02908349 0.00411441 0.00233339 0.00208939 0.00236612 0.00475031 0.00522650 0.01532552 0.00256632 0.00151582 0.06864323 0.00764507 0.00815243 0.01405355 0.00133486 
0.02884961 0.02874757 0.00395526 0.00233674 0.00203576 0.00240549 0.00466670 0.00521681 0.01558543 0.00254149 0.00151133 0.06770064 0.00767521 0.00805830 0.01391879 0.00133298 
0.02865238 0.02850905 0.00380330 0.00234506 0.00198165 0.00244464 0.00458592 0.00521111 0.01585341 0.00251581 0.00150857 0.06677941 0.00769883 0.00795673 0.01377305 0.00133117 
0.02845341 0.02836864 0.00365904 0.00235826 0.00192737 0.00248342 0.00450854 0.00520965 0.01612832 0.00248945 0.00150758 0.06588356 0.00771557 0.00784803 0.01361664 0.00132946 
0.02825321 0.02832668 0.00352294 0.00237623 0.00187319 0.00252172 0.00443517 0.00521269 0.01640900 0.00246258 0.00150842 0.06501703 0.00772511 0.00773252 0.01344993 0.00132784 
0.02805240 0.02838308 0.00339541 0.00239885 0.00181940 0.00255940 0.00436635 0.00522044 0.01669422 0.00243536 0.00151114 0.06418367 0.00772715 0.00761059 0.01327335 0.00132635 
0.02785169 0.02853738 0.00327683 0.00242597 0.00176630 0.00259635 0.00430266 0.00523309 0.01698277 0.00240797 0.00151575 0.06338724 0.00772147 0.00748265 0.01308741 0.00132499 
0.02765191 0.02878871 0.00316752 0.00245743 0.00171414 0.00263244 0.00424463 0.00525081 0.01727338 0.00238057 0.00152229 0.06263135 0.00770787 0.00734917 0.01289265 0.00132378 
0.02745400 0.02913581 0.00306774 0.00249303 0.00166320 0.00266759 0.00419279 0.00527373 0.01756478 0.00235333 0.00153076 0.06191947 0.00768623 0.00721065 0.01268970 0.00132273 
0.02725897 0.02957701 0.00297772 0.00253257 0.00161373 0.00270169 0.00414762 0.00530197 0.01785571 0.00232643 0.00154116 0.06125491 0.00765646 0.00706761 0.01247922 0.00132184 
0.02706790 0.03011026 0.00289761 0.00257584 0.00156597 0.00273465 0.00410961 0.00533558 0.01814489 0.00230001 0.00155347 0.06064078 0.00761854 0.00692063 0.01226196 0.00132113 
0.02688197 0.03073312 0.00282753 0.00262259 0.00152016 0.00276640 0.00407919 0.00537463 0.01843108 0.00227424 0.00156766 0.06008003 0.00757252 0.00677031 0.01203868 0.00132060 
0.02670240 0.03144278 0.00276752 0.00267258 0.00147652 0.00279687 0.00405678 0.00541912 0.01871304 0.00224928 0.00158371 0.05957535 0.00751848 0.00661727 0.01181024 0.00132027 
0.02653047 0.03223606 0.00271758 0.00272553 0.00143523 0.00282600 0.00404276 0.00546902 0.01898956 0.00222527 0.00160155 0.05912925 0.00745658 0.00646216 0.01157751 0.00132013 
0.02636749 0.03310942 0.00267766 0.00278119 0.00139648 0.00285374 0.00403746 0.00552429 0.01925948 0.00220237 0.00162113 0.05874395 0.00738706 0.00630566 0.01134143 0.00132018 
0.02621482 0.03405899 0.00264764 0.00283925 0.00136044 0.00288004 0.00404120 0.00558484 0.01952168 0.00218070 0.00164237 0.05842148 0.00731018 0.00614847 0.01110296 0.00132044 
0.02607381 0.03508058 0.00262736 0.00289943 0.00132726 0.00290489 0.00405424 0.00565055 0.01977509 0.00216040 0.00166519 0.05816355 0.00722629 0.00599130 0.01086311 0.00132089 
0.02594582 0.03616969 0.00261661 0.00296143 0.00129706 0.00292825 0.00407680 0.00572126 0.02001871 0.00214159 0.00168950 0.05797164 0.00713581 0.00583487 0.01062293 0.00132154 
0.02583222 0.03732152 0.00261512 0.00302495 0.00126994 0.00295011 0.00410906 0.00579681 0.02025160 0.00212438 0.00171519 0.05784694 0.00703919 0.00567990 0.01038348 0.00132239 
0.02573434 0.03853104 0.00262258 0.00308967 0.00124600 0.00297048 0.00415115 0.00587698 0.02047291 0.00210887 0.00174214 0.05779034 0.00693697 0.00552714 0.01014586 0.00132342 
0.02565347 0.03979293 0.00263863 0.00315529 0.00122530 0.00298935 0.00420317 0.00596152 0.02068187 0.00209517 0.00177024 0.05780248 0.00682973 0.00537733 0.00991116 0.00132464 
0.02559087 0.04110168 0.00266286 0.00322150 0.00120787 0.00300674 0.00426514 0.00605018 0.02087778 0.00208334 0.00179934 0.05788366 0.00671811 0.00523118 0.00968052 0.00132604 
0.02554774 0.04245158 0.00269482 0.00328799 0.00119374 0.00302268 0.00433707 0.00614266 0.02106008 0.00207346 0.00182931 0.05803393 0.00660281 0.00508943 0.00945504 0.00132761 
0.02552520 0.04383674 0.00273405 0.00335445 0.00118291 0.00303720 0.00441889 0.00623864 0.02122826 0.00206559 0.00186000 0.05825303 0.00648457 0.00495278 0.00923586 0.00132933 
0.02552429 0.04525114 0.00278001 0.00342058 0.00117537 0.00305033 0.00451050 0.00633778 0.02138195 0.00205978 0.00189125 0.05854040 0.00636419 0.00482192 0.00902409 0.00133120 
0.02554596 0.04668864 0.00283216 0.00348609 0.00117105 0.00306213 0.00461174 0.00643972 0.02152089 0.00205607 0.00192291 0.05889519 0.00624249 0.00469754 0.00882084 0.00133321 
0.02559107 0.04814300 0.00288992 0.00355070 0.00116991 0.00307264 0.00472241 0.00654407 0.02164490 0.00205447 0.00195482 0.05931629 0.00612036 0.00458026 0.00862718 0.00133534 
0.02566036 0.04960796 0.00295268 0.00361412 0.00117185 0.00308191 0.00484225 0.00665045 0.02175395 0.00205501 0.00198680 0.05980229 0.00599870 0.00447072 0.00844417 0.00133758 
0.02575443 0.05107719 0.00301983 0.00367609 0.00117678 0.00309002 0.00497097 0.00675842 0.02184812 0.00205768 0.00201868 0.06035151 0.00587846 0.00436950 0.00827284 0.00133992 
0.02587379 0.05254438 0.00309072 0.00373636 0.00118457 0.00309703 0.00510821 0.00686758 0.02192758 0.00206247 0.00205031 0.06096202 0.00576059 0.00427713 0.00811416 0.00134233 
0.02601880 0.05400327 0.00316470 0.00379467 0.00119509 0.00310302 0.00525358 0.00697747 0.02199263 0.00206936 0.00208150 0.06163161 0.00564608 0.00419412 0.00796908 0.00134481 
0.02618967 0.05544764 0.00324111 0.00385082 0.00120818 0.00310805 0.00540663 0.00708766 0.02204371 0.00207831 0.00211208 0.06235786 0.00553592 0.00412094 0.00783847 0.00134733 
0.02638648 0.05687137 0.00331927 0.00390457 0.00122367 0.00311220 0.00556690 0.00719770 0.02208133 0.00208928 0.00214189 0.06313811 0.00543113 0.00405798 0.00772318 0.00134988 
0.02660917 0.05826847 0.00339851 0.00395575 0.00124137 0.00311556 0.00573386 0.00730712 0.02210614 0.00210220 0.00217078 0.06396949 0.00533270 0.00400562 0.00762396 0.00135244 
0.02685751 0.05963309 0.00347818 0.00400416 0.00126109 0.00311820 0.00590694 0.00741548 0.02211887 0.00211701 0.00219856 0.06484892 0.00524164 0.00396416 0.00754151 0.00135499 
0.02713113 0.06095957 0.00355760 0.00404965 0.00128263 0.00312020 0.00608556 0.00752231 0.02212037 0.00213363 0.00222511 0.06577314 0.00515894 0.00393385 0.00747645 0.00135752 
0.02742952 0.06224246 0.00363614 0.00409206 0.00130576 0.00312165 0.00626908 0.00762718 0.02211157 0.00215197 0.00225026 0.06673873 0.00508558 0.00391486 0.00742932 0.00136000 
0.02775201 0.06347654 0.00371315 0.00413129 0.00133026 0.00312262 0.00645685 0.00772962 0.02209349 0.00217193 0.00227390 0.06774213 0.00502251 0.00390735 0.00740059 0.00136242 
0.02809780 0.06465685 0.00378802 0.00416722 0.00135590 0.00312320 0.00664817 0.00782921 0.02206725 0.00219341 0.00229587 0.06877962 0.00497064 0.00391135 0.00739063 0.00136477 
0.02846591 0.06577872 0.00386015 0.00419976 0.00138245 0.00312345 0.00684234 0.00792552 0.02203401 0.00221629 0.00231608 0.06984740 0.00493088 0.00392689 0.00739972 0.00136702 
0.02885527 0.06683779 0.00392899 0.00422884 0.00140966 0.00312346 0.00703863 0.00801814 0.02199501 0.00224046 0.00233443 0.07094157 0.00490405 0.00395390 0.00742806 0.00136916 
0.02926464 0.06783003 0.00399399 0.00425442 0.00143730 0.00312329 0.00723628 0.00810666 0.02195154 0.00226578 0.00235081 0.07205815 0.00489097 0.00399224 0.00747574 0.00137116 
0.02969267 0.06875175 0.00405463 0.00427647 0.00146513 0.00312301 0.00743454 0.00819071 0.02190494 0.00229213 0.00236515 0.07319312 0.00489236 0.00404173 0.00754275 0.00137303 
0.03013790 0.06959965 0.00411046 0.00429498 0.00149291 0.00312268 0.00763263 0.00826991 0.02185657 0.00231936 0.00237740 0.07434244 0.00490892 0.00410210 0.00762900 0.00137473 
0.03059873 0.07037078 0.00416104 0.00430994 0.00152041 0.00312236 0.00782977 0.00834393 0.02180784 0.00234734 0.00238750 0.07550203 0.00494127 0.00417304 0.00773429 0.00137626 
0.03107349 0.07106261 0.00420598 0.00432139 0.00154740 0.00312211 0.00802519 0.00841244 0.02176013 0.00237592 0.00239544 0.07666785 0.00498995 0.00425415 0.00785832 0.00137761 
0.03156039 0.07167303 0.00424493 0.00432938 0.00157366 0.00312197 0.00821811 0.00847514 0.02171486 0.00240496 0.00240120 0.07783588 0.00505544 0.00434500 0.00800070 0.00137875 
0.03205759 0.07220032 0.00427758 0.00433394 0.00159898 0.00312199 0.00840776 0.00853176 0.02167342 0.00243432 0.00240480 0.07900217 0.00513814 0.00444506 0.00816093 0.00137969 
0.03256315 0.07264320 0.00430367 0.00433517 0.00162317 0.00312220 0.00859337 0.00858205 0.02163718 0.00246384 0.00240626 0.08016280 0.00523836 0.00455379 0.00833842 0.00138040 
0.03307508 0.07300084 0.00432300 0.00433315 0.00164603 0.00312263 0.00877421 0.00862577 0.02160747 0.00249339 0.00240563 0.08131399 0.00535633 0.00467056 0.00853249 0.00138088 
0.03359135 0.07327281 0.00433541 0.00432799 0.00166739 0.00312332 0.00894954 0.00866275 0.02158559 0.00252282 0.00240297 0.08245204 0.00549219 0.00479471 0.00874238 0.00138113 
0.03410988 0.07345914 0.00434079 0.00431979 0.00168708 0.00312427 0.00911866 0.00869280 0.02157277 0.00255199 0.00239839 0.08357339 0.00564600 0.00492552 0.00896722 0.00138113 
0.03462858 0.07356027 0.00433908 0.00430870 0.00170497 0.00312551 0.00928088 0.00871580 0.02157019 0.00258077 0.00239198 0.08467461 0.00581771 0.00506223 0.00920607 0.00138087 
0.03514533 0.07357709 0.00433028 0.00429484 0.00172091 0.00312705 0.00943556 0.00873164 0.02157892 0.00260903 0.00238388 0.08575244 0.00600718 0.00520404 0.00945792 0.00138036 
0.03565802 0.07351089 0.00431443 0.00427837 0.00173481 0.00312888 0.00958208 0.00874023 0.02159998 0.00263663 0.00237423 0.08680378 0.00621418 0.00535013 0.00972168 0.00137960 
0.03616455 0.07336338 0.00429163 0.00425944 0.00174655 0.00313100 0.00971986 0.00874152 0.02163427 0.00266347 0.00236321 0.08782575 0.00643840 0.00549963 0.00999620 0.00137857 
0.03666285 0.07313666 0.00426203 0.00423822 0.00175607 0.00313341 0.00984836 0.00873551 0.02168260 0.00268943 0.00235101 0.08881564 0.00667940 0.00565165 0.01028027 0.00137728 
0.03715087 0.07283323 0.00422584 0.00421489 0.00176332 0.00313609 0.00996708 0.00872219 0.02174564 0.00271440 0.00233783 0.08977095 0.00693669 0.00580530 0.01057261 0.00137572 
0.03762660 0.07245594 0.00418329 0.00418961 0.00176824 0.00313903 0.01007557 0.00870162 0.02182398 0.00273829 0.00232391 0.09068942 0.00720964 0.00595965 0.01087191 0.00137391 
0.03808810 0.07200799 0.00413470 0.00416258 0.00177083 0.00314220 0.01017343 0.00867386 0.02191804 0.00276102 0.00230949 0.09156900 0.00749758 0.00611377 0.01117683 0.00137184 
0.03853350 0.07149291 0.00408040 0.00413397 0.00177108 0.00314558 0.01026030 0.00863900 0.02202814 0.00278250 0.00229482 0.09240788 0.00779972 0.00626675 0.01148598 0.00136952 
0.03896099 0.07091454 0.00402079 0.00410398 0.00176902 0.00314914 0.01033588 0.00859719 0.02215445 0.00280267 0.00228019 0.09320450 0.00811521 0.00641765 0.01179795 0.00136696 
0.03936884 0.07027699 0.00395630 0.00407279 0.00176469 0.00315284 0.01039993 0.00854857 0.02229699 0.00282146 0.00226589 0.09395752 0.00844310 0.00656556 0.01211132 0.00136415 
0.03975543 0.06958463 0.00388739 0.00404059 0.00175814 0.00315666 0.01045226 0.00849332 0.02245565 0.00283885 0.00225222 0.09466586 0.00878237 0.00670959 0.01242467 0.00136110 
0.04011922 0.06884207 0.00381459 0.00400757 0.00174946 0.00316056 0.01049273 0.00843165 0.02263017 0.00285478 0.00223949 0.09532869 0.00913195 0.00684887 0.01273658 0.00135784 
0.04045878 0.06805409 0.00373843 0.00397392 0.00173873 0.00316450 0.01052127 0.00836381 0.02282016 0.00286924 0.00222804 0.09594540 0.00949069 0.00698253 0.01304562 0.00135436 
0.04077279 0.06722565 0.00365950 0.00393981 0.00172608 0.00316844 0.01053787 0.00829003 0.02302504 0.00288221 0.00221820 0.09651565 0.00985738 0.00710978 0.01335039 0.00135067 
0.04106006 0.06636185 0.00357840 0.00390544 0.00171162 0.00317234 0.01054257 0.00821060 0.02324414 0.00289368 0.00221031 0.09703932 0.01023076 0.00722983 0.01364954 0.00134679 
0.04131949 0.06546790 0.00349577 0.00387097 0.00169551 0.00317617 0.01053546 0.00812583 0.02347662 0.00290368 0.00220470 0.09751652 0.01060953 0.00734196 0.01394171 0.00134273 
0.04155014 0.06454907 0.00341225 0.00383659 0.00167789 0.00317989 0.01051671 0.00803602 0.02372151 0.00291222 0.00220173 0.09794758 0.01099236 0.00744549 0.01422562 0.00133850 
0.04175117 0.06361068 0.00332853 0.00380245 0.00165895 0.00318346 0.01048653 0.00794153 0.02397770 0.00291932 0.00220175 0.09833305 0.01137787 0.00753979 0.01450003 0.00133411 
0.04192187 0.06265806 0.00324529 0.00376872 0.00163885 0.00318685 0.01044520 0.00784270 0.02424397 0.00292504 0.00220510 0.09867369 0.01176467 0.00762431 0.01476374 0.00132959 
0.04206166 0.06169649 0.00316322 0.00373556 0.00161780 0.00319003 0.01039304 0.00773991 0.02451897 0.00292943 0.00221211 0.09897044 0.01215134 0.00769853 0.01501564 0.00132494 
0.04217011 0.06073123 0.00308305 0.00370312 0.00159598 0.00319297 0.01033043 0.00763355 0.02480123 0.00293254 0.00222312 0.09922443 0.01253648 0.00776203 0.01525467 0.00132017 
0.04224688 0.05976742 0.00300546 0.00367154 0.00157362 0.00319564 0.01025779 0.00752400 0.02508920 0.00293445 0.00223846 0.09943695 0.01291867 0.00781445 0.01547987 0.00131532 
0.04229179 0.05881010 0.00293118 0.00364097 0.00155091 0.00319802 0.01017562 0.00741169 0.02538122 0.00293524 0.00225845 0.09960945 0.01329649 0.00785549 0.01569033 0.00131038 
0.04230477 0.05786416 0.00286090 0.00361153 0.00152809 0.00320010 0.01008442 0.00729703 0.02567555 0.00293499 0.00228337 0.09974351 0.01366856 0.00788495 0.01588527 0.00130538 
0.04228588 0.05693430 0.00279533 0.00358335 0.00150535 0.00320186 0.00998477 0.00718045 0.02597038 0.00293381 0.00231351 0.09984084 0.01403351 0.00790270 0.01606398 0.00130033 
0.04223529 0.05602504 0.00273513 0.00355654 0.00148293 0.00320329 0.00987726 0.00706237 0.02626384 0.00293180 0.00234914 0.09990325 0.01439000 0.00790869 0.01622583 0.00129524 
0.04215330 0.05514063 0.00268098 0.00353122 0.00146105 0.00320440 0.00976254 0.00694325 0.02655401 0.00292906 0.00239050 0.09993264 0.01473673 0.00790294 0.01637032 0.00129015 
0.04204031 0.05428510 0.00263351 0.00350749 0.00143990 0.00320517 0.00964128 0.00682351 0.02683894 0.00292571 0.00243782 0.09993099 0.01507246 0.00788556 0.01649704 0.00128505 
0.04189684 0.05346220 0.00259335 0.00348546 0.00141972 0.00320563 0.00951418 0.00670359 0.02711664 0.00292187 0.00249130 0.09990032 0.01539598 0.00785676 0.01660569 0.00127998 
0.04172352 0.05267537 0.00256108 0.00346520 0.00140069 0.00320579 0.00938196 0.00658394 0.02738514 0.00291767 0.00255109 0.09984270 0.01570617 0.00781681 0.01669606 0.00127493 
0.04152104 0.05192775 0.00253728 0.00344682 0.00138303 0.00320566 0.00924536 0.00646500 0.02764244 0.00291322 0.00261735 0.09976021 0.01600194 0.00776606 0.01676807 0.00126994 
0.04129024 0.05122215 0.00252244 0.00343038 0.00136691 0.00320527 0.00910514 0.00634719 0.02788659 0.00290866 0.00269018 0.09965494 0.01628232 0.00770495 0.01682174 0.00126501 
0.04103200 0.05056105 0.00251708 0.00341596 0.00135252 0.00320466 0.00896207 0.00623095 0.02811566 0.00290412 0.00276966 0.09952898 0.01654637 0.00763398 0.01685719 0.00126016 
0.04074731 0.04994655 0.00252162 0.00340362 0.00134002 0.00320385 0.00881693 0.00611670 0.02832775 0.00289972 0.00285584 0.09938436 0.01679326 0.00755375 0.01687464 0.00125540 
0.04043722 0.04938044 0.00253646 0.00339344 0.00132957 0.00320290 0.00867049 0.00600485 0.02852104 0.00289559 0.00294873 0.09922310 0.01702224 0.00746489 0.01687444 0.00125075 
0.04010286 0.04886412 0.00256196 0.00338546 0.00132130 0.00320185 0.00852353 0.00589579 0.02869377 0.00289186 0.00304829 0.09904714 0.01723266 0.00736814 0.01685701 0.00124623 
0.03974542 0.04839863 0.00259843 0.00337973 0.00131535 0.00320076 0.00837681 0.00578993 0.02884428 0.00288866 0.00315447 0.09885835 0.01742396 0.00726427 0.01682288 0.00124184 
0.03936615 0.04798466 0.00264611 0.00337631 0.00131181 0.00319968 0.00823110 0.00568763 0.02897099 0.00288610 0.00326716 0.09865853 0.01759568 0.00715412 0.01677268 0.00123760 
0.03896635 0.04762253 0.00270519 0.00337522 0.00131079 0.00319868 0.00808712 0.00558926 0.02907243 0.00288430 0.00338621 0.09844937 0.01774746 0.00703857 0.01670712 0.00123352 
0.03854736 0.04731224 0.00277583 0.00337652 0.00131236 0.00319783 0.00794562 0.00549516 0.02914727 0.00288337 0.00351145 0.09823245 0.01787903 0.00691857 0.01662700 0.00122962 
0.03811058 0.04705341 0.00285811 0.00338022 0.00131657 0.00319721 0.00780727 0.00540567 0.02919430 0.00288342 0.00364265 0.09800927 0.01799025 0.00679509 0.01653320 0.00122590 
0.03765742 0.04684536 0.00295207 0.00338635 0.00132346 0.00319688 0.00767275 0.00532108 0.02921244 0.00288455 0.00377955 0.09778116 0.01808107 0.00666912 0.01642666 0.00122237 
0.03718933 0.04668710 0.00305766 0.00339494 0.00133306 0.00319693 0.00754270 0.00524170 0.02920078 0.00288685 0.00392186 0.09754936 0.01815153 0.00654172 0.01630841 0.00121904 
0.03670779 0.04657734 0.00317480 0.00340601 0.00134537 0.00319745 0.00741772 0.00516778 0.02915856 0.00289041 0.00406924 0.09731496 0.01820180 0.00641393 0.01617951 0.00121592 
0.03621428 0.04651449 0.00330335 0.00341955 0.00136036 0.00319851 0.00729838 0.00509957 0.02908519 0.00289529 0.00422131 0.09707891 0.01823213 0.00628683 0.01604110 0.00121302 
0.03571031 0.04649674 0.00344311 0.00343559 0.00137801 0.00320021 0.00718520 0.00503731 0.02898024 0.00290156 0.00437766 0.09684203 0.01824288 0.00616148 0.01589435 0.00121035 
0.03519737 0.04652204 0.00359380 0.00345412 0.00139826 0.00320264 0.00707866 0.00498117 0.02884348 0.00290929 0.00453784 0.09660500 0.01823452 0.00603896 0.01574047 0.00120791 
0.03467700 0.04658811 0.00375511 0.00347514 0.00142103 0.00320588 0.00697919 0.00493135 0.02867485 0.00291851 0.00470138 0.09636836 0.01820759 0.00592033 0.01558071 0.00120571 
0.03415068 0.04669253 0.00392666 0.00349864 0.00144625 0.00321003 0.00688718 0.00488799 0.02847447 0.00292927 0.00486776 0.09613252 0.01816274 0.00580665 0.01541633 0.00120375 
0.03361994 0.04683268 0.00410803 0.00352462 0.00147379 0.00321518 0.00680297 0.00485120 0.02824266 0.00294159 0.00503644 0.09589776 0.01810069 0.00569893 0.01524862 0.00120204 
0.03308625 0.04700587 0.00429872 0.00355305 0.00150355 0.00322142 0.00672683 0.00482110 0.02797992 0.00295548 0.00520686 0.09566422 0.01802227 0.00559817 0.01507885 0.00120058 
0.03255110 0.04720927 0.00449819 0.00358390 0.00153538 0.00322883 0.00665900 0.00479774 0.02768695 0.00297095 0.00537842 0.09543194 0.01792836 0.00550533 0.01490832 0.00119936 
0.03201595 0.04744002 0.00470587 0.00361716 0.00156913 0.00323750 0.00659967 0.00478116 0.02736462 0.00298799 0.00555050 0.09520082 0.01781992 0.00542132 0.01473831 0.00119840 
0.03148223 0.04769519 0.00492111 0.00365278 0.00160463 0.00324752 0.00654894 0.00477139 0.02701401 0.00300658 0.00572247 0.09497069 0.01769800 0.00534701 0.01457007 0.00119770 
0.03095136 0.04797189 0.00514325 0.00369073 0.00164172 0.00325897 0.00650689 0.00476841 0.02663636 0.00302669 0.00589368 0.09474126 0.01756367 0.00528319 0.01440485 0.00119724 
0.03042473 0.04826721 0.00537156 0.00373096 0.00168019 0.00327193 0.00647355 0.00477218 0.02623309 0.00304829 0.00606347 0.09451216 0.01741809 0.00523061 0.01424384 0.00119704 
0.02990367 0.04857833 0.00560529 0.00377341 0.00171986 0.00328646 0.00644886 0.00478263 0.02580580 0.00307131 0.00623116 0.09428295 0.01726246 0.00518995 0.01408824 0.00119708 
0.02938953 0.04890250 0.00584364 0.00381802 0.00176052 0.00330263 0.00643275 0.00479966 0.02535625 0.00309570 0.00639608 0.09405311 0.01709800 0.00516180 0.01393915 0.00119738 
0.02888356 0.04923708 0.00608579 0.00386474 0.00180195 0.00332052 0.00642507 0.00482316 0.02488635 0.00312138 0.00655754 0.09382210 0.01692598 0.00514669 0.01379765 0.00119791 
0.02838704 0.04957957 0.00633090 0.00391348 0.00184394 0.00334017 0.00642564 0.00485298 0.02439815 0.00314827 0.00671486 0.09358930 0.01674771 0.00514505 0.01366478 0.00119869 
0.02790114 0.04992764 0.00657808 0.00396417 0.00188627 0.00336164 0.00643422 0.00488894 0.02389387 0.00317628 0.00686738 0.09335409 0.01656449 0.00515724 0.01354148 0.00119970 
0.02742705 0.05027912 0.00682645 0.00401671 0.00192870 0.00338498 0.00645052 0.00493084 0.02337583 0.00320532 0.00701441 0.09311582 0.01637766 0.00518353 0.01342864 0.00120094 
0.02696586 0.05063207 0.00707509 0.00407103 0.00197102 0.00341021 0.00647423 0.00497847 0.02284646 0.00323526 0.00715532 0.09287383 0.01618853 0.00522409 0.01332711 0.00120240 
0.02651866 0.05098475 0.00732308 0.00412700 0.00201300 0.00343737 0.00650498 0.00503158 0.02230831 0.00326599 0.00728945 0.09262748 0.01599844 0.00527900 0.01323761 0.00120407 
0.02608646 0.05133568 0.00756950 0.00418453 0.00205441 0.00346648 0.00654236 0.00508990 0.02176401 0.00329740 0.00741620 0.09237613 0.01580871 0.00534824 0.01316084 0.00120596 
0.02567024 0.05168361 0.00781342 0.00424351 0.00209503 0.00349756 0.00658594 0.00515315 0.02121627 0.00332934 0.00753497 0.09211918 0.01562063 0.00543172 0.01309737 0.00120804 
0.02527091 0.05202757 0.00805389 0.00430380 0.00213466 0.00353060 0.00663526 0.00522102 0.02066786 0.00336168 0.00764519 0.09185605 0.01543548 0.00552921 0.01304773 0.00121030 
0.02488935 0.05236686 0.00829001 0.00436529 0.00217307 0.00356562 0.00668981 0.00529318 0.02012159 0.00339429 0.00774633 0.09158623 0.01525449 0.00564043 0.01301233 0.00121275 
0.02452637 0.05270105 0.00852085 0.00442783 0.00221007 0.00360258 0.00674907 0.00536930 0.01958032 0.00342701 0.00783788 0.09130922 0.01507886 0.00576498 0.01299152 0.00121537 
0.02418274 0.05302997 0.00874552 0.00449130 0.00224546 0.00364148 0.00681251 0.00544901 0.01904691 0.00345970 0.00791937 0.09102463 0.01490976 0.00590238 0.01298556 0.00121815 
0.02385916 0.05335376 0.00896312 0.00455553 0.00227905 0.00368227 0.00687957 0.00553195 0.01852422 0.00349221 0.00799039 0.09073210 0.01474827 0.00605205 0.01299462 0.00122107 
0.02355629 0.05367281 0.00917281 0.00462038 0.00231067 0.00372492 0.00694967 0.00561774 0.01801512 0.00352438 0.00805054 0.09043135 0.01459545 0.00621336 0.01301879 0.00122413 
0.02327473 0.05398778 0.00937374 0.00468570 0.00234016 0.00376938 0.00702223 0.00570598 0.01752241 0.00355607 0.00809949 0.09012219 0.01445227 0.00638554 0.01305808 0.00122732 
0.02301501 0.05429960 0.00956512 0.00475132 0.00236736 0.00381558 0.00709667 0.00579627 0.01704888 0.00358711 0.00813694 0.08980448 0.01431964 0.00656780 0.01311240 0.00123061 
0.02277763 0.05460941 0.00974617 0.00481709 0.00239214 0.00386345 0.00717239 0.00588820 0.01659723 0.00361736 0.00816266 0.08947820 0.01419839 0.00675923 0.01318160 0.00123400 
0.02256300 0.05491862 0.00991616 0.00488282 0.00241437 0.00391292 0.00724882 0.00598137 0.01617011 0.00364666 0.00817645 0.08914336 0.01408928 0.00695890 0.01326544 0.00123748 
0.02237152 0.05522882 0.01007440 0.00494836 0.00243395 0.00396390 0.00732536 0.00607536 0.01577005 0.00367486 0.00817817 0.08880011 0.01399298 0.00716578 0.01336362 0.00124103 
0.02220348 0.05554181 0.01022024 0.00501353 0.00245078 0.00401627 0.00740145 0.00616975 0.01539950 0.00370183 0.00816774 0.08844863 0.01391006 0.00737881 0.01347577 0.00124464 
0.02205915 0.05585955 0.01035309 0.00507816 0.00246477 0.00406994 0.00747651 0.00626413 0.01506078 0.00372743 0.00814513 0.08808923 0.01384102 0.00759686 0.01360142 0.00124830 
0.02193873 0.05618414 0.01047239 0.00514207 0.00247588 0.00412479 0.00755002 0.00635808 0.01475606 0.00375151 0.00811035 0.08772225 0.01378625 0.00781879 0.01374009 0.00125198 
0.02184237 0.05651781 0.01057765 0.00520510 0.00248404 0.00418068 0.00762143 0.00645119 0.01448738 0.00377394 0.00806349 0.08734813 0.01374607 0.00804341 0.01389120 0.00125568 
0.02177016 0.05686286 0.01066842 0.00526708 0.00248922 0.00423749 0.00769025 0.00654307 0.01425661 0.00379461 0.00800467 0.08696738 0.01372067 0.00826949 0.01405413 0.00125939 
0.02172215 0.05722168 0.01074432 0.00532783 0.00249142 0.00429507 0.00775599 0.00663332 0.01406547 0.00381340 0.00793409 0.08658058 0.01371016 0.00849581 0.01422822 0.00126309 
0.02169830 0.05759667 0.01080503 0.00538719 0.00249062 0.00435326 0.00781820 0.00672155 0.01391547 0.00383020 0.00785198 0.08618835 0.01371455 0.00872113 0.01441276 0.00126676 
0.02169856 0.05799023 0.01085028 0.00544501 0.00248685 0.00441192 0.00787646 0.00680740 0.01380794 0.00384492 0.00775864 0.08579140 0.01373375 0.00894421 0.01460700 0.00127039 
0.02172279 0.05840475 0.01087986 0.00550112 0.00248013 0.00447086 0.00793037 0.00689050 0.01374402 0.00385745 0.00765441 0.08539047 0.01376757 0.00916381 0.01481016 0.00127398 
0.02177083 0.05884254 0.01089365 0.00555537 0.00247051 0.00452993 0.00797957 0.00697051 0.01372462 0.00386773 0.00753967 0.08498634 0.01381573 0.00937871 0.01502143 0.00127750 
0.02184244 0.05930580 0.01089156 0.00560763 0.00245805 0.00458894 0.00802375 0.00704710 0.01375047 0.00387567 0.00741487 0.08457985 0.01387785 0.00958774 0.01523998 0.00128095 
0.02193736 0.05979665 0.01087359 0.00565775 0.00244281 0.00464771 0.00806262 0.00711996 0.01382204 0.00388123 0.00728050 0.08417186 0.01395345 0.00978972 0.01546497 0.00128430 
