0.01350983 0.01662823 0.00321488 0.00193598 0.00481728 0.00160865 0.00392838 0.00297304 0.02174092 0.00251929 0.01128376 0.00121062 0.00654643 0.03962476 0.01081675 0.00045197 
0.01363832 0.01662527 0.00316327 0.00195675 0.00487707 0.00161037 0.00392021 0.00300904 0.02165375 0.00258229 0.01130280 0.00118405 0.00673849 0.03942116 0.01077158 0.00044947 
0.01375672 0.01661678 0.00310822 0.00197699 0.00493729 0.00161102 0.00391797 0.00304468 0.02155701 0.00264539 0.01131489 0.00115770 0.00693428 0.03921402 0.01072186 0.00044734 
0.01386461 0.01660316 0.00304989 0.00199668 0.00499794 0.00161065 0.00392183 0.00307977 0.02145171 0.00270821 0.01131914 0.00113167 0.00713331 0.03900358 0.01066771 0.00044560 
0.01396161 0.01658485 0.00298850 0.00201580 0.00505902 0.00160928 0.00393193 0.00311412 0.02133892 0.00277036 0.01131473 0.00110606 0.00733507 0.03879010 0.01060931 0.00044425 
0.01404744 0.01656226 0.00292426 0.00203430 0.00512049 0.00160697 0.00394838 0.00314753 0.02121977 0.00283145 0.01130088 0.00108095 0.00753905 0.03857383 0.01054684 0.00044332 
0.01412191 0.01653584 0.00285740 0.00205217 0.00518232 0.00160375 0.00397127 0.00317980 0.02109544 0.00289108 0.01127682 0.00105644 0.00774472 0.03835501 0.01048049 0.00044280 
0.01418487 0.01650602 0.00278816 0.00206937 0.00524443 0.00159969 0.00400064 0.00321076 0.02096713 0.00294887 0.01124187 0.00103262 0.00795156 0.03813389 0.01041048 0.00044272 
0.01423628 0.01647323 0.00271680 0.00208587 0.00530677 0.00159485 0.00403652 0.00324020 0.02083610 0.00300442 0.01119539 0.00100956 0.00815903 0.03791073 0.01033705 0.00044308 
0.01427618 0.01643794 0.00264359 0.00210163 0.00536923 0.00158929 0.00407889 0.00326794 0.02070362 0.00305736 0.01113683 0.00098734 0.00836660 0.03768580 0.01026045 0.00044388 
0.01430468 0.01640056 0.00256881 0.00211663 0.00543172 0.00158308 0.00412771 0.00329382 0.02057096 0.00310732 0.01106571 0.00096603 0.00857374 0.03745936 0.01018094 0.00044513 
0.01432197 0.01636155 0.00249276 0.00213083 0.00549412 0.00157630 0.00418289 0.00331766 0.02043942 0.00315393 0.01098163 0.00094570 0.00877991 0.03723170 0.01009881 0.00044683 
0.01432832 0.01632135 0.00241573 0.00214418 0.00555628 0.00156902 0.00424432 0.00333931 0.02031029 0.00319686 0.01088431 0.00092639 0.00898458 0.03700311 0.01001434 0.00044897 
0.01432408 0.01628039 0.00233804 0.00215667 0.00561805 0.00156132 0.00431185 0.00335862 0.02018487 0.00323579 0.01077353 0.00090817 0.00918722 0.03677391 0.00992784 0.00045155 
0.01430967 0.01623912 0.00226000 0.00216824 0.00567928 0.00155329 0.00438530 0.00337544 0.02006440 0.00327040 0.01064921 0.00089107 0.00938732 0.03654439 0.00983962 0.00045456 
0.01428557 0.01619796 0.00218193 0.00217887 0.00573976 0.00154501 0.00446447 0.00338966 0.01995014 0.00330041 0.01051136 0.00087514 0.00958435 0.03631491 0.00975002 0.00045801 
0.01425235 0.01615733 0.00210417 0.00218852 0.00579933 0.00153657 0.00454910 0.00340118 0.01984330 0.00332558 0.01036014 0.00086041 0.00977782 0.03608580 0.00965936 0.00046187 
0.01421061 0.01611767 0.00202704 0.00219716 0.00585775 0.00152806 0.00463893 0.00340988 0.01974503 0.00334566 0.01019579 0.00084691 0.00996723 0.03585741 0.00956797 0.00046614 
0.01416104 0.01607939 0.00195088 0.00220475 0.00591482 0.00151955 0.00473365 0.00341570 0.01965645 0.00336047 0.01001869 0.00083465 0.01015209 0.03563010 0.00947621 0.00047079 
0.01410435 0.01604290 0.00187600 0.00221127 0.00597030 0.00151114 0.00483293 0.00341857 0.01957862 0.00336983 0.00982936 0.00082367 0.01033195 0.03540425 0.00938440 0.00047583 
0.01404133 0.01600859 0.00180276 0.00221669 0.00602396 0.00150291 0.00493642 0.00341845 0.01951254 0.00337362 0.00962843 0.00081395 0.01050635 0.03518023 0.00929290 0.00048121 
0.01397278 0.01597687 0.00173147 0.00222099 0.00607554 0.00149494 0.00504373 0.00341531 0.01945911 0.00337173 0.00941665 0.00080553 0.01067485 0.03495842 0.00920204 0.00048694 
0.01389955 0.01594811 0.00166245 0.00222413 0.00612479 0.00148731 0.00515446 0.00340915 0.01941918 0.00336410 0.00919493 0.00079838 0.01083704 0.03473920 0.00911215 0.00049297 
0.01382250 0.01592269 0.00159603 0.00222610 0.00617145 0.00148010 0.00526818 0.00339996 0.01939350 0.00335071 0.00896428 0.00079251 0.01099253 0.03452295 0.00902357 0.00049930 
0.01374255 0.01590097 0.00153252 0.00222689 0.00621525 0.00147338 0.00538445 0.00338778 0.01938274 0.00333158 0.00872582 0.00078791 0.01114094 0.03431004 0.00893662 0.00050590 
0.01366058 0.01588329 0.00147220 0.00222649 0.00625591 0.00146722 0.00550280 0.00337267 0.01938747 0.00330677 0.00848083 0.00078457 0.01128193 0.03410084 0.00885162 0.00051273 
0.01357752 0.01586998 0.00141539 0.00222487 0.00629318 0.00146168 0.00562276 0.00335468 0.01940814 0.00327636 0.00823068 0.00078246 0.01141517 0.03389569 0.00876885 0.00051978 
0.01349428 0.01586137 0.00136234 0.00222205 0.00632678 0.00145681 0.00574383 0.00333391 0.01944512 0.00324051 0.00797683 0.00078157 0.01154037 0.03369493 0.00868862 0.00052701 
0.01341176 0.01585775 0.00131334 0.00221801 0.00635644 0.00145267 0.00586551 0.00331047 0.01949866 0.00319938 0.00772089 0.00078188 0.01165725 0.03349887 0.00861118 0.00053439 
0.01333085 0.01585940 0.00126863 0.00221277 0.00638190 0.00144930 0.00598730 0.00328447 0.01956892 0.00315321 0.00746453 0.00078335 0.01176559 0.03330781 0.00853680 0.00054189 
0.01325242 0.01586658 0.00122845 0.00220633 0.00640291 0.00144674 0.00610868 0.00325606 0.01965591 0.00310225 0.00720952 0.00078597 0.01186515 0.03312202 0.00846571 0.00054949 
0.01317732 0.01587953 0.00119301 0.00219871 0.00641922 0.00144501 0.00622912 0.00322541 0.01975956 0.00304680 0.00695770 0.00078969 0.01195578 0.03294171 0.00839814 0.00055714 
0.01310634 0.01589847 0.00116252 0.00218993 0.00643060 0.00144414 0.00634811 0.00319269 0.01987966 0.00298722 0.00671099 0.00079448 0.01203733 0.03276711 0.00833426 0.00056481 
0.01304024 0.01592358 0.00113716 0.00218000 0.00643681 0.00144415 0.00646513 0.00315809 0.02001592 0.00292387 0.00647136 0.00080031 0.01210968 0.03259835 0.00827427 0.00057248 
0.01297975 0.01595503 0.00111708 0.00216897 0.00643766 0.00144502 0.00657967 0.00312183 0.02016791 0.00285717 0.00624082 0.00080715 0.01217275 0.03243557 0.00821831 0.00058010 
0.01292551 0.01599296 0.00110243 0.00215685 0.00643294 0.00144678 0.00669121 0.00308413 0.02033510 0.00278758 0.00602143 0.00081495 0.01222651 0.03227885 0.00816651 0.00058764 
0.01287815 0.01603745 0.00109332 0.00214370 0.00642250 0.00144939 0.00679925 0.00304522 0.02051684 0.00271557 0.00581525 0.00082367 0.01227095 0.03212821 0.00811896 0.00059507 
0.01283818 0.01608860 0.00108985 0.00212956 0.00640617 0.00145286 0.00690332 0.00300535 0.02071240 0.00264166 0.00562436 0.00083328 0.01230609 0.03198364 0.00807576 0.00060236 
0.01280609 0.01614643 0.00109208 0.00211448 0.00638384 0.00145713 0.00700292 0.00296479 0.02092094 0.00256640 0.00545083 0.00084374 0.01233200 0.03184508 0.00803694 0.00060947 
0.01278227 0.01621094 0.00110006 0.00209850 0.00635539 0.00146219 0.00709762 0.00292380 0.02114150 0.00249034 0.00529672 0.00085501 0.01234878 0.03171241 0.00800255 0.00061636 
0.01276705 0.01628211 0.00111382 0.00208169 0.00632075 0.00146798 0.00718695 0.00288265 0.02137307 0.00241409 0.00516403 0.00086706 0.01235656 0.03158546 0.00797257 0.00062301 
0.01276066 0.01635987 0.00113335 0.00206411 0.00627988 0.00147446 0.00727051 0.00284162 0.02161452 0.00233824 0.00505475 0.00087983 0.01235552 0.03146403 0.00794700 0.00062938 
0.01276329 0.01644409 0.00115862 0.00204582 0.00623276 0.00148157 0.00734789 0.00280100 0.02186467 0.00226343 0.00497076 0.00089330 0.01234585 0.03134785 0.00792578 0.00063544 
0.01277500 0.01653464 0.00118959 0.00202691 0.00617941 0.00148923 0.00741871 0.00276108 0.02212225 0.00219028 0.00491389 0.00090743 0.01232781 0.03123661 0.00790884 0.00064117 
0.01279580 0.01663132 0.00122616 0.00200743 0.00611988 0.00149739 0.00748264 0.00272213 0.02238594 0.00211945 0.00488589 0.00092218 0.01230166 0.03112995 0.00789610 0.00064652 
0.01282562 0.01673390 0.00126824 0.00198746 0.00605425 0.00150596 0.00753935 0.00268445 0.02265435 0.00205158 0.00488837 0.00093752 0.01226770 0.03102747 0.00788744 0.00065148 
0.01286428 0.01684210 0.00131569 0.00196709 0.00598266 0.00151485 0.00758854 0.00264833 0.02292605 0.00198733 0.00492284 0.00095341 0.01222627 0.03092873 0.00788272 0.00065602 
0.01291154 0.01695561 0.00136838 0.00194640 0.00590526 0.00152398 0.00762995 0.00261403 0.02319957 0.00192735 0.00499068 0.00096982 0.01217773 0.03083326 0.00788180 0.00066012 
0.01296707 0.01707407 0.00142611 0.00192547 0.00582225 0.00153326 0.00766337 0.00258183 0.02347342 0.00187228 0.00509312 0.00098671 0.01212248 0.03074055 0.00788450 0.00066374 
0.01303048 0.01719709 0.00148870 0.00190438 0.00573388 0.00154259 0.00768858 0.00255200 0.02374608 0.00182276 0.00523122 0.00100406 0.01206092 0.03065006 0.00789064 0.00066688 
0.01310127 0.01732422 0.00155592 0.00188321 0.00564042 0.00155187 0.00770544 0.00252478 0.02401601 0.00177939 0.00540589 0.00102183 0.01199350 0.03056124 0.00790002 0.00066950 
0.01317891 0.01745498 0.00162753 0.00186206 0.00554220 0.00156100 0.00771381 0.00250043 0.02428168 0.00174278 0.00561786 0.00103999 0.01192067 0.03047353 0.00791243 0.00067160 
0.01326278 0.01758887 0.00170327 0.00184101 0.00543958 0.00156987 0.00771361 0.00247917 0.02454156 0.00171350 0.00586765 0.00105852 0.01184292 0.03038633 0.00792766 0.00067316 
0.01335219 0.01772532 0.00178286 0.00182015 0.00533296 0.00157838 0.00770478 0.00246122 0.02479415 0.00169211 0.00615560 0.00107739 0.01176073 0.03029908 0.00794546 0.00067416 
0.01344641 0.01786376 0.00186599 0.00179955 0.00522278 0.00158643 0.00768731 0.00244677 0.02503795 0.00167912 0.00648185 0.00109656 0.01167461 0.03021120 0.00796562 0.00067460 
0.01354464 0.01800356 0.00195236 0.00177930 0.00510952 0.00159391 0.00766122 0.00243601 0.02527152 0.00167502 0.00684631 0.00111601 0.01158507 0.03012214 0.00798790 0.00067447 
0.01364606 0.01814407 0.00204164 0.00175948 0.00499371 0.00160073 0.00762658 0.00242910 0.02549346 0.00168025 0.00724870 0.00113571 0.01149264 0.03003135 0.00801206 0.00067376 
0.01374978 0.01828462 0.00213347 0.00174017 0.00487591 0.00160678 0.00758347 0.00242618 0.02570240 0.00169522 0.00768851 0.00115564 0.01139785 0.02993832 0.00803786 0.00067247 
0.01385489 0.01842452 0.00222750 0.00172144 0.00475670 0.00161196 0.00753203 0.00242738 0.02589705 0.00172029 0.00816499 0.00117577 0.01130122 0.02984260 0.00806508 0.00067061 
0.01396045 0.01856304 0.00232338 0.00170336 0.00463672 0.00161619 0.00747245 0.00243280 0.02607620 0.00175578 0.00867719 0.00119607 0.01120327 0.02974374 0.00809349 0.00066816 
0.01406551 0.01869946 0.00242071 0.00168601 0.00451663 0.00161937 0.00740492 0.00244251 0.02623870 0.00180194 0.00922393 0.00121652 0.01110454 0.02964140 0.00812288 0.00066515 
0.01416909 0.01883303 0.00251913 0.00166943 0.00439712 0.00162142 0.00732969 0.00245657 0.02638348 0.00185900 0.00980382 0.00123708 0.01100552 0.02953524 0.00815303 0.00066157 
0.01427022 0.01896299 0.00261825 0.00165369 0.00427890 0.00162227 0.00724703 0.00247501 0.02650958 0.00192711 0.01041523 0.00125774 0.01090673 0.02942504 0.00818376 0.00065744 
0.01436791 0.01908859 0.00271768 0.00163885 0.00416273 0.00162185 0.00715728 0.00249783 0.02661612 0.00200637 0.01105633 0.00127845 0.01080863 0.02931063 0.00821489 0.00065278 
0.01446121 0.01920908 0.00281702 0.00162494 0.00404938 0.00162008 0.00706076 0.00252502 0.02670234 0.00209682 0.01172510 0.00129920 0.01071172 0.02919193 0.00824626 0.00064759 
0.01454916 0.01932371 0.00291589 0.00161201 0.00393961 0.00161692 0.00695787 0.00255654 0.02676757 0.00219844 0.01241930 0.00131995 0.01061642 0.02906895 0.00827772 0.00064190 
0.01463083 0.01943174 0.00301390 0.00160010 0.00383425 0.00161231 0.00684899 0.00259231 0.02681129 0.00231116 0.01313650 0.00134067 0.01052316 0.02894179 0.00830914 0.00063573 
0.01470533 0.01953245 0.00311068 0.00158923 0.00373409 0.00160622 0.00673458 0.00263225 0.02683305 0.00243484 0.01387410 0.00136133 0.01043235 0.02881066 0.00834043 0.00062911 
0.01477180 0.01962514 0.00320584 0.00157943 0.00363997 0.00159862 0.00661510 0.00267624 0.02683256 0.00256928 0.01462933 0.00138189 0.01034435 0.02867586 0.00837150 0.00062206 
0.01482942 0.01970913 0.00329901 0.00157071 0.00355270 0.00158948 0.00649102 0.00272413 0.02680964 0.00271421 0.01539927 0.00140233 0.01025951 0.02853781 0.00840230 0.00061462 
0.01487742 0.01978378 0.00338985 0.00156308 0.00347312 0.00157879 0.00636286 0.00277577 0.02676425 0.00286932 0.01618085 0.00142260 0.01017812 0.02839703 0.00843279 0.00060681 
0.01491510 0.01984847 0.00347801 0.00155654 0.00340204 0.00156655 0.00623115 0.00283097 0.02669647 0.00303422 0.01697087 0.00144267 0.01010047 0.02825417 0.00846297 0.00059868 
0.01494180 0.01990263 0.00356314 0.00155109 0.00334026 0.00155276 0.00609643 0.00288952 0.02660650 0.00320847 0.01776605 0.00146250 0.01002679 0.02810996 0.00849284 0.00059025 
0.01495693 0.01994573 0.00364495 0.00154672 0.00328860 0.00153744 0.00595927 0.00295119 0.02649470 0.00339158 0.01856298 0.00148205 0.00995729 0.02796526 0.00852246 0.00058157 
0.01495998 0.01997730 0.00372314 0.00154340 0.00324783 0.00152061 0.00582025 0.00301574 0.02636154 0.00358298 0.01935819 0.00150128 0.00989212 0.02782105 0.00855188 0.00057268 
0.01495051 0.01999690 0.00379741 0.00154112 0.00321870 0.00150232 0.00567993 0.00308290 0.02620763 0.00378207 0.02014817 0.00152016 0.00983141 0.02767841 0.00858121 0.00056361 
0.01492815 0.02000416 0.00386752 0.00153984 0.00320195 0.00148261 0.00553893 0.00315239 0.02603369 0.00398820 0.02092936 0.00153862 0.00977525 0.02753851 0.00861055 0.00055443 
0.01489262 0.01999876 0.00393322 0.00153952 0.00319826 0.00146153 0.00539784 0.00322391 0.02584060 0.00420066 0.02169817 0.00155664 0.00972368 0.02740263 0.00864004 0.00054516 
0.01484370 0.01998045 0.00399430 0.00154013 0.00320831 0.00143915 0.00525726 0.00329715 0.02562934 0.00441870 0.02245104 0.00157418 0.00967671 0.02727214 0.00866985 0.00053587 
0.01478128 0.01994903 0.00405056 0.00154161 0.00323269 0.00141553 0.00511778 0.00337178 0.02540101 0.00464153 0.02318442 0.00159117 0.00963431 0.02714851 0.00870017 0.00052659 
0.01470532 0.01990439 0.00410185 0.00154391 0.00327200 0.00139077 0.00498002 0.00344748 0.02515685 0.00486833 0.02389480 0.00160759 0.00959641 0.02703325 0.00873118 0.00051737 
0.01461586 0.01984647 0.00414801 0.00154698 0.00332674 0.00136495 0.00484455 0.00352388 0.02489817 0.00509823 0.02457875 0.00162338 0.00956291 0.02692799 0.00876312 0.00050827 
0.01451304 0.01977527 0.00418894 0.00155074 0.00339737 0.00133817 0.00471196 0.00360066 0.02462642 0.00533034 0.02523291 0.00163851 0.00953367 0.02683437 0.00879622 0.00049933 
0.01439707 0.01969088 0.00422454 0.00155513 0.00348432 0.00131052 0.00458283 0.00367743 0.02434315 0.00556376 0.02585404 0.00165292 0.00950851 0.02675410 0.00883073 0.00049060 
0.01426823 0.01959345 0.00425476 0.00156008 0.00358791 0.00128214 0.00445771 0.00375386 0.02404998 0.00579755 0.02643902 0.00166658 0.00948723 0.02668892 0.00886692 0.00048213 
0.01412691 0.01948320 0.00427955 0.00156552 0.00370843 0.00125312 0.00433713 0.00382958 0.02374864 0.00603077 0.02698486 0.00167943 0.00946960 0.02664059 0.00890505 0.00047397 
0.01397356 0.01936043 0.00429893 0.00157137 0.00384607 0.00122360 0.00422163 0.00390422 0.02344092 0.00626245 0.02748874 0.00169145 0.00945534 0.02661089 0.00894541 0.00046617 
0.01380868 0.01922550 0.00431289 0.00157755 0.00400099 0.00119370 0.00411171 0.00397743 0.02312869 0.00649164 0.02794805 0.00170259 0.00944418 0.02660157 0.00898827 0.00045877 
0.01363288 0.01907882 0.00432151 0.00158398 0.00417322 0.00116356 0.00400783 0.00404885 0.02281388 0.00671739 0.02836032 0.00171281 0.00943581 0.02661437 0.00903391 0.00045182 
0.01344682 0.01892089 0.00432485 0.00159058 0.00436276 0.00113330 0.00391046 0.00411814 0.02249848 0.00693872 0.02872335 0.00172207 0.00942989 0.02665100 0.00908262 0.00044536 
0.01325120 0.01875227 0.00432301 0.00159727 0.00456949 0.00110307 0.00382001 0.00418495 0.02218450 0.00715470 0.02903512 0.00173035 0.00942609 0.02671312 0.00913468 0.00043943 
0.01304680 0.01857356 0.00431614 0.00160397 0.00479325 0.00107301 0.00373688 0.00424896 0.02187402 0.00736441 0.02929388 0.00173761 0.00942405 0.02680230 0.00919034 0.00043407 
0.01283444 0.01838542 0.00430438 0.00161061 0.00503376 0.00104325 0.00366143 0.00430984 0.02156911 0.00756693 0.02949811 0.00174382 0.00942340 0.02692005 0.00924986 0.00042932 
0.01261500 0.01818858 0.00428791 0.00161709 0.00529067 0.00101395 0.00359398 0.00436729 0.02127186 0.00776139 0.02964658 0.00174897 0.00942377 0.02706776 0.00931348 0.00042522 
0.01238937 0.01798381 0.00426694 0.00162335 0.00556356 0.00098524 0.00353483 0.00442102 0.02098438 0.00794694 0.02973829 0.00175302 0.00942478 0.02724673 0.00938142 0.00042179 
0.01215849 0.01777190 0.00424170 0.00162930 0.00585191 0.00095726 0.00348424 0.00447076 0.02070874 0.00812275 0.02977255 0.00175597 0.00942606 0.02745811 0.00945388 0.00041906 
0.01192333 0.01755371 0.00421242 0.00163489 0.00615511 0.00093016 0.00344243 0.00451624 0.02044702 0.00828806 0.02974894 0.00175780 0.00942723 0.02770290 0.00953104 0.00041706 
0.01168487 0.01733010 0.00417939 0.00164004 0.00647249 0.00090406 0.00340957 0.00455723 0.02020124 0.00844214 0.02966734 0.00175850 0.00942794 0.02798196 0.00961303 0.00041580 
0.01144411 0.01710200 0.00414288 0.00164469 0.00680328 0.00087911 0.00338581 0.00459350 0.01997340 0.00858429 0.02952789 0.00175807 0.00942782 0.02829597 0.00969999 0.00041532 
0.01120205 0.01687031 0.00410319 0.00164877 0.00714665 0.00085543 0.00337125 0.00462487 0.01976543 0.00871391 0.02933106 0.00175651 0.00942654 0.02864542 0.00979199 0.00041561 
0.01095969 0.01663599 0.00406064 0.00165224 0.00750167 0.00083314 0.00336597 0.00465116 0.01957920 0.00883039 0.02907757 0.00175383 0.00942377 0.02903060 0.00988909 0.00041669 
0.01071804 0.01639999 0.00401556 0.00165504 0.00786737 0.00081237 0.00336997 0.00467221 0.01941649 0.00893324 0.02876845 0.00175003 0.00941920 0.02945161 0.00999129 0.00041857 
0.01047807 0.01616325 0.00396829 0.00165714 0.00824267 0.00079323 0.00338326 0.00468791 0.01927903 0.00902199 0.02840500 0.00174513 0.00941256 0.02990833 0.01009856 0.00042124 
0.01024077 0.01592674 0.00391917 0.00165849 0.00862646 0.00077583 0.00340577 0.00469814 0.01916840 0.00909625 0.02798880 0.00173916 0.00940358 0.03040039 0.01021084 0.00042471 
0.01000706 0.01569138 0.00386857 0.00165906 0.00901756 0.00076027 0.00343742 0.00470283 0.01908609 0.00915570 0.02752170 0.00173214 0.00939203 0.03092722 0.01032801 0.00042897 
0.00977788 0.01545813 0.00381683 0.00165883 0.00941472 0.00074663 0.00347807 0.00470193 0.01903350 0.00920006 0.02700578 0.00172409 0.00937771 0.03148800 0.01044991 0.00043399 
0.00955409 0.01522787 0.00376433 0.00165777 0.00981664 0.00073501 0.00352756 0.00469542 0.01901184 0.00922916 0.02644340 0.00171507 0.00936044 0.03208168 0.01057633 0.00043978 
0.00933653 0.01500149 0.00371142 0.00165589 0.01022200 0.00072549 0.00358568 0.00468328 0.01902225 0.00924286 0.02583713 0.00170510 0.00934009 0.03270697 0.01070703 0.00044630 
0.00912601 0.01477985 0.00365847 0.00165316 0.01062941 0.00071812 0.00365220 0.00466556 0.01906566 0.00924111 0.02518977 0.00169424 0.00931655 0.03336232 0.01084171 0.00045354 
0.00892327 0.01456375 0.00360583 0.00164959 0.01103747 0.00071297 0.00372686 0.00464229 0.01914288 0.00922393 0.02450432 0.00168253 0.00928974 0.03404596 0.01098002 0.00046145 
0.00872901 0.01435397 0.00355385 0.00164520 0.01144473 0.00071009 0.00380935 0.00461357 0.01925455 0.00919140 0.02378397 0.00167004 0.00925964 0.03475589 0.01112157 0.00047002 
0.00854387 0.01415122 0.00350289 0.00163999 0.01184974 0.00070951 0.00389934 0.00457948 0.01940114 0.00914368 0.02303208 0.00165681 0.00922624 0.03548988 0.01126592 0.00047920 
0.00836844 0.01395617 0.00345326 0.00163399 0.01225102 0.00071127 0.00399647 0.00454016 0.01958294 0.00908098 0.02225216 0.00164292 0.00918958 0.03624546 0.01141259 0.00048895 
0.00820323 0.01376945 0.00340530 0.00162723 0.01264711 0.00071538 0.00410036 0.00449576 0.01980007 0.00900358 0.02144784 0.00162843 0.00914973 0.03701996 0.01156105 0.00049923 
0.00804870 0.01359160 0.00335931 0.00161974 0.01303651 0.00072185 0.00421061 0.00444645 0.02005245 0.00891185 0.02062288 0.00161342 0.00910680 0.03781052 0.01171074 0.00050998 
0.00790526 0.01342312 0.00331557 0.00161156 0.01341777 0.00073068 0.00432680 0.00439244 0.02033982 0.00880617 0.01978112 0.00159794 0.00906095 0.03861408 0.01186105 0.00052116 
0.00777323 0.01326443 0.00327438 0.00160274 0.01378943 0.00074186 0.00444846 0.00433393 0.02066173 0.00868702 0.01892649 0.00158209 0.00901235 0.03942742 0.01201133 0.00053271 
0.00765288 0.01311589 0.00323597 0.00159334 0.01415006 0.00075536 0.00457516 0.00427117 0.02101755 0.00855493 0.01806294 0.00156593 0.00896121 0.04024713 0.01216091 0.00054457 
0.00754441 0.01297779 0.00320058 0.00158340 0.01449827 0.00077116 0.00470640 0.00420441 0.02140645 0.00841047 0.01719446 0.00154956 0.00890778 0.04106970 0.01230907 0.00055669 
0.00744796 0.01285034 0.00316844 0.00157300 0.01483269 0.00078920 0.00484170 0.00413395 0.02182739 0.00825426 0.01632507 0.00153304 0.00885234 0.04189147 0.01245508 0.00056900 
0.00736359 0.01273369 0.00313971 0.00156219 0.01515200 0.00080944 0.00498057 0.00406006 0.02227917 0.00808696 0.01545873 0.00151646 0.00879519 0.04270871 0.01259818 0.00058144 
0.00729132 0.01262792 0.00311458 0.00155106 0.01545495 0.00083182 0.00512250 0.00398306 0.02276040 0.00790930 0.01459939 0.00149991 0.00873667 0.04351760 0.01273759 0.00059394 
0.00723110 0.01253301 0.00309318 0.00153967 0.01574031 0.00085626 0.00526700 0.00390327 0.02326950 0.00772201 0.01375095 0.00148346 0.00867713 0.04431424 0.01287252 0.00060644 
0.00718280 0.01244890 0.00307563 0.00152810 0.01600696 0.00088268 0.00541355 0.00382104 0.02380472 0.00752587 0.01291721 0.00146719 0.00861695 0.04509475 0.01300217 0.00061887 
0.00714627 0.01237545 0.00306200 0.00151644 0.01625383 0.00091099 0.00556164 0.00373670 0.02436414 0.00732169 0.01210188 0.00145119 0.00855652 0.04585520 0.01312571 0.00063117 
0.00712128 0.01231244 0.00305237 0.00150476 0.01647990 0.00094110 0.00571079 0.00365064 0.02494569 0.00711030 0.01130855 0.00143553 0.00849627 0.04659171 0.01324235 0.00064326 
0.00710755 0.01225960 0.00304676 0.00149315 0.01668429 0.00097290 0.00586048 0.00356320 0.02554714 0.00689255 0.01054069 0.00142029 0.00843661 0.04730043 0.01335129 0.00065510 
0.00710476 0.01221658 0.00304519 0.00148169 0.01686615 0.00100628 0.00601024 0.00347477 0.02616610 0.00666931 0.00980159 0.00140554 0.00837797 0.04797760 0.01345172 0.00066660 
0.00711255 0.01218299 0.00304762 0.00147047 0.01702475 0.00104111 0.00615957 0.00338573 0.02680009 0.00644144 0.00909439 0.00139134 0.00832081 0.04861954 0.01354287 0.00067770 
0.00713051 0.01215837 0.00305401 0.00145958 0.01715946 0.00107728 0.00630802 0.00329647 0.02744647 0.00620983 0.00842202 0.00137778 0.00826557 0.04922271 0.01362399 0.00068836 
0.00715819 0.01214221 0.00306429 0.00144909 0.01726973 0.00111465 0.00645514 0.00320738 0.02810252 0.00597536 0.00778724 0.00136490 0.00821269 0.04978372 0.01369435 0.00069850 
0.00719512 0.01213396 0.00307835 0.00143909 0.01735513 0.00115308 0.00660048 0.00311885 0.02876541 0.00573892 0.00719257 0.00135277 0.00816261 0.05029937 0.01375326 0.00070807 
0.00724078 0.01213300 0.00309607 0.00142966 0.01741532 0.00119244 0.00674362 0.00303126 0.02943224 0.00550136 0.00664031 0.00134144 0.00811576 0.05076665 0.01380006 0.00071703 
0.00729466 0.01213871 0.00311730 0.00142088 0.01745007 0.00123258 0.00688417 0.00294501 0.03010005 0.00526355 0.00613254 0.00133095 0.00807258 0.05118279 0.01383415 0.00072532 
0.00735620 0.01215040 0.00314186 0.00141282 0.01745926 0.00127336 0.00702174 0.00286049 0.03076581 0.00502634 0.00567108 0.00132135 0.00803347 0.05154527 0.01385496 0.00073289 
0.00742482 0.01216740 0.00316955 0.00140556 0.01744288 0.00131461 0.00715596 0.00277807 0.03142649 0.00479055 0.00525748 0.00131268 0.00799882 0.05185185 0.01386200 0.00073971 
0.00749996 0.01218898 0.00320017 0.00139917 0.01740103 0.00135620 0.00728651 0.00269814 0.03207901 0.00455698 0.00489306 0.00130497 0.00796900 0.05210059 0.01385483 0.00074575 
0.00758102 0.01221440 0.00323347 0.00139370 0.01733390 0.00139798 0.00741306 0.00262106 0.03272033 0.00432642 0.00457886 0.00129823 0.00794437 0.05228986 0.01383306 0.00075096 
0.00766741 0.01224293 0.00326919 0.00138923 0.01724181 0.00143978 0.00753532 0.00254719 0.03334739 0.00409962 0.00431566 0.00129249 0.00792524 0.05241838 0.01379639 0.00075534 
0.00775855 0.01227384 0.00330708 0.00138580 0.01712516 0.00148146 0.00765302 0.00247689 0.03395719 0.00387729 0.00410395 0.00128777 0.00791191 0.05248522 0.01374461 0.00075885 
0.00785384 0.01230638 0.00334685 0.00138346 0.01698448 0.00152286 0.00776592 0.00241049 0.03454676 0.00366013 0.00394398 0.00128405 0.00790463 0.05248981 0.01367754 0.00076149 
0.00795270 0.01233983 0.00338821 0.00138226 0.01682038 0.00156384 0.00787379 0.00234832 0.03511324 0.00344878 0.00383571 0.00128135 0.00790364 0.05243197 0.01359514 0.00076325 
0.00805456 0.01237348 0.00343084 0.00138223 0.01663357 0.00160426 0.00797644 0.00229069 0.03565381 0.00324386 0.00377883 0.00127966 0.00790912 0.05231191 0.01349741 0.00076412 
0.00815886 0.01240666 0.00347444 0.00138341 0.01642486 0.00164396 0.00807370 0.00223792 0.03616577 0.00304594 0.00377279 0.00127895 0.00792121 0.05213023 0.01338447 0.00076412 
0.00826507 0.01243872 0.00351868 0.00138582 0.01619514 0.00168281 0.00816543 0.00219027 0.03664656 0.00285556 0.00381677 0.00127922 0.00794004 0.05188796 0.01325652 0.00076325 
0.00837265 0.01246904 0.00356325 0.00138948 0.01594538 0.00172068 0.00825149 0.00214803 0.03709373 0.00267321 0.00390970 0.00128043 0.00796566 0.05158651 0.01311385 0.00076154 
0.00848112 0.01249705 0.00360783 0.00139439 0.01567664 0.00175743 0.00833180 0.00211143 0.03750498 0.00249935 0.00405026 0.00128255 0.00799809 0.05122772 0.01295686 0.00075902 
0.00858998 0.01252223 0.00365208 0.00140058 0.01539005 0.00179295 0.00840627 0.00208072 0.03787819 0.00233439 0.00423693 0.00128553 0.00803732 0.05081382 0.01278604 0.00075570 
0.00869879 0.01254411 0.00369568 0.00140802 0.01508678 0.00182710 0.00847485 0.00205611 0.03821139 0.00217869 0.00446792 0.00128935 0.00808327 0.05034746 0.01260196 0.00075163 
0.00880712 0.01256227 0.00373833 0.00141672 0.01476811 0.00185980 0.00853751 0.00203778 0.03850282 0.00203258 0.00474128 0.00129393 0.00813584 0.04983166 0.01240531 0.00074687 
0.00891456 0.01257638 0.00377972 0.00142666 0.01443532 0.00189092 0.00859424 0.00202592 0.03875092 0.00189635 0.00505482 0.00129924 0.00819485 0.04926984 0.01219687 0.00074145 
0.00902076 0.01258614 0.00381954 0.00143782 0.01408976 0.00192037 0.00864505 0.00202068 0.03895432 0.00177024 0.00540621 0.00130521 0.00826011 0.04866581 0.01197750 0.00073543 
0.00912536 0.01259135 0.00385750 0.00145016 0.01373284 0.00194808 0.00868998 0.00202218 0.03911188 0.00165445 0.00579291 0.00131178 0.00833135 0.04802369 0.01174817 0.00072889 
0.00922805 0.01259186 0.00389333 0.00146366 0.01336595 0.00197395 0.00872906 0.00203054 0.03922269 0.00154915 0.00621226 0.00131888 0.00840830 0.04734797 0.01150994 0.00072189 
0.00932855 0.01258762 0.00392678 0.00147827 0.01299056 0.00199791 0.00876237 0.00204583 0.03928606 0.00145446 0.00666143 0.00132643 0.00849060 0.04664345 0.01126394 0.00071449 
0.00942661 0.01257863 0.00395758 0.00149395 0.01260812 0.00201991 0.00878999 0.00206811 0.03930153 0.00137048 0.00713751 0.00133438 0.00857787 0.04591522 0.01101140 0.00070679 
0.00952199 0.01256500 0.00398553 0.00151064 0.01222009 0.00203989 0.00881201 0.00209743 0.03926889 0.00129725 0.00763745 0.00134262 0.00866970 0.04516864 0.01075361 0.00069887 
0.00961451 0.01254689 0.00401041 0.00152829 0.01182795 0.00205781 0.00882854 0.00213379 0.03918816 0.00123480 0.00815813 0.00135111 0.00876561 0.04440932 0.01049197 0.00069081 
0.00970398 0.01252456 0.00403203 0.00154684 0.01143316 0.00207364 0.00883973 0.00217717 0.03905960 0.00118312 0.00869637 0.00135974 0.00886513 0.04364305 0.01022789 0.00068270 
0.00979026 0.01249834 0.00405024 0.00156621 0.01103718 0.00208735 0.00884569 0.00222755 0.03888371 0.00114216 0.00924893 0.00136844 0.00896770 0.04287583 0.00996290 0.00067464 
0.00987323 0.01246865 0.00406489 0.00158634 0.01064142 0.00209893 0.00884659 0.00228486 0.03866122 0.00111186 0.00981254 0.00137713 0.00907279 0.04211378 0.00969854 0.00066673 
0.00995280 0.01243596 0.00407586 0.00160716 0.01024730 0.00210836 0.00884259 0.00234900 0.03839308 0.00109212 0.01038391 0.00138573 0.00917979 0.04136316 0.00943643 0.00065906 
0.01002887 0.01240085 0.00408306 0.00162858 0.00985618 0.00211567 0.00883385 0.00241987 0.03808048 0.00108283 0.01095976 0.00139416 0.00928810 0.04063026 0.00917820 0.00065173 
0.01010140 0.01236395 0.00408642 0.00165053 0.00946938 0.00212085 0.00882055 0.00249732 0.03772481 0.00108383 0.01153684 0.00140234 0.00939709 0.03992144 0.00892554 0.00064484 
0.01017034 0.01232595 0.00408591 0.00167292 0.00908819 0.00212394 0.00880289 0.00258118 0.03732766 0.00109497 0.01211194 0.00141019 0.00950610 0.03924304 0.00868014 0.00063850 
0.01023567 0.01228762 0.00408150 0.00169567 0.00871383 0.00212497 0.00878105 0.00267128 0.03689083 0.00111607 0.01268188 0.00141764 0.00961448 0.03860136 0.00844373 0.00063279 
0.01029737 0.01224978 0.00407320 0.00171869 0.00834747 0.00212397 0.00875523 0.00276738 0.03641628 0.00114694 0.01324359 0.00142461 0.00972156 0.03800260 0.00821800 0.00062783 
0.01035545 0.01221330 0.00406106 0.00174190 0.00799022 0.00212100 0.00872565 0.00286926 0.03590617 0.00118735 0.01379406 0.00143104 0.00982666 0.03745287 0.00800469 0.00062369 
0.01040991 0.01217912 0.00404513 0.00176521 0.00764309 0.00211611 0.00869250 0.00297665 0.03536280 0.00123710 0.01433041 0.00143685 0.00992911 0.03695808 0.00780548 0.00062049 
0.01046077 0.01214818 0.00402549 0.00178853 0.00730707 0.00210937 0.00865600 0.00308926 0.03478859 0.00129593 0.01484985 0.00144199 0.01002824 0.03652396 0.00762204 0.00061830 
0.01050806 0.01212150 0.00400226 0.00181178 0.00698303 0.00210085 0.00861636 0.00320678 0.03418612 0.00136361 0.01534975 0.00144639 0.01012339 0.03615597 0.00745602 0.00061721 
0.01055179 0.01210007 0.00397557 0.00183487 0.00667179 0.00209063 0.00857381 0.00332888 0.03355805 0.00143988 0.01582761 0.00145001 0.01021390 0.03585932 0.00730900 0.00061729 
0.01059201 0.01208496 0.00394557 0.00185772 0.00637406 0.00207879 0.00852856 0.00345521 0.03290714 0.00152449 0.01628109 0.00145278 0.01029915 0.03563888 0.00718252 0.00061864 
0.01062873 0.01207721 0.00391245 0.00188024 0.00609048 0.00206542 0.00848082 0.00358539 0.03223624 0.00161716 0.01670802 0.00145468 0.01037852 0.03549915 0.00707805 0.00062130 
0.01066198 0.01207787 0.00387639 0.00190236 0.00582162 0.00205062 0.00843082 0.00371903 0.03154823 0.00171763 0.01710641 0.00145565 0.01045144 0.03544427 0.00699697 0.00062534 
0.01069180 0.01208799 0.00383763 0.00192400 0.00556793 0.00203449 0.00837877 0.00385572 0.03084604 0.00182561 0.01747446 0.00145567 0.01051735 0.03547794 0.00694061 0.00063082 
0.01071820 0.01210860 0.00379637 0.00194508 0.00532979 0.00201713 0.00832489 0.00399504 0.03013262 0.00194085 0.01781056 0.00145471 0.01057572 0.03560339 0.00691018 0.00063778 
0.01074120 0.01214071 0.00375289 0.00196553 0.00510749 0.00199864 0.00826939 0.00413653 0.02941091 0.00206304 0.01811329 0.00145275 0.01062609 0.03582340 0.00690677 0.00064626 
0.01076082 0.01218529 0.00370743 0.00198529 0.00490123 0.00197915 0.00821248 0.00427974 0.02868385 0.00219192 0.01838145 0.00144976 0.01066800 0.03614022 0.00693139 0.00065628 
0.01077705 0.01224329 0.00366028 0.00200429 0.00471113 0.00195875 0.00815437 0.00442420 0.02795433 0.00232720 0.01861406 0.00144575 0.01070106 0.03655557 0.00698491 0.00066786 
0.01078990 0.01231558 0.00361172 0.00202247 0.00453722 0.00193757 0.00809526 0.00456943 0.02722520 0.00246859 0.01881033 0.00144071 0.01072493 0.03707063 0.00706807 0.00068101 
0.01079935 0.01240298 0.00356205 0.00203978 0.00437943 0.00191571 0.00803534 0.00471495 0.02649924 0.00261581 0.01896969 0.00143464 0.01073931 0.03768599 0.00718149 0.00069574 
0.01080540 0.01250627 0.00351155 0.00205616 0.00423763 0.00189329 0.00797481 0.00486025 0.02577914 0.00276858 0.01909179 0.00142755 0.01074396 0.03840169 0.00732562 0.00071201 
0.01080801 0.01262611 0.00346054 0.00207157 0.00411162 0.00187042 0.00791386 0.00500483 0.02506750 0.00292661 0.01917649 0.00141945 0.01073870 0.03921714 0.00750079 0.00072983 
0.01080717 0.01276312 0.00340933 0.00208596 0.00400108 0.00184721 0.00785266 0.00514819 0.02436680 0.00308961 0.01922387 0.00141037 0.01072340 0.04013119 0.00770717 0.00074914 
0.01080283 0.01291781 0.00335821 0.00209930 0.00390566 0.00182377 0.00779139 0.00528983 0.02367941 0.00325729 0.01923420 0.00140033 0.01069799 0.04114208 0.00794474 0.00076991 
0.01079495 0.01309058 0.00330750 0.00211155 0.00382493 0.00180021 0.00773021 0.00542923 0.02300755 0.00342937 0.01920796 0.00138937 0.01066248 0.04224744 0.00821336 0.00079207 
0.01078349 0.01328175 0.00325750 0.00212269 0.00375839 0.00177663 0.00766929 0.00556589 0.02235330 0.00360555 0.01914585 0.00137752 0.01061692 0.04344431 0.00851272 0.00081558 
0.01076839 0.01349152 0.00320849 0.00213268 0.00370548 0.00175314 0.00760877 0.00569933 0.02171858 0.00378553 0.01904872 0.00136483 0.01056143 0.04472916 0.00884231 0.00084034 
0.01074961 0.01371998 0.00316077 0.00214151 0.00366560 0.00172982 0.00754879 0.00582905 0.02110514 0.00396903 0.01891763 0.00135134 0.01049621 0.04609787 0.00920151 0.00086628 
0.01072709 0.01396711 0.00311461 0.00214917 0.00363807 0.00170677 0.00748948 0.00595458 0.02051457 0.00415574 0.01875382 0.00133711 0.01042150 0.04754579 0.00958948 0.00089329 
0.01070078 0.01423275 0.00307027 0.00215564 0.00362220 0.00168408 0.00743097 0.00607544 0.01994830 0.00434536 0.01855867 0.00132220 0.01033762 0.04906772 0.01000525 0.00092127 
0.01067062 0.01451663 0.00302802 0.00216092 0.00361724 0.00166183 0.00737337 0.00619119 0.01940754 0.00453758 0.01833373 0.00130666 0.01024494 0.05065796 0.01044769 0.00095011 
0.01063657 0.01481834 0.00298809 0.00216500 0.00362241 0.00164008 0.00731678 0.00630140 0.01889336 0.00473209 0.01808070 0.00129056 0.01014390 0.05231034 0.01091550 0.00097968 
0.01059858 0.01513737 0.00295069 0.00216788 0.00363690 0.00161891 0.00726129 0.00640566 0.01840663 0.00492858 0.01780140 0.00127398 0.01003499 0.05401821 0.01140723 0.00100985 
0.01055662 0.01547304 0.00291603 0.00216957 0.00365988 0.00159838 0.00720699 0.00650357 0.01794804 0.00512671 0.01749777 0.00125698 0.00991877 0.05577456 0.01192128 0.00104049 
0.01051066 0.01582458 0.00288429 0.00217007 0.00369051 0.00157855 0.00715395 0.00659476 0.01751811 0.00532617 0.01717186 0.00123963 0.00979586 0.05757196 0.01245592 0.00107145 
0.01046068 0.01619108 0.00285564 0.00216940 0.00372794 0.00155946 0.00710223 0.00667889 0.01711717 0.00552662 0.01682582 0.00122202 0.00966690 0.05940268 0.01300929 0.00110258 
0.01040668 0.01657150 0.00283021 0.00216757 0.00377129 0.00154115 0.00705187 0.00675566 0.01674538 0.00572771 0.01646187 0.00120423 0.00953260 0.06125869 0.01357939 0.00113373 
0.01034867 0.01696468 0.00280813 0.00216459 0.00381971 0.00152366 0.00700293 0.00682477 0.01640277 0.00592911 0.01608229 0.00118633 0.00939374 0.06313173 0.01416412 0.00116474 
0.01028667 0.01736935 0.00278948 0.00216048 0.00387234 0.00150702 0.00695543 0.00688598 0.01608916 0.00613047 0.01568943 0.00116840 0.00925109 0.06501335 0.01476128 0.00119545 
0.01022072 0.01778414 0.00277435 0.00215527 0.00392834 0.00149123 0.00690938 0.00693906 0.01580427 0.00633141 0.01528567 0.00115053 0.00910550 0.06689496 0.01536856 0.00122570 
0.01015089 0.01820754 0.00276278 0.00214898 0.00398687 0.00147631 0.00686482 0.00698384 0.01554764 0.00653158 0.01487340 0.00113280 0.00895784 0.06876787 0.01598359 0.00125533 
0.01007726 0.01863796 0.00275479 0.00214163 0.00404713 0.00146227 0.00682172 0.00702017 0.01531871 0.00673060 0.01445503 0.00111529 0.00880900 0.07062340 0.01660393 0.00128416 
0.00999993 0.01907372 0.00275038 0.00213324 0.00410835 0.00144910 0.00678009 0.00704794 0.01511678 0.00692810 0.01403297 0.00109809 0.00865991 0.07245285 0.01722708 0.00131206 
0.00991903 0.01951306 0.00274953 0.00212386 0.00416976 0.00143680 0.00673992 0.00706708 0.01494107 0.00712369 0.01360961 0.00108127 0.00851150 0.07424763 0.01785050 0.00133885 
0.00983471 0.01995413 0.00275219 0.00211351 0.00423066 0.00142534 0.00670117 0.00707755 0.01479066 0.00731699 0.01318729 0.00106491 0.00836475 0.07599928 0.01847163 0.00136438 
0.00974716 0.02039501 0.00275829 0.00210221 0.00429036 0.00141471 0.00666381 0.00707937 0.01466460 0.00750761 0.01276833 0.00104909 0.00822061 0.07769954 0.01908790 0.00138851 
0.00965657 0.02083375 0.00276773 0.00209000 0.00434823 0.00140487 0.00662782 0.00707259 0.01456184 0.00769514 0.01235498 0.00103388 0.00808005 0.07934038 0.01969675 0.00141110 
0.00956317 0.02126832 0.00278039 0.00207692 0.00440369 0.00139579 0.00659314 0.00705730 0.01448127 0.00787921 0.01194942 0.00101937 0.00794405 0.08091410 0.02029563 0.00143200 
0.00946722 0.02169668 0.00279614 0.00206299 0.00445619 0.00138743 0.00655973 0.00703362 0.01442174 0.00805939 0.01155376 0.00100561 0.00781357 0.08241334 0.02088204 0.00145110 
0.00936902 0.02211676 0.00281481 0.00204826 0.00450525 0.00137975 0.00652754 0.00700172 0.01438208 0.00823531 0.01117000 0.00099267 0.00768955 0.08383116 0.02145351 0.00146828 
0.00926886 0.02252646 0.00283623 0.00203275 0.00455042 0.00137270 0.00649650 0.00696183 0.01436110 0.00840655 0.01080004 0.00098062 0.00757295 0.08516107 0.02200767 0.00148344 
0.00916709 0.02292370 0.00286021 0.00201650 0.00459134 0.00136622 0.00646656 0.00691418 0.01435758 0.00857272 0.01044570 0.00096951 0.00746467 0.08639708 0.02254219 0.00149647 
0.00906408 0.02330640 0.00288652 0.00199956 0.00462767 0.00136026 0.00643766 0.00685906 0.01437035 0.00873344 0.01010864 0.00095939 0.00736559 0.08753376 0.02305488 0.00150731 
0.00896022 0.02367253 0.00291495 0.00198194 0.00465916 0.00135476 0.00640973 0.00679680 0.01439821 0.00888830 0.00979043 0.00095033 0.00727656 0.08856628 0.02354364 0.00151587 
0.00885591 0.02402004 0.00294525 0.00196371 0.00468559 0.00134967 0.00638271 0.00672776 0.01444003 0.00903694 0.00949246 0.00094236 0.00719842 0.08949042 0.02400647 0.00152211 
0.00875162 0.02434699 0.00297717 0.00194488 0.00470683 0.00134491 0.00635654 0.00665233 0.01449470 0.00917897 0.00921603 0.00093552 0.00713192 0.09030263 0.02444156 0.00152599 
0.00864779 0.02465146 0.00301045 0.00192551 0.00472277 0.00134043 0.00633115 0.00657093 0.01456115 0.00931403 0.00896227 0.00092985 0.00707780 0.09100005 0.02484721 0.00152747 
0.00854491 0.02493162 0.00304482 0.00190564 0.00473339 0.00133617 0.00630649 0.00648402 0.01463839 0.00944177 0.00873216 0.00092537 0.00703674 0.09158053 0.02522190 0.00152657 
0.00844349 0.02518570 0.00308000 0.00188529 0.00473872 0.00133206 0.00628250 0.00639208 0.01472547 0.00956185 0.00852655 0.00092212 0.00700935 0.09204267 0.02556427 0.00152328 
0.00834405 0.02541206 0.00311571 0.00186452 0.00473884 0.00132803 0.00625913 0.00629562 0.01482154 0.00967394 0.00834610 0.00092010 0.00699620 0.09238582 0.02587314 0.00151762 
0.00824711 0.02560914 0.00315168 0.00184338 0.00473389 0.00132404 0.00623632 0.00619517 0.01492579 0.00977774 0.00819134 0.00091934 0.00699779 0.09261007 0.02614753 0.00150965 
0.00815324 0.02577551 0.00318762 0.00182189 0.00472405 0.00132002 0.00621404 0.00609128 0.01503754 0.00987294 0.00806266 0.00091984 0.00701457 0.09271631 0.02638666 0.00149941 
0.00806299 0.02590984 0.00322324 0.00180012 0.00470958 0.00131591 0.00619223 0.00598452 0.01515615 0.00995928 0.00796026 0.00092159 0.00704689 0.09270618 0.02658993 0.00148698 
0.00797692 0.02601096 0.00325828 0.00177811 0.00469076 0.00131167 0.00617087 0.00587546 0.01528108 0.01003651 0.00788422 0.00092460 0.00709505 0.09258209 0.02675697 0.00147246 
0.00789560 0.02607784 0.00329246 0.00175590 0.00466791 0.00130724 0.00614992 0.00576470 0.01541190 0.01010439 0.00783445 0.00092886 0.00715929 0.09234719 0.02688761 0.00145594 
0.00781962 0.02610960 0.00332551 0.00173356 0.00464143 0.00130259 0.00612937 0.00565283 0.01554824 0.01016272 0.00781072 0.00093434 0.00723975 0.09200538 0.02698188 0.00143757 
0.00774954 0.02610550 0.00335719 0.00171112 0.00461172 0.00129767 0.00610919 0.00554046 0.01568984 0.01021132 0.00781266 0.00094103 0.00733651 0.09156127 0.02704004 0.00141746 
0.00768592 0.02606498 0.00338724 0.00168866 0.00457924 0.00129244 0.00608938 0.00542820 0.01583650 0.01025005 0.00783975 0.00094890 0.00744956 0.09102014 0.02706256 0.00139579 
0.00762933 0.02598765 0.00341545 0.00166621 0.00454446 0.00128689 0.00606992 0.00531664 0.01598811 0.01027877 0.00789137 0.00095792 0.00757882 0.09038796 0.02705012 0.00137271 
0.00758032 0.02587329 0.00344158 0.00164385 0.00450789 0.00128098 0.00605083 0.00520639 0.01614466 0.01029739 0.00796675 0.00096804 0.00772414 0.08967129 0.02700358 0.00134841 
0.00753943 0.02572186 0.00346544 0.00162164 0.00447006 0.00127471 0.00603210 0.00509802 0.01630618 0.01030585 0.00806500 0.00097923 0.00788529 0.08887729 0.02692402 0.00132308 
0.00750717 0.02553349 0.00348685 0.00159963 0.00443152 0.00126805 0.00601375 0.00499211 0.01647277 0.01030411 0.00818514 0.00099143 0.00806194 0.08801363 0.02681272 0.00129692 
0.00748404 0.02530850 0.00350564 0.00157789 0.00439283 0.00126101 0.00599579 0.00488923 0.01664461 0.01029218 0.00832606 0.00100459 0.00825371 0.08708847 0.02667112 0.00127015 
0.00747052 0.02504740 0.00352167 0.00155649 0.00435457 0.00125358 0.00597825 0.00478990 0.01682191 0.01027010 0.00848658 0.00101866 0.00846013 0.08611041 0.02650087 0.00124299 
0.00746705 0.02475086 0.00353480 0.00153550 0.00431731 0.00124579 0.00596115 0.00469466 0.01700493 0.01023792 0.00866542 0.00103357 0.00868066 0.08508840 0.02630374 0.00121568 
0.00747405 0.02441976 0.00354494 0.00151499 0.00428164 0.00123764 0.00594453 0.00460399 0.01719396 0.01019576 0.00886125 0.00104926 0.00891470 0.08403172 0.02608169 0.00118844 
0.00749192 0.02405512 0.00355201 0.00149503 0.00424813 0.00122916 0.00592841 0.00451835 0.01738931 0.01014374 0.00907264 0.00106565 0.00916156 0.08294988 0.02583680 0.00116152 
0.00752099 0.02365818 0.00355594 0.00147570 0.00421734 0.00122038 0.00591283 0.00443819 0.01759132 0.01008206 0.00929813 0.00108268 0.00942049 0.08185258 0.02557129 0.00113517 
0.00756158 0.02323031 0.00355670 0.00145708 0.00418983 0.00121134 0.00589783 0.00436390 0.01780032 0.01001090 0.00953621 0.00110027 0.00969068 0.08074962 0.02528746 0.00110962 
0.00761397 0.02277308 0.00355428 0.00143924 0.00416614 0.00120208 0.00588345 0.00429586 0.01801662 0.00993052 0.00978532 0.00111834 0.00997126 0.07965088 0.02498775 0.00108513 
0.00767837 0.02228821 0.00354870 0.00142227 0.00414679 0.00119265 0.00586972 0.00423438 0.01824056 0.00984119 0.01004389 0.00113681 0.01026129 0.07856617 0.02467465 0.00106193 
0.00775498 0.02177755 0.00353998 0.00140623 0.00413225 0.00118311 0.00585667 0.00417977 0.01847240 0.00974323 0.01031033 0.00115560 0.01055980 0.07750523 0.02435072 0.00104027 
0.00784391 0.02124314 0.00352820 0.00139122 0.00412301 0.00117352 0.00584435 0.00413227 0.01871240 0.00963699 0.01058304 0.00117462 0.01086575 0.07647764 0.02401856 0.00102038 
0.00794527 0.02068712 0.00351342 0.00137732 0.00411948 0.00116394 0.00583279 0.00409209 0.01896076 0.00952283 0.01086043 0.00119379 0.01117805 0.07549274 0.02368079 0.00100249 
0.00805907 0.02011178 0.00349577 0.00136460 0.00412206 0.00115445 0.00582201 0.00405940 0.01921764 0.00940118 0.01114093 0.00121302 0.01149560 0.07455957 0.02334007 0.00098682 
0.00818530 0.01951953 0.00347536 0.00135314 0.00413111 0.00114513 0.00581204 0.00403431 0.01948311 0.00927247 0.01142297 0.00123223 0.01181724 0.07368680 0.02299902 0.00097358 
0.00832389 0.01891287 0.00345236 0.00134303 0.00414693 0.00113605 0.00580291 0.00401690 0.01975719 0.00913718 0.01170504 0.00125133 0.01214177 0.07288267 0.02266024 0.00096296 
0.00847470 0.01829443 0.00342693 0.00133433 0.00416979 0.00112731 0.00579462 0.00400720 0.02003983 0.00899581 0.01198565 0.00127024 0.01246799 0.07215495 0.02232629 0.00095515 
0.00863755 0.01766690 0.00339926 0.00132714 0.00419992 0.00111898 0.00578720 0.00400519 0.02033086 0.00884889 0.01226336 0.00128886 0.01279467 0.07151084 0.02199967 0.00095033 
0.00881220 0.01703306 0.00336957 0.00132151 0.00423748 0.00111115 0.00578063 0.00401083 0.02063007 0.00869697 0.01253680 0.00130712 0.01312055 0.07095694 0.02168280 0.00094864 
0.00899836 0.01639575 0.00333808 0.00131752 0.00428260 0.00110392 0.00577492 0.00402399 0.02093710 0.00854061 0.01280465 0.00132493 0.01344438 0.07049921 0.02137800 0.00095022 
0.00919566 0.01575785 0.00330504 0.00131524 0.00433534 0.00109738 0.00577006 0.00404454 0.02125153 0.00838043 0.01306566 0.00134222 0.01376490 0.07014291 0.02108749 0.00095520 
0.00940371 0.01512229 0.00327072 0.00131473 0.00439572 0.00109161 0.00576603 0.00407228 0.02157283 0.00821704 0.01331866 0.00135891 0.01408084 0.06989256 0.02081336 0.00096368 
0.00962204 0.01449202 0.00323538 0.00131605 0.00446370 0.00108672 0.00576281 0.00410699 0.02190036 0.00805106 0.01356256 0.00137492 0.01439094 0.06975192 0.02055754 0.00097574 
0.00985014 0.01387000 0.00319932 0.00131926 0.00453918 0.00108278 0.00576036 0.00414839 0.02223338 0.00788315 0.01379634 0.00139018 0.01469398 0.06972393 0.02032185 0.00099143 
0.01008744 0.01325919 0.00316282 0.00132439 0.00462202 0.00107989 0.00575863 0.00419618 0.02257105 0.00771396 0.01401909 0.00140462 0.01498871 0.06981072 0.02010790 0.00101080 
0.01033333 0.01266253 0.00312620 0.00133149 0.00471202 0.00107813 0.00575759 0.00425000 0.02291243 0.00754417 0.01422997 0.00141819 0.01527394 0.07001358 0.01991717 0.00103386 
0.01058714 0.01208293 0.00308976 0.00134060 0.00480893 0.00107758 0.00575718 0.00430949 0.02325646 0.00737446 0.01442827 0.00143081 0.01554849 0.07033293 0.01975092 0.00106061 
0.01084815 0.01152326 0.00305383 0.00135175 0.00491244 0.00107832 0.00575733 0.00437423 0.02360202 0.00720549 0.01461333 0.00144244 0.01581123 0.07076836 0.01961024 0.00109102 
0.01111562 0.01098634 0.00301872 0.00136496 0.00502220 0.00108043 0.00575798 0.00444380 0.02394787 0.00703795 0.01478462 0.00145302 0.01606105 0.07131857 0.01949602 0.00112504 
0.01138876 0.01047490 0.00298476 0.00138024 0.00513781 0.00108396 0.00575904 0.00451772 0.02429269 0.00687253 0.01494169 0.00146250 0.01629689 0.07198143 0.01940894 0.00116259 
0.01166672 0.00999162 0.00295227 0.00139759 0.00525882 0.00108899 0.00576044 0.00459552 0.02463510 0.00670990 0.01508421 0.00147085 0.01651775 0.07275398 0.01934947 0.00120359 
0.01194865 0.00953904 0.00292156 0.00141702 0.00538474 0.00109557 0.00576209 0.00467670 0.02497364 0.00655073 0.01521192 0.00147804 0.01672267 0.07363241 0.01931790 0.00124791 
0.01223364 0.00911964 0.00289295 0.00143850 0.00551504 0.00110375 0.00576390 0.00476075 0.02530679 0.00639568 0.01532468 0.00148402 0.01691074 0.07461215 0.01931428 0.00129541 
0.01252078 0.00873575 0.00286675 0.00146203 0.00564915 0.00111356 0.00576578 0.00484712 0.02563296 0.00624539 0.01542241 0.00148879 0.01708114 0.07568786 0.01933846 0.00134594 
0.01280911 0.00838959 0.00284327 0.00148756 0.00578647 0.00112504 0.00576762 0.00493530 0.02595055 0.00610051 0.01550516 0.00149231 0.01723310 0.07685347 0.01939010 0.00139931 
0.01309768 0.00808322 0.00282278 0.00151506 0.00592638 0.00113822 0.00576935 0.00502474 0.02625791 0.00596163 0.01557305 0.00149458 0.01736591 0.07810224 0.01946864 0.00145533 
0.01338549 0.00781856 0.00280558 0.00154448 0.00606821 0.00115310 0.00577085 0.00511490 0.02655336 0.00582937 0.01562627 0.00149559 0.01747894 0.07942680 0.01957335 0.00151378 
0.01367157 0.00759737 0.00279192 0.00157575 0.00621128 0.00116970 0.00577203 0.00520524 0.02683525 0.00570427 0.01566512 0.00149535 0.01757165 0.08081918 0.01970329 0.00157443 
0.01395492 0.00742125 0.00278206 0.00160881 0.00635490 0.00118801 0.00577279 0.00529524 0.02710190 0.00558690 0.01568995 0.00149385 0.01764355 0.08227090 0.01985733 0.00163703 
0.01423453 0.00729161 0.00277624 0.00164357 0.00649836 0.00120802 0.00577305 0.00538438 0.02735165 0.00547775 0.01570119 0.00149112 0.01769427 0.08377303 0.02003421 0.00170131 
0.01450942 0.00720966 0.00277467 0.00167996 0.00664094 0.00122970 0.00577272 0.00547215 0.02758289 0.00537733 0.01569933 0.00148717 0.01772348 0.08531620 0.02023248 0.00176700 
0.01477860 0.00717647 0.00277755 0.00171786 0.00678192 0.00125302 0.00577171 0.00555806 0.02779403 0.00528607 0.01568492 0.00148202 0.01773097 0.08689074 0.02045053 0.00183382 
0.01504109 0.00719285 0.00278506 0.00175718 0.00692057 0.00127794 0.00576995 0.00564165 0.02798355 0.00520440 0.01565858 0.00147571 0.01771661 0.08848669 0.02068665 0.00190146 
0.01529595 0.00725946 0.00279736 0.00179779 0.00705618 0.00130441 0.00576736 0.00572249 0.02814998 0.00513268 0.01562096 0.00146827 0.01768033 0.09009392 0.02093898 0.00196964 
0.01554224 0.00737672 0.00281457 0.00183957 0.00718805 0.00133236 0.00576389 0.00580015 0.02829195 0.00507127 0.01557275 0.00145975 0.01762219 0.09170214 0.02120556 0.00203803 
0.01577906 0.00754485 0.00283682 0.00188239 0.00731547 0.00136173 0.00575949 0.00587426 0.02840818 0.00502046 0.01551467 0.00145019 0.01754232 0.09330104 0.02148435 0.00210633 
0.01600553 0.00776388 0.00286420 0.00192611 0.00743779 0.00139242 0.00575410 0.00594447 0.02849746 0.00498051 0.01544750 0.00143965 0.01744092 0.09488031 0.02177320 0.00217421 
0.01622083 0.00803359 0.00289675 0.00197057 0.00755434 0.00142436 0.00574771 0.00601046 0.02855872 0.00495164 0.01537201 0.00142819 0.01731832 0.09642973 0.02206992 0.00224138 
0.01642414 0.00835357 0.00293452 0.00201563 0.00766452 0.00145743 0.00574028 0.00607198 0.02859102 0.00493400 0.01528898 0.00141586 0.01717490 0.09793925 0.02237228 0.00230752 
0.01661474 0.00872320 0.00297752 0.00206113 0.00776773 0.00149154 0.00573181 0.00612877 0.02859353 0.00492774 0.01519923 0.00140273 0.01701115 0.09939905 0.02267800 0.00237231 
0.01679190 0.00914162 0.00302573 0.00210690 0.00786342 0.00152657 0.00572230 0.00618067 0.02856557 0.00493292 0.01510357 0.00138889 0.01682764 0.10079959 0.02298480 0.00243545 
0.01695499 0.00960780 0.00307912 0.00215278 0.00795108 0.00156240 0.00571177 0.00622751 0.02850661 0.00494958 0.01500278 0.00137439 0.01662502 0.10213171 0.02329039 0.00249665 
0.01710342 0.01012047 0.00313762 0.00219859 0.00803025 0.00159890 0.00570025 0.00626922 0.02841626 0.00497772 0.01489768 0.00135933 0.01640402 0.10338667 0.02359252 0.00255563 
0.01723664 0.01067817 0.00320112 0.00224415 0.00810051 0.00163593 0.00568777 0.00630573 0.02829430 0.00501726 0.01478902 0.00134378 0.01616546 0.10455621 0.02388894 0.00261210 
0.01735420 0.01127926 0.00326952 0.00228930 0.00816148 0.00167336 0.00567439 0.00633705 0.02814069 0.00506812 0.01467758 0.00132783 0.01591022 0.10563258 0.02417748 0.00266580 
0.01745568 0.01192186 0.00334267 0.00233386 0.00821286 0.00171104 0.00566017 0.00636322 0.02795552 0.00513014 0.01456408 0.00131156 0.01563927 0.10660865 0.02445601 0.00271649 
0.01754076 0.01260397 0.00342039 0.00237764 0.00825438 0.00174883 0.00564520 0.00638434 0.02773908 0.00520312 0.01444922 0.00129506 0.01535363 0.10747790 0.02472249 0.00276392 
0.01760918 0.01332335 0.00350251 0.00242049 0.00828584 0.00178657 0.00562956 0.00640054 0.02749181 0.00528684 0.01433367 0.00127843 0.01505441 0.10823447 0.02497496 0.00280789 
0.01766073 0.01407764 0.00358879 0.00246221 0.00830710 0.00182411 0.00561335 0.00641203 0.02721434 0.00538101 0.01421806 0.00126175 0.01474277 0.10887321 0.02521158 0.00284818 
0.01769531 0.01486430 0.00367899 0.00250265 0.00831807 0.00186130 0.00559668 0.00641904 0.02690744 0.00548531 0.01410297 0.00124512 0.01441991 0.10938970 0.02543059 0.00288462 
0.01771286 0.01568063 0.00377287 0.00254163 0.00831874 0.00189798 0.00557967 0.00642186 0.02657206 0.00559940 0.01398894 0.00122862 0.01408711 0.10978028 0.02563039 0.00291705 
0.01771344 0.01652381 0.00387014 0.00257900 0.00830914 0.00193400 0.00556246 0.00642081 0.02620932 0.00572287 0.01387646 0.00121235 0.01374568 0.11004206 0.02580948 0.00294533 
0.01769713 0.01739089 0.00397049 0.00261460 0.00828938 0.00196921 0.00554516 0.00641626 0.02582048 0.00585531 0.01376598 0.00119639 0.01339697 0.11017292 0.02596652 0.00296934 
0.01766414 0.01827880 0.00407361 0.00264828 0.00825962 0.00200345 0.00552794 0.00640863 0.02540694 0.00599623 0.01365787 0.00118083 0.01304240 0.11017156 0.02610031 0.00298897 
0.01761473 0.01918436 0.00417916 0.00267991 0.00822010 0.00203659 0.00551093 0.00639836 0.02497027 0.00614517 0.01355246 0.00116577 0.01268337 0.11003744 0.02620982 0.00300416 
0.01754923 0.02010432 0.00428680 0.00270935 0.00817108 0.00206847 0.00549429 0.00638595 0.02451216 0.00630159 0.01345005 0.00115127 0.01232133 0.10977083 0.02629414 0.00301486 
0.01746805 0.02103535 0.00439616 0.00273647 0.00811292 0.00209896 0.00547816 0.00637191 0.02403441 0.00646495 0.01335085 0.00113743 0.01195777 0.10937275 0.02635257 0.00302103 
0.01737169 0.02197405 0.00450688 0.00276117 0.00804601 0.00212793 0.00546271 0.00635678 0.02353894 0.00663470 0.01325502 0.00112432 0.01159416 0.10884501 0.02638452 0.00302266 
0.01726070 0.02291697 0.00461856 0.00278333 0.00797081 0.00215524 0.00544808 0.00634115 0.02302779 0.00681023 0.01316268 0.00111201 0.01123198 0.10819014 0.02638962 0.00301977 
0.01713571 0.02386065 0.00473081 0.00280288 0.00788783 0.00218079 0.00543442 0.00632561 0.02250306 0.00699096 0.01307388 0.00110057 0.01087274 0.10741138 0.02636762 0.00301240 
0.01699740 0.02480159 0.00484324 0.00281973 0.00779760 0.00220445 0.00542189 0.00631077 0.02196695 0.00717627 0.01298864 0.00109006 0.01051791 0.10651264 0.02631845 0.00300061 
0.01684652 0.02573632 0.00495545 0.00283381 0.00770074 0.00222613 0.00541062 0.00629726 0.02142171 0.00736553 0.01290689 0.00108054 0.01016897 0.10549851 0.02624221 0.00298447 
0.01668390 0.02666135 0.00506702 0.00284506 0.00759787 0.00224573 0.00540076 0.00628573 0.02086965 0.00755812 0.01282855 0.00107208 0.00982737 0.10437415 0.02613914 0.00296409 
0.01651040 0.02757324 0.00517756 0.00285345 0.00748967 0.00226317 0.00539242 0.00627681 0.02031309 0.00775339 0.01275346 0.00106470 0.00949455 0.10314531 0.02600965 0.00293959 
0.01632695 0.02846860 0.00528666 0.00285894 0.00737684 0.00227837 0.00538574 0.00627117 0.01975441 0.00795072 0.01268145 0.00105845 0.00917189 0.10181824 0.02585428 0.00291110 
0.01613450 0.02934409 0.00539392 0.00286152 0.00726012 0.00229127 0.00538081 0.00626944 0.01919596 0.00814947 0.01261228 0.00105338 0.00886075 0.10039966 0.02567373 0.00287878 
0.01593406 0.03019645 0.00549893 0.00286118 0.00714027 0.00230182 0.00537774 0.00627226 0.01864011 0.00834902 0.01254569 0.00104950 0.00856247 0.09889672 0.02546881 0.00284281 
0.01572670 0.03102252 0.00560132 0.00285794 0.00701805 0.00230996 0.00537661 0.00628027 0.01808919 0.00854875 0.01248138 0.00104683 0.00827829 0.09731693 0.02524049 0.00280337 
0.01551348 0.03181924 0.00570070 0.00285182 0.00689425 0.00231569 0.00537749 0.00629407 0.01754548 0.00874804 0.01241901 0.00104540 0.00800943 0.09566810 0.02498983 0.00276066 
0.01529551 0.03258367 0.00579669 0.00284286 0.00676966 0.00231896 0.00538045 0.00631425 0.01701124 0.00894631 0.01235823 0.00104520 0.00775704 0.09395831 0.02471801 0.00271489 
0.01507393 0.03331301 0.00588894 0.00283110 0.00664509 0.00231979 0.00538551 0.00634139 0.01648864 0.00914299 0.01229867 0.00104624 0.00752221 0.09219583 0.02442631 0.00266630 
0.01484987 0.03400460 0.00597710 0.00281660 0.00652132 0.00231816 0.00539272 0.00637602 0.01597978 0.00933750 0.01223992 0.00104851 0.00730594 0.09038907 0.02411610 0.00261512 
0.01462449 0.03465596 0.00606084 0.00279945 0.00639913 0.00231411 0.00540207 0.00641865 0.01548666 0.00952933 0.01218158 0.00105198 0.00710916 0.08854655 0.02378882 0.00256158 
0.01439895 0.03526475 0.00613985 0.00277973 0.00627929 0.00230765 0.00541356 0.00646974 0.01501118 0.00971795 0.01212323 0.00105665 0.00693274 0.08667679 0.02344601 0.00250595 
0.01417440 0.03582886 0.00621383 0.00275753 0.00616255 0.00229883 0.00542717 0.00652973 0.01455512 0.00990287 0.01206445 0.00106247 0.00677742 0.08478831 0.02308922 0.00244847 
0.01395200 0.03634633 0.00628250 0.00273297 0.00604963 0.00228769 0.00544287 0.00659899 0.01412014 0.01008364 0.01200483 0.00106942 0.00664391 0.08288955 0.02272010 0.00238940 
0.01373287 0.03681542 0.00634560 0.00270615 0.00594123 0.00227430 0.00546058 0.00667786 0.01370776 0.01025983 0.01194395 0.00107744 0.00653276 0.08098883 0.02234029 0.00232901 
0.01351813 0.03723463 0.00640291 0.00267721 0.00583800 0.00225873 0.00548024 0.00676662 0.01331935 0.01043103 0.01188141 0.00108648 0.00644448 0.07909429 0.02195150 0.00226756 
0.01330886 0.03760263 0.00645420 0.00264628 0.00574057 0.00224106 0.00550177 0.00686551 0.01295613 0.01059686 0.01181683 0.00109648 0.00637946 0.07721384 0.02155543 0.00220531 
0.01310613 0.03791837 0.00649930 0.00261350 0.00564950 0.00222138 0.00552506 0.00697468 0.01261916 0.01075700 0.01174982 0.00110739 0.00633797 0.07535517 0.02115379 0.00214252 
0.01291095 0.03818099 0.00653804 0.00257903 0.00556533 0.00219980 0.00554998 0.00709427 0.01230935 0.01091112 0.01168006 0.00111913 0.00632021 0.07352562 0.02074829 0.00207944 
0.01272429 0.03838990 0.00657028 0.00254302 0.00548853 0.00217642 0.00557642 0.00722430 0.01202740 0.01105894 0.01160722 0.00113162 0.00632626 0.07173221 0.02034062 0.00201633 
0.01254709 0.03854473 0.00659591 0.00250563 0.00541951 0.00215136 0.00560422 0.00736479 0.01177388 0.01120023 0.01153102 0.00114478 0.00635609 0.06998160 0.01993245 0.00195342 
0.01238021 0.03864536 0.00661485 0.00246703 0.00535865 0.00212474 0.00563322 0.00751564 0.01154917 0.01133477 0.01145121 0.00115852 0.00640957 0.06828004 0.01952544 0.00189096 
0.01222448 0.03869193 0.00662705 0.00242738 0.00530623 0.00209669 0.00566328 0.00767671 0.01135346 0.01146237 0.01136757 0.00117276 0.00648648 0.06663335 0.01912117 0.00182918 
0.01208064 0.03868480 0.00663247 0.00238687 0.00526249 0.00206735 0.00569420 0.00784780 0.01118679 0.01158288 0.01127994 0.00118740 0.00658647 0.06504689 0.01872121 0.00176829 
0.01194938 0.03862458 0.00663111 0.00234565 0.00522760 0.00203687 0.00572580 0.00802864 0.01104901 0.01169617 0.01118819 0.00120234 0.00670910 0.06352556 0.01832706 0.00170851 
0.01183132 0.03851213 0.00662301 0.00230390 0.00520166 0.00200537 0.00575790 0.00821887 0.01093981 0.01180215 0.01109223 0.00121748 0.00685384 0.06207379 0.01794014 0.00165002 
0.01172699 0.03834855 0.00660822 0.00226181 0.00518471 0.00197303 0.00579031 0.00841810 0.01085870 0.01190075 0.01099204 0.00123272 0.00702004 0.06069550 0.01756184 0.00159302 
0.01163688 0.03813516 0.00658682 0.00221954 0.00517670 0.00193997 0.00582282 0.00862585 0.01080505 0.01199193 0.01088763 0.00124796 0.00720696 0.05939410 0.01719346 0.00153768 
0.01156136 0.03787352 0.00655893 0.00217725 0.00517754 0.00190637 0.00585523 0.00884159 0.01077806 0.01207565 0.01077908 0.00126308 0.00741379 0.05817251 0.01683621 0.00148416 
0.01150074 0.03756539 0.00652469 0.00213513 0.00518705 0.00187237 0.00588736 0.00906471 0.01077679 0.01215194 0.01066650 0.00127800 0.00763960 0.05703315 0.01649123 0.00143260 
0.01145525 0.03721277 0.00648427 0.00209334 0.00520500 0.00183812 0.00591899 0.00929456 0.01080016 0.01222080 0.01055008 0.00129259 0.00788339 0.05597791 0.01615959 0.00138314 
0.01142502 0.03681785 0.00643786 0.00205203 0.00523106 0.00180379 0.00594993 0.00953044 0.01084697 0.01228228 0.01043003 0.00130676 0.00814409 0.05500821 0.01584224 0.00133588 
0.01141012 0.03638300 0.00638568 0.00201137 0.00526488 0.00176951 0.00598000 0.00977155 0.01091588 0.01233644 0.01030664 0.00132041 0.00842053 0.05412498 0.01554007 0.00129093 
0.01141050 0.03591080 0.00632798 0.00197150 0.00530601 0.00173545 0.00600900 0.01001710 0.01100546 0.01238334 0.01018024 0.00133343 0.00871150 0.05332867 0.01525386 0.00124838 
0.01142607 0.03540398 0.00626503 0.00193257 0.00535397 0.00170175 0.00603677 0.01026620 0.01111419 0.01242306 0.01005121 0.00134574 0.00901571 0.05261928 0.01498430 0.00120829 
0.01145663 0.03486543 0.00619713 0.00189472 0.00540821 0.00166854 0.00606313 0.01051795 0.01124043 0.01245571 0.00991999 0.00135724 0.00933181 0.05199636 0.01473199 0.00117072 
0.01150189 0.03429819 0.00612459 0.00185808 0.00546812 0.00163598 0.00608791 0.01077139 0.01138252 0.01248137 0.00978705 0.00136784 0.00965841 0.05145905 0.01449744 0.00113571 
0.01156150 0.03370543 0.00604775 0.00182277 0.00553305 0.00160420 0.00611098 0.01102554 0.01153870 0.01250016 0.00965292 0.00137746 0.00999408 0.05100610 0.01428105 0.00110328 
0.01163503 0.03309045 0.00596698 0.00178892 0.00560231 0.00157332 0.00613219 0.01127938 0.01170718 0.01251219 0.00951815 0.00138602 0.01033734 0.05063585 0.01408316 0.00107345 
0.01172197 0.03245662 0.00588264 0.00175662 0.00567516 0.00154347 0.00615142 0.01153186 0.01188615 0.01251756 0.00938336 0.00139346 0.01068668 0.05034634 0.01390398 0.00104622 
0.01182173 0.03180742 0.00579514 0.00172599 0.00575084 0.00151477 0.00616856 0.01178193 0.01207376 0.01251640 0.00924918 0.00139970 0.01104059 0.05013526 0.01374366 0.00102156 
0.01193368 0.03114639 0.00570489 0.00169710 0.00582855 0.00148731 0.00618352 0.01202851 0.01226816 0.01250881 0.00911628 0.00140469 0.01139753 0.05000000 0.01360226 0.00099944 
0.01205708 0.03047713 0.00561232 0.00167005 0.00590746 0.00146122 0.00619620 0.01227050 0.01246753 0.01249490 0.00898535 0.00140838 0.01175595 0.04993770 0.01347974 0.00097983 
0.01219118 0.02980327 0.00551786 0.00164491 0.00598674 0.00143658 0.00620654 0.01250683 0.01267005 0.01247479 0.00885711 0.00141073 0.01211430 0.04994525 0.01337599 0.00096266 
0.01233514 0.02912847 0.00542197 0.00162174 0.00606553 0.00141348 0.00621449 0.01273641 0.01287394 0.01244856 0.00873231 0.00141170 0.01247107 0.05001934 0.01329082 0.00094788 
0.01248810 0.02845639 0.00532511 0.00160060 0.00614298 0.00139199 0.00622002 0.01295815 0.01307747 0.01241631 0.00861168 0.00141127 0.01282472 0.05015646 0.01322397 0.00093539 
0.01264912 0.02779066 0.00522774 0.00158154 0.00621823 0.00137219 0.00622311 0.01317100 0.01327897 0.01237815 0.00849598 0.00140942 0.01317376 0.05035297 0.01317511 0.00092512 
0.01281725 0.02713491 0.00513034 0.00156459 0.00629044 0.00135415 0.00622374 0.01337391 0.01347685 0.01233414 0.00838598 0.00140614 0.01351673 0.05060509 0.01314384 0.00091698 
0.01299150 0.02649272 0.00503339 0.00154979 0.00635876 0.00133791 0.00622193 0.01356587 0.01366959 0.01228436 0.00828242 0.00140145 0.01385221 0.05090895 0.01312968 0.00091084 
0.01317084 0.02586758 0.00493736 0.00153716 0.00642238 0.00132351 0.00621770 0.01374591 0.01385577 0.01222888 0.00818605 0.00139533 0.01417881 0.05126060 0.01313211 0.00090661 
0.01335425 0.02526294 0.00484274 0.00152670 0.00648051 0.00131101 0.00621111 0.01391307 0.01403407 0.01216776 0.00809761 0.00138783 0.01449521 0.05165605 0.01315056 0.00090416 
0.01354067 0.02468215 0.00475000 0.00151843 0.00653238 0.00130041 0.00620219 0.01406645 0.01420328 0.01210107 0.00801780 0.00137896 0.01480014 0.05209129 0.01318439 0.00090337 
0.01372903 0.02412843 0.00465962 0.00151235 0.00657728 0.00129176 0.00619102 0.01420522 0.01436230 0.01202883 0.00794731 0.00136876 0.01509238 0.05256231 0.01323293 0.00090412 
0.01391828 0.02360492 0.00457205 0.00150843 0.00661452 0.00128504 0.00617768 0.01432858 0.01451019 0.01195111 0.00788679 0.00135729 0.01537081 0.05306511 0.01329546 0.00090626 
0.01410737 0.02311460 0.00448776 0.00150667 0.00664348 0.00128027 0.00616226 0.01443579 0.01464609 0.01186794 0.00783687 0.00134459 0.01563436 0.05359576 0.01337121 0.00090966 
0.01429524 0.02266032 0.00440720 0.00150704 0.00666358 0.00127745 0.00614487 0.01452619 0.01476933 0.01177935 0.00779812 0.00133073 0.01588203 0.05415036 0.01345940 0.00091419 
0.01448088 0.02224475 0.00433079 0.00150952 0.00667431 0.00127656 0.00612561 0.01459918 0.01487933 0.01168539 0.00777107 0.00131579 0.01611294 0.05472510 0.01355920 0.00091970 
0.01466327 0.02187042 0.00425896 0.00151405 0.00667521 0.00127758 0.00610463 0.01465424 0.01497568 0.01158607 0.00775620 0.00129984 0.01632627 0.05531629 0.01366977 0.00092606 
0.01484145 0.02153967 0.00419211 0.00152060 0.00666590 0.00128049 0.00608203 0.01469092 0.01505813 0.01148145 0.00775393 0.00128297 0.01652129 0.05592030 0.01379023 0.00093312 
0.01501449 0.02125465 0.00413062 0.00152912 0.00664606 0.00128525 0.00605798 0.01470886 0.01512654 0.01137156 0.00776462 0.00126528 0.01669736 0.05653366 0.01391969 0.00094076 
0.01518148 0.02101733 0.00407486 0.00153956 0.00661547 0.00129183 0.00603261 0.01470778 0.01518093 0.01125644 0.00778858 0.00124687 0.01685394 0.05715300 0.01405726 0.00094882 
0.01534158 0.02082945 0.00402516 0.00155185 0.00657396 0.00130018 0.00600607 0.01468748 0.01522146 0.01113614 0.00782602 0.00122784 0.01699060 0.05777512 0.01420201 0.00095719 
0.01549400 0.02069257 0.00398185 0.00156594 0.00652145 0.00131024 0.00597852 0.01464785 0.01524845 0.01101071 0.00787711 0.00120831 0.01710697 0.05839692 0.01435303 0.00096573 
0.01563799 0.02060802 0.00394521 0.00158175 0.00645796 0.00132198 0.00595012 0.01458889 0.01526233 0.01088023 0.00794194 0.00118839 0.01720282 0.05901550 0.01450939 0.00097432 
0.01577288 0.02057691 0.00391551 0.00159922 0.00638358 0.00133532 0.00592103 0.01451065 0.01526368 0.01074478 0.00802051 0.00116822 0.01727797 0.05962807 0.01467016 0.00098283 
0.01589804 0.02060015 0.00389297 0.00161826 0.00629848 0.00135020 0.00589142 0.01441332 0.01525319 0.01060444 0.00811276 0.00114790 0.01733236 0.06023204 0.01483443 0.00099116 
0.01601293 0.02067839 0.00387782 0.00163880 0.00620292 0.00136656 0.00586145 0.01429714 0.01523170 0.01045933 0.00821855 0.00112757 0.01736604 0.06082494 0.01500128 0.00099920 
0.01611707 0.02081209 0.00387021 0.00166076 0.00609726 0.00138433 0.00583128 0.01416245 0.01520013 0.01030957 0.00833765 0.00110736 0.01737910 0.06140447 0.01516980 0.00100684 
0.01621005 0.02100147 0.00387028 0.00168406 0.00598192 0.00140342 0.00580107 0.01400971 0.01515953 0.01015530 0.00846975 0.00108740 0.01737178 0.06196849 0.01533909 0.00101400 
0.01629155 0.02124652 0.00387814 0.00170859 0.00585743 0.00142377 0.00577099 0.01383942 0.01511103 0.00999669 0.00861447 0.00106782 0.01734435 0.06251503 0.01550827 0.00102058 
0.01636131 0.02154701 0.00389387 0.00173429 0.00572439 0.00144530 0.00574120 0.01365220 0.01505586 0.00983392 0.00877137 0.00104876 0.01729721 0.06304223 0.01567647 0.00102652 
0.01641915 0.02190250 0.00391749 0.00176105 0.00558348 0.00146793 0.00571185 0.01344874 0.01499533 0.00966720 0.00893989 0.00103033 0.01723079 0.06354841 0.01584285 0.00103173 
0.01646497 0.02231232 0.00394901 0.00178879 0.00543544 0.00149157 0.00568308 0.01322981 0.01493080 0.00949677 0.00911943 0.00101268 0.01714564 0.06403202 0.01600657 0.00103616 
0.01649875 0.02277560 0.00398839 0.00181741 0.00528111 0.00151615 0.00565505 0.01299625 0.01486370 0.00932288 0.00930932 0.00099592 0.01704234 0.06449163 0.01616684 0.00103976 
0.01652054 0.02329126 0.00403556 0.00184681 0.00512139 0.00154158 0.00562790 0.01274897 0.01479551 0.00914580 0.00950880 0.00098019 0.01692157 0.06492597 0.01632288 0.00104248 
0.01653047 0.02385800 0.00409041 0.00187690 0.00495724 0.00156779 0.00560176 0.01248897 0.01472773 0.00896586 0.00971706 0.00096559 0.01678403 0.06533387 0.01647393 0.00104430 
0.01652875 0.02447436 0.00415279 0.00190758 0.00478967 0.00159468 0.00557677 0.01221729 0.01466189 0.00878337 0.00993323 0.00095225 0.01663050 0.06571427 0.01661927 0.00104518 
0.01651564 0.02513867 0.00422252 0.00193876 0.00461977 0.00162217 0.00555304 0.01193502 0.01459952 0.00859869 0.01015638 0.00094027 0.01646181 0.06606625 0.01675819 0.00104511 
0.01649151 0.02584910 0.00429939 0.00197033 0.00444865 0.00165019 0.00553070 0.01164332 0.01454216 0.00841221 0.01038555 0.00092975 0.01627881 0.06638895 0.01689005 0.00104408 
0.01645676 0.02660363 0.00438314 0.00200221 0.00427749 0.00167866 0.00550985 0.01134338 0.01449133 0.00822434 0.01061970 0.00092080 0.01608239 0.06668164 0.01701421 0.00104211 
0.01641187 0.02740009 0.00447349 0.00203428 0.00410747 0.00170749 0.00549060 0.01103644 0.01444853 0.00803550 0.01085778 0.00091351 0.01587349 0.06694365 0.01713007 0.00103919 
0.01635737 0.02823617 0.00457013 0.00206646 0.00393982 0.00173660 0.00547305 0.01072376 0.01441522 0.00784615 0.01109871 0.00090795 0.01565306 0.06717441 0.01723706 0.00103535 
0.01629385 0.02910942 0.00467270 0.00209865 0.00377579 0.00176592 0.00545728 0.01040662 0.01439280 0.00765677 0.01134136 0.00090420 0.01542205 0.06737342 0.01733466 0.00103062 
0.01622197 0.03001725 0.00478083 0.00213075 0.00361664 0.00179538 0.00544338 0.01008634 0.01438263 0.00746784 0.01158460 0.00090232 0.01518146 0.06754023 0.01742239 0.00102504 
0.01614241 0.03095697 0.00489412 0.00216266 0.00346363 0.00182489 0.00543143 0.00976422 0.01438598 0.00727988 0.01182730 0.00090238 0.01493226 0.06767449 0.01749978 0.00101864 
0.01605590 0.03192578 0.00501212 0.00219430 0.00331802 0.00185439 0.00542148 0.00944159 0.01440405 0.00709343 0.01206831 0.00090442 0.01467544 0.06777588 0.01756643 0.00101148 
0.01596321 0.03292079 0.00513438 0.00222556 0.00318105 0.00188381 0.00541361 0.00911976 0.01443796 0.00690903 0.01230648 0.00090847 0.01441198 0.06784414 0.01762195 0.00100363 
0.01586515 0.03393902 0.00526042 0.00225635 0.00305396 0.00191308 0.00540787 0.00880003 0.01448871 0.00672723 0.01254069 0.00091457 0.01414285 0.06787905 0.01766601 0.00099514 
0.01576253 0.03497744 0.00538975 0.00228659 0.00293794 0.00194213 0.00540430 0.00848369 0.01455721 0.00654860 0.01276982 0.00092273 0.01386900 0.06788047 0.01769832 0.00098609 
0.01565621 0.03603296 0.00552184 0.00231618 0.00283417 0.00197090 0.00540295 0.00817199 0.01464425 0.00637372 0.01299279 0.00093296 0.01359139 0.06784828 0.01771863 0.00097654 
0.01554704 0.03710243 0.00565616 0.00234503 0.00274376 0.00199932 0.00540384 0.00786617 0.01475050 0.00620316 0.01320856 0.00094526 0.01331091 0.06778241 0.01772671 0.00096660 
0.01543590 0.03818271 0.00579216 0.00237307 0.00266778 0.00202734 0.00540700 0.00756741 0.01487650 0.00603750 0.01341612 0.00095961 0.01302846 0.06768282 0.01772239 0.00095633 
0.01532366 0.03927061 0.00592930 0.00240021 0.00260724 0.00205490 0.00541245 0.00727686 0.01502266 0.00587732 0.01361451 0.00097599 0.01274490 0.06754954 0.01770556 0.00094584 
0.01521119 0.04036293 0.00606699 0.00242636 0.00256309 0.00208193 0.00542020 0.00699560 0.01518926 0.00572320 0.01380283 0.00099436 0.01246106 0.06738262 0.01767611 0.00093521 
0.01509935 0.04145652 0.00620467 0.00245146 0.00253619 0.00210840 0.00543026 0.00672469 0.01537642 0.00557570 0.01398024 0.00101468 0.01217773 0.06718217 0.01763400 0.00092453 
0.01498900 0.04254821 0.00634177 0.00247542 0.00252733 0.00213423 0.00544262 0.00646508 0.01558415 0.00543537 0.01414597 0.00103689 0.01189566 0.06694834 0.01757923 0.00091391 
0.01488097 0.04363488 0.00647772 0.00249818 0.00253722 0.00215939 0.00545727 0.00621770 0.01581229 0.00530276 0.01429932 0.00106093 0.01161557 0.06668134 0.01751183 0.00090345 
0.01477606 0.04471344 0.00661195 0.00251966 0.00256646 0.00218381 0.00547420 0.00598337 0.01606055 0.00517840 0.01443968 0.00108673 0.01133814 0.06638142 0.01743189 0.00089323 
0.01467506 0.04578086 0.00674389 0.00253981 0.00261556 0.00220747 0.00549338 0.00576286 0.01632849 0.00506278 0.01456651 0.00111420 0.01106402 0.06604889 0.01733953 0.00088337 
0.01457873 0.04683419 0.00687300 0.00255856 0.00268494 0.00223030 0.00551479 0.00555685 0.01661553 0.00495640 0.01467937 0.00114325 0.01079380 0.06568413 0.01723492 0.00087396 
0.01448776 0.04787053 0.00699873 0.00257586 0.00277488 0.00225226 0.00553838 0.00536594 0.01692096 0.00485971 0.01477792 0.00117378 0.01052803 0.06528758 0.01711827 0.00086509 
0.01440283 0.04888707 0.00712055 0.00259165 0.00288557 0.00227332 0.00556412 0.00519065 0.01724393 0.00477314 0.01486189 0.00120567 0.01026726 0.06485975 0.01698982 0.00085686 
0.01432457 0.04988111 0.00723795 0.00260588 0.00301709 0.00229343 0.00559194 0.00503140 0.01758345 0.00469709 0.01493113 0.00123882 0.01001195 0.06440123 0.01684986 0.00084936 
0.01425356 0.05085003 0.00735043 0.00261852 0.00316940 0.00231254 0.00562179 0.00488855 0.01793840 0.00463192 0.01498559 0.00127311 0.00976256 0.06391269 0.01669874 0.00084269 
0.01419033 0.05179134 0.00745754 0.00262952 0.00334233 0.00233063 0.00565361 0.00476234 0.01830756 0.00457796 0.01502530 0.00130839 0.00951950 0.06339487 0.01653682 0.00083692 
0.01413535 0.05270264 0.00755882 0.00263886 0.00353559 0.00234764 0.00568731 0.00465294 0.01868959 0.00453550 0.01505041 0.00134455 0.00928315 0.06284864 0.01636451 0.00083214 
0.01408905 0.05358169 0.00765386 0.00264650 0.00374879 0.00236356 0.00572283 0.00456043 0.01908301 0.00450479 0.01506117 0.00138143 0.00905386 0.06227493 0.01618228 0.00082843 
0.01405180 0.05442636 0.00774226 0.00265242 0.00398140 0.00237834 0.00576006 0.00448479 0.01948629 0.00448603 0.01505792 0.00141891 0.00883195 0.06167479 0.01599061 0.00082585 
0.01402389 0.05523465 0.00782366 0.00265660 0.00423278 0.00239194 0.00579891 0.00442592 0.01989779 0.00447939 0.01504111 0.00145682 0.00861773 0.06104937 0.01579003 0.00082446 
0.01400558 0.05600472 0.00789774 0.00265904 0.00450217 0.00240435 0.00583928 0.00438364 0.02031577 0.00448499 0.01501128 0.00149502 0.00841146 0.06039994 0.01558110 0.00082434 
0.01399707 0.05673486 0.00796420 0.00265972 0.00478870 0.00241552 0.00588105 0.00435768 0.02073844 0.00450290 0.01496905 0.00153336 0.00821341 0.05972787 0.01536445 0.00082553 
0.01399847 0.05742351 0.00802277 0.00265865 0.00509139 0.00242543 0.00592411 0.00434770 0.02116395 0.00453315 0.01491516 0.00157168 0.00802381 0.05903467 0.01514069 0.00082808 
0.01400985 0.05806927 0.00807324 0.00265583 0.00540914 0.00243405 0.00596832 0.00435326 0.02159040 0.00457570 0.01485041 0.00160984 0.00784288 0.05832194 0.01491050 0.00083203 
0.01403124 0.05867090 0.00811542 0.00265128 0.00574076 0.00244135 0.00601356 0.00437388 0.02201582 0.00463049 0.01477567 0.00164769 0.00767084 0.05759144 0.01467459 0.00083741 
0.01406258 0.05922730 0.00814916 0.00264501 0.00608496 0.00244732 0.00605968 0.00440899 0.02243825 0.00469740 0.01469191 0.00168506 0.00750790 0.05684503 0.01443369 0.00084424 
0.01410377 0.05973754 0.00817435 0.00263704 0.00644038 0.00245192 0.00610653 0.00445794 0.02285570 0.00477626 0.01460015 0.00172182 0.00735425 0.05608469 0.01418856 0.00085254 
0.01415464 0.06020084 0.00819093 0.00262742 0.00680553 0.00245514 0.00615395 0.00452007 0.02326616 0.00486686 0.01450147 0.00175781 0.00721010 0.05531254 0.01393999 0.00086232 
0.01421500 0.06061658 0.00819885 0.00261616 0.00717888 0.00245696 0.00620177 0.00459461 0.02366764 0.00496892 0.01439701 0.00179290 0.00707564 0.05453081 0.01368881 0.00087358 
0.01428457 0.06098429 0.00819814 0.00260332 0.00755883 0.00245736 0.00624984 0.00468077 0.02405816 0.00508215 0.01428795 0.00182694 0.00695106 0.05374185 0.01343584 0.00088631 
0.01436305 0.06130368 0.00818883 0.00258895 0.00794371 0.00245634 0.00629798 0.00477772 0.02443578 0.00520618 0.01417550 0.00185981 0.00683658 0.05294814 0.01318196 0.00090051 
0.01445007 0.06157459 0.00817102 0.00257308 0.00833179 0.00245387 0.00634600 0.00488457 0.02479858 0.00534061 0.01406091 0.00189137 0.00673240 0.05215225 0.01292803 0.00091614 
0.01454523 0.06179701 0.00814483 0.00255580 0.00872132 0.00244995 0.00639371 0.00500042 0.02514469 0.00548501 0.01394544 0.00192151 0.00663873 0.05135687 0.01267495 0.00093319 
0.01464810 0.06197111 0.00811042 0.00253715 0.00911050 0.00244458 0.00644094 0.00512432 0.02547232 0.00563890 0.01383038 0.00195011 0.00655580 0.05056479 0.01242364 0.00095160 
0.01475820 0.06209716 0.00806800 0.00251721 0.00949752 0.00243776 0.00648747 0.00525533 0.02577974 0.00580175 0.01371698 0.00197707 0.00648383 0.04977887 0.01217501 0.00097135 
0.01487502 0.06217561 0.00801780 0.00249606 0.00988053 0.00242947 0.00653313 0.00539247 0.02606528 0.00597301 0.01360652 0.00200229 0.00642306 0.04900209 0.01192999 0.00099237 
0.01499801 0.06220704 0.00796008 0.00247378 0.01025772 0.00241974 0.00657770 0.00553477 0.02632739 0.00615209 0.01350025 0.00202567 0.00637375 0.04823746 0.01168951 0.00101462 
0.01512661 0.06219214 0.00789515 0.00245044 0.01062726 0.00240856 0.00662099 0.00568124 0.02656460 0.00633837 0.01339938 0.00204715 0.00633613 0.04748807 0.01145452 0.00103802 
0.01526022 0.06213175 0.00782335 0.00242615 0.01098734 0.00239595 0.00666280 0.00583091 0.02677553 0.00653121 0.01330512 0.00206665 0.00631047 0.04675707 0.01122593 0.00106251 
0.01539824 0.06202683 0.00774503 0.00240099 0.01133618 0.00238192 0.00670293 0.00598281 0.02695895 0.00672993 0.01321859 0.00208410 0.00629705 0.04604763 0.01100469 0.00108802 
0.01554005 0.06187846 0.00766059 0.00237506 0.01167205 0.00236651 0.00674117 0.00613599 0.02711372 0.00693385 0.01314090 0.00209947 0.00629612 0.04536293 0.01079171 0.00111446 
0.01568499 0.06168783 0.00757043 0.00234847 0.01199326 0.00234972 0.00677735 0.00628952 0.02723884 0.00714224 0.01307307 0.00211271 0.00630795 0.04470618 0.01058790 0.00114175 
0.01583243 0.06145623 0.00747500 0.00232131 0.01229817 0.00233159 0.00681126 0.00644250 0.02733342 0.00735439 0.01301606 0.00212379 0.00633283 0.04408057 0.01039415 0.00116981 
0.01598172 0.06118505 0.00737475 0.00229371 0.01258523 0.00231216 0.00684272 0.00659405 0.02739672 0.00756955 0.01297076 0.00213269 0.00637102 0.04348926 0.01021134 0.00119853 
0.01613220 0.06087577 0.00727016 0.00226576 0.01285295 0.00229146 0.00687155 0.00674333 0.02742815 0.00778699 0.01293797 0.00213941 0.00642277 0.04293537 0.01004032 0.00122784 
0.01628322 0.06052997 0.00716172 0.00223758 0.01309993 0.00226954 0.00689757 0.00688955 0.02742725 0.00800594 0.01291840 0.00214395 0.00648834 0.04242196 0.00988190 0.00125762 
0.01643414 0.06014930 0.00704994 0.00220929 0.01332488 0.00224644 0.00692063 0.00703195 0.02739368 0.00822565 0.01291268 0.00214633 0.00656797 0.04195201 0.00973689 0.00128779 
0.01658431 0.05973548 0.00693533 0.00218101 0.01352659 0.00222223 0.00694057 0.00716982 0.02732729 0.00844538 0.01292132 0.00214657 0.00666188 0.04152841 0.00960603 0.00131823 
0.01673311 0.05929030 0.00681841 0.00215285 0.01370398 0.00219696 0.00695724 0.00730250 0.02722804 0.00866438 0.01294474 0.00214471 0.00677027 0.04115392 0.00949005 0.00134886 
0.01687992 0.05881559 0.00669972 0.00212494 0.01385608 0.00217070 0.00697052 0.00742940 0.02709605 0.00888191 0.01298325 0.00214079 0.00689331 0.04083118 0.00938961 0.00137956 
0.01702414 0.05831325 0.00657978 0.00209739 0.01398203 0.00214351 0.00698028 0.00754996 0.02693159 0.00909725 0.01303706 0.00213487 0.00703116 0.04056267 0.00930534 0.00141023 
0.01716520 0.05778521 0.00645912 0.00207032 0.01408113 0.00211549 0.00698643 0.00766369 0.02673506 0.00930970 0.01310624 0.00212702 0.00718392 0.04035070 0.00923782 0.00144078 
0.01730253 0.05723344 0.00633827 0.00204386 0.01415277 0.00208669 0.00698888 0.00777015 0.02650702 0.00951855 0.01319077 0.00211731 0.00735167 0.04019739 0.00918757 0.00147111 
0.01743559 0.05665994 0.00621776 0.00201812 0.01419653 0.00205722 0.00698755 0.00786898 0.02624814 0.00972315 0.01329052 0.00210582 0.00753445 0.04010466 0.00915505 0.00150111 
0.01756387 0.05606671 0.00609810 0.00199323 0.01421207 0.00202717 0.00698239 0.00795986 0.02595924 0.00992285 0.01340523 0.00209265 0.00773224 0.04007419 0.00914066 0.00153069 
0.01768688 0.05545578 0.00597980 0.00196929 0.01419925 0.00199662 0.00697337 0.00804254 0.02564129 0.01011704 0.01353454 0.00207789 0.00794499 0.04010744 0.00914473 0.00155975 
0.01780416 0.05482917 0.00586333 0.00194643 0.01415804 0.00196569 0.00696046 0.00811682 0.02529534 0.01030513 0.01367799 0.00206166 0.00817257 0.04020561 0.00916752 0.00158821 
0.01791527 0.05418890 0.00574919 0.00192475 0.01408856 0.00193447 0.00694368 0.00818258 0.02492260 0.01048656 0.01383498 0.00204406 0.00841482 0.04036962 0.00920923 0.00161598 
0.01801981 0.05353699 0.00563782 0.00190438 0.01399107 0.00190308 0.00692304 0.00823973 0.02452437 0.01066082 0.01400485 0.00202522 0.00867149 0.04060012 0.00926998 0.00164297 
0.01811740 0.05287540 0.00552966 0.00188540 0.01386599 0.00187163 0.00689859 0.00828828 0.02410208 0.01082742 0.01418680 0.00200526 0.00894231 0.04089746 0.00934979 0.00166911 
0.01820768 0.05220612 0.00542513 0.00186794 0.01371386 0.00184024 0.00687039 0.00832824 0.02365723 0.01098592 0.01437998 0.00198431 0.00922689 0.04126169 0.00944864 0.00169431 
0.01829035 0.05153105 0.00532462 0.00185208 0.01353538 0.00180902 0.00683853 0.00835973 0.02319145 0.01113590 0.01458343 0.00196249 0.00952482 0.04169254 0.00956641 0.00171851 
0.01836511 0.05085209 0.00522849 0.00183792 0.01333136 0.00177811 0.00680312 0.00838288 0.02270641 0.01127702 0.01479609 0.00193996 0.00983558 0.04218943 0.00970287 0.00174165 
0.01843171 0.05017106 0.00513709 0.00182555 0.01310276 0.00174762 0.00676429 0.00839789 0.02220391 0.01140894 0.01501687 0.00191683 0.01015862 0.04275145 0.00985776 0.00176366 
0.01848993 0.04948973 0.00505071 0.00181506 0.01285066 0.00171769 0.00672218 0.00840500 0.02168579 0.01153138 0.01524457 0.00189326 0.01049327 0.04337736 0.01003069 0.00178448 
0.01853955 0.04880983 0.00496964 0.00180652 0.01257625 0.00168843 0.00667699 0.00840448 0.02115396 0.01164411 0.01547797 0.00186939 0.01083883 0.04406558 0.01022120 0.00180408 
0.01858041 0.04813301 0.00489412 0.00180001 0.01228085 0.00165999 0.00662888 0.00839667 0.02061037 0.01174694 0.01571578 0.00184534 0.01119450 0.04481423 0.01042874 0.00182239 
0.01861238 0.04746081 0.00482437 0.00179559 0.01196587 0.00163248 0.00657809 0.00838192 0.02005705 0.01183971 0.01595667 0.00182126 0.01155942 0.04562107 0.01065269 0.00183939 
0.01863535 0.04679475 0.00476057 0.00179333 0.01163284 0.00160604 0.00652484 0.00836061 0.01949603 0.01192233 0.01619929 0.00179730 0.01193265 0.04648355 0.01089233 0.00185503 
0.01864923 0.04613623 0.00470286 0.00179327 0.01128334 0.00158079 0.00646939 0.00833317 0.01892940 0.01199473 0.01644224 0.00177357 0.01231319 0.04739881 0.01114686 0.00186930 
0.01865396 0.04548655 0.00465135 0.00179547 0.01091907 0.00155686 0.00641201 0.00830004 0.01835925 0.01205690 0.01668415 0.00175022 0.01269996 0.04836367 0.01141540 0.00188217 
0.01864953 0.04484695 0.00460611 0.00179995 0.01054179 0.00153437 0.00635299 0.00826167 0.01778768 0.01210887 0.01692362 0.00172737 0.01309184 0.04937466 0.01169699 0.00189361 
0.01863592 0.04421854 0.00456720 0.00180676 0.01015332 0.00151344 0.00629264 0.00821855 0.01721683 0.01215070 0.01715925 0.00170515 0.01348764 0.05042804 0.01199061 0.00190363 
0.01861318 0.04360234 0.00453461 0.00181591 0.00975551 0.00149418 0.00623127 0.00817117 0.01664879 0.01218250 0.01738967 0.00168368 0.01388609 0.05151978 0.01229514 0.00191221 
0.01858134 0.04299929 0.00450832 0.00182741 0.00935030 0.00147671 0.00616921 0.00812002 0.01608566 0.01220442 0.01761354 0.00166306 0.01428590 0.05264561 0.01260942 0.00191935 
0.01854049 0.04241018 0.00448826 0.00184127 0.00893962 0.00146112 0.00610682 0.00806562 0.01552954 0.01221664 0.01782955 0.00164341 0.01468571 0.05380103 0.01293220 0.00192506 
0.01849073 0.04183572 0.00447433 0.00185749 0.00852544 0.00144753 0.00604445 0.00800845 0.01498246 0.01221940 0.01803642 0.00162483 0.01508414 0.05498134 0.01326219 0.00192934 
0.01843219 0.04127651 0.00446640 0.00187605 0.00810973 0.00143602 0.00598246 0.00794904 0.01444646 0.01221294 0.01823294 0.00160741 0.01547977 0.05618163 0.01359804 0.00193221 
0.01836502 0.04073305 0.00446432 0.00189693 0.00769447 0.00142667 0.00592122 0.00788786 0.01392352 0.01219757 0.01841796 0.00159124 0.01587113 0.05739683 0.01393835 0.00193368 
0.01828942 0.04020569 0.00446790 0.00192011 0.00728162 0.00141957 0.00586112 0.00782540 0.01341556 0.01217359 0.01859039 0.00157639 0.01625676 0.05862177 0.01428169 0.00193377 
0.01820557 0.03969473 0.00447690 0.00194553 0.00687313 0.00141479 0.00580253 0.00776213 0.01292447 0.01214136 0.01874921 0.00156294 0.01663515 0.05985111 0.01462657 0.00193252 
0.01811372 0.03920032 0.00449108 0.00197316 0.00647090 0.00141238 0.00574583 0.00769852 0.01245208 0.01210127 0.01889351 0.00155095 0.01700483 0.06107949 0.01497150 0.00192994 
0.01801411 0.03872253 0.00451016 0.00200293 0.00607679 0.00141240 0.00569141 0.00763498 0.01200013 0.01205370 0.01902242 0.00154047 0.01736427 0.06230145 0.01531494 0.00192607 
0.01790705 0.03826132 0.00453385 0.00203478 0.00569264 0.00141489 0.00563963 0.00757194 0.01157032 0.01199909 0.01913522 0.00153154 0.01771201 0.06351154 0.01565537 0.00192094 
0.01779284 0.03781655 0.00456183 0.00206863 0.00532017 0.00141987 0.00559088 0.00750978 0.01116426 0.01193787 0.01923126 0.00152421 0.01804656 0.06470429 0.01599124 0.00191460 
0.01767182 0.03738799 0.00459374 0.00210440 0.00496109 0.00142737 0.00554552 0.00744887 0.01078348 0.01187050 0.01930998 0.00151850 0.01836647 0.06587431 0.01632101 0.00190708 
0.01754437 0.03697533 0.00462924 0.00214199 0.00461699 0.00143740 0.00550389 0.00738953 0.01042942 0.01179746 0.01937095 0.00151442 0.01867033 0.06701624 0.01664314 0.00189842 
0.01741087 0.03657817 0.00466794 0.00218132 0.00428938 0.00144995 0.00546636 0.00733208 0.01010346 0.01171923 0.01941383 0.00151199 0.01895676 0.06812485 0.01695613 0.00188868 
0.01727178 0.03619602 0.00470946 0.00222226 0.00397969 0.00146500 0.00543324 0.00727678 0.00980686 0.01163631 0.01943841 0.00151121 0.01922443 0.06919504 0.01725848 0.00187788 
0.01712753 0.03582834 0.00475339 0.00226471 0.00368923 0.00148255 0.00540485 0.00722387 0.00954078 0.01154920 0.01944458 0.00151206 0.01947206 0.07022186 0.01754874 0.00186609 
0.01697864 0.03547451 0.00479933 0.00230854 0.00341920 0.00150253 0.00538149 0.00717356 0.00930632 0.01145840 0.01943233 0.00151453 0.01969845 0.07120056 0.01782551 0.00185336 
0.01682563 0.03513387 0.00484685 0.00235362 0.00317070 0.00152492 0.00536343 0.00712603 0.00910445 0.01136441 0.01940179 0.00151859 0.01990244 0.07212663 0.01808742 0.00183972 
0.01666905 0.03480568 0.00489554 0.00239982 0.00294469 0.00154963 0.00535093 0.00708140 0.00893604 0.01126775 0.01935318 0.00152421 0.02008299 0.07299578 0.01833317 0.00182523 
0.01650951 0.03448919 0.00494498 0.00244701 0.00274202 0.00157661 0.00534421 0.00703978 0.00880186 0.01116891 0.01928681 0.00153135 0.02023910 0.07380401 0.01856153 0.00180994 
0.01634763 0.03418359 0.00499474 0.00249503 0.00256341 0.00160577 0.00534348 0.00700124 0.00870257 0.01106838 0.01920314 0.00153995 0.02036989 0.07454764 0.01877133 0.00179391 
0.01618407 0.03388807 0.00504441 0.00254373 0.00240944 0.00163700 0.00534892 0.00696582 0.00863873 0.01096665 0.01910269 0.00154997 0.02047457 0.07522327 0.01896149 0.00177717 
0.01601953 0.03360179 0.00509359 0.00259297 0.00228055 0.00167022 0.00536067 0.00693352 0.00861079 0.01086420 0.01898610 0.00156132 0.02055243 0.07582789 0.01913102 0.00175980 
0.01585475 0.03332389 0.00514185 0.00264259 0.00217706 0.00170529 0.00537884 0.00690431 0.00861908 0.01076149 0.01885408 0.00157396 0.02060289 0.07635881 0.01927900 0.00174182 
0.01569048 0.03305354 0.00518883 0.00269243 0.00209914 0.00174209 0.00540353 0.00687814 0.00866383 0.01065897 0.01870746 0.00158779 0.02062546 0.07681376 0.01940464 0.00172330 
0.01552754 0.03278987 0.00523413 0.00274232 0.00204683 0.00178048 0.00543479 0.00685491 0.00874515 0.01055706 0.01854712 0.00160273 0.02061978 0.07719082 0.01950723 0.00170428 
0.01536675 0.03253208 0.00527739 0.00279212 0.00202003 0.00182033 0.00547263 0.00683451 0.00886306 0.01045617 0.01837403 0.00161871 0.02058559 0.07748851 0.01958618 0.00168480 
0.01520898 0.03227937 0.00531827 0.00284165 0.00201850 0.00186147 0.00551702 0.00681680 0.00901743 0.01035670 0.01818921 0.00163562 0.02052276 0.07770574 0.01964100 0.00166493 
0.01505511 0.03203096 0.00535644 0.00289076 0.00204187 0.00190375 0.00556793 0.00680160 0.00920806 0.01025901 0.01799375 0.00165337 0.02043126 0.07784185 0.01967132 0.00164470 
0.01490607 0.03178613 0.00539160 0.00293929 0.00208964 0.00194699 0.00562526 0.00678874 0.00943463 0.01016344 0.01778879 0.00167186 0.02031120 0.07789661 0.01967689 0.00162416 
0.01476280 0.03154420 0.00542346 0.00298707 0.00216118 0.00199102 0.00568888 0.00677801 0.00969668 0.01007031 0.01757553 0.00169099 0.02016280 0.07787018 0.01965757 0.00160335 
0.01462627 0.03130456 0.00545176 0.00303396 0.00225573 0.00203567 0.00575863 0.00676917 0.00999368 0.00997992 0.01735516 0.00171064 0.01998639 0.07776318 0.01961336 0.00158231 
0.01449746 0.03106663 0.00547627 0.00307980 0.00237242 0.00208074 0.00583431 0.00676200 0.01032499 0.00989251 0.01712893 0.00173072 0.01978244 0.07757663 0.01954435 0.00156108 
0.01437738 0.03082992 0.00549678 0.00312445 0.00251026 0.00212606 0.00591569 0.00675623 0.01068983 0.00980834 0.01689811 0.00175112 0.01955151 0.07731195 0.01945078 0.00153971 
0.01426702 0.03059400 0.00551312 0.00316776 0.00266816 0.00217143 0.00600249 0.00675159 0.01108735 0.00972759 0.01666396 0.00177171 0.01929428 0.07697096 0.01933299 0.00151822 
0.01416741 0.03035853 0.00552512 0.00320959 0.00284492 0.00221666 0.00609440 0.00674783 0.01151659 0.00965045 0.01642774 0.00179240 0.01901154 0.07655589 0.01919145 0.00149667 
0.01407958 0.03012325 0.00553267 0.00324982 0.00303925 0.00226155 0.00619110 0.00674466 0.01197648 0.00957706 0.01619071 0.00181307 0.01870421 0.07606932 0.01902674 0.00147507 
0.01400453 0.02988796 0.00553568 0.00328832 0.00324975 0.00230593 0.00629220 0.00674179 0.01246586 0.00950752 0.01595411 0.00183361 0.01837326 0.07551417 0.01883955 0.00145346 
0.01394327 0.02965257 0.00553408 0.00332497 0.00347499 0.00234959 0.00639731 0.00673896 0.01298347 0.00944192 0.01571915 0.00185390 0.01801981 0.07489372 0.01863067 0.00143187 
0.01389680 0.02941707 0.00552784 0.00335967 0.00371341 0.00239234 0.00650599 0.00673587 0.01352797 0.00938031 0.01548700 0.00187385 0.01764503 0.07421155 0.01840103 0.00141033 
0.01386609 0.02918154 0.00551697 0.00339232 0.00396342 0.00243401 0.00661778 0.00673225 0.01409791 0.00932271 0.01525881 0.00189334 0.01725019 0.07347153 0.01815161 0.00138887 
0.01385209 0.02894615 0.00550148 0.00342282 0.00422338 0.00247442 0.00673220 0.00672784 0.01469177 0.00926909 0.01503564 0.00191227 0.01683665 0.07267779 0.01788352 0.00136752 
0.01385570 0.02871116 0.00548144 0.00345110 0.00449159 0.00251338 0.00684874 0.00672236 0.01530793 0.00921943 0.01481852 0.00193054 0.01640582 0.07183469 0.01759796 0.00134628 
0.01387781 0.02847691 0.00545693 0.00347708 0.00476631 0.00255072 0.00696688 0.00671558 0.01594471 0.00917363 0.01460843 0.00194805 0.01595919 0.07094683 0.01729617 0.00132520 
0.01391924 0.02824384 0.00542807 0.00350070 0.00504578 0.00258629 0.00708606 0.00670725 0.01660035 0.00913160 0.01440624 0.00196471 0.01549829 0.07001894 0.01697951 0.00130428 
0.01398076 0.02801245 0.00539499 0.00352191 0.00532823 0.00261994 0.00720573 0.00669715 0.01727301 0.00909321 0.01421277 0.00198043 0.01502473 0.06905595 0.01664939 0.00128355 
0.01406309 0.02778335 0.00535787 0.00354068 0.00561186 0.00265150 0.00732531 0.00668507 0.01796078 0.00905830 0.01402876 0.00199511 0.01454013 0.06806288 0.01630728 0.00126303 
0.01416688 0.02755720 0.00531690 0.00355696 0.00589490 0.00268086 0.00744422 0.00667081 0.01866170 0.00902667 0.01385486 0.00200868 0.01404616 0.06704484 0.01595469 0.00124272 
0.01429269 0.02733475 0.00527229 0.00357076 0.00617558 0.00270787 0.00756188 0.00665422 0.01937376 0.00899813 0.01369162 0.00202106 0.01354452 0.06600702 0.01559320 0.00122264 
0.01444103 0.02711679 0.00522428 0.00358206 0.00645213 0.00273243 0.00767768 0.00663512 0.02009488 0.00897242 0.01353951 0.00203219 0.01303691 0.06495460 0.01522440 0.00120281 
0.01461230 0.02690419 0.00517313 0.00359086 0.00672284 0.00275443 0.00779104 0.00661340 0.02082293 0.00894931 0.01339892 0.00204199 0.01252506 0.06389281 0.01484992 0.00118324 
0.01480682 0.02669787 0.00511912 0.00359718 0.00698603 0.00277377 0.00790138 0.00658893 0.02155577 0.00892849 0.01327010 0.00205040 0.01201070 0.06282679 0.01447140 0.00116393 
0.01502482 0.02649878 0.00506254 0.00360105 0.00724005 0.00279038 0.00800811 0.00656164 0.02229121 0.00890969 0.01315325 0.00205738 0.01149553 0.06176167 0.01409051 0.00114490 
0.01526640 0.02630793 0.00500370 0.00360250 0.00748334 0.00280419 0.00811067 0.00653145 0.02302702 0.00889257 0.01304845 0.00206286 0.01098127 0.06070246 0.01370889 0.00112616 
0.01553158 0.02612635 0.00494291 0.00360159 0.00771437 0.00281514 0.00820849 0.00649832 0.02376096 0.00887682 0.01295569 0.00206682 0.01046960 0.05965408 0.01332821 0.00110770 
0.01582027 0.02595509 0.00488052 0.00359837 0.00793171 0.00282320 0.00830106 0.00646223 0.02449080 0.00886208 0.01287486 0.00206922 0.00996218 0.05862127 0.01295009 0.00108954 
0.01613224 0.02579521 0.00481686 0.00359291 0.00813401 0.00282832 0.00838784 0.00642319 0.02521426 0.00884801 0.01280575 0.00207002 0.00946063 0.05760864 0.01257614 0.00107169 
0.01646717 0.02564778 0.00475228 0.00358529 0.00831998 0.00283050 0.00846834 0.00638121 0.02592910 0.00883422 0.01274807 0.00206921 0.00896653 0.05662061 0.01220796 0.00105414 
0.01682461 0.02551388 0.00468714 0.00357559 0.00848846 0.00282974 0.00854211 0.00633635 0.02663307 0.00882036 0.01270144 0.00206678 0.00848141 0.05566138 0.01184707 0.00103690 
0.01720400 0.02539455 0.00462178 0.00356391 0.00863838 0.00282605 0.00860870 0.00628866 0.02732394 0.00880603 0.01266540 0.00206270 0.00800675 0.05473492 0.01149500 0.00101998 
0.01760463 0.02529083 0.00455655 0.00355036 0.00876876 0.00281944 0.00866772 0.00623825 0.02799952 0.00879086 0.01263940 0.00205699 0.00754398 0.05384497 0.01115317 0.00100337 
0.01802570 0.02520373 0.00449182 0.00353503 0.00887876 0.00280997 0.00871880 0.00618522 0.02865763 0.00877446 0.01262283 0.00204964 0.00709445 0.05299501 0.01082299 0.00098708 
0.01846628 0.02513421 0.00442793 0.00351804 0.00896764 0.00279768 0.00876160 0.00612969 0.02929615 0.00875646 0.01261499 0.00204067 0.00665944 0.05218825 0.01050578 0.00097112 
0.01892531 0.02508318 0.00436521 0.00349953 0.00903480 0.00278263 0.00879585 0.00607181 0.02991302 0.00873647 0.01261513 0.00203009 0.00624017 0.05142761 0.01020279 0.00095549 
0.01940165 0.02505152 0.00430401 0.00347960 0.00907974 0.00276491 0.00882130 0.00601175 0.03050622 0.00871412 0.01262246 0.00201793 0.00583777 0.05071573 0.00991522 0.00094018 
0.01989399 0.02504003 0.00424464 0.00345840 0.00910211 0.00274458 0.00883774 0.00594968 0.03107381 0.00868905 0.01263610 0.00200422 0.00545330 0.05005495 0.00964417 0.00092520 
0.02040098 0.02504944 0.00418740 0.00343606 0.00910168 0.00272177 0.00884503 0.00588579 0.03161393 0.00866090 0.01265517 0.00198900 0.00508773 0.04944731 0.00939067 0.00091056 
0.02092111 0.02508041 0.00413261 0.00341272 0.00907836 0.00269656 0.00884305 0.00582028 0.03212479 0.00862933 0.01267872 0.00197231 0.00474194 0.04889455 0.00915565 0.00089626 
0.02145281 0.02513352 0.00408053 0.00338850 0.00903219 0.00266909 0.00883174 0.00575337 0.03260472 0.00859402 0.01270580 0.00195420 0.00441674 0.04839813 0.00893997 0.00088230 
0.02199440 0.02520924 0.00403143 0.00336356 0.00896334 0.00263947 0.00881110 0.00568528 0.03305213 0.00855465 0.01273543 0.00193472 0.00411282 0.04795916 0.00874439 0.00086868 
0.02254413 0.02530798 0.00398554 0.00333804 0.00887212 0.00260784 0.00878116 0.00561624 0.03346556 0.00851094 0.01276661 0.00191393 0.00383081 0.04757851 0.00856957 0.00085542 
0.02310018 0.02543002 0.00394309 0.00331206 0.00875898 0.00257434 0.00874202 0.00554649 0.03384367 0.00846262 0.01279835 0.00189190 0.00357122 0.04725672 0.00841611 0.00084251 
0.02366065 0.02557557 0.00390429 0.00328577 0.00862448 0.00253913 0.00869380 0.00547627 0.03418524 0.00840944 0.01282966 0.00186869 0.00333450 0.04699407 0.00828447 0.00082997 
0.02422359 0.02574470 0.00386930 0.00325930 0.00846934 0.00250235 0.00863671 0.00540582 0.03448917 0.00835119 0.01285956 0.00184439 0.00312098 0.04679056 0.00817505 0.00081779 
0.02478702 0.02593740 0.00383829 0.00323279 0.00829437 0.00246416 0.00857098 0.00533539 0.03475454 0.00828767 0.01288709 0.00181907 0.00293091 0.04664593 0.00808815 0.00080599 
0.02534891 0.02615354 0.00381138 0.00320637 0.00810052 0.00242474 0.00849689 0.00526523 0.03498056 0.00821871 0.01291132 0.00179280 0.00276445 0.04655966 0.00802395 0.00079457 
0.02590720 0.02639287 0.00378867 0.00318015 0.00788888 0.00238424 0.00841478 0.00519557 0.03516657 0.00814419 0.01293136 0.00176569 0.00262167 0.04653100 0.00798259 0.00078354 
0.02645983 0.02665504 0.00377025 0.00315425 0.00766062 0.00234284 0.00832502 0.00512667 0.03531213 0.00806401 0.01294636 0.00173781 0.00250256 0.04655897 0.00796406 0.00077292 
0.02700475 0.02693960 0.00375616 0.00312880 0.00741703 0.00230069 0.00822803 0.00505874 0.03541690 0.00797809 0.01295552 0.00170927 0.00240701 0.04664240 0.00796831 0.00076271 
0.02753989 0.02724596 0.00374644 0.00310389 0.00715950 0.00225799 0.00812427 0.00499203 0.03548076 0.00788640 0.01295808 0.00168015 0.00233483 0.04677989 0.00799518 0.00075292 
0.02806323 0.02757344 0.00374109 0.00307962 0.00688953 0.00221488 0.00801425 0.00492676 0.03550374 0.00778896 0.01295336 0.00165056 0.00228577 0.04696989 0.00804443 0.00074356 
0.02857277 0.02792128 0.00374008 0.00305610 0.00660868 0.00217156 0.00789851 0.00486314 0.03548606 0.00768579 0.01294076 0.00162059 0.00225947 0.04721069 0.00811574 0.00073466 
0.02906655 0.02828856 0.00374336 0.00303339 0.00631863 0.00212817 0.00777760 0.00480138 0.03542811 0.00757698 0.01291972 0.00159035 0.00225551 0.04750041 0.00820871 0.00072621 
0.02954270 0.02867433 0.00375087 0.00301159 0.00602110 0.00208488 0.00765214 0.00474167 0.03533046 0.00746265 0.01288977 0.00155993 0.00227342 0.04783708 0.00832288 0.00071823 
0.02999938 0.02907749 0.00376249 0.00299076 0.00571789 0.00204186 0.00752276 0.00468420 0.03519388 0.00734295 0.01285053 0.00152945 0.00231263 0.04821858 0.00845769 0.00071075 
0.03043486 0.02949690 0.00377810 0.00297095 0.00541084 0.00199927 0.00739010 0.00462915 0.03501929 0.00721807 0.01280169 0.00149901 0.00237251 0.04864273 0.00861255 0.00070376 
0.03084746 0.02993130 0.00379758 0.00295222 0.00510186 0.00195724 0.00725485 0.00457667 0.03480781 0.00708825 0.01274305 0.00146871 0.00245238 0.04910724 0.00878677 0.00069728 
0.03123565 0.03037938 0.00382074 0.00293462 0.00479288 0.00191593 0.00711770 0.00452691 0.03456075 0.00695377 0.01267447 0.00143865 0.00255151 0.04960980 0.00897964 0.00069133 
0.03159798 0.03083977 0.00384740 0.00291816 0.00448586 0.00187548 0.00697936 0.00448001 0.03427956 0.00681493 0.01259591 0.00140895 0.00266910 0.05014801 0.00919037 0.00068593 
0.03193311 0.03131100 0.00387735 0.00290289 0.00418278 0.00183602 0.00684053 0.00443609 0.03396589 0.00667209 0.01250743 0.00137969 0.00280430 0.05071947 0.00941812 0.00068107 
0.03223984 0.03179160 0.00391038 0.00288881 0.00388564 0.00179767 0.00670196 0.00439526 0.03362154 0.00652564 0.01240917 0.00135099 0.00295624 0.05132176 0.00966202 0.00067679 
0.03251710 0.03228003 0.00394625 0.00287594 0.00359641 0.00176056 0.00656435 0.00435762 0.03324847 0.00637600 0.01230136 0.00132294 0.00312398 0.05195245 0.00992115 0.00067309 
0.03276396 0.03277471 0.00398470 0.00286426 0.00331706 0.00172479 0.00642844 0.00432324 0.03284880 0.00622363 0.01218434 0.00129564 0.00330656 0.05260911 0.01019455 0.00066998 
0.03297963 0.03327405 0.00402547 0.00285378 0.00304954 0.00169046 0.00629495 0.00429220 0.03242478 0.00606904 0.01205850 0.00126919 0.00350298 0.05328936 0.01048124 0.00066747 
0.03316345 0.03377643 0.00406828 0.00284446 0.00279577 0.00165768 0.00616459 0.00426454 0.03197881 0.00591274 0.01192434 0.00124367 0.00371221 0.05399082 0.01078019 0.00066558 
0.03331495 0.03428024 0.00411284 0.00283630 0.00255761 0.00162652 0.00603805 0.00424032 0.03151341 0.00575529 0.01178244 0.00121918 0.00393322 0.05471119 0.01109036 0.00066431 
0.03343378 0.03478385 0.00415887 0.00282925 0.00233689 0.00159706 0.00591601 0.00421956 0.03103120 0.00559730 0.01163344 0.00119580 0.00416492 0.05544817 0.01141070 0.00066368 
0.03351975 0.03528565 0.00420606 0.00282328 0.00213534 0.00156936 0.00579914 0.00420228 0.03053493 0.00543937 0.01147807 0.00117361 0.00440624 0.05619956 0.01174013 0.00066368 
0.03357283 0.03578406 0.00425410 0.00281834 0.00195466 0.00154349 0.00568808 0.00418848 0.03002740 0.00528214 0.01131712 0.00115270 0.00465608 0.05696321 0.01207756 0.00066433 
0.03359313 0.03627751 0.00430270 0.00281437 0.00179642 0.00151949 0.00558343 0.00417815 0.02951153 0.00512627 0.01115145 0.00113312 0.00491333 0.05773704 0.01242189 0.00066562 
0.03358094 0.03676447 0.00435155 0.00281134 0.00166214 0.00149741 0.00548576 0.00417129 0.02899026 0.00497245 0.01098196 0.00111496 0.00517688 0.05851904 0.01277203 0.00066756 
0.03353665 0.03724347 0.00440033 0.00280916 0.00155322 0.00147727 0.00539563 0.00416785 0.02846662 0.00482138 0.01080961 0.00109828 0.00544562 0.05930727 0.01312687 0.00067015 
0.03346084 0.03771307 0.00444876 0.00280778 0.00147095 0.00145909 0.00531355 0.00416781 0.02794363 0.00467376 0.01063541 0.00108313 0.00571844 0.06009988 0.01348532 0.00067338 
0.03335421 0.03817192 0.00449653 0.00280712 0.00141650 0.00144290 0.00523998 0.00417113 0.02742436 0.00453031 0.01046039 0.00106956 0.00599425 0.06089509 0.01384628 0.00067726 
0.03321757 0.03861870 0.00454336 0.00280713 0.00139093 0.00142870 0.00517535 0.00417773 0.02691187 0.00439177 0.01028561 0.00105763 0.00627195 0.06169121 0.01420867 0.00068176 
0.03305189 0.03905219 0.00458895 0.00280771 0.00139516 0.00141648 0.00512004 0.00418757 0.02640920 0.00425886 0.01011217 0.00104737 0.00655046 0.06248662 0.01457142 0.00068688 
0.03285825 0.03947125 0.00463303 0.00280880 0.00142997 0.00140624 0.00507439 0.00420057 0.02591936 0.00413232 0.00994116 0.00103882 0.00682872 0.06327977 0.01493347 0.00069261 
0.03263782 0.03987480 0.00467535 0.00281031 0.00149601 0.00139795 0.00503869 0.00421666 0.02544532 0.00401286 0.00977369 0.00103200 0.00710570 0.06406919 0.01529379 0.00069894 
0.03239189 0.04026187 0.00471564 0.00281218 0.00159376 0.00139160 0.00501317 0.00423576 0.02498998 0.00390120 0.00961087 0.00102695 0.00738036 0.06485348 0.01565136 0.00070584 
0.03212183 0.04063159 0.00475368 0.00281431 0.00172358 0.00138715 0.00499802 0.00425777 0.02455615 0.00379806 0.00945377 0.00102367 0.00765172 0.06563130 0.01600517 0.00071330 
0.03182909 0.04098315 0.00478922 0.00281664 0.00188564 0.00138457 0.00499337 0.00428261 0.02414655 0.00370411 0.00930348 0.00102218 0.00791881 0.06640137 0.01635426 0.00072130 
0.03151521 0.04131589 0.00482207 0.00281908 0.00208000 0.00138380 0.00499931 0.00431019 0.02376380 0.00362003 0.00916104 0.00102247 0.00818069 0.06716248 0.01669768 0.00072980 
0.03118176 0.04162920 0.00485203 0.00282157 0.00230650 0.00138481 0.00501586 0.00434039 0.02341037 0.00354646 0.00902746 0.00102455 0.00843646 0.06791344 0.01703451 0.00073878 
0.03083038 0.04192261 0.00487891 0.00282402 0.00256488 0.00138753 0.00504300 0.00437311 0.02308859 0.00348401 0.00890372 0.00102839 0.00868525 0.06865315 0.01736387 0.00074821 
0.03046274 0.04219572 0.00490256 0.00282637 0.00285469 0.00139190 0.00508064 0.00440826 0.02280065 0.00343328 0.00879073 0.00103399 0.00892624 0.06938050 0.01768490 0.00075806 
0.03008052 0.04244827 0.00492282 0.00282854 0.00317530 0.00139787 0.00512866 0.00444571 0.02254855 0.00339481 0.00868936 0.00104133 0.00915862 0.07009444 0.01799678 0.00076829 
0.02968544 0.04268006 0.00493958 0.00283047 0.00352597 0.00140535 0.00518685 0.00448536 0.02233412 0.00336911 0.00860042 0.00105036 0.00938166 0.07079394 0.01829873 0.00077887 
0.02927921 0.04289101 0.00495272 0.00283210 0.00390577 0.00141429 0.00525499 0.00452709 0.02215896 0.00335665 0.00852464 0.00106105 0.00959464 0.07147801 0.01858998 0.00078975 
0.02886353 0.04308114 0.00496215 0.00283338 0.00431363 0.00142459 0.00533279 0.00457078 0.02202452 0.00335784 0.00846268 0.00107336 0.00979691 0.07214563 0.01886984 0.00080090 
0.02844009 0.04325054 0.00496779 0.00283423 0.00474832 0.00143618 0.00541990 0.00461633 0.02193198 0.00337306 0.00841514 0.00108723 0.00998784 0.07279584 0.01913763 0.00081226 
0.02801054 0.04339941 0.00496959 0.00283462 0.00520847 0.00144899 0.00551593 0.00466359 0.02188231 0.00340262 0.00838250 0.00110262 0.01016689 0.07342766 0.01939271 0.00082380 
0.02757649 0.04352804 0.00496751 0.00283450 0.00569259 0.00146292 0.00562047 0.00471247 0.02187627 0.00344678 0.00836520 0.00111945 0.01033352 0.07404011 0.01963448 0.00083547 
0.02713952 0.04363677 0.00496152 0.00283383 0.00619903 0.00147788 0.00573301 0.00476283 0.02191436 0.00350574 0.00836355 0.00113766 0.01048728 0.07463223 0.01986241 0.00084723 
0.02670114 0.04372603 0.00495161 0.00283257 0.00672602 0.00149379 0.00585306 0.00481454 0.02199683 0.00357963 0.00837779 0.00115718 0.01062774 0.07520302 0.02007598 0.00085902 
0.02626279 0.04379633 0.00493781 0.00283068 0.00727169 0.00151055 0.00598005 0.00486750 0.02212369 0.00366855 0.00840806 0.00117792 0.01075456 0.07575150 0.02027472 0.00087080 
0.02582585 0.04384822 0.00492012 0.00282814 0.00783404 0.00152808 0.00611340 0.00492155 0.02229470 0.00377248 0.00845440 0.00119981 0.01086742 0.07627667 0.02045822 0.00088251 
0.02539161 0.04388233 0.00489859 0.00282493 0.00841098 0.00154628 0.00625246 0.00497659 0.02250939 0.00389138 0.00851676 0.00122274 0.01096607 0.07677753 0.02062610 0.00089412 
0.02496128 0.04389930 0.00487327 0.00282103 0.00900032 0.00156505 0.00639660 0.00503248 0.02276699 0.00402512 0.00859499 0.00124664 0.01105032 0.07725306 0.02077803 0.00090557 
0.02453598 0.04389986 0.00484424 0.00281642 0.00959979 0.00158430 0.00654513 0.00508908 0.02306655 0.00417349 0.00868886 0.00127139 0.01112001 0.07770223 0.02091373 0.00091681 
0.02411674 0.04388474 0.00481156 0.00281110 0.01020707 0.00160394 0.00669734 0.00514628 0.02340681 0.00433623 0.00879803 0.00129691 0.01117508 0.07812402 0.02103296 0.00092780 
0.02370449 0.04385470 0.00477533 0.00280506 0.01081976 0.00162386 0.00685251 0.00520394 0.02378633 0.00451299 0.00892206 0.00132308 0.01121547 0.07851738 0.02113555 0.00093849 
0.02330006 0.04381053 0.00473565 0.00279830 0.01143541 0.00164399 0.00700991 0.00526192 0.02420340 0.00470337 0.00906044 0.00134979 0.01124123 0.07888129 0.02122134 0.00094884 
0.02290418 0.04375303 0.00469263 0.00279083 0.01205154 0.00166421 0.00716878 0.00532009 0.02465611 0.00490688 0.00921259 0.00137695 0.01125242 0.07921471 0.02129024 0.00095880 
0.02251749 0.04368301 0.00464640 0.00278266 0.01266564 0.00168443 0.00732837 0.00537831 0.02514233 0.00512297 0.00937780 0.00140442 0.01124920 0.07951662 0.02134223 0.00096835 
0.02214050 0.04360126 0.00459708 0.00277379 0.01327521 0.00170457 0.00748792 0.00543646 0.02565972 0.00535101 0.00955533 0.00143211 0.01123174 0.07978602 0.02137729 0.00097743 
0.02177365 0.04350859 0.00454480 0.00276425 0.01387773 0.00172452 0.00764665 0.00549439 0.02620577 0.00559032 0.00974435 0.00145989 0.01120029 0.08002192 0.02139549 0.00098601 
0.02141728 0.04340577 0.00448971 0.00275405 0.01447068 0.00174421 0.00780383 0.00555197 0.02677779 0.00584015 0.00994396 0.00148765 0.01115516 0.08022336 0.02139694 0.00099407 
0.02107163 0.04329356 0.00443196 0.00274321 0.01505161 0.00176353 0.00795868 0.00560907 0.02737291 0.00609967 0.01015322 0.00151527 0.01109668 0.08038945 0.02138179 0.00100157 
0.02073684 0.04317271 0.00437170 0.00273177 0.01561805 0.00178240 0.00811048 0.00566554 0.02798814 0.00636801 0.01037111 0.00154264 0.01102527 0.08051930 0.02135024 0.00100849 
0.02041299 0.04304392 0.00430908 0.00271975 0.01616763 0.00180074 0.00825850 0.00572125 0.02862036 0.00664423 0.01059659 0.00156964 0.01094137 0.08061211 0.02130254 0.00101481 
0.02010006 0.04290786 0.00424427 0.00270718 0.01669802 0.00181845 0.00840203 0.00577608 0.02926633 0.00692735 0.01082857 0.00159615 0.01084548 0.08066714 0.02123901 0.00102051 
0.01979797 0.04276518 0.00417743 0.00269410 0.01720696 0.00183547 0.00854040 0.00582988 0.02992272 0.00721634 0.01106593 0.00162207 0.01073815 0.08068372 0.02115998 0.00102558 
0.01950656 0.04261645 0.00410873 0.00268055 0.01769228 0.00185170 0.00867294 0.00588252 0.03058614 0.00751010 0.01130753 0.00164728 0.01061996 0.08066128 0.02106586 0.00103001 
0.01922561 0.04246224 0.00403833 0.00266655 0.01815191 0.00186707 0.00879903 0.00593389 0.03125314 0.00780752 0.01155220 0.00167167 0.01049155 0.08059934 0.02095709 0.00103380 
0.01895486 0.04230305 0.00396639 0.00265216 0.01858388 0.00188150 0.00891807 0.00598385 0.03192024 0.00810743 0.01179878 0.00169515 0.01035360 0.08049753 0.02083416 0.00103695 
0.01869400 0.04213933 0.00389310 0.00263741 0.01898635 0.00189494 0.00902950 0.00603228 0.03258395 0.00840866 0.01204610 0.00171761 0.01020680 0.08035559 0.02069760 0.00103946 
0.01844268 0.04197151 0.00381862 0.00262235 0.01935759 0.00190730 0.00913279 0.00607906 0.03324079 0.00870998 0.01229301 0.00173894 0.01005190 0.08017340 0.02054800 0.00104135 
0.01820052 0.04179995 0.00374311 0.00260702 0.01969601 0.00191853 0.00922747 0.00612409 0.03388732 0.00901016 0.01253835 0.00175907 0.00988968 0.07995099 0.02038597 0.00104263 
0.01796712 0.04162497 0.00366676 0.00259147 0.02000017 0.00192857 0.00931308 0.00616725 0.03452014 0.00930796 0.01278101 0.00177790 0.00972095 0.07968851 0.02021217 0.00104332 
0.01774208 0.04144685 0.00358972 0.00257574 0.02026877 0.00193736 0.00938923 0.00620844 0.03513593 0.00960212 0.01301989 0.00179536 0.00954652 0.07938629 0.02002732 0.00104345 
0.01752497 0.04126583 0.00351217 0.00255988 0.02050067 0.00194486 0.00945557 0.00624757 0.03573145 0.00989140 0.01325395 0.00181135 0.00936726 0.07904482 0.01983213 0.00104304 
0.01731540 0.04108209 0.00343428 0.00254394 0.02069491 0.00195102 0.00951179 0.00628455 0.03630361 0.01017453 0.01348216 0.00182582 0.00918404 0.07866476 0.01962738 0.00104213 
0.01711296 0.04089581 0.00335621 0.00252795 0.02085067 0.00195579 0.00955764 0.00631930 0.03684941 0.01045030 0.01370356 0.00183870 0.00899773 0.07824696 0.01941389 0.00104076 
0.01691728 0.04070712 0.00327813 0.00251198 0.02096732 0.00195915 0.00959292 0.00635176 0.03736602 0.01071746 0.01391725 0.00184994 0.00880925 0.07779244 0.01919247 0.00103896 
0.01672803 0.04051612 0.00320021 0.00249607 0.02104439 0.00196106 0.00961746 0.00638186 0.03785078 0.01097485 0.01412237 0.00185947 0.00861949 0.07730242 0.01896400 0.00103680 
0.01654487 0.04032291 0.00312262 0.00248026 0.02108162 0.00196151 0.00963116 0.00640954 0.03830122 0.01122128 0.01431815 0.00186727 0.00842936 0.07677831 0.01872936 0.00103431 
0.01636756 0.04012754 0.00304553 0.00246460 0.02107888 0.00196048 0.00963397 0.00643478 0.03871505 0.01145564 0.01450386 0.00187330 0.00823978 0.07622171 0.01848946 0.00103155 
0.01619587 0.03993008 0.00296909 0.00244914 0.02103625 0.00195795 0.00962589 0.00645754 0.03909021 0.01167685 0.01467887 0.00187753 0.00805164 0.07563443 0.01824522 0.00102858 
0.01602962 0.03973058 0.00289348 0.00243392 0.02095398 0.00195393 0.00960696 0.00647780 0.03942487 0.01188388 0.01484260 0.00187993 0.00786585 0.07501847 0.01799759 0.00102545 
0.01586872 0.03952911 0.00281886 0.00241899 0.02083250 0.00194842 0.00957728 0.00649556 0.03971744 0.01207575 0.01499456 0.00188051 0.00768328 0.07437600 0.01774752 0.00102223 
0.01571312 0.03932573 0.00274541 0.00240439 0.02067241 0.00194143 0.00953700 0.00651082 0.03996656 0.01225156 0.01513434 0.00187925 0.00750480 0.07370942 0.01749597 0.00101898 
0.01556284 0.03912052 0.00267329 0.00239017 0.02047448 0.00193298 0.00948630 0.00652361 0.04017116 0.01241045 0.01526161 0.00187617 0.00733125 0.07302127 0.01724390 0.00101577 
0.01541796 0.03891360 0.00260266 0.00237637 0.02023963 0.00192309 0.00942544 0.00653395 0.04033041 0.01255166 0.01537610 0.00187127 0.00716346 0.07231431 0.01699228 0.00101266 
0.01527864 0.03870508 0.00253370 0.00236303 0.01996898 0.00191181 0.00935469 0.00654190 0.04044377 0.01267448 0.01547765 0.00186458 0.00700221 0.07159143 0.01674206 0.00100972 
0.01514512 0.03849515 0.00246658 0.00235020 0.01966375 0.00189916 0.00927439 0.00654751 0.04051094 0.01277832 0.01556615 0.00185612 0.00684826 0.07085570 0.01649422 0.00100701 
0.01501769 0.03828400 0.00240146 0.00233791 0.01932536 0.00188521 0.00918490 0.00655085 0.04053193 0.01286263 0.01564159 0.00184594 0.00670234 0.07011033 0.01624967 0.00100460 
0.01489673 0.03807189 0.00233853 0.00232621 0.01895534 0.00187001 0.00908664 0.00655202 0.04050701 0.01292698 0.01570400 0.00183407 0.00656511 0.06935867 0.01600936 0.00100255 
0.01478267 0.03785911 0.00227794 0.00231512 0.01855534 0.00185362 0.00898004 0.00655110 0.04043673 0.01297102 0.01575352 0.00182058 0.00643722 0.06860418 0.01577419 0.00100093 
0.01467602 0.03764604 0.00221988 0.00230470 0.01812716 0.00183611 0.00886560 0.00654821 0.04032190 0.01299449 0.01579034 0.00180551 0.00631926 0.06785043 0.01554502 0.00099979 
0.01457735 0.03743308 0.00216452 0.00229497 0.01767270 0.00181758 0.00874381 0.00654347 0.04016360 0.01299724 0.01581469 0.00178894 0.00621175 0.06710109 0.01532273 0.00099920 
0.01448730 0.03722071 0.00211202 0.00228597 0.01719396 0.00179809 0.00861522 0.00653702 0.03996317 0.01297922 0.01582690 0.00177093 0.00611518 0.06635986 0.01510812 0.00099921 
0.01440653 0.03700947 0.00206257 0.00227774 0.01669303 0.00177776 0.00848040 0.00652900 0.03972218 0.01294046 0.01582733 0.00175157 0.00602998 0.06563054 0.01490198 0.00099987 
0.01433580 0.03679997 0.00201633 0.00227031 0.01617209 0.00175668 0.00833993 0.00651957 0.03944246 0.01288110 0.01581639 0.00173094 0.00595650 0.06491691 0.01470505 0.00100122 
0.01427586 0.03659288 0.00197348 0.00226370 0.01563336 0.00173497 0.00819442 0.00650889 0.03912606 0.01280138 0.01579452 0.00170913 0.00589507 0.06422279 0.01451803 0.00100331 
0.01422754 0.03638896 0.00193418 0.00225796 0.01507917 0.00171273 0.00804450 0.00649714 0.03877522 0.01270164 0.01576223 0.00168622 0.00584591 0.06355198 0.01434156 0.00100618 
0.01419167 0.03618901 0.00189861 0.00225310 0.01451184 0.00169008 0.00789080 0.00648450 0.03839240 0.01258232 0.01572003 0.00166233 0.00580921 0.06290824 0.01417624 0.00100985 
0.01416911 0.03599390 0.00186692 0.00224917 0.01393375 0.00166717 0.00773399 0.00647115 0.03798024 0.01244395 0.01566846 0.00163755 0.00578507 0.06229526 0.01402262 0.00101435 
0.01416074 0.03580458 0.00183928 0.00224618 0.01334729 0.00164411 0.00757472 0.00645730 0.03754152 0.01228716 0.01560810 0.00161198 0.00577354 0.06171668 0.01388118 0.00101970 
0.01416743 0.03562205 0.00181584 0.00224416 0.01275488 0.00162105 0.00741364 0.00644315 0.03707918 0.01211266 0.01553950 0.00158574 0.00577459 0.06117599 0.01375233 0.00102591 
0.01419004 0.03544736 0.00179675 0.00224314 0.01215891 0.00159812 0.00725143 0.00642888 0.03659628 0.01192126 0.01546326 0.00155893 0.00578813 0.06067658 0.01363645 0.00103299 
0.01422943 0.03528161 0.00178217 0.00224313 0.01156177 0.00157547 0.00708875 0.00641471 0.03609599 0.01171384 0.01537995 0.00153166 0.00581401 0.06022170 0.01353382 0.00104093 
0.01428644 0.03512596 0.00177222 0.00224417 0.01096582 0.00155325 0.00692626 0.00640084 0.03558155 0.01149138 0.01529015 0.00150403 0.00585199 0.05981438 0.01344468 0.00104972 
0.01436185 0.03498160 0.00176703 0.00224626 0.01037336 0.00153160 0.00676461 0.00638748 0.03505626 0.01125492 0.01519440 0.00147618 0.00590178 0.05945751 0.01336917 0.00105936 
0.01445641 0.03484975 0.00176673 0.00224943 0.00978668 0.00151068 0.00660444 0.00637481 0.03452347 0.01100556 0.01509325 0.00144819 0.00596303 0.05915372 0.01330740 0.00106980 
0.01457081 0.03473165 0.00177142 0.00225369 0.00920798 0.00149063 0.00644638 0.00636305 0.03398652 0.01074449 0.01498722 0.00142019 0.00603531 0.05890542 0.01325938 0.00108103 
0.01470570 0.03462857 0.00178120 0.00225905 0.00863939 0.00147161 0.00629106 0.00635237 0.03344879 0.01047294 0.01487679 0.00139228 0.00611814 0.05871478 0.01322506 0.00109299 
0.01486161 0.03454177 0.00179616 0.00226554 0.00808297 0.00145376 0.00613906 0.00634296 0.03291358 0.01019219 0.01476243 0.00136456 0.00621099 0.05858366 0.01320431 0.00110565 
0.01503904 0.03447251 0.00181636 0.00227315 0.00754069 0.00143723 0.00599096 0.00633501 0.03238416 0.00990357 0.01464454 0.00133715 0.00631325 0.05851366 0.01319695 0.00111895 
0.01523837 0.03442204 0.00184187 0.00228191 0.00701440 0.00142216 0.00584733 0.00632866 0.03186373 0.00960847 0.01452352 0.00131013 0.00642427 0.05850607 0.01320270 0.00113283 
0.01545987 0.03439159 0.00187271 0.00229180 0.00650588 0.00140870 0.00570868 0.00632409 0.03135540 0.00930827 0.01439970 0.00128361 0.00654337 0.05856185 0.01322125 0.00114721 
0.01570374 0.03438235 0.00190891 0.00230284 0.00601675 0.00139697 0.00557554 0.00632142 0.03086215 0.00900440 0.01427337 0.00125767 0.00666980 0.05868164 0.01325220 0.00116204 
0.01597003 0.03439545 0.00195048 0.00231502 0.00554856 0.00138711 0.00544836 0.00632079 0.03038684 0.00869831 0.01414478 0.00123241 0.00680276 0.05886575 0.01329508 0.00117721 
0.01625871 0.03443199 0.00199740 0.00232835 0.00510268 0.00137924 0.00532762 0.00632231 0.02993216 0.00839145 0.01401413 0.00120791 0.00694146 0.05911414 0.01334937 0.00119266 
0.01656958 0.03449299 0.00204963 0.00234282 0.00468039 0.00137348 0.00521371 0.00632608 0.02950064 0.00808529 0.01388159 0.00118424 0.00708502 0.05942639 0.01341451 0.00120828 
0.01690235 0.03457939 0.00210711 0.00235841 0.00428282 0.00136993 0.00510704 0.00633218 0.02909464 0.00778127 0.01374725 0.00116148 0.00723258 0.05980177 0.01348984 0.00122398 
0.01725658 0.03469205 0.00216977 0.00237512 0.00391094 0.00136870 0.00500794 0.00634066 0.02871628 0.00748083 0.01361118 0.00113969 0.00738322 0.06023916 0.01357470 0.00123967 
0.01763169 0.03483173 0.00223749 0.00239293 0.00356562 0.00136986 0.00491675 0.00635158 0.02836751 0.00718541 0.01347341 0.00111893 0.00753604 0.06073712 0.01366833 0.00125524 
0.01802697 0.03499910 0.00231017 0.00241183 0.00324755 0.00137350 0.00483375 0.00636495 0.02805002 0.00689639 0.01333391 0.00109926 0.00769011 0.06129382 0.01376999 0.00127058 
0.01844157 0.03519468 0.00238763 0.00243178 0.00295728 0.00137969 0.00475917 0.00638078 0.02776528 0.00661515 0.01319263 0.00108073 0.00784449 0.06190712 0.01387884 0.00128560 
0.01887451 0.03541889 0.00246972 0.00245277 0.00269523 0.00138847 0.00469325 0.00639906 0.02751452 0.00634302 0.01304949 0.00106336 0.00799824 0.06257451 0.01399404 0.00130019 
0.01932466 0.03567203 0.00255623 0.00247475 0.00246166 0.00139990 0.00463615 0.00641974 0.02729870 0.00608127 0.01290435 0.00104721 0.00815044 0.06329318 0.01411473 0.00131423 
0.01979076 0.03595425 0.00264694 0.00249771 0.00225670 0.00141399 0.00458801 0.00644276 0.02711854 0.00583115 0.01275708 0.00103230 0.00830016 0.06405999 0.01424001 0.00132762 
0.02027142 0.03626555 0.00274160 0.00252159 0.00208032 0.00143077 0.00454893 0.00646805 0.02697450 0.00559382 0.01260752 0.00101864 0.00844651 0.06487151 0.01436896 0.00134026 
0.02076513 0.03660579 0.00283994 0.00254635 0.00193236 0.00145024 0.00451899 0.00649552 0.02686679 0.00537041 0.01245549 0.00100626 0.00858862 0.06572401 0.01450067 0.00135206 
0.02127026 0.03697470 0.00294167 0.00257196 0.00181253 0.00147237 0.00449821 0.00652503 0.02679535 0.00516196 0.01230081 0.00099517 0.00872561 0.06661352 0.01463420 0.00136290 
0.02178505 0.03737183 0.00304646 0.00259834 0.00172040 0.00149716 0.00448658 0.00655645 0.02675986 0.00496945 0.01214330 0.00098536 0.00885669 0.06753580 0.01476864 0.00137271 
0.02230765 0.03779658 0.00315399 0.00262545 0.00165542 0.00152454 0.00448406 0.00658964 0.02675977 0.00479378 0.01198278 0.00097684 0.00898107 0.06848640 0.01490306 0.00138138 
0.02283610 0.03824821 0.00326388 0.00265322 0.00161691 0.00155447 0.00449059 0.00662440 0.02679429 0.00463577 0.01181909 0.00096960 0.00909801 0.06946066 0.01503656 0.00138885 
0.02336837 0.03872581 0.00337576 0.00268159 0.00160409 0.00158687 0.00450603 0.00666055 0.02686237 0.00449618 0.01165208 0.00096362 0.00920683 0.07045376 0.01516824 0.00139504 
