0.02886857 0.05624859 0.00961754 0.00378175 0.00182519 0.00215625 0.01125961 0.01259088 0.01652836 0.00285319 0.00352395 0.06243826 0.00746540 0.01225442 0.01725238 0.00100943 
0.02922087 0.05618949 0.00982044 0.00376326 0.00183211 0.00215434 0.01149962 0.01254251 0.01644844 0.00287249 0.00351234 0.06261048 0.00740184 0.01245587 0.01726380 0.00100002 
0.02959531 0.05613108 0.01003068 0.00374627 0.00183810 0.00215360 0.01172880 0.01247434 0.01638364 0.00289062 0.00349945 0.06282447 0.00733343 0.01265038 0.01726277 0.00099113 
0.02999043 0.05607589 0.01024721 0.00373096 0.00184315 0.00215402 0.01194608 0.01238657 0.01633366 0.00290752 0.00348527 0.06308000 0.00726033 0.01283674 0.01724930 0.00098283 
0.03040469 0.05602654 0.01046894 0.00371754 0.00184724 0.00215563 0.01215040 0.01227951 0.01629819 0.00292314 0.00346977 0.06337667 0.00718269 0.01301374 0.01722346 0.00097517 
0.03083648 0.05598568 0.01069477 0.00370618 0.00185037 0.00215840 0.01234076 0.01215355 0.01627687 0.00293740 0.00345296 0.06371389 0.00710072 0.01318022 0.01718533 0.00096819 
0.03128409 0.05595596 0.01092357 0.00369708 0.00185254 0.00216234 0.01251622 0.01200916 0.01626932 0.00295027 0.00343481 0.06409091 0.00701462 0.01333507 0.01713503 0.00096196 
0.03174578 0.05594005 0.01115421 0.00369038 0.00185374 0.00216745 0.01267588 0.01184690 0.01627513 0.00296169 0.00341532 0.06450677 0.00692460 0.01347720 0.01707272 0.00095651 
0.03221976 0.05594058 0.01138554 0.00368624 0.00185399 0.00217370 0.01281892 0.01166742 0.01629388 0.00297163 0.00339449 0.06496038 0.00683091 0.01360559 0.01699859 0.00095190 
0.03270421 0.05596017 0.01161643 0.00368481 0.00185329 0.00218110 0.01294458 0.01147144 0.01632512 0.00298005 0.00337231 0.06545046 0.00673379 0.01371928 0.01691285 0.00094818 
0.03319727 0.05600132 0.01184573 0.00368619 0.00185166 0.00218962 0.01305216 0.01125975 0.01636841 0.00298691 0.00334879 0.06597559 0.00663350 0.01381739 0.01681576 0.00094538 
0.03369709 0.05606649 0.01207232 0.00369050 0.00184913 0.00219925 0.01314105 0.01103321 0.01642329 0.00299221 0.00332391 0.06653419 0.00653032 0.01389909 0.01670760 0.00094354 
0.03420180 0.05615800 0.01229509 0.00369783 0.00184571 0.00220996 0.01321072 0.01079275 0.01648932 0.00299591 0.00329770 0.06712453 0.00642453 0.01396366 0.01658868 0.00094270 
0.03470957 0.05627806 0.01251293 0.00370823 0.00184144 0.00222173 0.01326073 0.01053936 0.01656605 0.00299801 0.00327015 0.06774478 0.00631642 0.01401047 0.01645933 0.00094289 
0.03521856 0.05642871 0.01272479 0.00372176 0.00183635 0.00223452 0.01329069 0.01027409 0.01665304 0.00299851 0.00324128 0.06839294 0.00620629 0.01403896 0.01631991 0.00094414 
0.03572697 0.05661181 0.01292962 0.00373845 0.00183048 0.00224832 0.01330034 0.00999802 0.01674986 0.00299740 0.00321110 0.06906693 0.00609443 0.01404871 0.01617081 0.00094648 
0.03623305 0.05682905 0.01312642 0.00375829 0.00182386 0.00226307 0.01328948 0.00971229 0.01685610 0.00299469 0.00317962 0.06976453 0.00598117 0.01403936 0.01601243 0.00094992 
0.03673510 0.05708189 0.01331424 0.00378128 0.00181656 0.00227874 0.01325801 0.00941807 0.01697136 0.00299039 0.00314686 0.07048344 0.00586680 0.01401069 0.01584521 0.00095447 
0.03723146 0.05737155 0.01349214 0.00380737 0.00180861 0.00229528 0.01320593 0.00911656 0.01709525 0.00298452 0.00311285 0.07122127 0.00575163 0.01396258 0.01566957 0.00096015 
0.03772054 0.05769900 0.01365926 0.00383651 0.00180006 0.00231265 0.01313332 0.00880899 0.01722741 0.00297709 0.00307760 0.07197553 0.00563598 0.01389503 0.01548600 0.00096696 
0.03820084 0.05806496 0.01381478 0.00386861 0.00179098 0.00233078 0.01304035 0.00849661 0.01736751 0.00296814 0.00304115 0.07274367 0.00552016 0.01380814 0.01529496 0.00097489 
0.03867091 0.05846986 0.01395793 0.00390356 0.00178141 0.00234961 0.01292731 0.00818066 0.01751521 0.00295769 0.00300352 0.07352309 0.00540446 0.01370215 0.01509695 0.00098396 
0.03912940 0.05891382 0.01408800 0.00394126 0.00177142 0.00236910 0.01279454 0.00786240 0.01767022 0.00294578 0.00296475 0.07431111 0.00528919 0.01357739 0.01489246 0.00099413 
0.03957504 0.05939667 0.01420435 0.00398153 0.00176107 0.00238916 0.01264251 0.00754310 0.01783224 0.00293245 0.00292487 0.07510503 0.00517463 0.01343432 0.01468202 0.00100539 
0.04000665 0.05991793 0.01430638 0.00402423 0.00175042 0.00240972 0.01247174 0.00722401 0.01800102 0.00291774 0.00288393 0.07590210 0.00506106 0.01327349 0.01446613 0.00101773 
0.04042313 0.06047679 0.01439358 0.00406916 0.00173952 0.00243072 0.01228287 0.00690635 0.01817631 0.00290170 0.00284195 0.07669957 0.00494877 0.01309560 0.01424532 0.00103111 
0.04082351 0.06107211 0.01446548 0.00411613 0.00172846 0.00245206 0.01207661 0.00659133 0.01835788 0.00288438 0.00279900 0.07749466 0.00483800 0.01290142 0.01402013 0.00104549 
0.04120687 0.06170242 0.01452171 0.00416490 0.00171727 0.00247368 0.01185374 0.00628016 0.01854552 0.00286583 0.00275511 0.07828459 0.00472902 0.01269184 0.01379107 0.00106085 
0.04157243 0.06236592 0.01456193 0.00421524 0.00170604 0.00249547 0.01161514 0.00597397 0.01873903 0.00284611 0.00271034 0.07906659 0.00462206 0.01246784 0.01355869 0.00107713 
0.04191946 0.06306050 0.01458589 0.00426691 0.00169482 0.00251735 0.01136175 0.00567389 0.01893822 0.00282528 0.00266475 0.07983791 0.00451734 0.01223050 0.01332351 0.00109429 
0.04224735 0.06378370 0.01459340 0.00431964 0.00168367 0.00253923 0.01109458 0.00538099 0.01914293 0.00280338 0.00261839 0.08059582 0.00441508 0.01198098 0.01308605 0.00111227 
0.04255558 0.06453275 0.01458434 0.00437315 0.00167264 0.00256101 0.01081471 0.00509628 0.01935299 0.00278050 0.00257132 0.08133764 0.00431547 0.01172052 0.01284683 0.00113101 
0.04284373 0.06530459 0.01455866 0.00442716 0.00166180 0.00258259 0.01052328 0.00482074 0.01956825 0.00275668 0.00252361 0.08206072 0.00421867 0.01145045 0.01260638 0.00115045 
0.04311143 0.06609585 0.01451636 0.00448138 0.00165120 0.00260387 0.01022149 0.00455529 0.01978854 0.00273200 0.00247533 0.08276248 0.00412487 0.01117213 0.01236520 0.00117052 
0.04335843 0.06690287 0.01445752 0.00453552 0.00164089 0.00262474 0.00991058 0.00430077 0.02001373 0.00270652 0.00242654 0.08344040 0.00403420 0.01088702 0.01212379 0.00119115 
0.04358454 0.06772174 0.01438227 0.00458926 0.00163091 0.00264511 0.00959185 0.00405796 0.02024367 0.00268030 0.00237734 0.08409204 0.00394679 0.01059660 0.01188264 0.00121227 
0.04378965 0.06854831 0.01429081 0.00464232 0.00162132 0.00266487 0.00926662 0.00382760 0.02047821 0.00265342 0.00232779 0.08471504 0.00386276 0.01030239 0.01164222 0.00123379 
0.04397371 0.06937819 0.01418338 0.00469439 0.00161213 0.00268392 0.00893628 0.00361032 0.02071721 0.00262594 0.00227798 0.08530713 0.00378220 0.01000594 0.01140300 0.00125565 
0.04413674 0.07020680 0.01406029 0.00474516 0.00160340 0.00270214 0.00860221 0.00340671 0.02096053 0.00259794 0.00222800 0.08586614 0.00370519 0.00970885 0.01116543 0.00127775 
0.04427881 0.07102938 0.01392189 0.00479436 0.00159516 0.00271944 0.00826583 0.00321726 0.02120801 0.00256947 0.00217793 0.08639002 0.00363179 0.00941270 0.01092996 0.00130001 
0.04440006 0.07184103 0.01376859 0.00484168 0.00158742 0.00273572 0.00792857 0.00304241 0.02145950 0.00254061 0.00212789 0.08687683 0.00356205 0.00911908 0.01069702 0.00132235 
0.04450067 0.07263672 0.01360084 0.00488684 0.00158021 0.00275086 0.00759188 0.00288249 0.02171484 0.00251143 0.00207795 0.08732475 0.00349600 0.00882957 0.01046700 0.00134467 
0.04458084 0.07341135 0.01341913 0.00492959 0.00157355 0.00276478 0.00725721 0.00273780 0.02197387 0.00248199 0.00202824 0.08773208 0.00343367 0.00854575 0.01024032 0.00136691 
0.04464083 0.07415976 0.01322399 0.00496965 0.00156744 0.00277738 0.00692599 0.00260851 0.02223642 0.00245237 0.00197886 0.08809729 0.00337505 0.00826915 0.01001734 0.00138895 
0.04468092 0.07487676 0.01301599 0.00500680 0.00156190 0.00278857 0.00659967 0.00249476 0.02250231 0.00242264 0.00192992 0.08841897 0.00332015 0.00800127 0.00979844 0.00141074 
0.04470141 0.07555718 0.01279572 0.00504079 0.00155691 0.00279825 0.00627966 0.00239658 0.02277138 0.00239285 0.00188155 0.08869586 0.00326893 0.00774358 0.00958397 0.00143216 
0.04470263 0.07619592 0.01256382 0.00507141 0.00155248 0.00280635 0.00596735 0.00231395 0.02304344 0.00236309 0.00183385 0.08892685 0.00322139 0.00749749 0.00937426 0.00145316 
0.04468491 0.07678793 0.01232093 0.00509847 0.00154861 0.00281278 0.00566413 0.00224678 0.02331831 0.00233342 0.00178696 0.08911101 0.00317746 0.00726432 0.00916964 0.00147364 
0.04464860 0.07732831 0.01206773 0.00512180 0.00154526 0.00281747 0.00537131 0.00219487 0.02359580 0.00230391 0.00174102 0.08924756 0.00313712 0.00704536 0.00897041 0.00149352 
0.04459405 0.07781230 0.01180492 0.00514125 0.00154243 0.00282036 0.00509021 0.00215801 0.02387573 0.00227463 0.00169615 0.08933587 0.00310029 0.00684179 0.00877686 0.00151273 
0.04452161 0.07823536 0.01153320 0.00515667 0.00154009 0.00282138 0.00482205 0.00213588 0.02415791 0.00224564 0.00165249 0.08937550 0.00306694 0.00665472 0.00858926 0.00153120 
0.04443161 0.07859316 0.01125330 0.00516795 0.00153821 0.00282048 0.00456805 0.00212811 0.02444217 0.00221702 0.00161020 0.08936619 0.00303698 0.00648518 0.00840790 0.00154887 
0.04432441 0.07888164 0.01096597 0.00517502 0.00153677 0.00281761 0.00432934 0.00213429 0.02472832 0.00218883 0.00156940 0.08930784 0.00301036 0.00633406 0.00823300 0.00156566 
0.04420033 0.07909705 0.01067194 0.00517780 0.00153573 0.00281273 0.00410701 0.00215394 0.02501618 0.00216115 0.00153026 0.08920052 0.00298701 0.00620219 0.00806482 0.00158151 
0.04405968 0.07923596 0.01037197 0.00517625 0.00153504 0.00280583 0.00390205 0.00218652 0.02530561 0.00213403 0.00149293 0.08904449 0.00296684 0.00609028 0.00790359 0.00159639 
0.04390279 0.07929531 0.01006681 0.00517035 0.00153468 0.00279686 0.00371542 0.00223147 0.02559643 0.00210755 0.00145756 0.08884018 0.00294980 0.00599890 0.00774951 0.00161022 
0.04372993 0.07927245 0.00975724 0.00516011 0.00153460 0.00278583 0.00354797 0.00228815 0.02588850 0.00208179 0.00142431 0.08858820 0.00293582 0.00592854 0.00760281 0.00162298 
0.04354138 0.07916512 0.00944402 0.00514555 0.00153475 0.00277272 0.00340049 0.00235593 0.02618168 0.00205680 0.00139335 0.08828933 0.00292482 0.00587955 0.00746367 0.00163461 
0.04333739 0.07897154 0.00912791 0.00512673 0.00153509 0.00275755 0.00327369 0.00243410 0.02647586 0.00203266 0.00136483 0.08794454 0.00291675 0.00585218 0.00733229 0.00164510 
0.04311822 0.07869038 0.00880967 0.00510372 0.00153557 0.00274034 0.00316818 0.00252195 0.02677093 0.00200943 0.00133892 0.08755495 0.00291154 0.00584653 0.00720885 0.00165441 
0.04288409 0.07832081 0.00849009 0.00507661 0.00153615 0.00272110 0.00308449 0.00261875 0.02706680 0.00198719 0.00131577 0.08712187 0.00290915 0.00586261 0.00709354 0.00166252 
0.04263522 0.07786250 0.00816992 0.00504552 0.00153679 0.00269987 0.00302304 0.00272372 0.02736339 0.00196600 0.00129556 0.08664678 0.00290952 0.00590029 0.00698652 0.00166941 
0.04237180 0.07731566 0.00784994 0.00501058 0.00153743 0.00267670 0.00298419 0.00283609 0.02766064 0.00194594 0.00127844 0.08613131 0.00291261 0.00595932 0.00688796 0.00167509 
0.04209402 0.07668101 0.00753090 0.00497195 0.00153803 0.00265166 0.00296817 0.00295509 0.02795853 0.00192707 0.00126457 0.08557725 0.00291839 0.00603934 0.00679803 0.00167955 
0.04180207 0.07595982 0.00721359 0.00492979 0.00153856 0.00262480 0.00297514 0.00307993 0.02825701 0.00190946 0.00125411 0.08498657 0.00292683 0.00613988 0.00671688 0.00168278 
0.04149612 0.07515393 0.00689876 0.00488428 0.00153896 0.00259620 0.00300515 0.00320980 0.02855610 0.00189317 0.00124721 0.08436136 0.00293792 0.00626034 0.00664469 0.00168481 
0.04117633 0.07426568 0.00658718 0.00483564 0.00153921 0.00256595 0.00305815 0.00334394 0.02885579 0.00187828 0.00124403 0.08370390 0.00295163 0.00640004 0.00658160 0.00168564 
0.04084289 0.07329799 0.00627964 0.00478408 0.00153927 0.00253416 0.00313400 0.00348156 0.02915613 0.00186484 0.00124470 0.08301658 0.00296797 0.00655817 0.00652778 0.00168529 
0.04049594 0.07225429 0.00597690 0.00472981 0.00153911 0.00250092 0.00323245 0.00362190 0.02945716 0.00185293 0.00124935 0.08230193 0.00298694 0.00673386 0.00648338 0.00168380 
0.04013568 0.07113857 0.00567974 0.00467307 0.00153870 0.00246635 0.00335318 0.00376422 0.02975892 0.00184260 0.00125813 0.08156263 0.00300855 0.00692610 0.00644857 0.00168120 
0.03976228 0.06995530 0.00538896 0.00461411 0.00153802 0.00243058 0.00349575 0.00390779 0.03006149 0.00183392 0.00127115 0.08080148 0.00303282 0.00713386 0.00642351 0.00167752 
0.03937594 0.06870945 0.00510534 0.00455317 0.00153705 0.00239376 0.00365964 0.00405191 0.03036496 0.00182693 0.00128853 0.08002139 0.00305977 0.00735597 0.00640835 0.00167280 
0.03897686 0.06740647 0.00482967 0.00449051 0.00153578 0.00235601 0.00384423 0.00419591 0.03066939 0.00182171 0.00131036 0.07922540 0.00308943 0.00759125 0.00640327 0.00166709 
0.03856527 0.06605225 0.00456277 0.00442637 0.00153419 0.00231749 0.00404883 0.00433915 0.03097490 0.00181829 0.00133674 0.07841665 0.00312185 0.00783841 0.00640843 0.00166043 
0.03814142 0.06465310 0.00430546 0.00436103 0.00153230 0.00227837 0.00427265 0.00448101 0.03128155 0.00181673 0.00136774 0.07759839 0.00315706 0.00809614 0.00642399 0.00165289 
0.03770558 0.06321572 0.00405855 0.00429472 0.00153009 0.00223881 0.00451482 0.00462092 0.03158946 0.00181708 0.00140343 0.07677394 0.00319511 0.00836309 0.00645014 0.00164452 
0.03725803 0.06174715 0.00382288 0.00422771 0.00152757 0.00219898 0.00477441 0.00475836 0.03189870 0.00181937 0.00144386 0.07594674 0.00323604 0.00863787 0.00648704 0.00163537 
0.03679912 0.06025475 0.00359929 0.00416025 0.00152476 0.00215907 0.00505040 0.00489281 0.03220935 0.00182364 0.00148906 0.07512029 0.00327991 0.00891904 0.00653486 0.00162551 
0.03632919 0.05874616 0.00338865 0.00409258 0.00152166 0.00211926 0.00534171 0.00502384 0.03252148 0.00182993 0.00153906 0.07429818 0.00332676 0.00920519 0.00659379 0.00161501 
0.03584865 0.05722922 0.00319180 0.00402494 0.00151831 0.00207974 0.00564719 0.00515104 0.03283513 0.00183826 0.00159385 0.07348405 0.00337665 0.00949487 0.00666400 0.00160392 
0.03535791 0.05571200 0.00300964 0.00395755 0.00151473 0.00204071 0.00596565 0.00527403 0.03315035 0.00184865 0.00165342 0.07268161 0.00342961 0.00978665 0.00674567 0.00159232 
0.03485745 0.05420265 0.00284303 0.00389065 0.00151094 0.00200235 0.00629584 0.00539249 0.03346713 0.00186111 0.00171774 0.07189461 0.00348571 0.01007912 0.00683898 0.00158027 
0.03434777 0.05270946 0.00269287 0.00382443 0.00150698 0.00196488 0.00663646 0.00550615 0.03378547 0.00187566 0.00178675 0.07112687 0.00354497 0.01037088 0.00694409 0.00156784 
0.03382942 0.05124071 0.00256004 0.00375910 0.00150290 0.00192849 0.00698617 0.00561478 0.03410531 0.00189230 0.00186037 0.07038221 0.00360743 0.01066056 0.00706119 0.00155510 
0.03330299 0.04980469 0.00244546 0.00369485 0.00149872 0.00189338 0.00734362 0.00571820 0.03442658 0.00191102 0.00193852 0.06966451 0.00367311 0.01094683 0.00719044 0.00154212 
0.03276910 0.04840962 0.00235000 0.00363184 0.00149451 0.00185976 0.00770740 0.00581625 0.03474916 0.00193181 0.00202108 0.06897765 0.00374205 0.01122843 0.00733200 0.00152895 
0.03222843 0.04706360 0.00227457 0.00357023 0.00149029 0.00182782 0.00807610 0.00590884 0.03507289 0.00195465 0.00210792 0.06832553 0.00381424 0.01150412 0.00748603 0.00151568 
0.03168169 0.04577454 0.00222005 0.00351018 0.00148613 0.00179777 0.00844831 0.00599592 0.03539759 0.00197951 0.00219887 0.06771205 0.00388969 0.01177275 0.00765268 0.00150236 
0.03112963 0.04455014 0.00218733 0.00345180 0.00148208 0.00176980 0.00882258 0.00607747 0.03572299 0.00200636 0.00229377 0.06714110 0.00396838 0.01203323 0.00783209 0.00148904 
0.03057306 0.04339782 0.00217727 0.00339522 0.00147818 0.00174410 0.00919749 0.00615351 0.03604883 0.00203515 0.00239241 0.06661655 0.00405028 0.01228455 0.00802437 0.00147581 
0.03001281 0.04232469 0.00219073 0.00334053 0.00147450 0.00172085 0.00957161 0.00622410 0.03637475 0.00206584 0.00249458 0.06614226 0.00413536 0.01252578 0.00822964 0.00146270 
0.02944974 0.04133744 0.00222852 0.00328781 0.00147108 0.00170024 0.00994355 0.00628935 0.03670037 0.00209835 0.00260003 0.06572203 0.00422356 0.01275608 0.00844800 0.00144978 
0.02888478 0.04044239 0.00229145 0.00323715 0.00146798 0.00168244 0.01031191 0.00634938 0.03702526 0.00213262 0.00270851 0.06535962 0.00431481 0.01297470 0.00867952 0.00143710 
0.02831886 0.03964535 0.00238029 0.00318858 0.00146525 0.00166762 0.01067533 0.00640435 0.03734892 0.00216858 0.00281974 0.06505874 0.00440901 0.01318100 0.00892425 0.00142470 
0.02775297 0.03895164 0.00249576 0.00314216 0.00146294 0.00165593 0.01103249 0.00645446 0.03767082 0.00220614 0.00293342 0.06482302 0.00450608 0.01337440 0.00918223 0.00141263 
0.02718812 0.03836604 0.00263855 0.00309790 0.00146110 0.00164752 0.01138211 0.00649992 0.03799035 0.00224520 0.00304923 0.06465600 0.00460587 0.01355447 0.00945346 0.00140093 
0.02662533 0.03789271 0.00280928 0.00305583 0.00145978 0.00164253 0.01172296 0.00654096 0.03830689 0.00228567 0.00316683 0.06456115 0.00470825 0.01372085 0.00973792 0.00138964 
0.02606567 0.03753523 0.00300855 0.00301593 0.00145901 0.00164108 0.01205383 0.00657784 0.03861973 0.00232742 0.00328589 0.06454179 0.00481305 0.01387330 0.01003556 0.00137880 
0.02551023 0.03729650 0.00323686 0.00297819 0.00145885 0.00164329 0.01237362 0.00661085 0.03892815 0.00237035 0.00340604 0.06460117 0.00492011 0.01401167 0.01034629 0.00136843 
0.02496011 0.03717876 0.00349465 0.00294260 0.00145932 0.00164926 0.01268126 0.00664026 0.03923134 0.00241434 0.00352690 0.06474235 0.00502921 0.01413593 0.01066999 0.00135855 
0.02441643 0.03718356 0.00378229 0.00290912 0.00146046 0.00165907 0.01297574 0.00666638 0.03952850 0.00245924 0.00364809 0.06496828 0.00514014 0.01424614 0.01100650 0.00134920 
0.02388033 0.03731173 0.00410007 0.00287770 0.00146230 0.00167279 0.01325614 0.00668952 0.03981875 0.00250492 0.00376920 0.06528173 0.00525267 0.01434246 0.01135562 0.00134039 
0.02335295 0.03756337 0.00444818 0.00284830 0.00146485 0.00169048 0.01352161 0.00670998 0.04010119 0.00255124 0.00388982 0.06568527 0.00536654 0.01442516 0.01171711 0.00133214 
0.02283545 0.03793785 0.00482671 0.00282085 0.00146813 0.00171219 0.01377138 0.00672809 0.04037488 0.00259804 0.00400955 0.06618131 0.00548149 0.01449458 0.01209068 0.00132445 
0.02232898 0.03843380 0.00523568 0.00279529 0.00147217 0.00173792 0.01400476 0.00674416 0.04063888 0.00264518 0.00412796 0.06677203 0.00559721 0.01455118 0.01247599 0.00131733 
0.02183470 0.03904912 0.00567496 0.00277155 0.00147695 0.00176770 0.01422114 0.00675850 0.04089219 0.00269249 0.00424464 0.06745938 0.00571342 0.01459548 0.01287268 0.00131078 
0.02135377 0.03978098 0.00614434 0.00274955 0.00148249 0.00180152 0.01442001 0.00677140 0.04113381 0.00273981 0.00435916 0.06824507 0.00582979 0.01462810 0.01328030 0.00130481 
0.02088734 0.04062582 0.00664348 0.00272921 0.00148877 0.00183933 0.01460093 0.00678318 0.04136273 0.00278698 0.00447109 0.06913055 0.00594599 0.01464971 0.01369837 0.00129941 
0.02043656 0.04157938 0.00717192 0.00271046 0.00149579 0.00188111 0.01476357 0.00679409 0.04157793 0.00283382 0.00458003 0.07011702 0.00606167 0.01466106 0.01412636 0.00129457 
0.02000256 0.04263672 0.00772907 0.00269322 0.00150352 0.00192677 0.01490766 0.00680443 0.04177840 0.00288018 0.00468556 0.07120534 0.00617648 0.01466298 0.01456367 0.00129028 
0.01958647 0.04379224 0.00831422 0.00267739 0.00151196 0.00197625 0.01503305 0.00681443 0.04196311 0.00292587 0.00478726 0.07239612 0.00629005 0.01465631 0.01500967 0.00128654 
0.01918938 0.04503971 0.00892652 0.00266291 0.00152105 0.00202944 0.01513966 0.00682433 0.04213107 0.00297073 0.00488476 0.07368962 0.00640202 0.01464198 0.01546364 0.00128332 
0.01881240 0.04637230 0.00956499 0.00264969 0.00153079 0.00208623 0.01522751 0.00683435 0.04228129 0.00301459 0.00497765 0.07508576 0.00651199 0.01462093 0.01592485 0.00128060 
0.01845657 0.04778260 0.01022851 0.00263765 0.00154112 0.00214647 0.01529670 0.00684467 0.04241282 0.00305729 0.00506559 0.07658414 0.00661959 0.01459415 0.01639247 0.00127837 
0.01812296 0.04926273 0.01091583 0.00262673 0.00155200 0.00221000 0.01534741 0.00685547 0.04252473 0.00309864 0.00514820 0.07818399 0.00672442 0.01456264 0.01686565 0.00127660 
0.01781257 0.05080429 0.01162556 0.00261686 0.00156338 0.00227667 0.01537992 0.00686689 0.04261614 0.00313851 0.00522516 0.07988417 0.00682611 0.01452741 0.01734348 0.00127527 
0.01752640 0.05239847 0.01235619 0.00260796 0.00157522 0.00234628 0.01539456 0.00687905 0.04268620 0.00317672 0.00529615 0.08168315 0.00692425 0.01448950 0.01782498 0.00127435 
0.01726541 0.05403610 0.01310605 0.00259998 0.00158746 0.00241862 0.01539177 0.00689205 0.04273414 0.00321313 0.00536087 0.08357902 0.00701847 0.01444992 0.01830915 0.00127382 
0.01703052 0.05570766 0.01387337 0.00259287 0.00160004 0.00249346 0.01537203 0.00690594 0.04275922 0.00324758 0.00541906 0.08556948 0.00710839 0.01440969 0.01879492 0.00127365 
0.01682263 0.05740340 0.01465624 0.00258658 0.00161289 0.00257059 0.01533592 0.00692077 0.04276078 0.00327995 0.00547048 0.08765182 0.00719362 0.01436979 0.01928118 0.00127381 
0.01664259 0.05911332 0.01545261 0.00258105 0.00162597 0.00264973 0.01528405 0.00693656 0.04273824 0.00331008 0.00551490 0.08982292 0.00727382 0.01433121 0.01976678 0.00127427 
0.01649124 0.06082732 0.01626036 0.00257627 0.00163919 0.00273063 0.01521712 0.00695329 0.04269108 0.00333787 0.00555213 0.09207925 0.00734861 0.01429488 0.02025054 0.00127501 
0.01636935 0.06253519 0.01707722 0.00257219 0.00165250 0.00281301 0.01513587 0.00697092 0.04261888 0.00336319 0.00558203 0.09441688 0.00741767 0.01426168 0.02073124 0.00127598 
0.01627766 0.06422669 0.01790083 0.00256878 0.00166584 0.00289658 0.01504108 0.00698939 0.04252131 0.00338594 0.00560445 0.09683146 0.00748066 0.01423247 0.02120762 0.00127717 
0.01621687 0.06589164 0.01872876 0.00256604 0.00167913 0.00298103 0.01493359 0.00700861 0.04239813 0.00340601 0.00561930 0.09931825 0.00753728 0.01420804 0.02167841 0.00127854 
0.01618763 0.06751995 0.01955845 0.00256394 0.00169231 0.00306607 0.01481426 0.00702847 0.04224921 0.00342333 0.00562652 0.10187208 0.00758722 0.01418913 0.02214232 0.00128008 
0.01619054 0.06910168 0.02038732 0.00256248 0.00170531 0.00315136 0.01468399 0.00704884 0.04207452 0.00343781 0.00562607 0.10448741 0.00763023 0.01417640 0.02259803 0.00128174 
0.01622617 0.07062714 0.02121267 0.00256165 0.00171809 0.00323660 0.01454370 0.00706956 0.04187414 0.00344940 0.00561795 0.10715833 0.00766604 0.01417044 0.02304422 0.00128350 
0.01629501 0.07208690 0.02203179 0.00256145 0.00173057 0.00332144 0.01439434 0.00709046 0.04164828 0.00345804 0.00560221 0.10987852 0.00769444 0.01417178 0.02347957 0.00128534 
0.01639753 0.07347188 0.02284192 0.00256189 0.00174271 0.00340556 0.01423687 0.00711136 0.04139726 0.00346369 0.00557890 0.11264136 0.00771521 0.01418087 0.02390276 0.00128723 
0.01653412 0.07477342 0.02364025 0.00256297 0.00175444 0.00348862 0.01407224 0.00713206 0.04112151 0.00346631 0.00554813 0.11543984 0.00772817 0.01419805 0.02431247 0.00128915 
0.01670512 0.07598327 0.02442398 0.00256470 0.00176572 0.00357028 0.01390141 0.00715233 0.04082161 0.00346591 0.00551003 0.11826666 0.00773319 0.01422361 0.02470741 0.00129109 
0.01691082 0.07709372 0.02519030 0.00256710 0.00177651 0.00365021 0.01372535 0.00717195 0.04049825 0.00346247 0.00546477 0.12111423 0.00773013 0.01425774 0.02508631 0.00129301 
0.01715145 0.07809760 0.02593642 0.00257016 0.00178676 0.00372808 0.01354499 0.00719070 0.04015225 0.00345600 0.00541254 0.12397468 0.00771890 0.01430052 0.02544792 0.00129490 
0.01742716 0.07898831 0.02665955 0.00257392 0.00179644 0.00380356 0.01336126 0.00720833 0.03978456 0.00344652 0.00535358 0.12683988 0.00769944 0.01435198 0.02579103 0.00129675 
0.01773806 0.07975993 0.02735697 0.00257837 0.00180553 0.00387632 0.01317506 0.00722461 0.03939628 0.00343408 0.00528813 0.12970152 0.00767171 0.01441202 0.02611449 0.00129853 
0.01808417 0.08040718 0.02802601 0.00258353 0.00181399 0.00394604 0.01298727 0.00723930 0.03898861 0.00341871 0.00521648 0.13255107 0.00763572 0.01448048 0.02641718 0.00130025 
0.01846545 0.08092551 0.02866405 0.00258941 0.00182180 0.00401244 0.01279873 0.00725216 0.03856289 0.00340048 0.00513895 0.13537987 0.00759150 0.01455709 0.02669804 0.00130188 
0.01888181 0.08131107 0.02926858 0.00259601 0.00182896 0.00407519 0.01261025 0.00726296 0.03812060 0.00337946 0.00505587 0.13817914 0.00753910 0.01464152 0.02695608 0.00130342 
0.01933305 0.08156080 0.02983716 0.00260334 0.00183545 0.00413403 0.01242257 0.00727148 0.03766332 0.00335573 0.00496759 0.14094001 0.00747863 0.01473333 0.02719038 0.00130486 
0.01981893 0.08167239 0.03036749 0.00261140 0.00184128 0.00418868 0.01223642 0.00727750 0.03719278 0.00332939 0.00487450 0.14365358 0.00741021 0.01483201 0.02740011 0.00130619 
0.02033911 0.08164435 0.03085737 0.00262017 0.00184645 0.00423888 0.01205246 0.00728082 0.03671080 0.00330054 0.00477698 0.14631093 0.00733401 0.01493697 0.02758448 0.00130741 
0.02089318 0.08147597 0.03130474 0.00262966 0.00185096 0.00428440 0.01187130 0.00728127 0.03621933 0.00326928 0.00467546 0.14890320 0.00725021 0.01504755 0.02774285 0.00130852 
0.02148065 0.08116733 0.03170772 0.00263984 0.00185484 0.00432501 0.01169350 0.00727867 0.03572042 0.00323576 0.00457036 0.15142157 0.00715904 0.01516303 0.02787462 0.00130952 
0.02210096 0.08071932 0.03206455 0.00265070 0.00185810 0.00436052 0.01151955 0.00727288 0.03521623 0.00320009 0.00446213 0.15385739 0.00706075 0.01528260 0.02797933 0.00131040 
0.02275345 0.08013364 0.03237366 0.00266220 0.00186076 0.00439074 0.01134989 0.00726377 0.03470899 0.00316242 0.00435120 0.15620212 0.00695564 0.01540542 0.02805659 0.00131118 
0.02343738 0.07941276 0.03263368 0.00267431 0.00186286 0.00441552 0.01118489 0.00725123 0.03420104 0.00312289 0.00423803 0.15844745 0.00684401 0.01553058 0.02810615 0.00131184 
0.02415194 0.07855991 0.03284339 0.00268699 0.00186443 0.00443471 0.01102486 0.00723520 0.03369478 0.00308166 0.00412309 0.16058532 0.00672622 0.01565713 0.02812784 0.00131241 
0.02489623 0.07757908 0.03300182 0.00270019 0.00186551 0.00444820 0.01087007 0.00721561 0.03319270 0.00303889 0.00400683 0.16260793 0.00660263 0.01578409 0.02812164 0.00131287 
0.02566926 0.07647496 0.03310816 0.00271385 0.00186613 0.00445591 0.01072070 0.00719245 0.03269733 0.00299474 0.00388973 0.16450784 0.00647365 0.01591043 0.02808761 0.00131325 
0.02646996 0.07525296 0.03316184 0.00272792 0.00186635 0.00445777 0.01057687 0.00716572 0.03221124 0.00294937 0.00377223 0.16627794 0.00633971 0.01603512 0.02802595 0.00131354 
0.02729718 0.07391911 0.03316251 0.00274233 0.00186620 0.00445375 0.01043866 0.00713545 0.03173705 0.00290296 0.00365479 0.16791157 0.00620125 0.01615708 0.02793699 0.00131376 
0.02814970 0.07248008 0.03311002 0.00275700 0.00186573 0.00444382 0.01030607 0.00710170 0.03127740 0.00285568 0.00353786 0.16940248 0.00605874 0.01627526 0.02782116 0.00131391 
0.02902620 0.07094311 0.03300447 0.00277185 0.00186501 0.00442802 0.01017907 0.00706457 0.03083495 0.00280770 0.00342186 0.17074491 0.00591269 0.01638858 0.02767900 0.00131401 
0.02992529 0.06931598 0.03284616 0.00278680 0.00186406 0.00440637 0.01005755 0.00702417 0.03041233 0.00275919 0.00330724 0.17193361 0.00576361 0.01649597 0.02751121 0.00131405 
0.03084552 0.06760692 0.03263563 0.00280175 0.00186295 0.00437895 0.00994137 0.00698067 0.03001218 0.00271034 0.00319439 0.17296389 0.00561203 0.01659639 0.02731857 0.00131405 
0.03178534 0.06582463 0.03237365 0.00281662 0.00186172 0.00434586 0.00983032 0.00693423 0.02963710 0.00266130 0.00308371 0.17383161 0.00545850 0.01668880 0.02710199 0.00131402 
0.03274317 0.06397816 0.03206119 0.00283129 0.00186042 0.00430721 0.00972418 0.00688507 0.02928964 0.00261225 0.00297557 0.17453325 0.00530358 0.01677220 0.02686249 0.00131397 
0.03371735 0.06207689 0.03169946 0.00284567 0.00185910 0.00426316 0.00962266 0.00683343 0.02897232 0.00256336 0.00287034 0.17506590 0.00514786 0.01684564 0.02660120 0.00131391 
0.03470614 0.06013046 0.03128987 0.00285966 0.00185781 0.00421389 0.00952545 0.00677955 0.02868755 0.00251478 0.00276835 0.17542731 0.00499191 0.01690819 0.02631934 0.00131384 
0.03570778 0.05814871 0.03083404 0.00287315 0.00185658 0.00415958 0.00943222 0.00672372 0.02843768 0.00246668 0.00266991 0.17561587 0.00483633 0.01695898 0.02601825 0.00131377 
0.03672046 0.05614163 0.03033380 0.00288603 0.00185547 0.00410047 0.00934259 0.00666625 0.02822494 0.00241921 0.00257531 0.17563067 0.00468173 0.01699721 0.02569935 0.00131370 
0.03774230 0.05411930 0.02979115 0.00289819 0.00185449 0.00403680 0.00925618 0.00660747 0.02805146 0.00237252 0.00248482 0.17547146 0.00452870 0.01702212 0.02536414 0.00131366 
0.03877143 0.05209182 0.02920828 0.00290955 0.00185369 0.00396886 0.00917260 0.00654771 0.02791923 0.00232673 0.00239869 0.17513871 0.00437785 0.01703303 0.02501421 0.00131363 
0.03980591 0.05006925 0.02858756 0.00291998 0.00185310 0.00389692 0.00909143 0.00648733 0.02783009 0.00228200 0.00231712 0.17463356 0.00422979 0.01702936 0.02465121 0.00131363 
0.04084381 0.04806156 0.02793151 0.00292940 0.00185274 0.00382130 0.00901227 0.00642672 0.02778573 0.00223844 0.00224030 0.17395786 0.00408513 0.01701056 0.02427687 0.00131365 
0.04188318 0.04607857 0.02724280 0.00293770 0.00185264 0.00374234 0.00893470 0.00636624 0.02778768 0.00219618 0.00216840 0.17311416 0.00394445 0.01697620 0.02389296 0.00131370 
0.04292206 0.04412988 0.02652423 0.00294481 0.00185279 0.00366038 0.00885832 0.00630628 0.02783727 0.00215532 0.00210156 0.17210567 0.00380835 0.01692594 0.02350129 0.00131379 
0.04395851 0.04222484 0.02577873 0.00295063 0.00185322 0.00357579 0.00878273 0.00624725 0.02793565 0.00211597 0.00203988 0.17093628 0.00367741 0.01685951 0.02310373 0.00131390 
0.04499059 0.04037247 0.02500932 0.00295510 0.00185394 0.00348895 0.00870757 0.00618952 0.02808376 0.00207821 0.00198345 0.16961054 0.00355219 0.01677675 0.02270215 0.00131404 
0.04601639 0.03858143 0.02421912 0.00295814 0.00185493 0.00340025 0.00863248 0.00613351 0.02828232 0.00204214 0.00193232 0.16813363 0.00343324 0.01667759 0.02229844 0.00131422 
0.04703403 0.03685998 0.02341133 0.00295969 0.00185620 0.00331010 0.00855714 0.00607958 0.02853184 0.00200782 0.00188653 0.16651135 0.00332111 0.01656205 0.02189451 0.00131441 
0.04804166 0.03521588 0.02258920 0.00295971 0.00185774 0.00321890 0.00848125 0.00602813 0.02883260 0.00197534 0.00184608 0.16475007 0.00321630 0.01643026 0.02149226 0.00131463 
0.04903749 0.03365643 0.02175602 0.00295815 0.00185952 0.00312708 0.00840454 0.00597952 0.02918463 0.00194473 0.00181095 0.16285672 0.00311930 0.01628245 0.02109357 0.00131486 
0.05001979 0.03218837 0.02091511 0.00295499 0.00186153 0.00303505 0.00832680 0.00593411 0.02958774 0.00191606 0.00178112 0.16083877 0.00303059 0.01611893 0.02070028 0.00131510 
0.05098688 0.03081788 0.02006981 0.00295021 0.00186375 0.00294325 0.00824785 0.00589224 0.03004148 0.00188936 0.00175652 0.15870416 0.00295061 0.01594013 0.02031423 0.00131533 
0.05193718 0.02955053 0.01922345 0.00294380 0.00186615 0.00285211 0.00816755 0.00585421 0.03054516 0.00186466 0.00173706 0.15646127 0.00287976 0.01574656 0.01993718 0.00131556 
0.05286917 0.02839127 0.01837931 0.00293577 0.00186869 0.00276203 0.00808581 0.00582034 0.03109784 0.00184199 0.00172265 0.15411890 0.00281843 0.01553881 0.01957085 0.00131578 
0.05378141 0.02734440 0.01754068 0.00292614 0.00187134 0.00267346 0.00800260 0.00579089 0.03169835 0.00182137 0.00171317 0.15168621 0.00276698 0.01531759 0.01921689 0.00131596 
0.05467259 0.02641356 0.01671075 0.00291493 0.00187406 0.00258681 0.00791792 0.00576610 0.03234526 0.00180279 0.00170848 0.14917267 0.00272570 0.01508367 0.01887688 0.00131611 
0.05554147 0.02560168 0.01589268 0.00290221 0.00187680 0.00250248 0.00783183 0.00574618 0.03303690 0.00178627 0.00170844 0.14658803 0.00269487 0.01483790 0.01855229 0.00131622 
0.05638693 0.02491105 0.01508951 0.00288801 0.00187953 0.00242088 0.00774445 0.00573133 0.03377138 0.00177179 0.00171289 0.14394223 0.00267475 0.01458121 0.01824454 0.00131626 
0.05720796 0.02434324 0.01430420 0.00287242 0.00188220 0.00234239 0.00765595 0.00572168 0.03454656 0.00175935 0.00172164 0.14124542 0.00266551 0.01431461 0.01795491 0.00131623 
0.05800368 0.02389914 0.01353961 0.00285550 0.00188477 0.00226738 0.00756655 0.00571736 0.03536011 0.00174892 0.00173452 0.13850784 0.00266731 0.01403916 0.01768459 0.00131611 
0.05877331 0.02357896 0.01279846 0.00283737 0.00188718 0.00219623 0.00747650 0.00571843 0.03620947 0.00174048 0.00175134 0.13573980 0.00268027 0.01375598 0.01743464 0.00131591 
0.05951621 0.02338221 0.01208332 0.00281811 0.00188939 0.00212926 0.00738613 0.00572494 0.03709188 0.00173400 0.00177188 0.13295161 0.00270446 0.01346625 0.01720601 0.00131559 
0.06023186 0.02330776 0.01139664 0.00279785 0.00189135 0.00206680 0.00729581 0.00573688 0.03800442 0.00172945 0.00179595 0.13015356 0.00273988 0.01317117 0.01699951 0.00131516 
0.06091985 0.02335384 0.01074071 0.00277672 0.00189303 0.00200916 0.00720595 0.00575423 0.03894396 0.00172679 0.00182334 0.12735585 0.00278651 0.01287200 0.01681583 0.00131460 
0.06157993 0.02351803 0.01011762 0.00275484 0.00189438 0.00195661 0.00711698 0.00577691 0.03990726 0.00172598 0.00185383 0.12456852 0.00284429 0.01257001 0.01665551 0.00131390 
0.06221194 0.02379735 0.00952931 0.00273238 0.00189536 0.00190940 0.00702942 0.00580480 0.04089090 0.00172697 0.00188721 0.12180143 0.00291309 0.01226651 0.01651896 0.00131305 
0.06281587 0.02418821 0.00897755 0.00270947 0.00189593 0.00186778 0.00694378 0.00583775 0.04189136 0.00172971 0.00192326 0.11906419 0.00299273 0.01196279 0.01640644 0.00131204 
0.06339182 0.02468650 0.00846389 0.00268628 0.00189606 0.00183194 0.00686061 0.00587557 0.04290500 0.00173417 0.00196178 0.11636612 0.00308300 0.01166018 0.01631806 0.00131087 
0.06394000 0.02528762 0.00798971 0.00266298 0.00189572 0.00180207 0.00678051 0.00591804 0.04392812 0.00174028 0.00200255 0.11371622 0.00318363 0.01135998 0.01625381 0.00130953 
0.06446075 0.02598646 0.00755617 0.00263974 0.00189489 0.00177830 0.00670408 0.00596489 0.04495692 0.00174799 0.00204536 0.11112309 0.00329431 0.01106349 0.01621349 0.00130801 
0.06495451 0.02677754 0.00716424 0.00261673 0.00189355 0.00176077 0.00663194 0.00601583 0.04598758 0.00175725 0.00209001 0.10859493 0.00341466 0.01077198 0.01619680 0.00130630 
0.06542181 0.02765494 0.00681469 0.00259414 0.00189169 0.00174955 0.00656472 0.00607054 0.04701624 0.00176801 0.00213630 0.10613947 0.00354429 0.01048670 0.01620327 0.00130441 
0.06586329 0.02861244 0.00650808 0.00257214 0.00188929 0.00174472 0.00650308 0.00612865 0.04803904 0.00178022 0.00218403 0.10376396 0.00368274 0.01020885 0.01623231 0.00130233 
0.06627968 0.02964349 0.00624478 0.00255092 0.00188637 0.00174629 0.00644765 0.00618979 0.04905214 0.00179381 0.00223303 0.10147511 0.00382950 0.00993960 0.01628318 0.00130007 
0.06667176 0.03074132 0.00602492 0.00253066 0.00188291 0.00175427 0.00639907 0.00625354 0.05005172 0.00180873 0.00228311 0.09927909 0.00398403 0.00968006 0.01635500 0.00129762 
0.06704040 0.03189892 0.00584847 0.00251153 0.00187894 0.00176862 0.00635798 0.00631949 0.05103403 0.00182494 0.00233409 0.09718149 0.00414576 0.00943129 0.01644680 0.00129499 
0.06738654 0.03310916 0.00571518 0.00249371 0.00187446 0.00178928 0.00632500 0.00638718 0.05199540 0.00184236 0.00238582 0.09518730 0.00431405 0.00919428 0.01655744 0.00129219 
0.06771115 0.03436478 0.00562462 0.00247737 0.00186952 0.00181615 0.00630072 0.00645615 0.05293225 0.00186097 0.00243813 0.09330088 0.00448825 0.00896995 0.01668571 0.00128921 
0.06801524 0.03565845 0.00557616 0.00246269 0.00186412 0.00184910 0.00628571 0.00652592 0.05384110 0.00188069 0.00249088 0.09152597 0.00466767 0.00875914 0.01683027 0.00128607 
0.06829986 0.03698285 0.00556900 0.00244981 0.00185833 0.00188799 0.00628051 0.00659600 0.05471862 0.00190149 0.00254392 0.08986566 0.00485158 0.00856262 0.01698969 0.00128278 
0.06856606 0.03833066 0.00560216 0.00243888 0.00185216 0.00193263 0.00628564 0.00666592 0.05556164 0.00192330 0.00259712 0.08832241 0.00503923 0.00838107 0.01716245 0.00127935 
0.06881491 0.03969466 0.00567449 0.00243006 0.00184569 0.00198280 0.00630155 0.00673517 0.05636713 0.00194609 0.00265035 0.08689801 0.00522984 0.00821508 0.01734696 0.00127580 
0.06904747 0.04106774 0.00578469 0.00242348 0.00183896 0.00203826 0.00632867 0.00680326 0.05713226 0.00196979 0.00270349 0.08559360 0.00542262 0.00806514 0.01754153 0.00127214 
0.06926478 0.04244294 0.00593130 0.00241924 0.00183203 0.00209875 0.00636737 0.00686972 0.05785439 0.00199437 0.00275644 0.08440970 0.00561675 0.00793165 0.01774445 0.00126838 
0.06946786 0.04381351 0.00611273 0.00241748 0.00182496 0.00216398 0.00641798 0.00693404 0.05853108 0.00201977 0.00280908 0.08334617 0.00581140 0.00781494 0.01795393 0.00126454 
0.06965768 0.04517293 0.00632726 0.00241827 0.00181784 0.00223363 0.00648076 0.00699579 0.05916012 0.00204594 0.00286131 0.08240227 0.00600573 0.00771519 0.01816815 0.00126065 
0.06983517 0.04651496 0.00657304 0.00242171 0.00181073 0.00230737 0.00655591 0.00705449 0.05973953 0.00207284 0.00291305 0.08157664 0.00619889 0.00763253 0.01838528 0.00125673 
0.07000120 0.04783366 0.00684812 0.00242786 0.00180371 0.00238484 0.00664358 0.00710972 0.06026755 0.00210042 0.00296420 0.08086736 0.00639004 0.00756696 0.01860344 0.00125279 
0.07015658 0.04912342 0.00715046 0.00243677 0.00179685 0.00246567 0.00674385 0.00716107 0.06074268 0.00212863 0.00301469 0.08027193 0.00657833 0.00751840 0.01882079 0.00124886 
0.07030202 0.05037899 0.00747793 0.00244850 0.00179025 0.00254946 0.00685674 0.00720815 0.06116365 0.00215742 0.00306443 0.07978734 0.00676293 0.00748666 0.01903545 0.00124496 
0.07043818 0.05159551 0.00782832 0.00246305 0.00178399 0.00263582 0.00698221 0.00725060 0.06152947 0.00218674 0.00311335 0.07941007 0.00694300 0.00747147 0.01924560 0.00124112 
0.07056559 0.05276850 0.00819937 0.00248045 0.00177814 0.00272432 0.00712012 0.00728810 0.06183937 0.00221653 0.00316138 0.07913612 0.00711774 0.00747245 0.01944941 0.00123736 
0.07068471 0.05389394 0.00858876 0.00250067 0.00177279 0.00281454 0.00727031 0.00732033 0.06209285 0.00224674 0.00320845 0.07896110 0.00728636 0.00748916 0.01964513 0.00123370 
0.07079589 0.05496820 0.00899415 0.00252369 0.00176802 0.00290604 0.00743251 0.00734705 0.06228967 0.00227733 0.00325450 0.07888019 0.00744809 0.00752105 0.01983102 0.00123017 
0.07089937 0.05598813 0.00941316 0.00254946 0.00176391 0.00299839 0.00760642 0.00736803 0.06242983 0.00230822 0.00329946 0.07888824 0.00760219 0.00756748 0.02000545 0.00122680 
0.07099527 0.05695099 0.00984341 0.00257794 0.00176054 0.00309112 0.00779165 0.00738307 0.06251357 0.00233937 0.00334328 0.07897977 0.00774797 0.00762778 0.02016681 0.00122360 
0.07108362 0.05785453 0.01028250 0.00260904 0.00175798 0.00318381 0.00798777 0.00739202 0.06254137 0.00237070 0.00338589 0.07914906 0.00788475 0.00770116 0.02031361 0.00122061 
0.07116429 0.05869692 0.01072806 0.00264267 0.00175630 0.00327600 0.00819426 0.00739478 0.06251395 0.00240216 0.00342723 0.07939015 0.00801191 0.00778678 0.02044444 0.00121784 
0.07123709 0.05947681 0.01117774 0.00267873 0.00175556 0.00336725 0.00841057 0.00739128 0.06243226 0.00243368 0.00346725 0.07969691 0.00812888 0.00788377 0.02055798 0.00121532 
0.07130167 0.06019326 0.01162920 0.00271708 0.00175581 0.00345713 0.00863609 0.00738148 0.06229744 0.00246519 0.00350589 0.08006308 0.00823511 0.00799117 0.02065304 0.00121306 
0.07135758 0.06084579 0.01208016 0.00275760 0.00175712 0.00354521 0.00887015 0.00736540 0.06211085 0.00249662 0.00354310 0.08048233 0.00833014 0.00810798 0.02072851 0.00121109 
0.07140427 0.06143433 0.01252841 0.00280012 0.00175952 0.00363106 0.00911203 0.00734310 0.06187404 0.00252789 0.00357882 0.08094826 0.00841353 0.00823319 0.02078343 0.00120942 
0.07144107 0.06195920 0.01297177 0.00284449 0.00176304 0.00371429 0.00936099 0.00731466 0.06158876 0.00255893 0.00361300 0.08145451 0.00848492 0.00836572 0.02081696 0.00120807 
0.07146722 0.06242112 0.01340815 0.00289052 0.00176771 0.00379450 0.00961624 0.00728022 0.06125689 0.00258965 0.00364557 0.08199477 0.00854401 0.00850449 0.02082840 0.00120705 
0.07148184 0.06282118 0.01383553 0.00293802 0.00177355 0.00387132 0.00987696 0.00723996 0.06088049 0.00261997 0.00367650 0.08256280 0.00859054 0.00864840 0.02081716 0.00120638 
0.07148398 0.06316081 0.01425198 0.00298680 0.00178056 0.00394439 0.01014229 0.00719407 0.06046174 0.00264981 0.00370573 0.08315254 0.00862434 0.00879633 0.02078283 0.00120605 
0.07147261 0.06344175 0.01465569 0.00303663 0.00178875 0.00401337 0.01041136 0.00714281 0.06000298 0.00267908 0.00373322 0.08375808 0.00864529 0.00894718 0.02072511 0.00120609 
0.07144660 0.06366603 0.01504490 0.00308730 0.00179808 0.00407796 0.01068330 0.00708646 0.05950661 0.00270769 0.00375890 0.08437375 0.00865335 0.00909982 0.02064386 0.00120648 
0.07140479 0.06383597 0.01541801 0.00313859 0.00180855 0.00413785 0.01095720 0.00702531 0.05897518 0.00273554 0.00378274 0.08499412 0.00864852 0.00925317 0.02053909 0.00120724 
0.07134593 0.06395411 0.01577350 0.00319025 0.00182012 0.00419278 0.01123217 0.00695971 0.05841126 0.00276255 0.00380470 0.08561406 0.00863089 0.00940615 0.02041095 0.00120836 
0.07126875 0.06402318 0.01610999 0.00324205 0.00183273 0.00424252 0.01150732 0.00689002 0.05781754 0.00278863 0.00382473 0.08622877 0.00860061 0.00955770 0.02025973 0.00120983 
0.07117194 0.06404612 0.01642620 0.00329374 0.00184634 0.00428685 0.01178174 0.00681663 0.05719673 0.00281367 0.00384280 0.08683377 0.00855791 0.00970681 0.02008589 0.00121165 
0.07105415 0.06402599 0.01672099 0.00334508 0.00186087 0.00432558 0.01205457 0.00673995 0.05655157 0.00283759 0.00385888 0.08742501 0.00850306 0.00985249 0.01988999 0.00121381 
0.07091403 0.06396597 0.01699336 0.00339582 0.00187625 0.00435857 0.01232496 0.00666039 0.05588483 0.00286029 0.00387294 0.08799878 0.00843640 0.00999382 0.01967276 0.00121629 
0.07075022 0.06386932 0.01724240 0.00344572 0.00189238 0.00438569 0.01259206 0.00657840 0.05519930 0.00288167 0.00388496 0.08855184 0.00835835 0.01012992 0.01943507 0.00121907 
0.07056140 0.06373936 0.01746738 0.00349453 0.00190919 0.00440684 0.01285509 0.00649443 0.05449773 0.00290166 0.00389493 0.08908134 0.00826937 0.01025996 0.01917789 0.00122214 
0.07034623 0.06357942 0.01766768 0.00354200 0.00192654 0.00442196 0.01311328 0.00640894 0.05378287 0.00292016 0.00390283 0.08958492 0.00816998 0.01038317 0.01890234 0.00122547 
0.07010344 0.06339283 0.01784281 0.00358790 0.00194434 0.00443103 0.01336591 0.00632238 0.05305744 0.00293708 0.00390867 0.09006064 0.00806077 0.01049886 0.01860964 0.00122903 
0.06983179 0.06318289 0.01799241 0.00363200 0.00196247 0.00443404 0.01361231 0.00623522 0.05232409 0.00295234 0.00391245 0.09050703 0.00794235 0.01060639 0.01830114 0.00123280 
0.06953008 0.06295282 0.01811626 0.00367407 0.00198078 0.00443102 0.01385183 0.00614792 0.05158545 0.00296588 0.00391418 0.09092310 0.00781542 0.01070522 0.01797827 0.00123674 
0.06919722 0.06270576 0.01821428 0.00371390 0.00199915 0.00442203 0.01408392 0.00606094 0.05084403 0.00297760 0.00391389 0.09130829 0.00768067 0.01079487 0.01764258 0.00124082 
0.06883217 0.06244474 0.01828650 0.00375127 0.00201744 0.00440717 0.01430805 0.00597473 0.05010232 0.00298745 0.00391162 0.09166251 0.00753887 0.01087492 0.01729568 0.00124500 
0.06843399 0.06217263 0.01833307 0.00378600 0.00203550 0.00438656 0.01452376 0.00588971 0.04936267 0.00299537 0.00390739 0.09198612 0.00739082 0.01094506 0.01693929 0.00124924 
0.06800183 0.06189218 0.01835429 0.00381790 0.00205319 0.00436034 0.01473067 0.00580631 0.04862737 0.00300130 0.00390127 0.09227988 0.00723732 0.01100505 0.01657517 0.00125350 
0.06753496 0.06160594 0.01835055 0.00384680 0.00207036 0.00432871 0.01492843 0.00572492 0.04789860 0.00300519 0.00389332 0.09254501 0.00707923 0.01105473 0.01620514 0.00125774 
0.06703276 0.06131628 0.01832236 0.00387254 0.00208686 0.00429184 0.01511679 0.00564595 0.04717841 0.00300701 0.00388360 0.09278309 0.00691740 0.01109402 0.01583109 0.00126190 
0.06649476 0.06102534 0.01827034 0.00389498 0.00210254 0.00424999 0.01529555 0.00556973 0.04646875 0.00300673 0.00387220 0.09299609 0.00675272 0.01112293 0.01545492 0.00126596 
0.06592059 0.06073507 0.01819522 0.00391400 0.00211726 0.00420340 0.01546457 0.00549662 0.04577144 0.00300432 0.00385922 0.09318633 0.00658608 0.01114154 0.01507857 0.00126985 
0.06531005 0.06044719 0.01809783 0.00392948 0.00213088 0.00415234 0.01562380 0.00542692 0.04508820 0.00299978 0.00384475 0.09335646 0.00641836 0.01115002 0.01470399 0.00127353 
0.06466306 0.06016316 0.01797908 0.00394134 0.00214326 0.00409711 0.01577323 0.00536091 0.04442058 0.00299311 0.00382891 0.09350940 0.00625045 0.01114861 0.01433315 0.00127695 
0.06397972 0.05988422 0.01783996 0.00394950 0.00215426 0.00403803 0.01591294 0.00529884 0.04377003 0.00298430 0.00381182 0.09364835 0.00608324 0.01113762 0.01396800 0.00128007 
0.06326026 0.05961137 0.01768157 0.00395391 0.00216376 0.00397542 0.01604307 0.00524093 0.04313785 0.00297339 0.00379362 0.09377674 0.00591759 0.01111745 0.01361046 0.00128283 
0.06250510 0.05934536 0.01750506 0.00395453 0.00217164 0.00390963 0.01616380 0.00518738 0.04252521 0.00296040 0.00377444 0.09389819 0.00575436 0.01108854 0.01326245 0.00128518 
0.06171479 0.05908669 0.01731164 0.00395135 0.00217780 0.00384102 0.01627539 0.00513834 0.04193313 0.00294539 0.00375444 0.09401647 0.00559438 0.01105143 0.01292584 0.00128709 
0.06089008 0.05883564 0.01710260 0.00394437 0.00218213 0.00376994 0.01637817 0.00509392 0.04136253 0.00292839 0.00373377 0.09413548 0.00543846 0.01100669 0.01260245 0.00128850 
0.06003186 0.05859225 0.01687926 0.00393361 0.00218456 0.00369679 0.01647249 0.00505423 0.04081415 0.00290948 0.00371260 0.09425919 0.00528736 0.01095496 0.01229403 0.00128937 
0.05914120 0.05835634 0.01664302 0.00391911 0.00218501 0.00362194 0.01655877 0.00501931 0.04028863 0.00288873 0.00369111 0.09439164 0.00514182 0.01089694 0.01200229 0.00128965 
0.05821932 0.05812751 0.01639527 0.00390094 0.00218341 0.00354578 0.01663747 0.00498919 0.03978647 0.00286623 0.00366946 0.09453684 0.00500253 0.01083334 0.01172885 0.00128931 
0.05726764 0.05790517 0.01613746 0.00387917 0.00217974 0.00346869 0.01670910 0.00496387 0.03930804 0.00284208 0.00364785 0.09469881 0.00487015 0.01076495 0.01147523 0.00128832 
0.05628770 0.05768853 0.01587107 0.00385390 0.00217394 0.00339106 0.01677420 0.00494330 0.03885357 0.00281640 0.00362645 0.09488146 0.00474528 0.01069258 0.01124288 0.00128662 
0.05528124 0.05747665 0.01559757 0.00382525 0.00216602 0.00331328 0.01683334 0.00492742 0.03842321 0.00278929 0.00360545 0.09508861 0.00462847 0.01061706 0.01103313 0.00128420 
0.05425013 0.05726841 0.01531845 0.00379335 0.00215597 0.00323572 0.01688712 0.00491612 0.03801695 0.00276090 0.00358505 0.09532395 0.00452022 0.01053925 0.01084721 0.00128103 
0.05319640 0.05706257 0.01503520 0.00375835 0.00214381 0.00315876 0.01693615 0.00490929 0.03763469 0.00273135 0.00356542 0.09559097 0.00442097 0.01046004 0.01068624 0.00127707 
0.05212223 0.05685774 0.01474931 0.00372042 0.00212959 0.00308275 0.01698107 0.00490677 0.03727622 0.00270081 0.00354677 0.09589296 0.00433111 0.01038030 0.01055121 0.00127232 
0.05102994 0.05665247 0.01446226 0.00367973 0.00211334 0.00300805 0.01702253 0.00490839 0.03694123 0.00266942 0.00352927 0.09623297 0.00425097 0.01030093 0.01044298 0.00126675 
0.04992199 0.05644519 0.01417548 0.00363649 0.00209515 0.00293499 0.01706118 0.00491396 0.03662932 0.00263736 0.00351311 0.09661377 0.00418080 0.01022282 0.01036230 0.00126036 
0.04880095 0.05623429 0.01389042 0.00359089 0.00207510 0.00286391 0.01709766 0.00492325 0.03634000 0.00260479 0.00349846 0.09703784 0.00412080 0.01014685 0.01030977 0.00125313 
0.04766954 0.05601812 0.01360846 0.00354315 0.00205330 0.00279510 0.01713261 0.00493606 0.03607268 0.00257190 0.00348550 0.09750732 0.00407112 0.01007388 0.01028586 0.00124507 
0.04653055 0.05579500 0.01333096 0.00349351 0.00202987 0.00272885 0.01716666 0.00495212 0.03582673 0.00253886 0.00347438 0.09802403 0.00403183 0.01000476 0.01029090 0.00123617 
0.04538692 0.05556324 0.01305923 0.00344220 0.00200494 0.00266544 0.01720043 0.00497118 0.03560142 0.00250587 0.00346526 0.09858940 0.00400295 0.00994032 0.01032507 0.00122645 
0.04424166 0.05532119 0.01279453 0.00338947 0.00197868 0.00260510 0.01723450 0.00499299 0.03539598 0.00247311 0.00345829 0.09920448 0.00398442 0.00988133 0.01038843 0.00121592 
0.04309785 0.05506723 0.01253807 0.00333557 0.00195125 0.00254807 0.01726944 0.00501726 0.03520956 0.00244079 0.00345360 0.09986996 0.00397615 0.00982855 0.01048087 0.00120459 
0.04195866 0.05479980 0.01229101 0.00328076 0.00192283 0.00249455 0.01730576 0.00504374 0.03504130 0.00240908 0.00345131 0.10058607 0.00397797 0.00978269 0.01060218 0.00119248 
0.04082733 0.05451740 0.01205442 0.00322530 0.00189362 0.00244471 0.01734398 0.00507212 0.03489028 0.00237819 0.00345153 0.10135267 0.00398964 0.00974441 0.01075197 0.00117964 
0.03970712 0.05421865 0.01182932 0.00316945 0.00186383 0.00239872 0.01738452 0.00510216 0.03475554 0.00234831 0.00345435 0.10216918 0.00401091 0.00971432 0.01092974 0.00116608 
0.03860136 0.05390227 0.01161667 0.00311348 0.00183367 0.00235669 0.01742781 0.00513357 0.03463611 0.00231963 0.00345984 0.10303463 0.00404144 0.00969298 0.01113485 0.00115185 
0.03751339 0.05356710 0.01141733 0.00305765 0.00180338 0.00231873 0.01747419 0.00516608 0.03453099 0.00229233 0.00346808 0.10394760 0.00408085 0.00968089 0.01136654 0.00113699 
0.03644655 0.05321212 0.01123212 0.00300223 0.00177318 0.00228491 0.01752398 0.00519945 0.03443918 0.00226661 0.00347911 0.10490630 0.00412873 0.00967847 0.01162390 0.00112154 
0.03540421 0.05283648 0.01106173 0.00294747 0.00174333 0.00225529 0.01757743 0.00523343 0.03435967 0.00224262 0.00349295 0.10590851 0.00418461 0.00968610 0.01190593 0.00110555 
0.03438971 0.05243948 0.01090682 0.00289363 0.00171407 0.00222989 0.01763474 0.00526778 0.03429145 0.00222055 0.00350962 0.10695166 0.00424799 0.00970407 0.01221150 0.00108909 
0.03340635 0.05202059 0.01076793 0.00284096 0.00168564 0.00220871 0.01769604 0.00530228 0.03423351 0.00220055 0.00352911 0.10803277 0.00431833 0.00973262 0.01253938 0.00107220 
0.03245742 0.05157948 0.01064555 0.00278969 0.00165831 0.00219173 0.01776142 0.00533673 0.03418487 0.00218278 0.00355140 0.10914855 0.00439507 0.00977191 0.01288822 0.00105496 
0.03154613 0.05111600 0.01054007 0.00274007 0.00163232 0.00217888 0.01783090 0.00537095 0.03414455 0.00216737 0.00357643 0.11029536 0.00447762 0.00982202 0.01325661 0.00103741 
0.03067562 0.05063020 0.01045178 0.00269231 0.00160792 0.00217010 0.01790443 0.00540476 0.03411162 0.00215447 0.00360415 0.11146925 0.00456536 0.00988297 0.01364302 0.00101964 
0.02984897 0.05012234 0.01038091 0.00264663 0.00158536 0.00216528 0.01798193 0.00543801 0.03408514 0.00214418 0.00363448 0.11266602 0.00465767 0.00995469 0.01404587 0.00100171 
0.02906914 0.04959286 0.01032761 0.00260324 0.00156488 0.00216431 0.01806323 0.00547058 0.03406425 0.00213661 0.00366732 0.11388121 0.00475390 0.01003706 0.01446350 0.00098369 
0.02833899 0.04904243 0.01029193 0.00256231 0.00154671 0.00216704 0.01814811 0.00550236 0.03404808 0.00213185 0.00370254 0.11511013 0.00485340 0.01012986 0.01489418 0.00096566 
0.02766124 0.04847191 0.01027384 0.00252403 0.00153108 0.00217331 0.01823630 0.00553326 0.03403583 0.00212998 0.00374001 0.11634792 0.00495552 0.01023282 0.01533614 0.00094768 
0.02703849 0.04788236 0.01027325 0.00248856 0.00151820 0.00218294 0.01832747 0.00556322 0.03402674 0.00213107 0.00377959 0.11758958 0.00505960 0.01034559 0.01578757 0.00092983 
0.02647317 0.04727504 0.01028998 0.00245605 0.00150826 0.00219572 0.01842124 0.00559219 0.03402009 0.00213515 0.00382111 0.11882999 0.00516499 0.01046776 0.01624662 0.00091219 
0.02596754 0.04665141 0.01032378 0.00242663 0.00150147 0.00221146 0.01851718 0.00562015 0.03401521 0.00214227 0.00386437 0.12006395 0.00527105 0.01059885 0.01671143 0.00089482 
0.02552369 0.04601312 0.01037432 0.00240041 0.00149799 0.00222991 0.01861480 0.00564710 0.03401148 0.00215242 0.00390919 0.12128625 0.00537716 0.01073832 0.01718012 0.00087780 
0.02514350 0.04536197 0.01044122 0.00237751 0.00149796 0.00225084 0.01871359 0.00567305 0.03400833 0.00216562 0.00395535 0.12249164 0.00548269 0.01088557 0.01765080 0.00086119 
0.02482867 0.04469997 0.01052401 0.00235799 0.00150154 0.00227399 0.01881298 0.00569805 0.03400526 0.00218183 0.00400263 0.12367496 0.00558707 0.01103994 0.01812159 0.00084507 
0.02458065 0.04402925 0.01062218 0.00234193 0.00150884 0.00229911 0.01891238 0.00572214 0.03400179 0.00220103 0.00405079 0.12483111 0.00568971 0.01120074 0.01859064 0.00082950 
0.02440068 0.04335210 0.01073515 0.00232938 0.00151995 0.00232593 0.01901115 0.00574540 0.03399754 0.00222315 0.00409960 0.12595509 0.00579009 0.01136719 0.01905611 0.00081454 
0.02428975 0.04267097 0.01086229 0.00232038 0.00153495 0.00235418 0.01910864 0.00576792 0.03399213 0.00224813 0.00414879 0.12704208 0.00588769 0.01153852 0.01951621 0.00080026 
0.02424860 0.04198839 0.01100292 0.00231493 0.00155389 0.00238357 0.01920417 0.00578979 0.03398528 0.00227589 0.00419812 0.12808745 0.00598202 0.01171388 0.01996917 0.00078669 
0.02427771 0.04130703 0.01115632 0.00231305 0.00157679 0.00241385 0.01929704 0.00581113 0.03397674 0.00230631 0.00424731 0.12908679 0.00607265 0.01189241 0.02041329 0.00077390 
0.02437730 0.04062962 0.01132171 0.00231472 0.00160367 0.00244471 0.01938656 0.00583206 0.03396632 0.00233928 0.00429610 0.13003596 0.00615917 0.01207323 0.02084695 0.00076192 
0.02454731 0.03995900 0.01149828 0.00231990 0.00163450 0.00247591 0.01947201 0.00585271 0.03395387 0.00237468 0.00434421 0.13093111 0.00624121 0.01225541 0.02126855 0.00075080 
0.02478739 0.03929804 0.01168520 0.00232855 0.00166925 0.00250715 0.01955268 0.00587323 0.03393930 0.00241234 0.00439138 0.13176872 0.00631844 0.01243802 0.02167661 0.00074057 
0.02509691 0.03864967 0.01188160 0.00234061 0.00170784 0.00253819 0.01962786 0.00589376 0.03392257 0.00245211 0.00443734 0.13254559 0.00639056 0.01262012 0.02206972 0.00073126 
0.02547497 0.03801683 0.01208658 0.00235600 0.00175018 0.00256876 0.01969685 0.00591445 0.03390367 0.00249382 0.00448181 0.13325894 0.00645734 0.01280077 0.02244655 0.00072289 
0.02592034 0.03740248 0.01229923 0.00237463 0.00179615 0.00259861 0.01975897 0.00593544 0.03388266 0.00253729 0.00452453 0.13390635 0.00651856 0.01297901 0.02280589 0.00071547 
0.02643152 0.03680956 0.01251862 0.00239640 0.00184562 0.00262750 0.01981356 0.00595689 0.03385960 0.00258231 0.00456526 0.13448582 0.00657406 0.01315391 0.02314660 0.00070902 
0.02700673 0.03624099 0.01274380 0.00242119 0.00189841 0.00265522 0.01986000 0.00597895 0.03383465 0.00262869 0.00460373 0.13499580 0.00662372 0.01332453 0.02346768 0.00070353 
0.02764389 0.03569964 0.01297382 0.00244887 0.00195436 0.00268156 0.01989767 0.00600175 0.03380794 0.00267622 0.00463971 0.13543517 0.00666746 0.01348997 0.02376821 0.00069900 
0.02834062 0.03518830 0.01320772 0.00247931 0.00201323 0.00270630 0.01992602 0.00602544 0.03377969 0.00272468 0.00467296 0.13580324 0.00670523 0.01364933 0.02404741 0.00069542 
0.02909427 0.03470971 0.01344455 0.00251236 0.00207482 0.00272928 0.01994452 0.00605015 0.03375013 0.00277385 0.00470328 0.13609980 0.00673705 0.01380175 0.02430460 0.00069277 
0.02990193 0.03426649 0.01368334 0.00254785 0.00213886 0.00275033 0.01995269 0.00607599 0.03371951 0.00282350 0.00473045 0.13632510 0.00676293 0.01394640 0.02453924 0.00069103 
0.03076039 0.03386114 0.01392316 0.00258564 0.00220510 0.00276931 0.01995012 0.00610309 0.03368814 0.00287340 0.00475429 0.13647982 0.00678297 0.01408249 0.02475089 0.00069016 
0.03166623 0.03349605 0.01416305 0.00262553 0.00227324 0.00278608 0.01993642 0.00613154 0.03365631 0.00292332 0.00477462 0.13656513 0.00679726 0.01420926 0.02493924 0.00069012 
0.03261574 0.03317345 0.01440208 0.00266735 0.00234299 0.00280055 0.01991130 0.00616142 0.03362438 0.00297304 0.00479130 0.13658259 0.00680595 0.01432601 0.02510410 0.00069088 
0.03360500 0.03289542 0.01463935 0.00271093 0.00241404 0.00281262 0.01987449 0.00619282 0.03359271 0.00302234 0.00480418 0.13653423 0.00680921 0.01443208 0.02524541 0.00069237 
0.03462988 0.03266384 0.01487395 0.00275606 0.00248606 0.00282222 0.01982582 0.00622580 0.03356167 0.00307098 0.00481315 0.13642247 0.00680724 0.01452688 0.02536322 0.00069455 
0.03568604 0.03248043 0.01510501 0.00280256 0.00255872 0.00282932 0.01976518 0.00626040 0.03353167 0.00311875 0.00481811 0.13625014 0.00680027 0.01460986 0.02545771 0.00069735 
0.03676896 0.03234670 0.01533165 0.00285023 0.00263166 0.00283389 0.01969251 0.00629664 0.03350312 0.00316544 0.00481900 0.13602043 0.00678855 0.01468055 0.02552917 0.00070071 
0.03787395 0.03226395 0.01555305 0.00289889 0.00270455 0.00283591 0.01960784 0.00633455 0.03347644 0.00321085 0.00481576 0.13573687 0.00677233 0.01473851 0.02557800 0.00070456 
0.03899618 0.03223325 0.01576840 0.00294832 0.00277703 0.00283541 0.01951128 0.00637413 0.03345208 0.00325478 0.00480836 0.13540333 0.00675193 0.01478341 0.02560471 0.00070882 
0.04013069 0.03225546 0.01597690 0.00299834 0.00284873 0.00283242 0.01940299 0.00641535 0.03343048 0.00329705 0.00479680 0.13502396 0.00672763 0.01481495 0.02560992 0.00071342 
0.04127244 0.03233118 0.01617780 0.00304874 0.00291931 0.00282700 0.01928324 0.00645818 0.03341209 0.00333749 0.00478109 0.13460316 0.00669975 0.01483292 0.02559435 0.00071826 
0.04241630 0.03246079 0.01637036 0.00309935 0.00298839 0.00281922 0.01915234 0.00650257 0.03339738 0.00337594 0.00476129 0.13414555 0.00666862 0.01483718 0.02555881 0.00072328 
0.04355708 0.03264440 0.01655389 0.00314997 0.00305564 0.00280917 0.01901070 0.00654847 0.03338681 0.00341225 0.00473745 0.13365597 0.00663456 0.01482766 0.02550421 0.00072839 
0.04468957 0.03288189 0.01672770 0.00320041 0.00312070 0.00279697 0.01885879 0.00659578 0.03338084 0.00344630 0.00470968 0.13313937 0.00659792 0.01480436 0.02543151 0.00073350 
0.04580857 0.03317287 0.01689116 0.00325050 0.00318323 0.00278274 0.01869715 0.00664443 0.03337993 0.00347797 0.00467808 0.13260083 0.00655903 0.01476734 0.02534178 0.00073852 
0.04690890 0.03351669 0.01704365 0.00330006 0.00324290 0.00276662 0.01852642 0.00669429 0.03338454 0.00350716 0.00464280 0.13204553 0.00651823 0.01471676 0.02523615 0.00074337 
0.04798543 0.03391246 0.01718458 0.00334892 0.00329938 0.00274877 0.01834726 0.00674527 0.03339513 0.00353379 0.00460399 0.13147864 0.00647584 0.01465284 0.02511580 0.00074797 
0.04903310 0.03435904 0.01731341 0.00339692 0.00335239 0.00272935 0.01816044 0.00679722 0.03341214 0.00355779 0.00456185 0.13090536 0.00643220 0.01457586 0.02498197 0.00075223 
0.05004698 0.03485502 0.01742960 0.00344391 0.00340161 0.00270856 0.01796677 0.00685000 0.03343602 0.00357912 0.00451658 0.13033083 0.00638763 0.01448617 0.02483594 0.00075607 
0.05102224 0.03539876 0.01753268 0.00348973 0.00344677 0.00268657 0.01776712 0.00690348 0.03346718 0.00359775 0.00446841 0.12976014 0.00634243 0.01438421 0.02467903 0.00075942 
0.05195425 0.03598837 0.01762218 0.00353426 0.00348762 0.00266360 0.01756242 0.00695749 0.03350603 0.00361366 0.00441758 0.12919822 0.00629690 0.01427046 0.02451259 0.00076219 
0.05283854 0.03662175 0.01769767 0.00357735 0.00352391 0.00263984 0.01735364 0.00701188 0.03355297 0.00362687 0.00436436 0.12864989 0.00625132 0.01414548 0.02433798 0.00076432 
0.05367084 0.03729656 0.01775876 0.00361889 0.00355544 0.00261551 0.01714182 0.00706647 0.03360836 0.00363739 0.00430904 0.12811975 0.00620596 0.01400987 0.02415659 0.00076575 
0.05444715 0.03801023 0.01780508 0.00365878 0.00358199 0.00259083 0.01692802 0.00712109 0.03367256 0.00364526 0.00425192 0.12761220 0.00616108 0.01386431 0.02396978 0.00076641 
0.05516370 0.03876003 0.01783630 0.00369690 0.00360341 0.00256602 0.01671333 0.00717557 0.03374589 0.00365055 0.00419331 0.12713138 0.00611690 0.01370952 0.02377893 0.00076625 
0.05581701 0.03954300 0.01785211 0.00373317 0.00361953 0.00254128 0.01649887 0.00722974 0.03382863 0.00365333 0.00413354 0.12668117 0.00607364 0.01354627 0.02358541 0.00076522 
0.05640390 0.04035603 0.01785224 0.00376750 0.00363024 0.00251685 0.01628581 0.00728341 0.03392105 0.00365368 0.00407295 0.12626512 0.00603151 0.01337539 0.02339055 0.00076328 
0.05692152 0.04119583 0.01783646 0.00379983 0.00363543 0.00249294 0.01607530 0.00733642 0.03402337 0.00365171 0.00401190 0.12588647 0.00599066 0.01319772 0.02319565 0.00076039 
0.05736735 0.04205898 0.01780457 0.00383010 0.00363502 0.00246976 0.01586852 0.00738858 0.03413578 0.00364753 0.00395074 0.12554810 0.00595127 0.01301418 0.02300199 0.00075653 
0.05773921 0.04294191 0.01775640 0.00385825 0.00362899 0.00244751 0.01566665 0.00743974 0.03425842 0.00364128 0.00388983 0.12525255 0.00591346 0.01282570 0.02281079 0.00075168 
0.05803533 0.04384096 0.01769180 0.00388424 0.00361729 0.00242640 0.01547086 0.00748971 0.03439139 0.00363310 0.00382955 0.12500193 0.00587736 0.01263323 0.02262322 0.00074583 
0.05825427 0.04475235 0.01761069 0.00390806 0.00359993 0.00240661 0.01528231 0.00753835 0.03453473 0.00362314 0.00377026 0.12479802 0.00584305 0.01243777 0.02244040 0.00073897 
0.05839502 0.04567224 0.01751299 0.00392967 0.00357695 0.00238833 0.01510216 0.00758548 0.03468845 0.00361155 0.00371234 0.12464214 0.00581061 0.01224031 0.02226337 0.00073112 
0.05845695 0.04659673 0.01739869 0.00394906 0.00354840 0.00237172 0.01493151 0.00763098 0.03485248 0.00359852 0.00365615 0.12453525 0.00578009 0.01204188 0.02209313 0.00072227 
0.05843984 0.04752187 0.01726780 0.00396624 0.00351437 0.00235693 0.01477146 0.00767468 0.03502671 0.00358420 0.00360205 0.12447787 0.00575153 0.01184350 0.02193056 0.00071247 
0.05834386 0.04844371 0.01712036 0.00398122 0.00347496 0.00234412 0.01462306 0.00771646 0.03521096 0.00356879 0.00355042 0.12447014 0.00572495 0.01164620 0.02177651 0.00070173 
0.05816962 0.04935829 0.01695649 0.00399401 0.00343031 0.00233340 0.01448731 0.00775619 0.03540499 0.00355246 0.00350158 0.12451177 0.00570034 0.01145103 0.02163172 0.00069010 
0.05791809 0.05026166 0.01677630 0.00400464 0.00338057 0.00232489 0.01436516 0.00779376 0.03560850 0.00353540 0.00345589 0.12460209 0.00567768 0.01125900 0.02149683 0.00067762 
0.05759068 0.05114992 0.01658000 0.00401315 0.00332592 0.00231868 0.01425750 0.00782904 0.03582111 0.00351780 0.00341366 0.12474004 0.00565695 0.01107113 0.02137244 0.00066435 
0.05718918 0.05201924 0.01636780 0.00401957 0.00326657 0.00231486 0.01416516 0.00786194 0.03604237 0.00349984 0.00337521 0.12492419 0.00563810 0.01088842 0.02125900 0.00065035 
0.05671575 0.05286586 0.01613998 0.00402397 0.00320273 0.00231347 0.01408888 0.00789237 0.03627178 0.00348170 0.00334084 0.12515275 0.00562105 0.01071184 0.02115691 0.00063569 
0.05617295 0.05368612 0.01589687 0.00402638 0.00313465 0.00231457 0.01402936 0.00792024 0.03650874 0.00346355 0.00331081 0.12542357 0.00560574 0.01054236 0.02106646 0.00062045 
0.05556368 0.05447647 0.01563884 0.00402689 0.00306259 0.00231818 0.01398717 0.00794549 0.03675260 0.00344558 0.00328538 0.12573420 0.00559208 0.01038090 0.02098786 0.00060470 
0.05489118 0.05523351 0.01536632 0.00402556 0.00298683 0.00232431 0.01396284 0.00796803 0.03700262 0.00342795 0.00326479 0.12608189 0.00557997 0.01022835 0.02092121 0.00058855 
0.05415904 0.05595397 0.01507979 0.00402245 0.00290766 0.00233293 0.01395677 0.00798782 0.03725800 0.00341082 0.00324923 0.12646359 0.00556931 0.01008556 0.02086653 0.00057208 
0.05337113 0.05663477 0.01477979 0.00401766 0.00282539 0.00234403 0.01396929 0.00800481 0.03751785 0.00339433 0.00323890 0.12687602 0.00555998 0.00995334 0.02082376 0.00055539 
0.05253160 0.05727302 0.01446690 0.00401127 0.00274033 0.00235755 0.01400062 0.00801895 0.03778123 0.00337863 0.00323395 0.12731567 0.00555187 0.00983245 0.02079274 0.00053859 
0.05164488 0.05786599 0.01414177 0.00400336 0.00265283 0.00237343 0.01405087 0.00803021 0.03804712 0.00336385 0.00323450 0.12777883 0.00554484 0.00972361 0.02077323 0.00052178 
0.05071562 0.05841121 0.01380511 0.00399402 0.00256322 0.00239158 0.01412005 0.00803857 0.03831444 0.00335009 0.00324065 0.12826161 0.00553877 0.00962747 0.02076491 0.00050508 
0.04974867 0.05890640 0.01345768 0.00398335 0.00247185 0.00241191 0.01420808 0.00804400 0.03858204 0.00333747 0.00325247 0.12875998 0.00553352 0.00954465 0.02076740 0.00048859 
0.04874907 0.05934954 0.01310029 0.00397145 0.00237908 0.00243429 0.01431474 0.00804649 0.03884870 0.00332607 0.00326999 0.12926981 0.00552896 0.00947567 0.02078023 0.00047243 
0.04772201 0.05973883 0.01273383 0.00395841 0.00228527 0.00245861 0.01443974 0.00804603 0.03911317 0.00331597 0.00329322 0.12978687 0.00552496 0.00942103 0.02080288 0.00045671 
0.04667277 0.06007274 0.01235922 0.00394433 0.00219077 0.00248471 0.01458264 0.00804262 0.03937413 0.00330722 0.00332212 0.13030688 0.00552137 0.00938114 0.02083475 0.00044155 
0.04560674 0.06035002 0.01197745 0.00392930 0.00209597 0.00251244 0.01474292 0.00803627 0.03963020 0.00329989 0.00335663 0.13082555 0.00551806 0.00935635 0.02087523 0.00042706 
0.04452937 0.06056964 0.01158958 0.00391344 0.00200121 0.00254162 0.01491995 0.00802697 0.03988000 0.00329398 0.00339666 0.13133857 0.00551490 0.00934694 0.02092362 0.00041335 
0.04344612 0.06073089 0.01119670 0.00389683 0.00190687 0.00257210 0.01511298 0.00801474 0.04012207 0.00328953 0.00344208 0.13184167 0.00551176 0.00935311 0.02097920 0.00040054 
0.04236243 0.06083330 0.01079995 0.00387957 0.00181330 0.00260367 0.01532117 0.00799960 0.04035496 0.00328653 0.00349273 0.13233063 0.00550851 0.00937501 0.02104122 0.00038872 
0.04128371 0.06087670 0.01040054 0.00386177 0.00172086 0.00263613 0.01554357 0.00798156 0.04057716 0.00328497 0.00354841 0.13280131 0.00550502 0.00941270 0.02110890 0.00037802 
0.04021531 0.06086118 0.00999971 0.00384351 0.00162990 0.00266930 0.01577915 0.00796064 0.04078718 0.00328481 0.00360889 0.13324968 0.00550117 0.00946617 0.02118145 0.00036852 
0.03916246 0.06078711 0.00959875 0.00382489 0.00154075 0.00270296 0.01602677 0.00793687 0.04098352 0.00328601 0.00367394 0.13367185 0.00549686 0.00953535 0.02125806 0.00036031 
0.03813025 0.06065513 0.00919900 0.00380599 0.00145375 0.00273690 0.01628522 0.00791029 0.04116466 0.00328852 0.00374325 0.13406406 0.00549196 0.00962008 0.02133792 0.00035350 
0.03712361 0.06046615 0.00880181 0.00378692 0.00136923 0.00277092 0.01655319 0.00788091 0.04132910 0.00329226 0.00381652 0.13442273 0.00548637 0.00972014 0.02142024 0.00034816 
0.03614729 0.06022135 0.00840858 0.00376774 0.00128748 0.00280479 0.01682932 0.00784877 0.04147538 0.00329715 0.00389340 0.13474446 0.00548001 0.00983521 0.02150422 0.00034436 
0.03520579 0.05992215 0.00802073 0.00374853 0.00120881 0.00283832 0.01711215 0.00781390 0.04160204 0.00330309 0.00397354 0.13502607 0.00547276 0.00996494 0.02158909 0.00034219 
0.03430341 0.05957024 0.00763971 0.00372939 0.00113350 0.00287128 0.01740019 0.00777635 0.04170767 0.00330998 0.00405654 0.13526457 0.00546455 0.01010889 0.02167411 0.00034170 
0.03344413 0.05916751 0.00726697 0.00371036 0.00106183 0.00290348 0.01769187 0.00773616 0.04179091 0.00331770 0.00414200 0.13545723 0.00545530 0.01026654 0.02175857 0.00034294 
0.03263168 0.05871612 0.00690399 0.00369154 0.00099403 0.00293471 0.01798559 0.00769336 0.04185045 0.00332612 0.00422948 0.13560153 0.00544493 0.01043732 0.02184181 0.00034596 
0.03186945 0.05821842 0.00655224 0.00367297 0.00093036 0.00296479 0.01827972 0.00764801 0.04188504 0.00333512 0.00431855 0.13569525 0.00543338 0.01062058 0.02192319 0.00035081 
0.03116051 0.05767698 0.00621319 0.00365471 0.00087102 0.00299352 0.01857256 0.00760016 0.04189351 0.00334455 0.00440873 0.13573637 0.00542059 0.01081564 0.02200215 0.00035749 
0.03050758 0.05709455 0.00588828 0.00363683 0.00081623 0.00302073 0.01886245 0.00754985 0.04187477 0.00335428 0.00449957 0.13572316 0.00540651 0.01102173 0.02207817 0.00036605 
0.02991304 0.05647406 0.00557898 0.00361935 0.00076616 0.00304626 0.01914767 0.00749716 0.04182781 0.00336414 0.00459057 0.13565416 0.00539108 0.01123802 0.02215079 0.00037648 
0.02937887 0.05581860 0.00528669 0.00360234 0.00072098 0.00306995 0.01942653 0.00744213 0.04175174 0.00337400 0.00468125 0.13552818 0.00537428 0.01146366 0.02221964 0.00038880 
0.02890669 0.05513143 0.00501281 0.00358583 0.00068082 0.00309167 0.01969732 0.00738484 0.04164574 0.00338369 0.00477111 0.13534427 0.00535606 0.01169772 0.02228438 0.00040298 
0.02849773 0.05441592 0.00475867 0.00356984 0.00064583 0.00311127 0.01995838 0.00732535 0.04150915 0.00339308 0.00485966 0.13510177 0.00533641 0.01193925 0.02234477 0.00041901 
0.02815281 0.05367555 0.00452558 0.00355440 0.00061609 0.00312864 0.02020804 0.00726375 0.04134138 0.00340200 0.00494641 0.13480028 0.00531531 0.01218723 0.02240063 0.00043687 
0.02787239 0.05291392 0.00431479 0.00353955 0.00059170 0.00314369 0.02044470 0.00720011 0.04114199 0.00341031 0.00503087 0.13443965 0.00529274 0.01244062 0.02245186 0.00045652 
0.02765652 0.05213469 0.00412748 0.00352528 0.00057271 0.00315634 0.02066679 0.00713454 0.04091068 0.00341787 0.00511256 0.13401998 0.00526870 0.01269835 0.02249844 0.00047792 
0.02750486 0.05134162 0.00396476 0.00351162 0.00055917 0.00316650 0.02087280 0.00706711 0.04064727 0.00342453 0.00519101 0.13354162 0.00524319 0.01295933 0.02254042 0.00050101 
0.02741669 0.05053849 0.00382768 0.00349856 0.00055110 0.00317413 0.02106128 0.00699794 0.04035173 0.00343016 0.00526576 0.13300516 0.00521621 0.01322241 0.02257793 0.00052573 
0.02739094 0.04972912 0.00371719 0.00348611 0.00054851 0.00317919 0.02123085 0.00692714 0.04002415 0.00343464 0.00533636 0.13241140 0.00518780 0.01348646 0.02261116 0.00055201 
0.02742614 0.04891735 0.00363415 0.00347426 0.00055137 0.00318166 0.02138023 0.00685483 0.03966481 0.00343785 0.00540240 0.13176137 0.00515796 0.01375031 0.02264038 0.00057977 
0.02752050 0.04810703 0.00357934 0.00346301 0.00055964 0.00318153 0.02150820 0.00678114 0.03927409 0.00343967 0.00546347 0.13105630 0.00512672 0.01401281 0.02266593 0.00060893 
0.02767187 0.04730196 0.00355342 0.00345233 0.00057327 0.00317883 0.02161368 0.00670619 0.03885255 0.00344002 0.00551919 0.13029761 0.00509413 0.01427278 0.02268823 0.00063940 
0.02787780 0.04650594 0.00355695 0.00344221 0.00059218 0.00317358 0.02169564 0.00663015 0.03840090 0.00343880 0.00556921 0.12948690 0.00506022 0.01452905 0.02270774 0.00067108 
0.02813552 0.04572271 0.00359037 0.00343263 0.00061628 0.00316582 0.02175322 0.00655316 0.03791998 0.00343594 0.00561320 0.12862595 0.00502504 0.01478047 0.02272498 0.00070386 
0.02844201 0.04495596 0.00365401 0.00342355 0.00064544 0.00315561 0.02178562 0.00647539 0.03741080 0.00343138 0.00565087 0.12771668 0.00498865 0.01502588 0.02274053 0.00073765 
0.02879396 0.04420928 0.00374808 0.00341495 0.00067954 0.00314303 0.02179222 0.00639701 0.03687450 0.00342506 0.00568194 0.12676116 0.00495112 0.01526416 0.02275501 0.00077231 
0.02918785 0.04348620 0.00387264 0.00340679 0.00071842 0.00312818 0.02177247 0.00631821 0.03631237 0.00341695 0.00570620 0.12576157 0.00491251 0.01549419 0.02276908 0.00080774 
0.02961993 0.04279011 0.00402765 0.00339904 0.00076192 0.00311115 0.02172601 0.00623917 0.03572585 0.00340702 0.00572344 0.12472022 0.00487290 0.01571490 0.02278345 0.00084380 
0.03008628 0.04212432 0.00421291 0.00339166 0.00080986 0.00309207 0.02165256 0.00616011 0.03511649 0.00339526 0.00573350 0.12363953 0.00483237 0.01592525 0.02279881 0.00088039 
0.03058282 0.04149199 0.00442813 0.00338459 0.00086203 0.00307106 0.02155201 0.00608124 0.03448598 0.00338168 0.00573627 0.12252199 0.00479102 0.01612421 0.02281593 0.00091737 
0.03110531 0.04089614 0.00467283 0.00337781 0.00091823 0.00304827 0.02142440 0.00600277 0.03383615 0.00336630 0.00573165 0.12137016 0.00474894 0.01631084 0.02283555 0.00095461 
0.03164945 0.04033967 0.00494643 0.00337126 0.00097823 0.00302385 0.02126987 0.00592494 0.03316893 0.00334915 0.00571961 0.12018667 0.00470623 0.01648421 0.02285841 0.00099198 
0.03221084 0.03982530 0.00524822 0.00336490 0.00104179 0.00299796 0.02108875 0.00584798 0.03248636 0.00333027 0.00570014 0.11897421 0.00466302 0.01664346 0.02288528 0.00102935 
0.03278504 0.03935557 0.00557734 0.00335867 0.00110866 0.00297078 0.02088147 0.00577214 0.03179058 0.00330973 0.00567326 0.11773550 0.00461941 0.01678778 0.02291689 0.00106660 
0.03336757 0.03893287 0.00593279 0.00335254 0.00117858 0.00294248 0.02064862 0.00569767 0.03108382 0.00328759 0.00563906 0.11647328 0.00457554 0.01691642 0.02295395 0.00110358 
0.03395399 0.03855940 0.00631347 0.00334646 0.00125128 0.00291325 0.02039092 0.00562483 0.03036840 0.00326395 0.00559764 0.11519030 0.00453152 0.01702870 0.02299715 0.00114017 
0.03453987 0.03823717 0.00671814 0.00334038 0.00132648 0.00288329 0.02010924 0.00555388 0.02964671 0.00323889 0.00554916 0.11388935 0.00448750 0.01712400 0.02304715 0.00117625 
0.03512085 0.03796801 0.00714544 0.00333426 0.00140390 0.00285278 0.01980455 0.00548509 0.02892118 0.00321254 0.00549380 0.11257318 0.00444362 0.01720178 0.02310454 0.00121169 
0.03569267 0.03775353 0.00759388 0.00332805 0.00148324 0.00282193 0.01947799 0.00541873 0.02819433 0.00318501 0.00543178 0.11124455 0.00440003 0.01726156 0.02316990 0.00124636 
0.03625115 0.03759516 0.00806189 0.00332172 0.00156419 0.00279094 0.01913077 0.00535508 0.02746869 0.00315642 0.00536336 0.10990620 0.00435687 0.01730296 0.02324370 0.00128015 
0.03679230 0.03749412 0.00854777 0.00331522 0.00164647 0.00276001 0.01876425 0.00529441 0.02674681 0.00312692 0.00528884 0.10856083 0.00431431 0.01732565 0.02332640 0.00131294 
0.03731223 0.03745142 0.00904973 0.00330853 0.00172976 0.00272934 0.01837990 0.00523699 0.02603128 0.00309666 0.00520855 0.10721113 0.00427250 0.01732941 0.02341835 0.00134462 
0.03780729 0.03746786 0.00956589 0.00330162 0.00181375 0.00269915 0.01797926 0.00518309 0.02532468 0.00306578 0.00512283 0.10585974 0.00423159 0.01731407 0.02351983 0.00137509 
0.03827399 0.03754405 0.01009431 0.00329446 0.00189813 0.00266961 0.01756400 0.00513300 0.02462957 0.00303445 0.00503206 0.10450925 0.00419177 0.01727958 0.02363106 0.00140425 
0.03870907 0.03768037 0.01063293 0.00328703 0.00198260 0.00264094 0.01713586 0.00508696 0.02394851 0.00300284 0.00493667 0.10316222 0.00415319 0.01722594 0.02375216 0.00143199 
0.03910954 0.03787701 0.01117967 0.00327932 0.00206685 0.00261332 0.01669664 0.00504525 0.02328401 0.00297112 0.00483707 0.10182116 0.00411601 0.01715325 0.02388316 0.00145823 
0.03947262 0.03813395 0.01173237 0.00327132 0.00215056 0.00258694 0.01624824 0.00500812 0.02263854 0.00293945 0.00473373 0.10048852 0.00408041 0.01706169 0.02402400 0.00148288 
0.03979583 0.03845097 0.01228885 0.00326301 0.00223345 0.00256199 0.01579258 0.00497580 0.02201449 0.00290802 0.00462712 0.09916671 0.00404655 0.01695154 0.02417453 0.00150587 
0.04007696 0.03882765 0.01284686 0.00325442 0.00231521 0.00253863 0.01533166 0.00494854 0.02141422 0.00287699 0.00451771 0.09785806 0.00401460 0.01682313 0.02433450 0.00152713 
0.04031407 0.03926338 0.01340416 0.00324555 0.00239556 0.00251703 0.01486748 0.00492656 0.02083997 0.00284655 0.00440603 0.09656486 0.00398470 0.01667690 0.02450358 0.00154658 
0.04050555 0.03975735 0.01395848 0.00323641 0.00247421 0.00249735 0.01440211 0.00491006 0.02029391 0.00281687 0.00429256 0.09528936 0.00395702 0.01651335 0.02468131 0.00156418 
0.04065009 0.04030857 0.01450755 0.00322703 0.00255088 0.00247974 0.01393759 0.00489925 0.01977807 0.00278812 0.00417785 0.09403372 0.00393172 0.01633308 0.02486718 0.00157987 
0.04074665 0.04091587 0.01504912 0.00321744 0.00262532 0.00246433 0.01347599 0.00489429 0.01929442 0.00276047 0.00406239 0.09280008 0.00390893 0.01613673 0.02506056 0.00159360 
0.04079456 0.04157791 0.01558095 0.00320768 0.00269726 0.00245126 0.01301936 0.00489535 0.01884474 0.00273409 0.00394673 0.09159050 0.00388879 0.01592505 0.02526074 0.00160535 
0.04079342 0.04229318 0.01610082 0.00319780 0.00276647 0.00244064 0.01256975 0.00490257 0.01843073 0.00270912 0.00383138 0.09040699 0.00387143 0.01569883 0.02546693 0.00161507 
0.04074314 0.04306002 0.01660657 0.00318784 0.00283272 0.00243257 0.01212915 0.00491606 0.01805392 0.00268573 0.00371685 0.08925151 0.00385697 0.01545894 0.02567824 0.00162276 
0.04064397 0.04387660 0.01709609 0.00317788 0.00289578 0.00242716 0.01169954 0.00493594 0.01771568 0.00266406 0.00360367 0.08812599 0.00384554 0.01520631 0.02589372 0.00162838 
0.04049643 0.04474097 0.01756733 0.00316798 0.00295546 0.00242448 0.01128283 0.00496227 0.01741725 0.00264423 0.00349232 0.08703228 0.00383721 0.01494190 0.02611236 0.00163194 
0.04030135 0.04565102 0.01801830 0.00315820 0.00301156 0.00242459 0.01088087 0.00499510 0.01715966 0.00262639 0.00338331 0.08597219 0.00383209 0.01466677 0.02633306 0.00163343 
0.04005985 0.04660455 0.01844711 0.00314864 0.00306392 0.00242757 0.01049545 0.00503446 0.01694382 0.00261065 0.00327709 0.08494749 0.00383024 0.01438199 0.02655469 0.00163286 
0.03977331 0.04759920 0.01885196 0.00313939 0.00311238 0.00243344 0.01012828 0.00508035 0.01677041 0.00259712 0.00317413 0.08395991 0.00383173 0.01408868 0.02677607 0.00163025 
0.03944339 0.04863255 0.01923114 0.00313053 0.00315681 0.00244225 0.00978096 0.00513273 0.01663998 0.00258588 0.00307485 0.08301112 0.00383660 0.01378800 0.02699596 0.00162559 
0.03907200 0.04970204 0.01958305 0.00312217 0.00319708 0.00245400 0.00945501 0.00519156 0.01655287 0.00257703 0.00297968 0.08210277 0.00384489 0.01348115 0.02721311 0.00161894 
0.03866130 0.05080505 0.01990622 0.00311440 0.00323309 0.00246870 0.00915185 0.00525675 0.01650922 0.00257064 0.00288899 0.08123644 0.00385660 0.01316933 0.02742625 0.00161031 
0.03821365 0.05193888 0.02019929 0.00310735 0.00326476 0.00248634 0.00887278 0.00532819 0.01650901 0.00256677 0.00280316 0.08041368 0.00387175 0.01285379 0.02763408 0.00159974 
0.03773163 0.05310075 0.02046103 0.00310111 0.00329202 0.00250690 0.00861896 0.00540573 0.01655203 0.00256547 0.00272251 0.07963602 0.00389030 0.01253577 0.02783532 0.00158727 
0.03721803 0.05428785 0.02069036 0.00309581 0.00331484 0.00253034 0.00839147 0.00548920 0.01663786 0.00256678 0.00264734 0.07890491 0.00391223 0.01221654 0.02802869 0.00157296 
0.03667577 0.05549729 0.02088632 0.00309156 0.00333318 0.00255662 0.00819120 0.00557840 0.01676592 0.00257071 0.00257794 0.07822178 0.00393748 0.01189735 0.02821293 0.00155686 
0.03610796 0.05672617 0.02104811 0.00308847 0.00334704 0.00258568 0.00801897 0.00567310 0.01693544 0.00257727 0.00251454 0.07758803 0.00396598 0.01157946 0.02838682 0.00153902 
0.03551783 0.05797157 0.02117508 0.00308667 0.00335643 0.00261743 0.00787541 0.00577305 0.01714546 0.00258647 0.00245736 0.07700498 0.00399764 0.01126411 0.02854916 0.00151951 
0.03490871 0.05923051 0.02126671 0.00308627 0.00336139 0.00265181 0.00776102 0.00587794 0.01739487 0.00259829 0.00240656 0.07647394 0.00403237 0.01095255 0.02869881 0.00149839 
0.03428404 0.06050006 0.02132266 0.00308738 0.00336196 0.00268871 0.00767619 0.00598748 0.01768236 0.00261271 0.00236230 0.07599613 0.00407002 0.01064598 0.02883470 0.00147574 
0.03364732 0.06177725 0.02134273 0.00309012 0.00335822 0.00272802 0.00762111 0.00610132 0.01800648 0.00262967 0.00232468 0.07557276 0.00411048 0.01034559 0.02895582 0.00145163 
0.03300213 0.06305914 0.02132687 0.00309460 0.00335026 0.00276964 0.00759588 0.00621908 0.01836562 0.00264913 0.00229377 0.07520497 0.00415358 0.01005253 0.02906123 0.00142614 
0.03235203 0.06434281 0.02127521 0.00310092 0.00333818 0.00281343 0.00760040 0.00634039 0.01875802 0.00267104 0.00226962 0.07489382 0.00419915 0.00976791 0.02915010 0.00139935 
0.03170063 0.06562537 0.02118800 0.00310918 0.00332211 0.00285926 0.00763448 0.00646482 0.01918180 0.00269530 0.00225222 0.07464034 0.00424701 0.00949281 0.02922167 0.00137135 
0.03105152 0.06690396 0.02106566 0.00311946 0.00330219 0.00290697 0.00769774 0.00659194 0.01963492 0.00272185 0.00224156 0.07444548 0.00429695 0.00922825 0.02927531 0.00134221 
0.03040824 0.06817576 0.02090875 0.00313186 0.00327857 0.00295643 0.00778970 0.00672129 0.02011524 0.00275058 0.00223757 0.07431011 0.00434877 0.00897522 0.02931047 0.00131203 
0.02977430 0.06943801 0.02071799 0.00314643 0.00325142 0.00300746 0.00790973 0.00685240 0.02062052 0.00278140 0.00224016 0.07423502 0.00440225 0.00873463 0.02932673 0.00128090 
0.02915312 0.07068801 0.02049423 0.00316326 0.00322093 0.00305991 0.00805705 0.00698478 0.02114841 0.00281420 0.00224922 0.07422094 0.00445714 0.00850734 0.02932380 0.00124891 
0.02854805 0.07192311 0.02023845 0.00318238 0.00318730 0.00311359 0.00823079 0.00711793 0.02169649 0.00284885 0.00226458 0.07426850 0.00451321 0.00829415 0.02930150 0.00121614 
0.02796231 0.07314074 0.01995178 0.00320384 0.00315072 0.00316832 0.00842993 0.00725132 0.02226225 0.00288522 0.00228607 0.07437822 0.00457020 0.00809579 0.02925978 0.00118270 
0.02739901 0.07433838 0.01963546 0.00322767 0.00311144 0.00322392 0.00865336 0.00738444 0.02284316 0.00292320 0.00231348 0.07455054 0.00462787 0.00791293 0.02919874 0.00114867 
0.02686110 0.07551362 0.01929086 0.00325388 0.00306966 0.00328020 0.00889983 0.00751675 0.02343659 0.00296263 0.00234659 0.07478579 0.00468594 0.00774615 0.02911858 0.00111414 
0.02635140 0.07666409 0.01891945 0.00328247 0.00302564 0.00333698 0.00916803 0.00764771 0.02403993 0.00300339 0.00238513 0.07508418 0.00474415 0.00759597 0.02901965 0.00107921 
0.02587253 0.07778754 0.01852281 0.00331342 0.00297962 0.00339404 0.00945653 0.00777679 0.02465053 0.00304531 0.00242884 0.07544581 0.00480224 0.00746282 0.02890245 0.00104397 
0.02542693 0.07888178 0.01810262 0.00334671 0.00293184 0.00345120 0.00976384 0.00790345 0.02526574 0.00308826 0.00247741 0.07587063 0.00485995 0.00734709 0.02876758 0.00100850 
0.02501685 0.07994472 0.01766065 0.00338229 0.00288255 0.00350826 0.01008836 0.00802716 0.02588292 0.00313208 0.00253053 0.07635851 0.00491700 0.00724904 0.02861579 0.00097290 
0.02464432 0.08097434 0.01719875 0.00342008 0.00283203 0.00356503 0.01042847 0.00814738 0.02649946 0.00317663 0.00258788 0.07690912 0.00497314 0.00716888 0.02844794 0.00093725 
0.02431117 0.08196872 0.01671884 0.00346003 0.00278052 0.00362129 0.01078246 0.00826360 0.02711277 0.00322173 0.00264910 0.07752203 0.00502813 0.00710675 0.02826503 0.00090163 
0.02401898 0.08292604 0.01622291 0.00350202 0.00272829 0.00367687 0.01114860 0.00837531 0.02772033 0.00326725 0.00271386 0.07819665 0.00508170 0.00706269 0.02806816 0.00086614 
0.02376910 0.08384454 0.01571298 0.00354595 0.00267559 0.00373155 0.01152510 0.00848203 0.02831968 0.00331303 0.00278178 0.07893224 0.00513363 0.00703667 0.02785854 0.00083084 
0.02356264 0.08472257 0.01519115 0.00359168 0.00262268 0.00378517 0.01191016 0.00858326 0.02890843 0.00335892 0.00285249 0.07972789 0.00518368 0.00702858 0.02763749 0.00079582 
0.02340048 0.08555856 0.01465954 0.00363907 0.00256981 0.00383752 0.01230196 0.00867857 0.02948429 0.00340476 0.00292562 0.08058254 0.00523165 0.00703825 0.02740643 0.00076115 
0.02328322 0.08635102 0.01412029 0.00368797 0.00251722 0.00388843 0.01269868 0.00876752 0.03004507 0.00345042 0.00300078 0.08149497 0.00527734 0.00706541 0.02716684 0.00072690 
0.02321124 0.08709856 0.01357556 0.00373819 0.00246516 0.00393772 0.01309849 0.00884970 0.03058868 0.00349574 0.00307760 0.08246378 0.00532055 0.00710974 0.02692032 0.00069314 
0.02318465 0.08779985 0.01302753 0.00378954 0.00241386 0.00398522 0.01349959 0.00892473 0.03111316 0.00354059 0.00315570 0.08348741 0.00536113 0.00717083 0.02666849 0.00065993 
0.02320333 0.08845367 0.01247838 0.00384182 0.00236354 0.00403077 0.01390020 0.00899226 0.03161668 0.00358484 0.00323470 0.08456413 0.00539891 0.00724822 0.02641307 0.00062733 
0.02326689 0.08905886 0.01193025 0.00389481 0.00231442 0.00407422 0.01429856 0.00905197 0.03209757 0.00362834 0.00331422 0.08569204 0.00543378 0.00734138 0.02615579 0.00059541 
0.02337471 0.08961435 0.01138531 0.00394828 0.00226669 0.00411541 0.01469297 0.00910358 0.03255427 0.00367098 0.00339391 0.08686905 0.00546561 0.00744971 0.02589844 0.00056420 
0.02352593 0.09011915 0.01084567 0.00400199 0.00222056 0.00415422 0.01508177 0.00914683 0.03298540 0.00371263 0.00347339 0.08809294 0.00549431 0.00757257 0.02564282 0.00053377 
0.02371946 0.09057233 0.01031341 0.00405569 0.00217619 0.00419051 0.01546337 0.00918152 0.03338976 0.00375317 0.00355233 0.08936130 0.00551982 0.00770925 0.02539075 0.00050416 
0.02395399 0.09097305 0.00979058 0.00410913 0.00213376 0.00422416 0.01583622 0.00920748 0.03376628 0.00379250 0.00363038 0.09067155 0.00554208 0.00785900 0.02514405 0.00047540 
0.02422799 0.09132054 0.00927918 0.00416204 0.00209341 0.00425508 0.01619889 0.00922456 0.03411410 0.00383052 0.00370722 0.09202097 0.00556108 0.00802102 0.02490451 0.00044754 
0.02453973 0.09161413 0.00878112 0.00421414 0.00205529 0.00428317 0.01654998 0.00923268 0.03443249 0.00386712 0.00378253 0.09340667 0.00557679 0.00819447 0.02467392 0.00042060 
0.02488728 0.09185320 0.00829829 0.00426517 0.00201951 0.00430834 0.01688822 0.00923178 0.03472095 0.00390222 0.00385601 0.09482564 0.00558925 0.00837847 0.02445403 0.00039462 
0.02526855 0.09203720 0.00783249 0.00431486 0.00198618 0.00433052 0.01721241 0.00922186 0.03497912 0.00393573 0.00392739 0.09627469 0.00559849 0.00857211 0.02424652 0.00036962 
0.02568125 0.09216568 0.00738543 0.00436292 0.00195539 0.00434965 0.01752145 0.00920295 0.03520683 0.00396756 0.00399640 0.09775055 0.00560457 0.00877446 0.02405304 0.00034561 
0.02612297 0.09223828 0.00695877 0.00440909 0.00192723 0.00436570 0.01781435 0.00917513 0.03540408 0.00399766 0.00406278 0.09924978 0.00560757 0.00898456 0.02387516 0.00032261 
0.02659114 0.09225468 0.00655404 0.00445309 0.00190173 0.00437862 0.01809022 0.00913851 0.03557108 0.00402595 0.00412631 0.10076885 0.00560760 0.00920143 0.02371436 0.00030064 
0.02708308 0.09221468 0.00617271 0.00449467 0.00187896 0.00438840 0.01834828 0.00909327 0.03570816 0.00405237 0.00418677 0.10230415 0.00560478 0.00942408 0.02357203 0.00027970 
0.02759601 0.09211817 0.00581613 0.00453356 0.00185893 0.00439503 0.01858786 0.00903959 0.03581586 0.00407687 0.00424397 0.10385194 0.00559924 0.00965151 0.02344948 0.00025979 
0.02812704 0.09196511 0.00548557 0.00456952 0.00184166 0.00439851 0.01880841 0.00897774 0.03589486 0.00409941 0.00429773 0.10540844 0.00559115 0.00988272 0.02334789 0.00024092 
0.02867324 0.09175557 0.00518217 0.00460231 0.00182714 0.00439886 0.01900948 0.00890799 0.03594600 0.00411993 0.00434790 0.10696979 0.00558068 0.01011671 0.02326833 0.00022307 
0.02923159 0.09148972 0.00490698 0.00463172 0.00181537 0.00439613 0.01919076 0.00883066 0.03597029 0.00413841 0.00439434 0.10853210 0.00556801 0.01035248 0.02321175 0.00020625 
0.02979908 0.09116784 0.00466093 0.00465753 0.00180629 0.00439034 0.01935203 0.00874613 0.03596886 0.00415481 0.00443693 0.11009142 0.00555336 0.01058906 0.02317896 0.00019043 
0.03037265 0.09079031 0.00444482 0.00467954 0.00179988 0.00438156 0.01949318 0.00865477 0.03594299 0.00416912 0.00447558 0.11164382 0.00553692 0.01082547 0.02317062 0.00017561 
0.03094925 0.09035766 0.00425937 0.00469760 0.00179607 0.00436985 0.01961424 0.00855703 0.03589406 0.00418130 0.00451020 0.11318534 0.00551893 0.01106076 0.02318728 0.00016177 
0.03152586 0.08987050 0.00410514 0.00471153 0.00179479 0.00435529 0.01971531 0.00845335 0.03582359 0.00419136 0.00454073 0.11471205 0.00549961 0.01129400 0.02322932 0.00014889 
0.03209950 0.08932960 0.00398259 0.00472121 0.00179595 0.00433798 0.01979663 0.00834425 0.03573319 0.00419927 0.00456713 0.11622005 0.00547920 0.01152430 0.02329696 0.00013694 
0.03266723 0.08873587 0.00389207 0.00472652 0.00179947 0.00431801 0.01985852 0.00823022 0.03562457 0.00420503 0.00458937 0.11770550 0.00545794 0.01175079 0.02339029 0.00012590 
0.03322620 0.08809036 0.00383380 0.00472738 0.00180524 0.00429550 0.01990141 0.00811182 0.03549953 0.00420866 0.00460745 0.11916461 0.00543607 0.01197264 0.02350924 0.00011574 
0.03377365 0.08739427 0.00380786 0.00472373 0.00181315 0.00427056 0.01992580 0.00798960 0.03535991 0.00421014 0.00462138 0.12059369 0.00541382 0.01218904 0.02365356 0.00010643 
0.03430694 0.08664895 0.00381425 0.00471551 0.00182308 0.00424331 0.01993232 0.00786414 0.03520764 0.00420950 0.00463116 0.12198913 0.00539145 0.01239925 0.02382288 0.00009794 
0.03482352 0.08585594 0.00385281 0.00470273 0.00183490 0.00421391 0.01992165 0.00773605 0.03504468 0.00420674 0.00463686 0.12334747 0.00536918 0.01260254 0.02401664 0.00009023 
0.03532103 0.08501694 0.00392328 0.00468539 0.00184849 0.00418248 0.01989454 0.00760592 0.03487303 0.00420189 0.00463851 0.12466535 0.00534724 0.01279826 0.02423417 0.00008327 
0.03579722 0.08413381 0.00402530 0.00466354 0.00186370 0.00414917 0.01985184 0.00747439 0.03469470 0.00419498 0.00463619 0.12593958 0.00532585 0.01298578 0.02447461 0.00007703 
0.03625004 0.08320863 0.00415835 0.00463725 0.00188040 0.00411415 0.01979445 0.00734208 0.03451172 0.00418602 0.00462997 0.12716714 0.00530522 0.01316453 0.02473698 0.00007146 
0.03667760 0.08224363 0.00432185 0.00460660 0.00189845 0.00407755 0.01972331 0.00720960 0.03432610 0.00417505 0.00461995 0.12834515 0.00528555 0.01333400 0.02502014 0.00006653 
0.03707822 0.08124125 0.00451508 0.00457173 0.00191770 0.00403956 0.01963943 0.00707760 0.03413987 0.00416212 0.00460623 0.12947098 0.00526703 0.01349371 0.02532284 0.00006220 
0.03745042 0.08020414 0.00473721 0.00453278 0.00193801 0.00400032 0.01954386 0.00694670 0.03395499 0.00414726 0.00458893 0.13054215 0.00524983 0.01364326 0.02564368 0.00005843 
0.03779293 0.07913512 0.00498732 0.00448993 0.00195922 0.00396000 0.01943768 0.00681751 0.03377341 0.00413051 0.00456816 0.13155644 0.00523409 0.01378229 0.02598114 0.00005518 
0.03810469 0.07803723 0.00526439 0.00444339 0.00198121 0.00391877 0.01932199 0.00669065 0.03359703 0.00411194 0.00454405 0.13251183 0.00521996 0.01391050 0.02633360 0.00005241 
0.03838488 0.07691370 0.00556729 0.00439339 0.00200383 0.00387679 0.01919792 0.00656670 0.03342768 0.00409159 0.00451676 0.13340655 0.00520754 0.01402763 0.02669932 0.00005008 
0.03863291 0.07576796 0.00589483 0.00434017 0.00202694 0.00383424 0.01906662 0.00644626 0.03326713 0.00406953 0.00448642 0.13423907 0.00519695 0.01413349 0.02707648 0.00004815 
0.03884843 0.07460363 0.00624569 0.00428402 0.00205042 0.00379126 0.01892923 0.00632989 0.03311708 0.00404582 0.00445319 0.13500810 0.00518825 0.01422793 0.02746315 0.00004659 
0.03903131 0.07342454 0.00661850 0.00422524 0.00207412 0.00374802 0.01878689 0.00621812 0.03297912 0.00402052 0.00441723 0.13571263 0.00518150 0.01431088 0.02785734 0.00004536 
0.03918169 0.07223469 0.00701181 0.00416414 0.00209794 0.00370468 0.01864074 0.00611147 0.03285479 0.00399373 0.00437869 0.13635189 0.00517673 0.01438230 0.02825700 0.00004442 
0.03929993 0.07103828 0.00742407 0.00410106 0.00212175 0.00366139 0.01849189 0.00601043 0.03274549 0.00396550 0.00433776 0.13692539 0.00517395 0.01444219 0.02865999 0.00004374 
0.03938661 0.06983966 0.00785371 0.00403637 0.00214545 0.00361830 0.01834144 0.00591547 0.03265255 0.00393594 0.00429459 0.13743289 0.00517316 0.01449063 0.02906418 0.00004327 
0.03944258 0.06864336 0.00829906 0.00397043 0.00216892 0.00357555 0.01819045 0.00582702 0.03257716 0.00390512 0.00424937 0.13787442 0.00517430 0.01452773 0.02946735 0.00004300 
0.03946888 0.06745407 0.00875842 0.00390362 0.00219209 0.00353327 0.01803997 0.00574547 0.03252042 0.00387314 0.00420227 0.13825028 0.00517734 0.01455364 0.02986730 0.00004288 
0.03946680 0.06627661 0.00923002 0.00383636 0.00221485 0.00349160 0.01789097 0.00567119 0.03248331 0.00384010 0.00415347 0.13856101 0.00518220 0.01456858 0.03026181 0.00004289 
0.03943782 0.06511593 0.00971208 0.00376903 0.00223714 0.00345066 0.01774440 0.00560450 0.03246669 0.00380610 0.00410315 0.13880743 0.00518876 0.01457278 0.03064866 0.00004300 
0.03938365 0.06397709 0.01020275 0.00370207 0.00225888 0.00341057 0.01760117 0.00554569 0.03247130 0.00377124 0.00405149 0.13899057 0.00519692 0.01456652 0.03102565 0.00004318 
0.03930616 0.06286525 0.01070018 0.00363588 0.00228002 0.00337143 0.01746210 0.00549502 0.03249776 0.00373565 0.00399867 0.13911173 0.00520655 0.01455013 0.03139060 0.00004341 
0.03920743 0.06178564 0.01120249 0.00357089 0.00230049 0.00333334 0.01732799 0.00545268 0.03254656 0.00369944 0.00394486 0.13917244 0.00521747 0.01452396 0.03174137 0.00004366 
0.03908968 0.06074356 0.01170777 0.00350752 0.00232026 0.00329640 0.01719954 0.00541886 0.03261810 0.00366272 0.00389025 0.13917443 0.00522953 0.01448839 0.03207587 0.00004391 
0.03895530 0.05974432 0.01221412 0.00344620 0.00233929 0.00326069 0.01707742 0.00539368 0.03271262 0.00362563 0.00383501 0.13911965 0.00524254 0.01444384 0.03239208 0.00004415 
0.03880682 0.05879328 0.01271963 0.00338734 0.00235756 0.00322627 0.01696220 0.00537721 0.03283028 0.00358828 0.00377932 0.13901025 0.00525629 0.01439075 0.03268806 0.00004435 
0.03864687 0.05789576 0.01322241 0.00333134 0.00237505 0.00319323 0.01685441 0.00536952 0.03297112 0.00355081 0.00372336 0.13884857 0.00527058 0.01432957 0.03296193 0.00004450 
0.03847821 0.05705705 0.01372057 0.00327861 0.00239174 0.00316161 0.01675449 0.00537059 0.03313506 0.00351335 0.00366729 0.13863710 0.00528519 0.01426080 0.03321191 0.00004459 
0.03830365 0.05628239 0.01421225 0.00322954 0.00240764 0.00313146 0.01666281 0.00538040 0.03332192 0.00347603 0.00361128 0.13837848 0.00529988 0.01418493 0.03343635 0.00004461 
0.03812609 0.05557692 0.01469560 0.00318450 0.00242275 0.00310282 0.01657967 0.00539885 0.03353143 0.00343900 0.00355550 0.13807552 0.00531443 0.01410246 0.03363369 0.00004454 
0.03794847 0.05494568 0.01516882 0.00314385 0.00243708 0.00307572 0.01650530 0.00542584 0.03376321 0.00340240 0.00350012 0.13773112 0.00532859 0.01401393 0.03380248 0.00004437 
0.03777376 0.05439356 0.01563015 0.00310792 0.00245066 0.00305020 0.01643986 0.00546121 0.03401681 0.00336635 0.00344528 0.13734830 0.00534212 0.01391986 0.03394144 0.00004411 
0.03760491 0.05392529 0.01607788 0.00307705 0.00246350 0.00302625 0.01638343 0.00550475 0.03429168 0.00333101 0.00339115 0.13693017 0.00535480 0.01382080 0.03404941 0.00004374 
0.03744490 0.05354537 0.01651035 0.00305152 0.00247564 0.00300390 0.01633602 0.00555624 0.03458719 0.00329651 0.00333788 0.13647989 0.00536637 0.01371728 0.03412535 0.00004326 
0.03729663 0.05325812 0.01692596 0.00303160 0.00248711 0.00298313 0.01629759 0.00561541 0.03490265 0.00326300 0.00328561 0.13600069 0.00537662 0.01360984 0.03416841 0.00004268 
0.03716297 0.05306757 0.01732319 0.00301755 0.00249795 0.00296396 0.01626801 0.00568196 0.03523729 0.00323060 0.00323449 0.13549584 0.00538532 0.01349902 0.03417788 0.00004198 
0.03704669 0.05297749 0.01770056 0.00300958 0.00250820 0.00294636 0.01624711 0.00575557 0.03559031 0.00319945 0.00318465 0.13496863 0.00539225 0.01338535 0.03415321 0.00004118 
0.03695050 0.05299131 0.01805671 0.00300788 0.00251791 0.00293031 0.01623463 0.00583587 0.03596082 0.00316969 0.00313623 0.13442233 0.00539722 0.01326936 0.03409402 0.00004028 
0.03687694 0.05311217 0.01839034 0.00301262 0.00252712 0.00291580 0.01623029 0.00592247 0.03634790 0.00314145 0.00308936 0.13386023 0.00540003 0.01315157 0.03400010 0.00003927 
0.03682847 0.05334279 0.01870025 0.00302391 0.00253588 0.00290279 0.01623374 0.00601497 0.03675059 0.00311485 0.00304415 0.13328557 0.00540051 0.01303249 0.03387140 0.00003816 
0.03680736 0.05368556 0.01898533 0.00304185 0.00254424 0.00289126 0.01624457 0.00611294 0.03716789 0.00309000 0.00300073 0.13270154 0.00539850 0.01291260 0.03370805 0.00003697 
0.03681571 0.05414241 0.01924456 0.00306650 0.00255225 0.00288117 0.01626235 0.00621593 0.03759878 0.00306703 0.00295921 0.13211129 0.00539387 0.01279239 0.03351035 0.00003569 
0.03685545 0.05471486 0.01947703 0.00309788 0.00255996 0.00287248 0.01628659 0.00632346 0.03804220 0.00304605 0.00291969 0.13151790 0.00538650 0.01267233 0.03327878 0.00003434 
0.03692830 0.05540397 0.01968195 0.00313600 0.00256741 0.00286515 0.01631677 0.00643505 0.03849707 0.00302715 0.00288227 0.13092435 0.00537629 0.01255286 0.03301397 0.00003292 
0.03703575 0.05621033 0.01985862 0.00318081 0.00257465 0.00285913 0.01635235 0.00655021 0.03896232 0.00301043 0.00284704 0.13033353 0.00536317 0.01243442 0.03271674 0.00003144 
0.03717907 0.05713403 0.02000646 0.00323222 0.00258173 0.00285440 0.01639274 0.00666844 0.03943684 0.00299597 0.00281409 0.12974822 0.00534709 0.01231740 0.03238805 0.00002991 
0.03735929 0.05817467 0.02012500 0.00329012 0.00258868 0.00285089 0.01643736 0.00678922 0.03991952 0.00298385 0.00278349 0.12917110 0.00532802 0.01220222 0.03202904 0.00002834 
0.03757718 0.05933132 0.02021390 0.00335437 0.00259553 0.00284857 0.01648559 0.00691204 0.04040926 0.00297414 0.00275533 0.12860471 0.00530597 0.01208922 0.03164100 0.00002675 
0.03783326 0.06060251 0.02027291 0.00342478 0.00260233 0.00284739 0.01653681 0.00703640 0.04090495 0.00296690 0.00272965 0.12805146 0.00528095 0.01197877 0.03122536 0.00002513 
0.03812777 0.06198625 0.02030193 0.00350114 0.00260910 0.00284731 0.01659040 0.00716177 0.04140548 0.00296217 0.00270653 0.12751362 0.00525303 0.01187120 0.03078371 0.00002351 
0.03846068 0.06348000 0.02030095 0.00358319 0.00261585 0.00284828 0.01664573 0.00728765 0.04190974 0.00296000 0.00268600 0.12699332 0.00522228 0.01176680 0.03031775 0.00002188 
0.03883170 0.06508069 0.02027009 0.00367066 0.00262262 0.00285028 0.01670217 0.00741353 0.04241664 0.00296040 0.00266811 0.12649254 0.00518880 0.01166586 0.02982933 0.00002027 
0.03924023 0.06678468 0.02020961 0.00376324 0.00262940 0.00285325 0.01675912 0.00753893 0.04292510 0.00296339 0.00265289 0.12601311 0.00515272 0.01156865 0.02932041 0.00001867 
0.03968542 0.06858781 0.02011984 0.00386059 0.00263621 0.00285718 0.01681598 0.00766336 0.04343402 0.00296898 0.00264036 0.12555669 0.00511421 0.01147541 0.02879306 0.00001711 
0.04016613 0.07048538 0.02000125 0.00396234 0.00264305 0.00286202 0.01687217 0.00778636 0.04394235 0.00297715 0.00263054 0.12512479 0.00507343 0.01138635 0.02824944 0.00001558 
0.04068095 0.07247216 0.01985443 0.00406809 0.00264990 0.00286775 0.01692714 0.00790747 0.04444901 0.00298789 0.00262344 0.12471877 0.00503059 0.01130167 0.02769181 0.00001410 
0.04122821 0.07454242 0.01968007 0.00417744 0.00265676 0.00287434 0.01698035 0.00802625 0.04495297 0.00300116 0.00261905 0.12433983 0.00498591 0.01122156 0.02712250 0.00001268 
0.04180596 0.07668991 0.01947895 0.00428995 0.00266361 0.00288178 0.01703132 0.00814230 0.04545317 0.00301691 0.00261736 0.12398900 0.00493964 0.01114616 0.02654390 0.00001131 
0.04241203 0.07890794 0.01925197 0.00440515 0.00267042 0.00289004 0.01707958 0.00825522 0.04594860 0.00303510 0.00261835 0.12366717 0.00489204 0.01107562 0.02595846 0.00001002 
0.04304397 0.08118931 0.01900012 0.00452257 0.00267717 0.00289913 0.01712472 0.00836465 0.04643823 0.00305564 0.00262199 0.12337507 0.00484339 0.01101006 0.02536868 0.00000880 
0.04369912 0.08352644 0.01872449 0.00464173 0.00268381 0.00290902 0.01716636 0.00847022 0.04692106 0.00307846 0.00262825 0.12311326 0.00479400 0.01094956 0.02477707 0.00000765 
0.04437463 0.08591132 0.01842624 0.00476212 0.00269030 0.00291973 0.01720415 0.00857162 0.04739607 0.00310347 0.00263707 0.12288219 0.00474417 0.01089423 0.02418616 0.00000659 
0.04506739 0.08833556 0.01810663 0.00488323 0.00269661 0.00293124 0.01723783 0.00866856 0.04786228 0.00313056 0.00264839 0.12268213 0.00469422 0.01084412 0.02359849 0.00000561 
0.04577417 0.09079044 0.01776698 0.00500455 0.00270267 0.00294357 0.01726716 0.00876077 0.04831870 0.00315962 0.00266216 0.12251321 0.00464449 0.01079928 0.02301658 0.00000473 
0.04649152 0.09326693 0.01740869 0.00512554 0.00270843 0.00295673 0.01729195 0.00884800 0.04876434 0.00319052 0.00267829 0.12237545 0.00459533 0.01075975 0.02244295 0.00000393 
0.04721588 0.09575573 0.01703322 0.00524569 0.00271383 0.00297073 0.01731206 0.00893005 0.04919825 0.00322313 0.00269671 0.12226871 0.00454706 0.01072555 0.02188005 0.00000322 
0.04794355 0.09824732 0.01664207 0.00536447 0.00271880 0.00298559 0.01732744 0.00900672 0.04961944 0.00325730 0.00271732 0.12219272 0.00450005 0.01069668 0.02133031 0.00000261 
0.04867070 0.10073198 0.01623682 0.00548136 0.00272329 0.00300134 0.01733805 0.00907787 0.05002696 0.00329289 0.00274002 0.12214709 0.00445464 0.01067314 0.02079609 0.00000208 
0.04939345 0.10319986 0.01581906 0.00559585 0.00272723 0.00301799 0.01734392 0.00914337 0.05041984 0.00332972 0.00276470 0.12213131 0.00441117 0.01065492 0.02027967 0.00000165 
0.05010784 0.10564101 0.01539043 0.00570743 0.00273054 0.00303559 0.01734516 0.00920311 0.05079715 0.00336764 0.00279125 0.12214474 0.00436998 0.01064197 0.01978324 0.00000130 
0.05080985 0.10804542 0.01495259 0.00581561 0.00273316 0.00305415 0.01734189 0.00925704 0.05115793 0.00340647 0.00281954 0.12218662 0.00433141 0.01063428 0.01930893 0.00000103 
0.05149548 0.11040309 0.01450721 0.00591991 0.00273501 0.00307371 0.01733432 0.00930510 0.05150124 0.00344603 0.00284944 0.12225610 0.00429578 0.01063178 0.01885873 0.00000085 
0.05216069 0.11270405 0.01405599 0.00601988 0.00273604 0.00309431 0.01732270 0.00934727 0.05182617 0.00348613 0.00288082 0.12235220 0.00426339 0.01063442 0.01843452 0.00000074 
0.05280151 0.11493845 0.01360062 0.00611506 0.00273616 0.00311598 0.01730732 0.00938358 0.05213179 0.00352659 0.00291354 0.12247384 0.00423454 0.01064213 0.01803806 0.00000070 
0.05341398 0.11709655 0.01314277 0.00620504 0.00273533 0.00313876 0.01728853 0.00941405 0.05241720 0.00356721 0.00294744 0.12261982 0.00420950 0.01065484 0.01767097 0.00000072 
0.05399425 0.11916885 0.01268413 0.00628942 0.00273348 0.00316269 0.01726673 0.00943875 0.05268151 0.00360781 0.00298238 0.12278887 0.00418854 0.01067247 0.01733474 0.00000081 
0.05453852 0.12114604 0.01222633 0.00636783 0.00273055 0.00318780 0.01724235 0.00945774 0.05292383 0.00364818 0.00301819 0.12297958 0.00417189 0.01069494 0.01703069 0.00000094 
0.05504316 0.12301914 0.01177102 0.00643993 0.00272649 0.00321413 0.01721587 0.00947114 0.05314333 0.00368814 0.00305473 0.12319047 0.00415976 0.01072214 0.01675999 0.00000112 
0.05550463 0.12477948 0.01131976 0.00650541 0.00272126 0.00324171 0.01718779 0.00947907 0.05333916 0.00372749 0.00309182 0.12341996 0.00415234 0.01075399 0.01652366 0.00000134 
0.05591957 0.12641880 0.01087410 0.00656398 0.00271482 0.00327058 0.01715867 0.00948167 0.05351051 0.00376604 0.00312931 0.12366636 0.00414979 0.01079037 0.01632254 0.00000159 
0.05628479 0.12792926 0.01043555 0.00661540 0.00270713 0.00330076 0.01712907 0.00947910 0.05365662 0.00380360 0.00316703 0.12392789 0.00415223 0.01083118 0.01615728 0.00000186 
0.05659730 0.12930347 0.01000553 0.00665946 0.00269817 0.00333228 0.01709960 0.00947152 0.05377674 0.00383999 0.00320480 0.12420269 0.00415977 0.01087630 0.01602840 0.00000215 
0.05685433 0.13053458 0.00958543 0.00669597 0.00268793 0.00336515 0.01707087 0.00945913 0.05387016 0.00387504 0.00324247 0.12448879 0.00417248 0.01092562 0.01593620 0.00000244 
0.05705330 0.13161628 0.00917656 0.00672479 0.00267639 0.00339941 0.01704351 0.00944212 0.05393622 0.00390856 0.00327988 0.12478415 0.00419039 0.01097900 0.01588081 0.00000273 
0.05719191 0.13254284 0.00878015 0.00674581 0.00266357 0.00343505 0.01701817 0.00942070 0.05397432 0.00394039 0.00331685 0.12508661 0.00421351 0.01103633 0.01586220 0.00000302 
0.05726811 0.13330914 0.00839736 0.00675898 0.00264947 0.00347209 0.01699549 0.00939509 0.05398388 0.00397037 0.00335323 0.12539396 0.00424182 0.01109746 0.01588015 0.00000329 
0.05728010 0.13391073 0.00802927 0.00676425 0.00263412 0.00351053 0.01697613 0.00936551 0.05396440 0.00399837 0.00338887 0.12570388 0.00427525 0.01116226 0.01593424 0.00000354 
0.05722635 0.13434382 0.00767687 0.00676163 0.00261756 0.00355035 0.01696073 0.00933218 0.05391543 0.00402423 0.00342361 0.12601398 0.00431370 0.01123060 0.01602392 0.00000377 
0.05710565 0.13460532 0.00734107 0.00675118 0.00259982 0.00359155 0.01694993 0.00929534 0.05383660 0.00404782 0.00345730 0.12632178 0.00435705 0.01130231 0.01614842 0.00000396 
0.05691704 0.13469285 0.00702268 0.00673296 0.00258096 0.00363411 0.01694434 0.00925521 0.05372759 0.00406904 0.00348981 0.12662472 0.00440514 0.01137726 0.01630683 0.00000410 
0.05665988 0.13460478 0.00672240 0.00670710 0.00256106 0.00367799 0.01694458 0.00921203 0.05358818 0.00408778 0.00352101 0.12692020 0.00445777 0.01145529 0.01649807 0.00000420 
0.05633382 0.13434019 0.00644086 0.00667376 0.00254019 0.00372317 0.01695121 0.00916602 0.05341819 0.00410394 0.00355076 0.12720551 0.00451473 0.01153623 0.01672090 0.00000426 
0.05593881 0.13389894 0.00617858 0.00663311 0.00251844 0.00376960 0.01696480 0.00911741 0.05321757 0.00411744 0.00357894 0.12747791 0.00457576 0.01161992 0.01697393 0.00000425 
0.05547510 0.13328163 0.00593597 0.00658539 0.00249591 0.00381721 0.01698585 0.00906642 0.05298632 0.00412822 0.00360547 0.12773458 0.00464056 0.01170620 0.01725562 0.00000419 
0.05494325 0.13248963 0.00571336 0.00653084 0.00247272 0.00386597 0.01701485 0.00901325 0.05272455 0.00413623 0.00363022 0.12797266 0.00470885 0.01179488 0.01756431 0.00000407 
0.05434410 0.13152504 0.00551098 0.00646976 0.00244898 0.00391578 0.01705224 0.00895812 0.05243245 0.00414143 0.00365312 0.12818926 0.00478028 0.01188580 0.01789820 0.00000389 
0.05367878 0.13039071 0.00532893 0.00640245 0.00242483 0.00396659 0.01709841 0.00890121 0.05211030 0.00414379 0.00367409 0.12838144 0.00485449 0.01197876 0.01825536 0.00000364 
0.05294871 0.12909023 0.00516724 0.00632926 0.00240041 0.00401829 0.01715370 0.00884272 0.05175849 0.00414332 0.00369306 0.12854624 0.00493111 0.01207358 0.01863378 0.00000333 
0.05215560 0.12762787 0.00502585 0.00625056 0.00237587 0.00407080 0.01721841 0.00878281 0.05137751 0.00414001 0.00370998 0.12868070 0.00500973 0.01217006 0.01903132 0.00000296 
0.05130140 0.12600863 0.00490459 0.00616674 0.00235137 0.00412400 0.01729278 0.00872165 0.05096792 0.00413390 0.00372480 0.12878183 0.00508995 0.01226801 0.01944578 0.00000252 
0.05038833 0.12423817 0.00480320 0.00607820 0.00232708 0.00417780 0.01737700 0.00865938 0.05053041 0.00412502 0.00373751 0.12884669 0.00517133 0.01236723 0.01987487 0.00000202 
0.04941886 0.12232276 0.00472133 0.00598538 0.00230316 0.00423207 0.01747119 0.00859615 0.05006575 0.00411343 0.00374808 0.12887232 0.00525343 0.01246751 0.02031623 0.00000147 
0.04839569 0.12026932 0.00465856 0.00588872 0.00227980 0.00428668 0.01757541 0.00853206 0.04957481 0.00409919 0.00375651 0.12885582 0.00533581 0.01256864 0.02076747 0.00000086 
0.04732172 0.11808532 0.00461437 0.00578868 0.00225717 0.00434151 0.01768967 0.00846723 0.04905855 0.00408239 0.00376281 0.12879435 0.00541801 0.01267041 0.02122612 0.00000020 
0.04620009 0.11577878 0.00458818 0.00568574 0.00223546 0.00439640 0.01781391 0.00840175 0.04851803 0.00406313 0.00376700 0.12868511 0.00549957 0.01277261 0.02168973 0.00000051 
0.04503410 0.11335822 0.00457933 0.00558036 0.00221486 0.00445122 0.01794801 0.00833569 0.04795438 0.00404152 0.00376913 0.12852539 0.00558004 0.01287501 0.02215579 0.00000125 
0.04382724 0.11083261 0.00458708 0.00547304 0.00219556 0.00450582 0.01809179 0.00826912 0.04736883 0.00401768 0.00376923 0.12831259 0.00565896 0.01297740 0.02262181 0.00000202 
0.04258313 0.10821132 0.00461066 0.00536425 0.00217774 0.00456004 0.01824502 0.00820209 0.04676269 0.00399176 0.00376739 0.12804422 0.00573589 0.01307955 0.02308531 0.00000282 
0.04130556 0.10550411 0.00464922 0.00525450 0.00216160 0.00461372 0.01840738 0.00813463 0.04613734 0.00396390 0.00376366 0.12771791 0.00581039 0.01318125 0.02354381 0.00000363 
0.03999844 0.10272103 0.00470185 0.00514427 0.00214731 0.00466670 0.01857852 0.00806675 0.04549422 0.00393427 0.00375814 0.12733145 0.00588202 0.01328228 0.02399490 0.00000446 
0.03866575 0.09987240 0.00476763 0.00503403 0.00213506 0.00471881 0.01875801 0.00799847 0.04483484 0.00390303 0.00375094 0.12688279 0.00595039 0.01338240 0.02443619 0.00000528 
0.03731161 0.09696878 0.00484558 0.00492427 0.00212502 0.00476988 0.01894539 0.00792978 0.04416076 0.00387037 0.00374215 0.12637007 0.00601508 0.01348142 0.02486534 0.00000610 
0.03594016 0.09402085 0.00493468 0.00481544 0.00211736 0.00481975 0.01914013 0.00786066 0.04347359 0.00383649 0.00373190 0.12579162 0.00607574 0.01357910 0.02528011 0.00000690 
0.03455562 0.09103941 0.00503390 0.00470801 0.00211224 0.00486826 0.01934166 0.00779108 0.04277499 0.00380157 0.00372033 0.12514600 0.00613201 0.01367524 0.02567831 0.00000767 
0.03316225 0.08803534 0.00514219 0.00460241 0.00210981 0.00491522 0.01954936 0.00772101 0.04206664 0.00376582 0.00370758 0.12443199 0.00618356 0.01376964 0.02605785 0.00000840 
0.03176430 0.08501949 0.00525847 0.00449907 0.00211021 0.00496048 0.01976257 0.00765039 0.04135023 0.00372946 0.00369378 0.12364864 0.00623009 0.01386208 0.02641677 0.00000908 
0.03036604 0.08200267 0.00538167 0.00439839 0.00211358 0.00500388 0.01998059 0.00757918 0.04062750 0.00369269 0.00367912 0.12279525 0.00627133 0.01395237 0.02675317 0.00000971 
0.02897173 0.07899559 0.00551073 0.00430076 0.00212002 0.00504524 0.02020270 0.00750732 0.03990016 0.00365573 0.00366374 0.12187139 0.00630706 0.01404033 0.02706530 0.00001027 
0.02758559 0.07600881 0.00564456 0.00420654 0.00212964 0.00508443 0.02042812 0.00743473 0.03916994 0.00361881 0.00364782 0.12087695 0.00633705 0.01412578 0.02735156 0.00001075 
0.02621180 0.07305266 0.00578212 0.00411607 0.00214253 0.00512128 0.02065608 0.00736135 0.03843855 0.00358213 0.00363153 0.11981211 0.00636115 0.01420853 0.02761045 0.00001114 
0.02485447 0.07013725 0.00592236 0.00402967 0.00215876 0.00515565 0.02088577 0.00728711 0.03770767 0.00354592 0.00361505 0.11867738 0.00637922 0.01428845 0.02784062 0.00001144 
0.02351764 0.06727236 0.00606427 0.00394764 0.00217838 0.00518740 0.02111637 0.00721194 0.03697897 0.00351040 0.00359857 0.11747356 0.00639116 0.01436537 0.02804090 0.00001164 
0.02220528 0.06446745 0.00620687 0.00387024 0.00220143 0.00521640 0.02134705 0.00713576 0.03625407 0.00347577 0.00358226 0.11620184 0.00639691 0.01443917 0.02821025 0.00001172 
0.02092124 0.06173159 0.00634921 0.00379769 0.00222793 0.00524253 0.02157697 0.00705851 0.03553453 0.00344224 0.00356632 0.11486372 0.00639647 0.01450971 0.02834779 0.00001168 
0.01966927 0.05907341 0.00649038 0.00373022 0.00225787 0.00526567 0.02180530 0.00698013 0.03482188 0.00341002 0.00355091 0.11346103 0.00638984 0.01457690 0.02845284 0.00001152 
0.01845301 0.05650109 0.00662951 0.00366801 0.00229125 0.00528572 0.02203120 0.00690056 0.03411758 0.00337930 0.00353623 0.11199599 0.00637708 0.01464064 0.02852485 0.00001122 
0.01727594 0.05402231 0.00676579 0.00361119 0.00232801 0.00530259 0.02225386 0.00681974 0.03342301 0.00335026 0.00352244 0.11047115 0.00635831 0.01470085 0.02856346 0.00001079 
0.01614142 0.05164422 0.00689846 0.00355990 0.00236811 0.00531619 0.02247246 0.00673764 0.03273949 0.00332309 0.00350973 0.10888940 0.00633364 0.01475746 0.02856849 0.00001021 
0.01505268 0.04937342 0.00702680 0.00351422 0.00241145 0.00532645 0.02268622 0.00665421 0.03206824 0.00329794 0.00349825 0.10725400 0.00630327 0.01481045 0.02853992 0.00000949 
0.01401277 0.04721592 0.00715019 0.00347421 0.00245794 0.00533330 0.02289437 0.00656945 0.03141042 0.00327498 0.00348818 0.10556853 0.00626740 0.01485978 0.02847791 0.00000862 
0.01302458 0.04517714 0.00726803 0.00343992 0.00250745 0.00533671 0.02309618 0.00648334 0.03076706 0.00325435 0.00347966 0.10383692 0.00622628 0.01490543 0.02838281 0.00000760 
0.01209084 0.04326188 0.00737981 0.00341134 0.00255986 0.00533663 0.02329094 0.00639589 0.03013914 0.00323617 0.00347284 0.10206342 0.00618020 0.01494743 0.02825512 0.00000644 
0.01121412 0.04147429 0.00748509 0.00338845 0.00261498 0.00533303 0.02347799 0.00630712 0.02952750 0.00322056 0.00346786 0.10025258 0.00612948 0.01498580 0.02809552 0.00000512 
0.01039680 0.03981791 0.00758347 0.00337120 0.00267265 0.00532592 0.02365670 0.00621706 0.02893291 0.00320762 0.00346483 0.09840927 0.00607447 0.01502058 0.02790484 0.00000367 
0.00964109 0.03829561 0.00767466 0.00335952 0.00273267 0.00531530 0.02382647 0.00612577 0.02835602 0.00319743 0.00346388 0.09653862 0.00601556 0.01505183 0.02768409 0.00000207 
0.00894899 0.03690961 0.00775841 0.00335329 0.00279482 0.00530117 0.02398677 0.00603333 0.02779739 0.00319005 0.00346510 0.09464604 0.00595314 0.01507965 0.02743442 0.00000033 
0.00832236 0.03566148 0.00783456 0.00335241 0.00285887 0.00528357 0.02413711 0.00593981 0.02725747 0.00318555 0.00346859 0.09273718 0.00588767 0.01510413 0.02715715 0.00000153 
0.00776283 0.03455214 0.00790301 0.00335671 0.00292456 0.00526254 0.02427705 0.00584533 0.02673661 0.00318395 0.00347442 0.09081789 0.00581958 0.01512538 0.02685373 0.00000352 
0.00727188 0.03358189 0.00796374 0.00336603 0.00299164 0.00523813 0.02440620 0.00575002 0.02623507 0.00318527 0.00348265 0.08889424 0.00574937 0.01514353 0.02652573 0.00000562 
0.00685077 0.03275036 0.00801679 0.00338017 0.00305982 0.00521042 0.02452422 0.00565402 0.02575299 0.00318950 0.00349333 0.08697244 0.00567753 0.01515875 0.02617486 0.00000783 
0.00650058 0.03205660 0.00806227 0.00339893 0.00312882 0.00517949 0.02463084 0.00555751 0.02529044 0.00319664 0.00350649 0.08505887 0.00560457 0.01517119 0.02580297 0.00001012 
0.00622221 0.03149904 0.00810036 0.00342209 0.00319834 0.00514542 0.02472585 0.00546068 0.02484739 0.00320664 0.00352215 0.08315999 0.00553101 0.01518103 0.02541198 0.00001250 
0.00601635 0.03107556 0.00813131 0.00344940 0.00326805 0.00510832 0.02480907 0.00536372 0.02442375 0.00321945 0.00354030 0.08128234 0.00545737 0.01518846 0.02500392 0.00001495 
0.00588352 0.03078344 0.00815541 0.00348060 0.00333765 0.00506830 0.02488040 0.00526687 0.02401931 0.00323500 0.00356095 0.07943252 0.00538421 0.01519369 0.02458093 0.00001745 
0.00582405 0.03061947 0.00817303 0.00351543 0.00340682 0.00502550 0.02493979 0.00517038 0.02363382 0.00325321 0.00358406 0.07761713 0.00531205 0.01519693 0.02414520 0.00001999 
0.00583805 0.03057991 0.00818457 0.00355362 0.00347521 0.00498005 0.02498725 0.00507451 0.02326696 0.00327396 0.00360959 0.07584272 0.00524144 0.01519840 0.02369899 0.00002255 
0.00592548 0.03066055 0.00819050 0.00359487 0.00354251 0.00493208 0.02502284 0.00497953 0.02291835 0.00329716 0.00363747 0.07411582 0.00517289 0.01519834 0.02324462 0.00002511 
0.00608609 0.03085674 0.00819134 0.00363889 0.00360837 0.00488176 0.02504668 0.00488576 0.02258756 0.00332265 0.00366765 0.07244282 0.00510694 0.01519699 0.02278446 0.00002767 
0.00631946 0.03116343 0.00818762 0.00368538 0.00367246 0.00482926 0.02505895 0.00479349 0.02227412 0.00335030 0.00370002 0.07083000 0.00504410 0.01519458 0.02232090 0.00003019 
0.00662498 0.03157517 0.00817996 0.00373404 0.00373447 0.00477472 0.02505985 0.00470306 0.02197752 0.00337995 0.00373450 0.06928344 0.00498486 0.01519137 0.02185633 0.00003267 
0.00700184 0.03208619 0.00816895 0.00378457 0.00379405 0.00471834 0.02504966 0.00461481 0.02169724 0.00341142 0.00377098 0.06780905 0.00492971 0.01518760 0.02139318 0.00003508 
0.00744908 0.03269041 0.00815526 0.00383666 0.00385091 0.00466030 0.02502870 0.00452909 0.02143273 0.00344454 0.00380932 0.06641246 0.00487910 0.01518352 0.02093385 0.00003740 
0.00796555 0.03338149 0.00813956 0.00389000 0.00390472 0.00460077 0.02499732 0.00444626 0.02118345 0.00347911 0.00384940 0.06509902 0.00483347 0.01517938 0.02048073 0.00003962 
0.00854989 0.03415285 0.00812253 0.00394429 0.00395519 0.00453994 0.02495591 0.00436668 0.02094884 0.00351494 0.00389106 0.06387378 0.00479322 0.01517542 0.02003618 0.00004172 
0.00920061 0.03499774 0.00810488 0.00399925 0.00400204 0.00447802 0.02490492 0.00429073 0.02072837 0.00355180 0.00393416 0.06274143 0.00475873 0.01517187 0.01960250 0.00004368 
0.00991602 0.03590924 0.00808731 0.00405456 0.00404499 0.00441518 0.02484480 0.00421879 0.02052153 0.00358951 0.00397853 0.06170629 0.00473036 0.01516897 0.01918196 0.00004549 
0.01069426 0.03688032 0.00807053 0.00410995 0.00408379 0.00435163 0.02477606 0.00415122 0.02032783 0.00362782 0.00402400 0.06077226 0.00470839 0.01516693 0.01877675 0.00004711 
0.01153331 0.03790389 0.00805525 0.00416514 0.00411820 0.00428756 0.02469921 0.00408841 0.02014680 0.00366653 0.00407039 0.05994280 0.00469313 0.01516597 0.01838899 0.00004855 
0.01243098 0.03897282 0.00804215 0.00421985 0.00414800 0.00422316 0.02461479 0.00403074 0.01997804 0.00370540 0.00411752 0.05922090 0.00468478 0.01516628 0.01802070 0.00004978 
0.01338489 0.04007996 0.00803193 0.00427383 0.00417299 0.00415862 0.02452337 0.00397855 0.01982119 0.00374422 0.00416521 0.05860909 0.00468356 0.01516804 0.01767382 0.00005079 
0.01439255 0.04121822 0.00802522 0.00432683 0.00419301 0.00409413 0.02442552 0.00393223 0.01967594 0.00378275 0.00421327 0.05810935 0.00468960 0.01517143 0.01735016 0.00005157 
0.01545127 0.04238056 0.00802268 0.00437861 0.00420788 0.00402987 0.02432181 0.00389211 0.01954205 0.00382078 0.00426150 0.05772317 0.00470303 0.01517660 0.01705145 0.00005210 
0.01655821 0.04356007 0.00802489 0.00442895 0.00421750 0.00396602 0.02421285 0.00385853 0.01941933 0.00385809 0.00430972 0.05745149 0.00472389 0.01518367 0.01677925 0.00005238 
0.01771040 0.04474994 0.00803244 0.00447764 0.00422174 0.00390276 0.02409921 0.00383181 0.01930768 0.00389446 0.00435774 0.05729469 0.00475221 0.01519276 0.01653503 0.00005240 
0.01890471 0.04594356 0.00804584 0.00452447 0.00422055 0.00384024 0.02398148 0.00381225 0.01920706 0.00392969 0.00440536 0.05725260 0.00478796 0.01520397 0.01632010 0.00005215 
0.02013787 0.04713449 0.00806558 0.00456927 0.00421386 0.00377864 0.02386025 0.00380015 0.01911752 0.00396356 0.00445241 0.05732447 0.00483106 0.01521736 0.01613561 0.00005163 
0.02140649 0.04831652 0.00809210 0.00461187 0.00420165 0.00371809 0.02373609 0.00379574 0.01903918 0.00399590 0.00449870 0.05750901 0.00488139 0.01523297 0.01598260 0.00005083 
0.02270702 0.04948369 0.00812579 0.00465212 0.00418394 0.00365875 0.02360954 0.00379928 0.01897224 0.00402651 0.00454405 0.05780434 0.00493877 0.01525085 0.01586192 0.00004977 
0.02403583 0.05063031 0.00816698 0.00468989 0.00416076 0.00360074 0.02348116 0.00381097 0.01891697 0.00405523 0.00458830 0.05820805 0.00500300 0.01527097 0.01577427 0.00004843 
0.02538914 0.05175097 0.00821594 0.00472505 0.00413216 0.00354419 0.02335147 0.00383100 0.01887374 0.00408188 0.00463128 0.05871716 0.00507381 0.01529333 0.01572019 0.00004683 
0.02676308 0.05284057 0.00827290 0.00475750 0.00409825 0.00348922 0.02322096 0.00385950 0.01884298 0.00410632 0.00467285 0.05932817 0.00515091 0.01531786 0.01570004 0.00004497 
0.02815368 0.05389437 0.00833801 0.00478716 0.00405915 0.00343591 0.02309011 0.00389660 0.01882519 0.00412842 0.00471285 0.06003707 0.00523393 0.01534450 0.01571405 0.00004286 
0.02955688 0.05490792 0.00841137 0.00481396 0.00401499 0.00338437 0.02295937 0.00394237 0.01882096 0.00414804 0.00475115 0.06083935 0.00532251 0.01537314 0.01576223 0.00004052 
0.03096854 0.05587716 0.00849300 0.00483785 0.00396596 0.00333468 0.02282916 0.00399687 0.01883091 0.00416508 0.00478762 0.06173003 0.00541621 0.01540366 0.01584446 0.00003797 
0.03238446 0.05679838 0.00858288 0.00485880 0.00391226 0.00328689 0.02269987 0.00406011 0.01885577 0.00417944 0.00482216 0.06270367 0.00551458 0.01543590 0.01596045 0.00003521 
0.03380037 0.05766825 0.00868089 0.00487677 0.00385412 0.00324107 0.02257187 0.00413205 0.01889628 0.00419105 0.00485465 0.06375446 0.00561712 0.01546969 0.01610973 0.00003228 
0.03521196 0.05848382 0.00878688 0.00489179 0.00379180 0.00319726 0.02244547 0.00421262 0.01895324 0.00419984 0.00488501 0.06487617 0.00572329 0.01550484 0.01629168 0.00002921 
