0.01131273 0.01359738 0.00369523 0.00174101 0.00515347 0.00092367 0.00818230 0.00306693 0.01792782 0.00283194 0.01451507 0.00104431 0.00141128 0.02435868 0.00630171 0.00074274 
0.01159794 0.01377228 0.00356378 0.00172750 0.00513640 0.00091794 0.00844235 0.00301935 0.01840654 0.00282663 0.01450665 0.00104267 0.00143902 0.02444785 0.00632150 0.00075053 
0.01188297 0.01395225 0.00343610 0.00171498 0.00511872 0.00091421 0.00869748 0.00297338 0.01888369 0.00281818 0.01448456 0.00103989 0.00147776 0.02453297 0.00633888 0.00075728 
0.01216683 0.01413614 0.00331301 0.00170345 0.00510029 0.00091246 0.00894631 0.00292921 0.01935704 0.00280661 0.01444859 0.00103596 0.00152741 0.02461534 0.00635413 0.00076298 
0.01244855 0.01432271 0.00319529 0.00169291 0.00508098 0.00091269 0.00918750 0.00288705 0.01982433 0.00279199 0.01439858 0.00103088 0.00158782 0.02469634 0.00636760 0.00076761 
0.01272711 0.01451073 0.00308368 0.00168334 0.00506069 0.00091487 0.00941973 0.00284707 0.02028334 0.00277438 0.01433447 0.00102468 0.00165879 0.02477746 0.00637965 0.00077116 
0.01300153 0.01469895 0.00297889 0.00167474 0.00503930 0.00091898 0.00964178 0.00280948 0.02073183 0.00275387 0.01425629 0.00101738 0.00174009 0.02486027 0.00639072 0.00077363 
0.01327081 0.01488608 0.00288156 0.00166708 0.00501672 0.00092498 0.00985244 0.00277446 0.02116764 0.00273056 0.01416416 0.00100901 0.00183144 0.02494640 0.00640127 0.00077500 
0.01353399 0.01507085 0.00279232 0.00166036 0.00499288 0.00093284 0.01005062 0.00274218 0.02158865 0.00270457 0.01405827 0.00099963 0.00193248 0.02503757 0.00641180 0.00077530 
0.01379010 0.01525201 0.00271171 0.00165454 0.00496770 0.00094252 0.01023527 0.00271282 0.02199279 0.00267603 0.01393894 0.00098929 0.00204286 0.02513550 0.00642287 0.00077454 
0.01403820 0.01542830 0.00264024 0.00164960 0.00494113 0.00095397 0.01040542 0.00268653 0.02237808 0.00264510 0.01380655 0.00097805 0.00216216 0.02524198 0.00643503 0.00077272 
0.01427738 0.01559852 0.00257834 0.00164553 0.00491315 0.00096714 0.01056022 0.00266347 0.02274263 0.00261192 0.01366160 0.00096597 0.00228990 0.02535879 0.00644890 0.00076988 
0.01450677 0.01576147 0.00252638 0.00164228 0.00488372 0.00098197 0.01069889 0.00264380 0.02308466 0.00257668 0.01350465 0.00095315 0.00242559 0.02548771 0.00646508 0.00076604 
0.01472551 0.01591601 0.00248469 0.00163983 0.00485285 0.00099842 0.01082073 0.00262763 0.02340252 0.00253956 0.01333640 0.00093968 0.00256871 0.02563051 0.00648420 0.00076123 
0.01493282 0.01606108 0.00245350 0.00163816 0.00482055 0.00101641 0.01092517 0.00261509 0.02369464 0.00250076 0.01315758 0.00092564 0.00271868 0.02578895 0.00650693 0.00075550 
0.01512793 0.01619564 0.00243301 0.00163722 0.00478687 0.00103589 0.01101172 0.00260630 0.02395965 0.00246047 0.01296906 0.00091114 0.00287491 0.02596470 0.00653389 0.00074888 
0.01531014 0.01631875 0.00242330 0.00163698 0.00475185 0.00105678 0.01108002 0.00260134 0.02419629 0.00241891 0.01277176 0.00089629 0.00303678 0.02615940 0.00656574 0.00074143 
0.01547881 0.01642952 0.00242444 0.00163742 0.00471556 0.00107902 0.01112980 0.00260030 0.02440346 0.00237630 0.01256670 0.00088121 0.00320364 0.02637462 0.00660312 0.00073319 
0.01563335 0.01652716 0.00243638 0.00163849 0.00467811 0.00110252 0.01116090 0.00260325 0.02458023 0.00233287 0.01235496 0.00086602 0.00337482 0.02661181 0.00664665 0.00072422 
0.01577324 0.01661096 0.00245904 0.00164016 0.00463960 0.00112722 0.01117327 0.00261024 0.02472585 0.00228884 0.01213769 0.00085085 0.00354963 0.02687233 0.00669695 0.00071459 
0.01589801 0.01668031 0.00249225 0.00164240 0.00460017 0.00115304 0.01116699 0.00262130 0.02483971 0.00224445 0.01191611 0.00083583 0.00372739 0.02715745 0.00675461 0.00070436 
0.01600729 0.01673469 0.00253577 0.00164516 0.00455996 0.00117989 0.01114222 0.00263645 0.02492143 0.00219992 0.01169151 0.00082110 0.00390737 0.02746826 0.00682018 0.00069358 
0.01610076 0.01677367 0.00258932 0.00164842 0.00451915 0.00120770 0.01109924 0.00265570 0.02497078 0.00215551 0.01146519 0.00080679 0.00408887 0.02780575 0.00689418 0.00068235 
0.01617818 0.01679695 0.00265253 0.00165214 0.00447792 0.00123638 0.01103844 0.00267901 0.02498771 0.00211143 0.01123853 0.00079305 0.00427116 0.02817073 0.00697711 0.00067071 
0.01623939 0.01680430 0.00272499 0.00165628 0.00443647 0.00126585 0.01096032 0.00270637 0.02497237 0.00206791 0.01101293 0.00078002 0.00445354 0.02856389 0.00706939 0.00065876 
0.01628431 0.01679562 0.00280622 0.00166081 0.00439502 0.00129601 0.01086546 0.00273771 0.02492510 0.00202519 0.01078982 0.00076784 0.00463528 0.02898569 0.00717143 0.00064657 
0.01631295 0.01677091 0.00289568 0.00166568 0.00435381 0.00132679 0.01075455 0.00277297 0.02484640 0.00198349 0.01057064 0.00075665 0.00481569 0.02943647 0.00728356 0.00063421 
0.01632537 0.01673026 0.00299280 0.00167087 0.00431308 0.00135809 0.01062838 0.00281205 0.02473696 0.00194302 0.01035684 0.00074659 0.00499408 0.02991634 0.00740605 0.00062177 
0.01632175 0.01667389 0.00309694 0.00167633 0.00427309 0.00138982 0.01048781 0.00285485 0.02459765 0.00190398 0.01014988 0.00073781 0.00516977 0.03042526 0.00753914 0.00060933 
0.01630232 0.01660210 0.00320744 0.00168204 0.00423411 0.00142189 0.01033380 0.00290123 0.02442950 0.00186657 0.00995121 0.00073044 0.00534211 0.03096297 0.00768296 0.00059696 
0.01626741 0.01651531 0.00332358 0.00168795 0.00419642 0.00145422 0.01016736 0.00295106 0.02423370 0.00183099 0.00976224 0.00072460 0.00551046 0.03152901 0.00783762 0.00058474 
0.01621740 0.01641401 0.00344461 0.00169403 0.00416030 0.00148670 0.00998960 0.00300416 0.02401161 0.00179740 0.00958437 0.00072044 0.00567423 0.03212275 0.00800313 0.00057276 
0.01615278 0.01629879 0.00356977 0.00170024 0.00412606 0.00151925 0.00980167 0.00306037 0.02376472 0.00176596 0.00941897 0.00071806 0.00583284 0.03274333 0.00817943 0.00056108 
0.01607410 0.01617034 0.00369824 0.00170655 0.00409397 0.00155178 0.00960479 0.00311948 0.02349467 0.00173684 0.00926733 0.00071758 0.00598575 0.03338971 0.00836639 0.00054980 
0.01598197 0.01602941 0.00382923 0.00171292 0.00406434 0.00158418 0.00940023 0.00318128 0.02320321 0.00171015 0.00913071 0.00071912 0.00613246 0.03406066 0.00856382 0.00053898 
0.01587708 0.01587685 0.00396188 0.00171932 0.00403748 0.00161638 0.00918929 0.00324555 0.02289221 0.00168601 0.00901032 0.00072276 0.00627250 0.03475473 0.00877144 0.00052870 
0.01576018 0.01571355 0.00409536 0.00172570 0.00401366 0.00164827 0.00897331 0.00331204 0.02256365 0.00166454 0.00890725 0.00072860 0.00640545 0.03547032 0.00898889 0.00051902 
0.01563207 0.01554048 0.00422883 0.00173203 0.00399319 0.00167977 0.00875366 0.00338050 0.02221960 0.00164581 0.00882255 0.00073673 0.00653094 0.03620562 0.00921574 0.00051002 
0.01549363 0.01535866 0.00436143 0.00173828 0.00397635 0.00171078 0.00853171 0.00345066 0.02186220 0.00162989 0.00875716 0.00074720 0.00664862 0.03695866 0.00945150 0.00050175 
0.01534577 0.01516916 0.00449234 0.00174440 0.00396342 0.00174121 0.00830886 0.00352225 0.02149366 0.00161683 0.00871193 0.00076009 0.00675822 0.03772728 0.00969558 0.00049427 
0.01518943 0.01497307 0.00462072 0.00175037 0.00395467 0.00177097 0.00808650 0.00359499 0.02111624 0.00160666 0.00868761 0.00077544 0.00685950 0.03850919 0.00994735 0.00048765 
0.01502562 0.01477155 0.00474576 0.00175614 0.00395035 0.00179997 0.00786602 0.00366857 0.02073224 0.00159940 0.00868485 0.00079328 0.00695228 0.03930194 0.01020608 0.00048192 
0.01485536 0.01456573 0.00486669 0.00176167 0.00395070 0.00182812 0.00764879 0.00374269 0.02034397 0.00159504 0.00870416 0.00081364 0.00703642 0.04010294 0.01047099 0.00047714 
0.01467971 0.01435680 0.00498273 0.00176694 0.00395595 0.00185534 0.00743616 0.00381706 0.01995376 0.00159355 0.00874595 0.00083653 0.00711185 0.04090947 0.01074124 0.00047335 
0.01449973 0.01414592 0.00509316 0.00177190 0.00396630 0.00188154 0.00722945 0.00389136 0.01956394 0.00159489 0.00881052 0.00086196 0.00717853 0.04171872 0.01101591 0.00047057 
0.01431652 0.01393428 0.00519728 0.00177651 0.00398196 0.00190663 0.00702993 0.00396528 0.01917682 0.00159901 0.00889802 0.00088990 0.00723648 0.04252775 0.01129406 0.00046885 
0.01413117 0.01372303 0.00529443 0.00178075 0.00400307 0.00193054 0.00683885 0.00403852 0.01879466 0.00160582 0.00900848 0.00092033 0.00728579 0.04333355 0.01157467 0.00046821 
0.01394476 0.01351332 0.00538401 0.00178457 0.00402979 0.00195318 0.00665738 0.00411075 0.01841969 0.00161523 0.00914182 0.00095320 0.00732658 0.04413304 0.01185667 0.00046865 
0.01375839 0.01330626 0.00546544 0.00178793 0.00406224 0.00197447 0.00648667 0.00418168 0.01805410 0.00162712 0.00929782 0.00098847 0.00735903 0.04492308 0.01213898 0.00047020 
0.01357313 0.01310293 0.00553822 0.00179081 0.00410052 0.00199435 0.00632776 0.00425100 0.01769997 0.00164138 0.00947612 0.00102606 0.00738335 0.04570049 0.01242044 0.00047286 
0.01339002 0.01290437 0.00560187 0.00179317 0.00414469 0.00201273 0.00618165 0.00431842 0.01735934 0.00165786 0.00967625 0.00106589 0.00739983 0.04646207 0.01269990 0.00047663 
0.01321009 0.01271157 0.00565599 0.00179497 0.00419479 0.00202956 0.00604927 0.00438365 0.01703415 0.00167641 0.00989760 0.00110787 0.00740878 0.04720460 0.01297616 0.00048150 
0.01303434 0.01252546 0.00570023 0.00179619 0.00425084 0.00204475 0.00593144 0.00444642 0.01672621 0.00169685 0.01013947 0.00115190 0.00741056 0.04792489 0.01324801 0.00048745 
0.01286372 0.01234692 0.00573429 0.00179680 0.00431282 0.00205827 0.00582894 0.00450646 0.01643727 0.00171901 0.01040101 0.00119784 0.00740556 0.04861975 0.01351423 0.00049447 
0.01269913 0.01217675 0.00575794 0.00179675 0.00438069 0.00207003 0.00574241 0.00456352 0.01616894 0.00174271 0.01068128 0.00124558 0.00739423 0.04928605 0.01377359 0.00050253 
0.01254145 0.01201568 0.00577102 0.00179604 0.00445437 0.00208000 0.00567245 0.00461736 0.01592269 0.00176774 0.01097921 0.00129497 0.00737703 0.04992070 0.01402487 0.00051159 
0.01239146 0.01186436 0.00577342 0.00179463 0.00453375 0.00208813 0.00561954 0.00466777 0.01569988 0.00179390 0.01129365 0.00134586 0.00735446 0.05052071 0.01426684 0.00052162 
0.01224992 0.01172339 0.00576508 0.00179250 0.00461870 0.00209436 0.00558406 0.00471454 0.01550174 0.00182098 0.01162336 0.00139809 0.00732705 0.05108316 0.01449830 0.00053257 
0.01211751 0.01159323 0.00574603 0.00178963 0.00470905 0.00209867 0.00556632 0.00475748 0.01532936 0.00184877 0.01196699 0.00145148 0.00729535 0.05160525 0.01471807 0.00054439 
0.01199485 0.01147431 0.00571634 0.00178600 0.00480461 0.00210102 0.00556649 0.00479644 0.01518368 0.00187706 0.01232314 0.00150586 0.00725992 0.05208429 0.01492500 0.00055703 
0.01188247 0.01136695 0.00567616 0.00178160 0.00490516 0.00210139 0.00558469 0.00483126 0.01506549 0.00190562 0.01269033 0.00156104 0.00722135 0.05251775 0.01511796 0.00057041 
0.01178085 0.01127136 0.00562568 0.00177642 0.00501043 0.00209974 0.00562091 0.00486184 0.01497546 0.00193425 0.01306703 0.00161683 0.00718024 0.05290323 0.01529588 0.00058449 
0.01169039 0.01118769 0.00556515 0.00177045 0.00512016 0.00209608 0.00567505 0.00488807 0.01491411 0.00196272 0.01345164 0.00167302 0.00713719 0.05323852 0.01545774 0.00059918 
0.01161139 0.01111599 0.00549490 0.00176368 0.00523402 0.00209038 0.00574692 0.00490988 0.01488180 0.00199084 0.01384255 0.00172942 0.00709279 0.05352157 0.01560256 0.00061441 
0.01154409 0.01105623 0.00541529 0.00175611 0.00535170 0.00208266 0.00583623 0.00492722 0.01487877 0.00201841 0.01423809 0.00178581 0.00704765 0.05375054 0.01572943 0.00063010 
0.01148866 0.01100827 0.00532673 0.00174775 0.00547284 0.00207291 0.00594260 0.00494006 0.01490511 0.00204522 0.01463662 0.00184199 0.00700237 0.05392379 0.01583750 0.00064617 
0.01144518 0.01097190 0.00522970 0.00173860 0.00559705 0.00206115 0.00606556 0.00494842 0.01496079 0.00207110 0.01503644 0.00189775 0.00695753 0.05403992 0.01592602 0.00066253 
0.01141363 0.01094683 0.00512470 0.00172868 0.00572395 0.00204739 0.00620455 0.00495230 0.01504564 0.00209587 0.01543590 0.00195287 0.00691370 0.05409773 0.01599428 0.00067910 
0.01139394 0.01093270 0.00501229 0.00171800 0.00585310 0.00203168 0.00635894 0.00495177 0.01515937 0.00211937 0.01583334 0.00200714 0.00687144 0.05409628 0.01604169 0.00069579 
0.01138594 0.01092904 0.00489305 0.00170658 0.00598409 0.00201403 0.00652801 0.00494690 0.01530158 0.00214146 0.01622713 0.00206036 0.00683126 0.05403488 0.01606773 0.00071251 
0.01138942 0.01093535 0.00476762 0.00169445 0.00611646 0.00199450 0.00671096 0.00493778 0.01547174 0.00216200 0.01661568 0.00211232 0.00679368 0.05391309 0.01607198 0.00072916 
0.01140405 0.01095103 0.00463665 0.00168163 0.00624974 0.00197313 0.00690694 0.00492455 0.01566925 0.00218089 0.01699746 0.00216282 0.00675916 0.05373074 0.01605411 0.00074566 
0.01142945 0.01097545 0.00450083 0.00166817 0.00638348 0.00194999 0.00711502 0.00490736 0.01589339 0.00219803 0.01737097 0.00221166 0.00672816 0.05348793 0.01601391 0.00076192 
0.01146519 0.01100790 0.00436085 0.00165409 0.00651718 0.00192514 0.00733420 0.00488637 0.01614335 0.00221334 0.01773480 0.00225866 0.00670107 0.05318502 0.01595125 0.00077784 
0.01151076 0.01104764 0.00421744 0.00163944 0.00665037 0.00189864 0.00756346 0.00486177 0.01641826 0.00222675 0.01808761 0.00230362 0.00667825 0.05282268 0.01586614 0.00079334 
0.01156557 0.01109387 0.00407134 0.00162427 0.00678256 0.00187059 0.00780170 0.00483378 0.01671716 0.00223825 0.01842813 0.00234638 0.00666004 0.05240184 0.01575868 0.00080833 
0.01162901 0.01114579 0.00392330 0.00160863 0.00691326 0.00184106 0.00804779 0.00480263 0.01703905 0.00224781 0.01875521 0.00238676 0.00664671 0.05192372 0.01562909 0.00082273 
0.01170039 0.01120253 0.00377405 0.00159258 0.00704198 0.00181016 0.00830056 0.00476857 0.01738286 0.00225544 0.01906777 0.00242462 0.00663850 0.05138982 0.01547769 0.00083646 
0.01177899 0.01126324 0.00362436 0.00157617 0.00716824 0.00177798 0.00855882 0.00473186 0.01774747 0.00226116 0.01936485 0.00245980 0.00663560 0.05080193 0.01530494 0.00084944 
0.01186406 0.01132702 0.00347497 0.00155947 0.00729157 0.00174463 0.00882133 0.00469279 0.01813175 0.00226504 0.01964560 0.00249218 0.00663815 0.05016209 0.01511139 0.00086161 
0.01195477 0.01139299 0.00332662 0.00154256 0.00741150 0.00171023 0.00908686 0.00465166 0.01853451 0.00226714 0.01990929 0.00252162 0.00664624 0.04947266 0.01489772 0.00087289 
0.01205030 0.01146028 0.00318003 0.00152549 0.00752758 0.00167489 0.00935416 0.00460875 0.01895457 0.00226756 0.02015529 0.00254804 0.00665992 0.04873623 0.01466473 0.00088324 
0.01214980 0.01152800 0.00303590 0.00150834 0.00763937 0.00163874 0.00962196 0.00456440 0.01939072 0.00226642 0.02038311 0.00257132 0.00667918 0.04795567 0.01441330 0.00089258 
0.01225238 0.01159531 0.00289494 0.00149119 0.00774645 0.00160190 0.00988900 0.00451892 0.01984174 0.00226386 0.02059238 0.00259139 0.00670395 0.04713410 0.01414446 0.00090088 
0.01235715 0.01166139 0.00275780 0.00147411 0.00784842 0.00156452 0.01015404 0.00447264 0.02030643 0.00226005 0.02078285 0.00260818 0.00673415 0.04627488 0.01385931 0.00090810 
0.01246321 0.01172544 0.00262513 0.00145720 0.00794488 0.00152672 0.01041582 0.00442588 0.02078358 0.00225515 0.02095440 0.00262164 0.00676961 0.04538162 0.01355909 0.00091420 
0.01256965 0.01178672 0.00249751 0.00144052 0.00803550 0.00148865 0.01067314 0.00437898 0.02127200 0.00224938 0.02110703 0.00263172 0.00681015 0.04445813 0.01324511 0.00091915 
0.01267558 0.01184452 0.00237554 0.00142417 0.00811993 0.00145045 0.01092478 0.00433227 0.02177053 0.00224294 0.02124087 0.00263842 0.00685552 0.04350843 0.01291879 0.00092294 
0.01278010 0.01189819 0.00225974 0.00140822 0.00819786 0.00141228 0.01116958 0.00428607 0.02227800 0.00223609 0.02135615 0.00264172 0.00690543 0.04253675 0.01258163 0.00092555 
0.01288233 0.01194716 0.00215060 0.00139277 0.00826902 0.00137426 0.01140640 0.00424071 0.02279331 0.00222907 0.02145324 0.00264163 0.00695956 0.04154747 0.01223521 0.00092699 
0.01298141 0.01199090 0.00204858 0.00137789 0.00833317 0.00133656 0.01163414 0.00419648 0.02331535 0.00222214 0.02153261 0.00263817 0.00701756 0.04054513 0.01188121 0.00092727 
0.01307650 0.01202897 0.00195409 0.00136368 0.00839009 0.00129931 0.01185175 0.00415371 0.02384305 0.00221559 0.02159483 0.00263138 0.00707902 0.03953443 0.01152135 0.00092638 
0.01316678 0.01206100 0.00186749 0.00135020 0.00843960 0.00126268 0.01205823 0.00411267 0.02437540 0.00220970 0.02164058 0.00262131 0.00714351 0.03852017 0.01115744 0.00092437 
0.01325149 0.01208670 0.00178909 0.00133754 0.00848154 0.00122680 0.01225262 0.00407365 0.02491138 0.00220477 0.02167062 0.00260802 0.00721059 0.03750724 0.01079131 0.00092126 
0.01332987 0.01210587 0.00171917 0.00132578 0.00851582 0.00119181 0.01243402 0.00403691 0.02545003 0.00220111 0.02168581 0.00259160 0.00727977 0.03650061 0.01042486 0.00091710 
0.01340124 0.01211841 0.00165795 0.00131500 0.00854234 0.00115787 0.01260160 0.00400268 0.02599043 0.00219902 0.02168709 0.00257214 0.00735055 0.03550531 0.01006002 0.00091192 
0.01346492 0.01212428 0.00160558 0.00130526 0.00856108 0.00112510 0.01275458 0.00397120 0.02653167 0.00219882 0.02167544 0.00254974 0.00742241 0.03452637 0.00969875 0.00090579 
0.01352032 0.01212356 0.00156220 0.00129664 0.00857203 0.00109364 0.01289226 0.00394267 0.02707288 0.00220083 0.02165194 0.00252452 0.00749481 0.03356885 0.00934301 0.00089877 
0.01356687 0.01211641 0.00152786 0.00128920 0.00857521 0.00106363 0.01301400 0.00391727 0.02761323 0.00220534 0.02161768 0.00249661 0.00756723 0.03263775 0.00899479 0.00089093 
0.01360407 0.01210310 0.00150258 0.00128299 0.00857070 0.00103519 0.01311923 0.00389516 0.02815189 0.00221268 0.02157382 0.00246614 0.00763911 0.03173805 0.00865606 0.00088235 
0.01363147 0.01208398 0.00148635 0.00127808 0.00855860 0.00100843 0.01320745 0.00387647 0.02868808 0.00222315 0.02152154 0.00243327 0.00770990 0.03087462 0.00832876 0.00087311 
0.01364867 0.01205949 0.00147906 0.00127451 0.00853905 0.00098347 0.01327825 0.00386132 0.02922102 0.00223703 0.02146204 0.00239815 0.00777905 0.03005224 0.00801483 0.00086331 
0.01365534 0.01203018 0.00148061 0.00127232 0.00851223 0.00096041 0.01333128 0.00384978 0.02974996 0.00225462 0.02139653 0.00236095 0.00784604 0.02927555 0.00771616 0.00085304 
0.01365121 0.01199668 0.00149081 0.00127155 0.00847834 0.00093935 0.01336627 0.00384191 0.03027415 0.00227617 0.02132622 0.00232183 0.00791034 0.02854902 0.00743460 0.00084239 
0.01363606 0.01195969 0.00150946 0.00127224 0.00843762 0.00092038 0.01338302 0.00383774 0.03079285 0.00230196 0.02125232 0.00228098 0.00797142 0.02787694 0.00717191 0.00083148 
0.01360974 0.01192001 0.00153629 0.00127440 0.00839035 0.00090358 0.01338144 0.00383727 0.03130534 0.00233221 0.02117599 0.00223858 0.00802881 0.02726338 0.00692982 0.00082041 
0.01357217 0.01187853 0.00157100 0.00127805 0.00833683 0.00088902 0.01336148 0.00384048 0.03181089 0.00236714 0.02109839 0.00219481 0.00808202 0.02671216 0.00670994 0.00080929 
0.01352330 0.01183617 0.00161325 0.00128320 0.00827739 0.00087677 0.01332318 0.00384731 0.03230875 0.00240697 0.02102063 0.00214986 0.00813061 0.02622682 0.00651382 0.00079823 
0.01346318 0.01179396 0.00166269 0.00128985 0.00821238 0.00086687 0.01326666 0.00385767 0.03279820 0.00245186 0.02094379 0.00210392 0.00817417 0.02581064 0.00634286 0.00078735 
0.01339190 0.01175297 0.00171889 0.00129799 0.00814218 0.00085937 0.01319211 0.00387147 0.03327848 0.00250196 0.02086885 0.00205719 0.00821230 0.02546653 0.00619840 0.00077675 
0.01330961 0.01171432 0.00178142 0.00130761 0.00806720 0.00085430 0.01309980 0.00388858 0.03374882 0.00255741 0.02079678 0.00200985 0.00824466 0.02519710 0.00608162 0.00076654 
0.01321653 0.01167919 0.00184983 0.00131868 0.00798786 0.00085169 0.01299006 0.00390882 0.03420846 0.00261830 0.02072843 0.00196210 0.00827093 0.02500457 0.00599357 0.00075685 
0.01311291 0.01164877 0.00192362 0.00133118 0.00790458 0.00085153 0.01286332 0.00393202 0.03465658 0.00268470 0.02066462 0.00191412 0.00829083 0.02489078 0.00593517 0.00074777 
0.01299909 0.01162431 0.00200228 0.00134507 0.00781784 0.00085384 0.01272004 0.00395798 0.03509238 0.00275665 0.02060605 0.00186610 0.00830413 0.02485719 0.00590718 0.00073941 
0.01287542 0.01160706 0.00208530 0.00136030 0.00772809 0.00085859 0.01256077 0.00398646 0.03551502 0.00283417 0.02055334 0.00181822 0.00831064 0.02490481 0.00591021 0.00073187 
0.01274235 0.01159829 0.00217212 0.00137682 0.00763580 0.00086578 0.01238611 0.00401723 0.03592363 0.00291723 0.02050703 0.00177065 0.00831020 0.02503424 0.00594471 0.00072524 
0.01260034 0.01159926 0.00226220 0.00139456 0.00754146 0.00087536 0.01219674 0.00405001 0.03631735 0.00300578 0.02046756 0.00172356 0.00830271 0.02524563 0.00601093 0.00071962 
0.01244991 0.01161123 0.00235497 0.00141346 0.00744554 0.00088730 0.01199339 0.00408453 0.03669526 0.00309973 0.02043526 0.00167712 0.00828811 0.02553866 0.00610899 0.00071509 
0.01229162 0.01163545 0.00244987 0.00143345 0.00734855 0.00090153 0.01177682 0.00412049 0.03705645 0.00319897 0.02041038 0.00163147 0.00826638 0.02591259 0.00623880 0.00071173 
0.01212606 0.01167312 0.00254632 0.00145444 0.00725095 0.00091800 0.01154787 0.00415757 0.03739998 0.00330335 0.02039305 0.00158678 0.00823756 0.02636619 0.00640010 0.00070960 
0.01195388 0.01172541 0.00264377 0.00147635 0.00715322 0.00093664 0.01130742 0.00419548 0.03772491 0.00341268 0.02038331 0.00154318 0.00820171 0.02689776 0.00659246 0.00070876 
0.01177573 0.01179345 0.00274163 0.00149907 0.00705584 0.00095735 0.01105639 0.00423386 0.03803026 0.00352674 0.02038109 0.00150079 0.00815896 0.02750515 0.00681526 0.00070926 
0.01159232 0.01187831 0.00283937 0.00152253 0.00695925 0.00098006 0.01079574 0.00427240 0.03831507 0.00364529 0.02038624 0.00145975 0.00810947 0.02818577 0.00706768 0.00071115 
0.01140437 0.01198098 0.00293642 0.00154660 0.00686392 0.00100465 0.01052646 0.00431074 0.03857838 0.00376806 0.02039849 0.00142015 0.00805343 0.02893655 0.00734874 0.00071445 
0.01121262 0.01210238 0.00303225 0.00157118 0.00677026 0.00103102 0.01024959 0.00434856 0.03881920 0.00389473 0.02041751 0.00138210 0.00799110 0.02975400 0.00765729 0.00071919 
0.01101784 0.01224336 0.00312635 0.00159617 0.00667869 0.00105906 0.00996617 0.00438551 0.03903660 0.00402498 0.02044284 0.00134568 0.00792275 0.03063421 0.00799200 0.00072538 
0.01082081 0.01240465 0.00321821 0.00162144 0.00658959 0.00108863 0.00967729 0.00442125 0.03922961 0.00415842 0.02047398 0.00131098 0.00784870 0.03157286 0.00835136 0.00073302 
0.01062232 0.01258689 0.00330734 0.00164689 0.00650334 0.00111962 0.00938404 0.00445545 0.03939733 0.00429469 0.02051031 0.00127806 0.00776931 0.03256523 0.00873372 0.00074210 
0.01042317 0.01279062 0.00339329 0.00167239 0.00642027 0.00115189 0.00908753 0.00448779 0.03953887 0.00443336 0.02055116 0.00124698 0.00768495 0.03360628 0.00913726 0.00075259 
0.01022417 0.01301625 0.00347563 0.00169783 0.00634069 0.00118529 0.00878888 0.00451796 0.03965338 0.00457401 0.02059581 0.00121778 0.00759604 0.03469060 0.00956005 0.00076446 
0.01002612 0.01326408 0.00355393 0.00172308 0.00626489 0.00121968 0.00848921 0.00454563 0.03974006 0.00471617 0.02064343 0.00119050 0.00750301 0.03581248 0.01000000 0.00077766 
0.00982982 0.01353426 0.00362781 0.00174803 0.00619311 0.00125492 0.00818965 0.00457053 0.03979815 0.00485937 0.02069319 0.00116515 0.00740631 0.03696595 0.01045489 0.00079215 
0.00963609 0.01382683 0.00369693 0.00177257 0.00612559 0.00129085 0.00789133 0.00459238 0.03982697 0.00500312 0.02074419 0.00114175 0.00730644 0.03814480 0.01092244 0.00080786 
0.00944570 0.01414168 0.00376096 0.00179656 0.00606249 0.00132732 0.00759534 0.00461092 0.03982591 0.00514693 0.02079550 0.00112031 0.00720388 0.03934261 0.01140022 0.00082471 
0.00925943 0.01447858 0.00381960 0.00181991 0.00600398 0.00136418 0.00730281 0.00462591 0.03979443 0.00529027 0.02084615 0.00110081 0.00709914 0.04055280 0.01188575 0.00084262 
0.00907806 0.01483715 0.00387260 0.00184250 0.00595016 0.00140127 0.00701480 0.00463714 0.03973209 0.00543263 0.02089517 0.00108323 0.00699273 0.04176869 0.01237649 0.00086149 
0.00890231 0.01521684 0.00391973 0.00186423 0.00590111 0.00143844 0.00673238 0.00464439 0.03963854 0.00557348 0.02094157 0.00106754 0.00688517 0.04298350 0.01286983 0.00088122 
0.00873291 0.01561701 0.00396079 0.00188500 0.00585687 0.00147553 0.00645660 0.00464751 0.03951354 0.00571229 0.02098434 0.00105372 0.00677700 0.04419042 0.01336314 0.00090171 
0.00857057 0.01603684 0.00399563 0.00190470 0.00581745 0.00151239 0.00618846 0.00464633 0.03935694 0.00584852 0.02102250 0.00104171 0.00666873 0.04538267 0.01385378 0.00092284 
0.00841595 0.01647537 0.00402412 0.00192326 0.00578280 0.00154887 0.00592894 0.00464074 0.03916875 0.00598165 0.02105507 0.00103145 0.00656087 0.04655351 0.01433911 0.00094449 
0.00826969 0.01693152 0.00404618 0.00194058 0.00575286 0.00158483 0.00567897 0.00463064 0.03894906 0.00611116 0.02108109 0.00102290 0.00645395 0.04769631 0.01481650 0.00096652 
0.00813241 0.01740408 0.00406173 0.00195660 0.00572753 0.00162012 0.00543947 0.00461595 0.03869812 0.00623652 0.02109965 0.00101598 0.00634846 0.04880462 0.01528336 0.00098881 
0.00800467 0.01789169 0.00407076 0.00197123 0.00570665 0.00165461 0.00521128 0.00459663 0.03841630 0.00635724 0.02110984 0.00101061 0.00624489 0.04987214 0.01573717 0.00101122 
0.00788702 0.01839287 0.00407328 0.00198444 0.00569005 0.00168815 0.00499521 0.00457267 0.03810412 0.00647282 0.02111083 0.00100673 0.00614370 0.05089287 0.01617547 0.00103362 
0.00777996 0.01890604 0.00406933 0.00199615 0.00567752 0.00172063 0.00479202 0.00454408 0.03776223 0.00658279 0.02110182 0.00100424 0.00604535 0.05186107 0.01659590 0.00105586 
0.00768394 0.01942949 0.00405897 0.00200634 0.00566882 0.00175192 0.00460243 0.00451090 0.03739145 0.00668669 0.02108207 0.00100306 0.00595027 0.05277133 0.01699622 0.00107782 
0.00759938 0.01996141 0.00404232 0.00201496 0.00566368 0.00178191 0.00442708 0.00447319 0.03699271 0.00678408 0.02105091 0.00100309 0.00585885 0.05361865 0.01737428 0.00109934 
0.00752666 0.02049992 0.00401950 0.00202200 0.00566179 0.00181049 0.00426656 0.00443105 0.03656712 0.00687454 0.02100772 0.00100425 0.00577148 0.05439843 0.01772812 0.00112031 
0.00746610 0.02104302 0.00399067 0.00202744 0.00566284 0.00183757 0.00412141 0.00438461 0.03611591 0.00695770 0.02095198 0.00100643 0.00568850 0.05510653 0.01805591 0.00114057 
0.00741800 0.02158866 0.00395601 0.00203127 0.00566647 0.00186304 0.00399210 0.00433401 0.03564047 0.00703319 0.02088323 0.00100954 0.00561023 0.05573931 0.01835600 0.00116002 
0.00738258 0.02213471 0.00391575 0.00203351 0.00567230 0.00188684 0.00387903 0.00427942 0.03514233 0.00710068 0.02080109 0.00101349 0.00553696 0.05629364 0.01862692 0.00117852 
0.00736004 0.02267901 0.00387010 0.00203416 0.00567996 0.00190889 0.00378254 0.00422105 0.03462316 0.00715987 0.02070528 0.00101816 0.00546895 0.05676698 0.01886742 0.00119596 
0.00735053 0.02321934 0.00381933 0.00203326 0.00568904 0.00192912 0.00370292 0.00415910 0.03408474 0.00721050 0.02059558 0.00102347 0.00540640 0.05715734 0.01907644 0.00121223 
0.00735413 0.02375346 0.00376371 0.00203084 0.00569912 0.00194747 0.00364035 0.00409384 0.03352901 0.00725233 0.02047189 0.00102932 0.00534951 0.05746336 0.01925315 0.00122722 
0.00737090 0.02427911 0.00370354 0.00202695 0.00570977 0.00196391 0.00359498 0.00402551 0.03295800 0.00728518 0.02033418 0.00103561 0.00529842 0.05768427 0.01939696 0.00124085 
0.00740085 0.02479403 0.00363913 0.00202164 0.00572056 0.00197841 0.00356688 0.00395441 0.03237388 0.00730887 0.02018251 0.00104225 0.00525325 0.05781997 0.01950751 0.00125304 
0.00744392 0.02529597 0.00357079 0.00201497 0.00573104 0.00199092 0.00355604 0.00388083 0.03177889 0.00732329 0.02001703 0.00104915 0.00521407 0.05787100 0.01958466 0.00126371 
0.00750003 0.02578269 0.00349888 0.00200702 0.00574079 0.00200144 0.00356239 0.00380509 0.03117537 0.00732836 0.01983799 0.00105622 0.00518093 0.05783853 0.01962855 0.00127280 
0.00756904 0.02625201 0.00342373 0.00199788 0.00574936 0.00200997 0.00358579 0.00372752 0.03056577 0.00732403 0.01964573 0.00106339 0.00515384 0.05772441 0.01963955 0.00128026 
0.00765077 0.02670177 0.00334571 0.00198762 0.00575633 0.00201650 0.00362602 0.00364846 0.02995257 0.00731031 0.01944067 0.00107057 0.00513277 0.05753111 0.01961829 0.00128606 
0.00774502 0.02712990 0.00326518 0.00197635 0.00576127 0.00202105 0.00368281 0.00356826 0.02933832 0.00728722 0.01922330 0.00107768 0.00511765 0.05726175 0.01956563 0.00129018 
0.00785151 0.02753438 0.00318251 0.00196417 0.00576378 0.00202364 0.00375582 0.00348729 0.02872562 0.00725484 0.01899422 0.00108466 0.00510841 0.05692006 0.01948268 0.00129260 
0.00796996 0.02791328 0.00309807 0.00195118 0.00576346 0.00202431 0.00384462 0.00340591 0.02811709 0.00721328 0.01875410 0.00109145 0.00510491 0.05651038 0.01937080 0.00129332 
0.00810003 0.02826478 0.00301224 0.00193751 0.00575994 0.00202309 0.00394875 0.00332449 0.02751538 0.00716270 0.01850367 0.00109798 0.00510700 0.05603764 0.01923156 0.00129237 
0.00824134 0.02858715 0.00292539 0.00192327 0.00575287 0.00202003 0.00406767 0.00324340 0.02692311 0.00710329 0.01824375 0.00110420 0.00511451 0.05550728 0.01906677 0.00128976 
0.00839352 0.02887880 0.00283789 0.00190859 0.00574193 0.00201519 0.00420078 0.00316302 0.02634292 0.00703526 0.01797521 0.00111006 0.00512724 0.05492530 0.01887843 0.00128555 
0.00855612 0.02913826 0.00275011 0.00189359 0.00572680 0.00200863 0.00434743 0.00308372 0.02577740 0.00695889 0.01769899 0.00111552 0.00514494 0.05429813 0.01866877 0.00127979 
0.00872870 0.02936418 0.00266242 0.00187840 0.00570723 0.00200043 0.00450690 0.00300586 0.02522910 0.00687446 0.01741608 0.00112054 0.00516738 0.05363266 0.01844017 0.00127254 
0.00891079 0.02955539 0.00257517 0.00186315 0.00568298 0.00199067 0.00467844 0.00292981 0.02470052 0.00678231 0.01712754 0.00112510 0.00519430 0.05293618 0.01819520 0.00126389 
0.00910188 0.02971085 0.00248870 0.00184797 0.00565385 0.00197942 0.00486124 0.00285592 0.02419406 0.00668278 0.01683445 0.00112916 0.00522539 0.05221628 0.01793657 0.00125393 
0.00930148 0.02982970 0.00240335 0.00183299 0.00561967 0.00196678 0.00505443 0.00278453 0.02371205 0.00657628 0.01653794 0.00113271 0.00526037 0.05148086 0.01766714 0.00124275 
0.00950906 0.02991123 0.00231945 0.00181834 0.00558032 0.00195284 0.00525713 0.00271598 0.02325673 0.00646320 0.01623916 0.00113573 0.00529893 0.05073805 0.01738987 0.00123048 
0.00972408 0.02995493 0.00223732 0.00180414 0.00553572 0.00193770 0.00546840 0.00265058 0.02283019 0.00634400 0.01593931 0.00113823 0.00534075 0.04999614 0.01710780 0.00121723 
0.00994602 0.02996044 0.00215725 0.00179052 0.00548583 0.00192147 0.00568727 0.00258863 0.02243441 0.00621912 0.01563958 0.00114018 0.00538551 0.04926353 0.01682407 0.00120314 
0.01017433 0.02992760 0.00207952 0.00177761 0.00543065 0.00190426 0.00591275 0.00253043 0.02207123 0.00608906 0.01534120 0.00114161 0.00543287 0.04854869 0.01654184 0.00118834 
0.01040847 0.02985643 0.00200442 0.00176551 0.00537022 0.00188616 0.00614380 0.00247625 0.02174233 0.00595431 0.01504538 0.00114251 0.00548251 0.04786004 0.01626433 0.00117299 
0.01064790 0.02974713 0.00193218 0.00175433 0.00530465 0.00186730 0.00637939 0.00242632 0.02144921 0.00581538 0.01475334 0.00114290 0.00553411 0.04720595 0.01599472 0.00115722 
0.01089211 0.02960009 0.00186305 0.00174419 0.00523407 0.00184779 0.00661845 0.00238089 0.02119322 0.00567281 0.01446632 0.00114280 0.00558734 0.04659463 0.01573620 0.00114121 
0.01114058 0.02941589 0.00179724 0.00173518 0.00515867 0.00182773 0.00685992 0.00234015 0.02097552 0.00552713 0.01418549 0.00114223 0.00564188 0.04603410 0.01549191 0.00112510 
0.01139281 0.02919527 0.00173496 0.00172739 0.00507868 0.00180725 0.00710270 0.00230430 0.02079706 0.00537889 0.01391205 0.00114121 0.00569743 0.04553210 0.01526489 0.00110906 
0.01164831 0.02893918 0.00167638 0.00172089 0.00499437 0.00178645 0.00734573 0.00227349 0.02065861 0.00522864 0.01364714 0.00113977 0.00575370 0.04509604 0.01505812 0.00109325 
0.01190663 0.02864874 0.00162167 0.00171578 0.00490608 0.00176545 0.00758792 0.00224787 0.02056074 0.00507693 0.01339190 0.00113795 0.00581040 0.04473294 0.01487446 0.00107783 
0.01216733 0.02832522 0.00157096 0.00171211 0.00481417 0.00174435 0.00782821 0.00222754 0.02050380 0.00492432 0.01314741 0.00113578 0.00586726 0.04444937 0.01471662 0.00106297 
0.01242999 0.02797007 0.00152438 0.00170993 0.00471904 0.00172327 0.00806553 0.00221259 0.02048793 0.00477136 0.01291470 0.00113331 0.00592405 0.04425141 0.01458714 0.00104881 
0.01269423 0.02758491 0.00148204 0.00170930 0.00462116 0.00170231 0.00829885 0.00220309 0.02051307 0.00461860 0.01269478 0.00113056 0.00598052 0.04414456 0.01448840 0.00103552 
0.01295971 0.02717149 0.00144401 0.00171024 0.00452100 0.00168157 0.00852715 0.00219907 0.02057894 0.00446658 0.01248857 0.00112759 0.00603647 0.04413376 0.01442257 0.00102325 
0.01322609 0.02673173 0.00141037 0.00171279 0.00441911 0.00166114 0.00874945 0.00220054 0.02068505 0.00431584 0.01229696 0.00112444 0.00609171 0.04422325 0.01439159 0.00101213 
0.01349310 0.02626765 0.00138115 0.00171696 0.00431605 0.00164112 0.00896478 0.00220749 0.02083072 0.00416690 0.01212077 0.00112116 0.00614608 0.04441663 0.01439719 0.00100230 
0.01376048 0.02578142 0.00135637 0.00172276 0.00421241 0.00162160 0.00917223 0.00221988 0.02101503 0.00402026 0.01196075 0.00111779 0.00619944 0.04471676 0.01444081 0.00099389 
0.01402802 0.02527531 0.00133606 0.00173017 0.00410882 0.00160266 0.00937092 0.00223764 0.02123691 0.00387643 0.01181758 0.00111438 0.00625168 0.04512575 0.01452366 0.00098701 
0.01429554 0.02475170 0.00132019 0.00173918 0.00400593 0.00158437 0.00956002 0.00226069 0.02149506 0.00373588 0.01169186 0.00111097 0.00630270 0.04564495 0.01464665 0.00098177 
0.01456289 0.02421306 0.00130874 0.00174976 0.00390444 0.00156681 0.00973874 0.00228891 0.02178802 0.00359909 0.01158413 0.00110763 0.00635245 0.04627490 0.01481042 0.00097827 
0.01482997 0.02366193 0.00130166 0.00176189 0.00380502 0.00155004 0.00990637 0.00232218 0.02211414 0.00346647 0.01149483 0.00110439 0.00640088 0.04701535 0.01501532 0.00097659 
0.01509671 0.02310092 0.00129889 0.00177550 0.00370841 0.00153412 0.01006223 0.00236033 0.02247163 0.00333848 0.01142435 0.00110130 0.00644798 0.04786524 0.01526137 0.00097680 
0.01536307 0.02253268 0.00130035 0.00179054 0.00361533 0.00151910 0.01020571 0.00240320 0.02285852 0.00321549 0.01137296 0.00109841 0.00649376 0.04882267 0.01554831 0.00097895 
0.01562905 0.02195992 0.00130595 0.00180695 0.00352651 0.00150503 0.01033627 0.00245058 0.02327273 0.00309790 0.01134089 0.00109576 0.00653827 0.04988497 0.01587558 0.00098310 
0.01589467 0.02138536 0.00131558 0.00182466 0.00344271 0.00149194 0.01045343 0.00250227 0.02371203 0.00298606 0.01132824 0.00109340 0.00658156 0.05104865 0.01624232 0.00098926 
0.01615999 0.02081172 0.00132913 0.00184357 0.00336466 0.00147987 0.01055678 0.00255804 0.02417410 0.00288030 0.01133505 0.00109138 0.00662373 0.05230947 0.01664734 0.00099746 
0.01642509 0.02024174 0.00134646 0.00186361 0.00329312 0.00146883 0.01064599 0.00261763 0.02465650 0.00278093 0.01136129 0.00108973 0.00666487 0.05366240 0.01708920 0.00100769 
0.01669008 0.01967812 0.00136743 0.00188467 0.00322880 0.00145885 0.01072080 0.00268080 0.02515672 0.00268824 0.01140681 0.00108850 0.00670511 0.05510171 0.01756614 0.00101994 
0.01695507 0.01912355 0.00139189 0.00190665 0.00317245 0.00144993 0.01078101 0.00274726 0.02567220 0.00260248 0.01147142 0.00108772 0.00674460 0.05662097 0.01807614 0.00103418 
0.01722021 0.01858065 0.00141967 0.00192944 0.00312475 0.00144209 0.01082651 0.00281675 0.02620031 0.00252390 0.01155480 0.00108743 0.00678351 0.05821311 0.01861691 0.00105037 
0.01748564 0.01805199 0.00145059 0.00195294 0.00308640 0.00143531 0.01085727 0.00288897 0.02673839 0.00245269 0.01165660 0.00108766 0.00682200 0.05987046 0.01918592 0.00106844 
0.01775154 0.01754009 0.00148450 0.00197701 0.00305806 0.00142959 0.01087333 0.00296363 0.02728378 0.00238906 0.01177637 0.00108845 0.00686029 0.06158477 0.01978040 0.00108832 
0.01801805 0.01704734 0.00152118 0.00200156 0.00304036 0.00142491 0.01087480 0.00304042 0.02783379 0.00233317 0.01191357 0.00108983 0.00689856 0.06334732 0.02039736 0.00110994 
0.01828533 0.01657606 0.00156047 0.00202644 0.00303390 0.00142126 0.01086188 0.00311904 0.02838579 0.00228515 0.01206761 0.00109182 0.00693703 0.06514893 0.02103362 0.00113318 
0.01855355 0.01612847 0.00160215 0.00205155 0.00303925 0.00141861 0.01083482 0.00319917 0.02893715 0.00224512 0.01223784 0.00109446 0.00697593 0.06698005 0.02168583 0.00115793 
0.01882284 0.01570665 0.00164604 0.00207675 0.00305691 0.00141692 0.01079398 0.00328052 0.02948531 0.00221318 0.01242351 0.00109776 0.00701547 0.06883083 0.02235047 0.00118408 
0.01909332 0.01531254 0.00169192 0.00210193 0.00308736 0.00141616 0.01073975 0.00336277 0.03002777 0.00218941 0.01262383 0.00110174 0.00705588 0.07069115 0.02302391 0.00121149 
0.01936509 0.01494797 0.00173961 0.00212696 0.00313104 0.00141629 0.01067261 0.00344563 0.03056210 0.00217386 0.01283796 0.00110644 0.00709740 0.07255072 0.02370240 0.00124001 
0.01963824 0.01461459 0.00178889 0.00215172 0.00318831 0.00141727 0.01059311 0.00352879 0.03108599 0.00216656 0.01306500 0.00111185 0.00714025 0.07439916 0.02438212 0.00126950 
0.01991279 0.01431391 0.00183956 0.00217610 0.00325950 0.00141905 0.01050184 0.00361196 0.03159722 0.00216753 0.01330400 0.00111801 0.00718464 0.07622605 0.02505920 0.00129979 
0.02018877 0.01404726 0.00189142 0.00219999 0.00334485 0.00142158 0.01039948 0.00369487 0.03209369 0.00217676 0.01355395 0.00112492 0.00723080 0.07802101 0.02572973 0.00133071 
0.02046612 0.01381579 0.00194427 0.00222327 0.00344457 0.00142482 0.01028673 0.00377722 0.03257346 0.00219425 0.01381383 0.00113259 0.00727892 0.07977377 0.02638981 0.00136209 
0.02074477 0.01362050 0.00199791 0.00224585 0.00355880 0.00142870 0.01016436 0.00385876 0.03303470 0.00221995 0.01408257 0.00114103 0.00732920 0.08147425 0.02703557 0.00139376 
0.02102459 0.01346218 0.00205216 0.00226763 0.00368760 0.00143318 0.01003318 0.00393925 0.03347576 0.00225382 0.01435908 0.00115025 0.00738181 0.08311262 0.02766317 0.00142554 
0.02130539 0.01334145 0.00210681 0.00228852 0.00383097 0.00143819 0.00989404 0.00401843 0.03389514 0.00229579 0.01464223 0.00116026 0.00743693 0.08467937 0.02826889 0.00145724 
0.02158691 0.01325871 0.00216170 0.00230843 0.00398883 0.00144369 0.00974782 0.00409608 0.03429153 0.00234578 0.01493088 0.00117106 0.00749470 0.08616540 0.02884908 0.00148868 
0.02186887 0.01321421 0.00221663 0.00232730 0.00416106 0.00144961 0.00959545 0.00417200 0.03466376 0.00240371 0.01522388 0.00118265 0.00755524 0.08756203 0.02940024 0.00151967 
0.02215089 0.01320799 0.00227145 0.00234505 0.00434743 0.00145591 0.00943786 0.00424599 0.03501088 0.00246947 0.01552008 0.00119502 0.00761866 0.08886112 0.02991901 0.00155005 
0.02243254 0.01323988 0.00232598 0.00236163 0.00454767 0.00146252 0.00927601 0.00431787 0.03533210 0.00254295 0.01581831 0.00120819 0.00768504 0.09005508 0.03040222 0.00157963 
0.02271332 0.01330956 0.00238007 0.00237699 0.00476141 0.00146940 0.00911087 0.00438749 0.03562683 0.00262404 0.01611741 0.00122214 0.00775445 0.09113694 0.03084690 0.00160824 
0.02299266 0.01341648 0.00243357 0.00239109 0.00498824 0.00147650 0.00894341 0.00445471 0.03589466 0.00271260 0.01641623 0.00123687 0.00782691 0.09210042 0.03125027 0.00163571 
0.02326994 0.01355994 0.00248634 0.00240389 0.00522763 0.00148376 0.00877461 0.00451940 0.03613536 0.00280849 0.01671363 0.00125238 0.00790245 0.09293991 0.03160983 0.00166189 
0.02354445 0.01373906 0.00253825 0.00241538 0.00547904 0.00149115 0.00860545 0.00458146 0.03634890 0.00291156 0.01700849 0.00126865 0.00798103 0.09365057 0.03192331 0.00168662 
0.02381543 0.01395276 0.00258918 0.00242554 0.00574181 0.00149862 0.00843687 0.00464081 0.03653544 0.00302166 0.01729972 0.00128568 0.00806263 0.09422831 0.03218870 0.00170976 
0.02408207 0.01419982 0.00263901 0.00243438 0.00601525 0.00150613 0.00826983 0.00469739 0.03669528 0.00313862 0.01758624 0.00130345 0.00814716 0.09466987 0.03240428 0.00173117 
0.02434346 0.01447886 0.00268765 0.00244190 0.00629858 0.00151365 0.00810524 0.00475114 0.03682893 0.00326228 0.01786703 0.00132195 0.00823453 0.09497277 0.03256863 0.00175074 
0.02459868 0.01478834 0.00273500 0.00244811 0.00659097 0.00152114 0.00794399 0.00480204 0.03693704 0.00339245 0.01814107 0.00134116 0.00832462 0.09513538 0.03268063 0.00176835 
0.02484672 0.01512659 0.00278097 0.00245304 0.00689153 0.00152859 0.00778694 0.00485009 0.03702044 0.00352896 0.01840742 0.00136108 0.00841727 0.09515691 0.03273945 0.00178391 
0.02508655 0.01549180 0.00282549 0.00245672 0.00719931 0.00153596 0.00763490 0.00489529 0.03708008 0.00367161 0.01866516 0.00138167 0.00851230 0.09503738 0.03274458 0.00179732 
0.02531708 0.01588206 0.00286851 0.00245920 0.00751331 0.00154324 0.00748866 0.00493767 0.03711708 0.00382021 0.01891343 0.00140292 0.00860952 0.09477766 0.03269582 0.00180852 
0.02553720 0.01629534 0.00290995 0.00246053 0.00783249 0.00155041 0.00734892 0.00497729 0.03713265 0.00397455 0.01915141 0.00142481 0.00870869 0.09437942 0.03259329 0.00181745 
0.02574575 0.01672950 0.00294979 0.00246075 0.00815576 0.00155746 0.00721637 0.00501420 0.03712816 0.00413443 0.01937836 0.00144731 0.00880956 0.09384513 0.03243741 0.00182407 
0.02594157 0.01718235 0.00298799 0.00245993 0.00848199 0.00156439 0.00709163 0.00504848 0.03710504 0.00429963 0.01959358 0.00147039 0.00891186 0.09317804 0.03222892 0.00182834 
0.02612348 0.01765161 0.00302451 0.00245815 0.00881002 0.00157120 0.00697524 0.00508023 0.03706484 0.00446992 0.01979643 0.00149404 0.00901530 0.09238212 0.03196882 0.00183025 
0.02629028 0.01813494 0.00305935 0.00245547 0.00913867 0.00157788 0.00686770 0.00510955 0.03700918 0.00464508 0.01998634 0.00151821 0.00911955 0.09146207 0.03165845 0.00182980 
0.02644078 0.01862997 0.00309249 0.00245198 0.00946671 0.00158444 0.00676944 0.00513658 0.03693974 0.00482487 0.02016282 0.00154287 0.00922430 0.09042324 0.03129938 0.00182701 
0.02657383 0.01913429 0.00312394 0.00244775 0.00979293 0.00159089 0.00668081 0.00516144 0.03685825 0.00500904 0.02032543 0.00156799 0.00932919 0.08927161 0.03089347 0.00182190 
0.02668826 0.01964549 0.00315369 0.00244287 0.01011608 0.00159725 0.00660212 0.00518427 0.03676648 0.00519735 0.02047380 0.00159353 0.00943386 0.08801373 0.03044283 0.00181451 
0.02678296 0.02016113 0.00318177 0.00243744 0.01043492 0.00160353 0.00653357 0.00520525 0.03666623 0.00538953 0.02060764 0.00161945 0.00953796 0.08665665 0.02994979 0.00180491 
0.02685684 0.02067882 0.00320821 0.00243153 0.01074822 0.00160976 0.00647532 0.00522453 0.03655928 0.00558531 0.02072673 0.00164570 0.00964108 0.08520792 0.02941691 0.00179317 
0.02690887 0.02119617 0.00323301 0.00242523 0.01105473 0.00161594 0.00642745 0.00524229 0.03644742 0.00578443 0.02083093 0.00167226 0.00974286 0.08367547 0.02884693 0.00177935 
0.02693810 0.02171082 0.00325622 0.00241865 0.01135324 0.00162211 0.00638997 0.00525871 0.03633243 0.00598660 0.02092016 0.00169906 0.00984290 0.08206757 0.02824277 0.00176357 
0.02694361 0.02222050 0.00327788 0.00241186 0.01164256 0.00162829 0.00636281 0.00527397 0.03621603 0.00619151 0.02099442 0.00172605 0.00994082 0.08039279 0.02760751 0.00174592 
0.02692458 0.02272297 0.00329803 0.00240496 0.01192150 0.00163452 0.00634584 0.00528827 0.03609992 0.00639887 0.02105378 0.00175319 0.01003621 0.07865991 0.02694437 0.00172652 
0.02688028 0.02321608 0.00331671 0.00239803 0.01218894 0.00164081 0.00633887 0.00530181 0.03598573 0.00660838 0.02109839 0.00178043 0.01012869 0.07687784 0.02625666 0.00170549 
0.02681008 0.02369776 0.00333398 0.00239114 0.01244377 0.00164719 0.00634162 0.00531478 0.03587499 0.00681969 0.02112847 0.00180769 0.01021789 0.07505561 0.02554779 0.00168297 
0.02671344 0.02416606 0.00334988 0.00238438 0.01268495 0.00165370 0.00635378 0.00532738 0.03576919 0.00703250 0.02114431 0.00183494 0.01030342 0.07320225 0.02482123 0.00165910 
0.02658993 0.02461910 0.00336447 0.00237783 0.01291147 0.00166037 0.00637496 0.00533981 0.03566970 0.00724645 0.02114627 0.00186210 0.01038493 0.07132677 0.02408049 0.00163403 
0.02643926 0.02505517 0.00337781 0.00237154 0.01312239 0.00166722 0.00640472 0.00535227 0.03557780 0.00746121 0.02113477 0.00188911 0.01046207 0.06943806 0.02332908 0.00160790 
0.02626125 0.02547264 0.00338994 0.00236558 0.01331682 0.00167427 0.00644256 0.00536495 0.03549463 0.00767640 0.02111030 0.00191591 0.01053449 0.06754486 0.02257053 0.00158088 
0.02605584 0.02587004 0.00340094 0.00236000 0.01349396 0.00168156 0.00648795 0.00537804 0.03542124 0.00789167 0.02107343 0.00194244 0.01060189 0.06565568 0.02180831 0.00155312 
0.02582314 0.02624605 0.00341084 0.00235486 0.01365306 0.00168911 0.00654030 0.00539174 0.03535854 0.00810665 0.02102476 0.00196862 0.01066396 0.06377876 0.02104587 0.00152479 
0.02556336 0.02659946 0.00341970 0.00235020 0.01379345 0.00169693 0.00659898 0.00540622 0.03530730 0.00832094 0.02096498 0.00199439 0.01072043 0.06192201 0.02028655 0.00149604 
0.02527687 0.02692925 0.00342759 0.00234604 0.01391456 0.00170505 0.00666333 0.00542165 0.03526815 0.00853417 0.02089482 0.00201968 0.01077104 0.06009296 0.01953363 0.00146705 
0.02496420 0.02723455 0.00343454 0.00234242 0.01401587 0.00171348 0.00673268 0.00543822 0.03524159 0.00874593 0.02081505 0.00204441 0.01081556 0.05829874 0.01879025 0.00143797 
0.02462599 0.02751463 0.00344060 0.00233936 0.01409698 0.00172223 0.00680630 0.00545607 0.03522797 0.00895582 0.02072651 0.00206853 0.01085380 0.05654600 0.01805942 0.00140896 
0.02426306 0.02776894 0.00344582 0.00233686 0.01415757 0.00173131 0.00688346 0.00547536 0.03522748 0.00916344 0.02063008 0.00209195 0.01088556 0.05484089 0.01734403 0.00138017 
0.02387636 0.02799710 0.00345024 0.00233492 0.01419739 0.00174072 0.00696343 0.00549623 0.03524017 0.00936837 0.02052667 0.00211460 0.01091071 0.05318906 0.01664676 0.00135176 
0.02346696 0.02819886 0.00345390 0.00233354 0.01421631 0.00175047 0.00704544 0.00551881 0.03526596 0.00957019 0.02041724 0.00213642 0.01092913 0.05159558 0.01597015 0.00132386 
0.02303612 0.02837417 0.00345683 0.00233271 0.01421429 0.00176054 0.00712875 0.00554322 0.03530458 0.00976849 0.02030277 0.00215734 0.01094073 0.05006496 0.01531652 0.00129661 
0.02258519 0.02852312 0.00345905 0.00233239 0.01419139 0.00177094 0.00721260 0.00556956 0.03535567 0.00996284 0.02018427 0.00217729 0.01094545 0.04860111 0.01468801 0.00127015 
0.02211567 0.02864597 0.00346060 0.00233257 0.01414774 0.00178164 0.00729625 0.00559794 0.03541869 0.01015283 0.02006279 0.00219620 0.01094327 0.04720735 0.01408654 0.00124459 
0.02162918 0.02874310 0.00346150 0.00233320 0.01408359 0.00179262 0.00737897 0.00562843 0.03549299 0.01033803 0.01993938 0.00221401 0.01093419 0.04588638 0.01351381 0.00122005 
0.02112746 0.02881509 0.00346176 0.00233423 0.01399927 0.00180387 0.00746005 0.00566109 0.03557778 0.01051802 0.01981510 0.00223065 0.01091825 0.04464031 0.01297130 0.00119663 
0.02061235 0.02886263 0.00346139 0.00233561 0.01389522 0.00181536 0.00753879 0.00569599 0.03567215 0.01069239 0.01969103 0.00224608 0.01089552 0.04347062 0.01246027 0.00117443 
0.02008581 0.02888655 0.00346040 0.00233729 0.01377194 0.00182705 0.00761454 0.00573317 0.03577507 0.01086074 0.01956825 0.00226022 0.01086609 0.04237821 0.01198172 0.00115351 
0.01954987 0.02888781 0.00345880 0.00233919 0.01363006 0.00183890 0.00768666 0.00577263 0.03588543 0.01102264 0.01944784 0.00227304 0.01083010 0.04136340 0.01153645 0.00113396 
0.01900665 0.02886752 0.00345659 0.00234126 0.01347024 0.00185088 0.00775457 0.00581441 0.03600199 0.01117772 0.01933087 0.00228447 0.01078770 0.04042594 0.01112504 0.00111584 
0.01845834 0.02882687 0.00345376 0.00234341 0.01329328 0.00186294 0.00781770 0.00585848 0.03612344 0.01132558 0.01921838 0.00229448 0.01073907 0.03956504 0.01074780 0.00109918 
0.01790718 0.02876716 0.00345031 0.00234556 0.01310000 0.00187503 0.00787555 0.00590483 0.03624840 0.01146584 0.01911142 0.00230303 0.01068443 0.03877938 0.01040488 0.00108403 
0.01735546 0.02868982 0.00344623 0.00234764 0.01289134 0.00188710 0.00792766 0.00595342 0.03637543 0.01159815 0.01901100 0.00231008 0.01062402 0.03806719 0.01009615 0.00107042 
0.01680550 0.02859633 0.00344150 0.00234956 0.01266827 0.00189910 0.00797359 0.00600419 0.03650300 0.01172215 0.01891809 0.00231561 0.01055809 0.03742620 0.00982133 0.00105834 
0.01625965 0.02848827 0.00343612 0.00235123 0.01243184 0.00191096 0.00801300 0.00605708 0.03662959 0.01183750 0.01883366 0.00231959 0.01048693 0.03685374 0.00957992 0.00104781 
0.01572024 0.02836726 0.00343008 0.00235256 0.01218315 0.00192263 0.00804556 0.00611200 0.03675362 0.01194390 0.01875859 0.00232200 0.01041084 0.03634679 0.00937121 0.00103881 
0.01518962 0.02823501 0.00342334 0.00235348 0.01192335 0.00193404 0.00807101 0.00616885 0.03687351 0.01204104 0.01869376 0.00232283 0.01033014 0.03590193 0.00919436 0.00103133 
0.01467010 0.02809326 0.00341591 0.00235389 0.01165364 0.00194513 0.00808915 0.00622750 0.03698766 0.01212864 0.01863997 0.00232208 0.01024516 0.03551550 0.00904833 0.00102532 
0.01416396 0.02794378 0.00340777 0.00235372 0.01137524 0.00195584 0.00809983 0.00628784 0.03709450 0.01220644 0.01859798 0.00231975 0.01015626 0.03518356 0.00893194 0.00102075 
0.01367343 0.02778837 0.00339890 0.00235287 0.01108942 0.00196610 0.00810296 0.00634970 0.03719247 0.01227422 0.01856848 0.00231585 0.01006380 0.03490196 0.00884388 0.00101756 
0.01320067 0.02762885 0.00338929 0.00235127 0.01079746 0.00197585 0.00809849 0.00641293 0.03728005 0.01233176 0.01855209 0.00231040 0.00996814 0.03466639 0.00878271 0.00101570 
0.01274778 0.02746702 0.00337894 0.00234884 0.01050065 0.00198502 0.00808645 0.00647735 0.03735576 0.01237887 0.01854939 0.00230342 0.00986966 0.03447243 0.00874689 0.00101509 
0.01231675 0.02730470 0.00336783 0.00234552 0.01020031 0.00199356 0.00806689 0.00654277 0.03741821 0.01241541 0.01856085 0.00229493 0.00976874 0.03431558 0.00873479 0.00101566 
0.01190948 0.02714369 0.00335596 0.00234125 0.00989773 0.00200139 0.00803994 0.00660898 0.03746604 0.01244123 0.01858689 0.00228498 0.00966577 0.03419131 0.00874470 0.00101732 
0.01152775 0.02698573 0.00334333 0.00233595 0.00959423 0.00200847 0.00800576 0.00667576 0.03749800 0.01245624 0.01862783 0.00227361 0.00956111 0.03409510 0.00877485 0.00102000 
0.01117322 0.02683256 0.00332995 0.00232959 0.00929108 0.00201473 0.00796458 0.00674288 0.03751293 0.01246037 0.01868392 0.00226088 0.00945515 0.03402252 0.00882343 0.00102358 
0.01084740 0.02668585 0.00331583 0.00232212 0.00898956 0.00202013 0.00791666 0.00681010 0.03750978 0.01245357 0.01875531 0.00224684 0.00934826 0.03396919 0.00888861 0.00102798 
0.01055168 0.02654724 0.00330099 0.00231351 0.00869091 0.00202462 0.00786229 0.00687716 0.03748761 0.01243584 0.01884209 0.00223156 0.00924080 0.03393091 0.00896854 0.00103309 
0.01028727 0.02641829 0.00328544 0.00230372 0.00839634 0.00202815 0.00780183 0.00694380 0.03744560 0.01240719 0.01894423 0.00221510 0.00913312 0.03390363 0.00906136 0.00103881 
0.01005523 0.02630048 0.00326921 0.00229274 0.00810702 0.00203069 0.00773564 0.00700975 0.03738306 0.01236768 0.01906162 0.00219756 0.00902557 0.03388352 0.00916526 0.00104504 
0.00985643 0.02619522 0.00325235 0.00228057 0.00782406 0.00203220 0.00766415 0.00707472 0.03729945 0.01231741 0.01919405 0.00217901 0.00891845 0.03386697 0.00927844 0.00105168 
0.00969158 0.02610386 0.00323488 0.00226721 0.00754855 0.00203265 0.00758779 0.00713843 0.03719437 0.01225648 0.01934124 0.00215954 0.00881210 0.03385067 0.00939915 0.00105861 
0.00956121 0.02602762 0.00321686 0.00225266 0.00728150 0.00203203 0.00750703 0.00720058 0.03706757 0.01218504 0.01950280 0.00213925 0.00870678 0.03383158 0.00952570 0.00106574 
0.00946565 0.02596764 0.00319834 0.00223696 0.00702386 0.00203032 0.00742234 0.00726087 0.03691896 0.01210329 0.01967823 0.00211825 0.00860278 0.03380698 0.00965647 0.00107296 
0.00940506 0.02592498 0.00317939 0.00222013 0.00677653 0.00202750 0.00733423 0.00731899 0.03674860 0.01201144 0.01986699 0.00209662 0.00850035 0.03377447 0.00978992 0.00108020 
0.00937938 0.02590056 0.00316008 0.00220222 0.00654032 0.00202359 0.00724322 0.00737466 0.03655673 0.01190974 0.02006839 0.00207450 0.00839971 0.03373204 0.00992460 0.00108734 
0.00938839 0.02589521 0.00314048 0.00218328 0.00631599 0.00201858 0.00714981 0.00742755 0.03634374 0.01179847 0.02028171 0.00205198 0.00830106 0.03367800 0.01005916 0.00109431 
0.00943166 0.02590966 0.00312068 0.00216338 0.00610419 0.00201249 0.00705455 0.00747736 0.03611017 0.01167794 0.02050609 0.00202918 0.00820460 0.03361104 0.01019236 0.00110102 
0.00950857 0.02594451 0.00310077 0.00214259 0.00590553 0.00200533 0.00695794 0.00752380 0.03585674 0.01154849 0.02074065 0.00200622 0.00811047 0.03353024 0.01032306 0.00110741 
0.00961833 0.02600025 0.00308084 0.00212100 0.00572052 0.00199714 0.00686053 0.00756657 0.03558433 0.01141049 0.02098437 0.00198322 0.00801881 0.03343504 0.01045026 0.00111340 
0.00975995 0.02607726 0.00306100 0.00209869 0.00554959 0.00198795 0.00676281 0.00760536 0.03529397 0.01126434 0.02123620 0.00196030 0.00792972 0.03332526 0.01057308 0.00111894 
0.00993228 0.02617580 0.00304136 0.00207577 0.00539307 0.00197781 0.00666529 0.00763991 0.03498684 0.01111047 0.02149502 0.00193758 0.00784330 0.03320108 0.01069075 0.00112398 
0.01013399 0.02629602 0.00302203 0.00205236 0.00525125 0.00196675 0.00656845 0.00766993 0.03466428 0.01094933 0.02175961 0.00191518 0.00775959 0.03306305 0.01080264 0.00112847 
0.01036359 0.02643796 0.00300312 0.00202856 0.00512430 0.00195484 0.00647278 0.00769516 0.03432775 0.01078139 0.02202874 0.00189321 0.00767864 0.03291208 0.01090824 0.00113239 
0.01061945 0.02660153 0.00298477 0.00200450 0.00501233 0.00194215 0.00637871 0.00771535 0.03397885 0.01060715 0.02230110 0.00187181 0.00760046 0.03274938 0.01100719 0.00113571 
0.01089976 0.02678655 0.00296709 0.00198032 0.00491535 0.00192873 0.00628668 0.00773026 0.03361932 0.01042714 0.02257534 0.00185107 0.00752504 0.03257652 0.01109923 0.00113841 
0.01120261 0.02699273 0.00295022 0.00195615 0.00483330 0.00191466 0.00619707 0.00773967 0.03325099 0.01024188 0.02285007 0.00183112 0.00745235 0.03239534 0.01118425 0.00114050 
0.01152597 0.02721967 0.00293427 0.00193213 0.00476605 0.00190003 0.00611026 0.00774339 0.03287580 0.01005195 0.02312389 0.00181207 0.00738234 0.03220796 0.01126225 0.00114198 
0.01186768 0.02746689 0.00291938 0.00190842 0.00471340 0.00188492 0.00602659 0.00774122 0.03249578 0.00985791 0.02339533 0.00179400 0.00731494 0.03201678 0.01133333 0.00114286 
0.01222548 0.02773379 0.00290569 0.00188515 0.00467507 0.00186942 0.00594636 0.00773301 0.03211306 0.00966034 0.02366296 0.00177704 0.00725007 0.03182441 0.01139773 0.00114317 
0.01259706 0.02801969 0.00289331 0.00186247 0.00465070 0.00185362 0.00586984 0.00771862 0.03172979 0.00945986 0.02392530 0.00176126 0.00718764 0.03163365 0.01145579 0.00114295 
0.01298000 0.02832382 0.00288237 0.00184055 0.00463990 0.00183762 0.00579728 0.00769794 0.03134822 0.00925706 0.02418088 0.00174675 0.00712753 0.03144751 0.01150792 0.00114222 
0.01337186 0.02864535 0.00287301 0.00181953 0.00464220 0.00182152 0.00572886 0.00767088 0.03097060 0.00905257 0.02442826 0.00173360 0.00706962 0.03126912 0.01155466 0.00114106 
0.01377013 0.02898335 0.00286532 0.00179955 0.00465708 0.00180542 0.00566477 0.00763739 0.03059923 0.00884702 0.02466599 0.00172188 0.00701378 0.03110174 0.01159662 0.00113950 
0.01417230 0.02933684 0.00285944 0.00178077 0.00468397 0.00178942 0.00560512 0.00759744 0.03023638 0.00864102 0.02489265 0.00171165 0.00695987 0.03094870 0.01163445 0.00113763 
0.01457583 0.02970477 0.00285547 0.00176334 0.00472227 0.00177363 0.00555000 0.00755102 0.02988434 0.00843522 0.02510686 0.00170297 0.00690774 0.03081341 0.01166892 0.00113551 
0.01497821 0.03008602 0.00285352 0.00174738 0.00477133 0.00175815 0.00549948 0.00749818 0.02954537 0.00823024 0.02530728 0.00169588 0.00685727 0.03069930 0.01170083 0.00113321 
0.01537692 0.03047945 0.00285367 0.00173304 0.00483045 0.00174309 0.00545358 0.00743897 0.02922166 0.00802671 0.02549259 0.00169043 0.00680829 0.03060980 0.01173100 0.00113084 
0.01576951 0.03088386 0.00285602 0.00172044 0.00489895 0.00172855 0.00541228 0.00737350 0.02891538 0.00782525 0.02566158 0.00168665 0.00676066 0.03054830 0.01176032 0.00112846 
0.01615357 0.03129800 0.00286064 0.00170971 0.00497608 0.00171462 0.00537553 0.00730191 0.02862859 0.00762650 0.02581305 0.00168455 0.00671424 0.03051812 0.01178970 0.00112618 
0.01652674 0.03172061 0.00286760 0.00170095 0.00506110 0.00170140 0.00534326 0.00722435 0.02836328 0.00743104 0.02594590 0.00168415 0.00666890 0.03052253 0.01182006 0.00112409 
0.01688676 0.03215040 0.00287696 0.00169427 0.00515326 0.00168898 0.00531536 0.00714103 0.02812130 0.00723949 0.02605909 0.00168545 0.00662450 0.03056466 0.01185231 0.00112228 
0.01723146 0.03258606 0.00288877 0.00168976 0.00525180 0.00167747 0.00529169 0.00705218 0.02790442 0.00705244 0.02615168 0.00168843 0.00658092 0.03064749 0.01188739 0.00112085 
0.01755877 0.03302626 0.00290306 0.00168750 0.00535595 0.00166692 0.00527210 0.00695809 0.02771424 0.00687046 0.02622281 0.00169307 0.00653806 0.03077385 0.01192618 0.00111991 
0.01786677 0.03346969 0.00291985 0.00168757 0.00546496 0.00165744 0.00525639 0.00685905 0.02755221 0.00669410 0.02627170 0.00169935 0.00649580 0.03094641 0.01196957 0.00111954 
0.01815363 0.03391500 0.00293915 0.00169001 0.00557808 0.00164908 0.00524437 0.00675540 0.02741963 0.00652392 0.02629770 0.00170723 0.00645406 0.03116759 0.01201841 0.00111984 
0.01841769 0.03436089 0.00296096 0.00169488 0.00569459 0.00164191 0.00523580 0.00664752 0.02731759 0.00636044 0.02630023 0.00171665 0.00641277 0.03143962 0.01207350 0.00112090 
0.01865744 0.03480603 0.00298526 0.00170220 0.00581379 0.00163600 0.00523044 0.00653581 0.02724703 0.00620415 0.02627884 0.00172756 0.00637188 0.03176447 0.01213561 0.00112281 
0.01887153 0.03524913 0.00301202 0.00171198 0.00593497 0.00163138 0.00522804 0.00642071 0.02720865 0.00605554 0.02623318 0.00173989 0.00633132 0.03214388 0.01220541 0.00112565 
0.01905879 0.03568893 0.00304119 0.00172424 0.00605750 0.00162811 0.00522832 0.00630268 0.02720296 0.00591507 0.02616301 0.00175356 0.00629109 0.03257928 0.01228356 0.00112951 
0.01921822 0.03612416 0.00307272 0.00173896 0.00618073 0.00162621 0.00523101 0.00618221 0.02723025 0.00578318 0.02606820 0.00176848 0.00625116 0.03307188 0.01237061 0.00113445 
0.01934899 0.03655361 0.00310654 0.00175610 0.00630408 0.00162570 0.00523583 0.00605983 0.02729059 0.00566026 0.02594876 0.00178457 0.00621155 0.03362256 0.01246705 0.00114053 
0.01945050 0.03697609 0.00314255 0.00177563 0.00642700 0.00162661 0.00524248 0.00593608 0.02738381 0.00554671 0.02580479 0.00180172 0.00617227 0.03423193 0.01257327 0.00114782 
0.01952229 0.03739045 0.00318066 0.00179749 0.00654897 0.00162894 0.00525068 0.00581152 0.02750951 0.00544286 0.02563651 0.00181982 0.00613336 0.03490029 0.01268961 0.00115636 
0.01956414 0.03779559 0.00322075 0.00182160 0.00666951 0.00163268 0.00526014 0.00568673 0.02766707 0.00534905 0.02544425 0.00183875 0.00609489 0.03562766 0.01281629 0.00116619 
0.01957600 0.03819044 0.00326270 0.00184788 0.00678820 0.00163782 0.00527057 0.00556232 0.02785563 0.00526557 0.02522848 0.00185841 0.00605691 0.03641375 0.01295344 0.00117734 
0.01955802 0.03857396 0.00330637 0.00187622 0.00690463 0.00164433 0.00528170 0.00543890 0.02807408 0.00519268 0.02498975 0.00187865 0.00601951 0.03725798 0.01310111 0.00118982 
0.01951055 0.03894520 0.00335161 0.00190651 0.00701848 0.00165219 0.00529326 0.00531710 0.02832111 0.00513061 0.02472872 0.00189935 0.00598280 0.03815949 0.01325925 0.00120365 
0.01943413 0.03930322 0.00339824 0.00193861 0.00712943 0.00166135 0.00530497 0.00519755 0.02859518 0.00507957 0.02444618 0.00192039 0.00594688 0.03911711 0.01342771 0.00121883 
0.01932948 0.03964714 0.00344612 0.00197238 0.00723723 0.00167175 0.00531660 0.00508088 0.02889453 0.00503970 0.02414300 0.00194161 0.00591187 0.04012941 0.01360625 0.00123534 
0.01919752 0.03997614 0.00349504 0.00200767 0.00734167 0.00168334 0.00532790 0.00496774 0.02921719 0.00501116 0.02382014 0.00196289 0.00587792 0.04119468 0.01379453 0.00125316 
0.01903933 0.04028945 0.00354482 0.00204431 0.00744257 0.00169604 0.00533865 0.00485876 0.02956101 0.00499403 0.02347867 0.00198408 0.00584515 0.04231097 0.01399211 0.00127226 
0.01885617 0.04058635 0.00359525 0.00208212 0.00753980 0.00170978 0.00534863 0.00475458 0.02992367 0.00498838 0.02311973 0.00200505 0.00581373 0.04347606 0.01419848 0.00129258 
0.01864945 0.04086616 0.00364614 0.00212092 0.00763327 0.00172447 0.00535767 0.00465581 0.03030264 0.00499425 0.02274454 0.00202565 0.00578380 0.04468751 0.01441304 0.00131407 
0.01842074 0.04112828 0.00369726 0.00216050 0.00772293 0.00174003 0.00536559 0.00456307 0.03069529 0.00501163 0.02235441 0.00204576 0.00575553 0.04594265 0.01463508 0.00133666 
0.01817174 0.04137213 0.00374841 0.00220067 0.00780874 0.00175633 0.00537223 0.00447694 0.03109882 0.00504048 0.02195069 0.00206523 0.00572907 0.04723862 0.01486384 0.00136028 
0.01790431 0.04159720 0.00379936 0.00224121 0.00789072 0.00177330 0.00537745 0.00439799 0.03151034 0.00508073 0.02153481 0.00208393 0.00570458 0.04857236 0.01509849 0.00138484 
0.01762039 0.04180304 0.00384987 0.00228191 0.00796891 0.00179080 0.00538114 0.00432678 0.03192686 0.00513228 0.02110822 0.00210173 0.00568223 0.04994063 0.01533810 0.00141025 
0.01732204 0.04198922 0.00389974 0.00232255 0.00804338 0.00180872 0.00538321 0.00426383 0.03234531 0.00519498 0.02067246 0.00211852 0.00566217 0.05134005 0.01558170 0.00143638 
0.01701143 0.04215539 0.00394873 0.00236291 0.00811419 0.00182695 0.00538356 0.00420962 0.03276260 0.00526867 0.02022906 0.00213417 0.00564455 0.05276709 0.01582827 0.00146315 
0.01669077 0.04230123 0.00399663 0.00240276 0.00818147 0.00184536 0.00538216 0.00416461 0.03317557 0.00535314 0.01977960 0.00214858 0.00562951 0.05421809 0.01607672 0.00149041 
0.01636237 0.04242647 0.00404319 0.00244189 0.00824532 0.00186382 0.00537894 0.00412923 0.03358111 0.00544815 0.01932568 0.00216163 0.00561719 0.05568930 0.01632593 0.00151805 
0.01602857 0.04253088 0.00408822 0.00248007 0.00830589 0.00188221 0.00537391 0.00410384 0.03397610 0.00555343 0.01886890 0.00217324 0.00560771 0.05717689 0.01657474 0.00154594 
0.01569173 0.04261428 0.00413149 0.00251709 0.00836330 0.00190040 0.00536704 0.00408879 0.03435748 0.00566868 0.01841086 0.00218331 0.00560119 0.05867694 0.01682197 0.00157393 
0.01535426 0.04267654 0.00417280 0.00255273 0.00841771 0.00191827 0.00535836 0.00408437 0.03472228 0.00579357 0.01795316 0.00219177 0.00559772 0.06018549 0.01706641 0.00160189 
0.01501855 0.04271756 0.00421196 0.00258677 0.00846927 0.00193567 0.00534790 0.00409082 0.03506761 0.00592774 0.01749740 0.00219854 0.00559738 0.06169854 0.01730685 0.00162967 
0.01468699 0.04273728 0.00424876 0.00261904 0.00851810 0.00195251 0.00533571 0.00410833 0.03539073 0.00607079 0.01704514 0.00220357 0.00560025 0.06321208 0.01754205 0.00165712 
0.01436191 0.04273568 0.00428303 0.00264932 0.00856437 0.00196864 0.00532185 0.00413705 0.03568904 0.00622231 0.01659792 0.00220681 0.00560637 0.06472209 0.01777080 0.00168411 
0.01404564 0.04271280 0.00431461 0.00267744 0.00860819 0.00198395 0.00530639 0.00417706 0.03596012 0.00638186 0.01615723 0.00220823 0.00561577 0.06622457 0.01799189 0.00171049 
0.01374044 0.04266868 0.00434333 0.00270322 0.00864968 0.00199834 0.00528943 0.00422840 0.03620174 0.00654896 0.01572454 0.00220778 0.00562846 0.06771553 0.01820412 0.00173611 
0.01344847 0.04260342 0.00436906 0.00272652 0.00868896 0.00201169 0.00527105 0.00429104 0.03641193 0.00672312 0.01530124 0.00220547 0.00564444 0.06919105 0.01840634 0.00176084 
0.01317183 0.04251716 0.00439167 0.00274717 0.00872610 0.00202391 0.00525139 0.00436491 0.03658892 0.00690383 0.01488870 0.00220128 0.00566368 0.07064725 0.01859741 0.00178453 
0.01291252 0.04241006 0.00441104 0.00276505 0.00876120 0.00203489 0.00523054 0.00444986 0.03673125 0.00709053 0.01448820 0.00219523 0.00568613 0.07208032 0.01877623 0.00180707 
0.01267243 0.04228233 0.00442708 0.00278005 0.00879429 0.00204456 0.00520864 0.00454572 0.03683771 0.00728268 0.01410097 0.00218732 0.00571171 0.07348654 0.01894177 0.00182831 
0.01245330 0.04213421 0.00443973 0.00279206 0.00882541 0.00205283 0.00518583 0.00465222 0.03690741 0.00747969 0.01372815 0.00217761 0.00574034 0.07486227 0.01909302 0.00184816 
0.01225676 0.04196597 0.00444890 0.00280100 0.00885457 0.00205964 0.00516225 0.00476906 0.03693978 0.00768098 0.01337081 0.00216611 0.00577190 0.07620398 0.01922906 0.00186649 
0.01208430 0.04177794 0.00445458 0.00280680 0.00888175 0.00206493 0.00513803 0.00489589 0.03693456 0.00788591 0.01302997 0.00215290 0.00580626 0.07750826 0.01934901 0.00188321 
0.01193724 0.04157045 0.00445673 0.00280941 0.00890692 0.00206865 0.00511333 0.00503229 0.03689186 0.00809389 0.01270651 0.00213803 0.00584327 0.07877182 0.01945208 0.00189823 
0.01181674 0.04134390 0.00445535 0.00280882 0.00893001 0.00207076 0.00508830 0.00517780 0.03681212 0.00830426 0.01240128 0.00212159 0.00588275 0.07999149 0.01953755 0.00191147 
0.01172380 0.04109872 0.00445047 0.00280499 0.00895094 0.00207124 0.00506309 0.00533189 0.03669613 0.00851638 0.01211500 0.00210365 0.00592452 0.08116426 0.01960476 0.00192286 
0.01165923 0.04083537 0.00444213 0.00279796 0.00896960 0.00207006 0.00503785 0.00549402 0.03654506 0.00872960 0.01184832 0.00208431 0.00596837 0.08228725 0.01965317 0.00193235 
0.01162369 0.04055436 0.00443039 0.00278773 0.00898586 0.00206722 0.00501273 0.00566357 0.03636041 0.00894326 0.01160179 0.00206368 0.00601407 0.08335774 0.01968229 0.00193991 
0.01161761 0.04025624 0.00441533 0.00277437 0.00899957 0.00206272 0.00498788 0.00583990 0.03614405 0.00915669 0.01137589 0.00204187 0.00606139 0.08437317 0.01969175 0.00194549 
0.01164128 0.03994160 0.00439704 0.00275793 0.00901055 0.00205659 0.00496346 0.00602232 0.03589822 0.00936922 0.01117098 0.00201901 0.00611009 0.08533114 0.01968125 0.00194910 
0.01169479 0.03961109 0.00437567 0.00273850 0.00901861 0.00204885 0.00493960 0.00621011 0.03562547 0.00958020 0.01098734 0.00199521 0.00615989 0.08622942 0.01965060 0.00195072 
0.01177802 0.03926538 0.00435134 0.00271618 0.00902355 0.00203954 0.00491645 0.00640251 0.03532869 0.00978896 0.01082516 0.00197062 0.00621053 0.08706597 0.01959970 0.00195038 
0.01189068 0.03890521 0.00432422 0.00269109 0.00902515 0.00202871 0.00489415 0.00659875 0.03501111 0.00999484 0.01068456 0.00194539 0.00626173 0.08783891 0.01952854 0.00194810 
0.01203232 0.03853135 0.00429449 0.00266337 0.00902318 0.00201642 0.00487283 0.00679803 0.03467625 0.01019720 0.01056554 0.00191964 0.00631322 0.08854654 0.01943722 0.00194394 
0.01220227 0.03814465 0.00426235 0.00263317 0.00901740 0.00200274 0.00485263 0.00699952 0.03432790 0.01039538 0.01046803 0.00189355 0.00636469 0.08918735 0.01932592 0.00193795 
0.01239972 0.03774597 0.00422801 0.00260066 0.00900757 0.00198775 0.00483366 0.00720238 0.03397014 0.01058877 0.01039189 0.00186725 0.00641587 0.08976004 0.01919493 0.00193021 
0.01262366 0.03733626 0.00419171 0.00256601 0.00899343 0.00197154 0.00481605 0.00740578 0.03360726 0.01077674 0.01033690 0.00184091 0.00646646 0.09026346 0.01904464 0.00192081 
0.01287294 0.03691649 0.00415369 0.00252944 0.00897475 0.00195421 0.00479991 0.00760886 0.03324378 0.01095870 0.01030275 0.00181468 0.00651619 0.09069667 0.01887551 0.00190984 
0.01314624 0.03648771 0.00411421 0.00249113 0.00895128 0.00193585 0.00478535 0.00781077 0.03288440 0.01113407 0.01028907 0.00178873 0.00656477 0.09105895 0.01868812 0.00189744 
0.01344212 0.03605101 0.00407354 0.00245131 0.00892279 0.00191660 0.00477248 0.00801067 0.03253397 0.01130229 0.01029542 0.00176320 0.00661194 0.09134973 0.01848312 0.00188372 
0.01375897 0.03560753 0.00403197 0.00241021 0.00888904 0.00189656 0.00476138 0.00820773 0.03219746 0.01146281 0.01032132 0.00173825 0.00665744 0.09156868 0.01826125 0.00186882 
0.01409508 0.03515846 0.00398979 0.00236806 0.00884984 0.00187585 0.00475216 0.00840111 0.03187993 0.01161514 0.01036619 0.00171405 0.00670101 0.09171563 0.01802333 0.00185291 
0.01444862 0.03470506 0.00394729 0.00232510 0.00880498 0.00185461 0.00474490 0.00859003 0.03158649 0.01175879 0.01042944 0.00169072 0.00674241 0.09179065 0.01777028 0.00183614 
0.01481765 0.03424861 0.00390479 0.00228157 0.00875428 0.00183297 0.00473967 0.00877369 0.03132225 0.01189331 0.01051040 0.00166844 0.00678144 0.09179398 0.01750306 0.00181869 
0.01520016 0.03379048 0.00386259 0.00223773 0.00869760 0.00181107 0.00473656 0.00895134 0.03109231 0.01201827 0.01060839 0.00164732 0.00681789 0.09172608 0.01722272 0.00180074 
0.01559404 0.03333204 0.00382101 0.00219382 0.00863481 0.00178903 0.00473562 0.00912228 0.03090171 0.01213328 0.01072267 0.00162751 0.00685157 0.09158760 0.01693038 0.00178248 
0.01599714 0.03287472 0.00378034 0.00215010 0.00856580 0.00176700 0.00473693 0.00928580 0.03075539 0.01223800 0.01085246 0.00160913 0.00688233 0.09137939 0.01662722 0.00176410 
0.01640725 0.03242001 0.00374091 0.00210680 0.00849050 0.00174512 0.00474053 0.00944128 0.03065813 0.01233211 0.01099698 0.00159230 0.00691004 0.09110251 0.01631446 0.00174580 
0.01682213 0.03196941 0.00370303 0.00206419 0.00840889 0.00172352 0.00474648 0.00958811 0.03061455 0.01241532 0.01115540 0.00157714 0.00693457 0.09075820 0.01599338 0.00172779 
0.01723952 0.03152447 0.00366698 0.00202249 0.00832094 0.00170234 0.00475483 0.00972574 0.03062905 0.01248741 0.01132689 0.00156374 0.00695584 0.09034792 0.01566530 0.00171027 
0.01765715 0.03108674 0.00363306 0.00198194 0.00822670 0.00168171 0.00476561 0.00985365 0.03070578 0.01254817 0.01151061 0.00155219 0.00697379 0.08987332 0.01533159 0.00169346 
0.01807278 0.03065783 0.00360156 0.00194278 0.00812623 0.00166174 0.00477885 0.00997141 0.03084858 0.01259746 0.01170569 0.00154258 0.00698839 0.08933623 0.01499364 0.00167755 
0.01848416 0.03023933 0.00357275 0.00190521 0.00801963 0.00164258 0.00479459 0.01007862 0.03106098 0.01263517 0.01191128 0.00153498 0.00699964 0.08873866 0.01465287 0.00166275 
0.01888912 0.02983287 0.00354688 0.00186944 0.00790706 0.00162433 0.00481284 0.01017492 0.03134616 0.01266122 0.01212652 0.00152943 0.00700756 0.08808285 0.01431070 0.00164926 
0.01928551 0.02944006 0.00352421 0.00183568 0.00778870 0.00160710 0.00483361 0.01026006 0.03170688 0.01267560 0.01235053 0.00152600 0.00701220 0.08737116 0.01396859 0.00163728 
0.01967125 0.02906251 0.00350494 0.00180410 0.00766477 0.00159099 0.00485692 0.01033379 0.03214551 0.01267833 0.01258249 0.00152470 0.00701365 0.08660617 0.01362800 0.00162700 
0.02004436 0.02870184 0.00348930 0.00177486 0.00753552 0.00157611 0.00488276 0.01039596 0.03266396 0.01266949 0.01282154 0.00152556 0.00701203 0.08579060 0.01329037 0.00161861 
0.02040291 0.02835963 0.00347746 0.00174813 0.00740127 0.00156253 0.00491114 0.01044647 0.03326365 0.01264919 0.01306686 0.00152860 0.00700747 0.08492734 0.01295716 0.00161228 
0.02074512 0.02803743 0.00346960 0.00172405 0.00726234 0.00155033 0.00494202 0.01048528 0.03394553 0.01261758 0.01331764 0.00153379 0.00700016 0.08401945 0.01262978 0.00160816 
0.02106930 0.02773677 0.00346586 0.00170272 0.00711911 0.00153958 0.00497541 0.01051241 0.03471004 0.01257488 0.01357308 0.00154113 0.00699028 0.08307009 0.01230965 0.00160643 
0.02137387 0.02745913 0.00346635 0.00168426 0.00697199 0.00153034 0.00501126 0.01052794 0.03555707 0.01252134 0.01383242 0.00155058 0.00697807 0.08208260 0.01199815 0.00160721 
0.02165741 0.02720593 0.00347117 0.00166874 0.00682140 0.00152265 0.00504954 0.01053200 0.03648599 0.01245725 0.01409491 0.00156210 0.00696379 0.08106040 0.01169663 0.00161064 
0.02191862 0.02697854 0.00348038 0.00165625 0.00666782 0.00151655 0.00509020 0.01052479 0.03749561 0.01238294 0.01435982 0.00157563 0.00694771 0.08000706 0.01140640 0.00161682 
0.02215636 0.02677826 0.00349402 0.00164682 0.00651174 0.00151206 0.00513320 0.01050657 0.03858419 0.01229879 0.01462645 0.00159110 0.00693013 0.07892621 0.01112871 0.00162585 
0.02236965 0.02660631 0.00351211 0.00164048 0.00635368 0.00150920 0.00517846 0.01047762 0.03974944 0.01220521 0.01489413 0.00160842 0.00691138 0.07782160 0.01086478 0.00163782 
0.02255765 0.02646380 0.00353463 0.00163724 0.00619418 0.00150796 0.00522592 0.01043832 0.04098851 0.01210267 0.01516221 0.00162750 0.00689181 0.07669701 0.01061575 0.00165278 
0.02271971 0.02635178 0.00356154 0.00163709 0.00603380 0.00150835 0.00527549 0.01038905 0.04229800 0.01199165 0.01543007 0.00164824 0.00687177 0.07555632 0.01038272 0.00167079 
0.02285533 0.02627117 0.00359277 0.00164002 0.00587310 0.00151035 0.00532709 0.01033026 0.04367400 0.01187266 0.01569712 0.00167052 0.00685166 0.07440341 0.01016669 0.00169186 
0.02296418 0.02622280 0.00362821 0.00164596 0.00571268 0.00151391 0.00538061 0.01026243 0.04511205 0.01174628 0.01596279 0.00169420 0.00683185 0.07324220 0.00996861 0.00171600 
0.02304611 0.02620737 0.00366773 0.00165486 0.00555313 0.00151902 0.00543593 0.01018609 0.04660720 0.01161307 0.01622655 0.00171916 0.00681277 0.07207661 0.00978936 0.00174320 
0.02310114 0.02622544 0.00371120 0.00166663 0.00539503 0.00152560 0.00549295 0.01010180 0.04815401 0.01147364 0.01648786 0.00174525 0.00679483 0.07091055 0.00962971 0.00177343 
0.02312944 0.02627746 0.00375841 0.00168118 0.00523898 0.00153362 0.00555151 0.01001012 0.04974659 0.01132864 0.01674625 0.00177232 0.00677844 0.06974791 0.00949035 0.00180664 
0.02313138 0.02636373 0.00380917 0.00169839 0.00508557 0.00154300 0.00561149 0.00991169 0.05137862 0.01117870 0.01700126 0.00180019 0.00676404 0.06859252 0.00937190 0.00184274 
0.02310746 0.02648440 0.00386325 0.00171813 0.00493539 0.00155367 0.00567272 0.00980711 0.05304337 0.01102450 0.01725243 0.00182871 0.00675206 0.06744814 0.00927486 0.00188167 
0.02305836 0.02663950 0.00392038 0.00174027 0.00478900 0.00156554 0.00573505 0.00969705 0.05473376 0.01086672 0.01749935 0.00185771 0.00674293 0.06631845 0.00919965 0.00192329 
0.02298490 0.02682887 0.00398030 0.00176464 0.00464695 0.00157852 0.00579829 0.00958214 0.05644238 0.01070604 0.01774163 0.00188700 0.00673707 0.06520704 0.00914659 0.00196748 
0.02288805 0.02705222 0.00404270 0.00179109 0.00450978 0.00159252 0.00586226 0.00946307 0.05816154 0.01054318 0.01797888 0.00191641 0.00673491 0.06411736 0.00911590 0.00201410 
0.02276893 0.02730910 0.00410727 0.00181942 0.00437800 0.00160745 0.00592676 0.00934050 0.05988329 0.01037883 0.01821074 0.00194574 0.00673685 0.06305274 0.00910770 0.00206297 
0.02262877 0.02759889 0.00417368 0.00184946 0.00425209 0.00162319 0.00599160 0.00921508 0.06159950 0.01021370 0.01843688 0.00197483 0.00674330 0.06201635 0.00912199 0.00211392 
0.02246894 0.02792083 0.00424158 0.00188101 0.00413251 0.00163964 0.00605655 0.00908749 0.06330188 0.01004848 0.01865696 0.00200348 0.00675464 0.06101119 0.00915868 0.00216675 
0.02229090 0.02827399 0.00431060 0.00191388 0.00401966 0.00165668 0.00612139 0.00895838 0.06498203 0.00988387 0.01887070 0.00203151 0.00677126 0.06004007 0.00921760 0.00222123 
0.02209623 0.02865728 0.00438038 0.00194784 0.00391395 0.00167421 0.00618590 0.00882837 0.06663152 0.00972056 0.01907778 0.00205874 0.00679349 0.05910561 0.00929843 0.00227715 
0.02188660 0.02906948 0.00445053 0.00198270 0.00381570 0.00169210 0.00624984 0.00869809 0.06824190 0.00955919 0.01927795 0.00208499 0.00682169 0.05821022 0.00940079 0.00233426 
0.02166374 0.02950919 0.00452066 0.00201824 0.00372522 0.00171026 0.00631296 0.00856814 0.06980475 0.00940044 0.01947092 0.00211008 0.00685616 0.05735607 0.00952418 0.00239231 
0.02142946 0.02997489 0.00459039 0.00205426 0.00364277 0.00172855 0.00637501 0.00843910 0.07131179 0.00924493 0.01965646 0.00213386 0.00689718 0.05654511 0.00966802 0.00245103 
0.02118562 0.03046490 0.00465931 0.00209053 0.00356856 0.00174688 0.00643575 0.00831151 0.07275486 0.00909327 0.01983433 0.00215614 0.00694503 0.05577903 0.00983160 0.00251017 
0.02093413 0.03097743 0.00472704 0.00212685 0.00350275 0.00176513 0.00649490 0.00818588 0.07412602 0.00894604 0.02000431 0.00217679 0.00699993 0.05505930 0.01001417 0.00256943 
0.02067692 0.03151055 0.00479319 0.00216302 0.00344547 0.00178320 0.00655221 0.00806271 0.07541757 0.00880380 0.02016620 0.00219565 0.00706208 0.05438710 0.01021484 0.00262853 
0.02041593 0.03206223 0.00485737 0.00219882 0.00339678 0.00180098 0.00660743 0.00794245 0.07662211 0.00866706 0.02031979 0.00221258 0.00713167 0.05376336 0.01043268 0.00268720 
0.02015311 0.03263030 0.00491919 0.00223407 0.00335669 0.00181838 0.00666028 0.00782551 0.07773261 0.00853631 0.02046492 0.00222745 0.00720883 0.05318875 0.01066666 0.00274513 
0.01989041 0.03321254 0.00497831 0.00226858 0.00332518 0.00183530 0.00671051 0.00771227 0.07874242 0.00841201 0.02060142 0.00224016 0.00729367 0.05266365 0.01091566 0.00280205 
0.01962975 0.03380662 0.00503435 0.00230217 0.00330215 0.00185166 0.00675786 0.00760306 0.07964533 0.00829457 0.02072915 0.00225059 0.00738627 0.05218820 0.01117853 0.00285766 
0.01937301 0.03441012 0.00508697 0.00233466 0.00328748 0.00186738 0.00680207 0.00749819 0.08043562 0.00818437 0.02084797 0.00225865 0.00748666 0.05176226 0.01145402 0.00291167 
0.01912203 0.03502060 0.00513586 0.00236589 0.00328100 0.00188238 0.00684290 0.00739792 0.08110810 0.00808173 0.02095777 0.00226427 0.00759486 0.05138545 0.01174084 0.00296381 
0.01887860 0.03563555 0.00518070 0.00239573 0.00328246 0.00189660 0.00688009 0.00730247 0.08165813 0.00798695 0.02105848 0.00226737 0.00771083 0.05105710 0.01203766 0.00301381 
0.01864443 0.03625242 0.00522121 0.00242402 0.00329159 0.00190997 0.00691341 0.00721201 0.08208166 0.00790028 0.02115002 0.00226791 0.00783450 0.05077632 0.01234308 0.00306140 
0.01842116 0.03686866 0.00525712 0.00245065 0.00330808 0.00192245 0.00694264 0.00712669 0.08237527 0.00782191 0.02123234 0.00226585 0.00796579 0.05054199 0.01265568 0.00310633 
0.01821036 0.03748169 0.00528818 0.00247551 0.00333156 0.00193399 0.00696755 0.00704661 0.08253621 0.00775202 0.02130543 0.00226117 0.00810454 0.05035272 0.01297399 0.00314835 
0.01801346 0.03808898 0.00531419 0.00249849 0.00336164 0.00194455 0.00698794 0.00697184 0.08256237 0.00769070 0.02136929 0.00225386 0.00825060 0.05020694 0.01329656 0.00318724 
0.01783183 0.03868797 0.00533494 0.00251952 0.00339787 0.00195411 0.00700362 0.00690241 0.08245236 0.00763804 0.02142396 0.00224393 0.00840376 0.05010287 0.01362187 0.00322278 
0.01766671 0.03927619 0.00535028 0.00253853 0.00343979 0.00196265 0.00701441 0.00683831 0.08220550 0.00759406 0.02146949 0.00223141 0.00856377 0.05003853 0.01394843 0.00325477 
0.01751921 0.03985120 0.00536007 0.00255546 0.00348689 0.00197014 0.00702013 0.00677951 0.08182183 0.00755874 0.02150600 0.00221634 0.00873038 0.05001177 0.01427472 0.00328303 
0.01739035 0.04041063 0.00536420 0.00257027 0.00353864 0.00197660 0.00702066 0.00672594 0.08130210 0.00753203 0.02153360 0.00219878 0.00890329 0.05002028 0.01459927 0.00330740 
0.01728099 0.04095219 0.00536258 0.00258295 0.00359449 0.00198201 0.00701585 0.00667752 0.08064783 0.00751381 0.02155245 0.00217879 0.00908216 0.05006162 0.01492057 0.00332774 
0.01719188 0.04147371 0.00535518 0.00259348 0.00365385 0.00198639 0.00700559 0.00663413 0.07986124 0.00750395 0.02156276 0.00215646 0.00926663 0.05013322 0.01523717 0.00334392 
0.01712362 0.04197311 0.00534197 0.00260187 0.00371615 0.00198976 0.00698980 0.00659562 0.07894529 0.00750228 0.02156477 0.00213190 0.00945633 0.05023240 0.01554763 0.00335585 
0.01707668 0.04244844 0.00532296 0.00260813 0.00378077 0.00199213 0.00696839 0.00656185 0.07790366 0.00750856 0.02155873 0.00210521 0.00965083 0.05035641 0.01585055 0.00336345 
0.01705139 0.04289789 0.00529820 0.00261230 0.00384710 0.00199354 0.00694132 0.00653263 0.07674073 0.00752256 0.02154497 0.00207654 0.00984972 0.05050241 0.01614458 0.00336667 
0.01704795 0.04331979 0.00526774 0.00261443 0.00391452 0.00199401 0.00690855 0.00650777 0.07546156 0.00754398 0.02152383 0.00204601 0.01005252 0.05066754 0.01642840 0.00336546 
0.01706642 0.04371265 0.00523170 0.00261457 0.00398241 0.00199359 0.00687009 0.00648709 0.07407187 0.00757252 0.02149570 0.00201379 0.01025877 0.05084891 0.01670077 0.00335983 
0.01710672 0.04407513 0.00519019 0.00261280 0.00405016 0.00199233 0.00682594 0.00647036 0.07257803 0.00760782 0.02146101 0.00198005 0.01046797 0.05104359 0.01696048 0.00334980 
0.01716864 0.04440607 0.00514337 0.00260919 0.00411716 0.00199026 0.00677615 0.00645738 0.07098700 0.00764953 0.02142023 0.00194495 0.01067961 0.05124871 0.01720642 0.00333540 
0.01725184 0.04470450 0.00509142 0.00260384 0.00418281 0.00198743 0.00672077 0.00644794 0.06930632 0.00769724 0.02137385 0.00190868 0.01089317 0.05146139 0.01743753 0.00331669 
0.01735585 0.04496966 0.00503455 0.00259684 0.00424652 0.00198391 0.00665990 0.00644181 0.06754408 0.00775055 0.02132242 0.00187144 0.01110810 0.05167882 0.01765283 0.00329377 
0.01748010 0.04520095 0.00497298 0.00258832 0.00430774 0.00197974 0.00659363 0.00643878 0.06570882 0.00780903 0.02126650 0.00183343 0.01132387 0.05189824 0.01785142 0.00326674 
0.01762388 0.04539801 0.00490696 0.00257838 0.00436591 0.00197499 0.00652210 0.00643865 0.06380957 0.00787222 0.02120672 0.00179486 0.01153992 0.05211700 0.01803249 0.00323573 
0.01778638 0.04556066 0.00483677 0.00256715 0.00442054 0.00196970 0.00644547 0.00644122 0.06185576 0.00793968 0.02114369 0.00175594 0.01175568 0.05233251 0.01819532 0.00320091 
0.01796670 0.04568894 0.00476270 0.00255477 0.00447111 0.00196395 0.00636392 0.00644629 0.05985715 0.00801094 0.02107810 0.00171689 0.01197060 0.05254232 0.01833927 0.00316244 
0.01816383 0.04578309 0.00468505 0.00254136 0.00451719 0.00195778 0.00627765 0.00645368 0.05782382 0.00808551 0.02101062 0.00167793 0.01218411 0.05274409 0.01846380 0.00312052 
0.01837667 0.04584355 0.00460415 0.00252706 0.00455835 0.00195125 0.00618687 0.00646323 0.05576611 0.00816293 0.02094197 0.00163928 0.01239564 0.05293563 0.01856848 0.00307537 
0.01860406 0.04587097 0.00452033 0.00251203 0.00459420 0.00194442 0.00609184 0.00647478 0.05369451 0.00824271 0.02087288 0.00160116 0.01260464 0.05311490 0.01865294 0.00302720 
0.01884474 0.04586620 0.00443395 0.00249639 0.00462440 0.00193735 0.00599282 0.00648819 0.05161970 0.00832437 0.02080410 0.00156380 0.01281054 0.05328002 0.01871695 0.00297628 
0.01909742 0.04583027 0.00434537 0.00248030 0.00464864 0.00193009 0.00589009 0.00650334 0.04955240 0.00840743 0.02073636 0.00152741 0.01301279 0.05342926 0.01876036 0.00292285 
0.01936074 0.04576440 0.00425495 0.00246390 0.00466667 0.00192269 0.00578396 0.00652012 0.04750337 0.00849143 0.02067045 0.00149220 0.01321086 0.05356109 0.01878311 0.00286720 
0.01963329 0.04566998 0.00416306 0.00244734 0.00467826 0.00191519 0.00567476 0.00653844 0.04548332 0.00857589 0.02060710 0.00145839 0.01340421 0.05367415 0.01878524 0.00280961 
0.01991364 0.04554859 0.00407009 0.00243075 0.00468325 0.00190764 0.00556282 0.00655822 0.04350287 0.00866037 0.02054708 0.00142617 0.01359233 0.05376729 0.01876690 0.00275037 
0.02020031 0.04540193 0.00397640 0.00241427 0.00468150 0.00190009 0.00544850 0.00657941 0.04157248 0.00874441 0.02049113 0.00139575 0.01377470 0.05383952 0.01872833 0.00268979 
0.02049183 0.04523186 0.00388239 0.00239805 0.00467294 0.00189256 0.00533216 0.00660197 0.03970239 0.00882759 0.02043997 0.00136731 0.01395084 0.05389006 0.01866986 0.00262817 
0.02078670 0.04504038 0.00378842 0.00238221 0.00465754 0.00188510 0.00521420 0.00662587 0.03790257 0.00890949 0.02039433 0.00134102 0.01412029 0.05391834 0.01859190 0.00256583 
0.02108342 0.04482958 0.00369486 0.00236688 0.00463530 0.00187774 0.00509501 0.00665109 0.03618267 0.00898971 0.02035486 0.00131705 0.01428259 0.05392396 0.01849496 0.00250308 
0.02138051 0.04460168 0.00360210 0.00235218 0.00460630 0.00187051 0.00497499 0.00667765 0.03455196 0.00906786 0.02032224 0.00129556 0.01443731 0.05390673 0.01837965 0.00244024 
0.02167650 0.04435895 0.00351047 0.00233824 0.00457062 0.00186342 0.00485456 0.00670555 0.03301925 0.00914358 0.02029707 0.00127667 0.01458404 0.05386665 0.01824662 0.00237763 
0.02196994 0.04410375 0.00342033 0.00232515 0.00452843 0.00185650 0.00473415 0.00673483 0.03159290 0.00921651 0.02027992 0.00126053 0.01472241 0.05380390 0.01809664 0.00231555 
0.02225942 0.04383848 0.00333203 0.00231302 0.00447991 0.00184977 0.00461417 0.00676551 0.03028072 0.00928634 0.02027133 0.00124724 0.01485205 0.05371885 0.01793051 0.00225432 
0.02254355 0.04356559 0.00324589 0.00230194 0.00442530 0.00184323 0.00449508 0.00679765 0.02908994 0.00935274 0.02027176 0.00123690 0.01497264 0.05361205 0.01774914 0.00219422 
0.02282100 0.04328751 0.00316221 0.00229202 0.00436487 0.00183690 0.00437730 0.00683128 0.02802718 0.00941544 0.02028163 0.00122958 0.01508387 0.05348423 0.01755348 0.00213556 
0.02309048 0.04300670 0.00308130 0.00228331 0.00429893 0.00183079 0.00426127 0.00686645 0.02709841 0.00947416 0.02030130 0.00122535 0.01518548 0.05333627 0.01734453 0.00207862 
0.02335077 0.04272557 0.00300345 0.00227591 0.00422783 0.00182490 0.00414743 0.00690324 0.02630891 0.00952866 0.02033107 0.00122425 0.01527721 0.05316922 0.01712335 0.00202366 
0.02360069 0.04244651 0.00292891 0.00226988 0.00415194 0.00181924 0.00403622 0.00694167 0.02566324 0.00957870 0.02037115 0.00122632 0.01535886 0.05298428 0.01689107 0.00197095 
0.02383915 0.04217183 0.00285793 0.00226526 0.00407167 0.00181379 0.00392806 0.00698182 0.02516520 0.00962410 0.02042170 0.00123156 0.01543024 0.05278279 0.01664883 0.00192072 
0.02406509 0.04190379 0.00279074 0.00226212 0.00398747 0.00180858 0.00382339 0.00702371 0.02481785 0.00966464 0.02048281 0.00123997 0.01549122 0.05256621 0.01639782 0.00187320 
0.02427757 0.04164453 0.00272755 0.00226049 0.00389978 0.00180358 0.00372262 0.00706740 0.02462343 0.00970018 0.02055447 0.00125152 0.01554167 0.05233614 0.01613926 0.00182860 
0.02447568 0.04139611 0.00266854 0.00226041 0.00380909 0.00179880 0.00362617 0.00711291 0.02458342 0.00973056 0.02063661 0.00126617 0.01558152 0.05209428 0.01587440 0.00178712 
0.02465863 0.04116042 0.00261389 0.00226190 0.00371590 0.00179423 0.00353444 0.00716026 0.02469847 0.00975566 0.02072908 0.00128386 0.01561072 0.05184246 0.01560449 0.00174891 
0.02482568 0.04093927 0.00256373 0.00226499 0.00362072 0.00178987 0.00344781 0.00720947 0.02496841 0.00977536 0.02083164 0.00130451 0.01562926 0.05158255 0.01533082 0.00171415 
0.02497618 0.04073426 0.00251821 0.00226969 0.00352408 0.00178571 0.00336666 0.00726051 0.02539229 0.00978956 0.02094399 0.00132803 0.01563718 0.05131657 0.01505466 0.00168294 
0.02510955 0.04054686 0.00247741 0.00227600 0.00342651 0.00178176 0.00329136 0.00731337 0.02596832 0.00979820 0.02106572 0.00135430 0.01563452 0.05104655 0.01477732 0.00165542 
0.02522532 0.04037834 0.00244143 0.00228393 0.00332856 0.00177802 0.00322225 0.00736802 0.02669394 0.00980121 0.02119638 0.00138321 0.01562138 0.05077463 0.01450007 0.00163166 
0.02532306 0.04022981 0.00241033 0.00229347 0.00323075 0.00177447 0.00315965 0.00742438 0.02756578 0.00979855 0.02133541 0.00141461 0.01559790 0.05050297 0.01422419 0.00161173 
0.02540247 0.04010217 0.00238415 0.00230460 0.00313363 0.00177113 0.00310388 0.00748238 0.02857974 0.00979018 0.02148220 0.00144835 0.01556424 0.05023379 0.01395096 0.00159567 
0.02546328 0.03999611 0.00236291 0.00231732 0.00303773 0.00176799 0.00305522 0.00754193 0.02973095 0.00977609 0.02163606 0.00148426 0.01552060 0.04996934 0.01368161 0.00158351 
0.02550534 0.03991212 0.00234663 0.00233160 0.00294357 0.00176507 0.00301394 0.00760290 0.03101383 0.00975627 0.02179621 0.00152216 0.01546721 0.04971189 0.01341738 0.00157524 
0.02552854 0.03985049 0.00233527 0.00234741 0.00285168 0.00176237 0.00298028 0.00766515 0.03242214 0.00973073 0.02196185 0.00156186 0.01540434 0.04946372 0.01315946 0.00157085 
0.02553289 0.03981128 0.00232882 0.00236472 0.00276254 0.00175991 0.00295448 0.00772851 0.03394895 0.00969949 0.02213209 0.00160317 0.01533230 0.04922714 0.01290904 0.00157029 
0.02551842 0.03979434 0.00232721 0.00238351 0.00267665 0.00175769 0.00293671 0.00779280 0.03558676 0.00966257 0.02230599 0.00164586 0.01525141 0.04900443 0.01266724 0.00157348 
0.02548526 0.03979933 0.00233037 0.00240374 0.00259446 0.00175575 0.00292716 0.00785781 0.03732748 0.00962002 0.02248256 0.00168973 0.01516204 0.04879788 0.01243517 0.00158036 
0.02543361 0.03982567 0.00233824 0.00242536 0.00251642 0.00175411 0.00292597 0.00792332 0.03916249 0.00957188 0.02266078 0.00173456 0.01506457 0.04860973 0.01221389 0.00159081 
0.02536373 0.03987259 0.00235069 0.00244834 0.00244295 0.00175278 0.00293325 0.00798906 0.04108270 0.00951822 0.02283957 0.00178012 0.01495944 0.04844223 0.01200442 0.00160470 
0.02527592 0.03993914 0.00236762 0.00247263 0.00237443 0.00175180 0.00294911 0.00805478 0.04307859 0.00945909 0.02301784 0.00182617 0.01484709 0.04829759 0.01180772 0.00162190 
0.02517055 0.04002414 0.00238891 0.00249818 0.00231123 0.00175120 0.00297360 0.00812019 0.04514028 0.00939458 0.02319446 0.00187249 0.01472799 0.04817796 0.01162473 0.00164225 
0.02504806 0.04012627 0.00241440 0.00252495 0.00225367 0.00175103 0.00300675 0.00818498 0.04725755 0.00932477 0.02336829 0.00191883 0.01460264 0.04808546 0.01145630 0.00166557 
0.02490892 0.04024401 0.00244396 0.00255290 0.00220207 0.00175132 0.00304858 0.00824884 0.04941992 0.00924975 0.02353817 0.00196498 0.01447156 0.04802215 0.01130326 0.00169167 
0.02475365 0.04037570 0.00247741 0.00258196 0.00215669 0.00175211 0.00309907 0.00831142 0.05161670 0.00916962 0.02370296 0.00201069 0.01433528 0.04799004 0.01116638 0.00172036 
0.02458281 0.04051953 0.00251460 0.00261209 0.00211777 0.00175346 0.00315816 0.00837240 0.05383705 0.00908448 0.02386149 0.00205575 0.01419437 0.04799107 0.01104635 0.00175141 
0.02439700 0.04067357 0.00255533 0.00264324 0.00208550 0.00175541 0.00322578 0.00843141 0.05607004 0.00899444 0.02401263 0.00209992 0.01404941 0.04802710 0.01094385 0.00178461 
0.02419686 0.04083575 0.00259942 0.00267535 0.00206006 0.00175801 0.00330181 0.00848810 0.05830470 0.00889963 0.02415525 0.00214299 0.01390096 0.04809995 0.01085945 0.00181972 
0.02398305 0.04100393 0.00264668 0.00270837 0.00204156 0.00176133 0.00338613 0.00854211 0.06053009 0.00880017 0.02428825 0.00218476 0.01374965 0.04821130 0.01079369 0.00185651 
0.02375628 0.04117587 0.00269691 0.00274225 0.00203012 0.00176542 0.00347858 0.00859307 0.06273534 0.00869621 0.02441058 0.00222501 0.01359606 0.04836281 0.01074706 0.00189472 
0.02351725 0.04134928 0.00274990 0.00277693 0.00202579 0.00177033 0.00357897 0.00864062 0.06490973 0.00858787 0.02452119 0.00226356 0.01344082 0.04855600 0.01071996 0.00193411 
0.02326670 0.04152183 0.00280545 0.00281236 0.00202859 0.00177614 0.00368707 0.00868440 0.06704273 0.00847532 0.02461913 0.00230022 0.01328455 0.04879232 0.01071275 0.00197443 
0.02300539 0.04169113 0.00286335 0.00284848 0.00203853 0.00178288 0.00380266 0.00872405 0.06912405 0.00835870 0.02470344 0.00233483 0.01312786 0.04907310 0.01072574 0.00201542 
0.02273408 0.04185482 0.00292338 0.00288524 0.00205555 0.00179064 0.00392548 0.00875925 0.07114373 0.00823820 0.02477328 0.00236723 0.01297138 0.04939959 0.01075915 0.00205684 
0.02245355 0.04201054 0.00298533 0.00292257 0.00207959 0.00179946 0.00405522 0.00878965 0.07309211 0.00811398 0.02482782 0.00239727 0.01281571 0.04977291 0.01081317 0.00209842 
0.02216459 0.04215595 0.00304899 0.00296043 0.00211054 0.00180941 0.00419159 0.00881495 0.07495999 0.00798622 0.02486634 0.00242481 0.01266147 0.05019407 0.01088792 0.00213994 
0.02186799 0.04228877 0.00311414 0.00299874 0.00214827 0.00182054 0.00433426 0.00883485 0.07673856 0.00785512 0.02488817 0.00244975 0.01250926 0.05066396 0.01098345 0.00218114 
0.02156452 0.04240679 0.00318056 0.00303745 0.00219262 0.00183291 0.00448287 0.00884908 0.07841954 0.00772089 0.02489273 0.00247197 0.01235965 0.05118335 0.01109977 0.00222179 
0.02125499 0.04250785 0.00324804 0.00307650 0.00224340 0.00184657 0.00463706 0.00885739 0.07999515 0.00758373 0.02487952 0.00249140 0.01221324 0.05175287 0.01123683 0.00226166 
0.02094016 0.04258993 0.00331638 0.00311582 0.00230041 0.00186156 0.00479645 0.00885956 0.08145818 0.00744386 0.02484812 0.00250795 0.01207056 0.05237302 0.01139450 0.00230055 
0.02062083 0.04265112 0.00338535 0.00315536 0.00236341 0.00187794 0.00496063 0.00885538 0.08280203 0.00730152 0.02479821 0.00252158 0.01193216 0.05304417 0.01157262 0.00233824 
0.02029776 0.04268961 0.00345475 0.00319504 0.00243214 0.00189573 0.00512920 0.00884471 0.08402071 0.00715695 0.02472955 0.00253223 0.01179855 0.05376654 0.01177096 0.00237453 
0.01997171 0.04270377 0.00352438 0.00323479 0.00250635 0.00191499 0.00530173 0.00882740 0.08510888 0.00701039 0.02464200 0.00253990 0.01167022 0.05454018 0.01198925 0.00240924 
0.01964342 0.04269211 0.00359403 0.00327455 0.00258573 0.00193572 0.00547778 0.00880337 0.08606190 0.00686212 0.02453551 0.00254456 0.01154763 0.05536502 0.01222714 0.00244222 
0.01931363 0.04265331 0.00366351 0.00331424 0.00267000 0.00195797 0.00565691 0.00877256 0.08687578 0.00671240 0.02441013 0.00254623 0.01143123 0.05624081 0.01248425 0.00247329 
0.01898306 0.04258622 0.00373262 0.00335379 0.00275884 0.00198173 0.00583868 0.00873494 0.08754728 0.00656151 0.02426600 0.00254493 0.01132141 0.05716715 0.01276015 0.00250232 
0.01865239 0.04248989 0.00380118 0.00339313 0.00285193 0.00200703 0.00602264 0.00869054 0.08807384 0.00640975 0.02410335 0.00254069 0.01121854 0.05814346 0.01305432 0.00252919 
0.01832233 0.04236357 0.00386899 0.00343217 0.00294896 0.00203386 0.00620832 0.00863942 0.08845364 0.00625742 0.02392252 0.00253357 0.01112297 0.05916901 0.01336624 0.00255378 
0.01799352 0.04220669 0.00393587 0.00347084 0.00304959 0.00206222 0.00639527 0.00858168 0.08868558 0.00610482 0.02372393 0.00252363 0.01103499 0.06024287 0.01369530 0.00257602 
0.01766662 0.04201888 0.00400165 0.00350906 0.00315349 0.00209209 0.00658303 0.00851745 0.08876927 0.00595229 0.02350809 0.00251096 0.01095487 0.06136396 0.01404087 0.00259581 
0.01734224 0.04180001 0.00406616 0.00354675 0.00326034 0.00212344 0.00677117 0.00844693 0.08870506 0.00580014 0.02327560 0.00249564 0.01088284 0.06253100 0.01440225 0.00261311 
0.01702099 0.04155012 0.00412923 0.00358381 0.00336980 0.00215625 0.00695922 0.00837034 0.08849400 0.00564871 0.02302715 0.00247777 0.01081908 0.06374254 0.01477870 0.00262788 
0.01670344 0.04126948 0.00419069 0.00362016 0.00348157 0.00219046 0.00714675 0.00828794 0.08813781 0.00549836 0.02276350 0.00245749 0.01076375 0.06499695 0.01516943 0.00264008 
0.01639016 0.04095854 0.00425040 0.00365573 0.00359531 0.00222604 0.00733333 0.00820005 0.08763891 0.00534942 0.02248550 0.00243490 0.01071695 0.06629241 0.01557362 0.00264972 
0.01608168 0.04061797 0.00430820 0.00369041 0.00371074 0.00226292 0.00751853 0.00810699 0.08700038 0.00520226 0.02219406 0.00241015 0.01067876 0.06762692 0.01599040 0.00265680 
0.01577851 0.04024864 0.00436394 0.00372413 0.00382756 0.00230103 0.00770196 0.00800917 0.08622592 0.00505723 0.02189018 0.00238339 0.01064919 0.06899830 0.01641884 0.00266134 
0.01548114 0.03985158 0.00441749 0.00375679 0.00394549 0.00234028 0.00788321 0.00790699 0.08531983 0.00491470 0.02157489 0.00235475 0.01062823 0.07040419 0.01685800 0.00266339 
0.01519005 0.03942802 0.00446872 0.00378830 0.00406426 0.00238061 0.00806191 0.00780091 0.08428701 0.00477504 0.02124931 0.00232442 0.01061584 0.07184205 0.01730688 0.00266300 
0.01490568 0.03897937 0.00451750 0.00381859 0.00418363 0.00242189 0.00823769 0.00769141 0.08313288 0.00463862 0.02091460 0.00229254 0.01061192 0.07330918 0.01776444 0.00266024 
0.01462846 0.03850717 0.00456371 0.00384756 0.00430335 0.00246404 0.00841021 0.00757900 0.08186339 0.00450580 0.02057197 0.00225929 0.01061633 0.07480268 0.01822962 0.00265520 
0.01435878 0.03801314 0.00460724 0.00387514 0.00442321 0.00250694 0.00857915 0.00746424 0.08048495 0.00437695 0.02022266 0.00222484 0.01062892 0.07631952 0.01870133 0.00264795 
0.01409704 0.03749913 0.00464799 0.00390123 0.00454302 0.00255046 0.00874419 0.00734768 0.07900441 0.00425244 0.01986797 0.00218938 0.01064948 0.07785650 0.01917843 0.00263862 
0.01384360 0.03696709 0.00468585 0.00392576 0.00466259 0.00259447 0.00890506 0.00722991 0.07742902 0.00413262 0.01950921 0.00215308 0.01067776 0.07941028 0.01965976 0.00262732 
0.01359880 0.03641910 0.00472074 0.00394866 0.00478177 0.00263884 0.00906149 0.00711153 0.07576636 0.00401785 0.01914771 0.00211611 0.01071350 0.08097737 0.02014415 0.00261416 
0.01336296 0.03585734 0.00475257 0.00396986 0.00490043 0.00268343 0.00921325 0.00699318 0.07402433 0.00390848 0.01878482 0.00207867 0.01075638 0.08255417 0.02063039 0.00259929 
0.01313639 0.03528406 0.00478127 0.00398929 0.00501844 0.00272809 0.00936011 0.00687547 0.07221109 0.00380484 0.01842192 0.00204092 0.01080608 0.08413694 0.02111726 0.00258284 
0.01291938 0.03470157 0.00480678 0.00400688 0.00513570 0.00277266 0.00950190 0.00675905 0.07033502 0.00370727 0.01806037 0.00200305 0.01086223 0.08572186 0.02160351 0.00256495 
0.01271219 0.03411223 0.00482905 0.00402259 0.00525215 0.00281698 0.00963844 0.00664457 0.06840467 0.00361607 0.01770153 0.00196522 0.01092445 0.08730501 0.02208791 0.00254578 
0.01251507 0.03351845 0.00484801 0.00403636 0.00536772 0.00286090 0.00976959 0.00653265 0.06642871 0.00353155 0.01734675 0.00192762 0.01099231 0.08888239 0.02256919 0.00252548 
0.01232827 0.03292262 0.00486364 0.00404816 0.00548237 0.00290424 0.00989524 0.00642396 0.06441589 0.00345399 0.01699738 0.00189040 0.01106540 0.09044995 0.02304609 0.00250419 
0.01215200 0.03232717 0.00487590 0.00405794 0.00559610 0.00294684 0.01001529 0.00631911 0.06237499 0.00338366 0.01665473 0.00185372 0.01114326 0.09200360 0.02351735 0.00248209 
0.01198646 0.03173449 0.00488478 0.00406569 0.00570890 0.00298852 0.01012968 0.00621874 0.06031478 0.00332081 0.01632010 0.00181775 0.01122542 0.09353922 0.02398171 0.00245930 
0.01183185 0.03114695 0.00489027 0.00407138 0.00582078 0.00302912 0.01023836 0.00612344 0.05824397 0.00326567 0.01599473 0.00178262 0.01131140 0.09505268 0.02443793 0.00243600 
0.01168834 0.03056688 0.00489238 0.00407500 0.00593179 0.00306846 0.01034131 0.00603381 0.05617117 0.00321844 0.01567985 0.00174849 0.01140071 0.09653987 0.02488476 0.00241233 
0.01155609 0.02999654 0.00489111 0.00407656 0.00604198 0.00310639 0.01043854 0.00595041 0.05410483 0.00317931 0.01537664 0.00171548 0.01149285 0.09799671 0.02532101 0.00238843 
0.01143524 0.02943812 0.00488649 0.00407606 0.00615140 0.00314272 0.01053007 0.00587379 0.05205324 0.00314844 0.01508621 0.00168371 0.01158731 0.09941917 0.02574546 0.00236444 
0.01132593 0.02889374 0.00487855 0.00407352 0.00626014 0.00317729 0.01061595 0.00580445 0.05002445 0.00312595 0.01480964 0.00165331 0.01168358 0.10080329 0.02615697 0.00234050 
0.01122827 0.02836540 0.00486735 0.00406897 0.00636829 0.00320995 0.01069624 0.00574287 0.04802624 0.00311196 0.01454795 0.00162438 0.01178115 0.10214520 0.02655440 0.00231672 
0.01114238 0.02785501 0.00485293 0.00406245 0.00647594 0.00324054 0.01077104 0.00568951 0.04606611 0.00310653 0.01430207 0.00159703 0.01187952 0.10344116 0.02693666 0.00229324 
0.01106834 0.02736437 0.00483537 0.00405401 0.00658322 0.00326890 0.01084044 0.00564475 0.04415122 0.00310973 0.01407291 0.00157133 0.01197817 0.10468753 0.02730269 0.00227015 
0.01100624 0.02689514 0.00481474 0.00404371 0.00669024 0.00329488 0.01090457 0.00560897 0.04228836 0.00312155 0.01386126 0.00154736 0.01207660 0.10588085 0.02765150 0.00224756 
0.01095614 0.02644885 0.00479113 0.00403161 0.00679712 0.00331836 0.01096356 0.00558249 0.04048395 0.00314201 0.01366788 0.00152520 0.01217432 0.10701782 0.02798215 0.00222556 
0.01091809 0.02602690 0.00476465 0.00401780 0.00690400 0.00333920 0.01101757 0.00556557 0.03874396 0.00317103 0.01349342 0.00150490 0.01227086 0.10809533 0.02829373 0.00220423 
0.01089213 0.02563053 0.00473541 0.00400235 0.00701101 0.00335728 0.01106675 0.00555844 0.03707396 0.00320856 0.01333847 0.00148651 0.01236573 0.10911046 0.02858543 0.00218363 
0.01087830 0.02526084 0.00470353 0.00398537 0.00711830 0.00337248 0.01111129 0.00556128 0.03547904 0.00325448 0.01320354 0.00147006 0.01245849 0.11006054 0.02885647 0.00216382 
0.01087659 0.02491878 0.00466914 0.00396697 0.00722600 0.00338470 0.01115137 0.00557421 0.03396382 0.00330865 0.01308904 0.00145559 0.01254868 0.11094311 0.02910618 0.00214485 
0.01088700 0.02460515 0.00463239 0.00394725 0.00733426 0.00339384 0.01118718 0.00559731 0.03253243 0.00337090 0.01299532 0.00144311 0.01263589 0.11175599 0.02933391 0.00212676 
0.01090953 0.02432060 0.00459342 0.00392633 0.00744322 0.00339983 0.01121891 0.00563058 0.03118850 0.00344102 0.01292264 0.00143262 0.01271971 0.11249724 0.02953915 0.00210956 
0.01094412 0.02406560 0.00455239 0.00390435 0.00755301 0.00340259 0.01124677 0.00567400 0.02993514 0.00351877 0.01287114 0.00142412 0.01279976 0.11316520 0.02972142 0.00209327 
0.01099074 0.02384051 0.00450949 0.00388143 0.00766379 0.00340207 0.01127097 0.00572746 0.02877497 0.00360390 0.01284092 0.00141759 0.01287565 0.11375852 0.02988034 0.00207788 
0.01104931 0.02364550 0.00446487 0.00385771 0.00777569 0.00339820 0.01129172 0.00579083 0.02771009 0.00369610 0.01283198 0.00141303 0.01294706 0.11427611 0.03001563 0.00206340 
0.01111976 0.02348064 0.00441873 0.00383334 0.00788883 0.00339098 0.01130921 0.00586391 0.02674207 0.00379504 0.01284421 0.00141038 0.01301366 0.11471720 0.03012708 0.00204979 
0.01120198 0.02334582 0.00437126 0.00380846 0.00800336 0.00338036 0.01132366 0.00594644 0.02587198 0.00390037 0.01287744 0.00140962 0.01307515 0.11508131 0.03021456 0.00203702 
0.01129586 0.02324083 0.00432265 0.00378322 0.00811938 0.00336634 0.01133526 0.00603812 0.02510040 0.00401171 0.01293141 0.00141069 0.01313125 0.11536828 0.03027804 0.00202506 
0.01140125 0.02316530 0.00427311 0.00375778 0.00823703 0.00334892 0.01134421 0.00613858 0.02442741 0.00412864 0.01300577 0.00141353 0.01318170 0.11557824 0.03031760 0.00201385 
0.01151799 0.02311878 0.00422283 0.00373227 0.00835642 0.00332813 0.01135072 0.00624743 0.02385261 0.00425073 0.01310011 0.00141808 0.01322629 0.11571163 0.03033337 0.00200335 
0.01164592 0.02310069 0.00417204 0.00370686 0.00847766 0.00330400 0.01135495 0.00636421 0.02337514 0.00437753 0.01321390 0.00142426 0.01326480 0.11576919 0.03032560 0.00199347 
0.01178484 0.02311033 0.00412093 0.00368169 0.00860084 0.00327656 0.01135708 0.00648842 0.02299369 0.00450855 0.01334658 0.00143201 0.01329705 0.11575196 0.03029461 0.00198416 
0.01193453 0.02314693 0.00406973 0.00365691 0.00872607 0.00324588 0.01135729 0.00661951 0.02270652 0.00464329 0.01349749 0.00144122 0.01332289 0.11566127 0.03024082 0.00197532 
0.01209474 0.02320965 0.00401864 0.00363266 0.00885343 0.00321203 0.01135571 0.00675689 0.02251151 0.00478125 0.01366589 0.00145181 0.01334218 0.11549870 0.03016472 0.00196689 
0.01226523 0.02329754 0.00396789 0.00360908 0.00898301 0.00317509 0.01135251 0.00689996 0.02240614 0.00492188 0.01385099 0.00146368 0.01335482 0.11526613 0.03006688 0.00195878 
0.01244571 0.02340962 0.00391767 0.00358630 0.00911489 0.00313517 0.01134781 0.00704804 0.02238753 0.00506465 0.01405194 0.00147673 0.01336072 0.11496567 0.02994797 0.00195088 
0.01263587 0.02354484 0.00386821 0.00356445 0.00924915 0.00309236 0.01134173 0.00720045 0.02245249 0.00520899 0.01426781 0.00149086 0.01335981 0.11459967 0.02980872 0.00194313 
0.01283541 0.02370211 0.00381971 0.00354365 0.00938584 0.00304679 0.01133437 0.00735646 0.02259753 0.00535435 0.01449762 0.00150594 0.01335205 0.11417072 0.02964992 0.00193541 
0.01304396 0.02388032 0.00377238 0.00352401 0.00952503 0.00299859 0.01132583 0.00751535 0.02281888 0.00550013 0.01474033 0.00152188 0.01333743 0.11368159 0.02947245 0.00192765 
0.01326116 0.02407833 0.00372641 0.00350563 0.00966678 0.00294791 0.01131618 0.00767633 0.02311255 0.00564578 0.01499488 0.00153855 0.01331593 0.11313526 0.02927724 0.00191974 
0.01348664 0.02429499 0.00368200 0.00348861 0.00981113 0.00289491 0.01130549 0.00783864 0.02347433 0.00579071 0.01526013 0.00155583 0.01328760 0.11253485 0.02906527 0.00191160 
0.01371997 0.02452914 0.00363933 0.00347302 0.00995813 0.00283973 0.01129381 0.00800147 0.02389983 0.00593434 0.01553492 0.00157361 0.01325246 0.11188364 0.02883757 0.00190315 
0.01396073 0.02477964 0.00359859 0.00345893 0.01010782 0.00278257 0.01128116 0.00816403 0.02438455 0.00607609 0.01581805 0.00159175 0.01321058 0.11118503 0.02859524 0.00189430 
0.01420847 0.02504536 0.00355995 0.00344641 0.01026024 0.00272361 0.01126758 0.00832550 0.02492385 0.00621539 0.01610829 0.00161016 0.01316203 0.11044253 0.02833940 0.00188498 
0.01446273 0.02532520 0.00352356 0.00343550 0.01041542 0.00266302 0.01125306 0.00848507 0.02551301 0.00635169 0.01640440 0.00162869 0.01310692 0.10965971 0.02807119 0.00187511 
0.01472302 0.02561809 0.00348960 0.00342624 0.01057337 0.00260102 0.01123760 0.00864195 0.02614729 0.00648443 0.01670509 0.00164723 0.01304536 0.10884020 0.02779180 0.00186462 
0.01498885 0.02592298 0.00345819 0.00341865 0.01073412 0.00253780 0.01122119 0.00879533 0.02682190 0.00661306 0.01700908 0.00166565 0.01297748 0.10798769 0.02750244 0.00185346 
0.01525969 0.02623888 0.00342947 0.00341274 0.01089767 0.00247358 0.01120379 0.00894442 0.02753210 0.00673707 0.01731509 0.00168385 0.01290343 0.10710584 0.02720432 0.00184159 
0.01553501 0.02656486 0.00340357 0.00340850 0.01106405 0.00240857 0.01118535 0.00908846 0.02827316 0.00685595 0.01762181 0.00170171 0.01282338 0.10619834 0.02689866 0.00182895 
0.01581428 0.02690003 0.00338060 0.00340592 0.01123323 0.00234299 0.01116583 0.00922668 0.02904045 0.00696921 0.01792796 0.00171910 0.01273749 0.10526881 0.02658670 0.00181551 
0.01609694 0.02724354 0.00336065 0.00340496 0.01140523 0.00227707 0.01114516 0.00935837 0.02982942 0.00707638 0.01823225 0.00173592 0.01264597 0.10432084 0.02626964 0.00180125 
0.01638242 0.02759462 0.00334382 0.00340560 0.01158001 0.00221101 0.01112327 0.00948282 0.03063565 0.00717703 0.01853340 0.00175206 0.01254903 0.10335794 0.02594871 0.00178616 
0.01667015 0.02795257 0.00333017 0.00340777 0.01175757 0.00214506 0.01110007 0.00959935 0.03145485 0.00727074 0.01883017 0.00176742 0.01244688 0.10238354 0.02562509 0.00177023 
0.01695956 0.02831672 0.00331977 0.00341141 0.01193785 0.00207944 0.01107549 0.00970735 0.03228293 0.00735713 0.01912134 0.00178190 0.01233976 0.10140095 0.02529994 0.00175347 
0.01725006 0.02868649 0.00331266 0.00341645 0.01212083 0.00201437 0.01104942 0.00980619 0.03311596 0.00743583 0.01940571 0.00179540 0.01222792 0.10041335 0.02497442 0.00173590 
0.01754107 0.02906135 0.00330887 0.00342280 0.01230645 0.00195007 0.01102178 0.00989533 0.03395023 0.00750654 0.01968212 0.00180784 0.01211163 0.09942378 0.02464961 0.00171754 
0.01783201 0.02944081 0.00330844 0.00343035 0.01249463 0.00188677 0.01099245 0.00997426 0.03478223 0.00756894 0.01994946 0.00181912 0.01199116 0.09843515 0.02432659 0.00169843 
0.01812229 0.02982448 0.00331136 0.00343902 0.01268531 0.00182468 0.01096134 0.01004250 0.03560870 0.00762280 0.02020666 0.00182918 0.01186678 0.09745018 0.02400638 0.00167862 
0.01841135 0.03021197 0.00331763 0.00344867 0.01287837 0.00176401 0.01092834 0.01009964 0.03642663 0.00766788 0.02045269 0.00183794 0.01173882 0.09647142 0.02368995 0.00165817 
0.01869860 0.03060299 0.00332723 0.00345920 0.01307372 0.00170498 0.01089334 0.01014530 0.03723325 0.00770402 0.02068661 0.00184533 0.01160757 0.09550125 0.02337823 0.00163715 
0.01898349 0.03099726 0.00334012 0.00347047 0.01327122 0.00164778 0.01085624 0.01017917 0.03802606 0.00773106 0.02090751 0.00185130 0.01147336 0.09454185 0.02307207 0.00161563 
0.01926546 0.03139454 0.00335627 0.00348236 0.01347073 0.00159260 0.01081692 0.01020099 0.03880281 0.00774891 0.02111455 0.00185579 0.01133653 0.09359521 0.02277228 0.00159370 
0.01954398 0.03179465 0.00337561 0.00349472 0.01367207 0.00153963 0.01077530 0.01021056 0.03956152 0.00775750 0.02130698 0.00185877 0.01119742 0.09266313 0.02247961 0.00157147 
0.01981854 0.03219742 0.00339807 0.00350741 0.01387506 0.00148905 0.01073128 0.01020772 0.04030050 0.00775682 0.02148410 0.00186018 0.01105639 0.09174721 0.02219475 0.00154903 
0.02008861 0.03260271 0.00342356 0.00352029 0.01407949 0.00144102 0.01068475 0.01019239 0.04101829 0.00774688 0.02164531 0.00186001 0.01091380 0.09084886 0.02191830 0.00152649 
0.02035372 0.03301037 0.00345200 0.00353323 0.01428512 0.00139570 0.01063563 0.01016454 0.04171371 0.00772775 0.02179006 0.00185823 0.01077005 0.08996929 0.02165082 0.00150397 
0.02061341 0.03342031 0.00348327 0.00354606 0.01449170 0.00135323 0.01058384 0.01012419 0.04238583 0.00769953 0.02191792 0.00185483 0.01062551 0.08910953 0.02139281 0.00148161 
0.02086723 0.03383241 0.00351725 0.00355866 0.01469893 0.00131374 0.01052930 0.01007143 0.04303397 0.00766238 0.02202851 0.00184980 0.01048059 0.08827043 0.02114466 0.00145951 
0.02111477 0.03424654 0.00355383 0.00357087 0.01490651 0.00127735 0.01047194 0.01000641 0.04365765 0.00761647 0.02212158 0.00184314 0.01033569 0.08745267 0.02090675 0.00143783 
0.02135563 0.03466260 0.00359286 0.00358257 0.01511409 0.00124417 0.01041171 0.00992933 0.04425666 0.00756205 0.02219694 0.00183487 0.01019124 0.08665676 0.02067936 0.00141670 
0.02158947 0.03508043 0.00363419 0.00359361 0.01532131 0.00121428 0.01034854 0.00984046 0.04483098 0.00749939 0.02225449 0.00182500 0.01004764 0.08588306 0.02046270 0.00139625 
0.02181595 0.03549988 0.00367767 0.00360388 0.01552777 0.00118777 0.01028240 0.00974011 0.04538078 0.00742879 0.02229425 0.00181356 0.00990535 0.08513180 0.02025695 0.00137663 
0.02203476 0.03592078 0.00372313 0.00361324 0.01573305 0.00116469 0.01021326 0.00962865 0.04590640 0.00735062 0.02231632 0.00180059 0.00976478 0.08440306 0.02006219 0.00135799 
0.02224563 0.03634292 0.00377040 0.00362158 0.01593669 0.00114510 0.01014108 0.00950652 0.04640837 0.00726526 0.02232089 0.00178612 0.00962639 0.08369683 0.01987848 0.00134045 
0.02244834 0.03676605 0.00381931 0.00362879 0.01613821 0.00112901 0.01006586 0.00937418 0.04688734 0.00717315 0.02230824 0.00177021 0.00949062 0.08301299 0.01970580 0.00132417 
0.02264267 0.03718989 0.00386967 0.00363477 0.01633710 0.00111646 0.00998759 0.00923217 0.04734410 0.00707474 0.02227876 0.00175291 0.00935793 0.08235133 0.01954409 0.00130928 
0.02282845 0.03761413 0.00392129 0.00363944 0.01653283 0.00110742 0.00990627 0.00908107 0.04777953 0.00697053 0.02223292 0.00173429 0.00922875 0.08171159 0.01939322 0.00129591 
0.02300554 0.03803842 0.00397397 0.00364271 0.01672484 0.00110190 0.00982193 0.00892148 0.04819461 0.00686107 0.02217128 0.00171443 0.00910355 0.08109344 0.01925304 0.00128421 
0.02317383 0.03846236 0.00402753 0.00364451 0.01691253 0.00109985 0.00973459 0.00875409 0.04859038 0.00674690 0.02209450 0.00169340 0.00898277 0.08049651 0.01912334 0.00127428 
0.02333326 0.03888551 0.00408175 0.00364478 0.01709530 0.00110123 0.00964429 0.00857957 0.04896793 0.00662862 0.02200331 0.00167128 0.00886686 0.07992044 0.01900389 0.00126626 
0.02348378 0.03930740 0.00413643 0.00364348 0.01727253 0.00110597 0.00955108 0.00839868 0.04932837 0.00650684 0.02189853 0.00164818 0.00875626 0.07936481 0.01889440 0.00126025 
0.02362538 0.03972751 0.00419138 0.00364056 0.01744356 0.00111398 0.00945502 0.00821217 0.04967284 0.00638222 0.02178106 0.00162418 0.00865140 0.07882926 0.01879458 0.00125637 
0.02375809 0.04014528 0.00424638 0.00363601 0.01760774 0.00112518 0.00935618 0.00802085 0.05000245 0.00625540 0.02165187 0.00159939 0.00855272 0.07831343 0.01870409 0.00125470 
0.02388194 0.04056013 0.00430124 0.00362980 0.01776438 0.00113945 0.00925465 0.00782554 0.05031828 0.00612707 0.02151201 0.00157392 0.00846063 0.07781699 0.01862259 0.00125533 
0.02399704 0.04097143 0.00435574 0.00362193 0.01791281 0.00115667 0.00915051 0.00762709 0.05062137 0.00599793 0.02136257 0.00154789 0.00837553 0.07733967 0.01854970 0.00125835 
0.02410347 0.04137855 0.00440969 0.00361242 0.01805234 0.00117669 0.00904387 0.00742636 0.05091270 0.00586869 0.02120473 0.00152140 0.00829781 0.07688127 0.01848505 0.00126381 
0.02420137 0.04178081 0.00446288 0.00360129 0.01818228 0.00119937 0.00893484 0.00722423 0.05119318 0.00574008 0.02103970 0.00149459 0.00822785 0.07644163 0.01842823 0.00127178 
0.02429090 0.04217754 0.00451513 0.00358856 0.01830193 0.00122455 0.00882356 0.00702159 0.05146361 0.00561282 0.02086875 0.00146757 0.00816599 0.07602072 0.01837887 0.00128229 
0.02437224 0.04256804 0.00456624 0.00357428 0.01841062 0.00125204 0.00871016 0.00681932 0.05172470 0.00548764 0.02069319 0.00144046 0.00811257 0.07561855 0.01833656 0.00129538 
0.02444558 0.04295161 0.00461602 0.00355850 0.01850768 0.00128166 0.00859478 0.00661833 0.05197705 0.00536528 0.02051435 0.00141341 0.00806790 0.07523525 0.01830090 0.00131107 
0.02451114 0.04332758 0.00466431 0.00354128 0.01859245 0.00131322 0.00847759 0.00641951 0.05222112 0.00524647 0.02033359 0.00138653 0.00803227 0.07487106 0.01827152 0.00132935 
0.02456915 0.04369526 0.00471091 0.00352270 0.01866431 0.00134651 0.00835877 0.00622376 0.05245725 0.00513195 0.02015229 0.00135996 0.00800591 0.07452630 0.01824802 0.00135024 
0.02461986 0.04405399 0.00475567 0.00350283 0.01872263 0.00138132 0.00823848 0.00603194 0.05268563 0.00502243 0.01997185 0.00133383 0.00798907 0.07420141 0.01823006 0.00137370 
0.02466352 0.04440315 0.00479843 0.00348177 0.01876685 0.00141742 0.00811693 0.00584493 0.05290633 0.00491861 0.01979366 0.00130826 0.00798192 0.07389694 0.01821727 0.00139970 
0.02470041 0.04474213 0.00483904 0.00345960 0.01879643 0.00145461 0.00799432 0.00566358 0.05311925 0.00482119 0.01961910 0.00128339 0.00798464 0.07361355 0.01820933 0.00142820 
0.02473079 0.04507038 0.00487736 0.00343643 0.01881086 0.00149265 0.00787087 0.00548871 0.05332415 0.00473084 0.01944954 0.00125933 0.00799734 0.07335199 0.01820592 0.00145913 
0.02475495 0.04538740 0.00491326 0.00341236 0.01880969 0.00153131 0.00774680 0.00532111 0.05352065 0.00464822 0.01928632 0.00123622 0.00802010 0.07311312 0.01820676 0.00149242 
0.02477317 0.04569273 0.00494662 0.00338751 0.01879251 0.00157036 0.00762238 0.00516158 0.05370823 0.00457394 0.01913076 0.00121417 0.00805296 0.07289789 0.01821157 0.00152799 
0.02478574 0.04598600 0.00497734 0.00336198 0.01875898 0.00160957 0.00749784 0.00501083 0.05388621 0.00450861 0.01898413 0.00119329 0.00809594 0.07270735 0.01822012 0.00156573 
0.02479294 0.04626688 0.00500532 0.00333591 0.01870881 0.00164871 0.00737345 0.00486959 0.05405379 0.00445280 0.01884765 0.00117371 0.00814899 0.07254263 0.01823219 0.00160554 
0.02479506 0.04653514 0.00503047 0.00330939 0.01864178 0.00168755 0.00724950 0.00473850 0.05421004 0.00440703 0.01872250 0.00115552 0.00821203 0.07240491 0.01824760 0.00164730 
0.02479237 0.04679063 0.00505273 0.00328256 0.01855773 0.00172587 0.00712628 0.00461821 0.05435393 0.00437181 0.01860976 0.00113883 0.00828492 0.07229545 0.01826618 0.00169087 
0.02478516 0.04703327 0.00507203 0.00325554 0.01845657 0.00176345 0.00700410 0.00450927 0.05448429 0.00434759 0.01851047 0.00112373 0.00836749 0.07221557 0.01828780 0.00173611 
0.02477368 0.04726307 0.00508833 0.00322843 0.01833831 0.00180008 0.00688326 0.00441223 0.05459988 0.00433478 0.01842558 0.00111031 0.00845952 0.07216661 0.01831236 0.00178287 
0.02475820 0.04748014 0.00510160 0.00320137 0.01820302 0.00183556 0.00676412 0.00432757 0.05469936 0.00433376 0.01835595 0.00109865 0.00856074 0.07214995 0.01833978 0.00183098 
0.02473897 0.04768469 0.00511182 0.00317445 0.01805084 0.00186969 0.00664701 0.00425570 0.05478133 0.00434483 0.01830234 0.00108882 0.00867084 0.07216697 0.01837002 0.00188028 
0.02471623 0.04787702 0.00511898 0.00314780 0.01788203 0.00190228 0.00653229 0.00419701 0.05484435 0.00436829 0.01826542 0.00108088 0.00878945 0.07221907 0.01840306 0.00193059 
0.02469021 0.04805750 0.00512309 0.00312151 0.01769689 0.00193316 0.00642034 0.00415181 0.05488692 0.00440434 0.01824576 0.00107490 0.00891616 0.07230761 0.01843889 0.00198173 
0.02466114 0.04822664 0.00512419 0.00309569 0.01749585 0.00196217 0.00631153 0.00412036 0.05490752 0.00445316 0.01824380 0.00107091 0.00905053 0.07243395 0.01847755 0.00203350 
0.02462921 0.04838499 0.00512229 0.00307043 0.01727941 0.00198917 0.00620626 0.00410286 0.05490465 0.00451486 0.01825989 0.00106895 0.00919205 0.07259940 0.01851908 0.00208572 
0.02459464 0.04853324 0.00511746 0.00304582 0.01704814 0.00201401 0.00610494 0.00409945 0.05487680 0.00458950 0.01829424 0.00106906 0.00934018 0.07280520 0.01856357 0.00213818 
0.02455760 0.04867212 0.00510976 0.00302194 0.01680272 0.00203659 0.00600799 0.00411020 0.05482250 0.00467709 0.01834695 0.00107125 0.00949433 0.07305254 0.01861112 0.00219069 
0.02451826 0.04880246 0.00509926 0.00299886 0.01654392 0.00205679 0.00591584 0.00413515 0.05474033 0.00477758 0.01841801 0.00107552 0.00965388 0.07334252 0.01866183 0.00224306 
0.02447680 0.04892518 0.00508606 0.00297665 0.01627258 0.00207453 0.00582892 0.00417423 0.05462895 0.00489085 0.01850726 0.00108187 0.00981817 0.07367615 0.01871583 0.00229507 
0.02443335 0.04904123 0.00507025 0.00295537 0.01598961 0.00208974 0.00574767 0.00422735 0.05448709 0.00501673 0.01861443 0.00109030 0.00998649 0.07405435 0.01877328 0.00234653 
0.02438807 0.04915165 0.00505195 0.00293505 0.01569603 0.00210238 0.00567256 0.00429435 0.05431359 0.00515501 0.01873912 0.00110078 0.01015811 0.07447790 0.01883434 0.00239725 
0.02434107 0.04925751 0.00503129 0.00291575 0.01539292 0.00211240 0.00560403 0.00437498 0.05410741 0.00530540 0.01888082 0.00111327 0.01033226 0.07494746 0.01889918 0.00244703 
0.02429248 0.04935993 0.00500841 0.00289748 0.01508143 0.00211980 0.00554254 0.00446897 0.05386766 0.00546756 0.01903888 0.00112773 0.01050816 0.07546357 0.01896799 0.00249567 
0.02424241 0.04946007 0.00498345 0.00288028 0.01476277 0.00212456 0.00548857 0.00457598 0.05359357 0.00564110 0.01921254 0.00114412 0.01068499 0.07602661 0.01904095 0.00254301 
0.02419097 0.04955911 0.00495657 0.00286415 0.01443823 0.00212673 0.00544258 0.00469559 0.05328457 0.00582558 0.01940093 0.00116237 0.01086190 0.07663683 0.01911826 0.00258884 
0.02413823 0.04965822 0.00492794 0.00284910 0.01410914 0.00212632 0.00540502 0.00482736 0.05294025 0.00602050 0.01960306 0.00118241 0.01103804 0.07729430 0.01920013 0.00263302 
0.02408430 0.04975859 0.00489773 0.00283512 0.01377687 0.00212342 0.00537635 0.00497077 0.05256041 0.00622531 0.01981783 0.00120415 0.01121255 0.07799896 0.01928675 0.00267537 
0.02402926 0.04986140 0.00486614 0.00282220 0.01344287 0.00211808 0.00535704 0.00512527 0.05214504 0.00643941 0.02004406 0.00122752 0.01138453 0.07875056 0.01937834 0.00271574 
0.02397318 0.04996780 0.00483334 0.00281032 0.01310858 0.00211040 0.00534750 0.00529024 0.05169434 0.00666216 0.02028047 0.00125241 0.01155310 0.07954870 0.01947508 0.00275398 
0.02391614 0.05007890 0.00479954 0.00279943 0.01277549 0.00210049 0.00534819 0.00546503 0.05120875 0.00689287 0.02052567 0.00127872 0.01171738 0.08039282 0.01957719 0.00278997 
0.02385821 0.05019577 0.00476495 0.00278952 0.01244511 0.00208847 0.00535952 0.00564895 0.05068891 0.00713083 0.02077823 0.00130635 0.01187648 0.08128217 0.01968485 0.00282358 
0.02379946 0.05031944 0.00472976 0.00278053 0.01211895 0.00207450 0.00538188 0.00584125 0.05013571 0.00737526 0.02103661 0.00133516 0.01202951 0.08221587 0.01979825 0.00285471 
0.02373996 0.05045084 0.00469419 0.00277241 0.01179853 0.00205872 0.00541565 0.00604116 0.04955027 0.00762537 0.02129926 0.00136505 0.01217562 0.08319285 0.01991756 0.00288326 
0.02367977 0.05059086 0.00465845 0.00276511 0.01148535 0.00204130 0.00546120 0.00624787 0.04893394 0.00788032 0.02156453 0.00139587 0.01231395 0.08421188 0.02004295 0.00290914 
