0.02991096 0.03075123 0.01953425 0.00189654 0.00098313 0.00116841 0.00674520 0.00225906 0.02463713 0.00197093 0.00331621 0.03829871 0.00462777 0.00361719 0.00339707 0.00136126 
0.03097354 0.03028531 0.01948204 0.00183586 0.00097337 0.00117706 0.00670259 0.00227523 0.02513252 0.00198335 0.00332894 0.03845789 0.00469878 0.00371621 0.00343868 0.00135633 
0.03211469 0.02983321 0.01941797 0.00177872 0.00096427 0.00118608 0.00666065 0.00229425 0.02563443 0.00199581 0.00333943 0.03863638 0.00476807 0.00381663 0.00348385 0.00135142 
0.03332988 0.02939550 0.01934235 0.00172524 0.00095592 0.00119546 0.00661916 0.00231604 0.02614065 0.00200825 0.00334748 0.03883435 0.00483555 0.00391804 0.00353260 0.00134655 
0.03461432 0.02897270 0.01925549 0.00167556 0.00094841 0.00120519 0.00657791 0.00234049 0.02664892 0.00202061 0.00335295 0.03905177 0.00490112 0.00402004 0.00358492 0.00134172 
0.03596288 0.02856525 0.01915773 0.00162976 0.00094183 0.00121525 0.00653668 0.00236750 0.02715691 0.00203286 0.00335567 0.03928842 0.00496472 0.00412220 0.00364079 0.00133696 
0.03737022 0.02817355 0.01904940 0.00158793 0.00093626 0.00122563 0.00649526 0.00239697 0.02766229 0.00204494 0.00335552 0.03954389 0.00502627 0.00422410 0.00370019 0.00133229 
0.03883075 0.02779791 0.01893083 0.00155011 0.00093177 0.00123632 0.00645346 0.00242877 0.02816265 0.00205682 0.00335239 0.03981758 0.00508572 0.00432530 0.00376305 0.00132771 
0.04033867 0.02743858 0.01880237 0.00151634 0.00092843 0.00124731 0.00641109 0.00246278 0.02865561 0.00206844 0.00334619 0.04010870 0.00514300 0.00442539 0.00382930 0.00132325 
0.04188800 0.02709573 0.01866436 0.00148663 0.00092631 0.00125859 0.00636796 0.00249888 0.02913877 0.00207977 0.00333685 0.04041627 0.00519807 0.00452393 0.00389886 0.00131891 
0.04347263 0.02676947 0.01851717 0.00146097 0.00092545 0.00127015 0.00632391 0.00253694 0.02960972 0.00209078 0.00332432 0.04073913 0.00525090 0.00462052 0.00397161 0.00131471 
0.04508633 0.02645983 0.01836115 0.00143934 0.00092590 0.00128198 0.00627878 0.00257682 0.03006609 0.00210144 0.00330857 0.04107594 0.00530146 0.00471475 0.00404744 0.00131067 
0.04672276 0.02616677 0.01819668 0.00142168 0.00092770 0.00129406 0.00623243 0.00261839 0.03050554 0.00211171 0.00328959 0.04142520 0.00534974 0.00480622 0.00412619 0.00130679 
0.04837553 0.02589019 0.01802411 0.00140794 0.00093086 0.00130639 0.00618473 0.00266149 0.03092578 0.00212158 0.00326740 0.04178523 0.00539572 0.00489454 0.00420771 0.00130308 
0.05003825 0.02562990 0.01784385 0.00139803 0.00093541 0.00131895 0.00613557 0.00270599 0.03132458 0.00213102 0.00324204 0.04215422 0.00543941 0.00497934 0.00429182 0.00129955 
0.05170448 0.02538566 0.01765627 0.00139183 0.00094136 0.00133174 0.00608484 0.00275173 0.03169975 0.00214002 0.00321354 0.04253020 0.00548081 0.00506027 0.00437833 0.00129622 
0.05336786 0.02515716 0.01746177 0.00138925 0.00094871 0.00134475 0.00603246 0.00279856 0.03204923 0.00214857 0.00318200 0.04291107 0.00551993 0.00513699 0.00446704 0.00129308 
0.05502204 0.02494402 0.01726076 0.00139015 0.00095744 0.00135796 0.00597837 0.00284632 0.03237101 0.00215665 0.00314750 0.04329464 0.00555680 0.00520919 0.00455772 0.00129015 
0.05666081 0.02474581 0.01705365 0.00139438 0.00096753 0.00137137 0.00592251 0.00289486 0.03266321 0.00216427 0.00311016 0.04367857 0.00559144 0.00527658 0.00465013 0.00128743 
0.05827803 0.02456207 0.01684087 0.00140179 0.00097896 0.00138496 0.00586484 0.00294400 0.03292406 0.00217141 0.00307010 0.04406046 0.00562390 0.00533887 0.00474403 0.00128492 
0.05986774 0.02439224 0.01662284 0.00141220 0.00099168 0.00139872 0.00580535 0.00299359 0.03315191 0.00217810 0.00302747 0.04443784 0.00565420 0.00539584 0.00483917 0.00128264 
0.06142413 0.02423576 0.01640002 0.00142545 0.00100565 0.00141266 0.00574403 0.00304347 0.03334524 0.00218432 0.00298243 0.04480817 0.00568240 0.00544726 0.00493526 0.00128057 
0.06294159 0.02409203 0.01617285 0.00144135 0.00102080 0.00142674 0.00568090 0.00309346 0.03350269 0.00219008 0.00293517 0.04516886 0.00570855 0.00549293 0.00503202 0.00127873 
0.06441475 0.02396039 0.01594181 0.00145971 0.00103708 0.00144098 0.00561599 0.00314340 0.03362303 0.00219541 0.00288586 0.04551731 0.00573269 0.00553270 0.00512918 0.00127711 
0.06583844 0.02384018 0.01570737 0.00148033 0.00105442 0.00145535 0.00554934 0.00319313 0.03370521 0.00220031 0.00283472 0.04585091 0.00575488 0.00556643 0.00522642 0.00127571 
0.06720781 0.02373071 0.01547002 0.00150302 0.00107272 0.00146984 0.00548102 0.00324249 0.03374832 0.00220480 0.00278195 0.04616704 0.00577517 0.00559401 0.00532345 0.00127453 
0.06851824 0.02363130 0.01523024 0.00152757 0.00109190 0.00148446 0.00541110 0.00329129 0.03375162 0.00220889 0.00272778 0.04646314 0.00579362 0.00561536 0.00541995 0.00127357 
0.06976547 0.02354123 0.01498856 0.00155379 0.00111186 0.00149918 0.00533969 0.00333939 0.03371457 0.00221262 0.00267243 0.04673666 0.00581029 0.00563045 0.00551562 0.00127282 
0.07094550 0.02345983 0.01474548 0.00158149 0.00113252 0.00151400 0.00526688 0.00338663 0.03363678 0.00221600 0.00261614 0.04698514 0.00582523 0.00563926 0.00561013 0.00127229 
0.07205472 0.02338641 0.01450153 0.00161046 0.00115375 0.00152891 0.00519280 0.00343283 0.03351804 0.00221905 0.00255915 0.04720618 0.00583849 0.00564180 0.00570317 0.00127196 
0.07308984 0.02332031 0.01425725 0.00164051 0.00117545 0.00154390 0.00511759 0.00347785 0.03335833 0.00222179 0.00250170 0.04739749 0.00585013 0.00563812 0.00579441 0.00127183 
0.07404792 0.02326089 0.01401317 0.00167146 0.00119750 0.00155897 0.00504139 0.00352153 0.03315780 0.00222426 0.00244404 0.04755689 0.00586018 0.00562828 0.00588355 0.00127190 
0.07492642 0.02320756 0.01376983 0.00170314 0.00121979 0.00157409 0.00496436 0.00356373 0.03291678 0.00222648 0.00238640 0.04768233 0.00586870 0.00561240 0.00597026 0.00127215 
0.07572315 0.02315977 0.01352778 0.00173537 0.00124219 0.00158928 0.00488667 0.00360429 0.03263579 0.00222846 0.00232902 0.04777189 0.00587571 0.00559061 0.00605424 0.00127257 
0.07643631 0.02311700 0.01328758 0.00176799 0.00126458 0.00160451 0.00480850 0.00364307 0.03231551 0.00223024 0.00227216 0.04782383 0.00588124 0.00556306 0.00613518 0.00127317 
0.07706448 0.02307882 0.01304976 0.00180086 0.00128685 0.00161979 0.00473005 0.00367994 0.03195679 0.00223184 0.00221603 0.04783658 0.00588533 0.00552994 0.00621278 0.00127393 
0.07760662 0.02304485 0.01281489 0.00183383 0.00130886 0.00163510 0.00465151 0.00371477 0.03156066 0.00223328 0.00216086 0.04780875 0.00588800 0.00549146 0.00628675 0.00127483 
0.07806209 0.02301476 0.01258349 0.00186678 0.00133049 0.00165043 0.00457309 0.00374743 0.03112830 0.00223457 0.00210688 0.04773914 0.00588924 0.00544785 0.00635680 0.00127587 
0.07843060 0.02298834 0.01235611 0.00189959 0.00135163 0.00166579 0.00449500 0.00377780 0.03066105 0.00223575 0.00205429 0.04762678 0.00588908 0.00539937 0.00642267 0.00127704 
0.07871226 0.02296541 0.01213328 0.00193217 0.00137214 0.00168117 0.00441745 0.00380578 0.03016038 0.00223682 0.00200329 0.04747090 0.00588750 0.00534630 0.00648410 0.00127833 
0.07890753 0.02294592 0.01191551 0.00196443 0.00139193 0.00169655 0.00434068 0.00383124 0.02962794 0.00223781 0.00195407 0.04727096 0.00588451 0.00528892 0.00654083 0.00127972 
0.07901724 0.02292989 0.01170331 0.00199629 0.00141086 0.00171194 0.00426490 0.00385410 0.02906548 0.00223872 0.00190681 0.04702666 0.00588007 0.00522756 0.00659264 0.00128120 
0.07904255 0.02291743 0.01149716 0.00202770 0.00142884 0.00172734 0.00419035 0.00387427 0.02847488 0.00223956 0.00186166 0.04673793 0.00587419 0.00516253 0.00663931 0.00128276 
0.07898495 0.02290877 0.01129754 0.00205862 0.00144576 0.00174273 0.00411726 0.00389165 0.02785813 0.00224034 0.00181877 0.04640495 0.00586682 0.00509419 0.00668065 0.00128438 
0.07884628 0.02290420 0.01110488 0.00208901 0.00146152 0.00175812 0.00404585 0.00390618 0.02721735 0.00224107 0.00177828 0.04602814 0.00585794 0.00502288 0.00671647 0.00128606 
0.07862864 0.02290415 0.01091962 0.00211886 0.00147602 0.00177349 0.00397637 0.00391778 0.02655472 0.00224175 0.00174031 0.04560816 0.00584751 0.00494897 0.00674661 0.00128777 
0.07833445 0.02290911 0.01074215 0.00214817 0.00148919 0.00178886 0.00390904 0.00392640 0.02587251 0.00224238 0.00170495 0.04514593 0.00583550 0.00487282 0.00677092 0.00128951 
0.07796635 0.02291970 0.01057284 0.00217695 0.00150094 0.00180421 0.00384409 0.00393200 0.02517309 0.00224295 0.00167229 0.04464260 0.00582185 0.00479482 0.00678929 0.00129126 
0.07752728 0.02293663 0.01041202 0.00220523 0.00151120 0.00181955 0.00378175 0.00393452 0.02445887 0.00224347 0.00164240 0.04409956 0.00580654 0.00471533 0.00680162 0.00129300 
0.07702037 0.02296068 0.01026000 0.00223304 0.00151991 0.00183487 0.00372223 0.00393394 0.02373230 0.00224391 0.00161532 0.04351845 0.00578952 0.00463475 0.00680782 0.00129473 
0.07644894 0.02299275 0.01011706 0.00226044 0.00152702 0.00185018 0.00366577 0.00393023 0.02299589 0.00224427 0.00159109 0.04290111 0.00577076 0.00455344 0.00680786 0.00129643 
0.07581653 0.02303381 0.00998341 0.00228748 0.00153246 0.00186547 0.00361256 0.00392339 0.02225217 0.00224453 0.00156973 0.04224963 0.00575021 0.00447179 0.00680168 0.00129809 
0.07512680 0.02308492 0.00985926 0.00231423 0.00153621 0.00188074 0.00356283 0.00391341 0.02150368 0.00224468 0.00155123 0.04156629 0.00572785 0.00439016 0.00678930 0.00129969 
0.07438355 0.02314720 0.00974476 0.00234077 0.00153824 0.00189599 0.00351676 0.00390030 0.02075299 0.00224470 0.00153559 0.04085358 0.00570365 0.00430891 0.00677073 0.00130123 
0.07359071 0.02322184 0.00964001 0.00236719 0.00153852 0.00191123 0.00347456 0.00388408 0.02000263 0.00224457 0.00152275 0.04011416 0.00567761 0.00422841 0.00674601 0.00130268 
0.07275226 0.02331011 0.00954508 0.00239357 0.00153705 0.00192645 0.00343641 0.00386476 0.01925514 0.00224426 0.00151268 0.03935088 0.00564971 0.00414899 0.00671522 0.00130404 
0.07187227 0.02341329 0.00946000 0.00242002 0.00153382 0.00194165 0.00340249 0.00384240 0.01851302 0.00224376 0.00150532 0.03856675 0.00561997 0.00407099 0.00667844 0.00130529 
0.07095484 0.02353273 0.00938476 0.00244664 0.00152884 0.00195683 0.00337296 0.00381704 0.01777875 0.00224304 0.00150057 0.03776491 0.00558841 0.00399472 0.00663579 0.00130643 
0.07000406 0.02366981 0.00931927 0.00247352 0.00152212 0.00197200 0.00334799 0.00378873 0.01705475 0.00224207 0.00149835 0.03694864 0.00555507 0.00392048 0.00658743 0.00130744 
0.06902405 0.02382590 0.00926345 0.00250077 0.00151368 0.00198716 0.00332772 0.00375754 0.01634340 0.00224083 0.00149856 0.03612132 0.00552001 0.00384856 0.00653351 0.00130832 
0.06801887 0.02400241 0.00921712 0.00252850 0.00150357 0.00200230 0.00331230 0.00372356 0.01564699 0.00223929 0.00150108 0.03528642 0.00548329 0.00377922 0.00647424 0.00130905 
0.06699254 0.02420072 0.00918011 0.00255680 0.00149182 0.00201743 0.00330186 0.00368686 0.01496776 0.00223742 0.00150578 0.03444749 0.00544503 0.00371272 0.00640983 0.00130962 
0.06594901 0.02442221 0.00915217 0.00258577 0.00147847 0.00203254 0.00329650 0.00364755 0.01430788 0.00223520 0.00151251 0.03360813 0.00540534 0.00364926 0.00634052 0.00131004 
0.06489214 0.02466821 0.00913301 0.00261552 0.00146360 0.00204763 0.00329634 0.00360572 0.01366941 0.00223260 0.00152114 0.03277197 0.00536437 0.00358906 0.00626657 0.00131029 
0.06382568 0.02494003 0.00912233 0.00264611 0.00144725 0.00206272 0.00330147 0.00356151 0.01305432 0.00222960 0.00153151 0.03194266 0.00532228 0.00353229 0.00618826 0.00131036 
0.06275325 0.02523889 0.00911976 0.00267765 0.00142950 0.00207778 0.00331197 0.00351503 0.01246450 0.00222618 0.00154346 0.03112384 0.00527927 0.00347911 0.00610591 0.00131025 
0.06167834 0.02556596 0.00912491 0.00271019 0.00141044 0.00209283 0.00332791 0.00346642 0.01190171 0.00222231 0.00155682 0.03031911 0.00523557 0.00342966 0.00601984 0.00130996 
0.06060428 0.02592233 0.00913734 0.00274380 0.00139013 0.00210785 0.00334935 0.00341583 0.01136763 0.00221798 0.00157142 0.02953204 0.00519142 0.00338404 0.00593038 0.00130948 
0.05953424 0.02630898 0.00915661 0.00277854 0.00136867 0.00212285 0.00337633 0.00336341 0.01086379 0.00221316 0.00158708 0.02876614 0.00514711 0.00334234 0.00583791 0.00130881 
0.05847121 0.02672678 0.00918221 0.00281445 0.00134616 0.00213783 0.00340888 0.00330932 0.01039164 0.00220785 0.00160364 0.02802480 0.00510295 0.00330461 0.00574279 0.00130795 
0.05741800 0.02717649 0.00921364 0.00285154 0.00132270 0.00215277 0.00344703 0.00325373 0.00995248 0.00220203 0.00162090 0.02731133 0.00505926 0.00327089 0.00564541 0.00130689 
0.05637721 0.02765871 0.00925035 0.00288985 0.00129837 0.00216768 0.00349077 0.00319682 0.00954751 0.00219569 0.00163870 0.02662892 0.00501641 0.00324120 0.00554618 0.00130565 
0.05535126 0.02817391 0.00929179 0.00292937 0.00127330 0.00218254 0.00354009 0.00313877 0.00917777 0.00218882 0.00165686 0.02598061 0.00497479 0.00321551 0.00544551 0.00130422 
0.05434236 0.02872241 0.00933737 0.00297008 0.00124759 0.00219735 0.00359498 0.00307979 0.00884421 0.00218143 0.00167521 0.02536928 0.00493481 0.00319380 0.00534383 0.00130260 
0.05335252 0.02930434 0.00938651 0.00301197 0.00122134 0.00221211 0.00365540 0.00302007 0.00854764 0.00217351 0.00169358 0.02479764 0.00489692 0.00317600 0.00524156 0.00130081 
0.05238353 0.02991967 0.00943861 0.00305498 0.00119468 0.00222679 0.00372130 0.00295982 0.00828873 0.00216507 0.00171180 0.02426822 0.00486156 0.00316204 0.00513913 0.00129883 
0.05143699 0.03056817 0.00949305 0.00309905 0.00116772 0.00224141 0.00379262 0.00289925 0.00806804 0.00215611 0.00172971 0.02378333 0.00482924 0.00315181 0.00503700 0.00129668 
0.05051428 0.03124943 0.00954923 0.00314413 0.00114056 0.00225593 0.00386928 0.00283858 0.00788599 0.00214665 0.00174717 0.02334509 0.00480043 0.00314520 0.00493559 0.00129437 
0.04961657 0.03196284 0.00960655 0.00319011 0.00111333 0.00227036 0.00395120 0.00277804 0.00774286 0.00213670 0.00176402 0.02295537 0.00477566 0.00314206 0.00483535 0.00129191 
0.04874486 0.03270758 0.00966439 0.00323689 0.00108614 0.00228468 0.00403826 0.00271785 0.00763884 0.00212627 0.00178014 0.02261584 0.00475545 0.00314225 0.00473672 0.00128930 
0.04789994 0.03348262 0.00972216 0.00328435 0.00105910 0.00229887 0.00413036 0.00265824 0.00757397 0.00211540 0.00179538 0.02232789 0.00474034 0.00314557 0.00464013 0.00128655 
0.04708239 0.03428672 0.00977927 0.00333237 0.00103231 0.00231292 0.00422737 0.00259945 0.00754817 0.00210410 0.00180963 0.02209269 0.00473086 0.00315187 0.00454601 0.00128367 
0.04629266 0.03511845 0.00983515 0.00338079 0.00100590 0.00232681 0.00432914 0.00254172 0.00756125 0.00209240 0.00182279 0.02191114 0.00472756 0.00316092 0.00445478 0.00128069 
0.04553098 0.03597614 0.00988926 0.00342946 0.00097996 0.00234053 0.00443553 0.00248529 0.00761288 0.00208033 0.00183475 0.02178390 0.00473098 0.00317252 0.00436685 0.00127760 
0.04479744 0.03685793 0.00994106 0.00347822 0.00095460 0.00235406 0.00454636 0.00243039 0.00770266 0.00206794 0.00184541 0.02171136 0.00474164 0.00318646 0.00428261 0.00127442 
0.04409198 0.03776176 0.00999004 0.00352687 0.00092991 0.00236737 0.00466145 0.00237726 0.00783003 0.00205524 0.00185472 0.02169365 0.00476006 0.00320250 0.00420244 0.00127117 
0.04341439 0.03868535 0.01003573 0.00357523 0.00090600 0.00238046 0.00478061 0.00232616 0.00799435 0.00204230 0.00186259 0.02173064 0.00478676 0.00322041 0.00412672 0.00126786 
0.04276433 0.03962625 0.01007767 0.00362311 0.00088294 0.00239329 0.00490364 0.00227731 0.00819487 0.00202914 0.00186897 0.02182196 0.00482220 0.00323995 0.00405578 0.00126450 
0.04214133 0.04058181 0.01011546 0.00367029 0.00086084 0.00240586 0.00503032 0.00223095 0.00843074 0.00201581 0.00187381 0.02196697 0.00486685 0.00326089 0.00398996 0.00126112 
0.04154481 0.04154920 0.01014872 0.00371659 0.00083977 0.00241812 0.00516043 0.00218732 0.00870102 0.00200236 0.00187709 0.02216479 0.00492114 0.00328297 0.00392955 0.00125772 
0.04097412 0.04252545 0.01017709 0.00376177 0.00081980 0.00243006 0.00529373 0.00214663 0.00900466 0.00198883 0.00187878 0.02241431 0.00498545 0.00330595 0.00387486 0.00125433 
0.04042848 0.04350741 0.01020029 0.00380563 0.00080100 0.00244166 0.00542996 0.00210913 0.00934054 0.00197528 0.00187887 0.02271418 0.00506014 0.00332961 0.00382612 0.00125096 
0.03990706 0.04449181 0.01021805 0.00384796 0.00078344 0.00245289 0.00556888 0.00207502 0.00970746 0.00196175 0.00187737 0.02306284 0.00514551 0.00335370 0.00378358 0.00124762 
0.03940896 0.04547524 0.01023014 0.00388854 0.00076718 0.00246373 0.00571020 0.00204452 0.01010411 0.00194830 0.00187427 0.02345850 0.00524182 0.00337799 0.00374744 0.00124434 
0.03893321 0.04645420 0.01023641 0.00392717 0.00075226 0.00247414 0.00585365 0.00201783 0.01052914 0.00193497 0.00186960 0.02389921 0.00534927 0.00340226 0.00371788 0.00124112 
0.03847883 0.04742510 0.01023671 0.00396365 0.00073874 0.00248410 0.00599894 0.00199514 0.01098111 0.00192182 0.00186340 0.02438279 0.00546801 0.00342630 0.00369503 0.00123800 
0.03804476 0.04838425 0.01023096 0.00399777 0.00072664 0.00249358 0.00614578 0.00197664 0.01145852 0.00190890 0.00185570 0.02490691 0.00559813 0.00344990 0.00367903 0.00123497 
0.03762996 0.04932793 0.01021913 0.00402935 0.00071601 0.00250256 0.00629385 0.00196251 0.01195980 0.00189625 0.00184655 0.02546911 0.00573964 0.00347287 0.00366995 0.00123206 
0.03723336 0.05025239 0.01020122 0.00405821 0.00070686 0.00251101 0.00644285 0.00195291 0.01248334 0.00188392 0.00183601 0.02606675 0.00589249 0.00349503 0.00366784 0.00122929 
0.03685386 0.05115385 0.01017728 0.00408420 0.00069921 0.00251890 0.00659246 0.00194798 0.01302747 0.00187197 0.00182414 0.02669708 0.00605657 0.00351622 0.00367274 0.00122666 
0.03649040 0.05202856 0.01014743 0.00410715 0.00069307 0.00252619 0.00674234 0.00194786 0.01359047 0.00186044 0.00181102 0.02735725 0.00623169 0.00353627 0.00368463 0.00122419 
0.03614190 0.05287277 0.01011180 0.00412693 0.00068845 0.00253287 0.00689217 0.00195268 0.01417057 0.00184937 0.00179673 0.02804432 0.00641757 0.00355505 0.00370348 0.00122190 
0.03580732 0.05368282 0.01007058 0.00414343 0.00068534 0.00253890 0.00704160 0.00196255 0.01476599 0.00183880 0.00178136 0.02875527 0.00661386 0.00357244 0.00372920 0.00121980 
0.03548563 0.05445509 0.01002400 0.00415654 0.00068373 0.00254425 0.00719030 0.00197755 0.01537488 0.00182878 0.00176498 0.02948704 0.00682016 0.00358834 0.00376169 0.00121789 
0.03517582 0.05518606 0.00997235 0.00416618 0.00068361 0.00254891 0.00733791 0.00199775 0.01599539 0.00181933 0.00174771 0.03023651 0.00703596 0.00360265 0.00380082 0.00121620 
0.03487694 0.05587235 0.00991594 0.00417229 0.00068495 0.00255283 0.00748409 0.00202322 0.01662563 0.00181051 0.00172964 0.03100056 0.00726068 0.00361530 0.00384642 0.00121473 
0.03458805 0.05651069 0.00985512 0.00417484 0.00068772 0.00255599 0.00762849 0.00205400 0.01726371 0.00180233 0.00171087 0.03177606 0.00749367 0.00362624 0.00389829 0.00121348 
0.03430826 0.05709799 0.00979028 0.00417379 0.00069189 0.00255836 0.00777074 0.00209009 0.01790770 0.00179482 0.00169152 0.03255991 0.00773420 0.00363543 0.00395622 0.00121248 
0.03403674 0.05763132 0.00972185 0.00416916 0.00069741 0.00255993 0.00791050 0.00213151 0.01855570 0.00178801 0.00167168 0.03334903 0.00798147 0.00364286 0.00401994 0.00121171 
0.03377270 0.05810796 0.00965029 0.00416097 0.00070423 0.00256066 0.00804741 0.00217824 0.01920577 0.00178192 0.00165147 0.03414038 0.00823462 0.00364851 0.00408919 0.00121119 
0.03351537 0.05852541 0.00957609 0.00414929 0.00071231 0.00256053 0.00818112 0.00223022 0.01985599 0.00177656 0.00163101 0.03493101 0.00849270 0.00365241 0.00416366 0.00121093 
0.03326408 0.05888140 0.00949977 0.00413417 0.00072157 0.00255951 0.00831128 0.00228741 0.02050445 0.00177195 0.00161039 0.03571803 0.00875472 0.00365458 0.00424303 0.00121091 
0.03301818 0.05917391 0.00942186 0.00411573 0.00073197 0.00255759 0.00843754 0.00234972 0.02114925 0.00176811 0.00158974 0.03649867 0.00901961 0.00365507 0.00432695 0.00121116 
0.03277709 0.05940118 0.00934294 0.00409408 0.00074343 0.00255475 0.00855955 0.00241705 0.02178849 0.00176502 0.00156917 0.03727024 0.00928628 0.00365394 0.00441505 0.00121166 
0.03254025 0.05956173 0.00926359 0.00406938 0.00075587 0.00255096 0.00867698 0.00248927 0.02242034 0.00176270 0.00154877 0.03803018 0.00955355 0.00365128 0.00450697 0.00121241 
0.03230720 0.05965439 0.00918440 0.00404178 0.00076922 0.00254621 0.00878950 0.00256623 0.02304294 0.00176115 0.00152867 0.03877609 0.00982024 0.00364716 0.00460229 0.00121341 
0.03207750 0.05967825 0.00910600 0.00401149 0.00078340 0.00254049 0.00889678 0.00264778 0.02365452 0.00176035 0.00150897 0.03950568 0.01008511 0.00364170 0.00470061 0.00121466 
0.03185076 0.05963276 0.00902900 0.00397870 0.00079832 0.00253378 0.00899850 0.00273373 0.02425331 0.00176030 0.00148976 0.04021684 0.01034690 0.00363500 0.00480151 0.00121615 
0.03162667 0.05951764 0.00895404 0.00394366 0.00081390 0.00252606 0.00909437 0.00282386 0.02483761 0.00176099 0.00147115 0.04090760 0.01060434 0.00362720 0.00490456 0.00121788 
0.03140493 0.05933297 0.00888175 0.00390661 0.00083004 0.00251735 0.00918408 0.00291795 0.02540577 0.00176239 0.00145323 0.04157619 0.01085613 0.00361842 0.00500932 0.00121983 
0.03118532 0.05907911 0.00881277 0.00386782 0.00084666 0.00250761 0.00926735 0.00301576 0.02595618 0.00176450 0.00143609 0.04222100 0.01110098 0.00360882 0.00511537 0.00122200 
0.03096765 0.05875679 0.00874774 0.00382756 0.00086367 0.00249687 0.00934391 0.00311701 0.02648731 0.00176727 0.00141982 0.04284062 0.01133761 0.00359855 0.00522225 0.00122437 
0.03075177 0.05836704 0.00868727 0.00378614 0.00088096 0.00248510 0.00941350 0.00322143 0.02699769 0.00177070 0.00140450 0.04343379 0.01156474 0.00358776 0.00532953 0.00122694 
0.03053758 0.05791120 0.00863200 0.00374386 0.00089844 0.00247233 0.00947589 0.00332870 0.02748594 0.00177474 0.00139021 0.04399950 0.01178113 0.00357662 0.00543677 0.00122970 
0.03032504 0.05739094 0.00858253 0.00370104 0.00091602 0.00245855 0.00953085 0.00343852 0.02795074 0.00177936 0.00137702 0.04453687 0.01198555 0.00356530 0.00554355 0.00123262 
0.03011411 0.05680825 0.00853946 0.00365800 0.00093360 0.00244378 0.00957818 0.00355054 0.02839087 0.00178454 0.00136499 0.04504527 0.01217683 0.00355396 0.00564945 0.00123570 
0.02990482 0.05616539 0.00850336 0.00361507 0.00095109 0.00242802 0.00961769 0.00366443 0.02880518 0.00179023 0.00135419 0.04552422 0.01235385 0.00354278 0.00575404 0.00123892 
0.02969722 0.05546493 0.00847479 0.00357259 0.00096838 0.00241130 0.00964921 0.00377982 0.02919264 0.00179640 0.00134467 0.04597346 0.01251553 0.00353193 0.00585695 0.00124226 
0.02949141 0.05470970 0.00845428 0.00353088 0.00098540 0.00239364 0.00967261 0.00389633 0.02955230 0.00180300 0.00133648 0.04639292 0.01266089 0.00352158 0.00595778 0.00124571 
0.02928750 0.05390281 0.00844235 0.00349029 0.00100205 0.00237507 0.00968775 0.00401359 0.02988332 0.00180999 0.00132967 0.04678268 0.01278898 0.00351191 0.00605617 0.00124925 
0.02908565 0.05304760 0.00843946 0.00345113 0.00101825 0.00235560 0.00969453 0.00413120 0.03018497 0.00181733 0.00132426 0.04714305 0.01289898 0.00350307 0.00615176 0.00125287 
0.02888605 0.05214764 0.00844608 0.00341374 0.00103389 0.00233529 0.00969289 0.00424877 0.03045664 0.00182497 0.00132029 0.04747448 0.01299013 0.00349523 0.00624424 0.00125653 
0.02868890 0.05120670 0.00846261 0.00337842 0.00104892 0.00231416 0.00968276 0.00436588 0.03069781 0.00183287 0.00131779 0.04777761 0.01306177 0.00348856 0.00633329 0.00126023 
0.02849445 0.05022876 0.00848944 0.00334547 0.00106324 0.00229226 0.00966413 0.00448214 0.03090810 0.00184098 0.00131676 0.04805323 0.01311337 0.00348319 0.00641864 0.00126395 
0.02830296 0.04921793 0.00852691 0.00331520 0.00107679 0.00226963 0.00963699 0.00459712 0.03108725 0.00184926 0.00131723 0.04830228 0.01314449 0.00347929 0.00650003 0.00126767 
0.02811472 0.04817850 0.00857533 0.00328787 0.00108949 0.00224634 0.00960137 0.00471043 0.03123510 0.00185766 0.00131919 0.04852586 0.01315479 0.00347698 0.00657723 0.00127137 
0.02793004 0.04711485 0.00863495 0.00326374 0.00110128 0.00222242 0.00955733 0.00482163 0.03135164 0.00186614 0.00132266 0.04872521 0.01314409 0.00347640 0.00665003 0.00127503 
0.02774927 0.04603146 0.00870599 0.00324304 0.00111210 0.00219796 0.00950495 0.00493034 0.03143696 0.00187465 0.00132760 0.04890166 0.01311229 0.00347766 0.00671826 0.00127864 
0.02757274 0.04493290 0.00878864 0.00322600 0.00112190 0.00217300 0.00944433 0.00503615 0.03149130 0.00188314 0.00133403 0.04905670 0.01305946 0.00348089 0.00678177 0.00128217 
0.02740085 0.04382374 0.00888302 0.00321280 0.00113063 0.00214762 0.00937561 0.00513866 0.03151500 0.00189159 0.00134191 0.04919189 0.01298576 0.00348619 0.00684044 0.00128561 
0.02723398 0.04270861 0.00898922 0.00320362 0.00113825 0.00212189 0.00929897 0.00523749 0.03150855 0.00189994 0.00135122 0.04930890 0.01289151 0.00349364 0.00689419 0.00128894 
0.02707254 0.04159210 0.00910728 0.00319859 0.00114473 0.00209589 0.00921459 0.00533225 0.03147252 0.00190815 0.00136193 0.04940947 0.01277713 0.00350333 0.00694296 0.00129215 
0.02691695 0.04047878 0.00923717 0.00319783 0.00115003 0.00206970 0.00912269 0.00542258 0.03140765 0.00191620 0.00137400 0.04949542 0.01264319 0.00351533 0.00698671 0.00129522 
0.02676766 0.03937316 0.00937885 0.00320142 0.00115414 0.00204340 0.00902352 0.00550814 0.03131476 0.00192404 0.00138740 0.04956862 0.01249040 0.00352971 0.00702546 0.00129814 
0.02662512 0.03827965 0.00953219 0.00320943 0.00115705 0.00201707 0.00891736 0.00558859 0.03119480 0.00193164 0.00140206 0.04963099 0.01231956 0.00354651 0.00705922 0.00130088 
0.02648978 0.03720257 0.00969705 0.00322188 0.00115874 0.00199082 0.00880451 0.00566361 0.03104881 0.00193897 0.00141794 0.04968448 0.01213162 0.00356578 0.00708806 0.00130345 
0.02636212 0.03614609 0.00987321 0.00323875 0.00115921 0.00196473 0.00868529 0.00573290 0.03087796 0.00194600 0.00143499 0.04973105 0.01192763 0.00358753 0.00711207 0.00130582 
0.02624260 0.03511422 0.01006040 0.00326003 0.00115849 0.00193889 0.00856006 0.00579618 0.03068349 0.00195271 0.00145313 0.04977268 0.01170877 0.00361180 0.00713136 0.00130799 
0.02613171 0.03411080 0.01025834 0.00328563 0.00115658 0.00191340 0.00842918 0.00585320 0.03046676 0.00195908 0.00147231 0.04981136 0.01147631 0.00363859 0.00714606 0.00130994 
0.02602994 0.03313945 0.01046665 0.00331547 0.00115350 0.00188836 0.00829306 0.00590373 0.03022920 0.00196507 0.00149244 0.04984903 0.01123163 0.00366789 0.00715635 0.00131167 
0.02593775 0.03220361 0.01068493 0.00334941 0.00114930 0.00186387 0.00815212 0.00594755 0.02997231 0.00197069 0.00151347 0.04988763 0.01097619 0.00369970 0.00716241 0.00131318 
0.02585562 0.03130643 0.01091274 0.00338729 0.00114400 0.00184001 0.00800679 0.00598449 0.02969767 0.00197591 0.00153530 0.04992906 0.01071155 0.00373399 0.00716446 0.00131444 
0.02578402 0.03045084 0.01114957 0.00342894 0.00113766 0.00181690 0.00785752 0.00601438 0.02940694 0.00198072 0.00155785 0.04997518 0.01043932 0.00377073 0.00716273 0.00131546 
0.02572342 0.02963949 0.01139488 0.00347413 0.00113032 0.00179462 0.00770480 0.00603710 0.02910180 0.00198512 0.00158105 0.05002776 0.01016120 0.00380988 0.00715747 0.00131624 
0.02567426 0.02887475 0.01164810 0.00352263 0.00112205 0.00177327 0.00754910 0.00605256 0.02878399 0.00198911 0.00160479 0.05008854 0.00987891 0.00385139 0.00714894 0.00131677 
0.02563696 0.02815869 0.01190860 0.00357416 0.00111292 0.00175295 0.00739093 0.00606067 0.02845530 0.00199267 0.00162900 0.05015916 0.00959425 0.00389521 0.00713745 0.00131705 
0.02561193 0.02749309 0.01217571 0.00362843 0.00110300 0.00173373 0.00723081 0.00606141 0.02811751 0.00199582 0.00165358 0.05024120 0.00930903 0.00394126 0.00712327 0.00131708 
0.02559957 0.02687940 0.01244873 0.00368515 0.00109237 0.00171572 0.00706925 0.00605475 0.02777246 0.00199856 0.00167844 0.05033614 0.00902506 0.00398948 0.00710673 0.00131687 
0.02560022 0.02631877 0.01272694 0.00374396 0.00108112 0.00169900 0.00690679 0.00604072 0.02742195 0.00200089 0.00170348 0.05044534 0.00874420 0.00403980 0.00708816 0.00131640 
0.02561422 0.02581204 0.01300956 0.00380452 0.00106934 0.00168363 0.00674396 0.00601937 0.02706781 0.00200284 0.00172860 0.05057008 0.00846826 0.00409212 0.00706787 0.00131570 
0.02564185 0.02535969 0.01329581 0.00386648 0.00105712 0.00166970 0.00658130 0.00599077 0.02671185 0.00200440 0.00175372 0.05071153 0.00819907 0.00414636 0.00704620 0.00131476 
0.02568337 0.02496194 0.01358486 0.00392943 0.00104458 0.00165728 0.00641935 0.00595505 0.02635584 0.00200561 0.00177873 0.05087074 0.00793839 0.00420242 0.00702350 0.00131358 
0.02573899 0.02461864 0.01387588 0.00399301 0.00103181 0.00164643 0.00625866 0.00591234 0.02600153 0.00200649 0.00180354 0.05104864 0.00768797 0.00426020 0.00700011 0.00131218 
0.02580886 0.02432936 0.01416800 0.00405680 0.00101894 0.00163720 0.00609975 0.00586281 0.02565063 0.00200705 0.00182806 0.05124604 0.00744949 0.00431961 0.00697638 0.00131057 
0.02589310 0.02409336 0.01446035 0.00412042 0.00100606 0.00162965 0.00594318 0.00580666 0.02530478 0.00200732 0.00185220 0.05146364 0.00722457 0.00438052 0.00695263 0.00130875 
0.02599176 0.02390960 0.01475204 0.00418344 0.00099330 0.00162381 0.00578945 0.00574412 0.02496558 0.00200734 0.00187586 0.05170200 0.00701473 0.00444285 0.00692922 0.00130673 
0.02610485 0.02377676 0.01504217 0.00424546 0.00098078 0.00161973 0.00563909 0.00567544 0.02463454 0.00200713 0.00189896 0.05196156 0.00682142 0.00450646 0.00690648 0.00130452 
0.02623230 0.02369325 0.01532985 0.00430608 0.00096862 0.00161742 0.00549261 0.00560089 0.02431310 0.00200673 0.00192142 0.05224264 0.00664598 0.00457125 0.00688473 0.00130214 
0.02637399 0.02365720 0.01561417 0.00436490 0.00095694 0.00161691 0.00535051 0.00552080 0.02400262 0.00200617 0.00194315 0.05254543 0.00648965 0.00463710 0.00686428 0.00129959 
0.02652973 0.02366652 0.01589425 0.00442152 0.00094586 0.00161820 0.00521326 0.00543548 0.02370435 0.00200550 0.00196407 0.05287001 0.00635353 0.00470389 0.00684546 0.00129690 
0.02669927 0.02371888 0.01616918 0.00447557 0.00093550 0.00162129 0.00508132 0.00534529 0.02341946 0.00200476 0.00198413 0.05321634 0.00623861 0.00477151 0.00682854 0.00129407 
0.02688226 0.02381174 0.01643811 0.00452667 0.00092599 0.00162619 0.00495516 0.00525059 0.02314901 0.00200398 0.00200324 0.05358425 0.00614573 0.00483983 0.00681381 0.00129112 
0.02707833 0.02394239 0.01670016 0.00457446 0.00091744 0.00163286 0.00483518 0.00515178 0.02289394 0.00200322 0.00202135 0.05397348 0.00607558 0.00490873 0.00680155 0.00128806 
0.02728700 0.02410791 0.01695450 0.00461862 0.00090998 0.00164129 0.00472180 0.00504926 0.02265508 0.00200252 0.00203840 0.05438365 0.00602872 0.00497809 0.00679199 0.00128490 
0.02750773 0.02430527 0.01720032 0.00465882 0.00090371 0.00165143 0.00461540 0.00494346 0.02243314 0.00200192 0.00205434 0.05481429 0.00600554 0.00504780 0.00678537 0.00128168 
0.02773992 0.02453128 0.01743683 0.00469476 0.00089874 0.00166325 0.00451635 0.00483481 0.02222872 0.00200149 0.00206914 0.05526483 0.00600626 0.00511773 0.00678192 0.00127839 
0.02798288 0.02478266 0.01766330 0.00472617 0.00089519 0.00167669 0.00442496 0.00472377 0.02204228 0.00200127 0.00208274 0.05573462 0.00603098 0.00518776 0.00678182 0.00127505 
0.02823586 0.02505603 0.01787899 0.00475279 0.00089315 0.00169168 0.00434156 0.00461078 0.02187417 0.00200131 0.00209514 0.05622292 0.00607958 0.00525777 0.00678525 0.00127168 
0.02849805 0.02534798 0.01808325 0.00477442 0.00089272 0.00170817 0.00426643 0.00449631 0.02172460 0.00200168 0.00210629 0.05672892 0.00615181 0.00532765 0.00679237 0.00126830 
0.02876858 0.02565501 0.01827545 0.00479084 0.00089399 0.00172607 0.00419981 0.00438083 0.02159367 0.00200241 0.00211621 0.05725176 0.00624726 0.00539728 0.00680332 0.00126493 
0.02904652 0.02597365 0.01845501 0.00480190 0.00089704 0.00174529 0.00414193 0.00426482 0.02148135 0.00200357 0.00212486 0.05779052 0.00636533 0.00546654 0.00681821 0.00126156 
0.02933086 0.02630040 0.01862140 0.00480746 0.00090195 0.00176575 0.00409299 0.00414875 0.02138750 0.00200522 0.00213227 0.05834422 0.00650527 0.00553533 0.00683714 0.00125824 
0.02962057 0.02663179 0.01877415 0.00480741 0.00090878 0.00178735 0.00405314 0.00403309 0.02131184 0.00200740 0.00213844 0.05891185 0.00666619 0.00560353 0.00686017 0.00125496 
0.02991457 0.02696442 0.01891285 0.00480168 0.00091759 0.00180998 0.00402253 0.00391831 0.02125401 0.00201018 0.00214340 0.05949238 0.00684704 0.00567103 0.00688737 0.00125174 
0.03021174 0.02729492 0.01903716 0.00479022 0.00092844 0.00183354 0.00400126 0.00380488 0.02121350 0.00201362 0.00214716 0.06008475 0.00704661 0.00573773 0.00691876 0.00124860 
0.03051091 0.02762003 0.01914677 0.00477302 0.00094136 0.00185791 0.00398941 0.00369325 0.02118973 0.00201776 0.00214977 0.06068790 0.00726356 0.00580352 0.00695435 0.00124555 
0.03081091 0.02793659 0.01924146 0.00475009 0.00095639 0.00188296 0.00398700 0.00358388 0.02118200 0.00202267 0.00215128 0.06130074 0.00749645 0.00586829 0.00699413 0.00124261 
0.03111054 0.02824154 0.01932107 0.00472150 0.00097354 0.00190859 0.00399407 0.00347719 0.02118953 0.00202839 0.00215173 0.06192223 0.00774366 0.00593196 0.00703807 0.00123979 
0.03140860 0.02853199 0.01938551 0.00468732 0.00099282 0.00193467 0.00401059 0.00337362 0.02121145 0.00203498 0.00215118 0.06255132 0.00800352 0.00599442 0.00708612 0.00123709 
0.03170387 0.02880519 0.01943476 0.00464766 0.00101424 0.00196107 0.00403651 0.00327357 0.02124681 0.00204250 0.00214971 0.06318697 0.00827423 0.00605558 0.00713822 0.00123455 
0.03199516 0.02905853 0.01946886 0.00460266 0.00103778 0.00198767 0.00407175 0.00317743 0.02129458 0.00205100 0.00214739 0.06382820 0.00855389 0.00611535 0.00719427 0.00123215 
0.03228128 0.02928960 0.01948792 0.00455249 0.00106341 0.00201435 0.00411622 0.00308558 0.02135371 0.00206051 0.00214430 0.06447405 0.00884054 0.00617365 0.00725417 0.00122992 
0.03256108 0.02949619 0.01949212 0.00449735 0.00109111 0.00204097 0.00416977 0.00299837 0.02142304 0.00207110 0.00214053 0.06512361 0.00913218 0.00623040 0.00731780 0.00122787 
0.03283343 0.02967626 0.01948171 0.00443744 0.00112083 0.00206741 0.00423225 0.00291613 0.02150140 0.00208280 0.00213617 0.06577600 0.00942671 0.00628551 0.00738503 0.00122600 
0.03309726 0.02982799 0.01945701 0.00437302 0.00115251 0.00209356 0.00430347 0.00283917 0.02158760 0.00209565 0.00213132 0.06643043 0.00972204 0.00633892 0.00745571 0.00122433 
0.03335153 0.02994976 0.01941839 0.00430435 0.00118607 0.00211929 0.00438322 0.00276777 0.02168038 0.00210970 0.00212610 0.06708614 0.01001603 0.00639055 0.00752967 0.00122286 
0.03359528 0.03004018 0.01936630 0.00423171 0.00122145 0.00214450 0.00447125 0.00270220 0.02177849 0.00212498 0.00212060 0.06774244 0.01030655 0.00644035 0.00760674 0.00122159 
0.03382761 0.03009808 0.01930123 0.00415542 0.00125855 0.00216907 0.00456732 0.00264269 0.02188068 0.00214152 0.00211493 0.06839870 0.01059147 0.00648824 0.00768674 0.00122055 
0.03404770 0.03012248 0.01922375 0.00407578 0.00129728 0.00219290 0.00467113 0.00258945 0.02198569 0.00215934 0.00210922 0.06905437 0.01086868 0.00653419 0.00776947 0.00121972 
0.03425481 0.03011266 0.01913447 0.00399314 0.00133750 0.00221589 0.00478239 0.00254265 0.02209227 0.00217848 0.00210358 0.06970896 0.01113612 0.00657815 0.00785472 0.00121912 
0.03444831 0.03006810 0.01903405 0.00390783 0.00137912 0.00223795 0.00490076 0.00250245 0.02219920 0.00219895 0.00209813 0.07036203 0.01139175 0.00662006 0.00794229 0.00121874 
0.03462764 0.02998849 0.01892320 0.00382023 0.00142199 0.00225899 0.00502591 0.00246896 0.02230527 0.00222076 0.00209298 0.07101322 0.01163364 0.00665991 0.00803197 0.00121860 
0.03479237 0.02987374 0.01880268 0.00373068 0.00146598 0.00227895 0.00515748 0.00244228 0.02240934 0.00224393 0.00208825 0.07166223 0.01185991 0.00669765 0.00812351 0.00121870 
0.03494217 0.02972399 0.01867327 0.00363955 0.00151093 0.00229775 0.00529510 0.00242249 0.02251027 0.00226845 0.00208406 0.07230883 0.01206876 0.00673326 0.00821671 0.00121903 
0.03507681 0.02953953 0.01853580 0.00354723 0.00155669 0.00231533 0.00543837 0.00240960 0.02260702 0.00229432 0.00208053 0.07295282 0.01225853 0.00676674 0.00831133 0.00121959 
0.03519618 0.02932090 0.01839112 0.00345409 0.00160310 0.00233165 0.00558690 0.00240362 0.02269856 0.00232154 0.00207776 0.07359407 0.01242766 0.00679806 0.00840715 0.00122040 
0.03530032 0.02906880 0.01824009 0.00336049 0.00164999 0.00234666 0.00574027 0.00240455 0.02278397 0.00235009 0.00207588 0.07423249 0.01257471 0.00682723 0.00850393 0.00122144 
0.03538934 0.02878409 0.01808363 0.00326680 0.00169717 0.00236032 0.00589807 0.00241231 0.02286237 0.00237995 0.00207497 0.07486802 0.01269839 0.00685426 0.00860143 0.00122271 
0.03546350 0.02846783 0.01792262 0.00317339 0.00174448 0.00237263 0.00605985 0.00242684 0.02293298 0.00241109 0.00207514 0.07550065 0.01279754 0.00687915 0.00869944 0.00122421 
0.03552318 0.02812122 0.01775797 0.00308062 0.00179172 0.00238356 0.00622518 0.00244803 0.02299506 0.00244348 0.00207649 0.07613036 0.01287119 0.00690192 0.00879773 0.00122595 
0.03556886 0.02774560 0.01759059 0.00298883 0.00183871 0.00239311 0.00639363 0.00247575 0.02304801 0.00247708 0.00207911 0.07675717 0.01291851 0.00692260 0.00889607 0.00122790 
0.03560115 0.02734246 0.01742139 0.00289835 0.00188526 0.00240129 0.00656473 0.00250984 0.02309126 0.00251183 0.00208307 0.07738111 0.01293884 0.00694123 0.00899425 0.00123007 
0.03562075 0.02691340 0.01725126 0.00280952 0.00193118 0.00240812 0.00673805 0.00255012 0.02312438 0.00254769 0.00208845 0.07800217 0.01293170 0.00695783 0.00909204 0.00123246 
0.03562849 0.02646014 0.01708108 0.00272263 0.00197627 0.00241362 0.00691313 0.00259638 0.02314699 0.00258459 0.00209532 0.07862037 0.01289680 0.00697247 0.00918925 0.00123505 
0.03562527 0.02598448 0.01691168 0.00263798 0.00202034 0.00241782 0.00708953 0.00264839 0.02315882 0.00262245 0.00210373 0.07923568 0.01283401 0.00698520 0.00928567 0.00123783 
0.03561211 0.02548832 0.01674391 0.00255585 0.00206321 0.00242077 0.00726679 0.00270591 0.02315970 0.00266121 0.00211373 0.07984804 0.01274342 0.00699607 0.00938110 0.00124081 
0.03559010 0.02497363 0.01657855 0.00247649 0.00210468 0.00242252 0.00744447 0.00276868 0.02314952 0.00270078 0.00212536 0.08045735 0.01262527 0.00700516 0.00947537 0.00124396 
0.03556039 0.02444244 0.01641635 0.00240014 0.00214458 0.00242312 0.00762212 0.00283640 0.02312829 0.00274106 0.00213865 0.08106347 0.01248001 0.00701253 0.00956828 0.00124729 
0.03552422 0.02389683 0.01625803 0.00232702 0.00218272 0.00242265 0.00779932 0.00290877 0.02309610 0.00278197 0.00215363 0.08166617 0.01230826 0.00701828 0.00965968 0.00125078 
0.03548288 0.02333890 0.01610424 0.00225731 0.00221894 0.00242117 0.00797564 0.00298548 0.02305311 0.00282339 0.00217029 0.08226518 0.01211082 0.00702248 0.00974940 0.00125441 
0.03543767 0.02277081 0.01595560 0.00219121 0.00225306 0.00241876 0.00815065 0.00306620 0.02299957 0.00286522 0.00218865 0.08286015 0.01188868 0.00702523 0.00983729 0.00125818 
0.03538997 0.02219470 0.01581266 0.00212885 0.00228492 0.00241551 0.00832395 0.00315059 0.02293582 0.00290733 0.00220869 0.08345063 0.01164298 0.00702662 0.00992321 0.00126207 
0.03534114 0.02161273 0.01567592 0.00207037 0.00231437 0.00241151 0.00849513 0.00323829 0.02286224 0.00294962 0.00223040 0.08403609 0.01137503 0.00702676 0.01000704 0.00126608 
0.03529258 0.02102705 0.01554580 0.00201587 0.00234128 0.00240683 0.00866380 0.00332895 0.02277931 0.00299194 0.00225373 0.08461592 0.01108630 0.00702575 0.01008864 0.00127018 
0.03524564 0.02043981 0.01542268 0.00196543 0.00236549 0.00240159 0.00882959 0.00342221 0.02268756 0.00303416 0.00227866 0.08518939 0.01077842 0.00702371 0.01016793 0.00127436 
0.03520171 0.01985311 0.01530685 0.00191912 0.00238690 0.00239587 0.00899213 0.00351768 0.02258758 0.00307616 0.00230513 0.08575568 0.01045312 0.00702074 0.01024480 0.00127860 
0.03516209 0.01926904 0.01519856 0.00187698 0.00240538 0.00238978 0.00915107 0.00361500 0.02247999 0.00311778 0.00233309 0.08631388 0.01011229 0.00701697 0.01031917 0.00128289 
0.03512806 0.01868963 0.01509796 0.00183901 0.00242085 0.00238340 0.00930607 0.00371380 0.02236548 0.00315888 0.00236246 0.08686296 0.00975792 0.00701252 0.01039098 0.00128722 
0.03510086 0.01811688 0.01500515 0.00180522 0.00243320 0.00237684 0.00945682 0.00381370 0.02224477 0.00319932 0.00239318 0.08740179 0.00939210 0.00700752 0.01046015 0.00129156 
0.03508164 0.01755272 0.01492014 0.00177558 0.00244237 0.00237020 0.00960302 0.00391432 0.02211860 0.00323895 0.00242516 0.08792918 0.00901703 0.00700208 0.01052667 0.00129590 
0.03507147 0.01699905 0.01484290 0.00175005 0.00244828 0.00236357 0.00974436 0.00401531 0.02198776 0.00327761 0.00245830 0.08844379 0.00863496 0.00699634 0.01059048 0.00130022 
0.03507133 0.01645768 0.01477329 0.00172855 0.00245090 0.00235703 0.00988059 0.00411631 0.02185302 0.00331515 0.00249251 0.08894426 0.00824821 0.00699044 0.01065158 0.00130450 
0.03508209 0.01593036 0.01471113 0.00171101 0.00245019 0.00235068 0.01001144 0.00421694 0.02171519 0.00335143 0.00252770 0.08942910 0.00785916 0.00698450 0.01070997 0.00130872 
0.03510453 0.01541877 0.01465617 0.00169732 0.00244612 0.00234460 0.01013669 0.00431688 0.02157508 0.00338628 0.00256373 0.08989678 0.00747019 0.00697866 0.01076567 0.00131286 
0.03513928 0.01492452 0.01460809 0.00168737 0.00243868 0.00233887 0.01025612 0.00441578 0.02143347 0.00341956 0.00260051 0.09034571 0.00708374 0.00697306 0.01081869 0.00131690 
0.03518687 0.01444913 0.01456650 0.00168103 0.00242789 0.00233355 0.01036953 0.00451332 0.02129118 0.00345112 0.00263791 0.09077424 0.00670222 0.00696783 0.01086909 0.00132083 
0.03524766 0.01399406 0.01453098 0.00167814 0.00241377 0.00232872 0.01047673 0.00460918 0.02114897 0.00348081 0.00267582 0.09118072 0.00632804 0.00696312 0.01091693 0.00132462 
0.03532189 0.01356068 0.01450103 0.00167856 0.00239635 0.00232442 0.01057757 0.00470307 0.02100761 0.00350849 0.00271409 0.09156345 0.00596357 0.00695906 0.01096228 0.00132825 
0.03540966 0.01315027 0.01447610 0.00168212 0.00237567 0.00232072 0.01067191 0.00479470 0.02086783 0.00353402 0.00275262 0.09192076 0.00561115 0.00695579 0.01100524 0.00133170 
0.03551090 0.01276404 0.01445560 0.00168863 0.00235181 0.00231765 0.01075961 0.00488379 0.02073032 0.00355726 0.00279126 0.09225097 0.00527305 0.00695346 0.01104592 0.00133495 
0.03562540 0.01240312 0.01443890 0.00169792 0.00232483 0.00231525 0.01084058 0.00497011 0.02059576 0.00357810 0.00282989 0.09255246 0.00495147 0.00695221 0.01108445 0.00133798 
0.03575279 0.01206854 0.01442532 0.00170978 0.00229484 0.00231353 0.01091473 0.00505342 0.02046478 0.00359639 0.00286838 0.09282364 0.00464852 0.00695218 0.01112097 0.00134078 
0.03589255 0.01176126 0.01441417 0.00172403 0.00226192 0.00231252 0.01098198 0.00513349 0.02033795 0.00361204 0.00290660 0.09306300 0.00436623 0.00695352 0.01115565 0.00134331 
0.03604402 0.01148217 0.01440471 0.00174046 0.00222620 0.00231221 0.01104228 0.00521013 0.02021583 0.00362493 0.00294443 0.09326914 0.00410648 0.00695637 0.01118866 0.00134557 
0.03620639 0.01123204 0.01439619 0.00175886 0.00218779 0.00231261 0.01109561 0.00528316 0.02009891 0.00363496 0.00298173 0.09344074 0.00387105 0.00696088 0.01122022 0.00134753 
0.03637868 0.01101161 0.01438784 0.00177904 0.00214685 0.00231369 0.01114193 0.00535242 0.01998762 0.00364205 0.00301840 0.09357663 0.00366158 0.00696720 0.01125053 0.00134918 
0.03655981 0.01082150 0.01437889 0.00180079 0.00210350 0.00231544 0.01118126 0.00541778 0.01988236 0.00364610 0.00305429 0.09367579 0.00347956 0.00697547 0.01127982 0.00135049 
0.03674855 0.01066227 0.01436856 0.00182391 0.00205792 0.00231783 0.01121359 0.00547910 0.01978348 0.00364706 0.00308932 0.09373737 0.00332631 0.00698585 0.01130836 0.00135145 
0.03694355 0.01053438 0.01435606 0.00184819 0.00201027 0.00232080 0.01123897 0.00553630 0.01969127 0.00364485 0.00312335 0.09376068 0.00320300 0.00699849 0.01133641 0.00135204 
0.03714336 0.01043825 0.01434062 0.00187345 0.00196071 0.00232430 0.01125744 0.00558929 0.01960595 0.00363943 0.00315629 0.09374527 0.00311063 0.00701353 0.01136426 0.00135225 
0.03734642 0.01037419 0.01432149 0.00189948 0.00190944 0.00232829 0.01126904 0.00563802 0.01952772 0.00363076 0.00318804 0.09369089 0.00305001 0.00703114 0.01139222 0.00135206 
0.03755106 0.01034244 0.01429791 0.00192612 0.00185663 0.00233267 0.01127387 0.00568244 0.01945672 0.00361882 0.00321850 0.09359752 0.00302176 0.00705147 0.01142059 0.00135146 
0.03775557 0.01034317 0.01426918 0.00195319 0.00180249 0.00233739 0.01127198 0.00572253 0.01939305 0.00360358 0.00324758 0.09346540 0.00302632 0.00707467 0.01144973 0.00135043 
0.03795815 0.01037647 0.01423460 0.00198051 0.00174721 0.00234235 0.01126349 0.00575829 0.01933673 0.00358505 0.00327520 0.09329502 0.00306394 0.00710090 0.01147997 0.00134897 
0.03815695 0.01044235 0.01419352 0.00200793 0.00169099 0.00234746 0.01124850 0.00578975 0.01928779 0.00356323 0.00330129 0.09308714 0.00313466 0.00713033 0.01151168 0.00134707 
0.03835009 0.01054076 0.01414532 0.00203531 0.00163404 0.00235263 0.01122711 0.00581693 0.01924617 0.00353815 0.00332578 0.09284279 0.00323835 0.00716309 0.01154524 0.00134472 
0.03853565 0.01067155 0.01408943 0.00206250 0.00157656 0.00235775 0.01119946 0.00583989 0.01921182 0.00350984 0.00334861 0.09256330 0.00337467 0.00719937 0.01158103 0.00134190 
0.03871173 0.01083452 0.01402533 0.00208939 0.00151876 0.00236271 0.01116568 0.00585869 0.01918463 0.00347835 0.00336971 0.09225026 0.00354308 0.00723930 0.01161945 0.00133863 
0.03887641 0.01102936 0.01395253 0.00211586 0.00146086 0.00236741 0.01112591 0.00587342 0.01916447 0.00344373 0.00338905 0.09190555 0.00374287 0.00728305 0.01166089 0.00133488 
0.03902781 0.01125572 0.01387061 0.00214181 0.00140305 0.00237173 0.01108029 0.00588419 0.01915117 0.00340607 0.00340659 0.09153134 0.00397312 0.00733077 0.01170578 0.00133067 
0.03916408 0.01151314 0.01377922 0.00216716 0.00134554 0.00237556 0.01102897 0.00589110 0.01914457 0.00336543 0.00342228 0.09113007 0.00423277 0.00738262 0.01175452 0.00132599 
0.03928342 0.01180111 0.01367805 0.00219183 0.00128854 0.00237877 0.01097212 0.00589428 0.01914448 0.00332193 0.00343610 0.09070445 0.00452053 0.00743873 0.01180753 0.00132085 
0.03938411 0.01211902 0.01356684 0.00221576 0.00123225 0.00238126 0.01090990 0.00589388 0.01915069 0.00327566 0.00344804 0.09025747 0.00483500 0.00749927 0.01186522 0.00131524 
0.03946450 0.01246620 0.01344542 0.00223891 0.00117686 0.00238290 0.01084246 0.00589003 0.01916300 0.00322674 0.00345807 0.08979234 0.00517459 0.00756436 0.01192801 0.00130918 
0.03952304 0.01284188 0.01331368 0.00226124 0.00112256 0.00238359 0.01076998 0.00588291 0.01918120 0.00317531 0.00346620 0.08931252 0.00553756 0.00763414 0.01199630 0.00130268 
0.03955827 0.01324522 0.01317156 0.00228274 0.00106954 0.00238321 0.01069262 0.00587269 0.01920509 0.00312151 0.00347242 0.08882168 0.00592205 0.00770873 0.01207049 0.00129574 
0.03956888 0.01367530 0.01301908 0.00230340 0.00101797 0.00238166 0.01061056 0.00585953 0.01923446 0.00306548 0.00347673 0.08832368 0.00632607 0.00778825 0.01215097 0.00128838 
0.03955368 0.01413112 0.01285631 0.00232322 0.00096804 0.00237883 0.01052397 0.00584363 0.01926915 0.00300739 0.00347914 0.08782258 0.00674749 0.00787281 0.01223813 0.00128062 
0.03951161 0.01461160 0.01268340 0.00234223 0.00091989 0.00237463 0.01043301 0.00582517 0.01930898 0.00294740 0.00347968 0.08732256 0.00718411 0.00796251 0.01233231 0.00127247 
0.03944176 0.01511558 0.01250055 0.00236047 0.00087370 0.00236897 0.01033786 0.00580436 0.01935380 0.00288570 0.00347836 0.08682793 0.00763363 0.00805742 0.01243386 0.00126394 
0.03934341 0.01564183 0.01230804 0.00237796 0.00082960 0.00236176 0.01023869 0.00578139 0.01940349 0.00282246 0.00347520 0.08634311 0.00809367 0.00815761 0.01254310 0.00125507 
0.03921596 0.01618902 0.01210620 0.00239478 0.00078773 0.00235294 0.01013567 0.00575646 0.01945795 0.00275789 0.00347025 0.08587257 0.00856179 0.00826314 0.01266032 0.00124588 
0.03905903 0.01675577 0.01189542 0.00241098 0.00074821 0.00234243 0.01002896 0.00572978 0.01951712 0.00269217 0.00346351 0.08542081 0.00903550 0.00837403 0.01278580 0.00123639 
0.03887238 0.01734061 0.01167614 0.00242665 0.00071118 0.00233019 0.00991873 0.00570156 0.01958097 0.00262551 0.00345505 0.08499235 0.00951229 0.00849031 0.01291977 0.00122662 
0.03865595 0.01794200 0.01144885 0.00244187 0.00067672 0.00231617 0.00980514 0.00567199 0.01964949 0.00255813 0.00344489 0.08459165 0.00998962 0.00861197 0.01306243 0.00121662 
0.03840989 0.01855834 0.01121411 0.00245673 0.00064494 0.00230033 0.00968836 0.00564128 0.01972272 0.00249023 0.00343309 0.08422314 0.01046495 0.00873897 0.01321396 0.00120640 
0.03813450 0.01918795 0.01097251 0.00247133 0.00061592 0.00228266 0.00956854 0.00560964 0.01980074 0.00242203 0.00341967 0.08389112 0.01093575 0.00887127 0.01337448 0.00119601 
0.03783028 0.01982912 0.01072469 0.00248579 0.00058973 0.00226314 0.00944584 0.00557726 0.01988366 0.00235375 0.00340471 0.08359976 0.01139953 0.00900879 0.01354409 0.00118548 
0.03749788 0.02048004 0.01047131 0.00250022 0.00056644 0.00224178 0.00932041 0.00554434 0.01997164 0.00228561 0.00338824 0.08335307 0.01185382 0.00915142 0.01372283 0.00117484 
0.03713816 0.02113889 0.01021310 0.00251474 0.00054609 0.00221859 0.00919241 0.00551107 0.02006487 0.00221784 0.00337031 0.08315483 0.01229623 0.00929904 0.01391070 0.00116414 
0.03675212 0.02180378 0.00995079 0.00252946 0.00052871 0.00219360 0.00906200 0.00547765 0.02016359 0.00215064 0.00335099 0.08300862 0.01272442 0.00945148 0.01410765 0.00115340 
0.03634092 0.02247280 0.00968515 0.00254453 0.00051434 0.00216685 0.00892932 0.00544424 0.02026806 0.00208424 0.00333033 0.08291773 0.01313615 0.00960856 0.01431360 0.00114267 
0.03590591 0.02314398 0.00941696 0.00256006 0.00050298 0.00213839 0.00879452 0.00541104 0.02037858 0.00201886 0.00330839 0.08288514 0.01352924 0.00977004 0.01452839 0.00113200 
0.03544853 0.02381537 0.00914703 0.00257619 0.00049463 0.00210828 0.00865775 0.00537821 0.02049551 0.00195472 0.00328521 0.08291352 0.01390167 0.00993568 0.01475182 0.00112141 
0.03497039 0.02448497 0.00887617 0.00259304 0.00048930 0.00207662 0.00851916 0.00534591 0.02061922 0.00189202 0.00326087 0.08300516 0.01425149 0.01010519 0.01498366 0.00111096 
0.03447322 0.02515078 0.00860521 0.00261073 0.00048694 0.00204347 0.00837891 0.00531430 0.02075010 0.00183098 0.00323543 0.08316200 0.01457690 0.01027825 0.01522358 0.00110068 
0.03395885 0.02581081 0.00833497 0.00262941 0.00048753 0.00200896 0.00823713 0.00528354 0.02088859 0.00177180 0.00320894 0.08338554 0.01487624 0.01045451 0.01547125 0.00109062 
0.03342921 0.02646309 0.00806628 0.00264918 0.00049102 0.00197319 0.00809400 0.00525376 0.02103513 0.00171467 0.00318146 0.08367687 0.01514801 0.01063359 0.01572623 0.00108082 
0.03288632 0.02710564 0.00779994 0.00267016 0.00049735 0.00193629 0.00794966 0.00522510 0.02119021 0.00165978 0.00315306 0.08403663 0.01539082 0.01081507 0.01598807 0.00107131 
0.03233228 0.02773656 0.00753678 0.00269247 0.00050647 0.00189839 0.00780427 0.00519769 0.02135430 0.00160732 0.00312380 0.08446502 0.01560350 0.01099850 0.01625625 0.00106214 
0.03176921 0.02835396 0.00727758 0.00271621 0.00051828 0.00185963 0.00765800 0.00517164 0.02152790 0.00155745 0.00309375 0.08496176 0.01578500 0.01118341 0.01653019 0.00105335 
0.03119931 0.02895601 0.00702311 0.00274148 0.00053271 0.00182017 0.00751102 0.00514707 0.02171151 0.00151036 0.00306297 0.08552607 0.01593447 0.01136929 0.01680928 0.00104498 
0.03062478 0.02954095 0.00677413 0.00276836 0.00054965 0.00178016 0.00736348 0.00512408 0.02190562 0.00146618 0.00303151 0.08615673 0.01605123 0.01155560 0.01709283 0.00103706 
0.03004784 0.03010710 0.00653135 0.00279695 0.00056900 0.00173979 0.00721559 0.00510277 0.02211074 0.00142506 0.00299946 0.08685201 0.01613477 0.01174177 0.01738013 0.00102963 
0.02947068 0.03065286 0.00629548 0.00282730 0.00059064 0.00169921 0.00706751 0.00508322 0.02232734 0.00138715 0.00296688 0.08760969 0.01618476 0.01192723 0.01767041 0.00102272 
0.02889550 0.03117673 0.00606716 0.00285948 0.00061445 0.00165860 0.00691944 0.00506552 0.02255589 0.00135256 0.00293383 0.08842711 0.01620107 0.01211136 0.01796287 0.00101637 
0.02832445 0.03167732 0.00584702 0.00289354 0.00064030 0.00161816 0.00677158 0.00504973 0.02279684 0.00132139 0.00290038 0.08930113 0.01618373 0.01229352 0.01825664 0.00101060 
0.02775959 0.03215336 0.00563565 0.00292951 0.00066806 0.00157805 0.00662413 0.00503592 0.02305059 0.00129376 0.00286661 0.09022814 0.01613294 0.01247307 0.01855084 0.00100544 
0.02720297 0.03260371 0.00543359 0.00296743 0.00069757 0.00153848 0.00647732 0.00502414 0.02331752 0.00126974 0.00283258 0.09120411 0.01604911 0.01264935 0.01884455 0.00100091 
0.02665652 0.03302736 0.00524134 0.00300729 0.00072868 0.00149962 0.00633136 0.00501444 0.02359799 0.00124941 0.00279837 0.09222462 0.01593277 0.01282169 0.01913681 0.00099705 
0.02612206 0.03342345 0.00505936 0.00304910 0.00076125 0.00146166 0.00618649 0.00500687 0.02389227 0.00123281 0.00276404 0.09328482 0.01578467 0.01298939 0.01942665 0.00099385 
0.02560134 0.03379128 0.00488804 0.00309285 0.00079510 0.00142479 0.00604294 0.00500146 0.02420061 0.00122001 0.00272968 0.09437952 0.01560567 0.01315177 0.01971307 0.00099135 
0.02509595 0.03413032 0.00472776 0.00313850 0.00083008 0.00138918 0.00590098 0.00499823 0.02452319 0.00121101 0.00269536 0.09550320 0.01539681 0.01330814 0.01999504 0.00098956 
0.02460736 0.03444018 0.00457882 0.00318601 0.00086602 0.00135502 0.00576087 0.00499721 0.02486014 0.00120584 0.00266116 0.09665003 0.01515928 0.01345783 0.02027153 0.00098848 
0.02413690 0.03472067 0.00444149 0.00323532 0.00090274 0.00132246 0.00562286 0.00499839 0.02521151 0.00120449 0.00262716 0.09781393 0.01489438 0.01360014 0.02054151 0.00098811 
0.02368573 0.03497177 0.00431598 0.00328637 0.00094008 0.00129169 0.00548724 0.00500180 0.02557727 0.00120695 0.00259344 0.09898859 0.01460356 0.01373442 0.02080394 0.00098847 
0.02325487 0.03519364 0.00420244 0.00333906 0.00097785 0.00126285 0.00535431 0.00500743 0.02595733 0.00121319 0.00256009 0.10016751 0.01428839 0.01386000 0.02105776 0.00098955 
0.02284515 0.03538663 0.00410099 0.00339330 0.00101589 0.00123609 0.00522434 0.00501527 0.02635151 0.00122315 0.00252718 0.10134406 0.01395052 0.01397628 0.02130195 0.00099135 
0.02245723 0.03555126 0.00401170 0.00344898 0.00105401 0.00121155 0.00509765 0.00502530 0.02675955 0.00123678 0.00249481 0.10251152 0.01359172 0.01408262 0.02153548 0.00099385 
0.02209161 0.03568825 0.00393458 0.00350596 0.00109205 0.00118936 0.00497455 0.00503750 0.02718109 0.00125400 0.00246306 0.10366309 0.01321385 0.01417847 0.02175736 0.00099705 
0.02174857 0.03579849 0.00386960 0.00356412 0.00112983 0.00116963 0.00485535 0.00505184 0.02761569 0.00127471 0.00243202 0.10479201 0.01281881 0.01426328 0.02196660 0.00100094 
0.02142825 0.03588306 0.00381668 0.00362330 0.00116717 0.00115247 0.00474038 0.00506828 0.02806280 0.00129882 0.00240179 0.10589154 0.01240860 0.01433654 0.02216225 0.00100548 
0.02113057 0.03594321 0.00377570 0.00368335 0.00120392 0.00113796 0.00462996 0.00508678 0.02852179 0.00132619 0.00237244 0.10695503 0.01198524 0.01439779 0.02234340 0.00101067 
0.02085528 0.03598037 0.00374650 0.00374408 0.00123990 0.00112619 0.00452441 0.00510730 0.02899192 0.00135669 0.00234409 0.10797598 0.01155080 0.01444661 0.02250916 0.00101648 
0.02060196 0.03599612 0.00372886 0.00380533 0.00127496 0.00111722 0.00442408 0.00512977 0.02947237 0.00139018 0.00231681 0.10894807 0.01110737 0.01448263 0.02265871 0.00102288 
0.02037001 0.03599219 0.00372256 0.00386689 0.00130894 0.00111109 0.00432928 0.00515412 0.02996220 0.00142649 0.00229071 0.10986525 0.01065706 0.01450555 0.02279126 0.00102983 
0.02015865 0.03597048 0.00372730 0.00392857 0.00134168 0.00110784 0.00424036 0.00518029 0.03046039 0.00146545 0.00226588 0.11072171 0.01020196 0.01451511 0.02290607 0.00103731 
0.01996693 0.03593299 0.00374277 0.00399017 0.00137305 0.00110748 0.00415763 0.00520821 0.03096580 0.00150688 0.00224240 0.11151199 0.00974416 0.01451112 0.02300249 0.00104528 
0.01979378 0.03588189 0.00376862 0.00405148 0.00140290 0.00111001 0.00408143 0.00523777 0.03147722 0.00155057 0.00222038 0.11223101 0.00928573 0.01449344 0.02307990 0.00105370 
0.01963793 0.03581941 0.00380449 0.00411228 0.00143110 0.00111543 0.00401207 0.00526890 0.03199332 0.00159632 0.00219991 0.11287408 0.00882870 0.01446201 0.02313777 0.00106253 
0.01949803 0.03574791 0.00384997 0.00417235 0.00145754 0.00112369 0.00394986 0.00530150 0.03251272 0.00164392 0.00218108 0.11343698 0.00837505 0.01441685 0.02317562 0.00107173 
0.01937256 0.03566981 0.00390463 0.00423147 0.00148209 0.00113475 0.00389509 0.00533545 0.03303390 0.00169313 0.00216397 0.11391598 0.00792672 0.01435802 0.02319306 0.00108126 
0.01925992 0.03558761 0.00396802 0.00428943 0.00150466 0.00114856 0.00384807 0.00537065 0.03355530 0.00174373 0.00214868 0.11430786 0.00748555 0.01428568 0.02318977 0.00109107 
0.01915838 0.03550386 0.00403969 0.00434598 0.00152513 0.00116502 0.00380907 0.00540697 0.03407528 0.00179547 0.00213529 0.11460996 0.00705334 0.01420006 0.02316552 0.00110111 
0.01906615 0.03542113 0.00411914 0.00440093 0.00154344 0.00118406 0.00377834 0.00544429 0.03459210 0.00184811 0.00212388 0.11482020 0.00663179 0.01410145 0.02312016 0.00111134 
0.01898136 0.03534200 0.00420589 0.00445404 0.00155949 0.00120556 0.00375613 0.00548249 0.03510399 0.00190140 0.00211453 0.11493709 0.00622249 0.01399022 0.02305361 0.00112170 
0.01890209 0.03526907 0.00429942 0.00450511 0.00157324 0.00122940 0.00374268 0.00552141 0.03560910 0.00195508 0.00210732 0.11495977 0.00582696 0.01386683 0.02296590 0.00113216 
0.01882638 0.03520488 0.00439924 0.00455392 0.00158461 0.00125545 0.00373818 0.00556092 0.03610554 0.00200890 0.00210230 0.11488802 0.00544660 0.01373180 0.02285712 0.00114267 
0.01875225 0.03515196 0.00450482 0.00460027 0.00159357 0.00128357 0.00374281 0.00560087 0.03659137 0.00206260 0.00209955 0.11472226 0.00508269 0.01358573 0.02272747 0.00115318 
0.01867771 0.03511277 0.00461564 0.00464397 0.00160009 0.00131360 0.00375675 0.00564109 0.03706464 0.00211591 0.00209913 0.11446354 0.00473640 0.01342927 0.02257723 0.00116364 
0.01860080 0.03508968 0.00473118 0.00468483 0.00160414 0.00134536 0.00378011 0.00568143 0.03752334 0.00216859 0.00210108 0.11411360 0.00440879 0.01326317 0.02240677 0.00117401 
0.01851957 0.03508497 0.00485092 0.00472267 0.00160572 0.00137869 0.00381301 0.00572173 0.03796549 0.00222037 0.00210545 0.11367481 0.00410078 0.01308823 0.02221653 0.00118425 
0.01843212 0.03510081 0.00497436 0.00475733 0.00160483 0.00141340 0.00385552 0.00576181 0.03838907 0.00227100 0.00211228 0.11315018 0.00381316 0.01290531 0.02200705 0.00119431 
0.01833664 0.03513923 0.00510099 0.00478864 0.00160149 0.00144929 0.00390769 0.00580150 0.03879209 0.00232024 0.00212160 0.11254336 0.00354660 0.01271532 0.02177895 0.00120416 
0.01823137 0.03520211 0.00523031 0.00481647 0.00159572 0.00148617 0.00396954 0.00584063 0.03917257 0.00236783 0.00213342 0.11185859 0.00330163 0.01251926 0.02153293 0.00121375 
0.01811466 0.03529118 0.00536183 0.00484070 0.00158758 0.00152383 0.00404104 0.00587901 0.03952856 0.00241356 0.00214777 0.11110073 0.00307867 0.01231813 0.02126977 0.00122305 
0.01798498 0.03540796 0.00549508 0.00486119 0.00157710 0.00156206 0.00412214 0.00591646 0.03985818 0.00245717 0.00216463 0.11027519 0.00287799 0.01211303 0.02099031 0.00123203 
0.01784093 0.03555381 0.00562960 0.00487786 0.00156435 0.00160066 0.00421277 0.00595281 0.04015955 0.00249847 0.00218401 0.10938791 0.00269975 0.01190504 0.02069547 0.00124066 
0.01768125 0.03572985 0.00576495 0.00489062 0.00154942 0.00163942 0.00431279 0.00598786 0.04043090 0.00253724 0.00220589 0.10844534 0.00254396 0.01169533 0.02038624 0.00124891 
0.01750484 0.03593700 0.00590070 0.00489940 0.00153238 0.00167812 0.00442205 0.00602144 0.04067053 0.00257328 0.00223024 0.10745440 0.00241053 0.01148505 0.02006367 0.00125676 
0.01731076 0.03617595 0.00603644 0.00490415 0.00151334 0.00171655 0.00454037 0.00605337 0.04087682 0.00260641 0.00225702 0.10642241 0.00229924 0.01127540 0.01972886 0.00126419 
0.01709828 0.03644715 0.00617179 0.00490483 0.00149241 0.00175452 0.00466750 0.00608346 0.04104826 0.00263646 0.00228618 0.10535709 0.00220976 0.01106758 0.01938295 0.00127117 
0.01686683 0.03675080 0.00630636 0.00490143 0.00146970 0.00179181 0.00480319 0.00611154 0.04118344 0.00266327 0.00231766 0.10426647 0.00214165 0.01086280 0.01902716 0.00127770 
0.01661607 0.03708686 0.00643983 0.00489394 0.00144535 0.00182824 0.00494713 0.00613743 0.04128109 0.00268671 0.00235139 0.10315888 0.00209436 0.01066227 0.01866270 0.00128377 
0.01634586 0.03745503 0.00657185 0.00488237 0.00141950 0.00186361 0.00509899 0.00616097 0.04134007 0.00270663 0.00238729 0.10204285 0.00206725 0.01046718 0.01829086 0.00128936 
0.01605630 0.03785475 0.00670213 0.00486676 0.00139229 0.00189774 0.00525839 0.00618200 0.04135938 0.00272295 0.00242525 0.10092709 0.00205959 0.01027873 0.01791293 0.00129447 
0.01574768 0.03828520 0.00683038 0.00484715 0.00136387 0.00193047 0.00542494 0.00620035 0.04133817 0.00273556 0.00246518 0.09982045 0.00207054 0.01009807 0.01753023 0.00129911 
0.01542054 0.03874531 0.00695635 0.00482362 0.00133442 0.00196164 0.00559820 0.00621588 0.04127578 0.00274440 0.00250696 0.09873180 0.00209921 0.00992632 0.01714409 0.00130328 
0.01507566 0.03923376 0.00707980 0.00479623 0.00130411 0.00199108 0.00577769 0.00622845 0.04117169 0.00274941 0.00255045 0.09767003 0.00214464 0.00976459 0.01675584 0.00130697 
0.01471404 0.03974898 0.00720052 0.00476509 0.00127310 0.00201868 0.00596293 0.00623793 0.04102557 0.00275055 0.00259552 0.09664397 0.00220578 0.00961392 0.01636682 0.00131021 
0.01433692 0.04028915 0.00731832 0.00473030 0.00124159 0.00204430 0.00615338 0.00624419 0.04083730 0.00274781 0.00264202 0.09566231 0.00228156 0.00947529 0.01597837 0.00131301 
0.01394576 0.04085222 0.00743304 0.00469199 0.00120975 0.00206784 0.00634850 0.00624714 0.04060692 0.00274120 0.00268979 0.09473358 0.00237083 0.00934964 0.01559180 0.00131537 
0.01354226 0.04143592 0.00754452 0.00465030 0.00117777 0.00208921 0.00654771 0.00624666 0.04033469 0.00273073 0.00273866 0.09386608 0.00247242 0.00923784 0.01520842 0.00131733 
0.01312834 0.04203777 0.00765266 0.00460538 0.00114585 0.00210832 0.00675042 0.00624267 0.04002104 0.00271646 0.00278845 0.09306781 0.00258513 0.00914068 0.01482950 0.00131889 
0.01270614 0.04265507 0.00775734 0.00455738 0.00111419 0.00212513 0.00695601 0.00623512 0.03966666 0.00269844 0.00283898 0.09234642 0.00270773 0.00905887 0.01445628 0.00132009 
0.01227799 0.04328495 0.00785850 0.00450648 0.00108296 0.00213958 0.00716385 0.00622393 0.03927238 0.00267677 0.00289004 0.09170918 0.00283898 0.00899305 0.01408997 0.00132094 
0.01184645 0.04392439 0.00795608 0.00445287 0.00105238 0.00215166 0.00737329 0.00620907 0.03883929 0.00265153 0.00294145 0.09116289 0.00297764 0.00894377 0.01373174 0.00132148 
0.01141424 0.04457017 0.00805004 0.00439673 0.00102262 0.00216135 0.00758369 0.00619051 0.03836864 0.00262285 0.00299300 0.09071389 0.00312245 0.00891146 0.01338270 0.00132174 
0.01098426 0.04521898 0.00814036 0.00433826 0.00099388 0.00216867 0.00779438 0.00616825 0.03786193 0.00259087 0.00304447 0.09036793 0.00327218 0.00889649 0.01304391 0.00132174 
0.01055957 0.04586737 0.00822705 0.00427768 0.00096635 0.00217364 0.00800469 0.00614230 0.03732083 0.00255575 0.00309564 0.09013024 0.00342561 0.00889910 0.01271639 0.00132152 
0.01014339 0.04651181 0.00831012 0.00421518 0.00094021 0.00217632 0.00821396 0.00611268 0.03674720 0.00251767 0.00314630 0.09000540 0.00358154 0.00891945 0.01240107 0.00132111 
0.00973905 0.04714869 0.00838962 0.00415098 0.00091563 0.00217677 0.00842152 0.00607944 0.03614311 0.00247680 0.00319623 0.08999735 0.00373880 0.00895759 0.01209885 0.00132054 
0.00934999 0.04777435 0.00846560 0.00408530 0.00089278 0.00217507 0.00862672 0.00604264 0.03551081 0.00243337 0.00324521 0.09010936 0.00389627 0.00901346 0.01181053 0.00131985 
0.00897976 0.04838510 0.00853813 0.00401837 0.00087184 0.00217132 0.00882891 0.00600236 0.03485271 0.00238758 0.00329301 0.09034400 0.00405284 0.00908689 0.01153685 0.00131906 
0.00863196 0.04897726 0.00860730 0.00395040 0.00085294 0.00216565 0.00902745 0.00595871 0.03417141 0.00233967 0.00333941 0.09070313 0.00420748 0.00917761 0.01127849 0.00131822 
0.00831026 0.04954714 0.00867320 0.00388161 0.00083625 0.00215817 0.00922172 0.00591180 0.03346964 0.00228989 0.00338420 0.09118787 0.00435919 0.00928525 0.01103605 0.00131735 
0.00801833 0.05009111 0.00873595 0.00381223 0.00082190 0.00214905 0.00941113 0.00586178 0.03275029 0.00223850 0.00342715 0.09179859 0.00450705 0.00940932 0.01081003 0.00131648 
0.00775988 0.05060561 0.00879567 0.00374246 0.00081001 0.00213844 0.00959508 0.00580880 0.03201638 0.00218575 0.00346807 0.09253496 0.00465018 0.00954925 0.01060089 0.00131565 
0.00753859 0.05108716 0.00885249 0.00367254 0.00080070 0.00212653 0.00977304 0.00575304 0.03127105 0.00213193 0.00350675 0.09339585 0.00478777 0.00970435 0.01040899 0.00131489 
0.00735809 0.05153238 0.00890657 0.00360266 0.00079407 0.00211350 0.00994448 0.00569469 0.03051754 0.00207732 0.00354298 0.09437943 0.00491909 0.00987385 0.01023461 0.00131421 
0.00722196 0.05193805 0.00895806 0.00353303 0.00079022 0.00209956 0.01010892 0.00563396 0.02975918 0.00202221 0.00357659 0.09548314 0.00504345 0.01005689 0.01007798 0.00131365 
0.00713369 0.05230108 0.00900712 0.00346385 0.00078922 0.00208491 0.01026589 0.00557108 0.02899937 0.00196688 0.00360740 0.09670370 0.00516026 0.01025251 0.00993921 0.00131324 
0.00709666 0.05261857 0.00905394 0.00339532 0.00079113 0.00206979 0.01041498 0.00550631 0.02824158 0.00191163 0.00363524 0.09803714 0.00526900 0.01045969 0.00981839 0.00131298 
0.00711411 0.05288783 0.00909868 0.00332761 0.00079600 0.00205441 0.01055582 0.00543989 0.02748930 0.00185676 0.00365995 0.09947883 0.00536921 0.01067732 0.00971548 0.00131291 
0.00718912 0.05310636 0.00914153 0.00326091 0.00080387 0.00203902 0.01068806 0.00537210 0.02674605 0.00180256 0.00368140 0.10102351 0.00546052 0.01090422 0.00963043 0.00131303 
0.00732461 0.05327192 0.00918269 0.00319539 0.00081476 0.00202385 0.01081143 0.00530325 0.02601537 0.00174933 0.00369944 0.10266529 0.00554262 0.01113917 0.00956306 0.00131337 
0.00752327 0.05338251 0.00922235 0.00313121 0.00082867 0.00200916 0.01092567 0.00523362 0.02530076 0.00169735 0.00371398 0.10439774 0.00561529 0.01138088 0.00951318 0.00131392 
0.00778758 0.05343641 0.00926071 0.00306851 0.00084560 0.00199518 0.01103060 0.00516354 0.02460572 0.00164691 0.00372492 0.10621391 0.00567836 0.01162802 0.00948050 0.00131471 
0.00811977 0.05343216 0.00929798 0.00300743 0.00086552 0.00198217 0.01112607 0.00509333 0.02393366 0.00159828 0.00373216 0.10810634 0.00573176 0.01187923 0.00946469 0.00131574 
0.00852181 0.05336862 0.00933434 0.00294812 0.00088838 0.00197036 0.01121198 0.00502332 0.02328795 0.00155173 0.00373566 0.11006715 0.00577546 0.01213310 0.00946536 0.00131700 
0.00899538 0.05324495 0.00937002 0.00289070 0.00091413 0.00196002 0.01128828 0.00495386 0.02267187 0.00150753 0.00373535 0.11208809 0.00580952 0.01238823 0.00948208 0.00131850 
0.00954186 0.05306062 0.00940522 0.00283526 0.00094271 0.00195136 0.01135499 0.00488530 0.02208859 0.00146593 0.00373123 0.11416055 0.00583405 0.01264318 0.00951434 0.00132024 
0.01016231 0.05281543 0.00944013 0.00278192 0.00097402 0.00194462 0.01141217 0.00481799 0.02154116 0.00142715 0.00372327 0.11627567 0.00584923 0.01289654 0.00956164 0.00132222 
0.01085746 0.05250952 0.00947497 0.00273077 0.00100797 0.00194004 0.01145991 0.00475229 0.02103249 0.00139143 0.00371148 0.11842433 0.00585529 0.01314688 0.00962338 0.00132441 
0.01162770 0.05214334 0.00950992 0.00268188 0.00104444 0.00193782 0.01149837 0.00468856 0.02056534 0.00135897 0.00369591 0.12059728 0.00585252 0.01339279 0.00969897 0.00132681 
0.01247305 0.05171769 0.00954520 0.00263534 0.00108331 0.00193817 0.01152778 0.00462715 0.02014229 0.00132997 0.00367659 0.12278513 0.00584126 0.01363291 0.00978778 0.00132942 
0.01339317 0.05123372 0.00958099 0.00259121 0.00112443 0.00194128 0.01154837 0.00456843 0.01976575 0.00130460 0.00365359 0.12497846 0.00582189 0.01386587 0.00988914 0.00133220 
0.01438736 0.05069289 0.00961747 0.00254953 0.00116766 0.00194734 0.01156046 0.00451275 0.01943792 0.00128301 0.00362700 0.12716782 0.00579484 0.01409039 0.01000236 0.00133515 
0.01545451 0.05009699 0.00965484 0.00251036 0.00121283 0.00195650 0.01156439 0.00446045 0.01916080 0.00126536 0.00359693 0.12934384 0.00576058 0.01430520 0.01012675 0.00133824 
0.01659314 0.04944817 0.00969326 0.00247374 0.00125976 0.00196892 0.01156054 0.00441187 0.01893615 0.00125175 0.00356349 0.13149728 0.00571959 0.01450911 0.01026158 0.00134146 
0.01780141 0.04874885 0.00973291 0.00243969 0.00130828 0.00198472 0.01154935 0.00436735 0.01876551 0.00124229 0.00352684 0.13361903 0.00567240 0.01470099 0.01040613 0.00134478 
0.01907707 0.04800178 0.00977393 0.00240824 0.00135818 0.00200403 0.01153127 0.00432720 0.01865018 0.00123706 0.00348713 0.13570024 0.00561956 0.01487978 0.01055965 0.00134817 
0.02041749 0.04721000 0.00981649 0.00237941 0.00140928 0.00202692 0.01150680 0.00429173 0.01859121 0.00123611 0.00344453 0.13773231 0.00556164 0.01504450 0.01072141 0.00135161 
0.02181966 0.04637684 0.00986071 0.00235321 0.00146136 0.00205348 0.01147648 0.00426123 0.01858937 0.00123948 0.00339924 0.13970695 0.00549921 0.01519426 0.01089067 0.00135508 
0.02328023 0.04550588 0.00990673 0.00232964 0.00151420 0.00208375 0.01144085 0.00423597 0.01864520 0.00124719 0.00335146 0.14161627 0.00543287 0.01532824 0.01106668 0.00135854 
0.02479547 0.04460096 0.00995466 0.00230871 0.00156760 0.00211776 0.01140049 0.00421620 0.01875896 0.00125923 0.00330141 0.14345276 0.00536321 0.01544573 0.01124870 0.00136197 
0.02636130 0.04366615 0.01000460 0.00229041 0.00162132 0.00215553 0.01135600 0.00420217 0.01893064 0.00127557 0.00324932 0.14520937 0.00529082 0.01554613 0.01143602 0.00136535 
0.02797332 0.04270571 0.01005665 0.00227474 0.00167514 0.00219704 0.01130798 0.00419407 0.01915997 0.00129616 0.00319543 0.14687953 0.00521631 0.01562892 0.01162791 0.00136864 
0.02962680 0.04172412 0.01011087 0.00226168 0.00172884 0.00224224 0.01125705 0.00419211 0.01944639 0.00132093 0.00314000 0.14845718 0.00514026 0.01569368 0.01182367 0.00137182 
0.03131673 0.04072599 0.01016732 0.00225124 0.00178220 0.00229108 0.01120385 0.00419643 0.01978911 0.00134979 0.00308327 0.14993682 0.00506323 0.01574013 0.01202260 0.00137486 
0.03303781 0.03971610 0.01022606 0.00224338 0.00183497 0.00234346 0.01114899 0.00420718 0.02018704 0.00138263 0.00302553 0.15131352 0.00498580 0.01576805 0.01222403 0.00137774 
0.03478448 0.03869933 0.01028709 0.00223809 0.00188695 0.00239930 0.01109311 0.00422447 0.02063886 0.00141931 0.00296704 0.15258294 0.00490850 0.01577737 0.01242729 0.00138044 
0.03655096 0.03768063 0.01035044 0.00223537 0.00193792 0.00245844 0.01103681 0.00424836 0.02114298 0.00145969 0.00290807 0.15374133 0.00483186 0.01576811 0.01263174 0.00138294 
0.03833126 0.03666505 0.01041610 0.00223519 0.00198765 0.00252074 0.01098072 0.00427890 0.02169760 0.00150359 0.00284890 0.15478560 0.00475637 0.01574039 0.01283675 0.00138521 
0.04011921 0.03565765 0.01048403 0.00223753 0.00203594 0.00258603 0.01092541 0.00431611 0.02230063 0.00155083 0.00278982 0.15571325 0.00468251 0.01569444 0.01304173 0.00138724 
0.04190848 0.03466349 0.01055419 0.00224237 0.00208259 0.00265411 0.01087146 0.00435997 0.02294982 0.00160120 0.00273109 0.15652245 0.00461071 0.01563059 0.01324607 0.00138901 
0.04369265 0.03368761 0.01062651 0.00224970 0.00212740 0.00272475 0.01081942 0.00441043 0.02364266 0.00165450 0.00267298 0.15721199 0.00454140 0.01554927 0.01344923 0.00139051 
0.04546517 0.03273502 0.01070092 0.00225949 0.00217019 0.00279774 0.01076980 0.00446739 0.02437646 0.00171048 0.00261578 0.15778129 0.00447495 0.01545102 0.01365065 0.00139173 
0.04721948 0.03181061 0.01077730 0.00227173 0.00221077 0.00287281 0.01072309 0.00453075 0.02514836 0.00176890 0.00255973 0.15823041 0.00441172 0.01533644 0.01384980 0.00139266 
0.04894894 0.03091918 0.01085554 0.00228641 0.00224899 0.00294969 0.01067975 0.00460033 0.02595530 0.00182951 0.00250510 0.15856002 0.00435201 0.01520625 0.01404620 0.00139330 
0.05064698 0.03006540 0.01093549 0.00230349 0.00228469 0.00302810 0.01064020 0.00467596 0.02679409 0.00189205 0.00245213 0.15877137 0.00429611 0.01506121 0.01423935 0.00139364 
0.05230702 0.02925377 0.01101699 0.00232296 0.00231774 0.00310774 0.01060480 0.00475741 0.02766139 0.00195622 0.00240105 0.15886634 0.00424427 0.01490220 0.01442880 0.00139369 
0.05392260 0.02848857 0.01109986 0.00234480 0.00234799 0.00318829 0.01057388 0.00484441 0.02855373 0.00202177 0.00235209 0.15884732 0.00419670 0.01473013 0.01461410 0.00139345 
0.05548734 0.02777390 0.01118391 0.00236900 0.00237535 0.00326943 0.01054774 0.00493669 0.02946757 0.00208839 0.00230546 0.15871728 0.00415356 0.01454599 0.01479484 0.00139293 
0.05699502 0.02711358 0.01126891 0.00239553 0.00239970 0.00335082 0.01052661 0.00503390 0.03039926 0.00215581 0.00226136 0.15847967 0.00411502 0.01435083 0.01497061 0.00139214 
0.05843961 0.02651118 0.01135463 0.00242437 0.00242096 0.00343214 0.01051068 0.00513571 0.03134509 0.00222371 0.00221996 0.15813845 0.00408116 0.01414572 0.01514105 0.00139109 
0.05981526 0.02596998 0.01144082 0.00245550 0.00243907 0.00351302 0.01050008 0.00524171 0.03230130 0.00229182 0.00218143 0.15769800 0.00405208 0.01393179 0.01530580 0.00138980 
0.06111641 0.02549294 0.01152722 0.00248889 0.00245397 0.00359311 0.01049491 0.00535149 0.03326410 0.00235982 0.00214591 0.15716313 0.00402782 0.01371021 0.01546451 0.00138829 
0.06233773 0.02508269 0.01161354 0.00252452 0.00246563 0.00367207 0.01049519 0.00546461 0.03422970 0.00242745 0.00211353 0.15653903 0.00400839 0.01348213 0.01561686 0.00138659 
0.06347423 0.02474149 0.01169950 0.00256236 0.00247401 0.00374955 0.01050091 0.00558059 0.03519432 0.00249439 0.00208440 0.15583124 0.00399379 0.01324877 0.01576258 0.00138471 
0.06452122 0.02447127 0.01178479 0.00260236 0.00247912 0.00382518 0.01051200 0.00569895 0.03615420 0.00256038 0.00205861 0.15504559 0.00398397 0.01301132 0.01590137 0.00138269 
0.06547442 0.02427354 0.01186909 0.00264450 0.00248096 0.00389863 0.01052835 0.00581917 0.03710563 0.00262512 0.00203623 0.15418817 0.00397888 0.01277098 0.01603299 0.00138055 
0.06632988 0.02414945 0.01195209 0.00268873 0.00247957 0.00396954 0.01054977 0.00594070 0.03804496 0.00268836 0.00201731 0.15326531 0.00397843 0.01252893 0.01615719 0.00137834 
0.06708410 0.02409973 0.01203344 0.00273501 0.00247498 0.00403760 0.01057606 0.00606301 0.03896862 0.00274983 0.00200187 0.15228350 0.00398251 0.01228637 0.01627378 0.00137608 
0.06773401 0.02412469 0.01211282 0.00278327 0.00246725 0.00410246 0.01060694 0.00618552 0.03987315 0.00280928 0.00198993 0.15124941 0.00399101 0.01204442 0.01638255 0.00137381 
0.06827696 0.02422424 0.01218989 0.00283347 0.00245646 0.00416383 0.01064212 0.00630765 0.04075520 0.00286648 0.00198147 0.15016976 0.00400379 0.01180422 0.01648333 0.00137157 
0.06871080 0.02439788 0.01226429 0.00288553 0.00244269 0.00422139 0.01068123 0.00642882 0.04161154 0.00292119 0.00197647 0.14905137 0.00402069 0.01156684 0.01657599 0.00136940 
0.06903384 0.02464467 0.01233569 0.00293937 0.00242604 0.00427487 0.01072389 0.00654843 0.04243908 0.00297320 0.00197487 0.14790105 0.00404156 0.01133333 0.01666039 0.00136734 
0.06924490 0.02496326 0.01240376 0.00299493 0.00240662 0.00432399 0.01076968 0.00666589 0.04323489 0.00302232 0.00197660 0.14672561 0.00406623 0.01110466 0.01673645 0.00136544 
0.06934330 0.02535190 0.01246814 0.00305211 0.00238457 0.00436851 0.01081813 0.00678061 0.04399623 0.00306837 0.00198158 0.14553180 0.00409451 0.01088176 0.01680407 0.00136372 
0.06932885 0.02580843 0.01252852 0.00311081 0.00236002 0.00440819 0.01086875 0.00689200 0.04472050 0.00311117 0.00198970 0.14432625 0.00412623 0.01066552 0.01686323 0.00136224 
0.06920191 0.02633029 0.01258457 0.00317092 0.00233312 0.00444282 0.01092104 0.00699948 0.04540530 0.00315059 0.00200083 0.14311549 0.00416120 0.01045672 0.01691388 0.00136104 
0.06896332 0.02691454 0.01263597 0.00323232 0.00230404 0.00447222 0.01097445 0.00710246 0.04604845 0.00318648 0.00201484 0.14190585 0.00419923 0.01025610 0.01695604 0.00136016 
0.06861445 0.02755787 0.01268242 0.00329490 0.00227294 0.00449621 0.01102844 0.00720041 0.04664794 0.00321874 0.00203158 0.14070349 0.00424016 0.01006433 0.01698974 0.00135964 
0.06815718 0.02825664 0.01272364 0.00335852 0.00223999 0.00451466 0.01108245 0.00729277 0.04720199 0.00324727 0.00205088 0.13951431 0.00428378 0.00988198 0.01701503 0.00135952 
0.06759388 0.02900684 0.01275936 0.00342303 0.00220539 0.00452746 0.01113589 0.00737903 0.04770902 0.00327200 0.00207256 0.13834398 0.00432994 0.00970957 0.01703200 0.00135983 
0.06692743 0.02980420 0.01278930 0.00348828 0.00216933 0.00453450 0.01118820 0.00745871 0.04816769 0.00329286 0.00209643 0.13719785 0.00437845 0.00954751 0.01704077 0.00136061 
0.06616118 0.03064411 0.01281325 0.00355410 0.00213199 0.00453574 0.01123880 0.00753132 0.04857684 0.00330982 0.00212229 0.13608099 0.00442917 0.00939614 0.01704149 0.00136191 
0.06529893 0.03152174 0.01283097 0.00362033 0.00209358 0.00453112 0.01128711 0.00759644 0.04893557 0.00332287 0.00214994 0.13499810 0.00448193 0.00925574 0.01703432 0.00136374 
0.06434495 0.03243200 0.01284228 0.00368678 0.00205431 0.00452064 0.01133258 0.00765366 0.04924318 0.00333199 0.00217915 0.13395356 0.00453660 0.00912648 0.01701947 0.00136614 
0.06330392 0.03336962 0.01284699 0.00375326 0.00201436 0.00450432 0.01137465 0.00770263 0.04949919 0.00333720 0.00220973 0.13295136 0.00459305 0.00900844 0.01699718 0.00136914 
0.06218093 0.03432913 0.01284497 0.00381959 0.00197396 0.00448220 0.01141281 0.00774301 0.04970333 0.00333855 0.00224143 0.13199511 0.00465115 0.00890166 0.01696772 0.00137275 
0.06098146 0.03530493 0.01283607 0.00388555 0.00193330 0.00445435 0.01144653 0.00777452 0.04985555 0.00333607 0.00227403 0.13108800 0.00471079 0.00880607 0.01693136 0.00137700 
0.05971132 0.03629132 0.01282020 0.00395093 0.00189258 0.00442086 0.01147534 0.00779692 0.04995601 0.00332985 0.00230731 0.13023284 0.00477187 0.00872152 0.01688844 0.00138191 
0.05837666 0.03728250 0.01279729 0.00401553 0.00185200 0.00438186 0.01149878 0.00781001 0.05000505 0.00331997 0.00234105 0.12943200 0.00483432 0.00864781 0.01683931 0.00138749 
0.05698392 0.03827264 0.01276729 0.00407912 0.00181175 0.00433750 0.01151644 0.00781365 0.05000322 0.00330653 0.00237501 0.12868744 0.00489805 0.00858465 0.01678433 0.00139375 
0.05553982 0.03925591 0.01273018 0.00414147 0.00177203 0.00428795 0.01152793 0.00780775 0.04995124 0.00328964 0.00240899 0.12800068 0.00496302 0.00853169 0.01672392 0.00140069 
0.05405129 0.04022651 0.01268596 0.00420236 0.00173301 0.00423341 0.01153291 0.00779225 0.04985004 0.00326944 0.00244277 0.12737284 0.00502915 0.00848852 0.01665850 0.00140831 
0.05252546 0.04117869 0.01263466 0.00426156 0.00169487 0.00417410 0.01153107 0.00776716 0.04970067 0.00324607 0.00247613 0.12680458 0.00509643 0.00845465 0.01658851 0.00141662 
0.05096963 0.04210681 0.01257635 0.00431884 0.00165778 0.00411025 0.01152216 0.00773254 0.04950438 0.00321968 0.00250889 0.12629617 0.00516481 0.00842958 0.01651444 0.00142560 
0.04939123 0.04300537 0.01251112 0.00437397 0.00162189 0.00404213 0.01150597 0.00768849 0.04926254 0.00319044 0.00254085 0.12584746 0.00523427 0.00841272 0.01643677 0.00143524 
0.04779776 0.04386903 0.01243906 0.00442673 0.00158736 0.00397001 0.01148234 0.00763519 0.04897666 0.00315853 0.00257183 0.12545791 0.00530482 0.00840345 0.01635601 0.00144553 
0.04619680 0.04469268 0.01236033 0.00447690 0.00155432 0.00389420 0.01145114 0.00757283 0.04864839 0.00312413 0.00260167 0.12512657 0.00537644 0.00840112 0.01627268 0.00145645 
0.04459592 0.04547141 0.01227509 0.00452424 0.00152289 0.00381501 0.01141232 0.00750169 0.04827947 0.00308743 0.00263020 0.12485213 0.00544914 0.00840505 0.01618732 0.00146797 
0.04300270 0.04620061 0.01218351 0.00456856 0.00149320 0.00373277 0.01136586 0.00742209 0.04787177 0.00304863 0.00265728 0.12463291 0.00552293 0.00841451 0.01610048 0.00148007 
0.04142464 0.04687597 0.01208581 0.00460964 0.00146535 0.00364781 0.01131180 0.00733439 0.04742722 0.00300793 0.00268279 0.12446690 0.00559781 0.00842879 0.01601271 0.00149271 
0.03986916 0.04749350 0.01198223 0.00464729 0.00143942 0.00356049 0.01125023 0.00723900 0.04694784 0.00296555 0.00270661 0.12435174 0.00567382 0.00844712 0.01592456 0.00150586 
0.03834355 0.04804957 0.01187300 0.00468132 0.00141549 0.00347116 0.01118128 0.00713638 0.04643573 0.00292169 0.00272863 0.12428481 0.00575097 0.00846877 0.01583660 0.00151948 
0.03685494 0.04854095 0.01175840 0.00471156 0.00139363 0.00338020 0.01110514 0.00702704 0.04589302 0.00287657 0.00274879 0.12426318 0.00582928 0.00849297 0.01574939 0.00153352 
0.03541027 0.04896479 0.01163871 0.00473783 0.00137388 0.00328797 0.01102204 0.00691152 0.04532191 0.00283040 0.00276699 0.12428368 0.00590878 0.00851898 0.01566347 0.00154794 
0.03401624 0.04931869 0.01151424 0.00476000 0.00135628 0.00319485 0.01093226 0.00679041 0.04472459 0.00278340 0.00278321 0.12434291 0.00598948 0.00854606 0.01557941 0.00156269 
0.03267930 0.04960070 0.01138530 0.00477792 0.00134085 0.00310122 0.01083613 0.00666431 0.04410333 0.00273577 0.00279739 0.12443726 0.00607141 0.00857349 0.01549774 0.00157771 
0.03140562 0.04980932 0.01125223 0.00479147 0.00132761 0.00300744 0.01073400 0.00653390 0.04346035 0.00268772 0.00280952 0.12456297 0.00615457 0.00860057 0.01541898 0.00159296 
0.03020104 0.04994355 0.01111536 0.00480056 0.00131655 0.00291391 0.01062629 0.00639983 0.04279791 0.00263946 0.00281959 0.12471612 0.00623899 0.00862663 0.01534365 0.00160837 
0.02907106 0.05000286 0.01097504 0.00480510 0.00130764 0.00282097 0.01051343 0.00626282 0.04211826 0.00259120 0.00282763 0.12489268 0.00632467 0.00865103 0.01527222 0.00162389 
0.02802083 0.04998723 0.01083163 0.00480503 0.00130086 0.00272901 0.01039589 0.00612360 0.04142361 0.00254312 0.00283365 0.12508853 0.00641162 0.00867317 0.01520519 0.00163945 
0.02705508 0.04989713 0.01068549 0.00480029 0.00129616 0.00263837 0.01027417 0.00598290 0.04071616 0.00249541 0.00283769 0.12529953 0.00649982 0.00869251 0.01514298 0.00165500 
0.02617815 0.04973356 0.01053699 0.00479088 0.00129350 0.00254940 0.01014881 0.00584148 0.03999808 0.00244826 0.00283982 0.12552148 0.00658927 0.00870851 0.01508602 0.00167046 
0.02539396 0.04949801 0.01038651 0.00477677 0.00129280 0.00246244 0.01002034 0.00570011 0.03927148 0.00240184 0.00284010 0.12575023 0.00667994 0.00872074 0.01503469 0.00168578 
0.02470596 0.04919248 0.01023440 0.00475800 0.00129398 0.00237780 0.00988933 0.00555956 0.03853846 0.00235632 0.00283863 0.12598165 0.00677182 0.00872879 0.01498937 0.00170089 
0.02411716 0.04881944 0.01008106 0.00473460 0.00129696 0.00229580 0.00975637 0.00542059 0.03780103 0.00231185 0.00283548 0.12621169 0.00686487 0.00873230 0.01495038 0.00171572 
0.02363009 0.04838189 0.00992684 0.00470664 0.00130163 0.00221674 0.00962204 0.00528397 0.03706116 0.00226857 0.00283078 0.12643643 0.00695905 0.00873101 0.01491800 0.00173022 
0.02324680 0.04788327 0.00977211 0.00467419 0.00130790 0.00214088 0.00948694 0.00515046 0.03632077 0.00222663 0.00282464 0.12665206 0.00705431 0.00872468 0.01489251 0.00174432 
0.02296884 0.04732748 0.00961725 0.00463737 0.00131565 0.00206848 0.00935166 0.00502079 0.03558170 0.00218615 0.00281718 0.12685496 0.00715058 0.00871316 0.01487412 0.00175796 
0.02279728 0.04671887 0.00946260 0.00459630 0.00132475 0.00199980 0.00921681 0.00489570 0.03484572 0.00214725 0.00280854 0.12704171 0.00724781 0.00869635 0.01486301 0.00177107 
0.02273269 0.04606221 0.00930852 0.00455113 0.00133509 0.00193504 0.00908297 0.00477589 0.03411454 0.00211003 0.00279886 0.12720910 0.00734591 0.00867424 0.01485934 0.00178360 
0.02277514 0.04536265 0.00915535 0.00450204 0.00134653 0.00187442 0.00895071 0.00466203 0.03338981 0.00207459 0.00278828 0.12735420 0.00744482 0.00864687 0.01486322 0.00179549 
0.02292419 0.04462571 0.00900344 0.00444922 0.00135892 0.00181810 0.00882061 0.00455478 0.03267308 0.00204100 0.00277697 0.12747435 0.00754443 0.00861436 0.01487471 0.00180669 
0.02317894 0.04385724 0.00885311 0.00439287 0.00137214 0.00176625 0.00869320 0.00445475 0.03196585 0.00200934 0.00276508 0.12756719 0.00764466 0.00857687 0.01489385 0.00181713 
0.02353795 0.04306343 0.00870469 0.00433323 0.00138605 0.00171900 0.00856902 0.00436251 0.03126953 0.00197968 0.00275276 0.12763072 0.00774540 0.00853467 0.01492064 0.00182678 
0.02399936 0.04225068 0.00855847 0.00427055 0.00140049 0.00167647 0.00844856 0.00427862 0.03058549 0.00195205 0.00274017 0.12766326 0.00784656 0.00848805 0.01495504 0.00183559 
0.02456079 0.04142568 0.00841476 0.00420509 0.00141533 0.00163875 0.00833230 0.00420357 0.02991499 0.00192651 0.00272747 0.12766351 0.00794801 0.00843740 0.01499698 0.00184351 
0.02521944 0.04059529 0.00827386 0.00413712 0.00143043 0.00160591 0.00822068 0.00413780 0.02925925 0.00190307 0.00271482 0.12763057 0.00804965 0.00838314 0.01504635 0.00185051 
0.02597204 0.03976652 0.00813603 0.00406695 0.00144564 0.00157800 0.00811411 0.00408171 0.02861941 0.00188177 0.00270237 0.12756393 0.00815136 0.00832579 0.01510301 0.00185655 
0.02681490 0.03894652 0.00800155 0.00399487 0.00146083 0.00155504 0.00801296 0.00403567 0.02799655 0.00186261 0.00269028 0.12746351 0.00825302 0.00826587 0.01516680 0.00186159 
0.02774393 0.03814250 0.00787067 0.00392122 0.00147587 0.00153704 0.00791759 0.00399996 0.02739168 0.00184558 0.00267869 0.12732963 0.00835451 0.00820400 0.01523752 0.00186561 
0.02875464 0.03736169 0.00774364 0.00384630 0.00149063 0.00152398 0.00782828 0.00397483 0.02680576 0.00183070 0.00266773 0.12716306 0.00845571 0.00814083 0.01531496 0.00186859 
0.02984217 0.03661133 0.00762070 0.00377046 0.00150499 0.00151583 0.00774530 0.00396047 0.02623969 0.00181793 0.00265755 0.12696502 0.00855651 0.00807704 0.01539886 0.00187051 
0.03100131 0.03589858 0.00750206 0.00369403 0.00151883 0.00151253 0.00766887 0.00395701 0.02569430 0.00180726 0.00264828 0.12673713 0.00865678 0.00801337 0.01548897 0.00187135 
0.03222653 0.03523051 0.00738795 0.00361736 0.00153203 0.00151400 0.00759918 0.00396453 0.02517039 0.00179866 0.00264002 0.12648148 0.00875641 0.00795059 0.01558501 0.00187110 
0.03351201 0.03461402 0.00727857 0.00354080 0.00154451 0.00152016 0.00753637 0.00398304 0.02466871 0.00179209 0.00263288 0.12620057 0.00885530 0.00788949 0.01568670 0.00186976 
0.03485164 0.03405584 0.00717411 0.00346468 0.00155617 0.00153089 0.00748054 0.00401252 0.02418993 0.00178751 0.00262698 0.12589734 0.00895333 0.00783089 0.01579372 0.00186732 
0.03623907 0.03356246 0.00707477 0.00338936 0.00156692 0.00154607 0.00743175 0.00405286 0.02373473 0.00178488 0.00262239 0.12557513 0.00905039 0.00777564 0.01590576 0.00186380 
0.03766774 0.03314008 0.00698071 0.00331516 0.00157669 0.00156556 0.00739003 0.00410391 0.02330371 0.00178414 0.00261920 0.12523767 0.00914640 0.00772459 0.01602252 0.00185919 
0.03913091 0.03279458 0.00689212 0.00324243 0.00158542 0.00158920 0.00735537 0.00416547 0.02289744 0.00178525 0.00261748 0.12488908 0.00924126 0.00767858 0.01614367 0.00185352 
0.04062165 0.03253146 0.00680915 0.00317150 0.00159305 0.00161683 0.00732771 0.00423728 0.02251646 0.00178815 0.00261727 0.12453384 0.00933488 0.00763850 0.01626890 0.00184679 
0.04213294 0.03235586 0.00673196 0.00310266 0.00159954 0.00164827 0.00730699 0.00431902 0.02216127 0.00179277 0.00261863 0.12417677 0.00942720 0.00760519 0.01639791 0.00183902 
0.04365765 0.03227243 0.00666069 0.00303624 0.00160486 0.00168333 0.00729309 0.00441035 0.02183235 0.00179907 0.00262159 0.12382299 0.00951813 0.00757949 0.01653038 0.00183025 
0.04518857 0.03228538 0.00659549 0.00297253 0.00160898 0.00172183 0.00728587 0.00451084 0.02153012 0.00180697 0.00262617 0.12347789 0.00960762 0.00756224 0.01666604 0.00182050 
0.04671848 0.03239838 0.00653650 0.00291179 0.00161189 0.00176355 0.00728516 0.00462006 0.02125501 0.00181641 0.00263239 0.12314712 0.00969561 0.00755425 0.01680459 0.00180981 
0.04824015 0.03261460 0.00648383 0.00285429 0.00161360 0.00180828 0.00729078 0.00473751 0.02100740 0.00182734 0.00264024 0.12283655 0.00978206 0.00755629 0.01694578 0.00179820 
0.04974637 0.03293659 0.00643761 0.00280028 0.00161412 0.00185583 0.00730253 0.00486265 0.02078762 0.00183969 0.00264972 0.12255219 0.00986692 0.00756910 0.01708937 0.00178573 
0.05123001 0.03336637 0.00639796 0.00274998 0.00161346 0.00190595 0.00732018 0.00499492 0.02059602 0.00185340 0.00266081 0.12230023 0.00995018 0.00759339 0.01723512 0.00177243 
0.05268402 0.03390530 0.00636499 0.00270358 0.00161166 0.00195845 0.00734349 0.00513372 0.02043288 0.00186842 0.00267347 0.12208691 0.01003180 0.00762983 0.01738284 0.00175835 
0.05410147 0.03455412 0.00633880 0.00266128 0.00160877 0.00201310 0.00737223 0.00527842 0.02029848 0.00188468 0.00268768 0.12191854 0.01011177 0.00767901 0.01753235 0.00174354 
0.05547561 0.03531295 0.00631949 0.00262323 0.00160482 0.00206968 0.00740615 0.00542836 0.02019305 0.00190214 0.00270337 0.12180144 0.01019010 0.00774148 0.01768349 0.00172804 
0.05679983 0.03618123 0.00630714 0.00258956 0.00159989 0.00212797 0.00744499 0.00558288 0.02011680 0.00192073 0.00272050 0.12174188 0.01026677 0.00781775 0.01783614 0.00171192 
0.05806779 0.03715775 0.00630185 0.00256038 0.00159404 0.00218776 0.00748851 0.00574128 0.02006990 0.00194041 0.00273902 0.12174603 0.01034180 0.00790824 0.01799019 0.00169523 
0.05927333 0.03824063 0.00630368 0.00253579 0.00158734 0.00224883 0.00753648 0.00590286 0.02005250 0.00196113 0.00275884 0.12181994 0.01041520 0.00801331 0.01814557 0.00167802 
0.06041060 0.03942735 0.00631271 0.00251584 0.00157989 0.00231098 0.00758865 0.00606691 0.02006471 0.00198286 0.00277990 0.12196946 0.01048699 0.00813324 0.01830223 0.00166035 
0.06147403 0.04071469 0.00632898 0.00250057 0.00157177 0.00237400 0.00764481 0.00623270 0.02010660 0.00200553 0.00280212 0.12220021 0.01055719 0.00826825 0.01846015 0.00164229 
0.06245836 0.04209884 0.00635255 0.00248998 0.00156307 0.00243771 0.00770475 0.00639951 0.02017820 0.00202913 0.00282543 0.12251754 0.01062584 0.00841846 0.01861933 0.00162389 
0.06335869 0.04357531 0.00638345 0.00248406 0.00155390 0.00250190 0.00776830 0.00656663 0.02027950 0.00205360 0.00284974 0.12292646 0.01069296 0.00858394 0.01877981 0.00160522 
0.06417046 0.04513902 0.00642171 0.00248277 0.00154436 0.00256639 0.00783529 0.00673334 0.02041045 0.00207892 0.00287497 0.12343161 0.01075859 0.00876464 0.01894165 0.00158633 
0.06488952 0.04678431 0.00646733 0.00248605 0.00153456 0.00263102 0.00790558 0.00689895 0.02057096 0.00210507 0.00290104 0.12403719 0.01082277 0.00896046 0.01910490 0.00156728 
0.06551209 0.04850493 0.00652031 0.00249380 0.00152461 0.00269562 0.00797907 0.00706276 0.02076086 0.00213200 0.00292786 0.12474698 0.01088554 0.00917119 0.01926969 0.00154815 
0.06603483 0.05029410 0.00658063 0.00250591 0.00151462 0.00276003 0.00805567 0.00722411 0.02097998 0.00215970 0.00295536 0.12556422 0.01094692 0.00939653 0.01943611 0.00152898 
0.06645483 0.05214455 0.00664824 0.00252224 0.00150470 0.00282409 0.00813535 0.00738234 0.02122805 0.00218814 0.00298345 0.12649161 0.01100697 0.00963613 0.01960431 0.00150985 
0.06676961 0.05404854 0.00672310 0.00254263 0.00149496 0.00288768 0.00821807 0.00753683 0.02150477 0.00221730 0.00301207 0.12753131 0.01106571 0.00988952 0.01977444 0.00149080 
0.06697717 0.05599792 0.00680513 0.00256691 0.00148551 0.00295067 0.00830386 0.00768697 0.02180977 0.00224716 0.00304113 0.12868482 0.01112318 0.01015615 0.01994664 0.00147189 
0.06707596 0.05798413 0.00689422 0.00259488 0.00147647 0.00301293 0.00839276 0.00783221 0.02214264 0.00227770 0.00307058 0.12995303 0.01117940 0.01043540 0.02012109 0.00145319 
0.06706490 0.05999830 0.00699025 0.00262632 0.00146793 0.00307435 0.00848488 0.00797200 0.02250289 0.00230890 0.00310035 0.13133617 0.01123442 0.01072655 0.02029795 0.00143475 
0.06694340 0.06203129 0.00709308 0.00266101 0.00145999 0.00313484 0.00858032 0.00810583 0.02288998 0.00234074 0.00313038 0.13283377 0.01128824 0.01102883 0.02047740 0.00141661 
0.06671134 0.06407371 0.00720253 0.00269868 0.00145276 0.00319430 0.00867925 0.00823325 0.02330329 0.00237321 0.00316065 0.13444466 0.01134088 0.01134137 0.02065961 0.00139883 
0.06636908 0.06611599 0.00731840 0.00273909 0.00144632 0.00325265 0.00878185 0.00835381 0.02374215 0.00240628 0.00319109 0.13616695 0.01139236 0.01166323 0.02084474 0.00138147 
0.06591746 0.06814846 0.00744046 0.00278197 0.00144075 0.00330982 0.00888835 0.00846714 0.02420583 0.00243993 0.00322168 0.13799804 0.01144269 0.01199342 0.02103294 0.00136456 
0.06535780 0.07016137 0.00756846 0.00282702 0.00143614 0.00336575 0.00899900 0.00857289 0.02469353 0.00247415 0.00325240 0.13993456 0.01149185 0.01233087 0.02122437 0.00134814 
0.06469188 0.07214498 0.00770211 0.00287397 0.00143256 0.00342037 0.00911409 0.00867075 0.02520438 0.00250890 0.00328323 0.14197247 0.01153984 0.01267445 0.02141914 0.00133227 
0.06392193 0.07408958 0.00784108 0.00292253 0.00143006 0.00347364 0.00923392 0.00876046 0.02573747 0.00254417 0.00331416 0.14410695 0.01158665 0.01302298 0.02161736 0.00131698 
0.06305066 0.07598560 0.00798502 0.00297238 0.00142870 0.00352552 0.00935883 0.00884181 0.02629180 0.00257991 0.00334520 0.14633249 0.01163226 0.01337524 0.02181911 0.00130230 
0.06208118 0.07782364 0.00813355 0.00302324 0.00142853 0.00357598 0.00948918 0.00891463 0.02686634 0.00261611 0.00337634 0.14864289 0.01167663 0.01372997 0.02202446 0.00128827 
0.06101706 0.07959450 0.00828625 0.00307480 0.00142958 0.00362499 0.00962534 0.00897878 0.02745998 0.00265272 0.00340762 0.15103125 0.01171973 0.01408587 0.02223342 0.00127491 
0.05986226 0.08128932 0.00844268 0.00312677 0.00143187 0.00367252 0.00976771 0.00903418 0.02807158 0.00268971 0.00343905 0.15349002 0.01176152 0.01444160 0.02244601 0.00126226 
0.05862112 0.08289953 0.00860234 0.00317885 0.00143543 0.00371856 0.00991669 0.00908081 0.02869994 0.00272703 0.00347068 0.15601105 0.01180194 0.01479581 0.02266217 0.00125034 
0.05729836 0.08441701 0.00876473 0.00323076 0.00144026 0.00376311 0.01007269 0.00911866 0.02934381 0.00276463 0.00350253 0.15858556 0.01184094 0.01514715 0.02288183 0.00123917 
0.05589904 0.08583406 0.00892930 0.00328221 0.00144636 0.00380615 0.01023613 0.00914779 0.03000190 0.00280248 0.00353467 0.16120423 0.01187845 0.01549424 0.02310487 0.00122876 
0.05442857 0.08714349 0.00909548 0.00333294 0.00145371 0.00384768 0.01040743 0.00916827 0.03067291 0.00284050 0.00356714 0.16385726 0.01191441 0.01583571 0.02333115 0.00121913 
0.05289263 0.08833868 0.00926265 0.00338268 0.00146229 0.00388771 0.01058700 0.00918026 0.03135547 0.00287865 0.00360001 0.16653433 0.01194875 0.01617020 0.02356046 0.00121029 
0.05129720 0.08941357 0.00943020 0.00343119 0.00147208 0.00392624 0.01077524 0.00918392 0.03204821 0.00291685 0.00363333 0.16922476 0.01198139 0.01649637 0.02379257 0.00120226 
0.04964849 0.09036276 0.00959747 0.00347822 0.00148302 0.00396327 0.01097254 0.00917945 0.03274975 0.00295505 0.00366719 0.17191748 0.01201225 0.01681291 0.02402718 0.00119503 
0.04795294 0.09118152 0.00976377 0.00352358 0.00149506 0.00399883 0.01117929 0.00916711 0.03345866 0.00299317 0.00370166 0.17460113 0.01204125 0.01711852 0.02426399 0.00118861 
0.04621720 0.09186583 0.00992842 0.00356704 0.00150815 0.00403291 0.01139584 0.00914718 0.03417355 0.00303113 0.00373681 0.17726411 0.01206831 0.01741196 0.02450260 0.00118300 
0.04444805 0.09241239 0.01009069 0.00360842 0.00152223 0.00406554 0.01162251 0.00911997 0.03489300 0.00306885 0.00377272 0.17989463 0.01209335 0.01769203 0.02474263 0.00117819 
0.04265243 0.09281866 0.01024985 0.00364757 0.00153721 0.00409673 0.01185962 0.00908582 0.03561561 0.00310626 0.00380947 0.18248078 0.01211630 0.01795759 0.02498361 0.00117418 
0.04083738 0.09308290 0.01040517 0.00368433 0.00155301 0.00412649 0.01210743 0.00904511 0.03633999 0.00314327 0.00384714 0.18501064 0.01213706 0.01820756 0.02522504 0.00117097 
0.03901000 0.09320414 0.01055591 0.00371857 0.00156954 0.00415484 0.01236618 0.00899824 0.03706479 0.00317979 0.00388581 0.18747226 0.01215558 0.01844093 0.02546642 0.00116853 
0.03717747 0.09318222 0.01070130 0.00375018 0.00158672 0.00418180 0.01263606 0.00894563 0.03778865 0.00321574 0.00392557 0.18985380 0.01217178 0.01865677 0.02570716 0.00116686 
0.03534693 0.09301779 0.01084061 0.00377909 0.00160443 0.00420738 0.01291723 0.00888772 0.03851028 0.00325102 0.00396647 0.19214360 0.01218560 0.01885421 0.02594668 0.00116594 
0.03352555 0.09271229 0.01097309 0.00380522 0.00162259 0.00423161 0.01320979 0.00882497 0.03922842 0.00328554 0.00400861 0.19433018 0.01219698 0.01903250 0.02618436 0.00116574 
0.03172042 0.09226799 0.01109801 0.00382854 0.00164108 0.00425449 0.01351380 0.00875788 0.03994186 0.00331922 0.00405203 0.19640238 0.01220589 0.01919098 0.02641954 0.00116627 
0.02993858 0.09168792 0.01121467 0.00384901 0.00165979 0.00427606 0.01382927 0.00868691 0.04064944 0.00335196 0.00409682 0.19834941 0.01221228 0.01932905 0.02665157 0.00116747 
0.02818693 0.09097588 0.01132236 0.00386663 0.00167861 0.00429632 0.01415617 0.00861259 0.04135007 0.00338368 0.00414301 0.20016090 0.01221612 0.01944627 0.02687975 0.00116935 
0.02647226 0.09013646 0.01142042 0.00388143 0.00169743 0.00431529 0.01449440 0.00853542 0.04204271 0.00341428 0.00419066 0.20182697 0.01221741 0.01954227 0.02710339 0.00117186 
0.02480120 0.08917492 0.01150821 0.00389344 0.00171614 0.00433300 0.01484381 0.00845592 0.04272640 0.00344370 0.00423981 0.20333828 0.01221615 0.01961679 0.02732180 0.00117498 
0.02318017 0.08809725 0.01158512 0.00390273 0.00173463 0.00434945 0.01520420 0.00837461 0.04340026 0.00347183 0.00429049 0.20468615 0.01221235 0.01966971 0.02753427 0.00117868 
0.02161540 0.08691008 0.01165061 0.00390936 0.00175279 0.00436466 0.01557531 0.00829202 0.04406346 0.00349862 0.00434272 0.20586252 0.01220602 0.01970101 0.02774009 0.00118293 
0.02011286 0.08562067 0.01170415 0.00391343 0.00177052 0.00437866 0.01595683 0.00820866 0.04471529 0.00352399 0.00439652 0.20686009 0.01219723 0.01971077 0.02793859 0.00118770 
0.01867827 0.08423683 0.01174528 0.00391506 0.00178770 0.00439145 0.01634839 0.00812505 0.04535508 0.00354788 0.00445190 0.20767232 0.01218602 0.01969923 0.02812909 0.00119295 
0.01731706 0.08276691 0.01177360 0.00391437 0.00180425 0.00440306 0.01674958 0.00804169 0.04598228 0.00357023 0.00450883 0.20829349 0.01217246 0.01966670 0.02831092 0.00119864 
0.01603436 0.08121973 0.01178876 0.00391150 0.00182008 0.00441351 0.01715991 0.00795909 0.04659640 0.00359099 0.00456730 0.20871874 0.01215666 0.01961364 0.02848347 0.00120475 
0.01483496 0.07960452 0.01179048 0.00390661 0.00183508 0.00442281 0.01757887 0.00787773 0.04719705 0.00361012 0.00462729 0.20894411 0.01213870 0.01954061 0.02864614 0.00121124 
0.01372334 0.07793087 0.01177854 0.00389987 0.00184920 0.00443098 0.01800588 0.00779809 0.04778390 0.00362758 0.00468874 0.20896655 0.01211872 0.01944830 0.02879836 0.00121806 
0.01270360 0.07620868 0.01175281 0.00389146 0.00186234 0.00443804 0.01844032 0.00772062 0.04835672 0.00364335 0.00475160 0.20878399 0.01209685 0.01933750 0.02893961 0.00122518 
0.01177947 0.07444806 0.01171323 0.00388157 0.00187445 0.00444400 0.01888155 0.00764577 0.04891535 0.00365742 0.00481581 0.20839531 0.01207323 0.01920910 0.02906942 0.00123255 
0.01095429 0.07265931 0.01165982 0.00387039 0.00188548 0.00444890 0.01932884 0.00757395 0.04945971 0.00366978 0.00488128 0.20780037 0.01204805 0.01906411 0.02918737 0.00124015 
0.01023103 0.07085283 0.01159266 0.00385812 0.00189536 0.00445275 0.01978146 0.00750556 0.04998978 0.00368044 0.00494792 0.20700004 0.01202146 0.01890363 0.02929308 0.00124793 
0.00961222 0.06903908 0.01151196 0.00384498 0.00190408 0.00445557 0.02023864 0.00744098 0.05050562 0.00368941 0.00501563 0.20599618 0.01199368 0.01872886 0.02938624 0.00125585 
0.00910001 0.06722845 0.01141797 0.00383118 0.00191159 0.00445738 0.02069957 0.00738055 0.05100733 0.00369672 0.00508430 0.20479165 0.01196489 0.01854108 0.02946661 0.00126387 
0.00869611 0.06543129 0.01131107 0.00381693 0.00191788 0.00445820 0.02116343 0.00732459 0.05149507 0.00370242 0.00515379 0.20339028 0.01193531 0.01834164 0.02953401 0.00127195 
0.00840182 0.06365776 0.01119169 0.00380244 0.00192295 0.00445807 0.02162935 0.00727339 0.05196904 0.00370654 0.00522397 0.20179689 0.01190516 0.01813198 0.02958831 0.00128004 
0.00821800 0.06191780 0.01106037 0.00378793 0.00192678 0.00445700 0.02209646 0.00722722 0.05242949 0.00370916 0.00529470 0.20001721 0.01187467 0.01791361 0.02962947 0.00128812 
0.00814511 0.06022108 0.01091774 0.00377362 0.00192941 0.00445501 0.02256389 0.00718631 0.05287668 0.00371034 0.00536580 0.19805793 0.01184407 0.01768808 0.02965753 0.00129613 
0.00818315 0.05857691 0.01076451 0.00375970 0.00193085 0.00445214 0.02303072 0.00715086 0.05331090 0.00371017 0.00543711 0.19592660 0.01181359 0.01745700 0.02967257 0.00130405 
0.00833172 0.05699420 0.01060146 0.00374639 0.00193113 0.00444841 0.02349606 0.00712103 0.05373244 0.00370873 0.00550847 0.19363165 0.01178348 0.01722201 0.02967478 0.00131182 
0.00859000 0.05548140 0.01042948 0.00373388 0.00193030 0.00444383 0.02395900 0.00709696 0.05414159 0.00370614 0.00557968 0.19118228 0.01175395 0.01698478 0.02966440 0.00131941 
0.00895674 0.05404646 0.01024953 0.00372235 0.00192841 0.00443844 0.02441863 0.00707875 0.05453864 0.00370250 0.00565054 0.18858847 0.01172525 0.01674700 0.02964174 0.00132679 
0.00943031 0.05269675 0.01006264 0.00371200 0.00192552 0.00443227 0.02487407 0.00706645 0.05492384 0.00369793 0.00572088 0.18586090 0.01169759 0.01651039 0.02960719 0.00133391 
0.01000865 0.05143902 0.00986992 0.00370298 0.00192170 0.00442532 0.02532441 0.00706011 0.05529743 0.00369256 0.00579047 0.18301091 0.01167121 0.01627663 0.02956123 0.00134075 
0.01068933 0.05027942 0.00967253 0.00369547 0.00191704 0.00441764 0.02576880 0.00705971 0.05565958 0.00368654 0.00585911 0.18005040 0.01164629 0.01604743 0.02950436 0.00134726 
0.01146954 0.04922336 0.00947173 0.00368960 0.00191162 0.00440924 0.02620636 0.00706522 0.05601044 0.00367998 0.00592659 0.17699183 0.01162304 0.01582445 0.02943719 0.00135341 
0.01234611 0.04827556 0.00926878 0.00368552 0.00190554 0.00440014 0.02663627 0.00707656 0.05635007 0.00367306 0.00599270 0.17384807 0.01160164 0.01560932 0.02936036 0.00135917 
0.01331550 0.04743999 0.00906505 0.00368334 0.00189889 0.00439036 0.02705772 0.00709362 0.05667847 0.00366591 0.00605721 0.17063241 0.01158226 0.01540366 0.02927458 0.00136451 
0.01437384 0.04671984 0.00886191 0.00368319 0.00189179 0.00437993 0.02746990 0.00711626 0.05699556 0.00365870 0.00611992 0.16735843 0.01156502 0.01520899 0.02918062 0.00136939 
0.01551695 0.04611754 0.00866078 0.00368515 0.00188434 0.00436885 0.02787208 0.00714430 0.05730117 0.00365157 0.00618061 0.16403994 0.01155007 0.01502681 0.02907928 0.00137380 
0.01674033 0.04563470 0.00846311 0.00368930 0.00187666 0.00435715 0.02826351 0.00717754 0.05759502 0.00364469 0.00623907 0.16069093 0.01153751 0.01485853 0.02897141 0.00137770 
0.01803921 0.04527213 0.00827037 0.00369571 0.00186887 0.00434484 0.02864352 0.00721574 0.05787676 0.00363822 0.00629508 0.15732544 0.01152740 0.01470548 0.02885790 0.00138106 
0.01940852 0.04502984 0.00808404 0.00370444 0.00186110 0.00433193 0.02901143 0.00725863 0.05814589 0.00363230 0.00634844 0.15395754 0.01151981 0.01456891 0.02873966 0.00138388 
0.02084297 0.04490704 0.00790559 0.00371551 0.00185345 0.00431844 0.02936663 0.00730593 0.05840182 0.00362711 0.00639894 0.15060120 0.01151476 0.01444995 0.02861765 0.00138611 
0.02233705 0.04490213 0.00773651 0.00372896 0.00184606 0.00430435 0.02970853 0.00735729 0.05864383 0.00362277 0.00644640 0.14727024 0.01151224 0.01434966 0.02849281 0.00138776 
0.02388500 0.04501277 0.00757826 0.00374477 0.00183905 0.00428969 0.03003659 0.00741239 0.05887109 0.00361945 0.00649061 0.14397826 0.01151224 0.01426897 0.02836613 0.00138879 
0.02548091 0.04523582 0.00743226 0.00376295 0.00183254 0.00427446 0.03035028 0.00747085 0.05908265 0.00361728 0.00653141 0.14073856 0.01151469 0.01420868 0.02823857 0.00138920 
0.02711870 0.04556743 0.00729992 0.00378347 0.00182664 0.00425865 0.03064915 0.00753228 0.05927740 0.00361640 0.00656862 0.13756403 0.01151950 0.01416948 0.02811111 0.00138897 
0.02879215 0.04600306 0.00718261 0.00380630 0.00182147 0.00424226 0.03093275 0.00759628 0.05945417 0.00361691 0.00660208 0.13446715 0.01152655 0.01415194 0.02798472 0.00138810 
0.03049490 0.04653748 0.00708162 0.00383137 0.00181713 0.00422528 0.03120068 0.00766242 0.05961161 0.00361895 0.00663164 0.13145985 0.01153570 0.01415647 0.02786033 0.00138657 
0.03222054 0.04716485 0.00699821 0.00385863 0.00181374 0.00420772 0.03145260 0.00773027 0.05974830 0.00362261 0.00665716 0.12855351 0.01154677 0.01418337 0.02773887 0.00138440 
0.03396254 0.04787871 0.00693355 0.00388799 0.00181139 0.00418956 0.03168816 0.00779937 0.05986270 0.00362799 0.00667852 0.12575886 0.01155956 0.01423279 0.02762125 0.00138156 
0.03571437 0.04867211 0.00688873 0.00391936 0.00181017 0.00417079 0.03190709 0.00786927 0.05995314 0.00363516 0.00669559 0.12308593 0.01157383 0.01430473 0.02750830 0.00137807 
0.03746944 0.04953756 0.00686478 0.00395265 0.00181017 0.00415141 0.03210911 0.00793950 0.06001789 0.00364419 0.00670830 0.12054402 0.01158932 0.01439906 0.02740086 0.00137394 
0.03922119 0.05046717 0.00686261 0.00398774 0.00181145 0.00413138 0.03229400 0.00800961 0.06005514 0.00365513 0.00671655 0.11814162 0.01160576 0.01451551 0.02729969 0.00136916 
0.04096309 0.05145265 0.00688304 0.00402449 0.00181408 0.00411071 0.03246156 0.00807912 0.06006297 0.00366802 0.00672027 0.11588640 0.01162283 0.01465366 0.02720551 0.00136375 
0.04268863 0.05248539 0.00692677 0.00406280 0.00181812 0.00408938 0.03261161 0.00814757 0.06003945 0.00368289 0.00671942 0.11378517 0.01164021 0.01481295 0.02711897 0.00135772 
0.04439142 0.05355652 0.00699440 0.00410250 0.00182361 0.00406737 0.03274401 0.00821451 0.05998256 0.00369974 0.00671395 0.11184385 0.01165756 0.01499270 0.02704066 0.00135109 
0.04606513 0.05465698 0.00708640 0.00414345 0.00183058 0.00404467 0.03285864 0.00827949 0.05989028 0.00371856 0.00670386 0.11006742 0.01167450 0.01519208 0.02697112 0.00134388 
0.04770358 0.05577754 0.00720313 0.00418550 0.00183905 0.00402126 0.03295538 0.00834207 0.05976057 0.00373934 0.00668913 0.10845995 0.01169067 0.01541014 0.02691080 0.00133611 
0.04930074 0.05690892 0.00734480 0.00422848 0.00184905 0.00399713 0.03303415 0.00840183 0.05959140 0.00376202 0.00666979 0.10702455 0.01170567 0.01564581 0.02686008 0.00132780 
0.05085073 0.05804182 0.00751151 0.00427224 0.00186056 0.00397227 0.03309488 0.00845837 0.05938075 0.00378656 0.00664586 0.10576338 0.01171910 0.01589789 0.02681927 0.00131899 
0.05234788 0.05916700 0.00770320 0.00431659 0.00187357 0.00394668 0.03313752 0.00851130 0.05912666 0.00381288 0.00661740 0.10467768 0.01173057 0.01616509 0.02678861 0.00130971 
0.05378674 0.06027531 0.00791968 0.00436138 0.00188806 0.00392033 0.03316203 0.00856027 0.05882722 0.00384089 0.00658448 0.10376771 0.01173967 0.01644601 0.02676823 0.00129998 
0.05516207 0.06135781 0.00816064 0.00440641 0.00190399 0.00389324 0.03316837 0.00860494 0.05848061 0.00387050 0.00654718 0.10303284 0.01174599 0.01673915 0.02675823 0.00128985 
0.05646893 0.06240577 0.00842561 0.00445153 0.00192131 0.00386539 0.03315652 0.00864500 0.05808511 0.00390159 0.00650560 0.10247151 0.01174913 0.01704294 0.02675858 0.00127936 
0.05770262 0.06341077 0.00871399 0.00449654 0.00193996 0.00383680 0.03312649 0.00868018 0.05763915 0.00393402 0.00645987 0.10208130 0.01174869 0.01735572 0.02676919 0.00126854 
0.05885876 0.06436471 0.00902503 0.00454129 0.00195988 0.00380747 0.03307825 0.00871025 0.05714128 0.00396766 0.00641013 0.10185893 0.01174429 0.01767577 0.02678992 0.00125744 
0.05993326 0.06525994 0.00935786 0.00458559 0.00198098 0.00377742 0.03301182 0.00873498 0.05659022 0.00400235 0.00635651 0.10180032 0.01173556 0.01800133 0.02682051 0.00124611 
0.06092238 0.06608924 0.00971147 0.00462928 0.00200316 0.00374666 0.03292721 0.00875422 0.05598491 0.00403792 0.00629920 0.10190061 0.01172212 0.01833058 0.02686065 0.00123459 
0.06182273 0.06684588 0.01008473 0.00467219 0.00202634 0.00371522 0.03282444 0.00876784 0.05532448 0.00407419 0.00623838 0.10215421 0.01170366 0.01866167 0.02690997 0.00122293 
0.06263126 0.06752369 0.01047638 0.00471415 0.00205039 0.00368314 0.03270353 0.00877574 0.05460828 0.00411099 0.00617425 0.10255489 0.01167984 0.01899274 0.02696799 0.00121118 
0.06334530 0.06811709 0.01088504 0.00475502 0.00207520 0.00365044 0.03256452 0.00877789 0.05383594 0.00414812 0.00610703 0.10309576 0.01165038 0.01932191 0.02703422 0.00119940 
0.06396257 0.06862110 0.01130922 0.00479463 0.00210064 0.00361718 0.03240744 0.00877427 0.05300734 0.00418537 0.00603693 0.10376939 0.01161501 0.01964731 0.02710807 0.00118765 
0.06448119 0.06903142 0.01174734 0.00483286 0.00212659 0.00358341 0.03223236 0.00876493 0.05212265 0.00422255 0.00596421 0.10456785 0.01157348 0.01996707 0.02718892 0.00117596 
0.06489967 0.06934441 0.01219769 0.00486955 0.00215290 0.00354918 0.03203934 0.00874995 0.05118234 0.00425945 0.00588912 0.10548277 0.01152560 0.02027937 0.02727608 0.00116441 
0.06521694 0.06955713 0.01265850 0.00490457 0.00217943 0.00351457 0.03182844 0.00872947 0.05018721 0.00429586 0.00581191 0.10650540 0.01147119 0.02058241 0.02736883 0.00115304 
0.06543234 0.06966736 0.01312791 0.00493782 0.00220604 0.00347965 0.03159978 0.00870365 0.04913835 0.00433156 0.00573288 0.10762668 0.01141011 0.02087444 0.02746641 0.00114190 
0.06554564 0.06967362 0.01360400 0.00496917 0.00223258 0.00344450 0.03135345 0.00867273 0.04803725 0.00436636 0.00565229 0.10883733 0.01134226 0.02115377 0.02756802 0.00113107 
0.06555700 0.06957516 0.01408478 0.00499853 0.00225889 0.00340921 0.03108960 0.00863695 0.04688569 0.00440004 0.00557046 0.11012786 0.01126756 0.02141879 0.02767283 0.00112059 
0.06546704 0.06937197 0.01456821 0.00502579 0.00228483 0.00337389 0.03080838 0.00859664 0.04568583 0.00443240 0.00548767 0.11148872 0.01118601 0.02166794 0.02778000 0.00111051 
0.06527678 0.06906478 0.01505223 0.00505089 0.00231024 0.00333863 0.03050997 0.00855214 0.04444020 0.00446325 0.00540424 0.11291027 0.01109760 0.02189978 0.02788866 0.00110089 
0.06498766 0.06865504 0.01553471 0.00507374 0.00233498 0.00330356 0.03019460 0.00850384 0.04315167 0.00449240 0.00532048 0.11438292 0.01100239 0.02211295 0.02799794 0.00109177 
0.06460153 0.06814493 0.01601357 0.00509429 0.00235890 0.00326879 0.02986251 0.00845218 0.04182349 0.00451967 0.00523672 0.11589718 0.01090046 0.02230620 0.02810696 0.00108322 
0.06412064 0.06753734 0.01648666 0.00511249 0.00238185 0.00323445 0.02951399 0.00839761 0.04045926 0.00454488 0.00515327 0.11744368 0.01079196 0.02247840 0.02821485 0.00107528 
0.06354764 0.06683580 0.01695189 0.00512829 0.00240369 0.00320068 0.02914938 0.00834065 0.03906292 0.00456789 0.00507046 0.11901328 0.01067705 0.02262852 0.02832074 0.00106799 
0.06288556 0.06604454 0.01740716 0.00514168 0.00242431 0.00316761 0.02876906 0.00828182 0.03763879 0.00458855 0.00498863 0.12059709 0.01055593 0.02275568 0.02842378 0.00106141 
0.06213781 0.06516839 0.01785042 0.00515264 0.00244355 0.00313539 0.02837345 0.00822170 0.03619149 0.00460672 0.00490808 0.12218654 0.01042885 0.02285911 0.02852312 0.00105556 
0.06130815 0.06421276 0.01827964 0.00516117 0.00246132 0.00310418 0.02796303 0.00816088 0.03472600 0.00462230 0.00482917 0.12377343 0.01029609 0.02293819 0.02861796 0.00105049 
0.06040067 0.06318362 0.01869286 0.00516728 0.00247748 0.00307412 0.02753834 0.00809996 0.03324757 0.00463518 0.00475220 0.12534996 0.01015797 0.02299242 0.02870751 0.00104623 
0.05941981 0.06208746 0.01908821 0.00517099 0.00249195 0.00304538 0.02709999 0.00803959 0.03176176 0.00464529 0.00467750 0.12690877 0.01001483 0.02302147 0.02879100 0.00104281 
0.05837030 0.06093121 0.01946384 0.00517233 0.00250462 0.00301811 0.02664864 0.00798041 0.03027441 0.00465255 0.00460539 0.12844300 0.00986705 0.02302511 0.02886773 0.00104027 
0.05725714 0.05972225 0.01981804 0.00517136 0.00251542 0.00299249 0.02618500 0.00792309 0.02879159 0.00465694 0.00453617 0.12994629 0.00971503 0.02300328 0.02893701 0.00103862 
0.05608562 0.05846829 0.02014916 0.00516812 0.00252427 0.00296867 0.02570990 0.00786831 0.02731960 0.00465841 0.00447017 0.13141284 0.00955921 0.02295607 0.02899821 0.00103789 
0.05486124 0.05717738 0.02045568 0.00516268 0.00253111 0.00294681 0.02522419 0.00781673 0.02586492 0.00465698 0.00440767 0.13283737 0.00940005 0.02288368 0.02905073 0.00103808 
0.05358974 0.05585782 0.02073619 0.00515513 0.00253589 0.00292710 0.02472881 0.00776904 0.02443423 0.00465265 0.00434895 0.13421522 0.00923801 0.02278648 0.02909404 0.00103922 
0.05227702 0.05451812 0.02098939 0.00514556 0.00253857 0.00290967 0.02422479 0.00772589 0.02303432 0.00464547 0.00429431 0.13554228 0.00907360 0.02266495 0.02912763 0.00104131 
0.05092916 0.05316695 0.02121413 0.00513407 0.00253913 0.00289471 0.02371321 0.00768797 0.02167207 0.00463548 0.00424400 0.13681504 0.00890732 0.02251971 0.02915106 0.00104434 
0.04955237 0.05181306 0.02140937 0.00512076 0.00253754 0.00288236 0.02319525 0.00765591 0.02035445 0.00462276 0.00419829 0.13803059 0.00873970 0.02235152 0.02916396 0.00104832 
0.04815296 0.05046524 0.02157423 0.00510577 0.00253382 0.00287278 0.02267214 0.00763034 0.01908845 0.00460742 0.00415740 0.13918659 0.00857126 0.02216125 0.02916597 0.00105325 
0.04673730 0.04913226 0.02170797 0.00508921 0.00252796 0.00286611 0.02214520 0.00761187 0.01788106 0.00458956 0.00412158 0.14028127 0.00840254 0.02194987 0.02915682 0.00105910 
0.04531184 0.04782282 0.02181000 0.00507124 0.00252000 0.00286249 0.02161582 0.00760109 0.01673920 0.00456933 0.00409101 0.14131344 0.00823408 0.02171849 0.02913627 0.00106586 
0.04388302 0.04654548 0.02187989 0.00505199 0.00250996 0.00286205 0.02108545 0.00759853 0.01566974 0.00454687 0.00406591 0.14228243 0.00806642 0.02146829 0.02910416 0.00107351 
0.04245727 0.04530862 0.02191736 0.00503162 0.00249790 0.00286493 0.02055560 0.00760471 0.01467940 0.00452235 0.00404644 0.14318809 0.00790008 0.02120057 0.02906035 0.00108203 
0.04104098 0.04412037 0.02192227 0.00501030 0.00248388 0.00287123 0.02002788 0.00762011 0.01377474 0.00449596 0.00403276 0.14403077 0.00773559 0.02091668 0.02900477 0.00109137 
0.03964046 0.04298858 0.02189466 0.00498818 0.00246795 0.00288106 0.01950391 0.00764515 0.01296210 0.00446790 0.00402500 0.14481127 0.00757347 0.02061807 0.02893740 0.00110152 
0.03826192 0.04192078 0.02183472 0.00496545 0.00245021 0.00289451 0.01898539 0.00768021 0.01224761 0.00443839 0.00402329 0.14553082 0.00741422 0.02030625 0.02885827 0.00111243 
0.03691143 0.04092409 0.02174277 0.00494227 0.00243074 0.00291166 0.01847407 0.00772562 0.01163707 0.00440764 0.00402771 0.14619104 0.00725833 0.01998277 0.02876745 0.00112406 
0.03559490 0.04000521 0.02161931 0.00491883 0.00240964 0.00293257 0.01797172 0.00778166 0.01113596 0.00437589 0.00403833 0.14679391 0.00710626 0.01964926 0.02866506 0.00113635 
0.03431806 0.03917039 0.02146497 0.00489532 0.00238703 0.00295731 0.01748016 0.00784854 0.01074943 0.00434340 0.00405520 0.14734170 0.00695845 0.01930734 0.02855125 0.00114927 
0.03308641 0.03842538 0.02128051 0.00487191 0.00236302 0.00298590 0.01700123 0.00792642 0.01048218 0.00431041 0.00407835 0.14783696 0.00681534 0.01895868 0.02842622 0.00116276 
0.03190520 0.03777536 0.02106685 0.00484879 0.00233774 0.00301837 0.01653679 0.00801539 0.01033849 0.00427718 0.00410777 0.14828248 0.00667730 0.01860496 0.02829021 0.00117676 
0.03077944 0.03722501 0.02082503 0.00482615 0.00231131 0.00305473 0.01608870 0.00811548 0.01032217 0.00424396 0.00414344 0.14868121 0.00654472 0.01824786 0.02814350 0.00119121 
0.02971382 0.03677836 0.02055620 0.00480417 0.00228389 0.00309497 0.01565883 0.00822666 0.01043651 0.00421104 0.00418530 0.14903627 0.00641791 0.01788905 0.02798638 0.00120605 
0.02871274 0.03643887 0.02026164 0.00478304 0.00225561 0.00313906 0.01524903 0.00834881 0.01068428 0.00417865 0.00423329 0.14935084 0.00629720 0.01753020 0.02781918 0.00122122 
0.02778024 0.03620937 0.01994273 0.00476292 0.00222663 0.00318695 0.01486114 0.00848176 0.01106766 0.00414708 0.00428729 0.14962818 0.00618284 0.01717292 0.02764228 0.00123666 
0.02692003 0.03609204 0.01960094 0.00474401 0.00219709 0.00323858 0.01449695 0.00862528 0.01158825 0.00411656 0.00434718 0.14987157 0.00607507 0.01681882 0.02745605 0.00125229 
0.02613546 0.03608843 0.01923785 0.00472646 0.00216717 0.00329387 0.01415823 0.00877904 0.01224704 0.00408736 0.00441281 0.15008423 0.00597409 0.01646943 0.02726091 0.00126806 
0.02542946 0.03619942 0.01885510 0.00471043 0.00213701 0.00335273 0.01384668 0.00894268 0.01304437 0.00405971 0.00448400 0.15026934 0.00588005 0.01612625 0.02705728 0.00128389 
0.02480461 0.03642526 0.01845438 0.00469609 0.00210678 0.00341503 0.01356394 0.00911573 0.01397994 0.00403385 0.00456053 0.15042999 0.00579310 0.01579071 0.02684560 0.00129971 
0.02426304 0.03676555 0.01803748 0.00468359 0.00207666 0.00348064 0.01331158 0.00929768 0.01505279 0.00400999 0.00464219 0.15056911 0.00571331 0.01546417 0.02662634 0.00131546 
0.02380651 0.03721924 0.01760621 0.00467305 0.00204679 0.00354941 0.01309109 0.00948797 0.01626127 0.00398835 0.00472871 0.15068949 0.00564072 0.01514790 0.02639998 0.00133107 
0.02343633 0.03778467 0.01716240 0.00466461 0.00201734 0.00362117 0.01290383 0.00968593 0.01760305 0.00396911 0.00481981 0.15079372 0.00557537 0.01484311 0.02616700 0.00134648 
0.02315338 0.03845958 0.01670794 0.00465838 0.00198849 0.00369573 0.01275110 0.00989088 0.01907513 0.00395245 0.00491521 0.15088418 0.00551721 0.01455089 0.02592790 0.00136162 
0.02295815 0.03924108 0.01624470 0.00465447 0.00196039 0.00377288 0.01263405 0.01010206 0.02067381 0.00393852 0.00501456 0.15096302 0.00546619 0.01427227 0.02568320 0.00137642 
0.02285067 0.04012577 0.01577457 0.00465297 0.00193321 0.00385240 0.01255370 0.01031865 0.02239472 0.00392747 0.00511753 0.15103212 0.00542221 0.01400815 0.02543339 0.00139083 
0.02283058 0.04110968 0.01529944 0.00465395 0.00190709 0.00393407 0.01251097 0.01053980 0.02423284 0.00391940 0.00522376 0.15109314 0.00538515 0.01375935 0.02517902 0.00140479 
0.02289707 0.04218832 0.01482115 0.00465749 0.00188221 0.00401762 0.01250659 0.01076459 0.02618246 0.00391441 0.00533285 0.15114743 0.00535484 0.01352658 0.02492060 0.00141824 
0.02304896 0.04335677 0.01434153 0.00466363 0.00185871 0.00410280 0.01254116 0.01099209 0.02823725 0.00391257 0.00544441 0.15119608 0.00533108 0.01331042 0.02465868 0.00143113 
0.02328463 0.04460962 0.01386238 0.00467241 0.00183673 0.00418933 0.01261511 0.01122130 0.03039027 0.00391393 0.00555802 0.15123991 0.00531366 0.01311137 0.02439380 0.00144341 
0.02360212 0.04594110 0.01338543 0.00468384 0.00181643 0.00427692 0.01272870 0.01145123 0.03263397 0.00391852 0.00567326 0.15127946 0.00530233 0.01292982 0.02412649 0.00145503 
0.02399908 0.04734504 0.01291237 0.00469792 0.00179794 0.00436526 0.01288204 0.01168082 0.03496026 0.00392632 0.00578967 0.15131499 0.00529681 0.01276604 0.02385732 0.00146596 
0.02447278 0.04881499 0.01244482 0.00471465 0.00178139 0.00445406 0.01307502 0.01190903 0.03736049 0.00393731 0.00590680 0.15134654 0.00529680 0.01262018 0.02358684 0.00147614 
