0.04052825 0.05631973 0.01046487 0.00368649 0.00167437 0.00142536 0.00441620 0.00504873 0.04717850 0.00188182 0.00158068 0.08899812 0.00422402 0.00968548 0.01507524 0.00134623 
0.04028509 0.05752280 0.01058614 0.00370050 0.00168720 0.00144978 0.00448753 0.00503678 0.04677365 0.00190707 0.00159196 0.08828672 0.00427801 0.00968625 0.01512792 0.00134390 
0.04002788 0.05870031 0.01069529 0.00371350 0.00169816 0.00147445 0.00457587 0.00502019 0.04630625 0.00193029 0.00160637 0.08751161 0.00432982 0.00968532 0.01517711 0.00134154 
0.03975701 0.05984825 0.01079176 0.00372533 0.00170724 0.00149930 0.00468059 0.00499914 0.04577847 0.00195137 0.00162376 0.08667727 0.00437940 0.00968245 0.01522267 0.00133918 
0.03947291 0.06096261 0.01087507 0.00373588 0.00171440 0.00152423 0.00480095 0.00497380 0.04519272 0.00197018 0.00164397 0.08578838 0.00442669 0.00967738 0.01526444 0.00133683 
0.03917612 0.06203940 0.01094479 0.00374501 0.00171964 0.00154916 0.00493615 0.00494437 0.04455162 0.00198665 0.00166682 0.08484981 0.00447166 0.00966986 0.01530226 0.00133452 
0.03886727 0.06307473 0.01100058 0.00375258 0.00172295 0.00157399 0.00508529 0.00491108 0.04385798 0.00200071 0.00169213 0.08386659 0.00451433 0.00965961 0.01533594 0.00133226 
0.03854707 0.06406474 0.01104216 0.00375847 0.00172434 0.00159865 0.00524741 0.00487416 0.04311479 0.00201228 0.00171968 0.08284387 0.00455472 0.00964637 0.01536529 0.00133007 
0.03821631 0.06500571 0.01106934 0.00376256 0.00172385 0.00162305 0.00542147 0.00483387 0.04232523 0.00202131 0.00174928 0.08178695 0.00459286 0.00962988 0.01539010 0.00132797 
0.03787585 0.06589402 0.01108200 0.00376471 0.00172148 0.00164711 0.00560636 0.00479049 0.04149264 0.00202779 0.00178071 0.08070116 0.00462882 0.00960988 0.01541018 0.00132596 
0.03752665 0.06672618 0.01108010 0.00376480 0.00171730 0.00167075 0.00580094 0.00474430 0.04062047 0.00203169 0.00181374 0.07959195 0.00466269 0.00958610 0.01542532 0.00132405 
0.03716973 0.06749887 0.01106367 0.00376274 0.00171134 0.00169389 0.00600399 0.00469560 0.03971232 0.00203301 0.00184815 0.07846479 0.00469456 0.00955832 0.01543529 0.00132226 
0.03680617 0.06820895 0.01103284 0.00375841 0.00170367 0.00171646 0.00621427 0.00464471 0.03877190 0.00203176 0.00188370 0.07732517 0.00472455 0.00952629 0.01543988 0.00132059 
0.03643714 0.06885346 0.01098777 0.00375171 0.00169437 0.00173839 0.00643049 0.00459193 0.03780299 0.00202797 0.00192017 0.07617859 0.00475278 0.00948980 0.01543890 0.00131903 
0.03606384 0.06942966 0.01092875 0.00374255 0.00168351 0.00175961 0.00665135 0.00453762 0.03680945 0.00202169 0.00195731 0.07503054 0.00477939 0.00944866 0.01543213 0.00131761 
0.03568755 0.06993503 0.01085609 0.00373087 0.00167118 0.00178006 0.00687551 0.00448209 0.03579520 0.00201297 0.00199489 0.07388645 0.00480453 0.00940267 0.01541938 0.00131631 
0.03530959 0.07036731 0.01077022 0.00371658 0.00165748 0.00179969 0.00710163 0.00442568 0.03476419 0.00200189 0.00203268 0.07275171 0.00482835 0.00935168 0.01540046 0.00131513 
0.03493134 0.07072447 0.01067159 0.00369964 0.00164252 0.00181844 0.00732837 0.00436874 0.03372039 0.00198852 0.00207044 0.07163164 0.00485103 0.00929557 0.01537522 0.00131407 
0.03455419 0.07100479 0.01056075 0.00368000 0.00162640 0.00183626 0.00755439 0.00431160 0.03266776 0.00197298 0.00210796 0.07053146 0.00487271 0.00923422 0.01534350 0.00131314 
0.03417960 0.07120680 0.01043830 0.00365762 0.00160924 0.00185311 0.00777837 0.00425461 0.03161025 0.00195538 0.00214499 0.06945630 0.00489357 0.00916756 0.01530516 0.00131231 
0.03380902 0.07132934 0.01030489 0.00363250 0.00159117 0.00186895 0.00799899 0.00419809 0.03055178 0.00193582 0.00218134 0.06841115 0.00491377 0.00909554 0.01526010 0.00131160 
0.03344395 0.07137154 0.01016124 0.00360462 0.00157231 0.00188375 0.00821499 0.00414237 0.02949620 0.00191446 0.00221679 0.06740088 0.00493348 0.00901814 0.01520823 0.00131098 
0.03308589 0.07133286 0.01000810 0.00357399 0.00155279 0.00189748 0.00842512 0.00408778 0.02844731 0.00189144 0.00225115 0.06643021 0.00495284 0.00893538 0.01514950 0.00131045 
0.03273635 0.07121307 0.00984630 0.00354065 0.00153275 0.00191011 0.00862818 0.00403463 0.02740880 0.00186690 0.00228422 0.06550371 0.00497203 0.00884732 0.01508389 0.00131001 
0.03239685 0.07101225 0.00967667 0.00350462 0.00151232 0.00192163 0.00882303 0.00398320 0.02638430 0.00184102 0.00231582 0.06462576 0.00499116 0.00875404 0.01501140 0.00130964 
0.03206887 0.07073081 0.00950012 0.00346596 0.00149164 0.00193202 0.00900857 0.00393381 0.02537727 0.00181395 0.00234580 0.06380058 0.00501039 0.00865567 0.01493207 0.00130934 
0.03175390 0.07036950 0.00931755 0.00342475 0.00147085 0.00194129 0.00918379 0.00388670 0.02439109 0.00178588 0.00237398 0.06303218 0.00502982 0.00855237 0.01484598 0.00130909 
0.03145342 0.06992938 0.00912992 0.00338106 0.00145007 0.00194943 0.00934772 0.00384215 0.02342896 0.00175699 0.00240024 0.06232440 0.00504957 0.00844433 0.01475324 0.00130888 
0.03116884 0.06941183 0.00893820 0.00333499 0.00142943 0.00195643 0.00949948 0.00380038 0.02249396 0.00172746 0.00242444 0.06168084 0.00506973 0.00833178 0.01465400 0.00130870 
0.03090157 0.06881856 0.00874337 0.00328665 0.00140908 0.00196232 0.00963827 0.00376163 0.02158897 0.00169748 0.00244647 0.06110490 0.00509038 0.00821500 0.01454845 0.00130854 
0.03065294 0.06815158 0.00854644 0.00323617 0.00138914 0.00196711 0.00976337 0.00372608 0.02071673 0.00166723 0.00246624 0.06059977 0.00511158 0.00809428 0.01443683 0.00130840 
0.03042426 0.06741321 0.00834842 0.00318370 0.00136972 0.00197081 0.00987415 0.00369393 0.01987976 0.00163691 0.00248365 0.06016839 0.00513337 0.00796995 0.01431940 0.00130825 
0.03021674 0.06660607 0.00815031 0.00312937 0.00135095 0.00197344 0.00997007 0.00366533 0.01908042 0.00160671 0.00249863 0.05981347 0.00515578 0.00784240 0.01419648 0.00130810 
0.03003154 0.06573305 0.00795312 0.00307336 0.00133293 0.00197504 0.01005068 0.00364042 0.01832084 0.00157681 0.00251115 0.05953750 0.00517882 0.00771200 0.01406841 0.00130793 
0.02986975 0.06479733 0.00775785 0.00301585 0.00131577 0.00197564 0.01011564 0.00361930 0.01760299 0.00154740 0.00252115 0.05934269 0.00520248 0.00757919 0.01393558 0.00130773 
0.02973237 0.06380234 0.00756549 0.00295702 0.00129956 0.00197527 0.01016470 0.00360208 0.01692859 0.00151865 0.00252863 0.05923104 0.00522673 0.00744442 0.01379842 0.00130749 
0.02962027 0.06275174 0.00737700 0.00289706 0.00128438 0.00197396 0.01019770 0.00358880 0.01629916 0.00149075 0.00253356 0.05920428 0.00525152 0.00730816 0.01365738 0.00130721 
0.02953428 0.06164942 0.00719334 0.00283619 0.00127033 0.00197178 0.01021459 0.00357953 0.01571603 0.00146387 0.00253597 0.05926386 0.00527679 0.00717091 0.01351296 0.00130688 
0.02947507 0.06049950 0.00701542 0.00277462 0.00125747 0.00196875 0.01021542 0.00357426 0.01518028 0.00143816 0.00253588 0.05941100 0.00530245 0.00703318 0.01336568 0.00130649 
0.02944323 0.05930626 0.00684414 0.00271257 0.00124586 0.00196493 0.01020032 0.00357301 0.01469281 0.00141379 0.00253332 0.05964665 0.00532841 0.00689550 0.01321611 0.00130603 
0.02943920 0.05807414 0.00668034 0.00265028 0.00123554 0.00196037 0.01016955 0.00357573 0.01425428 0.00139091 0.00252836 0.05997149 0.00535455 0.00675842 0.01306481 0.00130551 
0.02946331 0.05680776 0.00652486 0.00258796 0.00122657 0.00195512 0.01012343 0.00358238 0.01386515 0.00136964 0.00252106 0.06038592 0.00538074 0.00662247 0.01291240 0.00130492 
0.02951575 0.05551183 0.00637846 0.00252587 0.00121896 0.00194924 0.01006239 0.00359288 0.01352569 0.00135013 0.00251150 0.06089009 0.00540685 0.00648821 0.01275951 0.00130425 
0.02959658 0.05419117 0.00624188 0.00246423 0.00121274 0.00194278 0.00998694 0.00360713 0.01323595 0.00133249 0.00249978 0.06148386 0.00543271 0.00635621 0.01260677 0.00130351 
0.02970570 0.05285070 0.00611580 0.00240329 0.00120793 0.00193580 0.00989768 0.00362501 0.01299579 0.00131682 0.00248601 0.06216683 0.00545816 0.00622700 0.01245484 0.00130269 
0.02984287 0.05149535 0.00600086 0.00234328 0.00120451 0.00192836 0.00979530 0.00364639 0.01280487 0.00130322 0.00247030 0.06293832 0.00548303 0.00610113 0.01230438 0.00130180 
0.03000771 0.05013012 0.00589764 0.00228445 0.00120248 0.00192052 0.00968053 0.00367110 0.01266269 0.00129179 0.00245278 0.06379738 0.00550715 0.00597916 0.01215607 0.00130082 
0.03019967 0.04875999 0.00580666 0.00222704 0.00120181 0.00191234 0.00955421 0.00369898 0.01256855 0.00128258 0.00243359 0.06474278 0.00553033 0.00586158 0.01201058 0.00129977 
0.03041804 0.04738993 0.00572840 0.00217127 0.00120248 0.00190387 0.00941723 0.00372983 0.01252160 0.00127566 0.00241287 0.06577301 0.00555237 0.00574892 0.01186857 0.00129865 
0.03066198 0.04602487 0.00566327 0.00211736 0.00120445 0.00189518 0.00927053 0.00376345 0.01252082 0.00127109 0.00239078 0.06688631 0.00557310 0.00564167 0.01173070 0.00129746 
0.03093047 0.04466966 0.00561162 0.00206555 0.00120767 0.00188633 0.00911510 0.00379960 0.01256505 0.00126888 0.00236748 0.06808062 0.00559233 0.00554027 0.01159763 0.00129621 
0.03122232 0.04332909 0.00557375 0.00201605 0.00121208 0.00187737 0.00895200 0.00383807 0.01265300 0.00126907 0.00234314 0.06935364 0.00560987 0.00544518 0.01146999 0.00129489 
0.03153622 0.04200780 0.00554990 0.00196904 0.00121762 0.00186836 0.00878231 0.00387861 0.01278322 0.00127166 0.00231792 0.07070279 0.00562554 0.00535680 0.01134838 0.00129351 
0.03187067 0.04071033 0.00554023 0.00192475 0.00122421 0.00185936 0.00860713 0.00392096 0.01295419 0.00127666 0.00229201 0.07212522 0.00563918 0.00527549 0.01123341 0.00129209 
0.03222405 0.03944104 0.00554487 0.00188333 0.00123178 0.00185041 0.00842762 0.00396487 0.01316425 0.00128405 0.00226558 0.07361784 0.00565063 0.00520161 0.01112563 0.00129062 
0.03259458 0.03820415 0.00556386 0.00184497 0.00124025 0.00184158 0.00824492 0.00401008 0.01341164 0.00129380 0.00223881 0.07517730 0.00565972 0.00513545 0.01102557 0.00128912 
0.03298032 0.03700364 0.00559720 0.00180982 0.00124953 0.00183291 0.00806019 0.00405631 0.01369454 0.00130588 0.00221187 0.07680000 0.00566633 0.00507727 0.01093372 0.00128758 
0.03337923 0.03584333 0.00564482 0.00177802 0.00125952 0.00182444 0.00787462 0.00410329 0.01401103 0.00132024 0.00218496 0.07848210 0.00567032 0.00502728 0.01085055 0.00128602 
0.03378911 0.03472678 0.00570661 0.00174971 0.00127012 0.00181623 0.00768936 0.00415076 0.01435916 0.00133681 0.00215824 0.08021953 0.00567159 0.00498567 0.01077645 0.00128444 
0.03420766 0.03365732 0.00578237 0.00172499 0.00128125 0.00180832 0.00750556 0.00419845 0.01473688 0.00135553 0.00213190 0.08200798 0.00567005 0.00495257 0.01071180 0.00128286 
0.03463247 0.03263804 0.00587188 0.00170397 0.00129279 0.00180075 0.00732436 0.00424609 0.01514215 0.00137633 0.00210611 0.08384295 0.00566562 0.00492804 0.01065693 0.00128127 
0.03506102 0.03167173 0.00597485 0.00168671 0.00130465 0.00179355 0.00714686 0.00429341 0.01557286 0.00139911 0.00208103 0.08571971 0.00565825 0.00491214 0.01061208 0.00127968 
0.03549070 0.03076093 0.00609092 0.00167329 0.00131673 0.00178676 0.00697413 0.00434017 0.01602688 0.00142379 0.00205684 0.08763334 0.00564790 0.00490484 0.01057750 0.00127811 
0.03591883 0.02990790 0.00621972 0.00166375 0.00132891 0.00178042 0.00680722 0.00438611 0.01650208 0.00145025 0.00203369 0.08957873 0.00563457 0.00490609 0.01055332 0.00127656 
0.03634267 0.02911459 0.00636080 0.00165811 0.00134111 0.00177454 0.00664712 0.00443101 0.01699632 0.00147839 0.00201173 0.09155060 0.00561824 0.00491578 0.01053966 0.00127504 
0.03675941 0.02838267 0.00651367 0.00165637 0.00135322 0.00176916 0.00649476 0.00447461 0.01750746 0.00150809 0.00199111 0.09354352 0.00559897 0.00493374 0.01053657 0.00127355 
0.03716622 0.02771348 0.00667781 0.00165853 0.00136515 0.00176430 0.00635102 0.00451672 0.01803337 0.00153924 0.00197197 0.09555188 0.00557678 0.00495978 0.01054404 0.00127209 
0.03756024 0.02710809 0.00685263 0.00166455 0.00137680 0.00175998 0.00621674 0.00455713 0.01857193 0.00157170 0.00195444 0.09756997 0.00555176 0.00499365 0.01056200 0.00127069 
0.03793862 0.02656726 0.00703753 0.00167439 0.00138809 0.00175621 0.00609267 0.00459564 0.01912107 0.00160536 0.00193865 0.09959195 0.00552400 0.00503506 0.01059032 0.00126933 
0.03829851 0.02609143 0.00723187 0.00168798 0.00139894 0.00175300 0.00597950 0.00463207 0.01967872 0.00164007 0.00192470 0.10161187 0.00549360 0.00508366 0.01062882 0.00126803 
0.03863708 0.02568076 0.00743494 0.00170522 0.00140925 0.00175037 0.00587785 0.00466628 0.02024286 0.00167571 0.00191269 0.10362370 0.00546071 0.00513909 0.01067726 0.00126678 
0.03895156 0.02533511 0.00764605 0.00172602 0.00141896 0.00174831 0.00578826 0.00469810 0.02081151 0.00171214 0.00190273 0.10562136 0.00542546 0.00520091 0.01073534 0.00126560 
0.03923923 0.02505405 0.00786445 0.00175024 0.00142801 0.00174684 0.00571118 0.00472742 0.02138272 0.00174922 0.00189490 0.10759870 0.00538802 0.00526869 0.01080271 0.00126448 
0.03949747 0.02483687 0.00808936 0.00177776 0.00143632 0.00174595 0.00564701 0.00475411 0.02195462 0.00178682 0.00188927 0.10954954 0.00534858 0.00534194 0.01087896 0.00126343 
0.03972373 0.02468257 0.00831998 0.00180841 0.00144385 0.00174563 0.00559603 0.00477808 0.02252535 0.00182480 0.00188590 0.11146770 0.00530733 0.00542013 0.01096364 0.00126245 
0.03991560 0.02458992 0.00855552 0.00184202 0.00145054 0.00174588 0.00555848 0.00479926 0.02309313 0.00186303 0.00188485 0.11334700 0.00526448 0.00550273 0.01105623 0.00126154 
0.04007078 0.02455742 0.00879511 0.00187840 0.00145637 0.00174669 0.00553447 0.00481757 0.02365623 0.00190138 0.00188616 0.11518130 0.00522026 0.00558916 0.01115620 0.00126070 
0.04018714 0.02458332 0.00903793 0.00191735 0.00146128 0.00174803 0.00552406 0.00483298 0.02421297 0.00193970 0.00188986 0.11696451 0.00517488 0.00567884 0.01126294 0.00125994 
0.04026270 0.02466567 0.00928309 0.00195866 0.00146525 0.00174991 0.00552723 0.00484546 0.02476174 0.00197789 0.00189597 0.11869060 0.00512858 0.00577115 0.01137582 0.00125924 
0.04029567 0.02480228 0.00952972 0.00200209 0.00146827 0.00175228 0.00554384 0.00485499 0.02530098 0.00201581 0.00190451 0.12035364 0.00508162 0.00586547 0.01149416 0.00125861 
0.04028445 0.02499077 0.00977695 0.00204741 0.00147032 0.00175514 0.00557371 0.00486158 0.02582918 0.00205334 0.00191547 0.12194784 0.00503422 0.00596117 0.01161728 0.00125806 
0.04022767 0.02522860 0.01002386 0.00209436 0.00147139 0.00175845 0.00561657 0.00486525 0.02634490 0.00209038 0.00192884 0.12346752 0.00498663 0.00605761 0.01174442 0.00125756 
0.04012416 0.02551304 0.01026958 0.00214269 0.00147149 0.00176218 0.00567207 0.00486603 0.02684678 0.00212680 0.00194462 0.12490718 0.00493911 0.00615416 0.01187484 0.00125713 
0.03997301 0.02584120 0.01051320 0.00219213 0.00147062 0.00176631 0.00573978 0.00486396 0.02733347 0.00216251 0.00196276 0.12626150 0.00489188 0.00625016 0.01200775 0.00125676 
0.03977354 0.02621010 0.01075383 0.00224241 0.00146879 0.00177080 0.00581922 0.00485913 0.02780373 0.00219741 0.00198323 0.12752536 0.00484519 0.00634499 0.01214237 0.00125645 
0.03952535 0.02661660 0.01099058 0.00229324 0.00146603 0.00177561 0.00590982 0.00485159 0.02825633 0.00223139 0.00200598 0.12869391 0.00479925 0.00643803 0.01227788 0.00125619 
0.03922829 0.02705750 0.01122257 0.00234435 0.00146235 0.00178070 0.00601098 0.00484143 0.02869014 0.00226438 0.00203095 0.12976250 0.00475430 0.00652866 0.01241348 0.00125598 
0.03888250 0.02752948 0.01144892 0.00239545 0.00145779 0.00178603 0.00612202 0.00482875 0.02910406 0.00229629 0.00205809 0.13072680 0.00471053 0.00661628 0.01254835 0.00125582 
0.03848840 0.02802920 0.01166877 0.00244625 0.00145237 0.00179156 0.00624220 0.00481366 0.02949706 0.00232705 0.00208732 0.13158275 0.00466814 0.00670033 0.01268168 0.00125570 
0.03804669 0.02855324 0.01188126 0.00249646 0.00144614 0.00179725 0.00637077 0.00479626 0.02986815 0.00235658 0.00211856 0.13232664 0.00462730 0.00678025 0.01281266 0.00125561 
0.03755837 0.02909817 0.01208557 0.00254580 0.00143914 0.00180304 0.00650689 0.00477670 0.03021642 0.00238483 0.00215172 0.13295508 0.00458819 0.00685552 0.01294050 0.00125556 
0.03702472 0.02966054 0.01228088 0.00259399 0.00143141 0.00180889 0.00664972 0.00475508 0.03054100 0.00241173 0.00218671 0.13346504 0.00455095 0.00692566 0.01306442 0.00125554 
0.03644732 0.03023691 0.01246640 0.00264074 0.00142300 0.00181475 0.00679837 0.00473156 0.03084107 0.00243724 0.00222343 0.13385390 0.00451570 0.00699021 0.01318366 0.00125554 
0.03582805 0.03082386 0.01264135 0.00268579 0.00141397 0.00182058 0.00695194 0.00470627 0.03111589 0.00246132 0.00226177 0.13411941 0.00448256 0.00704874 0.01329749 0.00125556 
0.03516904 0.03141801 0.01280500 0.00272886 0.00140435 0.00182631 0.00710948 0.00467935 0.03136475 0.00248392 0.00230162 0.13425976 0.00445161 0.00710089 0.01340522 0.00125561 
0.03447274 0.03201602 0.01295662 0.00276970 0.00139420 0.00183190 0.00727006 0.00465095 0.03158701 0.00250501 0.00234287 0.13427356 0.00442292 0.00714631 0.01350616 0.00125566 
0.03374185 0.03261462 0.01309553 0.00280806 0.00138358 0.00183730 0.00743272 0.00462121 0.03178210 0.00252458 0.00238539 0.13415989 0.00439653 0.00718471 0.01359969 0.00125573 
0.03297933 0.03321062 0.01322108 0.00284370 0.00137255 0.00184246 0.00759650 0.00459030 0.03194948 0.00254259 0.00242906 0.13391826 0.00437248 0.00721585 0.01368523 0.00125580 
0.03218840 0.03380093 0.01333265 0.00287639 0.00136114 0.00184733 0.00776046 0.00455835 0.03208871 0.00255905 0.00247375 0.13354871 0.00435076 0.00723954 0.01376222 0.00125588 
0.03137253 0.03438254 0.01342967 0.00290592 0.00134943 0.00185185 0.00792365 0.00452552 0.03219938 0.00257393 0.00251932 0.13305172 0.00433137 0.00725562 0.01383018 0.00125597 
0.03053538 0.03495259 0.01351159 0.00293209 0.00133745 0.00185598 0.00808513 0.00449195 0.03228117 0.00258724 0.00256565 0.13242830 0.00431425 0.00726401 0.01388866 0.00125606 
0.02968087 0.03550830 0.01357791 0.00295471 0.00132526 0.00185967 0.00824400 0.00445778 0.03233381 0.00259899 0.00261258 0.13167996 0.00429936 0.00726466 0.01393727 0.00125615 
0.02881307 0.03604706 0.01362819 0.00297362 0.00131292 0.00186287 0.00839937 0.00442317 0.03235711 0.00260917 0.00265999 0.13080870 0.00428662 0.00725758 0.01397569 0.00125624 
0.02793624 0.03656639 0.01366203 0.00298866 0.00130046 0.00186554 0.00855038 0.00438824 0.03235095 0.00261781 0.00270773 0.12981706 0.00427592 0.00724283 0.01400364 0.00125633 
0.02705479 0.03706395 0.01367906 0.00299970 0.00128794 0.00186764 0.00869622 0.00435313 0.03231529 0.00262492 0.00275565 0.12870810 0.00426717 0.00722055 0.01402091 0.00125642 
0.02617328 0.03753756 0.01367898 0.00300662 0.00127540 0.00186913 0.00883609 0.00431797 0.03225015 0.00263052 0.00280361 0.12748538 0.00426023 0.00719088 0.01402736 0.00125652 
0.02529636 0.03798522 0.01366154 0.00300932 0.00126287 0.00186996 0.00896926 0.00428289 0.03215566 0.00263464 0.00285147 0.12615299 0.00425496 0.00715407 0.01402291 0.00125662 
0.02442877 0.03840506 0.01362654 0.00300774 0.00125041 0.00187011 0.00909504 0.00424801 0.03203200 0.00263732 0.00289908 0.12471551 0.00425121 0.00711038 0.01400755 0.00125673 
0.02357532 0.03879542 0.01357385 0.00300181 0.00123804 0.00186954 0.00921278 0.00421344 0.03187947 0.00263858 0.00294629 0.12317805 0.00424880 0.00706013 0.01398134 0.00125684 
0.02274085 0.03915479 0.01350339 0.00299149 0.00122579 0.00186823 0.00932189 0.00417929 0.03169844 0.00263846 0.00299295 0.12154619 0.00424757 0.00700371 0.01394438 0.00125697 
0.02193023 0.03948182 0.01341513 0.00297677 0.00121371 0.00186615 0.00942184 0.00414566 0.03148936 0.00263701 0.00303893 0.11982600 0.00424733 0.00694153 0.01389688 0.00125711 
0.02114829 0.03977537 0.01330911 0.00295766 0.00120182 0.00186329 0.00951217 0.00411266 0.03125280 0.00263427 0.00308409 0.11802402 0.00424789 0.00687406 0.01383910 0.00125727 
0.02039985 0.04003444 0.01318546 0.00293419 0.00119014 0.00185963 0.00959246 0.00408038 0.03098940 0.00263029 0.00312826 0.11614724 0.00424906 0.00680180 0.01377134 0.00125745 
0.01968964 0.04025825 0.01304432 0.00290640 0.00117870 0.00185516 0.00966237 0.00404890 0.03069991 0.00262511 0.00317133 0.11420308 0.00425065 0.00672532 0.01369401 0.00125766 
0.01902230 0.04044614 0.01288594 0.00287436 0.00116752 0.00184987 0.00972162 0.00401831 0.03038518 0.00261880 0.00321315 0.11219936 0.00425245 0.00664518 0.01360755 0.00125789 
0.01840238 0.04059766 0.01271062 0.00283817 0.00115661 0.00184377 0.00976999 0.00398868 0.03004615 0.00261141 0.00325358 0.11014431 0.00425428 0.00656201 0.01351249 0.00125817 
0.01783425 0.04071252 0.01251873 0.00279794 0.00114600 0.00183685 0.00980734 0.00396009 0.02968386 0.00260299 0.00329250 0.10804649 0.00425595 0.00647647 0.01340939 0.00125848 
0.01732212 0.04079058 0.01231069 0.00275380 0.00113570 0.00182914 0.00983360 0.00393259 0.02929944 0.00259361 0.00332976 0.10591480 0.00425728 0.00638923 0.01329890 0.00125884 
0.01687003 0.04083188 0.01208702 0.00270590 0.00112573 0.00182065 0.00984875 0.00390626 0.02889414 0.00258333 0.00336526 0.10375846 0.00425809 0.00630099 0.01318171 0.00125925 
0.01648176 0.04083661 0.01184826 0.00265443 0.00111609 0.00181140 0.00985285 0.00388115 0.02846929 0.00257221 0.00339887 0.10158693 0.00425821 0.00621247 0.01305855 0.00125971 
0.01616088 0.04080511 0.01159507 0.00259958 0.00110680 0.00180141 0.00984604 0.00385731 0.02802630 0.00256033 0.00343047 0.09940990 0.00425748 0.00612441 0.01293021 0.00126023 
0.01591069 0.04073788 0.01132813 0.00254155 0.00109787 0.00179073 0.00982849 0.00383480 0.02756671 0.00254774 0.00345995 0.09723728 0.00425578 0.00603757 0.01279755 0.00126081 
0.01573419 0.04063552 0.01104821 0.00248057 0.00108931 0.00177938 0.00980048 0.00381365 0.02709211 0.00253451 0.00348721 0.09507912 0.00425295 0.00595269 0.01266143 0.00126147 
0.01563410 0.04049882 0.01075612 0.00241690 0.00108112 0.00176743 0.00976232 0.00379391 0.02660419 0.00252073 0.00351214 0.09294557 0.00424890 0.00587053 0.01252277 0.00126219 
0.01561278 0.04032867 0.01045276 0.00235080 0.00107332 0.00175491 0.00971439 0.00377562 0.02610472 0.00250645 0.00353466 0.09084687 0.00424351 0.00579186 0.01238252 0.00126299 
0.01567229 0.04012606 0.01013905 0.00228254 0.00106592 0.00174188 0.00965714 0.00375882 0.02559554 0.00249175 0.00355467 0.08879329 0.00423671 0.00571741 0.01224165 0.00126387 
0.01581431 0.03989214 0.00981601 0.00221243 0.00105891 0.00172841 0.00959107 0.00374352 0.02507857 0.00247671 0.00357210 0.08679507 0.00422843 0.00564794 0.01210118 0.00126483 
0.01604015 0.03962814 0.00948468 0.00214075 0.00105233 0.00171457 0.00951672 0.00372978 0.02455578 0.00246139 0.00358687 0.08486239 0.00421863 0.00558417 0.01196210 0.00126587 
0.01635076 0.03933539 0.00914616 0.00206784 0.00104617 0.00170042 0.00943471 0.00371761 0.02402918 0.00244588 0.00359893 0.08300533 0.00420726 0.00552680 0.01182547 0.00126700 
0.01674667 0.03901533 0.00880159 0.00199402 0.00104044 0.00168604 0.00934567 0.00370703 0.02350086 0.00243024 0.00360821 0.08123381 0.00419432 0.00547652 0.01169231 0.00126822 
0.01722803 0.03866948 0.00845217 0.00191963 0.00103516 0.00167152 0.00925032 0.00369808 0.02297293 0.00241455 0.00361468 0.07955754 0.00417982 0.00543398 0.01156367 0.00126953 
0.01779460 0.03829944 0.00809912 0.00184501 0.00103034 0.00165695 0.00914937 0.00369077 0.02244753 0.00239889 0.00361829 0.07798599 0.00416378 0.00539980 0.01144059 0.00127092 
0.01844570 0.03790688 0.00774370 0.00177051 0.00102600 0.00164241 0.00904361 0.00368512 0.02192682 0.00238333 0.00361902 0.07652831 0.00414625 0.00537457 0.01132409 0.00127240 
0.01918026 0.03749355 0.00738720 0.00169650 0.00102214 0.00162799 0.00893384 0.00368115 0.02141297 0.00236795 0.00361686 0.07519332 0.00412728 0.00535883 0.01121519 0.00127396 
0.01999681 0.03706126 0.00703094 0.00162333 0.00101879 0.00161380 0.00882088 0.00367888 0.02090815 0.00235281 0.00361180 0.07398944 0.00410696 0.00535307 0.01111489 0.00127561 
0.02089344 0.03661186 0.00667625 0.00155137 0.00101596 0.00159993 0.00870560 0.00367830 0.02041452 0.00233800 0.00360384 0.07292465 0.00408538 0.00535777 0.01102414 0.00127735 
0.02186788 0.03614728 0.00632448 0.00148098 0.00101367 0.00158649 0.00858886 0.00367945 0.01993422 0.00232358 0.00359300 0.07200645 0.00406264 0.00537331 0.01094390 0.00127916 
0.02291743 0.03566946 0.00597698 0.00141252 0.00101194 0.00157357 0.00847156 0.00368231 0.01946936 0.00230963 0.00357932 0.07124181 0.00403888 0.00540004 0.01087506 0.00128104 
0.02403903 0.03518042 0.00563511 0.00134635 0.00101078 0.00156129 0.00835459 0.00368691 0.01902199 0.00229620 0.00356282 0.07063712 0.00401422 0.00543825 0.01081848 0.00128299 
0.02522925 0.03468219 0.00530023 0.00128282 0.00101023 0.00154974 0.00823885 0.00369324 0.01859413 0.00228338 0.00354358 0.07019817 0.00398882 0.00548818 0.01077497 0.00128501 
0.02648426 0.03417683 0.00497367 0.00122230 0.00101029 0.00153903 0.00812524 0.00370131 0.01818772 0.00227123 0.00352164 0.06993010 0.00396285 0.00554999 0.01074528 0.00128708 
0.02779993 0.03366644 0.00465676 0.00116512 0.00101099 0.00152927 0.00801467 0.00371110 0.01780463 0.00225981 0.00349710 0.06983736 0.00393646 0.00562379 0.01073013 0.00128921 
0.02917177 0.03315314 0.00435081 0.00111160 0.00101235 0.00152055 0.00790802 0.00372263 0.01744662 0.00224918 0.00347003 0.06992370 0.00390983 0.00570962 0.01073015 0.00129137 
0.03059500 0.03263907 0.00405709 0.00106209 0.00101440 0.00151298 0.00780617 0.00373587 0.01711538 0.00223940 0.00344055 0.07019210 0.00388315 0.00580745 0.01074591 0.00129358 
0.03206454 0.03212639 0.00377685 0.00101688 0.00101714 0.00150665 0.00770996 0.00375082 0.01681248 0.00223052 0.00340876 0.07064480 0.00385660 0.00591719 0.01077793 0.00129581 
0.03357504 0.03161725 0.00351127 0.00097628 0.00102061 0.00150166 0.00762024 0.00376747 0.01653937 0.00222260 0.00337480 0.07128320 0.00383039 0.00603868 0.01082662 0.00129806 
0.03512093 0.03111385 0.00326151 0.00094057 0.00102481 0.00149810 0.00753780 0.00378578 0.01629737 0.00221569 0.00333880 0.07210793 0.00380469 0.00617168 0.01089236 0.00130031 
0.03669640 0.03061836 0.00302867 0.00091002 0.00102977 0.00149605 0.00746341 0.00380575 0.01608767 0.00220983 0.00330092 0.07311874 0.00377971 0.00631591 0.01097541 0.00130257 
0.03829546 0.03013298 0.00281378 0.00088487 0.00103550 0.00149559 0.00739781 0.00382734 0.01591131 0.00220506 0.00326131 0.07431459 0.00375563 0.00647099 0.01107596 0.00130482 
0.03991194 0.02965989 0.00261781 0.00086536 0.00104201 0.00149681 0.00734169 0.00385052 0.01576918 0.00220142 0.00322016 0.07569353 0.00373265 0.00663650 0.01119413 0.00130704 
0.04153956 0.02920130 0.00244166 0.00085170 0.00104931 0.00149975 0.00729571 0.00387525 0.01566200 0.00219895 0.00317763 0.07725279 0.00371095 0.00681194 0.01132993 0.00130923 
0.04317193 0.02875939 0.00228616 0.00084407 0.00105741 0.00150450 0.00726045 0.00390150 0.01559035 0.00219766 0.00313393 0.07898873 0.00369071 0.00699676 0.01148331 0.00131139 
0.04480257 0.02833634 0.00215205 0.00084265 0.00106632 0.00151110 0.00723647 0.00392922 0.01555461 0.00219759 0.00308926 0.08089685 0.00367210 0.00719033 0.01165411 0.00131348 
0.04642499 0.02793433 0.00203998 0.00084757 0.00107603 0.00151959 0.00722425 0.00395835 0.01555501 0.00219875 0.00304382 0.08297183 0.00365529 0.00739198 0.01184210 0.00131552 
0.04803265 0.02755552 0.00195051 0.00085896 0.00108655 0.00153001 0.00722424 0.00398884 0.01559159 0.00220116 0.00299783 0.08520749 0.00364044 0.00760098 0.01204693 0.00131748 
0.04961906 0.02720206 0.00188413 0.00087690 0.00109786 0.00154240 0.00723681 0.00402064 0.01566421 0.00220482 0.00295152 0.08759685 0.00362768 0.00781654 0.01226820 0.00131935 
0.05117778 0.02687607 0.00184120 0.00090148 0.00110995 0.00155677 0.00726225 0.00405366 0.01577257 0.00220974 0.00290512 0.09013213 0.00361716 0.00803783 0.01250540 0.00132113 
0.05270245 0.02657966 0.00182200 0.00093274 0.00112282 0.00157313 0.00730082 0.00408785 0.01591615 0.00221591 0.00285885 0.09280480 0.00360900 0.00826398 0.01275795 0.00132281 
0.05418682 0.02631492 0.00182670 0.00097068 0.00113643 0.00159147 0.00735269 0.00412313 0.01609430 0.00222332 0.00281295 0.09560560 0.00360330 0.00849407 0.01302516 0.00132437 
0.05562479 0.02608388 0.00185536 0.00101530 0.00115077 0.00161180 0.00741796 0.00415941 0.01630615 0.00223196 0.00276767 0.09852454 0.00360017 0.00872715 0.01330629 0.00132581 
0.05701046 0.02588857 0.00190794 0.00106655 0.00116581 0.00163409 0.00749666 0.00419661 0.01655068 0.00224181 0.00272323 0.10155100 0.00359970 0.00896224 0.01360050 0.00132712 
0.05833811 0.02573096 0.00198431 0.00112439 0.00118150 0.00165830 0.00758877 0.00423464 0.01682669 0.00225285 0.00267988 0.10467373 0.00360194 0.00919831 0.01390689 0.00132828 
0.05960228 0.02561297 0.00208420 0.00118870 0.00119782 0.00168440 0.00769417 0.00427340 0.01713283 0.00226503 0.00263785 0.10788092 0.00360696 0.00943436 0.01422449 0.00132930 
0.06079775 0.02553649 0.00220725 0.00125937 0.00121471 0.00171234 0.00781267 0.00431280 0.01746758 0.00227833 0.00259737 0.11116024 0.00361480 0.00966933 0.01455223 0.00133017 
0.06191963 0.02550332 0.00235300 0.00133625 0.00123212 0.00174205 0.00794402 0.00435273 0.01782928 0.00229269 0.00255868 0.11449888 0.00362549 0.00990217 0.01488903 0.00133088 
0.06296330 0.02551522 0.00252087 0.00141917 0.00125001 0.00177346 0.00808789 0.00439308 0.01821611 0.00230808 0.00252198 0.11788365 0.00363905 0.01013182 0.01523371 0.00133142 
0.06392452 0.02557387 0.00271020 0.00150793 0.00126831 0.00180649 0.00824389 0.00443375 0.01862613 0.00232443 0.00248750 0.12130099 0.00365548 0.01035723 0.01558505 0.00133179 
0.06479940 0.02568087 0.00292020 0.00160230 0.00128696 0.00184104 0.00841154 0.00447462 0.01905730 0.00234168 0.00245545 0.12473707 0.00367476 0.01057735 0.01594180 0.00133199 
0.06558443 0.02583772 0.00315001 0.00170203 0.00130588 0.00187703 0.00859032 0.00451558 0.01950742 0.00235978 0.00242601 0.12817782 0.00369687 0.01079114 0.01630264 0.00133202 
0.06627651 0.02604583 0.00339866 0.00180684 0.00132501 0.00191433 0.00877962 0.00455652 0.01997423 0.00237865 0.00239936 0.13160905 0.00372178 0.01099759 0.01666624 0.00133186 
0.06687293 0.02630652 0.00366511 0.00191643 0.00134427 0.00195283 0.00897878 0.00459730 0.02045537 0.00239822 0.00237569 0.13501645 0.00374944 0.01119572 0.01703122 0.00133154 
0.06737145 0.02662097 0.00394821 0.00203050 0.00136357 0.00199240 0.00918707 0.00463782 0.02094841 0.00241841 0.00235514 0.13838572 0.00377979 0.01138457 0.01739620 0.00133103 
0.06777025 0.02699026 0.00424676 0.00214868 0.00138284 0.00203291 0.00940371 0.00467795 0.02145086 0.00243913 0.00233786 0.14170260 0.00381276 0.01156322 0.01775977 0.00133035 
0.06806796 0.02741531 0.00455946 0.00227063 0.00140199 0.00207421 0.00962786 0.00471759 0.02196016 0.00246030 0.00232397 0.14495296 0.00384828 0.01173078 0.01812051 0.00132950 
0.06826368 0.02789693 0.00488498 0.00239596 0.00142093 0.00211617 0.00985864 0.00475660 0.02247377 0.00248184 0.00231357 0.14812286 0.00388626 0.01188644 0.01847702 0.00132848 
0.06835698 0.02843574 0.00522189 0.00252428 0.00143957 0.00215862 0.01009511 0.00479487 0.02298908 0.00250364 0.00230676 0.15119864 0.00392661 0.01202942 0.01882787 0.00132730 
0.06834787 0.02903223 0.00556873 0.00265518 0.00145781 0.00220142 0.01033630 0.00483228 0.02350350 0.00252562 0.00230361 0.15416696 0.00396922 0.01215901 0.01917166 0.00132595 
0.06823684 0.02968670 0.00592401 0.00278824 0.00147557 0.00224440 0.01058121 0.00486873 0.02401447 0.00254768 0.00230416 0.15701488 0.00401399 0.01227454 0.01950703 0.00132446 
0.06802485 0.03039928 0.00628617 0.00292302 0.00149275 0.00228739 0.01082878 0.00490411 0.02451942 0.00256972 0.00230844 0.15972995 0.00406080 0.01237543 0.01983261 0.00132281 
0.06771330 0.03116991 0.00665364 0.00305908 0.00150926 0.00233023 0.01107795 0.00493830 0.02501584 0.00259164 0.00231646 0.16230023 0.00410955 0.01246117 0.02014709 0.00132104 
0.06730404 0.03199833 0.00702484 0.00319596 0.00152501 0.00237275 0.01132762 0.00497121 0.02550130 0.00261335 0.00232821 0.16471439 0.00416011 0.01253132 0.02044919 0.00131913 
0.06679937 0.03288407 0.00739817 0.00333321 0.00153990 0.00241479 0.01157670 0.00500274 0.02597339 0.00263474 0.00234366 0.16696174 0.00421236 0.01258551 0.02073767 0.00131711 
0.06620200 0.03382645 0.00777201 0.00347038 0.00155386 0.00245618 0.01182407 0.00503280 0.02642984 0.00265571 0.00236273 0.16903232 0.00426618 0.01262346 0.02101135 0.00131498 
0.06551505 0.03482459 0.00814476 0.00360698 0.00156678 0.00249674 0.01206861 0.00506130 0.02686842 0.00267617 0.00238537 0.17091691 0.00432143 0.01264498 0.02126912 0.00131275 
0.06474203 0.03587735 0.00851486 0.00374257 0.00157860 0.00253631 0.01230919 0.00508815 0.02728707 0.00269603 0.00241145 0.17260712 0.00437800 0.01264996 0.02150991 0.00131045 
0.06388683 0.03698340 0.00888072 0.00387668 0.00158924 0.00257474 0.01254472 0.00511330 0.02768380 0.00271518 0.00244088 0.17409540 0.00443576 0.01263835 0.02173274 0.00130807 
0.06295368 0.03814115 0.00924084 0.00400886 0.00159861 0.00261186 0.01277409 0.00513667 0.02805678 0.00273353 0.00247349 0.17537509 0.00449457 0.01261024 0.02193670 0.00130563 
0.06194713 0.03934878 0.00959372 0.00413866 0.00160666 0.00264752 0.01299623 0.00515819 0.02840433 0.00275101 0.00250913 0.17644049 0.00455433 0.01256576 0.02212095 0.00130315 
0.06087204 0.04060423 0.00993792 0.00426564 0.00161332 0.00268158 0.01321009 0.00517783 0.02872491 0.00276752 0.00254761 0.17728682 0.00461489 0.01250514 0.02228475 0.00130064 
0.05973353 0.04190522 0.01027207 0.00438936 0.00161852 0.00271388 0.01341466 0.00519553 0.02901714 0.00278297 0.00258874 0.17791031 0.00467615 0.01242873 0.02242744 0.00129812 
0.05853697 0.04324920 0.01059485 0.00450942 0.00162223 0.00274430 0.01360895 0.00521125 0.02927982 0.00279731 0.00263230 0.17830817 0.00473797 0.01233691 0.02254845 0.00129559 
0.05728794 0.04463343 0.01090502 0.00462541 0.00162439 0.00277271 0.01379203 0.00522498 0.02951192 0.00281044 0.00267805 0.17847865 0.00480024 0.01223018 0.02264732 0.00129308 
0.05599219 0.04605489 0.01120142 0.00473694 0.00162497 0.00279900 0.01396302 0.00523668 0.02971259 0.00282231 0.00272574 0.17842102 0.00486284 0.01210912 0.02272366 0.00129060 
0.05465563 0.04751037 0.01148299 0.00484364 0.00162394 0.00282304 0.01412107 0.00524635 0.02988116 0.00283286 0.00277511 0.17813557 0.00492565 0.01197438 0.02277719 0.00128815 
0.05328429 0.04899642 0.01174873 0.00494517 0.00162128 0.00284475 0.01426541 0.00525398 0.03001718 0.00284203 0.00282588 0.17762362 0.00498857 0.01182669 0.02280776 0.00128577 
0.05188427 0.05050939 0.01199777 0.00504120 0.00161698 0.00286403 0.01439534 0.00525958 0.03012034 0.00284978 0.00287777 0.17688751 0.00505148 0.01166684 0.02281527 0.00128345 
0.05046172 0.05204542 0.01222933 0.00513143 0.00161102 0.00288081 0.01451020 0.00526316 0.03019057 0.00285605 0.00293048 0.17593058 0.00511427 0.01149570 0.02279976 0.00128122 
0.04902280 0.05360046 0.01244274 0.00521557 0.00160342 0.00289501 0.01460944 0.00526474 0.03022795 0.00286082 0.00298371 0.17475714 0.00517683 0.01131419 0.02276135 0.00127908 
0.04757366 0.05517029 0.01263745 0.00529337 0.00159419 0.00290659 0.01469255 0.00526435 0.03023277 0.00286406 0.00303714 0.17337249 0.00523904 0.01112331 0.02270028 0.00127705 
0.04612040 0.05675050 0.01281302 0.00536461 0.00158334 0.00291550 0.01475911 0.00526201 0.03020551 0.00286575 0.00309048 0.17178284 0.00530082 0.01092410 0.02261687 0.00127515 
0.04466900 0.05833657 0.01296912 0.00542908 0.00157090 0.00292170 0.01480880 0.00525779 0.03014681 0.00286587 0.00314341 0.16999528 0.00536204 0.01071762 0.02251155 0.00127338 
0.04322535 0.05992380 0.01310555 0.00548662 0.00155692 0.00292518 0.01484136 0.00525171 0.03005750 0.00286441 0.00319561 0.16801779 0.00542260 0.01050502 0.02238485 0.00127175 
0.04179520 0.06150741 0.01322224 0.00553707 0.00154143 0.00292592 0.01485661 0.00524384 0.02993858 0.00286138 0.00324677 0.16585913 0.00548240 0.01028744 0.02223738 0.00127027 
0.04038408 0.06308251 0.01331922 0.00558034 0.00152450 0.00292394 0.01485449 0.00523424 0.02979120 0.00285679 0.00329658 0.16352882 0.00554133 0.01006608 0.02206983 0.00126896 
0.03899734 0.06464414 0.01339665 0.00561633 0.00150618 0.00291925 0.01483500 0.00522298 0.02961668 0.00285065 0.00334475 0.16103712 0.00559927 0.00984212 0.02188301 0.00126782 
0.03764009 0.06618726 0.01345482 0.00564500 0.00148654 0.00291187 0.01479824 0.00521012 0.02941646 0.00284298 0.00339099 0.15839492 0.00565612 0.00961679 0.02167778 0.00126685 
0.03631715 0.06770685 0.01349413 0.00566633 0.00146565 0.00290186 0.01474438 0.00519574 0.02919213 0.00283382 0.00343500 0.15561370 0.00571176 0.00939131 0.02145509 0.00126607 
0.03503308 0.06919782 0.01351509 0.00568032 0.00144361 0.00288925 0.01467370 0.00517992 0.02894540 0.00282320 0.00347652 0.15270548 0.00576609 0.00916690 0.02121596 0.00126548 
0.03379213 0.07065514 0.01351832 0.00568701 0.00142050 0.00287411 0.01458656 0.00516274 0.02867807 0.00281116 0.00351529 0.14968275 0.00581899 0.00894476 0.02096147 0.00126508 
0.03259819 0.07207379 0.01350457 0.00568649 0.00139641 0.00285651 0.01448338 0.00514429 0.02839207 0.00279775 0.00355107 0.14655841 0.00587034 0.00872609 0.02069276 0.00126487 
0.03145484 0.07344882 0.01347467 0.00567884 0.00137144 0.00283654 0.01436470 0.00512466 0.02808938 0.00278303 0.00358363 0.14334566 0.00592002 0.00851207 0.02041105 0.00126486 
0.03036528 0.07477539 0.01342956 0.00566420 0.00134571 0.00281430 0.01423111 0.00510393 0.02777207 0.00276706 0.00361275 0.14005801 0.00596790 0.00830383 0.02011756 0.00126505 
0.02933232 0.07604873 0.01337026 0.00564272 0.00131931 0.00278987 0.01408329 0.00508219 0.02744225 0.00274991 0.00363826 0.13670914 0.00601387 0.00810247 0.01981361 0.00126544 
0.02835841 0.07726425 0.01329787 0.00561458 0.00129236 0.00276339 0.01392198 0.00505953 0.02710209 0.00273165 0.00365997 0.13331284 0.00605780 0.00790906 0.01950050 0.00126602 
0.02744559 0.07841750 0.01321360 0.00558000 0.00126497 0.00273495 0.01374799 0.00503605 0.02675377 0.00271235 0.00367774 0.12988299 0.00609955 0.00772460 0.01917960 0.00126679 
0.02659549 0.07950421 0.01311868 0.00553921 0.00123726 0.00270470 0.01356220 0.00501182 0.02639948 0.00269209 0.00369145 0.12643341 0.00613901 0.00755005 0.01885228 0.00126775 
0.02580937 0.08052035 0.01301445 0.00549247 0.00120936 0.00267276 0.01336555 0.00498695 0.02604142 0.00267097 0.00370098 0.12297788 0.00617602 0.00738630 0.01851993 0.00126890 
0.02508806 0.08146209 0.01290226 0.00544006 0.00118137 0.00263927 0.01315901 0.00496151 0.02568177 0.00264906 0.00370626 0.11952999 0.00621047 0.00723417 0.01818395 0.00127022 
0.02443198 0.08232587 0.01278352 0.00538227 0.00115341 0.00260437 0.01294361 0.00493559 0.02532267 0.00262646 0.00370723 0.11610313 0.00624222 0.00709443 0.01784574 0.00127172 
0.02384120 0.08310842 0.01265969 0.00531943 0.00112562 0.00256822 0.01272044 0.00490927 0.02496622 0.00260326 0.00370385 0.11271041 0.00627114 0.00696774 0.01750670 0.00127337 
0.02331534 0.08380675 0.01253222 0.00525186 0.00109809 0.00253096 0.01249058 0.00488263 0.02461448 0.00257956 0.00369613 0.10936459 0.00629709 0.00685470 0.01716821 0.00127519 
0.02285370 0.08441819 0.01240260 0.00517993 0.00107095 0.00249274 0.01225517 0.00485575 0.02426940 0.00255544 0.00368407 0.10607802 0.00631994 0.00675584 0.01683164 0.00127714 
0.02245517 0.08494040 0.01227230 0.00510398 0.00104431 0.00245373 0.01201537 0.00482869 0.02393287 0.00253100 0.00366771 0.10286259 0.00633956 0.00667159 0.01649832 0.00127923 
0.02211832 0.08537141 0.01214280 0.00502440 0.00101827 0.00241407 0.01177233 0.00480152 0.02360671 0.00250635 0.00364711 0.09972971 0.00635584 0.00660228 0.01616956 0.00128145 
0.02184137 0.08570958 0.01201557 0.00494157 0.00099295 0.00237393 0.01152722 0.00477432 0.02329258 0.00248157 0.00362237 0.09669018 0.00636864 0.00654817 0.01584664 0.00128378 
0.02162221 0.08595368 0.01189201 0.00485587 0.00096843 0.00233346 0.01128121 0.00474713 0.02299208 0.00245676 0.00359359 0.09375424 0.00637785 0.00650942 0.01553078 0.00128620 
0.02145847 0.08610284 0.01177354 0.00476771 0.00094481 0.00229281 0.01103546 0.00472002 0.02270666 0.00243202 0.00356089 0.09093145 0.00638337 0.00648611 0.01522316 0.00128872 
0.02134748 0.08615660 0.01166149 0.00467747 0.00092219 0.00225214 0.01079112 0.00469303 0.02243763 0.00240743 0.00352444 0.08823069 0.00638509 0.00647822 0.01492492 0.00129132 
0.02128632 0.08611489 0.01155715 0.00458555 0.00090064 0.00221159 0.01054930 0.00466622 0.02218619 0.00238308 0.00348439 0.08566014 0.00638292 0.00648564 0.01463711 0.00129397 
0.02127187 0.08597805 0.01146175 0.00449236 0.00088025 0.00217131 0.01031110 0.00463963 0.02195338 0.00235906 0.00344093 0.08322722 0.00637677 0.00650817 0.01436076 0.00129668 
0.02130078 0.08574684 0.01137642 0.00439829 0.00086106 0.00213144 0.01007757 0.00461329 0.02174010 0.00233546 0.00339428 0.08093859 0.00636658 0.00654554 0.01409680 0.00129942 
0.02136956 0.08542241 0.01130223 0.00430372 0.00084316 0.00209212 0.00984972 0.00458725 0.02154710 0.00231235 0.00334465 0.07880009 0.00635227 0.00659738 0.01384610 0.00130219 
0.02147456 0.08500632 0.01124016 0.00420904 0.00082659 0.00205347 0.00962852 0.00456153 0.02137497 0.00228980 0.00329226 0.07681679 0.00633380 0.00666323 0.01360947 0.00130497 
0.02161202 0.08450054 0.01119107 0.00411463 0.00081139 0.00201562 0.00941487 0.00453616 0.02122415 0.00226790 0.00323738 0.07499292 0.00631114 0.00674258 0.01338761 0.00130775 
0.02177811 0.08390741 0.01115573 0.00402083 0.00079761 0.00197870 0.00920963 0.00451116 0.02109493 0.00224670 0.00318025 0.07333192 0.00628426 0.00683482 0.01318119 0.00131052 
0.02196893 0.08322970 0.01113481 0.00392802 0.00078527 0.00194280 0.00901357 0.00448656 0.02098745 0.00222626 0.00312114 0.07183636 0.00625316 0.00693929 0.01299076 0.00131327 
0.02218056 0.08247051 0.01112884 0.00383652 0.00077438 0.00190804 0.00882740 0.00446238 0.02090169 0.00220665 0.00306033 0.07050802 0.00621786 0.00705525 0.01281680 0.00131597 
0.02240910 0.08163333 0.01113824 0.00374666 0.00076498 0.00187451 0.00865175 0.00443863 0.02083750 0.00218790 0.00299808 0.06934785 0.00617837 0.00718190 0.01265971 0.00131864 
0.02265067 0.08072198 0.01116331 0.00365875 0.00075704 0.00184229 0.00848720 0.00441532 0.02079457 0.00217008 0.00293468 0.06835602 0.00613474 0.00731841 0.01251981 0.00132124 
0.02290146 0.07974062 0.01120422 0.00357307 0.00075058 0.00181147 0.00833420 0.00439248 0.02077248 0.00215321 0.00287042 0.06753189 0.00608704 0.00746388 0.01239731 0.00132378 
0.02315775 0.07869373 0.01126101 0.00348991 0.00074558 0.00178212 0.00819315 0.00437010 0.02077065 0.00213734 0.00280558 0.06687406 0.00603534 0.00761737 0.01229238 0.00132625 
0.02341594 0.07758606 0.01133357 0.00340952 0.00074201 0.00175430 0.00806435 0.00434820 0.02078838 0.00212248 0.00274043 0.06638037 0.00597976 0.00777790 0.01220505 0.00132864 
0.02367257 0.07642263 0.01142170 0.00333212 0.00073986 0.00172806 0.00794801 0.00432679 0.02082489 0.00210866 0.00267525 0.06604795 0.00592040 0.00794449 0.01213532 0.00133093 
0.02392436 0.07520874 0.01152503 0.00325794 0.00073907 0.00170345 0.00784426 0.00430588 0.02087925 0.00209590 0.00261032 0.06587325 0.00585741 0.00811609 0.01208307 0.00133314 
0.02416821 0.07394988 0.01164310 0.00318717 0.00073961 0.00168051 0.00775313 0.00428548 0.02095046 0.00208420 0.00254590 0.06585203 0.00579094 0.00829167 0.01204811 0.00133525 
0.02440124 0.07265173 0.01177527 0.00311998 0.00074144 0.00165925 0.00767456 0.00426559 0.02103741 0.00207357 0.00248225 0.06597946 0.00572116 0.00847018 0.01203017 0.00133725 
0.02462080 0.07132017 0.01192083 0.00305652 0.00074449 0.00163971 0.00760842 0.00424624 0.02113894 0.00206401 0.00241961 0.06625009 0.00564828 0.00865057 0.01202890 0.00133915 
0.02482448 0.06996119 0.01207893 0.00299693 0.00074870 0.00162190 0.00755446 0.00422742 0.02125381 0.00205550 0.00235823 0.06665794 0.00557249 0.00883178 0.01204389 0.00134095 
0.02501015 0.06858090 0.01224858 0.00294132 0.00075401 0.00160580 0.00751237 0.00420916 0.02138070 0.00204805 0.00229832 0.06719651 0.00549403 0.00901277 0.01207464 0.00134264 
0.02517596 0.06718551 0.01242873 0.00288977 0.00076034 0.00159142 0.00748175 0.00419146 0.02151829 0.00204162 0.00224009 0.06785886 0.00541313 0.00919252 0.01212058 0.00134422 
0.02532034 0.06578125 0.01261818 0.00284235 0.00076763 0.00157875 0.00746211 0.00417435 0.02166518 0.00203620 0.00218374 0.06863761 0.00533006 0.00937002 0.01218109 0.00134571 
0.02544202 0.06437441 0.01281567 0.00279912 0.00077580 0.00156775 0.00745291 0.00415785 0.02181997 0.00203175 0.00212945 0.06952501 0.00524508 0.00954431 0.01225546 0.00134709 
0.02554005 0.06297126 0.01301982 0.00276009 0.00078475 0.00155842 0.00745352 0.00414197 0.02198125 0.00202825 0.00207739 0.07051298 0.00515849 0.00971443 0.01234296 0.00134837 
0.02561377 0.06157801 0.01322920 0.00272529 0.00079442 0.00155069 0.00746325 0.00412674 0.02214760 0.00202566 0.00202769 0.07159318 0.00507056 0.00987950 0.01244277 0.00134956 
0.02566283 0.06020084 0.01344228 0.00269471 0.00080472 0.00154455 0.00748134 0.00411219 0.02231759 0.00202394 0.00198050 0.07275702 0.00498162 0.01003865 0.01255404 0.00135066 
0.02568723 0.05884582 0.01365750 0.00266832 0.00081555 0.00153993 0.00750698 0.00409834 0.02248984 0.00202304 0.00193591 0.07399572 0.00489197 0.01019107 0.01267586 0.00135168 
0.02568723 0.05751890 0.01387323 0.00264608 0.00082685 0.00153679 0.00753933 0.00408523 0.02266297 0.00202292 0.00189403 0.07530039 0.00480192 0.01033601 0.01280729 0.00135263 
0.02566343 0.05622587 0.01408778 0.00262793 0.00083852 0.00153506 0.00757748 0.00407289 0.02283565 0.00202354 0.00185493 0.07666203 0.00471181 0.01047276 0.01294735 0.00135351 
0.02561669 0.05497235 0.01429947 0.00261382 0.00085048 0.00153468 0.00762051 0.00406135 0.02300658 0.00202483 0.00181867 0.07807161 0.00462197 0.01060070 0.01309503 0.00135434 
0.02554820 0.05376377 0.01450657 0.00260364 0.00086265 0.00153558 0.00766746 0.00405066 0.02317453 0.00202675 0.00178529 0.07952010 0.00453272 0.01071925 0.01324930 0.00135512 
0.02545938 0.05260531 0.01470735 0.00259731 0.00087495 0.00153770 0.00771735 0.00404085 0.02333832 0.00202924 0.00175482 0.08099851 0.00444439 0.01082789 0.01340909 0.00135585 
0.02535194 0.05150191 0.01490008 0.00259472 0.00088731 0.00154096 0.00776919 0.00403196 0.02349682 0.00203225 0.00172725 0.08249795 0.00435732 0.01092618 0.01357333 0.00135656 
0.02522782 0.05045824 0.01508304 0.00259576 0.00089965 0.00154527 0.00782199 0.00402404 0.02364900 0.00203572 0.00170259 0.08400969 0.00427182 0.01101376 0.01374094 0.00135725 
0.02508919 0.04947867 0.01525455 0.00260029 0.00091190 0.00155056 0.00787477 0.00401713 0.02379389 0.00203959 0.00168079 0.08552512 0.00418822 0.01109033 0.01391083 0.00135793 
0.02493843 0.04856727 0.01541295 0.00260820 0.00092400 0.00155676 0.00792654 0.00401128 0.02393059 0.00204381 0.00166184 0.08703591 0.00410682 0.01115565 0.01408192 0.00135861 
0.02477810 0.04772778 0.01555663 0.00261933 0.00093590 0.00156376 0.00797636 0.00400652 0.02405831 0.00204833 0.00164566 0.08853394 0.00402793 0.01120957 0.01425313 0.00135931 
0.02461092 0.04696357 0.01568404 0.00263355 0.00094754 0.00157150 0.00802330 0.00400291 0.02417631 0.00205308 0.00163220 0.09001139 0.00395185 0.01125200 0.01442338 0.00136002 
0.02443976 0.04627769 0.01579369 0.00265071 0.00095886 0.00157989 0.00806646 0.00400049 0.02428397 0.00205803 0.00162137 0.09146076 0.00387884 0.01128294 0.01459165 0.00136076 
0.02426759 0.04567280 0.01588418 0.00267065 0.00096984 0.00158884 0.00810501 0.00399929 0.02438076 0.00206311 0.00161308 0.09287492 0.00380918 0.01130244 0.01475689 0.00136154 
0.02409747 0.04515118 0.01595418 0.00269321 0.00098044 0.00159827 0.00813814 0.00399937 0.02446620 0.00206828 0.00160724 0.09424710 0.00374312 0.01131063 0.01491812 0.00136237 
0.02393254 0.04471473 0.01600248 0.00271825 0.00099062 0.00160810 0.00816511 0.00400075 0.02453995 0.00207350 0.00160374 0.09557094 0.00368089 0.01130770 0.01507437 0.00136326 
0.02377596 0.04436497 0.01602796 0.00274561 0.00100038 0.00161825 0.00818527 0.00400348 0.02460173 0.00207871 0.00160247 0.09684053 0.00362271 0.01129392 0.01522474 0.00136420 
0.02363090 0.04410298 0.01602962 0.00277512 0.00100968 0.00162865 0.00819799 0.00400758 0.02465134 0.00208389 0.00160330 0.09805041 0.00356877 0.01126962 0.01536835 0.00136522 
0.02350051 0.04392950 0.01600657 0.00280663 0.00101853 0.00163921 0.00820276 0.00401308 0.02468869 0.00208900 0.00160611 0.09919557 0.00351925 0.01123516 0.01550437 0.00136630 
0.02338790 0.04384483 0.01595805 0.00283999 0.00102692 0.00164987 0.00819914 0.00402001 0.02471375 0.00209400 0.00161078 0.10027152 0.00347431 0.01119101 0.01563204 0.00136746 
0.02329610 0.04384889 0.01588345 0.00287503 0.00103486 0.00166055 0.00818675 0.00402838 0.02472657 0.00209886 0.00161717 0.10127426 0.00343407 0.01113765 0.01575066 0.00136870 
0.02322805 0.04394120 0.01578229 0.00291161 0.00104237 0.00167119 0.00816535 0.00403822 0.02472728 0.00210356 0.00162516 0.10220032 0.00339865 0.01107564 0.01585958 0.00137002 
0.02318656 0.04412091 0.01565423 0.00294958 0.00104946 0.00168173 0.00813475 0.00404951 0.02471609 0.00210809 0.00163461 0.10304674 0.00336813 0.01100557 0.01595823 0.00137141 
0.02317429 0.04438677 0.01549907 0.00298879 0.00105616 0.00169211 0.00809487 0.00406227 0.02469324 0.00211241 0.00164541 0.10381111 0.00334259 0.01092807 0.01604613 0.00137288 
0.02319373 0.04473718 0.01531679 0.00302909 0.00106250 0.00170228 0.00804574 0.00407650 0.02465907 0.00211654 0.00165743 0.10449154 0.00332205 0.01084383 0.01612283 0.00137442 
0.02324717 0.04517017 0.01510748 0.00307034 0.00106852 0.00171219 0.00798748 0.00409216 0.02461394 0.00212044 0.00167055 0.10508670 0.00330653 0.01075356 0.01618801 0.00137603 
0.02333671 0.04568341 0.01487143 0.00311240 0.00107427 0.00172179 0.00792031 0.00410926 0.02455829 0.00212413 0.00168467 0.10559579 0.00329602 0.01065800 0.01624141 0.00137770 
0.02346417 0.04627427 0.01460905 0.00315515 0.00107979 0.00173105 0.00784456 0.00412774 0.02449259 0.00212761 0.00169966 0.10601856 0.00329049 0.01055793 0.01628285 0.00137942 
0.02363117 0.04693979 0.01432091 0.00319843 0.00108513 0.00173992 0.00776064 0.00414759 0.02441733 0.00213088 0.00171545 0.10635526 0.00328989 0.01045412 0.01631226 0.00138119 
0.02383902 0.04767669 0.01400775 0.00324213 0.00109036 0.00174839 0.00766908 0.00416875 0.02433305 0.00213394 0.00173193 0.10660672 0.00329412 0.01034740 0.01632962 0.00138298 
0.02408877 0.04848142 0.01367044 0.00328612 0.00109554 0.00175643 0.00757049 0.00419116 0.02424033 0.00213683 0.00174902 0.10677424 0.00330310 0.01023858 0.01633505 0.00138478 
0.02438117 0.04935019 0.01331002 0.00333027 0.00110072 0.00176402 0.00746558 0.00421477 0.02413973 0.00213955 0.00176666 0.10685965 0.00331670 0.01012849 0.01632872 0.00138659 
0.02471668 0.05027893 0.01292764 0.00337446 0.00110599 0.00177115 0.00735515 0.00423951 0.02403186 0.00214213 0.00178477 0.10686528 0.00333476 0.01001797 0.01631093 0.00138838 
0.02509544 0.05126337 0.01252463 0.00341857 0.00111140 0.00177780 0.00724008 0.00426529 0.02391733 0.00214459 0.00180332 0.10679392 0.00335712 0.00990785 0.01628203 0.00139013 
0.02551727 0.05229902 0.01210241 0.00346247 0.00111704 0.00178398 0.00712134 0.00429203 0.02379674 0.00214696 0.00182225 0.10664884 0.00338361 0.00979895 0.01624249 0.00139183 
0.02598170 0.05338123 0.01166256 0.00350606 0.00112297 0.00178968 0.00699995 0.00431963 0.02367071 0.00214928 0.00184153 0.10643375 0.00341400 0.00969209 0.01619286 0.00139346 
0.02648790 0.05450518 0.01120677 0.00354921 0.00112926 0.00179492 0.00687702 0.00434798 0.02353984 0.00215157 0.00186116 0.10615277 0.00344809 0.00958808 0.01613379 0.00139498 
0.02703476 0.05566592 0.01073685 0.00359181 0.00113599 0.00179971 0.00675371 0.00437698 0.02340473 0.00215389 0.00188111 0.10581045 0.00348563 0.00948770 0.01606599 0.00139638 
0.02762085 0.05685838 0.01025469 0.00363374 0.00114323 0.00180405 0.00663123 0.00440651 0.02326595 0.00215626 0.00190139 0.10541168 0.00352638 0.00939171 0.01599028 0.00139763 
0.02824443 0.05807742 0.00976230 0.00367489 0.00115105 0.00180797 0.00651085 0.00443644 0.02312407 0.00215873 0.00192201 0.10496174 0.00357007 0.00930085 0.01590754 0.00139871 
0.02890347 0.05931781 0.00926176 0.00371515 0.00115952 0.00181149 0.00639385 0.00446664 0.02297964 0.00216134 0.00194299 0.10446622 0.00361643 0.00921583 0.01581873 0.00139958 
0.02959565 0.06057429 0.00875525 0.00375440 0.00116870 0.00181463 0.00628156 0.00449698 0.02283317 0.00216414 0.00196436 0.10393099 0.00366516 0.00913733 0.01572490 0.00140023 
0.03031837 0.06184159 0.00824500 0.00379252 0.00117865 0.00181744 0.00617531 0.00452730 0.02268516 0.00216716 0.00198616 0.10336222 0.00371597 0.00906597 0.01562713 0.00140063 
0.03106880 0.06311443 0.00773328 0.00382941 0.00118943 0.00181994 0.00607645 0.00455748 0.02253608 0.00217046 0.00200844 0.10276631 0.00376857 0.00900236 0.01552659 0.00140075 
0.03184384 0.06438755 0.00722243 0.00386494 0.00120111 0.00182216 0.00598634 0.00458736 0.02238636 0.00217407 0.00203124 0.10214983 0.00382265 0.00894706 0.01542449 0.00140055 
0.03264018 0.06565575 0.00671482 0.00389901 0.00121371 0.00182415 0.00590630 0.00461678 0.02223642 0.00217805 0.00205464 0.10151958 0.00387789 0.00890056 0.01532209 0.00140002 
0.03345431 0.06691387 0.00621282 0.00393149 0.00122730 0.00182594 0.00583764 0.00464560 0.02208663 0.00218242 0.00207868 0.10088246 0.00393398 0.00886334 0.01522069 0.00139913 
0.03428254 0.06815688 0.00571884 0.00396228 0.00124190 0.00182757 0.00578165 0.00467367 0.02193735 0.00218724 0.00210344 0.10024548 0.00399061 0.00883580 0.01512162 0.00139786 
0.03512101 0.06937980 0.00523525 0.00399126 0.00125755 0.00182909 0.00573958 0.00470083 0.02178889 0.00219255 0.00212900 0.09961572 0.00404746 0.00881830 0.01502625 0.00139617 
0.03596573 0.07057782 0.00476444 0.00401831 0.00127427 0.00183054 0.00571261 0.00472694 0.02164155 0.00219837 0.00215542 0.09900029 0.00410423 0.00881114 0.01493594 0.00139404 
0.03681262 0.07174624 0.00430876 0.00404332 0.00129209 0.00183196 0.00570188 0.00475184 0.02149558 0.00220475 0.00218278 0.09840630 0.00416060 0.00881457 0.01485208 0.00139146 
0.03765749 0.07288053 0.00387052 0.00406619 0.00131101 0.00183339 0.00570846 0.00477540 0.02135122 0.00221171 0.00221115 0.09784081 0.00421628 0.00882877 0.01477606 0.00138841 
0.03849611 0.07397632 0.00345197 0.00408680 0.00133104 0.00183489 0.00573332 0.00479746 0.02120868 0.00221929 0.00224060 0.09731080 0.00427097 0.00885387 0.01470923 0.00138486 
0.03932420 0.07502944 0.00305533 0.00410505 0.00135217 0.00183648 0.00577736 0.00481791 0.02106813 0.00222750 0.00227121 0.09682313 0.00432438 0.00888994 0.01465296 0.00138080 
0.04013750 0.07603591 0.00268271 0.00412084 0.00137441 0.00183821 0.00584140 0.00483662 0.02092975 0.00223637 0.00230303 0.09638450 0.00437623 0.00893698 0.01460856 0.00137622 
0.04093176 0.07699194 0.00233616 0.00413406 0.00139772 0.00184012 0.00592614 0.00485346 0.02079368 0.00224592 0.00233613 0.09600141 0.00442626 0.00899494 0.01457733 0.00137110 
0.04170277 0.07789400 0.00201762 0.00414463 0.00142208 0.00184225 0.00603217 0.00486832 0.02066003 0.00225615 0.00237056 0.09568014 0.00447421 0.00906370 0.01456049 0.00136545 
0.04244641 0.07873875 0.00172894 0.00415245 0.00144746 0.00184463 0.00615996 0.00488112 0.02052893 0.00226707 0.00240636 0.09542669 0.00451984 0.00914309 0.01455923 0.00135925 
0.04315866 0.07952311 0.00147184 0.00415745 0.00147383 0.00184729 0.00630988 0.00489175 0.02040047 0.00227869 0.00244357 0.09524675 0.00456292 0.00923285 0.01457465 0.00135250 
0.04383562 0.08024424 0.00124794 0.00415954 0.00150112 0.00185026 0.00648217 0.00490015 0.02027473 0.00229101 0.00248223 0.09514568 0.00460323 0.00933270 0.01460780 0.00134522 
0.04447354 0.08089953 0.00105869 0.00415866 0.00152930 0.00185357 0.00667691 0.00490625 0.02015180 0.00230401 0.00252234 0.09512843 0.00464058 0.00944226 0.01465962 0.00133739 
0.04506885 0.08148665 0.00090542 0.00415475 0.00155829 0.00185725 0.00689408 0.00490999 0.02003176 0.00231768 0.00256391 0.09519958 0.00467478 0.00956113 0.01473096 0.00132904 
0.04561818 0.08200353 0.00078933 0.00414776 0.00158803 0.00186130 0.00713351 0.00491135 0.01991468 0.00233201 0.00260693 0.09536323 0.00470566 0.00968881 0.01482258 0.00132017 
0.04611837 0.08244833 0.00071142 0.00413765 0.00161845 0.00186576 0.00739489 0.00491030 0.01980062 0.00234697 0.00265139 0.09562303 0.00473309 0.00982479 0.01493513 0.00131081 
0.04656648 0.08281951 0.00067257 0.00412440 0.00164946 0.00187062 0.00767778 0.00490683 0.01968968 0.00236253 0.00269726 0.09598213 0.00475694 0.00996847 0.01506913 0.00130097 
0.04695987 0.08311576 0.00067347 0.00410799 0.00168098 0.00187590 0.00798159 0.00490095 0.01958192 0.00237866 0.00274447 0.09644312 0.00477709 0.01011922 0.01522497 0.00129069 
0.04729611 0.08333605 0.00071464 0.00408841 0.00171293 0.00188160 0.00830559 0.00489270 0.01947743 0.00239533 0.00279298 0.09700806 0.00479345 0.01027634 0.01540294 0.00127998 
0.04757310 0.08347961 0.00079643 0.00406567 0.00174519 0.00188773 0.00864893 0.00488211 0.01937630 0.00241249 0.00284271 0.09767843 0.00480595 0.01043912 0.01560316 0.00126889 
0.04778902 0.08354593 0.00091902 0.00403981 0.00177769 0.00189427 0.00901060 0.00486924 0.01927864 0.00243008 0.00289357 0.09845512 0.00481456 0.01060677 0.01582563 0.00125745 
0.04794236 0.08353476 0.00108240 0.00401085 0.00181031 0.00190121 0.00938948 0.00485417 0.01918455 0.00244807 0.00294544 0.09933840 0.00481923 0.01077848 0.01607020 0.00124571 
0.04803192 0.08344610 0.00128637 0.00397885 0.00184295 0.00190856 0.00978431 0.00483699 0.01909415 0.00246639 0.00299822 0.10032792 0.00481996 0.01095340 0.01633657 0.00123370 
0.04805682 0.08328020 0.00153056 0.00394389 0.00187550 0.00191627 0.01019371 0.00481781 0.01900757 0.00248497 0.00305176 0.10142270 0.00481676 0.01113065 0.01662430 0.00122147 
0.04801653 0.08303756 0.00181442 0.00390603 0.00190786 0.00192435 0.01061620 0.00479676 0.01892496 0.00250377 0.00310592 0.10262110 0.00480966 0.01130933 0.01693278 0.00120909 
0.04791082 0.08271893 0.00213721 0.00386540 0.00193990 0.00193275 0.01105016 0.00477398 0.01884645 0.00252270 0.00316053 0.10392084 0.00479873 0.01148850 0.01726128 0.00119659 
0.04773980 0.08232527 0.00249804 0.00382209 0.00197152 0.00194145 0.01149390 0.00474963 0.01877220 0.00254170 0.00321542 0.10531902 0.00478403 0.01166722 0.01760888 0.00118405 
0.04750393 0.08185781 0.00289580 0.00377624 0.00200262 0.00195042 0.01194561 0.00472388 0.01870240 0.00256069 0.00327039 0.10681207 0.00476566 0.01184451 0.01797456 0.00117152 
0.04720395 0.08131796 0.00332925 0.00372801 0.00203306 0.00195962 0.01240342 0.00469691 0.01863721 0.00257960 0.00332525 0.10839580 0.00474373 0.01201940 0.01835711 0.00115907 
0.04684097 0.08070739 0.00379697 0.00367755 0.00206276 0.00196901 0.01286535 0.00466894 0.01857681 0.00259834 0.00337979 0.11006538 0.00471839 0.01219093 0.01875522 0.00114675 
0.04641638 0.08002796 0.00429739 0.00362505 0.00209159 0.00197855 0.01332939 0.00464017 0.01852139 0.00261685 0.00343378 0.11181539 0.00468978 0.01235811 0.01916741 0.00113464 
0.04593187 0.07928174 0.00482878 0.00357069 0.00211946 0.00198818 0.01379345 0.00461083 0.01847114 0.00263502 0.00348700 0.11363982 0.00465809 0.01251997 0.01959210 0.00112281 
0.04538946 0.07847099 0.00538926 0.00351468 0.00214625 0.00199787 0.01425542 0.00458115 0.01842624 0.00265279 0.00353920 0.11553207 0.00462350 0.01267556 0.02002757 0.00111132 
0.04479142 0.07759818 0.00597682 0.00345725 0.00217187 0.00200756 0.01471313 0.00455138 0.01838690 0.00267006 0.00359013 0.11748503 0.00458622 0.01282393 0.02047199 0.00110024 
0.04414028 0.07666595 0.00658934 0.00339862 0.00219623 0.00201720 0.01516440 0.00452177 0.01835329 0.00268677 0.00363957 0.11949106 0.00454650 0.01296418 0.02092344 0.00108965 
0.04343885 0.07567712 0.00722456 0.00333905 0.00221922 0.00202673 0.01560704 0.00449258 0.01832559 0.00270281 0.00368723 0.12154204 0.00450456 0.01309541 0.02137990 0.00107961 
0.04269017 0.07463467 0.00788012 0.00327878 0.00224076 0.00203609 0.01603887 0.00446408 0.01830397 0.00271811 0.00373288 0.12362943 0.00446067 0.01321677 0.02183925 0.00107019 
0.04189749 0.07354176 0.00855356 0.00321809 0.00226078 0.00204524 0.01645772 0.00443654 0.01828860 0.00273260 0.00377626 0.12574427 0.00441510 0.01332744 0.02229933 0.00106146 
0.04106426 0.07240169 0.00924236 0.00315723 0.00227919 0.00205412 0.01686144 0.00441022 0.01827960 0.00274618 0.00381711 0.12787725 0.00436816 0.01342665 0.02275790 0.00105349 
0.04019411 0.07121789 0.00994390 0.00309650 0.00229592 0.00206266 0.01724793 0.00438540 0.01827713 0.00275879 0.00385517 0.13001875 0.00432014 0.01351368 0.02321268 0.00104633 
0.03929086 0.06999395 0.01065552 0.00303618 0.00231090 0.00207080 0.01761514 0.00436235 0.01828127 0.00277035 0.00389021 0.13215889 0.00427135 0.01358786 0.02366137 0.00104006 
0.03835844 0.06873358 0.01137449 0.00297654 0.00232409 0.00207850 0.01796106 0.00434133 0.01829212 0.00278078 0.00392197 0.13428757 0.00422212 0.01364858 0.02410166 0.00103473 
0.03740092 0.06744059 0.01209808 0.00291789 0.00233543 0.00208570 0.01828380 0.00432261 0.01830975 0.00279002 0.00395023 0.13639455 0.00417279 0.01369530 0.02453121 0.00103038 
0.03642245 0.06611893 0.01282351 0.00286051 0.00234487 0.00209234 0.01858152 0.00430644 0.01833419 0.00279800 0.00397475 0.13846946 0.00412370 0.01372755 0.02494771 0.00102709 
0.03542729 0.06477262 0.01354801 0.00280470 0.00235238 0.00209837 0.01885249 0.00429308 0.01836544 0.00280467 0.00399531 0.14050192 0.00407521 0.01374492 0.02534891 0.00102488 
0.03441974 0.06340579 0.01426883 0.00275073 0.00235792 0.00210373 0.01909508 0.00428275 0.01840349 0.00280996 0.00401173 0.14248154 0.00402766 0.01374707 0.02573256 0.00102380 
0.03340414 0.06202263 0.01498320 0.00269889 0.00236149 0.00210839 0.01930779 0.00427569 0.01844828 0.00281382 0.00402380 0.14439800 0.00398142 0.01373377 0.02609649 0.00102390 
0.03238486 0.06062742 0.01568844 0.00264945 0.00236305 0.00211229 0.01948925 0.00427212 0.01849973 0.00281621 0.00403135 0.14624113 0.00393685 0.01370483 0.02643861 0.00102519 
0.03136624 0.05922448 0.01638188 0.00260268 0.00236262 0.00211538 0.01963821 0.00427222 0.01855771 0.00281708 0.00403422 0.14800093 0.00389432 0.01366019 0.02675693 0.00102771 
0.03035262 0.05781820 0.01706092 0.00255883 0.00236018 0.00211764 0.01975358 0.00427619 0.01862207 0.00281641 0.00403227 0.14966767 0.00385419 0.01359984 0.02704954 0.00103148 
0.02934831 0.05641300 0.01772305 0.00251815 0.00235575 0.00211903 0.01983441 0.00428419 0.01869261 0.00281415 0.00402539 0.15123192 0.00381681 0.01352386 0.02731468 0.00103651 
0.02835753 0.05501331 0.01836583 0.00248088 0.00234934 0.00211950 0.01987992 0.00429638 0.01876910 0.00281028 0.00401346 0.15268461 0.00378255 0.01343245 0.02755071 0.00104280 
0.02738444 0.05362359 0.01898694 0.00244722 0.00234098 0.00211904 0.01988948 0.00431286 0.01885129 0.00280480 0.00399642 0.15401710 0.00375175 0.01332586 0.02775614 0.00105036 
0.02643313 0.05224830 0.01958416 0.00241737 0.00233070 0.00211762 0.01986266 0.00433376 0.01893887 0.00279767 0.00397419 0.15522124 0.00372475 0.01320446 0.02792963 0.00105918 
0.02550753 0.05089188 0.02015540 0.00239153 0.00231854 0.00211522 0.01979916 0.00435916 0.01903150 0.00278891 0.00394676 0.15628939 0.00370188 0.01306870 0.02807003 0.00106924 
0.02461150 0.04955878 0.02069870 0.00236984 0.00230454 0.00211183 0.01969889 0.00438911 0.01912882 0.00277851 0.00391411 0.15721450 0.00368347 0.01291910 0.02817637 0.00108053 
0.02374872 0.04825338 0.02121225 0.00235246 0.00228876 0.00210743 0.01956193 0.00442365 0.01923043 0.00276648 0.00387625 0.15799017 0.00366982 0.01275629 0.02824785 0.00109302 
0.02292276 0.04698002 0.02169439 0.00233950 0.00227127 0.00210203 0.01938855 0.00446281 0.01933590 0.00275284 0.00383323 0.15861064 0.00366122 0.01258098 0.02828388 0.00110667 
0.02213699 0.04574298 0.02214362 0.00233107 0.00225211 0.00209561 0.01917919 0.00450655 0.01944477 0.00273761 0.00378511 0.15907088 0.00365794 0.01239394 0.02828410 0.00112144 
0.02139465 0.04454649 0.02255862 0.00232723 0.00223138 0.00208820 0.01893448 0.00455485 0.01955655 0.00272083 0.00373199 0.15936662 0.00366023 0.01219606 0.02824831 0.00113729 
0.02069878 0.04339466 0.02293824 0.00232803 0.00220914 0.00207979 0.01865522 0.00460764 0.01967074 0.00270252 0.00367398 0.15949437 0.00366832 0.01198827 0.02817658 0.00115415 
0.02005222 0.04229151 0.02328151 0.00233350 0.00218549 0.00207041 0.01834239 0.00466483 0.01978681 0.00268275 0.00361123 0.15945146 0.00368243 0.01177158 0.02806917 0.00117198 
0.01945765 0.04124095 0.02358766 0.00234364 0.00216051 0.00206008 0.01799716 0.00472630 0.01990422 0.00266155 0.00354391 0.15923606 0.00370273 0.01154708 0.02792655 0.00119070 
0.01891752 0.04024676 0.02385610 0.00235842 0.00213429 0.00204881 0.01762086 0.00479193 0.02002241 0.00263900 0.00347222 0.15884719 0.00372938 0.01131589 0.02774943 0.00121023 
0.01843408 0.03931257 0.02408642 0.00237778 0.00210694 0.00203666 0.01721498 0.00486154 0.02014081 0.00261515 0.00339638 0.15828476 0.00376251 0.01107921 0.02753873 0.00123051 
0.01800940 0.03844188 0.02427842 0.00240165 0.00207856 0.00202364 0.01678118 0.00493494 0.02025885 0.00259010 0.00331663 0.15754958 0.00380222 0.01083829 0.02729558 0.00125145 
0.01764530 0.03763799 0.02443210 0.00242992 0.00204926 0.00200981 0.01632127 0.00501193 0.02037595 0.00256391 0.00323326 0.15664333 0.00384858 0.01059441 0.02702133 0.00127296 
0.01734342 0.03690405 0.02454764 0.00246247 0.00201915 0.00199521 0.01583721 0.00509227 0.02049154 0.00253668 0.00314655 0.15556861 0.00390162 0.01034890 0.02671752 0.00129495 
0.01710517 0.03624298 0.02462541 0.00249912 0.00198833 0.00197989 0.01533109 0.00517570 0.02060506 0.00250851 0.00305682 0.15432888 0.00396134 0.01010311 0.02638591 0.00131732 
0.01693176 0.03565753 0.02466599 0.00253971 0.00195694 0.00196391 0.01480514 0.00526196 0.02071594 0.00247950 0.00296441 0.15292853 0.00402771 0.00985840 0.02602841 0.00133998 
0.01682418 0.03515021 0.02467010 0.00258403 0.00192508 0.00194733 0.01426171 0.00535075 0.02082364 0.00244977 0.00286968 0.15137277 0.00410067 0.00961618 0.02564715 0.00136282 
0.01678320 0.03472331 0.02463870 0.00263185 0.00189288 0.00193021 0.01370324 0.00544176 0.02092763 0.00241943 0.00277301 0.14966769 0.00418012 0.00937783 0.02524439 0.00138575 
0.01680942 0.03437889 0.02457286 0.00268292 0.00186046 0.00191263 0.01313229 0.00553467 0.02102742 0.00238860 0.00267480 0.14782020 0.00426591 0.00914474 0.02482257 0.00140866 
0.01690319 0.03411874 0.02447386 0.00273697 0.00182794 0.00189465 0.01255151 0.00562915 0.02112251 0.00235742 0.00257545 0.14583801 0.00435787 0.00891831 0.02438425 0.00143144 
0.01706469 0.03394440 0.02434312 0.00279372 0.00179545 0.00187636 0.01196360 0.00572483 0.02121247 0.00232603 0.00247540 0.14372960 0.00445580 0.00869990 0.02393212 0.00145400 
0.01729390 0.03385715 0.02418219 0.00285285 0.00176310 0.00185783 0.01137137 0.00582136 0.02129687 0.00229456 0.00237507 0.14150414 0.00455944 0.00849085 0.02346899 0.00147622 
0.01759059 0.03385798 0.02399280 0.00291406 0.00173103 0.00183914 0.01077763 0.00591839 0.02137534 0.00226317 0.00227494 0.13917155 0.00466851 0.00829247 0.02299774 0.00149800 
0.01795436 0.03394761 0.02377676 0.00297699 0.00169934 0.00182039 0.01018526 0.00601553 0.02144754 0.00223201 0.00217544 0.13674232 0.00478270 0.00810604 0.02252134 0.00151924 
0.01838461 0.03412645 0.02353603 0.00304131 0.00166817 0.00180165 0.00959717 0.00611241 0.02151316 0.00220122 0.00207705 0.13422759 0.00490166 0.00793277 0.02204282 0.00153984 
0.01888059 0.03439466 0.02327265 0.00310667 0.00163762 0.00178301 0.00901626 0.00620865 0.02157195 0.00217099 0.00198024 0.13163899 0.00502500 0.00777383 0.02156524 0.00155971 
0.01944136 0.03475205 0.02298876 0.00317268 0.00160781 0.00176457 0.00844546 0.00630388 0.02162371 0.00214146 0.00188548 0.12898865 0.00515231 0.00763033 0.02109168 0.00157875 
0.02006580 0.03519816 0.02268657 0.00323899 0.00157887 0.00174642 0.00788765 0.00639773 0.02166827 0.00211281 0.00179324 0.12628914 0.00528314 0.00750329 0.02062522 0.00159687 
0.02075265 0.03573222 0.02236836 0.00330522 0.00155088 0.00172865 0.00734573 0.00648982 0.02170552 0.00208521 0.00170401 0.12355335 0.00541703 0.00739369 0.02016892 0.00161399 
0.02150048 0.03635315 0.02203646 0.00337100 0.00152397 0.00171134 0.00682251 0.00657981 0.02173541 0.00205883 0.00161824 0.12079450 0.00555346 0.00730239 0.01972581 0.00163003 
0.02230773 0.03705959 0.02169323 0.00343595 0.00149823 0.00169461 0.00632079 0.00666733 0.02175793 0.00203384 0.00153640 0.11802602 0.00569193 0.00723019 0.01929886 0.00164491 
0.02317266 0.03784986 0.02134103 0.00349970 0.00147375 0.00167852 0.00584328 0.00675205 0.02177311 0.00201042 0.00145894 0.11526151 0.00583187 0.00717779 0.01889095 0.00165857 
0.02409343 0.03872197 0.02098227 0.00356188 0.00145064 0.00166319 0.00539261 0.00683364 0.02178106 0.00198874 0.00138631 0.11251467 0.00597273 0.00714579 0.01850489 0.00167095 
0.02506804 0.03967367 0.02061930 0.00362215 0.00142897 0.00164870 0.00497133 0.00691180 0.02178192 0.00196897 0.00131894 0.10979922 0.00611393 0.00713469 0.01814336 0.00168198 
0.02609436 0.04070240 0.02025449 0.00368014 0.00140882 0.00163513 0.00458189 0.00698622 0.02177589 0.00195129 0.00125724 0.10712883 0.00625487 0.00714489 0.01780892 0.00169163 
0.02717016 0.04180531 0.01989015 0.00373554 0.00139028 0.00162257 0.00422662 0.00705663 0.02176321 0.00193587 0.00120161 0.10451708 0.00639495 0.00717668 0.01750399 0.00169985 
0.02829306 0.04297931 0.01952853 0.00378802 0.00137340 0.00161111 0.00390772 0.00712277 0.02174418 0.00192286 0.00115243 0.10197734 0.00653354 0.00723024 0.01723081 0.00170661 
0.02946059 0.04422101 0.01917184 0.00383727 0.00135825 0.00160083 0.00362725 0.00718440 0.02171913 0.00191245 0.00111006 0.09952276 0.00667004 0.00730565 0.01699146 0.00171188 
0.03067016 0.04552680 0.01882219 0.00388301 0.00134489 0.00159180 0.00338714 0.00724133 0.02168845 0.00190477 0.00107483 0.09716615 0.00680383 0.00740286 0.01678784 0.00171564 
0.03191908 0.04689280 0.01848162 0.00392499 0.00133335 0.00158411 0.00318915 0.00729334 0.02165255 0.00189999 0.00104705 0.09491995 0.00693429 0.00752172 0.01662161 0.00171789 
0.03320456 0.04831493 0.01815206 0.00396295 0.00132368 0.00157781 0.00303487 0.00734028 0.02161190 0.00189824 0.00102700 0.09279616 0.00706080 0.00766197 0.01649427 0.00171862 
0.03452372 0.04978887 0.01783531 0.00399668 0.00131590 0.00157298 0.00292572 0.00738201 0.02156698 0.00189967 0.00101492 0.09080627 0.00718278 0.00782324 0.01640707 0.00171784 
0.03587358 0.05131012 0.01753308 0.00402599 0.00131005 0.00156967 0.00286295 0.00741842 0.02151831 0.00190441 0.00101105 0.08896119 0.00729963 0.00800505 0.01636102 0.00171556 
0.03725108 0.05287400 0.01724693 0.00405071 0.00130613 0.00156795 0.00284760 0.00744940 0.02146644 0.00191258 0.00101556 0.08727125 0.00741077 0.00820681 0.01635692 0.00171180 
0.03865309 0.05447565 0.01697827 0.00407070 0.00130415 0.00156787 0.00288053 0.00747491 0.02141194 0.00192428 0.00102861 0.08574607 0.00751566 0.00842782 0.01639531 0.00170659 
0.04007639 0.05611008 0.01672838 0.00408586 0.00130411 0.00156946 0.00296239 0.00749490 0.02135540 0.00193961 0.00105032 0.08439457 0.00761377 0.00866731 0.01647648 0.00169996 
0.04151771 0.05777217 0.01649839 0.00409610 0.00130600 0.00157277 0.00309363 0.00750937 0.02129742 0.00195867 0.00108076 0.08322491 0.00770458 0.00892438 0.01660049 0.00169197 
0.04297369 0.05945669 0.01628926 0.00410138 0.00130979 0.00157783 0.00327449 0.00751832 0.02123860 0.00198152 0.00111999 0.08224441 0.00778763 0.00919807 0.01676714 0.00168265 
0.04444092 0.06115833 0.01610178 0.00410168 0.00131547 0.00158467 0.00350498 0.00752180 0.02117956 0.00200823 0.00116801 0.08145959 0.00786247 0.00948731 0.01697598 0.00167207 
0.04591596 0.06287171 0.01593659 0.00409701 0.00132299 0.00159330 0.00378491 0.00751988 0.02112091 0.00203883 0.00122479 0.08087608 0.00792870 0.00979097 0.01722631 0.00166028 
0.04739528 0.06459142 0.01579415 0.00408741 0.00133230 0.00160375 0.00411389 0.00751265 0.02106326 0.00207337 0.00129024 0.08049859 0.00798593 0.01010784 0.01751719 0.00164735 
0.04887535 0.06631201 0.01567476 0.00407296 0.00134336 0.00161601 0.00449127 0.00750021 0.02100720 0.00211185 0.00136428 0.08033092 0.00803385 0.01043664 0.01784746 0.00163337 
0.05035259 0.06802805 0.01557854 0.00405377 0.00135611 0.00163009 0.00491623 0.00748271 0.02095333 0.00215427 0.00144673 0.08037592 0.00807216 0.01077603 0.01821569 0.00161839 
0.05182337 0.06973413 0.01550546 0.00402995 0.00137047 0.00164598 0.00538769 0.00746030 0.02090220 0.00220062 0.00153741 0.08063550 0.00810060 0.01112464 0.01862028 0.00160251 
0.05328408 0.07142490 0.01545531 0.00400169 0.00138637 0.00166366 0.00590440 0.00743315 0.02085436 0.00225085 0.00163610 0.08111058 0.00811899 0.01148104 0.01905937 0.00158581 
0.05473106 0.07309507 0.01542772 0.00396917 0.00140372 0.00168312 0.00646488 0.00740147 0.02081032 0.00230490 0.00174251 0.08180111 0.00812718 0.01184376 0.01953092 0.00156838 
0.05616068 0.07473945 0.01542216 0.00393261 0.00142244 0.00170431 0.00706744 0.00736547 0.02077057 0.00236272 0.00185636 0.08270610 0.00812504 0.01221131 0.02003269 0.00155031 
0.05756929 0.07635296 0.01543795 0.00389224 0.00144242 0.00172721 0.00771021 0.00732538 0.02073557 0.00242419 0.00197728 0.08382357 0.00811253 0.01258218 0.02056228 0.00153169 
0.05895325 0.07793068 0.01547429 0.00384835 0.00146357 0.00175178 0.00839110 0.00728143 0.02070572 0.00248922 0.00210491 0.08515060 0.00808964 0.01295486 0.02111712 0.00151262 
0.06030896 0.07946782 0.01553019 0.00380122 0.00148576 0.00177795 0.00910785 0.00723389 0.02068139 0.00255766 0.00223882 0.08668335 0.00805642 0.01332782 0.02169447 0.00149320 
0.06163284 0.08095981 0.01560459 0.00375116 0.00150890 0.00180567 0.00985803 0.00718302 0.02066292 0.00262937 0.00237858 0.08841704 0.00801295 0.01369954 0.02229149 0.00147352 
0.06292135 0.08240226 0.01569625 0.00369850 0.00153285 0.00183489 0.01063904 0.00712909 0.02065059 0.00270418 0.00252370 0.09034603 0.00795938 0.01406854 0.02290521 0.00145368 
0.06417102 0.08379101 0.01580387 0.00364359 0.00155750 0.00186553 0.01144810 0.00707239 0.02064463 0.00278191 0.00267368 0.09246381 0.00789591 0.01443334 0.02353255 0.00143377 
0.06537842 0.08512214 0.01592602 0.00358678 0.00158272 0.00189751 0.01228229 0.00701321 0.02064522 0.00286234 0.00282798 0.09476305 0.00782277 0.01479248 0.02417038 0.00141390 
0.06654020 0.08639199 0.01606119 0.00352846 0.00160839 0.00193075 0.01313858 0.00695183 0.02065250 0.00294525 0.00298605 0.09723564 0.00774025 0.01514458 0.02481548 0.00139414 
0.06765311 0.08759719 0.01620778 0.00346900 0.00163436 0.00196517 0.01401378 0.00688857 0.02066655 0.00303041 0.00314730 0.09987270 0.00764869 0.01548826 0.02546460 0.00137460 
0.06871399 0.08873463 0.01636415 0.00340879 0.00166051 0.00200066 0.01490460 0.00682369 0.02068739 0.00311755 0.00331113 0.10266469 0.00754847 0.01582224 0.02611446 0.00135536 
0.06971978 0.08980154 0.01652858 0.00334823 0.00168670 0.00203714 0.01580767 0.00675752 0.02071500 0.00320642 0.00347692 0.10560140 0.00744001 0.01614525 0.02676179 0.00133652 
0.07066754 0.09079544 0.01669932 0.00328771 0.00171280 0.00207451 0.01671950 0.00669032 0.02074930 0.00329670 0.00364405 0.10867203 0.00732377 0.01645614 0.02740330 0.00131814 
0.07155449 0.09171420 0.01687459 0.00322764 0.00173868 0.00211265 0.01763657 0.00662240 0.02079015 0.00338812 0.00381186 0.11186522 0.00720025 0.01675380 0.02803575 0.00130031 
0.07237797 0.09255601 0.01705258 0.00316841 0.00176421 0.00215146 0.01855529 0.00655402 0.02083738 0.00348036 0.00397972 0.11516914 0.00706999 0.01703721 0.02865597 0.00128310 
0.07313548 0.09331941 0.01723150 0.00311040 0.00178926 0.00219082 0.01947202 0.00648547 0.02089074 0.00357310 0.00414695 0.11857152 0.00693356 0.01730542 0.02926081 0.00126659 
0.07382470 0.09400331 0.01740955 0.00305400 0.00181370 0.00223063 0.02038312 0.00641701 0.02094996 0.00366599 0.00431291 0.12205972 0.00679155 0.01755760 0.02984724 0.00125083 
0.07444348 0.09460694 0.01758496 0.00299959 0.00183742 0.00227077 0.02128494 0.00634889 0.02101471 0.00375872 0.00447694 0.12562081 0.00664459 0.01779297 0.03041233 0.00123588 
0.07498988 0.09512991 0.01775600 0.00294752 0.00186029 0.00231111 0.02217383 0.00628136 0.02108460 0.00385092 0.00463838 0.12924158 0.00649334 0.01801088 0.03095324 0.00122181 
0.07546215 0.09557217 0.01792095 0.00289814 0.00188220 0.00235154 0.02304619 0.00621465 0.02115923 0.00394226 0.00479660 0.13290867 0.00633845 0.01821076 0.03146728 0.00120866 
0.07585876 0.09593406 0.01807820 0.00285177 0.00190305 0.00239194 0.02389845 0.00614896 0.02123814 0.00403238 0.00495096 0.13660857 0.00618061 0.01839214 0.03195191 0.00119646 
0.07617840 0.09621622 0.01822616 0.00280873 0.00192275 0.00243220 0.02472710 0.00608451 0.02132083 0.00412092 0.00510085 0.14032773 0.00602053 0.01855466 0.03240473 0.00118526 
0.07642000 0.09641968 0.01836333 0.00276931 0.00194118 0.00247219 0.02552873 0.00602149 0.02140678 0.00420754 0.00524567 0.14405261 0.00585891 0.01869805 0.03282353 0.00117509 
0.07658274 0.09654579 0.01848832 0.00273376 0.00195829 0.00251179 0.02630000 0.00596005 0.02149545 0.00429189 0.00538484 0.14776973 0.00569646 0.01882216 0.03320628 0.00116597 
0.07666605 0.09659622 0.01859981 0.00270235 0.00197398 0.00255089 0.02703771 0.00590037 0.02158625 0.00437362 0.00551782 0.15146573 0.00553389 0.01892691 0.03355112 0.00115791 
0.07666961 0.09657298 0.01869659 0.00267528 0.00198820 0.00258939 0.02773878 0.00584256 0.02167858 0.00445241 0.00564408 0.15512744 0.00537193 0.01901235 0.03385641 0.00115094 
0.07659338 0.09647836 0.01877756 0.00265274 0.00200088 0.00262716 0.02840026 0.00578676 0.02177183 0.00452791 0.00576312 0.15874194 0.00521128 0.01907862 0.03412072 0.00114505 
0.07643758 0.09631497 0.01884175 0.00263490 0.00201198 0.00266409 0.02901937 0.00573306 0.02186537 0.00459982 0.00587448 0.16229663 0.00505264 0.01912593 0.03434282 0.00114025 
0.07620273 0.09608568 0.01888829 0.00262190 0.00202147 0.00270010 0.02959352 0.00568153 0.02195857 0.00466784 0.00597774 0.16577924 0.00489669 0.01915461 0.03452171 0.00113652 
0.07588962 0.09579361 0.01891647 0.00261383 0.00202932 0.00273507 0.03012028 0.00563226 0.02205077 0.00473167 0.00607250 0.16917791 0.00474411 0.01916508 0.03465660 0.00113386 
0.07549930 0.09544213 0.01892569 0.00261077 0.00203551 0.00276891 0.03059743 0.00558528 0.02214134 0.00479105 0.00615843 0.17248124 0.00459554 0.01915783 0.03474694 0.00113225 
0.07503315 0.09503483 0.01891548 0.00261277 0.00204005 0.00280153 0.03102297 0.00554061 0.02222965 0.00484573 0.00623521 0.17567836 0.00445162 0.01913342 0.03479239 0.00113167 
0.07449281 0.09457550 0.01888552 0.00261984 0.00204294 0.00283285 0.03139511 0.00549826 0.02231505 0.00489547 0.00630258 0.17875890 0.00431295 0.01909251 0.03479286 0.00113208 
0.07388020 0.09406810 0.01883564 0.00263196 0.00204419 0.00286278 0.03171231 0.00545823 0.02239694 0.00494006 0.00636032 0.18171311 0.00418010 0.01903582 0.03474844 0.00113345 
0.07319754 0.09351674 0.01876578 0.00264909 0.00204385 0.00289125 0.03197326 0.00542048 0.02247472 0.00497932 0.00640826 0.18453185 0.00405362 0.01896412 0.03465948 0.00113574 
0.07244732 0.09292567 0.01867603 0.00267116 0.00204195 0.00291819 0.03217688 0.00538497 0.02254780 0.00501308 0.00644627 0.18720663 0.00393400 0.01887824 0.03452654 0.00113892 
0.07163230 0.09229924 0.01856662 0.00269805 0.00203855 0.00294354 0.03232238 0.00535163 0.02261562 0.00504122 0.00647427 0.18972968 0.00382173 0.01877908 0.03435038 0.00114293 
0.07075552 0.09164188 0.01843791 0.00272964 0.00203370 0.00296724 0.03240921 0.00532040 0.02267766 0.00506362 0.00649224 0.19209389 0.00371724 0.01866757 0.03413196 0.00114772 
0.06982027 0.09095806 0.01829039 0.00276577 0.00202749 0.00298925 0.03243708 0.00529116 0.02273342 0.00508019 0.00650019 0.19429292 0.00362091 0.01854467 0.03387247 0.00115324 
0.06883010 0.09025232 0.01812466 0.00280625 0.00201999 0.00300951 0.03240598 0.00526381 0.02278243 0.00509090 0.00649819 0.19632118 0.00353310 0.01841137 0.03357325 0.00115943 
0.06778880 0.08952916 0.01794147 0.00285087 0.00201130 0.00302800 0.03231614 0.00523824 0.02282427 0.00509572 0.00648635 0.19817384 0.00345412 0.01826870 0.03323584 0.00116623 
0.06670037 0.08879308 0.01774166 0.00289940 0.00200152 0.00304469 0.03216809 0.00521430 0.02285854 0.00509466 0.00646482 0.19984684 0.00338421 0.01811768 0.03286196 0.00117357 
0.06556906 0.08804855 0.01752618 0.00295159 0.00199077 0.00305955 0.03196258 0.00519184 0.02288489 0.00508775 0.00643382 0.20133692 0.00332360 0.01795936 0.03245348 0.00118140 
0.06439930 0.08729995 0.01729609 0.00300716 0.00197915 0.00307256 0.03170067 0.00517072 0.02290302 0.00507506 0.00639359 0.20264160 0.00327245 0.01779479 0.03201240 0.00118964 
0.06319571 0.08655157 0.01705252 0.00306582 0.00196679 0.00308372 0.03138363 0.00515076 0.02291268 0.00505670 0.00634442 0.20375920 0.00323088 0.01762499 0.03154090 0.00119823 
0.06196310 0.08580760 0.01679671 0.00312728 0.00195383 0.00309303 0.03101299 0.00513179 0.02291364 0.00503278 0.00628665 0.20468880 0.00319896 0.01745100 0.03104125 0.00120711 
0.06070640 0.08507208 0.01652996 0.00319120 0.00194040 0.00310047 0.03059055 0.00511362 0.02290574 0.00500348 0.00622064 0.20543026 0.00317671 0.01727381 0.03051584 0.00121619 
0.05943071 0.08434889 0.01625363 0.00325727 0.00192663 0.00310607 0.03011830 0.00509607 0.02288886 0.00496896 0.00614680 0.20598424 0.00316411 0.01709442 0.02996715 0.00122541 
0.05814123 0.08364175 0.01596915 0.00332514 0.00191267 0.00310984 0.02959846 0.00507894 0.02286294 0.00492946 0.00606557 0.20635209 0.00316108 0.01691376 0.02939776 0.00123471 
0.05684326 0.08295416 0.01567800 0.00339447 0.00189867 0.00311180 0.02903349 0.00506205 0.02282796 0.00488520 0.00597742 0.20653594 0.00316749 0.01673277 0.02881032 0.00124401 
0.05554216 0.08228944 0.01538166 0.00346490 0.00188476 0.00311198 0.02842601 0.00504519 0.02278395 0.00483646 0.00588286 0.20653860 0.00318320 0.01655230 0.02820752 0.00125325 
0.05424336 0.08165066 0.01508168 0.00353610 0.00187110 0.00311039 0.02777885 0.00502818 0.02273098 0.00478351 0.00578240 0.20636358 0.00320798 0.01637318 0.02759211 0.00126236 
0.05295232 0.08104065 0.01477960 0.00360771 0.00185783 0.00310710 0.02709498 0.00501081 0.02266920 0.00472668 0.00567661 0.20601504 0.00324157 0.01619619 0.02696686 0.00127129 
0.05167450 0.08046200 0.01447698 0.00367938 0.00184509 0.00310212 0.02637755 0.00499291 0.02259878 0.00466629 0.00556603 0.20549777 0.00328369 0.01602204 0.02633455 0.00127996 
0.05041536 0.07991701 0.01417536 0.00375077 0.00183303 0.00309551 0.02562985 0.00497428 0.02251994 0.00460270 0.00545125 0.20481714 0.00333400 0.01585142 0.02569799 0.00128831 
0.04918029 0.07940774 0.01387628 0.00382154 0.00182177 0.00308731 0.02485525 0.00495475 0.02243296 0.00453626 0.00533288 0.20397911 0.00339212 0.01568490 0.02505994 0.00129630 
0.04797464 0.07893593 0.01358124 0.00389138 0.00181145 0.00307758 0.02405727 0.00493416 0.02233815 0.00446737 0.00521150 0.20299013 0.00345763 0.01552304 0.02442317 0.00130387 
0.04680369 0.07850307 0.01329172 0.00395997 0.00180218 0.00306637 0.02323948 0.00491233 0.02223586 0.00439640 0.00508774 0.20185716 0.00353011 0.01536631 0.02379039 0.00131097 
0.04567256 0.07811034 0.01300916 0.00402701 0.00179410 0.00305374 0.02240554 0.00488913 0.02212651 0.00432377 0.00496219 0.20058758 0.00360907 0.01521512 0.02316428 0.00131755 
0.04458629 0.07775863 0.01273495 0.00409222 0.00178730 0.00303975 0.02155914 0.00486443 0.02201053 0.00424989 0.00483547 0.19918918 0.00369401 0.01506981 0.02254744 0.00132356 
0.04354972 0.07744855 0.01247040 0.00415533 0.00178188 0.00302447 0.02070401 0.00483809 0.02188840 0.00417515 0.00470818 0.19767010 0.00378439 0.01493067 0.02194243 0.00132898 
0.04256754 0.07718039 0.01221679 0.00421610 0.00177794 0.00300795 0.01984387 0.00481002 0.02176062 0.00410000 0.00458091 0.19603881 0.00387967 0.01479789 0.02135170 0.00133376 
0.04164422 0.07695419 0.01197529 0.00427430 0.00177554 0.00299026 0.01898246 0.00478013 0.02162774 0.00402482 0.00445425 0.19430402 0.00397927 0.01467164 0.02077762 0.00133788 
0.04078401 0.07676968 0.01174702 0.00432972 0.00177477 0.00297148 0.01812347 0.00474835 0.02149033 0.00395005 0.00432876 0.19247468 0.00408260 0.01455198 0.02022248 0.00134130 
0.03999091 0.07662632 0.01153299 0.00438218 0.00177567 0.00295167 0.01727054 0.00471464 0.02134899 0.00387608 0.00420500 0.19055990 0.00418905 0.01443895 0.01968843 0.00134401 
0.03926865 0.07652333 0.01133414 0.00443154 0.00177828 0.00293090 0.01642726 0.00467896 0.02120435 0.00380332 0.00408349 0.18856891 0.00429802 0.01433250 0.01917752 0.00134599 
0.03862069 0.07645962 0.01115130 0.00447765 0.00178265 0.00290924 0.01559714 0.00464131 0.02105705 0.00373215 0.00396475 0.18651105 0.00440888 0.01423255 0.01869169 0.00134723 
0.03805018 0.07643390 0.01098521 0.00452042 0.00178877 0.00288675 0.01478358 0.00460171 0.02090775 0.00366295 0.00384924 0.18439567 0.00452099 0.01413894 0.01823273 0.00134771 
0.03755994 0.07644463 0.01083651 0.00455975 0.00179665 0.00286352 0.01398987 0.00456019 0.02075713 0.00359607 0.00373744 0.18223211 0.00463374 0.01405149 0.01780232 0.00134744 
0.03715245 0.07649005 0.01070573 0.00459562 0.00180629 0.00283961 0.01321917 0.00451683 0.02060588 0.00353186 0.00362975 0.18002966 0.00474648 0.01396995 0.01740198 0.00134643 
0.03682985 0.07656820 0.01059328 0.00462797 0.00181765 0.00281509 0.01247450 0.00447170 0.02045470 0.00347065 0.00352657 0.17779750 0.00485861 0.01389405 0.01703311 0.00134466 
0.03659392 0.07667693 0.01049949 0.00465683 0.00183071 0.00279003 0.01175872 0.00442492 0.02030430 0.00341273 0.00342826 0.17554470 0.00496949 0.01382346 0.01669694 0.00134217 
0.03644604 0.07681392 0.01042457 0.00468222 0.00184539 0.00276449 0.01107451 0.00437662 0.02015540 0.00335838 0.00333515 0.17328010 0.00507853 0.01375786 0.01639458 0.00133896 
0.03638723 0.07697671 0.01036860 0.00470419 0.00186164 0.00273855 0.01042440 0.00432698 0.02000869 0.00330785 0.00324751 0.17101235 0.00518514 0.01369687 0.01612697 0.00133505 
0.03641810 0.07716270 0.01033159 0.00472283 0.00187939 0.00271228 0.00981068 0.00427618 0.01986490 0.00326137 0.00316560 0.16874985 0.00528873 0.01364010 0.01589492 0.00133046 
0.03653885 0.07736917 0.01031342 0.00473824 0.00189852 0.00268574 0.00923549 0.00422443 0.01972472 0.00321914 0.00308963 0.16650068 0.00538876 0.01358714 0.01569907 0.00132524 
0.03674931 0.07759333 0.01031387 0.00475055 0.00191895 0.00265899 0.00870073 0.00417197 0.01958885 0.00318133 0.00301977 0.16427262 0.00548468 0.01353760 0.01553992 0.00131940 
0.03704885 0.07783232 0.01033263 0.00475992 0.00194055 0.00263211 0.00820810 0.00411905 0.01945798 0.00314807 0.00295617 0.16207308 0.00557599 0.01349105 0.01541782 0.00131299 
0.03743647 0.07808321 0.01036927 0.00476653 0.00196319 0.00260515 0.00775907 0.00406597 0.01933277 0.00311948 0.00289893 0.15990910 0.00566220 0.01344708 0.01533298 0.00130605 
0.03791076 0.07834306 0.01042329 0.00477057 0.00198674 0.00257818 0.00735490 0.00401301 0.01921388 0.00309562 0.00284810 0.15778730 0.00574286 0.01340529 0.01528545 0.00129861 
0.03846988 0.07860893 0.01049408 0.00477226 0.00201106 0.00255127 0.00699662 0.00396051 0.01910195 0.00307656 0.00280370 0.15571389 0.00581754 0.01336529 0.01527514 0.00129073 
0.03911160 0.07887791 0.01058097 0.00477183 0.00203598 0.00252447 0.00668501 0.00390880 0.01899759 0.00306229 0.00276574 0.15369461 0.00588585 0.01332672 0.01530185 0.00128246 
0.03983332 0.07914710 0.01068317 0.00476954 0.00206133 0.00249785 0.00642066 0.00385825 0.01890140 0.00305280 0.00273416 0.15173476 0.00594742 0.01328922 0.01536520 0.00127385 
0.04063201 0.07941370 0.01079985 0.00476565 0.00208697 0.00247146 0.00620390 0.00380922 0.01881393 0.00304805 0.00270888 0.14983915 0.00600194 0.01325249 0.01546470 0.00126494 
0.04150431 0.07967495 0.01093009 0.00476043 0.00211270 0.00244538 0.00603486 0.00376211 0.01873573 0.00304795 0.00268979 0.14801211 0.00604911 0.01321623 0.01559975 0.00125581 
0.04244648 0.07992824 0.01107291 0.00475418 0.00213835 0.00241965 0.00591343 0.00371731 0.01866731 0.00305239 0.00267674 0.14625746 0.00608869 0.01318020 0.01576960 0.00124650 
0.04345442 0.08017107 0.01122728 0.00474719 0.00216374 0.00239434 0.00583930 0.00367523 0.01860913 0.00306123 0.00266956 0.14457856 0.00612047 0.01314420 0.01597340 0.00123708 
0.04452372 0.08040106 0.01139210 0.00473976 0.00218868 0.00236950 0.00581193 0.00363629 0.01856165 0.00307431 0.00266806 0.14297823 0.00614426 0.01310807 0.01621018 0.00122760 
0.04564965 0.08061603 0.01156625 0.00473219 0.00221300 0.00234521 0.00583058 0.00360089 0.01852527 0.00309142 0.00267200 0.14145882 0.00615995 0.01307170 0.01647886 0.00121812 
0.04682720 0.08081395 0.01174854 0.00472480 0.00223650 0.00232150 0.00589432 0.00356946 0.01850036 0.00311236 0.00268113 0.14002218 0.00616744 0.01303503 0.01677828 0.00120872 
0.04805107 0.08099302 0.01193777 0.00471789 0.00225902 0.00229845 0.00600203 0.00354242 0.01848725 0.00313688 0.00269520 0.13866967 0.00616666 0.01299805 0.01710717 0.00119944 
0.04931573 0.08115161 0.01213271 0.00471177 0.00228037 0.00227611 0.00615241 0.00352018 0.01848624 0.00316471 0.00271389 0.13740217 0.00615762 0.01296080 0.01746418 0.00119034 
0.05061541 0.08128834 0.01233209 0.00470673 0.00230039 0.00225454 0.00634399 0.00350314 0.01849759 0.00319557 0.00273692 0.13622011 0.00614034 0.01292338 0.01784788 0.00118149 
0.05194416 0.08140206 0.01253465 0.00470308 0.00231890 0.00223380 0.00657512 0.00349170 0.01852150 0.00322915 0.00276395 0.13512345 0.00611487 0.01288596 0.01825674 0.00117295 
0.05329584 0.08149188 0.01273912 0.00470108 0.00233575 0.00221394 0.00684404 0.00348625 0.01855814 0.00326515 0.00279466 0.13411174 0.00608133 0.01284874 0.01868921 0.00116476 
0.05466420 0.08155714 0.01294422 0.00470102 0.00235079 0.00219502 0.00714882 0.00348714 0.01860766 0.00330321 0.00282871 0.13318408 0.00603985 0.01281200 0.01914364 0.00115699 
0.05604284 0.08159745 0.01314867 0.00470316 0.00236388 0.00217709 0.00748742 0.00349472 0.01867013 0.00334301 0.00286574 0.13233919 0.00599060 0.01277603 0.01961833 0.00114969 
0.05742529 0.08161270 0.01335120 0.00470775 0.00237489 0.00216022 0.00785770 0.00350933 0.01874560 0.00338419 0.00290541 0.13157540 0.00593380 0.01274123 0.02011155 0.00114289 
0.05880504 0.08160303 0.01355058 0.00471500 0.00238369 0.00214445 0.00825738 0.00353126 0.01883408 0.00342639 0.00294735 0.13089072 0.00586968 0.01270800 0.02062151 0.00113667 
0.06017554 0.08156887 0.01374558 0.00472514 0.00239020 0.00212984 0.00868414 0.00356079 0.01893553 0.00346926 0.00299121 0.13028277 0.00579852 0.01267682 0.02114639 0.00113104 
0.06153026 0.08151089 0.01393499 0.00473834 0.00239430 0.00211644 0.00913557 0.00359815 0.01904986 0.00351242 0.00303663 0.12974889 0.00572063 0.01264819 0.02168434 0.00112606 
0.06286270 0.08143004 0.01411766 0.00475479 0.00239593 0.00210431 0.00960918 0.00364356 0.01917695 0.00355552 0.00308327 0.12928615 0.00563632 0.01262266 0.02223348 0.00112176 
0.06416644 0.08132755 0.01429244 0.00477463 0.00239502 0.00209348 0.01010246 0.00369719 0.01931665 0.00359819 0.00313078 0.12889133 0.00554597 0.01260081 0.02279192 0.00111817 
0.06543515 0.08120486 0.01445824 0.00479798 0.00239152 0.00208402 0.01061286 0.00375918 0.01946873 0.00364009 0.00317882 0.12856099 0.00544995 0.01258324 0.02335775 0.00111532 
0.06666265 0.08106369 0.01461402 0.00482494 0.00238540 0.00207596 0.01113779 0.00382962 0.01963297 0.00368088 0.00322706 0.12829146 0.00534865 0.01257061 0.02392907 0.00111324 
0.06784291 0.08090596 0.01475879 0.00485558 0.00237664 0.00206935 0.01167467 0.00390857 0.01980908 0.00372021 0.00327520 0.12807892 0.00524251 0.01256356 0.02450395 0.00111193 
0.06897009 0.08073384 0.01489158 0.00488995 0.00236524 0.00206422 0.01222092 0.00399604 0.01999675 0.00375776 0.00332292 0.12791935 0.00513195 0.01256275 0.02508048 0.00111142 
0.07003859 0.08054966 0.01501152 0.00492806 0.00235123 0.00206061 0.01277397 0.00409199 0.02019560 0.00379324 0.00336993 0.12780861 0.00501743 0.01256886 0.02565677 0.00111171 
0.07104303 0.08035598 0.01511776 0.00496991 0.00233462 0.00205856 0.01333128 0.00419635 0.02040527 0.00382635 0.00341596 0.12774245 0.00489941 0.01258257 0.02623093 0.00111281 
0.07197835 0.08015548 0.01520953 0.00501547 0.00231547 0.00205808 0.01389034 0.00430899 0.02062532 0.00385683 0.00346076 0.12771652 0.00477836 0.01260453 0.02680109 0.00111471 
0.07283974 0.07995102 0.01528613 0.00506465 0.00229385 0.00205922 0.01444869 0.00442974 0.02085531 0.00388441 0.00350407 0.12772642 0.00465477 0.01263540 0.02736539 0.00111741 
0.07362274 0.07974555 0.01534690 0.00511739 0.00226984 0.00206198 0.01500394 0.00455836 0.02109474 0.00390888 0.00354568 0.12776769 0.00452911 0.01267582 0.02792202 0.00112090 
0.07432326 0.07954215 0.01539127 0.00517355 0.00224354 0.00206637 0.01555375 0.00469459 0.02134310 0.00393002 0.00358539 0.12783583 0.00440188 0.01272639 0.02846920 0.00112515 
0.07493753 0.07934395 0.01541872 0.00523299 0.00221505 0.00207242 0.01609586 0.00483812 0.02159987 0.00394766 0.00362300 0.12792637 0.00427355 0.01278767 0.02900517 0.00113016 
0.07546222 0.07915414 0.01542882 0.00529553 0.00218452 0.00208012 0.01662810 0.00498857 0.02186447 0.00396164 0.00365835 0.12803483 0.00414461 0.01286020 0.02952821 0.00113588 
0.07589435 0.07897592 0.01542119 0.00536099 0.00215207 0.00208946 0.01714838 0.00514552 0.02213632 0.00397184 0.00369130 0.12815676 0.00401554 0.01294445 0.03003666 0.00114230 
0.07623141 0.07881248 0.01539553 0.00542914 0.00211787 0.00210044 0.01765472 0.00530853 0.02241482 0.00397814 0.00372171 0.12828777 0.00388681 0.01304087 0.03052890 0.00114936 
0.07647128 0.07866700 0.01535161 0.00549973 0.00208208 0.00211304 0.01814522 0.00547709 0.02269934 0.00398047 0.00374947 0.12842352 0.00375888 0.01314980 0.03100334 0.00115704 
0.07661231 0.07854258 0.01528928 0.00557249 0.00204489 0.00212724 0.01861812 0.00565065 0.02298925 0.00397879 0.00377450 0.12855978 0.00363220 0.01327157 0.03145848 0.00116528 
0.07665329 0.07844223 0.01520846 0.00564713 0.00200647 0.00214300 0.01907173 0.00582864 0.02328389 0.00397307 0.00379673 0.12869238 0.00350720 0.01340638 0.03189284 0.00117405 
0.07659348 0.07836884 0.01510912 0.00572335 0.00196703 0.00216029 0.01950453 0.00601042 0.02358260 0.00396332 0.00381610 0.12881726 0.00338431 0.01355441 0.03230503 0.00118327 
0.07643257 0.07832516 0.01499133 0.00580082 0.00192679 0.00217907 0.01991506 0.00619534 0.02388470 0.00394958 0.00383257 0.12893050 0.00326392 0.01371572 0.03269371 0.00119290 
0.07617074 0.07831378 0.01485522 0.00587919 0.00188594 0.00219927 0.02030204 0.00638272 0.02418952 0.00393190 0.00384613 0.12902831 0.00314644 0.01389030 0.03305759 0.00120289 
0.07580863 0.07833707 0.01470098 0.00595812 0.00184471 0.00222084 0.02066427 0.00657184 0.02449638 0.00391037 0.00385678 0.12910701 0.00303220 0.01407804 0.03339548 0.00121315 
0.07534731 0.07839721 0.01452889 0.00603721 0.00180334 0.00224371 0.02100069 0.00676195 0.02480459 0.00388509 0.00386452 0.12916312 0.00292157 0.01427877 0.03370624 0.00122364 
0.07478835 0.07849610 0.01433928 0.00611611 0.00176203 0.00226780 0.02131037 0.00695230 0.02511346 0.00385621 0.00386938 0.12919328 0.00281486 0.01449218 0.03398880 0.00123427 
0.07413371 0.07863540 0.01413255 0.00619440 0.00172102 0.00229302 0.02159249 0.00714211 0.02542231 0.00382388 0.00387141 0.12919433 0.00271237 0.01471791 0.03424220 0.00124499 
0.07338582 0.07881649 0.01390917 0.00627171 0.00168055 0.00231930 0.02184637 0.00733058 0.02573047 0.00378827 0.00387066 0.12916327 0.00261436 0.01495547 0.03446551 0.00125573 
0.07254751 0.07904042 0.01366967 0.00634763 0.00164084 0.00234652 0.02207144 0.00751692 0.02603727 0.00374959 0.00386718 0.12909731 0.00252108 0.01520430 0.03465791 0.00126640 
0.07162204 0.07930796 0.01341465 0.00642175 0.00160212 0.00237459 0.02226727 0.00770032 0.02634205 0.00370805 0.00386106 0.12899385 0.00243276 0.01546372 0.03481868 0.00127695 
0.07061302 0.07961951 0.01314475 0.00649367 0.00156460 0.00240338 0.02243351 0.00787998 0.02664417 0.00366387 0.00385238 0.12885049 0.00234957 0.01573297 0.03494714 0.00128729 
0.06952445 0.07997518 0.01286069 0.00656300 0.00152852 0.00243279 0.02256997 0.00805510 0.02694300 0.00361732 0.00384121 0.12866504 0.00227169 0.01601120 0.03504275 0.00129736 
0.06836070 0.08037468 0.01256323 0.00662933 0.00149407 0.00246269 0.02267655 0.00822489 0.02723792 0.00356863 0.00382768 0.12843554 0.00219926 0.01629746 0.03510501 0.00130709 
0.06712642 0.08081741 0.01225319 0.00669227 0.00146146 0.00249294 0.02275326 0.00838858 0.02752835 0.00351809 0.00381187 0.12816025 0.00213237 0.01659073 0.03513356 0.00131640 
0.06582661 0.08130239 0.01193145 0.00675145 0.00143089 0.00252342 0.02280022 0.00854541 0.02781372 0.00346597 0.00379389 0.12783768 0.00207112 0.01688990 0.03512810 0.00132524 
0.06446649 0.08182829 0.01159891 0.00680649 0.00140254 0.00255398 0.02281765 0.00869465 0.02809349 0.00341256 0.00377386 0.12746657 0.00201555 0.01719376 0.03508845 0.00133352 
0.06305159 0.08239346 0.01125655 0.00685704 0.00137659 0.00258449 0.02280585 0.00883560 0.02836713 0.00335814 0.00375189 0.12704589 0.00196570 0.01750107 0.03501450 0.00134120 
0.06158760 0.08299586 0.01090536 0.00690274 0.00135319 0.00261480 0.02276524 0.00896759 0.02863416 0.00330300 0.00372810 0.12657490 0.00192156 0.01781050 0.03490626 0.00134821 
0.06008044 0.08363315 0.01054640 0.00694329 0.00133249 0.00264475 0.02269631 0.00908998 0.02889413 0.00324744 0.00370260 0.12605310 0.00188311 0.01812067 0.03476384 0.00135450 
0.05853619 0.08430267 0.01018075 0.00697837 0.00131464 0.00267421 0.02259964 0.00920219 0.02914662 0.00319174 0.00367551 0.12548025 0.00185030 0.01843013 0.03458744 0.00136000 
0.05696102 0.08500146 0.00980951 0.00700770 0.00129973 0.00270303 0.02247589 0.00930366 0.02939125 0.00313619 0.00364696 0.12485639 0.00182305 0.01873740 0.03437738 0.00136468 
0.05536125 0.08572625 0.00943384 0.00703101 0.00128788 0.00273105 0.02232577 0.00939389 0.02962765 0.00308106 0.00361705 0.12418184 0.00180126 0.01904098 0.03413406 0.00136849 
0.05374322 0.08647355 0.00905491 0.00704806 0.00127917 0.00275812 0.02215008 0.00947243 0.02985553 0.00302663 0.00358590 0.12345719 0.00178481 0.01933932 0.03385801 0.00137138 
0.05211333 0.08723960 0.00867391 0.00705865 0.00127368 0.00278411 0.02194968 0.00953889 0.03007463 0.00297317 0.00355362 0.12268333 0.00177356 0.01963085 0.03354983 0.00137332 
0.05047798 0.08802045 0.00829205 0.00706258 0.00127144 0.00280886 0.02172547 0.00959294 0.03028471 0.00292091 0.00352032 0.12186141 0.00176735 0.01991401 0.03321026 0.00137429 
0.04884352 0.08881197 0.00791057 0.00705970 0.00127250 0.00283223 0.02147842 0.00963428 0.03048561 0.00287011 0.00348611 0.12099290 0.00176599 0.02018722 0.03284011 0.00137425 
0.04721626 0.08960986 0.00753070 0.00704989 0.00127686 0.00285410 0.02120954 0.00966271 0.03067718 0.00282097 0.00345109 0.12007953 0.00176929 0.02044892 0.03244033 0.00137319 
0.04560240 0.09040973 0.00715370 0.00703303 0.00128454 0.00287432 0.02091987 0.00967806 0.03085935 0.00277372 0.00341536 0.11912334 0.00177702 0.02069757 0.03201193 0.00137110 
0.04400804 0.09120710 0.00678082 0.00700908 0.00129549 0.00289278 0.02061051 0.00968026 0.03103208 0.00272854 0.00337901 0.11812664 0.00178897 0.02093165 0.03155604 0.00136796 
0.04243910 0.09199746 0.00641331 0.00697798 0.00130968 0.00290935 0.02028257 0.00966926 0.03119538 0.00268560 0.00334215 0.11709206 0.00180488 0.02114969 0.03107390 0.00136378 
0.04090134 0.09277628 0.00605242 0.00693975 0.00132706 0.00292392 0.01993720 0.00964512 0.03134931 0.00264506 0.00330486 0.11602247 0.00182450 0.02135026 0.03056682 0.00135855 
0.03940030 0.09353906 0.00569940 0.00689441 0.00134754 0.00293640 0.01957558 0.00960794 0.03149400 0.00260705 0.00326721 0.11492104 0.00184756 0.02153198 0.03003623 0.00135230 
0.03794130 0.09428140 0.00535547 0.00684203 0.00137103 0.00294668 0.01919887 0.00955788 0.03162960 0.00257169 0.00322931 0.11379121 0.00187381 0.02169354 0.02948362 0.00134502 
0.03652939 0.09499900 0.00502185 0.00678270 0.00139741 0.00295468 0.01880831 0.00949517 0.03175634 0.00253907 0.00319122 0.11263669 0.00190295 0.02183371 0.02891059 0.00133675 
0.03516936 0.09568770 0.00469972 0.00671655 0.00142657 0.00296033 0.01840509 0.00942013 0.03187448 0.00250927 0.00315302 0.11146142 0.00193470 0.02195133 0.02831882 0.00132752 
0.03386568 0.09634355 0.00439025 0.00664375 0.00145835 0.00296355 0.01799044 0.00933309 0.03198435 0.00248233 0.00311478 0.11026959 0.00196878 0.02204534 0.02771005 0.00131735 
0.03262252 0.09696282 0.00409460 0.00656448 0.00149260 0.00296431 0.01756560 0.00923449 0.03208632 0.00245828 0.00307658 0.10906564 0.00200489 0.02211476 0.02708611 0.00130628 
0.03144371 0.09754207 0.00381384 0.00647899 0.00152914 0.00296255 0.01713179 0.00912478 0.03218081 0.00243714 0.00303849 0.10785418 0.00204276 0.02215872 0.02644890 0.00129436 
0.03033271 0.09807815 0.00354906 0.00638751 0.00156778 0.00295825 0.01669024 0.00900451 0.03226830 0.00241889 0.00300057 0.10664007 0.00208209 0.02217648 0.02580038 0.00128163 
0.02929265 0.09856824 0.00330129 0.00629035 0.00160833 0.00295138 0.01624217 0.00887424 0.03234932 0.00240350 0.00296290 0.10542829 0.00212260 0.02216737 0.02514256 0.00126816 
0.02832627 0.09900990 0.00307149 0.00618780 0.00165057 0.00294194 0.01578882 0.00873462 0.03242443 0.00239093 0.00292553 0.10422403 0.00216402 0.02213088 0.02447749 0.00125398 
0.02743593 0.09940110 0.00286060 0.00608023 0.00169429 0.00292994 0.01533138 0.00858630 0.03249426 0.00238109 0.00288855 0.10303258 0.00220607 0.02206658 0.02380730 0.00123918 
0.02662362 0.09974025 0.00266949 0.00596798 0.00173925 0.00291540 0.01487106 0.00843000 0.03255949 0.00237391 0.00285200 0.10185936 0.00224850 0.02197422 0.02313412 0.00122381 
0.02589091 0.10002617 0.00249899 0.00585146 0.00178522 0.00289834 0.01440906 0.00826648 0.03262081 0.00236929 0.00281597 0.10070988 0.00229104 0.02185362 0.02246011 0.00120794 
0.02523901 0.10025821 0.00234985 0.00573108 0.00183196 0.00287880 0.01394653 0.00809651 0.03267900 0.00236709 0.00278053 0.09958969 0.00233347 0.02170476 0.02178748 0.00119165 
0.02466870 0.10043617 0.00222276 0.00560728 0.00187921 0.00285685 0.01348466 0.00792091 0.03273484 0.00236720 0.00274574 0.09850439 0.00237555 0.02152774 0.02111842 0.00117501 
0.02418042 0.10056039 0.00211835 0.00548050 0.00192673 0.00283255 0.01302457 0.00774051 0.03278917 0.00236946 0.00271168 0.09745960 0.00241706 0.02132281 0.02045514 0.00115809 
0.02377418 0.10063172 0.00203717 0.00535123 0.00197427 0.00280597 0.01256739 0.00755617 0.03284287 0.00237371 0.00267843 0.09646088 0.00245781 0.02109031 0.01979983 0.00114097 
0.02344965 0.10065153 0.00197970 0.00521993 0.00202157 0.00277721 0.01211424 0.00736875 0.03289685 0.00237980 0.00264606 0.09551377 0.00249761 0.02083075 0.01915469 0.00112374 
0.02320611 0.10062172 0.00194634 0.00508712 0.00206837 0.00274636 0.01166620 0.00717914 0.03295204 0.00238753 0.00261466 0.09462370 0.00253629 0.02054474 0.01852188 0.00110648 
0.02304250 0.10054473 0.00193742 0.00495330 0.00211444 0.00271354 0.01122434 0.00698822 0.03300942 0.00239673 0.00258431 0.09379599 0.00257371 0.02023301 0.01790352 0.00108926 
0.02295739 0.10042352 0.00195316 0.00481899 0.00215953 0.00267886 0.01078969 0.00679687 0.03306998 0.00240721 0.00255511 0.09303582 0.00260974 0.01989643 0.01730171 0.00107217 
0.02294906 0.10026155 0.00199372 0.00468469 0.00220339 0.00264245 0.01036329 0.00660598 0.03313475 0.00241877 0.00252713 0.09234816 0.00264426 0.01953595 0.01671848 0.00105530 
0.02301543 0.10006278 0.00205918 0.00455095 0.00224579 0.00260445 0.00994613 0.00641642 0.03320475 0.00243123 0.00250049 0.09173780 0.00267718 0.01915268 0.01615581 0.00103871 
0.02315418 0.09983168 0.00214951 0.00441829 0.00228651 0.00256499 0.00953919 0.00622906 0.03328105 0.00244439 0.00247527 0.09120926 0.00270843 0.01874778 0.01561560 0.00102249 
0.02336266 0.09957314 0.00226461 0.00428721 0.00232533 0.00252424 0.00914342 0.00604474 0.03336472 0.00245805 0.00245159 0.09076679 0.00273797 0.01832255 0.01509969 0.00100671 
0.02363800 0.09929251 0.00240427 0.00415825 0.00236205 0.00248235 0.00875974 0.00586428 0.03345682 0.00247203 0.00242954 0.09041433 0.00276576 0.01787837 0.01460982 0.00099146 
0.02397709 0.09899552 0.00256822 0.00403192 0.00239647 0.00243947 0.00838906 0.00568848 0.03355845 0.00248613 0.00240923 0.09015549 0.00279180 0.01741668 0.01414763 0.00097680 
0.02437660 0.09868828 0.00275606 0.00390871 0.00242841 0.00239578 0.00803223 0.00551812 0.03367068 0.00250018 0.00239077 0.08999351 0.00281610 0.01693904 0.01371467 0.00096280 
0.02483301 0.09837724 0.00296733 0.00378911 0.00245772 0.00235145 0.00769010 0.00535393 0.03379459 0.00251400 0.00237427 0.08993124 0.00283870 0.01644705 0.01331238 0.00094953 
0.02534265 0.09806912 0.00320148 0.00367361 0.00248423 0.00230663 0.00736349 0.00519661 0.03393125 0.00252742 0.00235985 0.08997112 0.00285965 0.01594238 0.01294206 0.00093705 
0.02590170 0.09777088 0.00345785 0.00356265 0.00250782 0.00226152 0.00705318 0.00504685 0.03408171 0.00254030 0.00234762 0.09011513 0.00287902 0.01542676 0.01260491 0.00092542 
0.02650622 0.09748971 0.00373572 0.00345668 0.00252837 0.00221629 0.00675991 0.00490525 0.03424701 0.00255248 0.00233768 0.09036482 0.00289693 0.01490197 0.01230199 0.00091469 
0.02715219 0.09723292 0.00403425 0.00335613 0.00254578 0.00217110 0.00648440 0.00477241 0.03442817 0.00256384 0.00233017 0.09072124 0.00291348 0.01436980 0.01203421 0.00090491 
0.02783551 0.09700793 0.00435255 0.00326138 0.00255997 0.00212613 0.00622733 0.00464886 0.03462616 0.00257426 0.00232518 0.09118495 0.00292881 0.01383210 0.01180236 0.00089613 
0.02855207 0.09682218 0.00468963 0.00317282 0.00257087 0.00208156 0.00598934 0.00453509 0.03484193 0.00258362 0.00232282 0.09175600 0.00294307 0.01329072 0.01160707 0.00088838 
0.02929770 0.09668313 0.00504443 0.00309078 0.00257845 0.00203756 0.00577105 0.00443154 0.03507640 0.00259183 0.00232320 0.09243393 0.00295643 0.01274755 0.01144881 0.00088170 
0.03006827 0.09659815 0.00541581 0.00301559 0.00258267 0.00199429 0.00557301 0.00433861 0.03533041 0.00259882 0.00232643 0.09321774 0.00296909 0.01220444 0.01132792 0.00087612 
0.03085968 0.09657450 0.00580257 0.00294753 0.00258354 0.00195191 0.00539575 0.00425664 0.03560479 0.00260453 0.00233259 0.09410592 0.00298124 0.01166327 0.01124456 0.00087165 
0.03166786 0.09661925 0.00620343 0.00288688 0.00258108 0.00191060 0.00523975 0.00418592 0.03590027 0.00260891 0.00234177 0.09509641 0.00299309 0.01112591 0.01119875 0.00086833 
0.03248885 0.09673921 0.00661705 0.00283384 0.00257531 0.00187049 0.00510544 0.00412668 0.03621755 0.00261192 0.00235407 0.09618661 0.00300488 0.01059417 0.01119034 0.00086615 
0.03331877 0.09694094 0.00704204 0.00278862 0.00256630 0.00183174 0.00499321 0.00407910 0.03655723 0.00261356 0.00236955 0.09737342 0.00301684 0.01006988 0.01121903 0.00086513 
0.03415384 0.09723061 0.00747695 0.00275138 0.00255412 0.00179449 0.00490340 0.00404333 0.03691985 0.00261382 0.00238828 0.09865320 0.00302922 0.00955480 0.01128436 0.00086526 
0.03499045 0.09761399 0.00792030 0.00272224 0.00253886 0.00175888 0.00483629 0.00401944 0.03730586 0.00261272 0.00241031 0.10002182 0.00304228 0.00905066 0.01138570 0.00086655 
0.03582511 0.09809641 0.00837055 0.00270129 0.00252065 0.00172503 0.00479211 0.00400747 0.03771562 0.00261028 0.00243569 0.10147465 0.00305628 0.00855914 0.01152229 0.00086897 
0.03665454 0.09868266 0.00882612 0.00268858 0.00249960 0.00169306 0.00477102 0.00400738 0.03814938 0.00260657 0.00246445 0.10300658 0.00307148 0.00808186 0.01169321 0.00087251 
0.03747560 0.09937700 0.00928543 0.00268415 0.00247586 0.00166309 0.00477316 0.00401911 0.03860732 0.00260162 0.00249660 0.10461205 0.00308815 0.00762039 0.01189738 0.00087716 
0.03828538 0.10018308 0.00974687 0.00268796 0.00244961 0.00163522 0.00479855 0.00404253 0.03908947 0.00259552 0.00253216 0.10628508 0.00310656 0.00717622 0.01213359 0.00088287 
0.03908116 0.10110389 0.01020879 0.00269996 0.00242102 0.00160955 0.00484721 0.00407749 0.03959577 0.00258834 0.00257111 0.10801929 0.00312699 0.00675077 0.01240050 0.00088964 
0.03986045 0.10214176 0.01066956 0.00272007 0.00239028 0.00158616 0.00491904 0.00412376 0.04012602 0.00258020 0.00261342 0.10980792 0.00314969 0.00634538 0.01269663 0.00089740 
0.04062097 0.10329827 0.01112754 0.00274817 0.00235761 0.00156513 0.00501391 0.00418109 0.04067991 0.00257118 0.00265905 0.11164386 0.00317492 0.00596132 0.01302037 0.00090614 
0.04136069 0.10457429 0.01158109 0.00278410 0.00232323 0.00154653 0.00513161 0.00424919 0.04125699 0.00256140 0.00270795 0.11351972 0.00320295 0.00559976 0.01337003 0.00091579 
0.04207781 0.10596988 0.01202861 0.00282766 0.00228736 0.00153042 0.00527185 0.00432770 0.04185667 0.00255100 0.00276003 0.11542783 0.00323401 0.00526178 0.01374376 0.00092632 
0.04277077 0.10748434 0.01246850 0.00287864 0.00225025 0.00151686 0.00543428 0.00441625 0.04247822 0.00254009 0.00281520 0.11736030 0.00326835 0.00494838 0.01413966 0.00093766 
0.04343824 0.10911613 0.01289918 0.00293677 0.00221215 0.00150587 0.00561849 0.00451443 0.04312075 0.00252882 0.00287334 0.11930904 0.00330618 0.00466046 0.01455571 0.00094977 
0.04407916 0.11086289 0.01331912 0.00300179 0.00217332 0.00149750 0.00582396 0.00462179 0.04378326 0.00251731 0.00293433 0.12126583 0.00334772 0.00439882 0.01498983 0.00096259 
0.04469267 0.11272145 0.01372685 0.00307336 0.00213402 0.00149177 0.00605013 0.00473784 0.04446455 0.00250573 0.00299802 0.12322233 0.00339315 0.00416416 0.01543985 0.00097605 
0.04527818 0.11468780 0.01412091 0.00315116 0.00209451 0.00148870 0.00629636 0.00486207 0.04516331 0.00249420 0.00306424 0.12517018 0.00344267 0.00395709 0.01590356 0.00099010 
0.04583530 0.11675709 0.01449993 0.00323482 0.00205508 0.00148829 0.00656192 0.00499395 0.04587803 0.00248287 0.00313279 0.12710098 0.00349642 0.00377810 0.01637871 0.00100467 
0.04636389 0.11892367 0.01486260 0.00332394 0.00201598 0.00149053 0.00684602 0.00513291 0.04660707 0.00247188 0.00320349 0.12900637 0.00355455 0.00362760 0.01686299 0.00101969 
0.04686399 0.12118110 0.01520767 0.00341813 0.00197750 0.00149542 0.00714780 0.00527836 0.04734865 0.00246138 0.00327610 0.13087809 0.00361717 0.00350588 0.01735408 0.00103509 
0.04733586 0.12352215 0.01553396 0.00351694 0.00193990 0.00150294 0.00746632 0.00542970 0.04810081 0.00245149 0.00335039 0.13270798 0.00368438 0.00341313 0.01784964 0.00105082 
0.04777996 0.12593884 0.01584040 0.00361993 0.00190344 0.00151307 0.00780057 0.00558630 0.04886143 0.00244236 0.00342611 0.13448808 0.00375626 0.00334946 0.01834734 0.00106679 
0.04819691 0.12842247 0.01612598 0.00372664 0.00186839 0.00152576 0.00814948 0.00574753 0.04962828 0.00243410 0.00350298 0.13621064 0.00383284 0.00331485 0.01884485 0.00108295 
0.04858751 0.13096367 0.01638979 0.00383659 0.00183500 0.00154098 0.00851191 0.00591271 0.05039896 0.00242682 0.00358073 0.13786815 0.00391416 0.00330920 0.01933986 0.00109923 
0.04895270 0.13355240 0.01663104 0.00394929 0.00180352 0.00155868 0.00888666 0.00608120 0.05117092 0.00242064 0.00365906 0.13945344 0.00400020 0.00333231 0.01983011 0.00111555 
0.04929357 0.13617807 0.01684900 0.00406425 0.00177419 0.00157881 0.00927245 0.00625231 0.05194152 0.00241565 0.00373766 0.14095964 0.00409095 0.00338388 0.02031337 0.00113186 
0.04961131 0.13882950 0.01704308 0.00418095 0.00174723 0.00160130 0.00966798 0.00642535 0.05270795 0.00241195 0.00381621 0.14238030 0.00418634 0.00346352 0.02078746 0.00114808 
0.04990723 0.14149507 0.01721278 0.00429891 0.00172287 0.00162609 0.01007187 0.00659966 0.05346730 0.00240959 0.00389439 0.14370937 0.00428628 0.00357074 0.02125028 0.00116417 
0.05018270 0.14416269 0.01735771 0.00441759 0.00170129 0.00165310 0.01048270 0.00677453 0.05421658 0.00240866 0.00397187 0.14494124 0.00439068 0.00370498 0.02169980 0.00118005 
0.05043918 0.14681992 0.01747761 0.00453650 0.00168270 0.00168225 0.01089901 0.00694927 0.05495267 0.00240919 0.00404831 0.14607079 0.00449938 0.00386557 0.02213407 0.00119567 
0.05067816 0.14945403 0.01757231 0.00465514 0.00166726 0.00171347 0.01131929 0.00712320 0.05567239 0.00241122 0.00412336 0.14709342 0.00461223 0.00405177 0.02255126 0.00121097 
0.05090119 0.15205206 0.01764178 0.00477299 0.00165513 0.00174666 0.01174202 0.00729563 0.05637248 0.00241478 0.00419668 0.14800505 0.00472903 0.00426277 0.02294961 0.00122590 
0.05110979 0.15460087 0.01768607 0.00488957 0.00164645 0.00178173 0.01216562 0.00746589 0.05704963 0.00241987 0.00426793 0.14880214 0.00484956 0.00449768 0.02332750 0.00124041 
0.05130550 0.15708724 0.01770538 0.00500439 0.00164134 0.00181858 0.01258853 0.00763331 0.05770050 0.00242649 0.00433676 0.14948177 0.00497359 0.00475551 0.02368341 0.00125444 
0.05148983 0.15949796 0.01769999 0.00511698 0.00163990 0.00185711 0.01300914 0.00779722 0.05832170 0.00243462 0.00440284 0.15004155 0.00510085 0.00503525 0.02401596 0.00126796 
0.05166427 0.16181985 0.01767033 0.00522688 0.00164222 0.00189722 0.01342585 0.00795697 0.05890986 0.00244422 0.00446583 0.15047973 0.00523105 0.00533578 0.02432391 0.00128092 
0.05183020 0.16403989 0.01761691 0.00533364 0.00164835 0.00193879 0.01383704 0.00811194 0.05946162 0.00245525 0.00452541 0.15079514 0.00536387 0.00565595 0.02460615 0.00129329 
0.05198899 0.16614527 0.01754034 0.00543685 0.00165835 0.00198172 0.01424113 0.00826150 0.05997363 0.00246764 0.00458128 0.15098724 0.00549898 0.00599454 0.02486171 0.00130503 
0.05214187 0.16812347 0.01744136 0.00553610 0.00167223 0.00202589 0.01463653 0.00840504 0.06044263 0.00248132 0.00463311 0.15105609 0.00563604 0.00635029 0.02508977 0.00131611 
0.05228999 0.16996234 0.01732079 0.00563099 0.00169000 0.00207118 0.01502166 0.00854199 0.06086538 0.00249621 0.00468064 0.15100233 0.00577466 0.00672188 0.02528967 0.00132649 
0.05243439 0.17165016 0.01717954 0.00572117 0.00171164 0.00211748 0.01539499 0.00867179 0.06123878 0.00251219 0.00472358 0.15082723 0.00591447 0.00710796 0.02546091 0.00133616 
0.05257597 0.17317574 0.01701862 0.00580630 0.00173710 0.00216467 0.01575501 0.00879389 0.06155981 0.00252916 0.00476168 0.15053264 0.00605507 0.00750713 0.02560312 0.00134509 
0.05271549 0.17452843 0.01683912 0.00588606 0.00176633 0.00221261 0.01610026 0.00890779 0.06182558 0.00254701 0.00479472 0.15012096 0.00619604 0.00791796 0.02571611 0.00135327 
0.05285358 0.17569827 0.01664220 0.00596016 0.00179925 0.00226118 0.01642934 0.00901298 0.06203337 0.00256560 0.00482247 0.14959516 0.00633695 0.00833902 0.02579984 0.00136068 
0.05299068 0.17667598 0.01642909 0.00602835 0.00183575 0.00231027 0.01674087 0.00910903 0.06218062 0.00258479 0.00484474 0.14895873 0.00647738 0.00876881 0.02585442 0.00136731 
0.05312710 0.17745305 0.01620110 0.00609038 0.00187572 0.00235974 0.01703358 0.00919548 0.06226499 0.00260444 0.00486138 0.14821567 0.00661689 0.00920584 0.02588013 0.00137315 
0.05326297 0.17802181 0.01595957 0.00614607 0.00191902 0.00240947 0.01730624 0.00927196 0.06228431 0.00262440 0.00487224 0.14737045 0.00675503 0.00964862 0.02587739 0.00137819 
0.05339824 0.17837544 0.01570591 0.00619523 0.00196549 0.00245933 0.01755771 0.00933808 0.06223667 0.00264451 0.00487722 0.14642799 0.00689135 0.01009563 0.02584675 0.00138244 
0.05353269 0.17850806 0.01544156 0.00623771 0.00201496 0.00250918 0.01778694 0.00939352 0.06212042 0.00266462 0.00487622 0.14539364 0.00702542 0.01054535 0.02578895 0.00138589 
0.05366595 0.17841474 0.01516798 0.00627342 0.00206724 0.00255892 0.01799294 0.00943799 0.06193417 0.00268457 0.00486920 0.14427309 0.00715677 0.01099627 0.02570484 0.00138855 
0.05379743 0.17809154 0.01488668 0.00630225 0.00212212 0.00260840 0.01817485 0.00947123 0.06167680 0.00270419 0.00485613 0.14307241 0.00728498 0.01144688 0.02559539 0.00139043 
0.05392641 0.17753555 0.01459917 0.00632417 0.00217940 0.00265750 0.01833190 0.00949302 0.06134753 0.00272333 0.00483702 0.14179794 0.00740960 0.01189570 0.02546174 0.00139152 
0.05405199 0.17674492 0.01430696 0.00633914 0.00223882 0.00270611 0.01846343 0.00950318 0.06094586 0.00274183 0.00481190 0.14045630 0.00753022 0.01234125 0.02530512 0.00139185 
0.05417311 0.17571885 0.01401157 0.00634718 0.00230016 0.00275409 0.01856888 0.00950158 0.06047165 0.00275954 0.00478086 0.13905431 0.00764640 0.01278208 0.02512689 0.00139143 
0.05428856 0.17445762 0.01371450 0.00634832 0.00236316 0.00280133 0.01864781 0.00948813 0.05992509 0.00277632 0.00474398 0.13759900 0.00775776 0.01321678 0.02492850 0.00139027 
0.05439698 0.17296261 0.01341725 0.00634263 0.00242756 0.00284771 0.01869991 0.00946278 0.05930671 0.00279202 0.00470140 0.13609748 0.00786389 0.01364394 0.02471150 0.00138839 
0.05449689 0.17123628 0.01312128 0.00633020 0.00249308 0.00289311 0.01872498 0.00942552 0.05861743 0.00280651 0.00465329 0.13455700 0.00796442 0.01406221 0.02447755 0.00138581 
0.05458668 0.16928215 0.01282802 0.00631116 0.00255946 0.00293743 0.01872294 0.00937640 0.05785852 0.00281967 0.00459985 0.13298481 0.00805899 0.01447030 0.02422837 0.00138255 
0.05466462 0.16710482 0.01253884 0.00628567 0.00262641 0.00298055 0.01869384 0.00931551 0.05703161 0.00283139 0.00454129 0.13138819 0.00814726 0.01486692 0.02396575 0.00137863 
0.05472892 0.16470994 0.01225509 0.00625388 0.00269366 0.00302238 0.01863787 0.00924297 0.05613872 0.00284156 0.00447788 0.12977436 0.00822892 0.01525088 0.02369154 0.00137408 
0.05477768 0.16210417 0.01197804 0.00621601 0.00276090 0.00306282 0.01855532 0.00915898 0.05518224 0.00285011 0.00440991 0.12815047 0.00830368 0.01562100 0.02340765 0.00136893 
0.05480894 0.15929517 0.01170892 0.00617228 0.00282787 0.00310176 0.01844665 0.00906376 0.05416493 0.00285695 0.00433767 0.12652353 0.00837125 0.01597620 0.02311600 0.00136319 
0.05482071 0.15629154 0.01144886 0.00612294 0.00289428 0.00313912 0.01831240 0.00895759 0.05308991 0.00286202 0.00426151 0.12490040 0.00843140 0.01631542 0.02281857 0.00135690 
0.05481095 0.15310281 0.01119895 0.00606825 0.00295985 0.00317482 0.01815327 0.00884080 0.05196066 0.00286529 0.00418180 0.12328772 0.00848389 0.01663771 0.02251734 0.00135009 
0.05477764 0.14973937 0.01096017 0.00600851 0.00302431 0.00320878 0.01797005 0.00871376 0.05078102 0.00286673 0.00409892 0.12169191 0.00852855 0.01694215 0.02221429 0.00134279 
0.05471874 0.14621242 0.01073342 0.00594401 0.00308739 0.00324092 0.01776370 0.00857689 0.04955517 0.00286632 0.00401327 0.12011910 0.00856520 0.01722791 0.02191141 0.00133502 
0.05463225 0.14253391 0.01051954 0.00587509 0.00314882 0.00327119 0.01753524 0.00843065 0.04828758 0.00286408 0.00392528 0.11857512 0.00859370 0.01749424 0.02161065 0.00132682 
0.05451621 0.13871652 0.01031923 0.00580207 0.00320836 0.00329953 0.01728585 0.00827556 0.04698308 0.00286002 0.00383540 0.11706548 0.00861395 0.01774046 0.02131395 0.00131822 
0.05436874 0.13477354 0.01013314 0.00572531 0.00326577 0.00332589 0.01701680 0.00811217 0.04564676 0.00285419 0.00374408 0.11559531 0.00862586 0.01796596 0.02102320 0.00130926 
0.05418803 0.13071883 0.00996179 0.00564517 0.00332081 0.00335022 0.01672945 0.00794108 0.04428397 0.00284666 0.00365179 0.11416939 0.00862939 0.01817023 0.02074025 0.00129996 
0.05397238 0.12656677 0.00980561 0.00556201 0.00337327 0.00337250 0.01642529 0.00776292 0.04290032 0.00283748 0.00355901 0.11279208 0.00862452 0.01835282 0.02046690 0.00129036 
0.05372021 0.12233214 0.00966493 0.00547623 0.00342294 0.00339269 0.01610586 0.00757836 0.04150165 0.00282677 0.00346623 0.11146730 0.00861125 0.01851339 0.02020485 0.00128051 
0.05343010 0.11803009 0.00953999 0.00538820 0.00346964 0.00341079 0.01577283 0.00738813 0.04009398 0.00281464 0.00337395 0.11019859 0.00858963 0.01865166 0.01995576 0.00127042 
