0.04332474 0.05104105 0.00335975 0.00185678 0.00064945 0.00198670 0.00781241 0.00593217 0.01214166 0.00147974 0.00098516 0.00482886 0.01058873 0.00175340 0.00187030 0.00132406 
0.04254457 0.05025735 0.00330969 0.00183776 0.00064739 0.00200780 0.00777363 0.00604879 0.01203937 0.00148241 0.00100595 0.00478999 0.01062642 0.00172699 0.00188098 0.00132052 
0.04174509 0.04942362 0.00326228 0.00181852 0.00064582 0.00202995 0.00773014 0.00615905 0.01198680 0.00148584 0.00102828 0.00476466 0.01065306 0.00170143 0.00188938 0.00131700 
0.04092748 0.04854201 0.00321747 0.00179917 0.00064474 0.00205321 0.00768213 0.00626208 0.01198418 0.00149002 0.00105207 0.00475314 0.01066883 0.00167672 0.00189548 0.00131353 
0.04009315 0.04761489 0.00317523 0.00177985 0.00064417 0.00207763 0.00762978 0.00635706 0.01203147 0.00149492 0.00107720 0.00475561 0.01067392 0.00165287 0.00189927 0.00131012 
0.03924374 0.04664487 0.00313552 0.00176070 0.00064412 0.00210326 0.00757331 0.00644323 0.01212838 0.00150053 0.00110359 0.00477218 0.01066861 0.00162991 0.00190076 0.00130677 
0.03838106 0.04563476 0.00309830 0.00174184 0.00064460 0.00213013 0.00751295 0.00651992 0.01227436 0.00150682 0.00113114 0.00480289 0.01065320 0.00160785 0.00189996 0.00130350 
0.03750718 0.04458758 0.00306355 0.00172339 0.00064562 0.00215827 0.00744893 0.00658653 0.01246859 0.00151378 0.00115977 0.00484773 0.01062805 0.00158670 0.00189692 0.00130031 
0.03662434 0.04350653 0.00303126 0.00170549 0.00064717 0.00218770 0.00738151 0.00664254 0.01271001 0.00152139 0.00118937 0.00490658 0.01059355 0.00156648 0.00189168 0.00129721 
0.03573498 0.04239504 0.00300140 0.00168825 0.00064926 0.00221843 0.00731095 0.00668751 0.01299727 0.00152964 0.00121986 0.00497929 0.01055014 0.00154721 0.00188432 0.00129422 
0.03484171 0.04125670 0.00297396 0.00167180 0.00065189 0.00225043 0.00723751 0.00672108 0.01332880 0.00153851 0.00125114 0.00506563 0.01049826 0.00152890 0.00187491 0.00129133 
0.03394735 0.04009525 0.00294894 0.00165624 0.00065506 0.00228369 0.00716146 0.00674299 0.01370279 0.00154800 0.00128314 0.00516529 0.01043840 0.00151157 0.00186354 0.00128856 
0.03305485 0.03891463 0.00292633 0.00164169 0.00065875 0.00231819 0.00708308 0.00675305 0.01411719 0.00155808 0.00131574 0.00527791 0.01037107 0.00149524 0.00185033 0.00128592 
0.03216731 0.03771889 0.00290616 0.00162824 0.00066297 0.00235387 0.00700264 0.00675116 0.01456972 0.00156874 0.00134888 0.00540306 0.01029678 0.00147992 0.00183537 0.00128340 
0.03128797 0.03651221 0.00288842 0.00161599 0.00066768 0.00239067 0.00692044 0.00673729 0.01505790 0.00157998 0.00138245 0.00554026 0.01021606 0.00146564 0.00181881 0.00128102 
0.03042018 0.03529889 0.00287315 0.00160504 0.00067289 0.00242853 0.00683673 0.00671151 0.01557905 0.00159179 0.00141638 0.00568895 0.01012945 0.00145240 0.00180077 0.00127878 
0.02956739 0.03408333 0.00286038 0.00159546 0.00067856 0.00246736 0.00675180 0.00667397 0.01613030 0.00160414 0.00145057 0.00584855 0.01003749 0.00144023 0.00178140 0.00127668 
0.02873312 0.03287000 0.00285013 0.00158733 0.00068468 0.00250706 0.00666592 0.00662488 0.01670860 0.00161702 0.00148494 0.00601839 0.00994073 0.00142915 0.00176085 0.00127474 
0.02792097 0.03166342 0.00284245 0.00158071 0.00069122 0.00254752 0.00657935 0.00656456 0.01731077 0.00163043 0.00151940 0.00619779 0.00983968 0.00141918 0.00173927 0.00127294 
0.02713455 0.03046815 0.00283739 0.00157566 0.00069816 0.00258862 0.00649235 0.00649336 0.01793347 0.00164434 0.00155388 0.00638600 0.00973489 0.00141033 0.00171684 0.00127130 
0.02637751 0.02928878 0.00283502 0.00157224 0.00070546 0.00263024 0.00640517 0.00641172 0.01857325 0.00165875 0.00158828 0.00658223 0.00962686 0.00140263 0.00169372 0.00126981 
0.02565349 0.02812988 0.00283538 0.00157048 0.00071310 0.00267223 0.00631805 0.00632017 0.01922655 0.00167363 0.00162252 0.00678568 0.00951609 0.00139608 0.00167008 0.00126849 
0.02496610 0.02699601 0.00283855 0.00157042 0.00072104 0.00271443 0.00623121 0.00621927 0.01988973 0.00168896 0.00165653 0.00699550 0.00940306 0.00139071 0.00164610 0.00126732 
0.02431891 0.02589166 0.00284461 0.00157207 0.00072923 0.00275669 0.00614488 0.00610963 0.02055909 0.00170471 0.00169021 0.00721081 0.00928823 0.00138652 0.00162195 0.00126631 
0.02371541 0.02482128 0.00285364 0.00157547 0.00073765 0.00279884 0.00605927 0.00599195 0.02123088 0.00172088 0.00172348 0.00743072 0.00917204 0.00138354 0.00159780 0.00126546 
0.02315901 0.02378919 0.00286572 0.00158060 0.00074625 0.00284070 0.00597458 0.00586695 0.02190135 0.00173742 0.00175626 0.00765433 0.00905490 0.00138177 0.00157383 0.00126477 
0.02265299 0.02279962 0.00288096 0.00158748 0.00075499 0.00288209 0.00589097 0.00573539 0.02256672 0.00175431 0.00178848 0.00788071 0.00893720 0.00138123 0.00155021 0.00126423 
0.02220051 0.02185666 0.00289945 0.00159608 0.00076382 0.00292283 0.00580863 0.00559809 0.02322324 0.00177151 0.00182004 0.00810895 0.00881931 0.00138191 0.00152711 0.00126385 
0.02180457 0.02096424 0.00292129 0.00160639 0.00077271 0.00296272 0.00572771 0.00545587 0.02386721 0.00178900 0.00185088 0.00833813 0.00870155 0.00138381 0.00150470 0.00126363 
0.02146797 0.02012609 0.00294659 0.00161839 0.00078160 0.00300158 0.00564835 0.00530960 0.02449499 0.00180672 0.00188090 0.00856733 0.00858423 0.00138695 0.00148313 0.00126355 
0.02119335 0.01934576 0.00297546 0.00163203 0.00079045 0.00303921 0.00557068 0.00516016 0.02510301 0.00182465 0.00191004 0.00879564 0.00846762 0.00139131 0.00146256 0.00126362 
0.02098310 0.01862656 0.00300801 0.00164727 0.00079922 0.00307541 0.00549481 0.00500845 0.02568783 0.00184273 0.00193821 0.00902219 0.00835199 0.00139689 0.00144315 0.00126384 
0.02083939 0.01797158 0.00304436 0.00166406 0.00080785 0.00311000 0.00542086 0.00485538 0.02624610 0.00186092 0.00196534 0.00924611 0.00823753 0.00140368 0.00142502 0.00126419 
0.02076414 0.01738361 0.00308463 0.00168235 0.00081631 0.00314280 0.00534890 0.00470183 0.02677465 0.00187916 0.00199135 0.00946657 0.00812446 0.00141166 0.00140832 0.00126469 
0.02075898 0.01686518 0.00312894 0.00170207 0.00082454 0.00317360 0.00527901 0.00454873 0.02727045 0.00189742 0.00201617 0.00968277 0.00801293 0.00142080 0.00139316 0.00126531 
0.02082529 0.01641854 0.00317739 0.00172314 0.00083250 0.00320225 0.00521125 0.00439696 0.02773066 0.00191562 0.00203973 0.00989395 0.00790310 0.00143109 0.00137967 0.00126606 
0.02096414 0.01604559 0.00323011 0.00174551 0.00084015 0.00322856 0.00514568 0.00424741 0.02815265 0.00193371 0.00206196 0.01009939 0.00779507 0.00144250 0.00136795 0.00126694 
0.02117629 0.01574793 0.00328721 0.00176907 0.00084745 0.00325237 0.00508234 0.00410093 0.02853398 0.00195163 0.00208278 0.01029844 0.00768895 0.00145499 0.00135808 0.00126793 
0.02146217 0.01552682 0.00334881 0.00179376 0.00085435 0.00327353 0.00502126 0.00395835 0.02887247 0.00196931 0.00210215 0.01049047 0.00758481 0.00146852 0.00135016 0.00126904 
0.02182193 0.01538315 0.00341500 0.00181947 0.00086082 0.00329190 0.00496246 0.00382049 0.02916616 0.00198670 0.00211999 0.01067494 0.00748271 0.00148306 0.00134427 0.00127025 
0.02225533 0.01531748 0.00348589 0.00184612 0.00086682 0.00330734 0.00490596 0.00368811 0.02941336 0.00200374 0.00213624 0.01085134 0.00738270 0.00149855 0.00134045 0.00127157 
0.02276185 0.01532997 0.00356158 0.00187360 0.00087233 0.00331973 0.00485175 0.00356194 0.02961266 0.00202034 0.00215085 0.01101926 0.00728481 0.00151494 0.00133876 0.00127298 
0.02334060 0.01542045 0.00364216 0.00190183 0.00087729 0.00332896 0.00479984 0.00344268 0.02976290 0.00203645 0.00216378 0.01117833 0.00718905 0.00153218 0.00133924 0.00127448 
0.02399034 0.01558833 0.00372771 0.00193069 0.00088170 0.00333495 0.00475022 0.00333096 0.02986324 0.00205200 0.00217496 0.01132826 0.00709544 0.00155020 0.00134191 0.00127606 
0.02470953 0.01583268 0.00381829 0.00196009 0.00088552 0.00333762 0.00470289 0.00322738 0.02991312 0.00206692 0.00218437 0.01146886 0.00700398 0.00156894 0.00134679 0.00127773 
0.02549627 0.01615218 0.00391397 0.00198992 0.00088873 0.00333690 0.00465781 0.00313247 0.02991227 0.00208115 0.00219196 0.01159997 0.00691466 0.00158833 0.00135389 0.00127947 
0.02634833 0.01654513 0.00401479 0.00202007 0.00089132 0.00333275 0.00461499 0.00304671 0.02986074 0.00209462 0.00219770 0.01172155 0.00682750 0.00160831 0.00136319 0.00128128 
0.02726315 0.01700947 0.00412079 0.00205045 0.00089326 0.00332514 0.00457439 0.00297053 0.02975887 0.00210727 0.00220156 0.01183361 0.00674247 0.00162879 0.00137467 0.00128315 
0.02823787 0.01754280 0.00423199 0.00208095 0.00089455 0.00331405 0.00453601 0.00290430 0.02960731 0.00211904 0.00220352 0.01193625 0.00665959 0.00164970 0.00138832 0.00128507 
0.02926933 0.01814233 0.00434840 0.00211145 0.00089518 0.00329951 0.00449982 0.00284830 0.02940702 0.00212987 0.00220357 0.01202965 0.00657886 0.00167095 0.00140407 0.00128705 
0.03035405 0.01880494 0.00447000 0.00214188 0.00089514 0.00328152 0.00446581 0.00280278 0.02915924 0.00213970 0.00220169 0.01211408 0.00650029 0.00169248 0.00142188 0.00128907 
0.03148829 0.01952721 0.00459676 0.00217211 0.00089444 0.00326012 0.00443397 0.00276792 0.02886553 0.00214849 0.00219789 0.01218986 0.00642390 0.00171419 0.00144170 0.00129113 
0.03266805 0.02030538 0.00472863 0.00220206 0.00089307 0.00323539 0.00440428 0.00274381 0.02852771 0.00215619 0.00219217 0.01225741 0.00634973 0.00173600 0.00146344 0.00129323 
0.03388905 0.02113539 0.00486555 0.00223162 0.00089105 0.00320738 0.00437674 0.00273051 0.02814788 0.00216275 0.00218454 0.01231722 0.00627781 0.00175783 0.00148703 0.00129535 
0.03514684 0.02201293 0.00500742 0.00226071 0.00088838 0.00317619 0.00435136 0.00272799 0.02772843 0.00216813 0.00217502 0.01236983 0.00620819 0.00177958 0.00151239 0.00129751 
0.03643669 0.02293340 0.00515413 0.00228923 0.00088509 0.00314194 0.00432813 0.00273618 0.02727199 0.00217231 0.00216363 0.01241589 0.00614096 0.00180118 0.00153940 0.00129968 
0.03775375 0.02389200 0.00530554 0.00231710 0.00088117 0.00310473 0.00430707 0.00275492 0.02678141 0.00217525 0.00215041 0.01245607 0.00607618 0.00182255 0.00156798 0.00130186 
0.03909295 0.02488369 0.00546150 0.00234423 0.00087667 0.00306472 0.00428820 0.00278402 0.02625979 0.00217694 0.00213539 0.01249112 0.00601396 0.00184359 0.00159800 0.00130406 
0.04044911 0.02590326 0.00562182 0.00237055 0.00087160 0.00302205 0.00427156 0.00282320 0.02571043 0.00217736 0.00211863 0.01252184 0.00595442 0.00186423 0.00162936 0.00130627 
0.04181692 0.02694534 0.00578628 0.00239597 0.00086598 0.00297688 0.00425717 0.00287215 0.02513682 0.00217650 0.00210018 0.01254909 0.00589767 0.00188439 0.00166192 0.00130847 
0.04319097 0.02800441 0.00595467 0.00242043 0.00085986 0.00292941 0.00424507 0.00293050 0.02454262 0.00217435 0.00208011 0.01257376 0.00584387 0.00190399 0.00169557 0.00131067 
0.04456580 0.02907486 0.00612671 0.00244386 0.00085326 0.00287982 0.00423533 0.00299783 0.02393164 0.00217094 0.00205848 0.01259679 0.00579317 0.00192295 0.00173018 0.00131287 
0.04593589 0.03015101 0.00630211 0.00246619 0.00084622 0.00282830 0.00422800 0.00307365 0.02330783 0.00216626 0.00203536 0.01261912 0.00574576 0.00194122 0.00176560 0.00131506 
0.04729573 0.03122712 0.00648057 0.00248737 0.00083877 0.00277507 0.00422316 0.00315746 0.02267522 0.00216034 0.00201086 0.01264176 0.00570180 0.00195871 0.00180170 0.00131724 
0.04863979 0.03229743 0.00666175 0.00250734 0.00083095 0.00272035 0.00422086 0.00324869 0.02203795 0.00215321 0.00198505 0.01266570 0.00566151 0.00197537 0.00183834 0.00131940 
0.04996260 0.03335622 0.00684528 0.00252606 0.00082281 0.00266436 0.00422122 0.00334677 0.02140021 0.00214490 0.00195804 0.01269195 0.00562509 0.00199113 0.00187538 0.00132154 
0.05125876 0.03439779 0.00703077 0.00254347 0.00081439 0.00260733 0.00422430 0.00345105 0.02076621 0.00213545 0.00192993 0.01272152 0.00559277 0.00200595 0.00191268 0.00132365 
0.05252295 0.03541652 0.00721780 0.00255954 0.00080574 0.00254949 0.00423021 0.00356090 0.02014021 0.00212492 0.00190084 0.01275543 0.00556476 0.00201977 0.00195010 0.00132574 
0.05374999 0.03640689 0.00740594 0.00257422 0.00079689 0.00249109 0.00423906 0.00367563 0.01952641 0.00211335 0.00187087 0.01279465 0.00554130 0.00203254 0.00198749 0.00132780 
0.05493483 0.03736353 0.00759473 0.00258750 0.00078789 0.00243236 0.00425095 0.00379455 0.01892901 0.00210083 0.00184016 0.01284017 0.00552262 0.00204423 0.00202471 0.00132983 
0.05607260 0.03828122 0.00778367 0.00259933 0.00077879 0.00237354 0.00426599 0.00391695 0.01835212 0.00208741 0.00180882 0.01289291 0.00550897 0.00205480 0.00206164 0.00133183 
0.05715863 0.03915493 0.00797226 0.00260969 0.00076963 0.00231486 0.00428431 0.00404211 0.01779978 0.00207317 0.00177700 0.01295377 0.00550057 0.00206421 0.00209812 0.00133379 
0.05818848 0.03997987 0.00815998 0.00261857 0.00076046 0.00225657 0.00430601 0.00416931 0.01727592 0.00205821 0.00174482 0.01302362 0.00549766 0.00207245 0.00213403 0.00133571 
0.05915794 0.04075146 0.00834629 0.00262595 0.00075133 0.00219889 0.00433122 0.00429781 0.01678433 0.00204260 0.00171243 0.01310324 0.00550046 0.00207948 0.00216924 0.00133759 
0.06006309 0.04146542 0.00853064 0.00263182 0.00074227 0.00214205 0.00436006 0.00442690 0.01632864 0.00202644 0.00167998 0.01319339 0.00550920 0.00208531 0.00220361 0.00133943 
0.06090030 0.04211774 0.00871243 0.00263617 0.00073334 0.00208627 0.00439263 0.00455587 0.01591230 0.00200983 0.00164761 0.01329473 0.00552408 0.00208991 0.00223703 0.00134122 
0.06166623 0.04270475 0.00889111 0.00263900 0.00072457 0.00203176 0.00442906 0.00468401 0.01553858 0.00199289 0.00161546 0.01340787 0.00554528 0.00209328 0.00226939 0.00134296 
0.06235790 0.04322310 0.00906608 0.00264031 0.00071600 0.00197873 0.00446945 0.00481065 0.01521051 0.00197571 0.00158370 0.01353333 0.00557300 0.00209541 0.00230056 0.00134465 
0.06297267 0.04366979 0.00923673 0.00264010 0.00070768 0.00192736 0.00451391 0.00493511 0.01493089 0.00195840 0.00155246 0.01367155 0.00560738 0.00209632 0.00233045 0.00134629 
0.06350825 0.04404220 0.00940247 0.00263838 0.00069963 0.00187785 0.00456252 0.00505677 0.01470227 0.00194109 0.00152191 0.01382287 0.00564856 0.00209601 0.00235894 0.00134787 
0.06396275 0.04433809 0.00956270 0.00263516 0.00069189 0.00183035 0.00461538 0.00517502 0.01452691 0.00192389 0.00149219 0.01398756 0.00569666 0.00209449 0.00238596 0.00134940 
0.06433467 0.04455563 0.00971681 0.00263046 0.00068450 0.00178504 0.00467255 0.00528927 0.01440682 0.00190691 0.00146345 0.01416577 0.00575176 0.00209179 0.00241140 0.00135087 
0.06462288 0.04469338 0.00986421 0.00262429 0.00067749 0.00174206 0.00473411 0.00539900 0.01434367 0.00189028 0.00143586 0.01435756 0.00581393 0.00208791 0.00243520 0.00135228 
0.06482672 0.04475033 0.01000432 0.00261669 0.00067087 0.00170153 0.00480009 0.00550370 0.01433886 0.00187412 0.00140954 0.01456290 0.00588320 0.00208288 0.00245727 0.00135363 
0.06494589 0.04472587 0.01013656 0.00260767 0.00066468 0.00166358 0.00487054 0.00560292 0.01439345 0.00185855 0.00138465 0.01478165 0.00595956 0.00207674 0.00247756 0.00135492 
0.06498056 0.04461985 0.01026037 0.00259726 0.00065894 0.00162830 0.00494546 0.00569623 0.01450819 0.00184367 0.00136134 0.01501355 0.00604298 0.00206951 0.00249600 0.00135614 
0.06493128 0.04443253 0.01037520 0.00258549 0.00065367 0.00159579 0.00502486 0.00578327 0.01468347 0.00182962 0.00133973 0.01525827 0.00613340 0.00206122 0.00251255 0.00135729 
0.06479908 0.04416458 0.01048053 0.00257241 0.00064887 0.00156612 0.00510871 0.00586371 0.01491938 0.00181649 0.00131996 0.01551536 0.00623071 0.00205192 0.00252716 0.00135837 
0.06458537 0.04381711 0.01057586 0.00255805 0.00064458 0.00153933 0.00519698 0.00593729 0.01521566 0.00180440 0.00130217 0.01578426 0.00633479 0.00204163 0.00253980 0.00135938 
0.06429200 0.04339165 0.01066073 0.00254245 0.00064078 0.00151548 0.00528959 0.00600378 0.01557171 0.00179346 0.00128646 0.01606435 0.00644544 0.00203041 0.00255045 0.00136032 
0.06392123 0.04289012 0.01073469 0.00252566 0.00063750 0.00149458 0.00538648 0.00606300 0.01598660 0.00178377 0.00127296 0.01635489 0.00656248 0.00201829 0.00255909 0.00136118 
0.06347575 0.04231487 0.01079733 0.00250773 0.00063473 0.00147665 0.00548751 0.00611485 0.01645907 0.00177541 0.00126178 0.01665505 0.00668564 0.00200531 0.00256571 0.00136197 
0.06295862 0.04166860 0.01084828 0.00248871 0.00063248 0.00146167 0.00559257 0.00615924 0.01698754 0.00176848 0.00125302 0.01696393 0.00681464 0.00199153 0.00257032 0.00136267 
0.06237329 0.04095440 0.01088722 0.00246865 0.00063075 0.00144962 0.00570149 0.00619616 0.01757011 0.00176306 0.00124678 0.01728054 0.00694917 0.00197700 0.00257292 0.00136330 
0.06172359 0.04017572 0.01091384 0.00244763 0.00062952 0.00144046 0.00581409 0.00622563 0.01820457 0.00175922 0.00124312 0.01760384 0.00708887 0.00196175 0.00257354 0.00136385 
0.06101370 0.03933633 0.01092791 0.00242568 0.00062880 0.00143415 0.00593016 0.00624775 0.01888843 0.00175703 0.00124214 0.01793270 0.00723335 0.00194584 0.00257221 0.00136431 
0.06024814 0.03844034 0.01092923 0.00240289 0.00062858 0.00143061 0.00604946 0.00626263 0.01961891 0.00175655 0.00124390 0.01826596 0.00738220 0.00192932 0.00256895 0.00136469 
0.05943174 0.03749213 0.01091763 0.00237932 0.00062884 0.00142977 0.00617174 0.00627045 0.02039295 0.00175782 0.00124845 0.01860238 0.00753496 0.00191224 0.00256382 0.00136498 
0.05856963 0.03649638 0.01089303 0.00235505 0.00062958 0.00143153 0.00629670 0.00627143 0.02120727 0.00176089 0.00125584 0.01894071 0.00769114 0.00189465 0.00255688 0.00136519 
0.05766720 0.03545799 0.01085537 0.00233013 0.00063077 0.00143579 0.00642404 0.00626582 0.02205834 0.00176577 0.00126610 0.01927965 0.00785026 0.00187660 0.00254817 0.00136531 
0.05673008 0.03438210 0.01080465 0.00230466 0.00063239 0.00144243 0.00655341 0.00625393 0.02294241 0.00177249 0.00127926 0.01961789 0.00801176 0.00185816 0.00253779 0.00136535 
0.05576414 0.03327403 0.01074094 0.00227871 0.00063444 0.00145134 0.00668447 0.00623608 0.02385555 0.00178106 0.00129532 0.01995409 0.00817510 0.00183936 0.00252580 0.00136529 
0.05477541 0.03213929 0.01066434 0.00225236 0.00063689 0.00146237 0.00681682 0.00621265 0.02479366 0.00179147 0.00131428 0.02028692 0.00833971 0.00182026 0.00251229 0.00136515 
0.05377009 0.03098350 0.01057504 0.00222570 0.00063971 0.00147538 0.00695007 0.00618403 0.02575249 0.00180371 0.00133614 0.02061506 0.00850499 0.00180092 0.00249735 0.00136492 
0.05275451 0.02981241 0.01047324 0.00219882 0.00064289 0.00149022 0.00708378 0.00615064 0.02672765 0.00181775 0.00136086 0.02093718 0.00867034 0.00178139 0.00248110 0.00136460 
0.05173507 0.02863183 0.01035923 0.00217179 0.00064640 0.00150674 0.00721752 0.00611294 0.02771468 0.00183356 0.00138841 0.02125199 0.00883514 0.00176171 0.00246364 0.00136419 
0.05071826 0.02744764 0.01023335 0.00214471 0.00065021 0.00152477 0.00735084 0.00607140 0.02870901 0.00185109 0.00141874 0.02155825 0.00899879 0.00174196 0.00244509 0.00136370 
0.04971058 0.02626571 0.01009598 0.00211768 0.00065430 0.00154415 0.00748324 0.00602648 0.02970606 0.00187027 0.00145178 0.02185472 0.00916065 0.00172217 0.00242556 0.00136312 
0.04871851 0.02509193 0.00994756 0.00209078 0.00065866 0.00156471 0.00761426 0.00597870 0.03070118 0.00189105 0.00148746 0.02214024 0.00932010 0.00170240 0.00240520 0.00136245 
0.04774853 0.02393212 0.00978860 0.00206410 0.00066324 0.00158627 0.00774340 0.00592854 0.03168975 0.00191333 0.00152568 0.02241370 0.00947652 0.00168270 0.00238413 0.00136171 
0.04680698 0.02279203 0.00961963 0.00203775 0.00066802 0.00160866 0.00787014 0.00587653 0.03266718 0.00193702 0.00156636 0.02267405 0.00962931 0.00166314 0.00236249 0.00136088 
0.04590014 0.02167732 0.00944125 0.00201181 0.00067299 0.00163171 0.00799399 0.00582316 0.03362891 0.00196203 0.00160937 0.02292030 0.00977786 0.00164375 0.00234042 0.00135998 
0.04503412 0.02059352 0.00925409 0.00198638 0.00067810 0.00165525 0.00811443 0.00576893 0.03457048 0.00198825 0.00165459 0.02315157 0.00992158 0.00162459 0.00231808 0.00135900 
0.04421484 0.01954599 0.00905884 0.00196156 0.00068335 0.00167910 0.00823095 0.00571435 0.03548751 0.00201554 0.00170188 0.02336704 0.01005991 0.00160572 0.00229561 0.00135795 
0.04344801 0.01853991 0.00885621 0.00193743 0.00068869 0.00170310 0.00834304 0.00565990 0.03637577 0.00204379 0.00175110 0.02356596 0.01019230 0.00158718 0.00227317 0.00135683 
0.04273911 0.01758024 0.00864697 0.00191409 0.00069412 0.00172709 0.00845020 0.00560605 0.03723116 0.00207286 0.00180209 0.02374770 0.01031823 0.00156903 0.00225092 0.00135565 
0.04209332 0.01667171 0.00843191 0.00189162 0.00069961 0.00175090 0.00855195 0.00555324 0.03804977 0.00210259 0.00185467 0.02391172 0.01043720 0.00155132 0.00222900 0.00135440 
0.04151550 0.01581879 0.00821186 0.00187012 0.00070512 0.00177437 0.00864779 0.00550192 0.03882787 0.00213285 0.00190867 0.02405755 0.01054876 0.00153410 0.00220758 0.00135310 
0.04101020 0.01502567 0.00798766 0.00184968 0.00071065 0.00179738 0.00873728 0.00545248 0.03956195 0.00216346 0.00196390 0.02418485 0.01065248 0.00151741 0.00218680 0.00135175 
0.04058156 0.01429623 0.00776019 0.00183036 0.00071618 0.00181976 0.00881997 0.00540532 0.04024875 0.00219427 0.00202017 0.02429336 0.01074795 0.00150132 0.00216684 0.00135036 
0.04023337 0.01363403 0.00753035 0.00181227 0.00072167 0.00184139 0.00889543 0.00536077 0.04088523 0.00222511 0.00207727 0.02438293 0.01083483 0.00148585 0.00214783 0.00134893 
0.03996897 0.01304230 0.00729905 0.00179546 0.00072712 0.00186214 0.00896328 0.00531915 0.04146864 0.00225582 0.00213498 0.02445349 0.01091280 0.00147107 0.00212993 0.00134746 
0.03979127 0.01252390 0.00706720 0.00178002 0.00073250 0.00188190 0.00902314 0.00528076 0.04199652 0.00228621 0.00219309 0.02450508 0.01098160 0.00145702 0.00211329 0.00134596 
0.03970271 0.01208134 0.00683573 0.00176601 0.00073781 0.00190056 0.00907468 0.00524584 0.04246669 0.00231611 0.00225139 0.02453782 0.01104099 0.00144374 0.00209804 0.00134444 
0.03970527 0.01171674 0.00660558 0.00175350 0.00074302 0.00191803 0.00911760 0.00521459 0.04287729 0.00234534 0.00230964 0.02455194 0.01109079 0.00143127 0.00208433 0.00134291 
0.03980043 0.01143184 0.00637768 0.00174254 0.00074812 0.00193421 0.00915164 0.00518721 0.04322678 0.00237374 0.00236761 0.02454774 0.01113088 0.00141965 0.00207228 0.00134137 
0.03998914 0.01122796 0.00615294 0.00173320 0.00075310 0.00194903 0.00917657 0.00516381 0.04351393 0.00240112 0.00242507 0.02452560 0.01116115 0.00140892 0.00206201 0.00133982 
0.04027186 0.01110606 0.00593229 0.00172551 0.00075794 0.00196243 0.00919222 0.00514450 0.04373786 0.00242731 0.00248180 0.02448599 0.01118158 0.00139913 0.00205364 0.00133828 
0.04064853 0.01106666 0.00571663 0.00171952 0.00076264 0.00197436 0.00919845 0.00512933 0.04389803 0.00245216 0.00253755 0.02442944 0.01119217 0.00139029 0.00204728 0.00133675 
0.04111854 0.01110990 0.00550683 0.00171526 0.00076719 0.00198476 0.00919517 0.00511832 0.04399422 0.00247548 0.00259209 0.02435655 0.01119297 0.00138244 0.00204303 0.00133524 
0.04168076 0.01123549 0.00530376 0.00171277 0.00077157 0.00199360 0.00918234 0.00511145 0.04402656 0.00249713 0.00264520 0.02426799 0.01118408 0.00137561 0.00204096 0.00133376 
0.04233352 0.01144276 0.00510826 0.00171206 0.00077578 0.00200088 0.00915997 0.00510866 0.04399553 0.00251695 0.00269665 0.02416445 0.01116566 0.00136983 0.00204115 0.00133231 
0.04307466 0.01173064 0.00492113 0.00171315 0.00077981 0.00200657 0.00912814 0.00510984 0.04390193 0.00253480 0.00274623 0.02404669 0.01113790 0.00136510 0.00204367 0.00133090 
0.04390146 0.01209765 0.00474315 0.00171606 0.00078366 0.00201068 0.00908694 0.00511488 0.04374689 0.00255053 0.00279370 0.02391552 0.01110102 0.00136146 0.00204857 0.00132953 
0.04481072 0.01254195 0.00457506 0.00172077 0.00078732 0.00201322 0.00903655 0.00512360 0.04353185 0.00256403 0.00283888 0.02377175 0.01105532 0.00135890 0.00205589 0.00132822 
0.04579873 0.01306134 0.00441756 0.00172729 0.00079079 0.00201422 0.00897719 0.00513580 0.04325860 0.00257517 0.00288155 0.02361624 0.01100110 0.00135745 0.00206565 0.00132696 
0.04686131 0.01365323 0.00427130 0.00173560 0.00079405 0.00201370 0.00890913 0.00515127 0.04292919 0.00258385 0.00292152 0.02344986 0.01093873 0.00135710 0.00207786 0.00132577 
0.04799381 0.01431471 0.00413690 0.00174568 0.00079712 0.00201172 0.00883272 0.00516974 0.04254598 0.00258997 0.00295862 0.02327348 0.01086858 0.00135785 0.00209252 0.00132466 
0.04919114 0.01504254 0.00401494 0.00175750 0.00079998 0.00200832 0.00874832 0.00519095 0.04211161 0.00259345 0.00299268 0.02308798 0.01079109 0.00135971 0.00210962 0.00132361 
0.05044780 0.01583317 0.00390593 0.00177102 0.00080263 0.00200356 0.00865638 0.00521458 0.04162896 0.00259422 0.00302353 0.02289426 0.01070670 0.00136265 0.00212913 0.00132265 
0.05175789 0.01668275 0.00381035 0.00178620 0.00080508 0.00199752 0.00855737 0.00524034 0.04110115 0.00259222 0.00305103 0.02269317 0.01061590 0.00136666 0.00215099 0.00132178 
0.05311516 0.01758717 0.00372861 0.00180299 0.00080731 0.00199028 0.00845183 0.00526787 0.04053155 0.00258740 0.00307506 0.02248558 0.01051918 0.00137173 0.00217515 0.00132099 
0.05451301 0.01854209 0.00366108 0.00182132 0.00080933 0.00198191 0.00834034 0.00529685 0.03992371 0.00257974 0.00309550 0.02227232 0.01041708 0.00137783 0.00220154 0.00132030 
0.05594455 0.01954290 0.00360808 0.00184115 0.00081114 0.00197252 0.00822353 0.00532693 0.03928135 0.00256922 0.00311224 0.02205421 0.01031012 0.00138493 0.00223006 0.00131971 
0.05740263 0.02058484 0.00356986 0.00186238 0.00081273 0.00196220 0.00810205 0.00535774 0.03860838 0.00255584 0.00312521 0.02183203 0.01019886 0.00139298 0.00226063 0.00131921 
0.05887986 0.02166294 0.00354662 0.00188495 0.00081410 0.00195106 0.00797662 0.00538894 0.03790883 0.00253962 0.00313434 0.02160654 0.01008387 0.00140197 0.00229311 0.00131882 
0.06036866 0.02277208 0.00353853 0.00190877 0.00081526 0.00193920 0.00784798 0.00542017 0.03718683 0.00252059 0.00313957 0.02137844 0.00996571 0.00141183 0.00232738 0.00131853 
0.06186130 0.02390705 0.00354567 0.00193374 0.00081621 0.00192674 0.00771688 0.00545108 0.03644661 0.00249878 0.00314088 0.02114841 0.00984497 0.00142251 0.00236331 0.00131835 
0.06334994 0.02506249 0.00356809 0.00195977 0.00081693 0.00191381 0.00758414 0.00548135 0.03569247 0.00247427 0.00313826 0.02091710 0.00972222 0.00143397 0.00240073 0.00131828 
0.06482666 0.02623302 0.00360576 0.00198675 0.00081744 0.00190051 0.00745056 0.00551065 0.03492873 0.00244713 0.00313170 0.02068508 0.00959802 0.00144615 0.00243950 0.00131831 
0.06628352 0.02741318 0.00365863 0.00201459 0.00081773 0.00188697 0.00731699 0.00553868 0.03415974 0.00241744 0.00312123 0.02045292 0.00947296 0.00145897 0.00247943 0.00131844 
0.06771258 0.02859752 0.00372658 0.00204316 0.00081781 0.00187331 0.00718429 0.00556514 0.03338983 0.00238532 0.00310688 0.02022110 0.00934758 0.00147238 0.00252034 0.00131869 
0.06910599 0.02978059 0.00380944 0.00207235 0.00081766 0.00185967 0.00705330 0.00558978 0.03262328 0.00235086 0.00308873 0.01999010 0.00922244 0.00148630 0.00256204 0.00131903 
0.07045595 0.03095696 0.00390699 0.00210204 0.00081730 0.00184615 0.00692490 0.00561237 0.03186433 0.00231422 0.00306684 0.01976032 0.00909806 0.00150065 0.00260433 0.00131948 
0.07175483 0.03212130 0.00401898 0.00213211 0.00081672 0.00183290 0.00679994 0.00563268 0.03111712 0.00227552 0.00304131 0.01953214 0.00897497 0.00151537 0.00264701 0.00132002 
0.07299519 0.03326835 0.00414508 0.00216243 0.00081593 0.00182001 0.00667928 0.00565056 0.03038566 0.00223493 0.00301224 0.01930589 0.00885367 0.00153037 0.00268988 0.00132066 
0.07416979 0.03439296 0.00428495 0.00219288 0.00081491 0.00180763 0.00656376 0.00566585 0.02967388 0.00219261 0.00297977 0.01908186 0.00873462 0.00154557 0.00273271 0.00132139 
0.07527169 0.03549014 0.00443819 0.00222331 0.00081369 0.00179586 0.00645421 0.00567845 0.02898549 0.00214874 0.00294404 0.01886031 0.00861829 0.00156089 0.00277530 0.00132220 
0.07629421 0.03655504 0.00460438 0.00225362 0.00081224 0.00178482 0.00635142 0.00568828 0.02832407 0.00210350 0.00290520 0.01864144 0.00850510 0.00157624 0.00281742 0.00132310 
0.07723107 0.03758303 0.00478304 0.00228365 0.00081058 0.00177461 0.00625617 0.00569531 0.02769297 0.00205709 0.00286343 0.01842545 0.00839547 0.00159153 0.00285886 0.00132407 
0.07807633 0.03856965 0.00497367 0.00231329 0.00080871 0.00176534 0.00616918 0.00569953 0.02709536 0.00200971 0.00281890 0.01821250 0.00828976 0.00160668 0.00289942 0.00132512 
0.07882448 0.03951070 0.00517573 0.00234239 0.00080662 0.00175711 0.00609117 0.00570101 0.02653414 0.00196156 0.00277183 0.01800271 0.00818833 0.00162160 0.00293886 0.00132623 
0.07947048 0.04040221 0.00538866 0.00237085 0.00080433 0.00175001 0.00602278 0.00569980 0.02601199 0.00191287 0.00272240 0.01779620 0.00809149 0.00163622 0.00297699 0.00132740 
0.08000973 0.04124048 0.00561188 0.00239851 0.00080182 0.00174413 0.00596462 0.00569604 0.02553131 0.00186385 0.00267085 0.01759306 0.00799955 0.00165043 0.00301361 0.00132863 
0.08043819 0.04202209 0.00584476 0.00242527 0.00079911 0.00173955 0.00591723 0.00568989 0.02509422 0.00181472 0.00261740 0.01739336 0.00791276 0.00166417 0.00304851 0.00132989 
0.08075233 0.04274393 0.00608668 0.00245101 0.00079620 0.00173633 0.00588110 0.00568153 0.02470257 0.00176571 0.00256228 0.01719717 0.00783136 0.00167736 0.00308152 0.00133120 
0.08094918 0.04340316 0.00633698 0.00247559 0.00079308 0.00173456 0.00585666 0.00567120 0.02435791 0.00171703 0.00250573 0.01700455 0.00775554 0.00168990 0.00311244 0.00133254 
0.08102638 0.04399731 0.00659500 0.00249892 0.00078977 0.00173427 0.00584428 0.00565917 0.02406146 0.00166891 0.00244800 0.01681555 0.00768550 0.00170174 0.00314111 0.00133390 
0.08098215 0.04452421 0.00686006 0.00252087 0.00078627 0.00173553 0.00584424 0.00564574 0.02381418 0.00162158 0.00238933 0.01663022 0.00762136 0.00171280 0.00316737 0.00133527 
0.08081533 0.04498201 0.00713146 0.00254136 0.00078258 0.00173836 0.00585677 0.00563122 0.02361668 0.00157524 0.00232997 0.01644861 0.00756324 0.00172301 0.00319108 0.00133666 
0.08052541 0.04536925 0.00740852 0.00256028 0.00077871 0.00174281 0.00588201 0.00561599 0.02346927 0.00153012 0.00227018 0.01627079 0.00751125 0.00173231 0.00321210 0.00133804 
0.08011251 0.04568477 0.00769052 0.00257754 0.00077465 0.00174889 0.00592004 0.00560041 0.02337193 0.00148642 0.00221019 0.01609681 0.00746544 0.00174065 0.00323032 0.00133942 
0.07957740 0.04592778 0.00797678 0.00259306 0.00077043 0.00175662 0.00597083 0.00558490 0.02332436 0.00144435 0.00215027 0.01592677 0.00742585 0.00174796 0.00324562 0.00134078 
0.07892149 0.04609783 0.00826657 0.00260677 0.00076604 0.00176600 0.00603431 0.00556986 0.02332593 0.00140409 0.00209064 0.01576074 0.00739250 0.00175422 0.00325793 0.00134211 
0.07814685 0.04619484 0.00855922 0.00261858 0.00076149 0.00177702 0.00611031 0.00555574 0.02337571 0.00136583 0.00203155 0.01559883 0.00736537 0.00175936 0.00326716 0.00134342 
0.07725620 0.04621904 0.00885401 0.00262845 0.00075678 0.00178968 0.00619857 0.00554298 0.02347248 0.00132975 0.00197323 0.01544115 0.00734443 0.00176337 0.00327327 0.00134469 
0.07625288 0.04617101 0.00915026 0.00263633 0.00075194 0.00180394 0.00629877 0.00553202 0.02361475 0.00129601 0.00191591 0.01528784 0.00732964 0.00176620 0.00327621 0.00134591 
0.07514089 0.04605167 0.00944730 0.00264217 0.00074695 0.00181977 0.00641050 0.00552332 0.02380073 0.00126476 0.00185979 0.01513906 0.00732092 0.00176785 0.00327596 0.00134708 
0.07392481 0.04586227 0.00974445 0.00264593 0.00074184 0.00183714 0.00653329 0.00551732 0.02402839 0.00123615 0.00180508 0.01499496 0.00731819 0.00176829 0.00327252 0.00134820 
0.07260985 0.04560434 0.01004106 0.00264760 0.00073661 0.00185599 0.00666658 0.00551448 0.02429545 0.00121029 0.00175198 0.01485575 0.00732132 0.00176751 0.00326591 0.00134924 
0.07120176 0.04527975 0.01033649 0.00264716 0.00073127 0.00187625 0.00680974 0.00551521 0.02459940 0.00118730 0.00170066 0.01472162 0.00733021 0.00176552 0.00325614 0.00135022 
0.06970687 0.04489063 0.01063011 0.00264460 0.00072583 0.00189787 0.00696206 0.00551993 0.02493753 0.00116727 0.00165130 0.01459278 0.00734472 0.00176231 0.00324329 0.00135112 
0.06813203 0.04443940 0.01092133 0.00263994 0.00072030 0.00192077 0.00712281 0.00552903 0.02530692 0.00115028 0.00160405 0.01446949 0.00736469 0.00175791 0.00322740 0.00135193 
0.06648457 0.04392874 0.01120955 0.00263319 0.00071469 0.00194486 0.00729114 0.00554288 0.02570447 0.00113640 0.00155904 0.01435198 0.00738995 0.00175232 0.00320857 0.00135266 
0.06477232 0.04336156 0.01149420 0.00262438 0.00070900 0.00197005 0.00746619 0.00556182 0.02612696 0.00112567 0.00151641 0.01424053 0.00742035 0.00174557 0.00318689 0.00135329 
0.06300351 0.04274101 0.01177475 0.00261354 0.00070326 0.00199625 0.00764703 0.00558615 0.02657100 0.00111813 0.00147626 0.01413540 0.00745569 0.00173769 0.00316249 0.00135382 
0.06118675 0.04207044 0.01205066 0.00260073 0.00069747 0.00202334 0.00783269 0.00561615 0.02703311 0.00111378 0.00143869 0.01403687 0.00749577 0.00172873 0.00313549 0.00135426 
0.05933103 0.04135337 0.01232145 0.00258599 0.00069164 0.00205123 0.00802215 0.00565203 0.02750973 0.00111263 0.00140376 0.01394524 0.00754040 0.00171871 0.00310605 0.00135459 
0.05744563 0.04059351 0.01258663 0.00256940 0.00068578 0.00207978 0.00821437 0.00569398 0.02799721 0.00111465 0.00137155 0.01386080 0.00758935 0.00170770 0.00307432 0.00135481 
0.05554011 0.03979472 0.01284576 0.00255103 0.00067990 0.00210889 0.00840829 0.00574212 0.02849189 0.00111980 0.00134208 0.01378384 0.00764243 0.00169575 0.00304049 0.00135492 
0.05362422 0.03896094 0.01309841 0.00253097 0.00067401 0.00213842 0.00860280 0.00579655 0.02899007 0.00112802 0.00131539 0.01371464 0.00769939 0.00168291 0.00300473 0.00135491 
0.05170790 0.03809627 0.01334418 0.00250931 0.00066813 0.00216824 0.00879681 0.00585729 0.02948806 0.00113926 0.00129149 0.01365351 0.00776001 0.00166925 0.00296725 0.00135479 
0.04980121 0.03720485 0.01358270 0.00248617 0.00066225 0.00219823 0.00898921 0.00592430 0.02998221 0.00115340 0.00127036 0.01360072 0.00782405 0.00165484 0.00292826 0.00135455 
0.04791429 0.03629090 0.01381362 0.00246164 0.00065640 0.00222824 0.00917890 0.00599752 0.03046891 0.00117037 0.00125198 0.01355653 0.00789128 0.00163976 0.00288798 0.00135420 
0.04605726 0.03535866 0.01403661 0.00243586 0.00065059 0.00225814 0.00936477 0.00607678 0.03094464 0.00119002 0.00123632 0.01352120 0.00796143 0.00162406 0.00284663 0.00135372 
0.04424027 0.03441240 0.01425139 0.00240894 0.00064481 0.00228778 0.00954574 0.00616189 0.03140596 0.00121223 0.00122331 0.01349497 0.00803427 0.00160785 0.00280446 0.00135313 
0.04247333 0.03345639 0.01445767 0.00238103 0.00063908 0.00231704 0.00972076 0.00625259 0.03184955 0.00123685 0.00121289 0.01347806 0.00810953 0.00159118 0.00276169 0.00135241 
0.04076637 0.03249484 0.01465521 0.00235227 0.00063342 0.00234576 0.00988881 0.00634854 0.03227225 0.00126373 0.00120498 0.01347067 0.00818696 0.00157416 0.00271858 0.00135158 
0.03912908 0.03153195 0.01484379 0.00232280 0.00062781 0.00237381 0.01004889 0.00644936 0.03267102 0.00129268 0.00119947 0.01347297 0.00826629 0.00155687 0.00267537 0.00135062 
0.03757095 0.03057183 0.01502321 0.00229277 0.00062229 0.00240105 0.01020007 0.00655462 0.03304302 0.00132353 0.00119626 0.01348511 0.00834726 0.00153938 0.00263232 0.00134955 
0.03610119 0.02961851 0.01519330 0.00226234 0.00061684 0.00242734 0.01034145 0.00666380 0.03338560 0.00135609 0.00119523 0.01350719 0.00842960 0.00152179 0.00258967 0.00134837 
0.03472864 0.02867590 0.01535389 0.00223168 0.00061149 0.00245256 0.01047220 0.00677635 0.03369632 0.00139014 0.00119625 0.01353931 0.00851303 0.00150418 0.00254767 0.00134707 
0.03346179 0.02774782 0.01550487 0.00220093 0.00060622 0.00247657 0.01059156 0.00689167 0.03397295 0.00142549 0.00119918 0.01358152 0.00859729 0.00148665 0.00250658 0.00134565 
0.03230868 0.02683791 0.01564611 0.00217027 0.00060106 0.00249925 0.01069883 0.00700909 0.03421351 0.00146192 0.00120388 0.01363383 0.00868209 0.00146926 0.00246663 0.00134413 
0.03127690 0.02594968 0.01577753 0.00213986 0.00059600 0.00252047 0.01079338 0.00712791 0.03441625 0.00149921 0.00121018 0.01369622 0.00876715 0.00145212 0.00242808 0.00134250 
0.03037349 0.02508645 0.01589905 0.00210987 0.00059106 0.00254013 0.01087468 0.00724739 0.03457968 0.00153714 0.00121794 0.01376863 0.00885221 0.00143530 0.00239114 0.00134076 
0.02960498 0.02425138 0.01601061 0.00208046 0.00058622 0.00255811 0.01094227 0.00736673 0.03470257 0.00157548 0.00122698 0.01385096 0.00893697 0.00141887 0.00235606 0.00133893 
0.02897727 0.02344742 0.01611218 0.00205179 0.00058151 0.00257431 0.01099579 0.00748513 0.03478398 0.00161402 0.00123715 0.01394309 0.00902116 0.00140293 0.00232305 0.00133700 
0.02849565 0.02267730 0.01620374 0.00202403 0.00057692 0.00258864 0.01103495 0.00760173 0.03482320 0.00165252 0.00124827 0.01404483 0.00910451 0.00138753 0.00229232 0.00133497 
0.02816475 0.02194355 0.01628526 0.00199734 0.00057244 0.00260102 0.01105958 0.00771567 0.03481983 0.00169077 0.00126018 0.01415596 0.00918672 0.00137275 0.00226407 0.00133285 
0.02798851 0.02124848 0.01635676 0.00197187 0.00056810 0.00261137 0.01106960 0.00782606 0.03477374 0.00172855 0.00127270 0.01427624 0.00926754 0.00135866 0.00223851 0.00133065 
0.02797017 0.02059414 0.01641824 0.00194776 0.00056388 0.00261962 0.01106501 0.00793202 0.03468505 0.00176564 0.00128568 0.01440538 0.00934670 0.00134531 0.00221579 0.00132837 
0.02811220 0.01998237 0.01646974 0.00192517 0.00055979 0.00262572 0.01104593 0.00803264 0.03455418 0.00180186 0.00129896 0.01454304 0.00942392 0.00133276 0.00219609 0.00132601 
0.02841637 0.01941475 0.01651128 0.00190422 0.00055582 0.00262961 0.01101258 0.00812703 0.03438179 0.00183698 0.00131236 0.01468885 0.00949894 0.00132107 0.00217957 0.00132359 
0.02888365 0.01889262 0.01654290 0.00188505 0.00055199 0.00263127 0.01096527 0.00821431 0.03416883 0.00187084 0.00132575 0.01484243 0.00957153 0.00131029 0.00216635 0.00132110 
0.02951424 0.01841706 0.01656466 0.00186778 0.00054828 0.00263067 0.01090440 0.00829361 0.03391646 0.00190326 0.00133898 0.01500333 0.00964142 0.00130044 0.00215657 0.00131854 
0.03030757 0.01798894 0.01657661 0.00185252 0.00054471 0.00262779 0.01083048 0.00836410 0.03362612 0.00193406 0.00135191 0.01517109 0.00970839 0.00129158 0.00215033 0.00131594 
0.03126225 0.01760883 0.01657881 0.00183937 0.00054126 0.00262265 0.01074411 0.00842495 0.03329947 0.00196310 0.00136442 0.01534523 0.00977222 0.00128372 0.00214773 0.00131329 
0.03237616 0.01727710 0.01657132 0.00182843 0.00053794 0.00261525 0.01064598 0.00847541 0.03293836 0.00199024 0.00137638 0.01552521 0.00983270 0.00127689 0.00214884 0.00131060 
0.03364635 0.01699386 0.01655421 0.00181977 0.00053475 0.00260561 0.01053688 0.00851474 0.03254487 0.00201537 0.00138768 0.01571052 0.00988963 0.00127111 0.00215372 0.00130787 
0.03506913 0.01675897 0.01652755 0.00181347 0.00053168 0.00259377 0.01041764 0.00854227 0.03212127 0.00203837 0.00139824 0.01590057 0.00994282 0.00126640 0.00216242 0.00130512 
0.03664005 0.01657208 0.01649142 0.00180957 0.00052873 0.00257978 0.01028922 0.00855739 0.03166999 0.00205916 0.00140796 0.01609479 0.00999213 0.00126276 0.00217496 0.00130235 
0.03835393 0.01643262 0.01644590 0.00180813 0.00052591 0.00256371 0.01015263 0.00855956 0.03119361 0.00207766 0.00141677 0.01629260 0.01003739 0.00126018 0.00219137 0.00129957 
0.04020486 0.01633979 0.01639104 0.00180918 0.00052321 0.00254563 0.01000893 0.00854829 0.03069485 0.00209382 0.00142462 0.01649339 0.01007849 0.00125867 0.00221163 0.00129678 
0.04218626 0.01629257 0.01632695 0.00181272 0.00052063 0.00252563 0.00985927 0.00852320 0.03017657 0.00210761 0.00143146 0.01669655 0.01011532 0.00125822 0.00223572 0.00129400 
0.04429087 0.01628978 0.01625368 0.00181877 0.00051817 0.00250381 0.00970484 0.00848396 0.02964168 0.00211901 0.00143726 0.01690146 0.01014780 0.00125879 0.00226362 0.00129123 
0.04651082 0.01633003 0.01617133 0.00182731 0.00051583 0.00248027 0.00954687 0.00843037 0.02909321 0.00212803 0.00144199 0.01710751 0.01017587 0.00126039 0.00229526 0.00128849 
0.04883764 0.01641175 0.01607998 0.00183833 0.00051361 0.00245515 0.00938663 0.00836228 0.02853422 0.00213469 0.00144566 0.01731410 0.01019950 0.00126297 0.00233059 0.00128577 
0.05126233 0.01653321 0.01597971 0.00185177 0.00051150 0.00242858 0.00922543 0.00827966 0.02796782 0.00213902 0.00144827 0.01752062 0.01021868 0.00126651 0.00236951 0.00128310 
0.05377535 0.01669255 0.01587060 0.00186759 0.00050951 0.00240070 0.00906460 0.00818259 0.02739712 0.00214109 0.00144985 0.01772647 0.01023344 0.00127097 0.00241195 0.00128047 
0.05636674 0.01688773 0.01575274 0.00188572 0.00050763 0.00237167 0.00890547 0.00807123 0.02682524 0.00214098 0.00145043 0.01793109 0.01024381 0.00127632 0.00245779 0.00127790 
0.05902609 0.01711663 0.01562623 0.00190608 0.00050587 0.00234166 0.00874940 0.00794588 0.02625525 0.00213879 0.00145007 0.01813391 0.01024987 0.00128250 0.00250691 0.00127540 
0.06174265 0.01737699 0.01549115 0.00192857 0.00050422 0.00231083 0.00859773 0.00780690 0.02569021 0.00213463 0.00144883 0.01833439 0.01025174 0.00128946 0.00255918 0.00127298 
0.06450538 0.01766646 0.01534761 0.00195308 0.00050269 0.00227937 0.00845179 0.00765481 0.02513307 0.00212863 0.00144677 0.01853203 0.01024953 0.00129717 0.00261446 0.00127065 
0.06730295 0.01798262 0.01519571 0.00197951 0.00050128 0.00224747 0.00831289 0.00749020 0.02458671 0.00212093 0.00144400 0.01872632 0.01024340 0.00130557 0.00267260 0.00126841 
0.07012387 0.01832296 0.01503557 0.00200771 0.00049998 0.00221533 0.00818231 0.00731380 0.02405392 0.00211171 0.00144059 0.01891682 0.01023356 0.00131459 0.00273344 0.00126629 
0.07295648 0.01868494 0.01486729 0.00203753 0.00049881 0.00218314 0.00806129 0.00712642 0.02353735 0.00210113 0.00143667 0.01910311 0.01022021 0.00132419 0.00279681 0.00126428 
0.07578909 0.01906595 0.01469102 0.00206883 0.00049775 0.00215111 0.00795103 0.00692899 0.02303951 0.00208939 0.00143235 0.01928479 0.01020361 0.00133430 0.00286253 0.00126240 
0.07860996 0.01946338 0.01450688 0.00210144 0.00049682 0.00211944 0.00785268 0.00672253 0.02256275 0.00207668 0.00142775 0.01946151 0.01018402 0.00134488 0.00293042 0.00126066 
0.08140739 0.01987460 0.01431502 0.00213518 0.00049601 0.00208835 0.00776731 0.00650819 0.02210925 0.00206322 0.00142301 0.01963297 0.01016173 0.00135585 0.00300030 0.00125908 
0.08416982 0.02029698 0.01411561 0.00216988 0.00049533 0.00205805 0.00769594 0.00628718 0.02168103 0.00204922 0.00141825 0.01979888 0.01013709 0.00136715 0.00307196 0.00125765 
0.08688581 0.02072790 0.01390882 0.00220534 0.00049479 0.00202874 0.00763950 0.00606082 0.02127987 0.00203491 0.00141363 0.01995904 0.01011042 0.00137874 0.00314522 0.00125639 
0.08954418 0.02116478 0.01369484 0.00224136 0.00049438 0.00200064 0.00759883 0.00583049 0.02090737 0.00202052 0.00140929 0.02011325 0.01008209 0.00139055 0.00321987 0.00125530 
0.09213402 0.02160507 0.01347387 0.00227775 0.00049410 0.00197395 0.00757471 0.00559768 0.02056492 0.00200628 0.00140538 0.02026137 0.01005251 0.00140253 0.00329572 0.00125441 
0.09464477 0.02204626 0.01324613 0.00231429 0.00049397 0.00194888 0.00756778 0.00536393 0.02025365 0.00199244 0.00140204 0.02040331 0.01002206 0.00141462 0.00337257 0.00125371 
0.09706625 0.02248594 0.01301187 0.00235079 0.00049399 0.00192561 0.00757862 0.00513084 0.01997448 0.00197922 0.00139943 0.02053902 0.00999117 0.00142676 0.00345022 0.00125321 
0.09938875 0.02292172 0.01277135 0.00238702 0.00049416 0.00190434 0.00760769 0.00490008 0.01972810 0.00196686 0.00139770 0.02066849 0.00996028 0.00143892 0.00352846 0.00125293 
0.10160305 0.02335134 0.01252484 0.00242278 0.00049448 0.00188526 0.00765532 0.00467333 0.01951495 0.00195560 0.00139699 0.02079177 0.00992983 0.00145104 0.00360710 0.00125286 
0.10370049 0.02377260 0.01227265 0.00245786 0.00049496 0.00186854 0.00772176 0.00445235 0.01933521 0.00194565 0.00139745 0.02090893 0.00990027 0.00146309 0.00368595 0.00125301 
0.10567300 0.02418341 0.01201510 0.00249205 0.00049561 0.00185433 0.00780713 0.00423890 0.01918885 0.00193724 0.00139921 0.02102011 0.00987207 0.00147501 0.00376482 0.00125339 
0.10751315 0.02458179 0.01175254 0.00252514 0.00049643 0.00184280 0.00791143 0.00403475 0.01907558 0.00193058 0.00140240 0.02112546 0.00984569 0.00148678 0.00384352 0.00125401 
0.10921421 0.02496587 0.01148533 0.00255694 0.00049742 0.00183408 0.00803454 0.00384169 0.01899487 0.00192586 0.00140714 0.02122519 0.00982159 0.00149837 0.00392186 0.00125486 
0.11077014 0.02533390 0.01121387 0.00258724 0.00049859 0.00182830 0.00817624 0.00366148 0.01894597 0.00192328 0.00141356 0.02131954 0.00980024 0.00150975 0.00399968 0.00125594 
0.11217567 0.02568426 0.01093858 0.00261587 0.00049995 0.00182557 0.00833616 0.00349589 0.01892790 0.00192301 0.00142176 0.02140879 0.00978208 0.00152090 0.00407679 0.00125727 
0.11342629 0.02601543 0.01065990 0.00264263 0.00050149 0.00182600 0.00851384 0.00334663 0.01893944 0.00192521 0.00143183 0.02149324 0.00976757 0.00153180 0.00415305 0.00125883 
0.11451830 0.02632606 0.01037829 0.00266736 0.00050322 0.00182965 0.00870869 0.00321539 0.01897919 0.00193002 0.00144386 0.02157322 0.00975714 0.00154244 0.00422828 0.00126062 
0.11544881 0.02661491 0.01009424 0.00268989 0.00050515 0.00183660 0.00892002 0.00310380 0.01904554 0.00193757 0.00145791 0.02164910 0.00975121 0.00155282 0.00430235 0.00126265 
0.11621579 0.02688088 0.00980827 0.00271008 0.00050728 0.00184689 0.00914702 0.00301343 0.01913670 0.00194795 0.00147405 0.02172125 0.00975018 0.00156292 0.00437511 0.00126491 
0.11681803 0.02712301 0.00952091 0.00272779 0.00050960 0.00186056 0.00938878 0.00294576 0.01925068 0.00196126 0.00149232 0.02179008 0.00975445 0.00157276 0.00444643 0.00126739 
0.11725516 0.02734046 0.00923271 0.00274289 0.00051214 0.00187761 0.00964429 0.00290219 0.01938536 0.00197757 0.00151275 0.02185600 0.00976437 0.00158235 0.00451617 0.00127008 
0.11752769 0.02753255 0.00894425 0.00275528 0.00051488 0.00189803 0.00991244 0.00288403 0.01953847 0.00199690 0.00153535 0.02191944 0.00978029 0.00159169 0.00458423 0.00127298 
0.11763695 0.02769870 0.00865614 0.00276485 0.00051782 0.00192180 0.01019205 0.00289247 0.01970761 0.00201929 0.00156013 0.02198083 0.00980250 0.00160080 0.00465050 0.00127607 
0.11758512 0.02783849 0.00836899 0.00277152 0.00052098 0.00194887 0.01048183 0.00292860 0.01989027 0.00204473 0.00158707 0.02204061 0.00983130 0.00160971 0.00471487 0.00127935 
0.11737519 0.02795161 0.00808343 0.00277524 0.00052434 0.00197918 0.01078043 0.00299336 0.02008386 0.00207320 0.00161614 0.02209922 0.00986693 0.00161845 0.00477725 0.00128279 
0.11701096 0.02803787 0.00780012 0.00277594 0.00052791 0.00201265 0.01108645 0.00308757 0.02028569 0.00210464 0.00164729 0.02215708 0.00990961 0.00162704 0.00483757 0.00128639 
0.11649701 0.02809722 0.00751972 0.00277360 0.00053169 0.00204916 0.01139841 0.00321190 0.02049305 0.00213899 0.00168046 0.02221462 0.00995953 0.00163551 0.00489575 0.00129012 
0.11583866 0.02812970 0.00724289 0.00276821 0.00053567 0.00208860 0.01171479 0.00336687 0.02070319 0.00217614 0.00171558 0.02227226 0.01001681 0.00164392 0.00495172 0.00129397 
0.11504195 0.02813546 0.00697034 0.00275976 0.00053985 0.00213083 0.01203402 0.00355284 0.02091333 0.00221598 0.00175254 0.02233038 0.01008158 0.00165230 0.00500543 0.00129791 
0.11411361 0.02811477 0.00670275 0.00274827 0.00054422 0.00217569 0.01235453 0.00377000 0.02112072 0.00225837 0.00179124 0.02238938 0.01015390 0.00166069 0.00505683 0.00130193 
0.11306098 0.02806798 0.00644082 0.00273378 0.00054879 0.00222301 0.01267468 0.00401839 0.02132262 0.00230315 0.00183157 0.02244960 0.01023380 0.00166914 0.00510587 0.00130599 
0.11189204 0.02799554 0.00618526 0.00271635 0.00055354 0.00227260 0.01299288 0.00429786 0.02151636 0.00235014 0.00187339 0.02251137 0.01032126 0.00167770 0.00515254 0.00131008 
0.11061527 0.02789798 0.00593676 0.00269603 0.00055847 0.00232426 0.01330749 0.00460810 0.02169931 0.00239912 0.00191655 0.02257501 0.01041625 0.00168643 0.00519681 0.00131417 
0.10923967 0.02777590 0.00569603 0.00267293 0.00056357 0.00237777 0.01361690 0.00494862 0.02186895 0.00244989 0.00196088 0.02264077 0.01051865 0.00169537 0.00523866 0.00131823 
0.10777466 0.02762997 0.00546376 0.00264713 0.00056883 0.00243289 0.01391953 0.00531873 0.02202286 0.00250221 0.00200623 0.02270890 0.01062834 0.00170458 0.00527809 0.00132223 
0.10623007 0.02746093 0.00524065 0.00261876 0.00057424 0.00248939 0.01421381 0.00571760 0.02215875 0.00255581 0.00205242 0.02277961 0.01074515 0.00171411 0.00531509 0.00132615 
0.10461601 0.02726957 0.00502736 0.00258795 0.00057978 0.00254702 0.01449822 0.00614420 0.02227447 0.00261044 0.00209925 0.02285305 0.01086886 0.00172402 0.00534968 0.00132994 
0.10294290 0.02705673 0.00482457 0.00255485 0.00058546 0.00260551 0.01477129 0.00659734 0.02236802 0.00266582 0.00214653 0.02292938 0.01099922 0.00173436 0.00538187 0.00133359 
0.10122130 0.02682329 0.00463292 0.00251962 0.00059125 0.00266459 0.01503161 0.00707565 0.02243760 0.00272164 0.00219405 0.02300866 0.01113593 0.00174517 0.00541169 0.00133706 
0.09946196 0.02657017 0.00445304 0.00248243 0.00059715 0.00272400 0.01527783 0.00757760 0.02248158 0.00277763 0.00224162 0.02309097 0.01127867 0.00175653 0.00543916 0.00134031 
0.09767565 0.02629830 0.00428555 0.00244346 0.00060312 0.00278344 0.01550869 0.00810151 0.02249855 0.00283346 0.00228902 0.02317631 0.01142708 0.00176846 0.00546433 0.00134331 
0.09587318 0.02600866 0.00413103 0.00240290 0.00060917 0.00284265 0.01572301 0.00864554 0.02248729 0.00288884 0.00233604 0.02326466 0.01158075 0.00178103 0.00548723 0.00134603 
0.09406526 0.02570222 0.00399004 0.00236097 0.00061528 0.00290134 0.01591968 0.00920772 0.02244683 0.00294345 0.00238247 0.02335595 0.01173925 0.00179427 0.00550792 0.00134844 
0.09226249 0.02537999 0.00386311 0.00231788 0.00062142 0.00295923 0.01609773 0.00978592 0.02237644 0.00299697 0.00242809 0.02345008 0.01190213 0.00180824 0.00552646 0.00135051 
0.09047529 0.02504296 0.00375074 0.00227383 0.00062758 0.00301603 0.01625625 0.01037792 0.02227561 0.00304910 0.00247269 0.02354692 0.01206889 0.00182296 0.00554291 0.00135220 
0.08871379 0.02469214 0.00365339 0.00222906 0.00063375 0.00307148 0.01639448 0.01098136 0.02214411 0.00309952 0.00251607 0.02364630 0.01223900 0.00183848 0.00555733 0.00135348 
0.08698784 0.02432854 0.00357149 0.00218381 0.00063989 0.00312530 0.01651176 0.01159380 0.02198195 0.00314795 0.00255802 0.02374800 0.01241194 0.00185482 0.00556982 0.00135432 
0.08530690 0.02395315 0.00350543 0.00213829 0.00064601 0.00317724 0.01660754 0.01221269 0.02178939 0.00319408 0.00259835 0.02385179 0.01258713 0.00187203 0.00558044 0.00135470 
0.08367998 0.02356697 0.00345555 0.00209275 0.00065207 0.00322703 0.01668140 0.01283543 0.02156697 0.00323764 0.00263687 0.02395740 0.01276399 0.00189012 0.00558929 0.00135458 
0.08211562 0.02317097 0.00342217 0.00204742 0.00065806 0.00327443 0.01673305 0.01345934 0.02131546 0.00327835 0.00267339 0.02406456 0.01294192 0.00190911 0.00559646 0.00135394 
0.08062184 0.02276614 0.00340554 0.00200254 0.00066396 0.00331922 0.01676233 0.01408170 0.02103592 0.00331597 0.00270776 0.02417294 0.01312029 0.00192902 0.00560205 0.00135276 
0.07920604 0.02235343 0.00340589 0.00195834 0.00066975 0.00336116 0.01676920 0.01469976 0.02072964 0.00335024 0.00273980 0.02428221 0.01329848 0.00194987 0.00560617 0.00135101 
0.07787501 0.02193379 0.00342337 0.00191505 0.00067542 0.00340007 0.01675373 0.01531075 0.02039815 0.00338096 0.00276938 0.02439203 0.01347585 0.00197166 0.00560892 0.00134867 
0.07663489 0.02150815 0.00345811 0.00187290 0.00068094 0.00343573 0.01671616 0.01591190 0.02004325 0.00340791 0.00279635 0.02450204 0.01365174 0.00199439 0.00561042 0.00134573 
0.07549108 0.02107743 0.00351018 0.00183212 0.00068629 0.00346799 0.01665682 0.01650046 0.01966693 0.00343092 0.00282061 0.02461187 0.01382551 0.00201808 0.00561080 0.00134217 
0.07444828 0.02064254 0.00357959 0.00179291 0.00069147 0.00349669 0.01657618 0.01707371 0.01927144 0.00344983 0.00284204 0.02472114 0.01399650 0.00204270 0.00561017 0.00133798 
0.07351042 0.02020437 0.00366632 0.00175548 0.00069645 0.00352168 0.01647481 0.01762897 0.01885920 0.00346451 0.00286055 0.02482948 0.01416406 0.00206825 0.00560867 0.00133316 
0.07268066 0.01976382 0.00377028 0.00172004 0.00070122 0.00354286 0.01635341 0.01816363 0.01843284 0.00347484 0.00287608 0.02493652 0.01432753 0.00209472 0.00560643 0.00132769 
0.07196136 0.01932175 0.00389134 0.00168676 0.00070577 0.00356012 0.01621280 0.01867515 0.01799517 0.00348073 0.00288855 0.02504189 0.01448626 0.00212209 0.00560359 0.00132157 
0.07135408 0.01887905 0.00402930 0.00165584 0.00071008 0.00357338 0.01605387 0.01916109 0.01754915 0.00348214 0.00289794 0.02514524 0.01463963 0.00215035 0.00560028 0.00131481 
0.07085956 0.01843658 0.00418393 0.00162742 0.00071414 0.00358260 0.01587765 0.01961912 0.01709791 0.00347903 0.00290422 0.02524622 0.01478701 0.00217946 0.00559666 0.00130741 
0.07047775 0.01799520 0.00435494 0.00160167 0.00071794 0.00358773 0.01568522 0.02004702 0.01664466 0.00347139 0.00290738 0.02534450 0.01492778 0.00220940 0.00559287 0.00129938 
0.07020778 0.01755578 0.00454197 0.00157874 0.00072147 0.00358876 0.01547778 0.02044272 0.01619276 0.00345924 0.00290744 0.02543978 0.01506134 0.00224014 0.00558905 0.00129073 
0.07004801 0.01711918 0.00474465 0.00155873 0.00072473 0.00358569 0.01525659 0.02080428 0.01574562 0.00344264 0.00290442 0.02553177 0.01518712 0.00227164 0.00558535 0.00128147 
0.06999601 0.01668629 0.00496252 0.00154178 0.00072770 0.00357856 0.01502297 0.02112994 0.01530674 0.00342166 0.00289836 0.02562021 0.01530457 0.00230386 0.00558193 0.00127164 
0.07004860 0.01625798 0.00519509 0.00152796 0.00073039 0.00356742 0.01477832 0.02141809 0.01487963 0.00339641 0.00288933 0.02570488 0.01541314 0.00233678 0.00557894 0.00126125 
0.07020186 0.01583513 0.00544183 0.00151738 0.00073279 0.00355233 0.01452407 0.02166732 0.01446785 0.00336700 0.00287741 0.02578557 0.01551232 0.00237034 0.00557652 0.00125033 
0.07045120 0.01541866 0.00570215 0.00151008 0.00073489 0.00353339 0.01426169 0.02187641 0.01407494 0.00333360 0.00286268 0.02586211 0.01560165 0.00240450 0.00557482 0.00123891 
0.07079135 0.01500946 0.00597542 0.00150613 0.00073671 0.00351070 0.01399270 0.02204431 0.01370441 0.00329638 0.00284526 0.02593437 0.01568065 0.00243922 0.00557400 0.00122703 
0.07121643 0.01460848 0.00626098 0.00150556 0.00073824 0.00348440 0.01371863 0.02217022 0.01335973 0.00325554 0.00282526 0.02600225 0.01574891 0.00247445 0.00557419 0.00121472 
0.07171997 0.01421664 0.00655811 0.00150838 0.00073948 0.00345462 0.01344102 0.02225350 0.01304428 0.00321131 0.00280282 0.02606569 0.01580604 0.00251014 0.00557554 0.00120204 
0.07229498 0.01383491 0.00686606 0.00151460 0.00074045 0.00342154 0.01316142 0.02229377 0.01276135 0.00316392 0.00277809 0.02612468 0.01585169 0.00254624 0.00557817 0.00118902 
0.07293400 0.01346426 0.00718406 0.00152420 0.00074115 0.00338534 0.01288135 0.02229085 0.01251414 0.00311364 0.00275121 0.02617921 0.01588554 0.00258271 0.00558223 0.00117571 
0.07362913 0.01310568 0.00751128 0.00153715 0.00074158 0.00334620 0.01260236 0.02224477 0.01230567 0.00306075 0.00272236 0.02622934 0.01590731 0.00261949 0.00558782 0.00116218 
0.07437211 0.01276017 0.00784689 0.00155341 0.00074177 0.00330434 0.01232592 0.02215579 0.01213881 0.00300553 0.00269172 0.02627517 0.01591676 0.00265653 0.00559508 0.00114847 
0.07515439 0.01242875 0.00819000 0.00157291 0.00074171 0.00325998 0.01205351 0.02202438 0.01201627 0.00294830 0.00265947 0.02631682 0.01591369 0.00269377 0.00560410 0.00113464 
0.07596715 0.01211244 0.00853973 0.00159559 0.00074143 0.00321335 0.01178653 0.02185126 0.01194053 0.00288937 0.00262579 0.02635445 0.01589794 0.00273118 0.00561498 0.00112076 
0.07680141 0.01181227 0.00889515 0.00162134 0.00074094 0.00316469 0.01152636 0.02163731 0.01191388 0.00282908 0.00259089 0.02638827 0.01586940 0.00276869 0.00562782 0.00110688 
0.07764806 0.01152930 0.00925533 0.00165007 0.00074025 0.00311425 0.01127431 0.02138367 0.01193835 0.00276775 0.00255495 0.02641849 0.01582799 0.00280625 0.00564268 0.00109307 
0.07849793 0.01126456 0.00961932 0.00168166 0.00073939 0.00306230 0.01103160 0.02109166 0.01201574 0.00270572 0.00251820 0.02644540 0.01577370 0.00284380 0.00565963 0.00107940 
0.07934188 0.01101909 0.00998616 0.00171597 0.00073836 0.00300908 0.01079943 0.02076279 0.01214756 0.00264334 0.00248082 0.02646927 0.01570653 0.00288131 0.00567873 0.00106594 
0.08017083 0.01079393 0.01035487 0.00175287 0.00073719 0.00295486 0.01057886 0.02039877 0.01233508 0.00258096 0.00244302 0.02649043 0.01562655 0.00291871 0.00570000 0.00105274 
0.08097586 0.01059012 0.01072449 0.00179220 0.00073590 0.00289992 0.01037091 0.02000149 0.01257924 0.00251890 0.00240501 0.02650923 0.01553388 0.00295595 0.00572348 0.00103988 
0.08174824 0.01040865 0.01109404 0.00183380 0.00073451 0.00284453 0.01017649 0.01957300 0.01288071 0.00245752 0.00236698 0.02652603 0.01542865 0.00299298 0.00574916 0.00102743 
0.08247951 0.01025051 0.01146254 0.00187750 0.00073303 0.00278894 0.00999641 0.01911550 0.01323983 0.00239714 0.00232913 0.02654122 0.01531107 0.00302974 0.00577705 0.00101546 
0.08316152 0.01011666 0.01182904 0.00192311 0.00073149 0.00273343 0.00983142 0.01863137 0.01365666 0.00233809 0.00229165 0.02655520 0.01518140 0.00306618 0.00580710 0.00100403 
0.08378652 0.01000803 0.01219256 0.00197045 0.00072990 0.00267826 0.00968211 0.01812308 0.01413091 0.00228069 0.00225473 0.02656838 0.01503991 0.00310226 0.00583929 0.00099321 
0.08434718 0.00992550 0.01255218 0.00201932 0.00072829 0.00262368 0.00954902 0.01759323 0.01466199 0.00222523 0.00221854 0.02658120 0.01488693 0.00313791 0.00587355 0.00098306 
0.08483668 0.00986991 0.01290697 0.00206951 0.00072668 0.00256995 0.00943255 0.01704455 0.01524899 0.00217202 0.00218327 0.02659408 0.01472286 0.00317309 0.00590980 0.00097365 
0.08524871 0.00984203 0.01325601 0.00212083 0.00072507 0.00251731 0.00933302 0.01647983 0.01589066 0.00212131 0.00214906 0.02660745 0.01454809 0.00320773 0.00594795 0.00096503 
0.08557755 0.00984259 0.01359842 0.00217306 0.00072350 0.00246599 0.00925062 0.01590195 0.01658547 0.00207338 0.00211607 0.02662175 0.01436311 0.00324180 0.00598788 0.00095727 
0.08581809 0.00987224 0.01393335 0.00222600 0.00072198 0.00241621 0.00918545 0.01531383 0.01733156 0.00202846 0.00208445 0.02663740 0.01416839 0.00327522 0.00602946 0.00095042 
0.08596587 0.00993156 0.01425996 0.00227941 0.00072053 0.00236819 0.00913751 0.01471844 0.01812676 0.00198677 0.00205432 0.02665483 0.01396448 0.00330795 0.00607254 0.00094452 
0.08601712 0.01002103 0.01457746 0.00233310 0.00071915 0.00232213 0.00910669 0.01411880 0.01896861 0.00194851 0.00202581 0.02667445 0.01375196 0.00333992 0.00611695 0.00093963 
0.08596877 0.01014106 0.01488510 0.00238684 0.00071786 0.00227821 0.00909277 0.01351792 0.01985437 0.00191386 0.00199902 0.02669665 0.01353142 0.00337110 0.00616251 0.00093578 
0.08581849 0.01029196 0.01518214 0.00244042 0.00071668 0.00223660 0.00909544 0.01291879 0.02078103 0.00188297 0.00197404 0.02672181 0.01330351 0.00340141 0.00620902 0.00093302 
0.08556468 0.01047395 0.01546791 0.00249364 0.00071562 0.00219746 0.00911430 0.01232440 0.02174531 0.00185597 0.00195096 0.02675030 0.01306891 0.00343080 0.00625626 0.00093138 
0.08520649 0.01068713 0.01574176 0.00254627 0.00071468 0.00216094 0.00914887 0.01173771 0.02274369 0.00183297 0.00192984 0.02678244 0.01282829 0.00345922 0.00630400 0.00093089 
0.08474385 0.01093148 0.01600310 0.00259813 0.00071387 0.00212715 0.00919855 0.01116160 0.02377242 0.00181406 0.00191074 0.02681854 0.01258240 0.00348660 0.00635200 0.00093156 
0.08417742 0.01120689 0.01625138 0.00264899 0.00071319 0.00209621 0.00926269 0.01059891 0.02482755 0.00179928 0.00189370 0.02685889 0.01233196 0.00351289 0.00640001 0.00093342 
0.08350863 0.01151313 0.01648609 0.00269869 0.00071266 0.00206820 0.00934055 0.01005239 0.02590493 0.00178867 0.00187874 0.02690373 0.01207775 0.00353803 0.00644775 0.00093648 
0.08273962 0.01184982 0.01670679 0.00274701 0.00071226 0.00204320 0.00943132 0.00952470 0.02700024 0.00178225 0.00186588 0.02695330 0.01182055 0.00356197 0.00649494 0.00094073 
0.08187329 0.01221648 0.01691308 0.00279380 0.00071201 0.00202128 0.00953414 0.00901836 0.02810901 0.00177998 0.00185512 0.02700776 0.01156114 0.00358464 0.00654131 0.00094619 
0.08091321 0.01261250 0.01710460 0.00283887 0.00071189 0.00200246 0.00964808 0.00853582 0.02922664 0.00178183 0.00184645 0.02706727 0.01130034 0.00360599 0.00658656 0.00095285 
0.07986364 0.01303715 0.01728105 0.00288205 0.00071190 0.00198677 0.00977215 0.00807937 0.03034845 0.00178774 0.00183983 0.02713194 0.01103896 0.00362595 0.00663039 0.00096068 
0.07872946 0.01348956 0.01744220 0.00292321 0.00071205 0.00197421 0.00990532 0.00765115 0.03146965 0.00179761 0.00183523 0.02720185 0.01077780 0.00364449 0.00667251 0.00096968 
0.07751617 0.01396875 0.01758784 0.00296218 0.00071231 0.00196478 0.01004655 0.00725317 0.03258539 0.00181134 0.00183260 0.02727702 0.01051770 0.00366153 0.00671261 0.00097982 
0.07622982 0.01447360 0.01771784 0.00299885 0.00071268 0.00195845 0.01019472 0.00688726 0.03369083 0.00182879 0.00183189 0.02735745 0.01025945 0.00367703 0.00675039 0.00099106 
0.07487701 0.01500288 0.01783210 0.00303308 0.00071314 0.00195516 0.01034872 0.00655510 0.03478107 0.00184981 0.00183301 0.02744310 0.01000388 0.00369093 0.00678556 0.00100336 
0.07346477 0.01555525 0.01793060 0.00306477 0.00071369 0.00195487 0.01050742 0.00625817 0.03585127 0.00187424 0.00183588 0.02753387 0.00975178 0.00370320 0.00681782 0.00101670 
0.07200058 0.01612924 0.01801334 0.00309381 0.00071432 0.00195750 0.01066966 0.00599779 0.03689661 0.00190187 0.00184042 0.02762966 0.00950395 0.00371377 0.00684688 0.00103101 
0.07049227 0.01672329 0.01808038 0.00312012 0.00071499 0.00196295 0.01083429 0.00577508 0.03791235 0.00193252 0.00184652 0.02773029 0.00926115 0.00372260 0.00687248 0.00104624 
0.06894799 0.01733573 0.01813184 0.00314363 0.00071571 0.00197113 0.01100017 0.00559097 0.03889384 0.00196595 0.00185407 0.02783556 0.00902414 0.00372966 0.00689435 0.00106233 
0.06737611 0.01796478 0.01816788 0.00316427 0.00071645 0.00198193 0.01116615 0.00544621 0.03983653 0.00200194 0.00186297 0.02794524 0.00879365 0.00373491 0.00691223 0.00107923 
0.06578524 0.01860861 0.01818869 0.00318199 0.00071719 0.00199521 0.01133111 0.00534134 0.04073605 0.00204023 0.00187308 0.02805904 0.00857040 0.00373831 0.00692590 0.00109685 
0.06418407 0.01926528 0.01819453 0.00319677 0.00071791 0.00201084 0.01149396 0.00527671 0.04158814 0.00208059 0.00188429 0.02817667 0.00835507 0.00373984 0.00693512 0.00111513 
0.06258138 0.01993279 0.01818567 0.00320857 0.00071860 0.00202868 0.01165361 0.00525247 0.04238878 0.00212274 0.00189646 0.02829777 0.00814831 0.00373947 0.00693970 0.00113400 
0.06098595 0.02060908 0.01816245 0.00321739 0.00071923 0.00204858 0.01180904 0.00526858 0.04313411 0.00216642 0.00190945 0.02842198 0.00795074 0.00373717 0.00693946 0.00115337 
0.05940650 0.02129205 0.01812523 0.00322323 0.00071979 0.00207036 0.01195924 0.00532482 0.04382054 0.00221136 0.00192313 0.02854890 0.00776295 0.00373295 0.00693424 0.00117315 
0.05785162 0.02197953 0.01807440 0.00322611 0.00072026 0.00209387 0.01210325 0.00542076 0.04444469 0.00225728 0.00193736 0.02867809 0.00758550 0.00372678 0.00692391 0.00119328 
0.05632974 0.02266937 0.01801038 0.00322605 0.00072062 0.00211893 0.01224019 0.00555581 0.04500347 0.00230390 0.00195201 0.02880910 0.00741889 0.00371867 0.00690837 0.00121365 
0.05484902 0.02335936 0.01793365 0.00322311 0.00072085 0.00214537 0.01236918 0.00572917 0.04549406 0.00235094 0.00196692 0.02894145 0.00726360 0.00370861 0.00688753 0.00123418 
0.05341736 0.02404730 0.01784467 0.00321733 0.00072093 0.00217300 0.01248945 0.00593990 0.04591394 0.00239814 0.00198197 0.02907465 0.00712006 0.00369663 0.00686134 0.00125479 
0.05204226 0.02473101 0.01774395 0.00320879 0.00072086 0.00220165 0.01260026 0.00618687 0.04626090 0.00244523 0.00199701 0.02920820 0.00698865 0.00368273 0.00682979 0.00127538 
0.05073086 0.02540831 0.01763202 0.00319755 0.00072060 0.00223113 0.01270094 0.00646881 0.04653305 0.00249193 0.00201192 0.02934155 0.00686972 0.00366694 0.00679287 0.00129586 
0.04948982 0.02607705 0.01750943 0.00318372 0.00072016 0.00226127 0.01279090 0.00678429 0.04672883 0.00253800 0.00202655 0.02947417 0.00676356 0.00364929 0.00675063 0.00131616 
0.04832532 0.02673514 0.01737673 0.00316739 0.00071952 0.00229188 0.01286961 0.00713175 0.04684704 0.00258319 0.00204080 0.02960552 0.00667042 0.00362982 0.00670313 0.00133617 
0.04724298 0.02738053 0.01723449 0.00314868 0.00071866 0.00232280 0.01293662 0.00750947 0.04688682 0.00262725 0.00205452 0.02973505 0.00659051 0.00360856 0.00665049 0.00135582 
0.04624788 0.02801125 0.01708329 0.00312770 0.00071759 0.00235384 0.01299154 0.00791564 0.04684767 0.00266997 0.00206761 0.02986218 0.00652397 0.00358557 0.00659282 0.00137502 
0.04534445 0.02862539 0.01692373 0.00310459 0.00071630 0.00238485 0.01303407 0.00834832 0.04672943 0.00271113 0.00207996 0.02998638 0.00647093 0.00356092 0.00653031 0.00139369 
0.04453651 0.02922114 0.01675639 0.00307949 0.00071477 0.00241567 0.01306399 0.00880547 0.04653232 0.00275053 0.00209146 0.03010709 0.00643144 0.00353465 0.00646313 0.00141175 
0.04382721 0.02979679 0.01658188 0.00305256 0.00071302 0.00244613 0.01308113 0.00928498 0.04625693 0.00278798 0.00210202 0.03022375 0.00640551 0.00350685 0.00639152 0.00142914 
0.04321904 0.03035074 0.01640078 0.00302393 0.00071104 0.00247609 0.01308542 0.00978462 0.04590419 0.00282332 0.00211155 0.03033584 0.00639310 0.00347758 0.00631574 0.00144578 
0.04271377 0.03088150 0.01621369 0.00299379 0.00070883 0.00250542 0.01307687 0.01030214 0.04547540 0.00285639 0.00211997 0.03044282 0.00639415 0.00344694 0.00623608 0.00146160 
0.04231250 0.03138771 0.01602120 0.00296230 0.00070640 0.00253398 0.01305555 0.01083521 0.04497220 0.00288706 0.00212721 0.03054418 0.00640852 0.00341501 0.00615283 0.00147656 
0.04201560 0.03186816 0.01582388 0.00292964 0.00070376 0.00256165 0.01302161 0.01138145 0.04439659 0.00291521 0.00213320 0.03063943 0.00643605 0.00338189 0.00606636 0.00149058 
0.04182278 0.03232176 0.01562232 0.00289598 0.00070092 0.00258833 0.01297528 0.01193846 0.04375090 0.00294074 0.00213790 0.03072809 0.00647652 0.00334767 0.00597702 0.00150363 
0.04173302 0.03274759 0.01541708 0.00286152 0.00069788 0.00261392 0.01291684 0.01250382 0.04303778 0.00296356 0.00214126 0.03080970 0.00652968 0.00331246 0.00588520 0.00151566 
0.04174464 0.03314487 0.01520872 0.00282644 0.00069467 0.00263832 0.01284666 0.01307509 0.04226019 0.00298362 0.00214324 0.03088383 0.00659524 0.00327637 0.00579131 0.00152662 
0.04185532 0.03351300 0.01499776 0.00279094 0.00069130 0.00266146 0.01276517 0.01364984 0.04142142 0.00300086 0.00214382 0.03095010 0.00667287 0.00323950 0.00569579 0.00153650 
0.04206206 0.03385153 0.01478475 0.00275520 0.00068779 0.00268327 0.01267286 0.01422565 0.04052501 0.00301527 0.00214299 0.03100812 0.00676219 0.00320198 0.00559908 0.00154526 
0.04236129 0.03416017 0.01457019 0.00271943 0.00068416 0.00270370 0.01257028 0.01480013 0.03957478 0.00302683 0.00214073 0.03105755 0.00686282 0.00316393 0.00550164 0.00155288 
0.04274883 0.03443882 0.01435457 0.00268382 0.00068044 0.00272270 0.01245804 0.01537092 0.03857482 0.00303556 0.00213706 0.03109810 0.00697430 0.00312545 0.00540395 0.00155935 
0.04321998 0.03468752 0.01413839 0.00264856 0.00067663 0.00274024 0.01233681 0.01593570 0.03752942 0.00304148 0.00213197 0.03112949 0.00709618 0.00308668 0.00530650 0.00156466 
0.04376952 0.03490651 0.01392210 0.00261384 0.00067278 0.00275631 0.01220728 0.01649221 0.03644312 0.00304465 0.00212551 0.03115149 0.00722797 0.00304773 0.00520978 0.00156882 
0.04439178 0.03509618 0.01370616 0.00257987 0.00066891 0.00277089 0.01207023 0.01703826 0.03532061 0.00304510 0.00211769 0.03116392 0.00736914 0.00300872 0.00511429 0.00157183 
0.04508068 0.03525710 0.01349098 0.00254682 0.00066504 0.00278398 0.01192645 0.01757171 0.03416677 0.00304294 0.00210855 0.03116664 0.00751916 0.00296979 0.00502052 0.00157369 
0.04582976 0.03538998 0.01327698 0.00251489 0.00066120 0.00279560 0.01177676 0.01809052 0.03298664 0.00303825 0.00209814 0.03115954 0.00767746 0.00293104 0.00492899 0.00157444 
0.04663226 0.03549571 0.01306456 0.00248424 0.00065743 0.00280576 0.01162204 0.01859274 0.03178536 0.00303113 0.00208651 0.03114256 0.00784346 0.00289261 0.00484018 0.00157409 
0.04748114 0.03557533 0.01285408 0.00245507 0.00065375 0.00281450 0.01146317 0.01907651 0.03056818 0.00302170 0.00207373 0.03111570 0.00801656 0.00285460 0.00475459 0.00157267 
0.04836918 0.03563001 0.01264591 0.00242754 0.00065018 0.00282187 0.01130108 0.01954007 0.02934042 0.00301010 0.00205986 0.03107900 0.00819616 0.00281712 0.00467270 0.00157021 
0.04928899 0.03566108 0.01244038 0.00240180 0.00064677 0.00282790 0.01113669 0.01998177 0.02810745 0.00299647 0.00204498 0.03103254 0.00838162 0.00278030 0.00459497 0.00156677 
0.05023310 0.03567000 0.01223782 0.00237802 0.00064353 0.00283265 0.01097095 0.02040007 0.02687467 0.00298096 0.00202916 0.03097647 0.00857232 0.00274424 0.00452186 0.00156237 
0.05119399 0.03565835 0.01203853 0.00235635 0.00064050 0.00283620 0.01080480 0.02079356 0.02564746 0.00296374 0.00201249 0.03091098 0.00876763 0.00270904 0.00445381 0.00155707 
0.05216417 0.03562781 0.01184280 0.00233692 0.00063771 0.00283861 0.01063922 0.02116094 0.02443119 0.00294497 0.00199506 0.03083630 0.00896689 0.00267479 0.00439123 0.00155092 
0.05313623 0.03558019 0.01165089 0.00231986 0.00063517 0.00283995 0.01047514 0.02150105 0.02323119 0.00292483 0.00197695 0.03075274 0.00916946 0.00264160 0.00433452 0.00154398 
0.05410287 0.03551737 0.01146308 0.00230528 0.00063291 0.00284032 0.01031352 0.02181284 0.02205269 0.00290349 0.00195827 0.03066063 0.00937470 0.00260954 0.00428405 0.00153631 
0.05505700 0.03544132 0.01127959 0.00229331 0.00063097 0.00283979 0.01015529 0.02209542 0.02090083 0.00288115 0.00193911 0.03056038 0.00958198 0.00257870 0.00424016 0.00152797 
0.05599176 0.03535409 0.01110065 0.00228403 0.00062935 0.00283846 0.01000138 0.02234799 0.01978063 0.00285800 0.00191957 0.03045244 0.00979064 0.00254914 0.00420316 0.00151902 
0.05690056 0.03525777 0.01092646 0.00227753 0.00062808 0.00283642 0.00985266 0.02256993 0.01869697 0.00283422 0.00189975 0.03033729 0.01000006 0.00252095 0.00417334 0.00150953 
0.05777716 0.03515449 0.01075723 0.00227388 0.00062717 0.00283376 0.00971003 0.02276073 0.01765455 0.00281000 0.00187976 0.03021548 0.01020962 0.00249417 0.00415093 0.00149958 
0.05861570 0.03504643 0.01059314 0.00227314 0.00062664 0.00283059 0.00957432 0.02292001 0.01665788 0.00278553 0.00185968 0.03008762 0.01041869 0.00246885 0.00413617 0.00148922 
0.05941073 0.03493576 0.01043435 0.00227536 0.00062650 0.00282698 0.00944634 0.02304754 0.01571128 0.00276100 0.00183963 0.02995434 0.01062669 0.00244504 0.00412922 0.00147852 
0.06015724 0.03482469 0.01028101 0.00228057 0.00062677 0.00282305 0.00932687 0.02314321 0.01481882 0.00273659 0.00181970 0.02981631 0.01083302 0.00242278 0.00413022 0.00146757 
0.06085072 0.03471539 0.01013326 0.00228879 0.00062744 0.00281889 0.00921663 0.02320703 0.01398434 0.00271248 0.00179998 0.02967428 0.01103711 0.00240209 0.00413928 0.00145642 
0.06148720 0.03461001 0.00999123 0.00230002 0.00062853 0.00281459 0.00911630 0.02323917 0.01321140 0.00268885 0.00178057 0.02952900 0.01123839 0.00238299 0.00415645 0.00144514 
0.06206320 0.03451067 0.00985504 0.00231425 0.00063003 0.00281024 0.00902653 0.02323989 0.01250330 0.00266587 0.00176157 0.02938128 0.01143632 0.00236550 0.00418177 0.00143381 
0.06257585 0.03441942 0.00972477 0.00233146 0.00063195 0.00280593 0.00894790 0.02320958 0.01186304 0.00264369 0.00174306 0.02923195 0.01163039 0.00234961 0.00421521 0.00142248 
0.06302282 0.03433828 0.00960051 0.00235161 0.00063427 0.00280174 0.00888094 0.02314875 0.01129332 0.00262247 0.00172512 0.02908186 0.01182007 0.00233532 0.00425672 0.00141123 
0.06340240 0.03426915 0.00948235 0.00237464 0.00063699 0.00279775 0.00882613 0.02305802 0.01079652 0.00260236 0.00170783 0.02893192 0.01200490 0.00232262 0.00430620 0.00140011 
0.06371346 0.03421386 0.00937032 0.00240048 0.00064010 0.00279403 0.00878388 0.02293812 0.01037471 0.00258349 0.00169127 0.02878303 0.01218440 0.00231148 0.00436351 0.00138919 
0.06395546 0.03417415 0.00926447 0.00242904 0.00064359 0.00279067 0.00875455 0.02278988 0.01002959 0.00256599 0.00167551 0.02863612 0.01235813 0.00230188 0.00442847 0.00137851 
0.06412846 0.03415162 0.00916484 0.00246024 0.00064745 0.00278771 0.00873843 0.02261421 0.00976258 0.00254997 0.00166060 0.02849213 0.01252567 0.00229378 0.00450088 0.00136814 
0.06423311 0.03414776 0.00907143 0.00249395 0.00065164 0.00278522 0.00873576 0.02241213 0.00957471 0.00253554 0.00164662 0.02835201 0.01268662 0.00228714 0.00458048 0.00135812 
0.06427062 0.03416393 0.00898425 0.00253004 0.00065616 0.00278325 0.00874671 0.02218473 0.00946669 0.00252279 0.00163361 0.02821672 0.01284060 0.00228191 0.00466697 0.00134850 
0.06424279 0.03420132 0.00890326 0.00256838 0.00066097 0.00278184 0.00877137 0.02193317 0.00943887 0.00251180 0.00162161 0.02808721 0.01298726 0.00227802 0.00476005 0.00133932 
0.06415193 0.03426099 0.00882845 0.00260880 0.00066606 0.00278103 0.00880979 0.02165871 0.00949127 0.00250265 0.00161068 0.02796442 0.01312628 0.00227542 0.00485934 0.00133062 
0.06400086 0.03434383 0.00875974 0.00265114 0.00067139 0.00278085 0.00886194 0.02136263 0.00962355 0.00249540 0.00160084 0.02784928 0.01325733 0.00227404 0.00496447 0.00132242 
0.06379289 0.03445057 0.00869708 0.00269522 0.00067694 0.00278133 0.00892773 0.02104629 0.00983505 0.00249008 0.00159212 0.02774272 0.01338015 0.00227380 0.00507502 0.00131477 
0.06353178 0.03458176 0.00864037 0.00274083 0.00068266 0.00278249 0.00900700 0.02071109 0.01012476 0.00248673 0.00158455 0.02764562 0.01349447 0.00227463 0.00519054 0.00130769 
0.06322172 0.03473777 0.00858951 0.00278778 0.00068854 0.00278432 0.00909954 0.02035847 0.01049135 0.00248538 0.00157813 0.02755886 0.01360007 0.00227645 0.00531057 0.00130119 
0.06286726 0.03491878 0.00854437 0.00283585 0.00069454 0.00278684 0.00920508 0.01998990 0.01093317 0.00248603 0.00157289 0.02748326 0.01369672 0.00227916 0.00543462 0.00129530 
0.06247328 0.03512482 0.00850480 0.00288482 0.00070061 0.00279005 0.00932328 0.01960688 0.01144826 0.00248870 0.00156882 0.02741964 0.01378425 0.00228268 0.00556217 0.00129003 
0.06204498 0.03535569 0.00847063 0.00293444 0.00070673 0.00279392 0.00945374 0.01921092 0.01203437 0.00249335 0.00156593 0.02736874 0.01386249 0.00228692 0.00569271 0.00128538 
0.06158777 0.03561103 0.00844169 0.00298448 0.00071285 0.00279845 0.00959602 0.01880354 0.01268895 0.00249998 0.00156421 0.02733127 0.01393130 0.00229178 0.00582569 0.00128135 
0.06110729 0.03589029 0.00841775 0.00303468 0.00071895 0.00280361 0.00974962 0.01838627 0.01340919 0.00250855 0.00156365 0.02730790 0.01399057 0.00229717 0.00596056 0.00127795 
0.06060931 0.03619274 0.00839860 0.00308480 0.00072498 0.00280937 0.00991400 0.01796063 0.01419202 0.00251902 0.00156422 0.02729922 0.01404020 0.00230300 0.00609677 0.00127517 
0.06009972 0.03651747 0.00838398 0.00313456 0.00073090 0.00281570 0.01008855 0.01752811 0.01503414 0.00253133 0.00156592 0.02730579 0.01408013 0.00230916 0.00623375 0.00127301 
0.05958445 0.03686340 0.00837362 0.00318371 0.00073669 0.00282256 0.01027264 0.01709021 0.01593201 0.00254543 0.00156871 0.02732808 0.01411032 0.00231557 0.00637093 0.00127145 
0.05906943 0.03722926 0.00836724 0.00323198 0.00074230 0.00282990 0.01046560 0.01664839 0.01688189 0.00256124 0.00157257 0.02736651 0.01413073 0.00232213 0.00650776 0.00127047 
0.05856054 0.03761363 0.00836452 0.00327910 0.00074771 0.00283768 0.01066671 0.01620407 0.01787985 0.00257869 0.00157747 0.02742145 0.01414137 0.00232875 0.00664366 0.00127006 
0.05806358 0.03801496 0.00836513 0.00332480 0.00075287 0.00284585 0.01087524 0.01575866 0.01892181 0.00259770 0.00158336 0.02749317 0.01414226 0.00233534 0.00677809 0.00127019 
0.05758420 0.03843152 0.00836874 0.00336881 0.00075776 0.00285435 0.01109040 0.01531348 0.02000351 0.00261818 0.00159023 0.02758188 0.01413344 0.00234182 0.00691052 0.00127084 
0.05712783 0.03886146 0.00837496 0.00341089 0.00076235 0.00286312 0.01131141 0.01486985 0.02112060 0.00264003 0.00159801 0.02768772 0.01411497 0.00234810 0.00704040 0.00127198 
0.05669971 0.03930281 0.00838343 0.00345075 0.00076661 0.00287211 0.01153746 0.01442901 0.02226858 0.00266315 0.00160668 0.02781076 0.01408694 0.00235411 0.00716722 0.00127358 
0.05630476 0.03975347 0.00839374 0.00348816 0.00077051 0.00288125 0.01176772 0.01399215 0.02344291 0.00268744 0.00161619 0.02795099 0.01404947 0.00235977 0.00729049 0.00127561 
0.05594761 0.04021127 0.00840548 0.00352286 0.00077403 0.00289048 0.01200134 0.01356038 0.02463894 0.00271279 0.00162650 0.02810833 0.01400266 0.00236502 0.00740975 0.00127804 
0.05563253 0.04067393 0.00841823 0.00355461 0.00077716 0.00289975 0.01223749 0.01313477 0.02585201 0.00273910 0.00163756 0.02828263 0.01394668 0.00236979 0.00752453 0.00128084 
0.05536338 0.04113911 0.00843156 0.00358320 0.00077986 0.00290898 0.01247533 0.01271630 0.02707742 0.00276624 0.00164934 0.02847367 0.01388167 0.00237403 0.00763441 0.00128395 
0.05514362 0.04160441 0.00844502 0.00360840 0.00078214 0.00291812 0.01271400 0.01230590 0.02831048 0.00279411 0.00166178 0.02868114 0.01380784 0.00237768 0.00773901 0.00128736 
0.05497624 0.04206739 0.00845817 0.00363000 0.00078396 0.00292711 0.01295269 0.01190441 0.02954650 0.00282259 0.00167484 0.02890470 0.01372538 0.00238071 0.00783795 0.00129102 
0.05486378 0.04252558 0.00847056 0.00364782 0.00078534 0.00293589 0.01319055 0.01151260 0.03078084 0.00285158 0.00168848 0.02914391 0.01363451 0.00238308 0.00793091 0.00129490 
0.05480827 0.04297651 0.00848173 0.00366168 0.00078624 0.00294440 0.01342678 0.01113116 0.03200893 0.00288095 0.00170266 0.02939828 0.01353547 0.00238476 0.00801757 0.00129895 
0.05481122 0.04341772 0.00849123 0.00367142 0.00078668 0.00295260 0.01366060 0.01076071 0.03322627 0.00291059 0.00171735 0.02966727 0.01342852 0.00238573 0.00809769 0.00130315 
0.05487364 0.04384676 0.00849861 0.00367690 0.00078666 0.00296042 0.01389124 0.01040180 0.03442844 0.00294040 0.00173250 0.02995026 0.01331392 0.00238597 0.00817102 0.00130745 
0.05499599 0.04426123 0.00850344 0.00367800 0.00078617 0.00296782 0.01411796 0.01005489 0.03561117 0.00297027 0.00174807 0.03024661 0.01319197 0.00238548 0.00823739 0.00131182 
0.05517820 0.04465879 0.00850528 0.00367461 0.00078521 0.00297476 0.01434005 0.00972036 0.03677029 0.00300010 0.00176404 0.03055560 0.01306296 0.00238426 0.00829663 0.00131623 
0.05541967 0.04503717 0.00850372 0.00366665 0.00078381 0.00298120 0.01455683 0.00939855 0.03790179 0.00302977 0.00178037 0.03087649 0.01292722 0.00238231 0.00834862 0.00132063 
0.05571925 0.04539419 0.00849836 0.00365406 0.00078196 0.00298711 0.01476768 0.00908968 0.03900183 0.00305920 0.00179704 0.03120848 0.01278506 0.00237965 0.00839330 0.00132501 
0.05607528 0.04572778 0.00848880 0.00363680 0.00077968 0.00299245 0.01497198 0.00879395 0.04006675 0.00308829 0.00181401 0.03155076 0.01263684 0.00237630 0.00843061 0.00132933 
0.05648560 0.04603598 0.00847470 0.00361485 0.00077698 0.00299720 0.01516919 0.00851145 0.04109308 0.00311696 0.00183127 0.03190246 0.01248291 0.00237230 0.00846057 0.00133355 
0.05694753 0.04631699 0.00845572 0.00358822 0.00077390 0.00300134 0.01535879 0.00824224 0.04207753 0.00314511 0.00184880 0.03226269 0.01232363 0.00236767 0.00848320 0.00133767 
0.05745793 0.04656914 0.00843156 0.00355694 0.00077043 0.00300486 0.01554032 0.00798630 0.04301708 0.00317267 0.00186657 0.03263057 0.01215938 0.00236245 0.00849858 0.00134164 
0.05801320 0.04679092 0.00840194 0.00352106 0.00076662 0.00300774 0.01571336 0.00774357 0.04390888 0.00319957 0.00188457 0.03300515 0.01199054 0.00235669 0.00850681 0.00134546 
0.05860933 0.04698101 0.00836662 0.00348065 0.00076248 0.00300998 0.01587754 0.00751392 0.04475034 0.00322574 0.00190279 0.03338552 0.01181750 0.00235045 0.00850804 0.00134909 
0.05924190 0.04713827 0.00832541 0.00343582 0.00075803 0.00301158 0.01603254 0.00729720 0.04553913 0.00325111 0.00192122 0.03377071 0.01164068 0.00234378 0.00850245 0.00135253 
0.05990613 0.04726177 0.00827814 0.00338670 0.00075332 0.00301254 0.01617810 0.00709318 0.04627312 0.00327562 0.00193985 0.03415978 0.01146047 0.00233673 0.00849024 0.00135576 
0.06059693 0.04735076 0.00822470 0.00333344 0.00074836 0.00301289 0.01631401 0.00690163 0.04695049 0.00329923 0.00195867 0.03455179 0.01127728 0.00232937 0.00847165 0.00135876 
0.06130890 0.04740474 0.00816502 0.00327619 0.00074319 0.00301262 0.01644010 0.00672226 0.04756964 0.00332189 0.00197768 0.03494577 0.01109153 0.00232177 0.00844694 0.00136152 
0.06203642 0.04742341 0.00809908 0.00321517 0.00073785 0.00301178 0.01655628 0.00655477 0.04812925 0.00334355 0.00199688 0.03534078 0.01090364 0.00231399 0.00841642 0.00136404 
0.06277364 0.04740670 0.00802691 0.00315058 0.00073235 0.00301036 0.01666247 0.00639884 0.04862824 0.00336418 0.00201626 0.03573588 0.01071404 0.00230610 0.00838040 0.00136631 
0.06351458 0.04735477 0.00794858 0.00308266 0.00072674 0.00300842 0.01675868 0.00625411 0.04906582 0.00338375 0.00203583 0.03613016 0.01052314 0.00229816 0.00833921 0.00136833 
0.06425310 0.04726804 0.00786423 0.00301168 0.00072105 0.00300598 0.01684495 0.00612023 0.04944144 0.00340224 0.00205558 0.03652268 0.01033136 0.00229026 0.00829320 0.00137010 
0.06498303 0.04714713 0.00777405 0.00293790 0.00071532 0.00300309 0.01692139 0.00599684 0.04975483 0.00341962 0.00207552 0.03691256 0.01013913 0.00228244 0.00824277 0.00137162 
0.06569817 0.04699293 0.00767828 0.00286162 0.00070957 0.00299977 0.01698813 0.00588357 0.05000594 0.00343587 0.00209566 0.03729890 0.00994686 0.00227479 0.00818828 0.00137288 
0.06639232 0.04680655 0.00757722 0.00278316 0.00070384 0.00299608 0.01704536 0.00578006 0.05019502 0.00345100 0.00211598 0.03768083 0.00975497 0.00226736 0.00813015 0.00137390 
0.06705938 0.04658933 0.00747123 0.00270284 0.00069816 0.00299206 0.01709333 0.00568597 0.05032253 0.00346498 0.00213650 0.03805751 0.00956387 0.00226022 0.00806877 0.00137468 
0.06769334 0.04634285 0.00736071 0.00262099 0.00069257 0.00298776 0.01713230 0.00560095 0.05038917 0.00347783 0.00215721 0.03842811 0.00937397 0.00225341 0.00800457 0.00137524 
0.06828837 0.04606890 0.00724615 0.00253798 0.00068710 0.00298324 0.01716261 0.00552467 0.05039591 0.00348953 0.00217812 0.03879179 0.00918565 0.00224700 0.00793795 0.00137556 
0.06883884 0.04576950 0.00712805 0.00245416 0.00068178 0.00297855 0.01718459 0.00545684 0.05034389 0.00350010 0.00219922 0.03914778 0.00899932 0.00224103 0.00786934 0.00137568 
0.06933935 0.04544688 0.00700700 0.00236990 0.00067663 0.00297374 0.01719866 0.00539718 0.05023452 0.00350955 0.00222050 0.03949527 0.00881535 0.00223553 0.00779914 0.00137560 
0.06978481 0.04510344 0.00688363 0.00228558 0.00067169 0.00296887 0.01720523 0.00534544 0.05006937 0.00351788 0.00224198 0.03983352 0.00863412 0.00223055 0.00772778 0.00137533 
0.07017044 0.04474181 0.00675861 0.00220159 0.00066697 0.00296399 0.01720476 0.00530140 0.04985023 0.00352511 0.00226363 0.04016177 0.00845598 0.00222611 0.00765565 0.00137488 
0.07049182 0.04436474 0.00663268 0.00211829 0.00066251 0.00295917 0.01719773 0.00526488 0.04957906 0.00353127 0.00228545 0.04047927 0.00828129 0.00222223 0.00758314 0.00137427 
0.07074494 0.04397520 0.00650660 0.00203609 0.00065833 0.00295445 0.01718465 0.00523573 0.04925800 0.00353636 0.00230742 0.04078532 0.00811039 0.00221893 0.00751064 0.00137351 
0.07092621 0.04357626 0.00638119 0.00195536 0.00065445 0.00294990 0.01716604 0.00521383 0.04888935 0.00354042 0.00232953 0.04107918 0.00794360 0.00221621 0.00743851 0.00137261 
0.07103247 0.04317114 0.00625730 0.00187648 0.00065089 0.00294557 0.01714245 0.00519910 0.04847554 0.00354347 0.00235177 0.04136018 0.00778125 0.00221406 0.00736710 0.00137159 
0.07106106 0.04276316 0.00613583 0.00179983 0.00064766 0.00294152 0.01711444 0.00519152 0.04801916 0.00354554 0.00237411 0.04162760 0.00762362 0.00221248 0.00729675 0.00137046 
0.07100983 0.04235574 0.00601768 0.00172577 0.00064479 0.00293780 0.01708259 0.00519109 0.04752288 0.00354664 0.00239652 0.04188078 0.00747101 0.00221145 0.00722776 0.00136923 
0.07087711 0.04195238 0.00590381 0.00165465 0.00064228 0.00293445 0.01704747 0.00519784 0.04698952 0.00354683 0.00241898 0.04211902 0.00732370 0.00221093 0.00716042 0.00136791 
0.07066178 0.04155663 0.00579518 0.00158682 0.00064014 0.00293154 0.01700967 0.00521185 0.04642194 0.00354611 0.00244145 0.04234165 0.00718193 0.00221089 0.00709501 0.00136652 
0.07036326 0.04117207 0.00569277 0.00152261 0.00063838 0.00292912 0.01696978 0.00523325 0.04582311 0.00354454 0.00246390 0.04254802 0.00704595 0.00221129 0.00703176 0.00136506 
0.06998151 0.04080231 0.00559758 0.00146233 0.00063702 0.00292721 0.01692838 0.00526218 0.04519604 0.00354214 0.00248629 0.04273746 0.00691601 0.00221207 0.00697090 0.00136354 
0.06951702 0.04045093 0.00551060 0.00140628 0.00063605 0.00292588 0.01688607 0.00529883 0.04454381 0.00353895 0.00250857 0.04290931 0.00679230 0.00221317 0.00691260 0.00136196 
0.06897086 0.04012150 0.00543285 0.00135473 0.00063548 0.00292517 0.01684342 0.00534342 0.04386950 0.00353500 0.00253071 0.04306292 0.00667503 0.00221453 0.00685704 0.00136034 
0.06834461 0.03981753 0.00536530 0.00130795 0.00063530 0.00292511 0.01680100 0.00539618 0.04317622 0.00353034 0.00255264 0.04319766 0.00656440 0.00221606 0.00680434 0.00135868 
0.06764038 0.03954245 0.00530895 0.00126615 0.00063552 0.00292574 0.01675938 0.00545738 0.04246709 0.00352499 0.00257431 0.04331288 0.00646057 0.00221769 0.00675463 0.00135698 
0.06686081 0.03929960 0.00526475 0.00122956 0.00063613 0.00292710 0.01671910 0.00552732 0.04174518 0.00351900 0.00259567 0.04340796 0.00636370 0.00221932 0.00670797 0.00135524 
0.06600904 0.03909222 0.00523366 0.00119836 0.00063713 0.00292922 0.01668070 0.00560630 0.04101358 0.00351241 0.00261666 0.04348229 0.00627395 0.00222088 0.00666443 0.00135346 
0.06508868 0.03892339 0.00521659 0.00117269 0.00063851 0.00293214 0.01664469 0.00569463 0.04027530 0.00350525 0.00263721 0.04353527 0.00619145 0.00222225 0.00662402 0.00135165 
0.06410380 0.03879603 0.00521441 0.00115269 0.00064026 0.00293588 0.01661157 0.00579264 0.03953330 0.00349757 0.00265726 0.04356632 0.00611632 0.00222333 0.00658675 0.00134979 
0.06305889 0.03871290 0.00522796 0.00113846 0.00064238 0.00294047 0.01658181 0.00590067 0.03879049 0.00348941 0.00267674 0.04357487 0.00604868 0.00222403 0.00655260 0.00134787 
0.06195886 0.03867653 0.00525803 0.00113007 0.00064484 0.00294593 0.01655588 0.00601903 0.03804967 0.00348081 0.00269558 0.04356040 0.00598863 0.00222424 0.00652151 0.00134591 
0.06080897 0.03868926 0.00530536 0.00112757 0.00064763 0.00295230 0.01653420 0.00614805 0.03731356 0.00347182 0.00271370 0.04352239 0.00593625 0.00222385 0.00649340 0.00134388 
0.05961482 0.03875317 0.00537062 0.00113095 0.00065075 0.00295959 0.01651718 0.00628804 0.03658477 0.00346247 0.00273104 0.04346038 0.00589165 0.00222276 0.00646818 0.00134177 
0.05838230 0.03887010 0.00545443 0.00114021 0.00065418 0.00296782 0.01650520 0.00643930 0.03586578 0.00345281 0.00274752 0.04337393 0.00585488 0.00222086 0.00644574 0.00133958 
0.05711756 0.03904161 0.00555733 0.00115529 0.00065789 0.00297703 0.01649863 0.00660208 0.03515895 0.00344288 0.00276307 0.04326265 0.00582601 0.00221804 0.00642594 0.00133730 
0.05582697 0.03926897 0.00567981 0.00117611 0.00066188 0.00298721 0.01649780 0.00677664 0.03446650 0.00343274 0.00277761 0.04312621 0.00580512 0.00221420 0.00640862 0.00133490 
0.05451707 0.03955317 0.00582225 0.00120256 0.00066613 0.00299840 0.01650300 0.00696318 0.03379049 0.00342242 0.00279107 0.04296434 0.00579224 0.00220926 0.00639361 0.00133238 
0.05319452 0.03989488 0.00598497 0.00123450 0.00067061 0.00301062 0.01651452 0.00716188 0.03313284 0.00341198 0.00280337 0.04277680 0.00578743 0.00220311 0.00638073 0.00132971 
0.05186609 0.04029444 0.00616819 0.00127176 0.00067531 0.00302387 0.01653260 0.00737287 0.03249528 0.00340145 0.00281444 0.04256346 0.00579074 0.00219567 0.00636979 0.00132690 
0.05053858 0.04075187 0.00637206 0.00131415 0.00068020 0.00303818 0.01655748 0.00759623 0.03187938 0.00339089 0.00282422 0.04232423 0.00580219 0.00218686 0.00636058 0.00132391 
0.04921877 0.04126685 0.00659664 0.00136144 0.00068528 0.00305357 0.01658936 0.00783200 0.03128654 0.00338035 0.00283263 0.04205912 0.00582183 0.00217661 0.00635289 0.00132073 
0.04791342 0.04183873 0.00684186 0.00141338 0.00069052 0.00307006 0.01662839 0.00808017 0.03071796 0.00336986 0.00283962 0.04176823 0.00584968 0.00216486 0.00634649 0.00131735 
0.04662918 0.04246651 0.00710759 0.00146971 0.00069590 0.00308765 0.01667474 0.00834064 0.03017466 0.00335949 0.00284511 0.04145173 0.00588577 0.00215155 0.00634118 0.00131375 
0.04537259 0.04314883 0.00739361 0.00153011 0.00070140 0.00310638 0.01672852 0.00861328 0.02965746 0.00334927 0.00284905 0.04110990 0.00593014 0.00213664 0.00633672 0.00130992 
0.04414999 0.04388401 0.00769956 0.00159429 0.00070700 0.00312625 0.01678983 0.00889788 0.02916701 0.00333926 0.00285138 0.04074313 0.00598279 0.00212010 0.00633290 0.00130583 
0.04296752 0.04467002 0.00802503 0.00166189 0.00071269 0.00314729 0.01685874 0.00919418 0.02870375 0.00332950 0.00285207 0.04035190 0.00604376 0.00210191 0.00632949 0.00130147 
0.04183104 0.04550450 0.00836948 0.00173256 0.00071845 0.00316951 0.01693530 0.00950183 0.02826791 0.00332004 0.00285105 0.03993680 0.00611305 0.00208206 0.00632629 0.00129684 
0.04074615 0.04638475 0.00873228 0.00180594 0.00072426 0.00319293 0.01701954 0.00982043 0.02785958 0.00331093 0.00284829 0.03949854 0.00619068 0.00206055 0.00632309 0.00129191 
0.03971809 0.04730777 0.00911273 0.00188165 0.00073010 0.00321758 0.01711145 0.01014949 0.02747861 0.00330221 0.00284377 0.03903794 0.00627667 0.00203740 0.00631968 0.00128668 
0.03875177 0.04827023 0.00950999 0.00195928 0.00073596 0.00324347 0.01721104 0.01048846 0.02712469 0.00329392 0.00283745 0.03855594 0.00637102 0.00201265 0.00631589 0.00128114 
0.03785169 0.04926853 0.00992317 0.00203844 0.00074182 0.00327061 0.01731826 0.01083672 0.02679734 0.00328611 0.00282931 0.03805360 0.00647373 0.00198633 0.00631155 0.00127527 
0.03702193 0.05029879 0.01035129 0.00211872 0.00074767 0.00329903 0.01743305 0.01119358 0.02649589 0.00327882 0.00281933 0.03753209 0.00658481 0.00195851 0.00630648 0.00126907 
0.03626613 0.05135686 0.01079325 0.00219971 0.00075349 0.00332873 0.01755533 0.01155827 0.02621951 0.00327209 0.00280752 0.03699269 0.00670426 0.00192926 0.00630054 0.00126255 
0.03558748 0.05243835 0.01124790 0.00228099 0.00075927 0.00335974 0.01768503 0.01192997 0.02596722 0.00326595 0.00279388 0.03643682 0.00683205 0.00189865 0.00629361 0.00125569 
0.03498867 0.05353867 0.01171401 0.00236216 0.00076501 0.00339207 0.01782203 0.01230777 0.02573788 0.00326045 0.00277840 0.03586597 0.00696817 0.00186680 0.00628556 0.00124850 
0.03447191 0.05465300 0.01219028 0.00244280 0.00077068 0.00342573 0.01796619 0.01269072 0.02553023 0.00325560 0.00276111 0.03528179 0.00711261 0.00183380 0.00627632 0.00124098 
0.03403888 0.05577640 0.01267534 0.00252251 0.00077629 0.00346072 0.01811738 0.01307782 0.02534289 0.00325145 0.00274204 0.03468598 0.00726531 0.00179979 0.00626580 0.00123313 
0.03369076 0.05690374 0.01316776 0.00260089 0.00078181 0.00349706 0.01827545 0.01346798 0.02517434 0.00324801 0.00272121 0.03408037 0.00742624 0.00176490 0.00625395 0.00122497 
0.03342822 0.05802979 0.01366606 0.00267758 0.00078725 0.00353474 0.01844021 0.01386009 0.02502300 0.00324531 0.00269866 0.03346688 0.00759535 0.00172927 0.00624073 0.00121650 
0.03325139 0.05914924 0.01416870 0.00275219 0.00079259 0.00357377 0.01861148 0.01425299 0.02488717 0.00324337 0.00267446 0.03284750 0.00777255 0.00169307 0.00622613 0.00120774 
0.03315988 0.06025672 0.01467413 0.00282438 0.00079784 0.00361414 0.01878905 0.01464546 0.02476512 0.00324219 0.00264865 0.03222430 0.00795777 0.00165647 0.00621015 0.00119870 
0.03315282 0.06134682 0.01518073 0.00289380 0.00080297 0.00365584 0.01897272 0.01503628 0.02465504 0.00324180 0.00262129 0.03159941 0.00815091 0.00161963 0.00619281 0.00118941 
0.03322879 0.06241415 0.01568687 0.00296015 0.00080800 0.00369886 0.01916225 0.01542417 0.02455509 0.00324219 0.00259247 0.03097503 0.00835184 0.00158274 0.00617417 0.00117988 
0.03338593 0.06345335 0.01619092 0.00302313 0.00081291 0.00374318 0.01935740 0.01580784 0.02446343 0.00324338 0.00256227 0.03035339 0.00856044 0.00154600 0.00615427 0.00117014 
0.03362187 0.06445913 0.01669121 0.00308246 0.00081771 0.00378876 0.01955791 0.01618599 0.02437819 0.00324534 0.00253077 0.02973675 0.00877653 0.00150959 0.00613320 0.00116021 
0.03393380 0.06542631 0.01718607 0.00313792 0.00082239 0.00383559 0.01976351 0.01655731 0.02429755 0.00324809 0.00249808 0.02912741 0.00899995 0.00147373 0.00611105 0.00115013 
0.03431848 0.06634983 0.01767386 0.00318928 0.00082695 0.00388362 0.01997393 0.01692049 0.02421970 0.00325160 0.00246430 0.02852764 0.00923049 0.00143862 0.00608795 0.00113993 
0.03477227 0.06722481 0.01815292 0.00323635 0.00083138 0.00393281 0.02018886 0.01727421 0.02414288 0.00325585 0.00242954 0.02793975 0.00946791 0.00140447 0.00606401 0.00112963 
0.03529113 0.06804657 0.01862163 0.00327898 0.00083569 0.00398310 0.02040802 0.01761719 0.02406542 0.00326083 0.00239392 0.02736601 0.00971195 0.00137147 0.00603938 0.00111927 
0.03587069 0.06881064 0.01907840 0.00331703 0.00083988 0.00403443 0.02063106 0.01794815 0.02398572 0.00326651 0.00235758 0.02680864 0.00996234 0.00133985 0.00601421 0.00110890 
0.03650625 0.06951285 0.01952165 0.00335041 0.00084394 0.00408675 0.02085768 0.01826585 0.02390229 0.00327285 0.00232063 0.02626985 0.01021876 0.00130980 0.00598866 0.00109855 
0.03719282 0.07014927 0.01994987 0.00337906 0.00084787 0.00413997 0.02108752 0.01856907 0.02381376 0.00327982 0.00228322 0.02575175 0.01048085 0.00128153 0.00596291 0.00108826 
0.03792518 0.07071634 0.02036158 0.00340294 0.00085169 0.00419401 0.02132024 0.01885666 0.02371889 0.00328739 0.00224550 0.02525641 0.01074824 0.00125523 0.00593713 0.00107807 
0.03869788 0.07121082 0.02075538 0.00342206 0.00085538 0.00424878 0.02155547 0.01912748 0.02361661 0.00329549 0.00220761 0.02478579 0.01102052 0.00123109 0.00591151 0.00106802 
0.03950531 0.07162982 0.02112990 0.00343645 0.00085894 0.00430418 0.02179284 0.01938049 0.02350598 0.00330410 0.00216971 0.02434177 0.01129724 0.00120931 0.00588624 0.00105817 
0.04034170 0.07197088 0.02148387 0.00344618 0.00086238 0.00436012 0.02203196 0.01961468 0.02338628 0.00331316 0.00213195 0.02392609 0.01157791 0.00119004 0.00586150 0.00104854 
0.04120122 0.07223194 0.02181607 0.00345133 0.00086569 0.00441646 0.02227246 0.01982913 0.02325694 0.00332260 0.00209449 0.02354039 0.01186203 0.00117347 0.00583749 0.00103919 
0.04207795 0.07241136 0.02212538 0.00345206 0.00086888 0.00447311 0.02251391 0.02002297 0.02311761 0.00333238 0.00205749 0.02318617 0.01214904 0.00115973 0.00581440 0.00103015 
0.04296597 0.07250796 0.02241076 0.00344851 0.00087195 0.00452992 0.02275593 0.02019544 0.02296816 0.00334244 0.00202113 0.02286476 0.01243837 0.00114898 0.00579239 0.00102148 
0.04385937 0.07252103 0.02267126 0.00344087 0.00087489 0.00458677 0.02299808 0.02034584 0.02280864 0.00335272 0.00198556 0.02257736 0.01272937 0.00114134 0.00577167 0.00101321 
0.04475231 0.07245032 0.02290602 0.00342936 0.00087770 0.00464352 0.02323996 0.02047357 0.02263935 0.00336315 0.00195096 0.02232498 0.01302142 0.00113693 0.00575238 0.00100538 
0.04563906 0.07229606 0.02311430 0.00341423 0.00088038 0.00470002 0.02348113 0.02057813 0.02246081 0.00337368 0.00191749 0.02210849 0.01331381 0.00113583 0.00573469 0.00099804 
0.04651400 0.07205900 0.02329543 0.00339574 0.00088293 0.00475613 0.02372116 0.02065911 0.02227378 0.00338423 0.00188532 0.02192854 0.01360584 0.00113815 0.00571876 0.00099122 
0.04737170 0.07174034 0.02344887 0.00337420 0.00088535 0.00481169 0.02395962 0.02071619 0.02207922 0.00339475 0.00185461 0.02178561 0.01389675 0.00114393 0.00570471 0.00098496 
0.04820694 0.07134179 0.02357418 0.00334991 0.00088763 0.00486656 0.02419607 0.02074916 0.02187835 0.00340517 0.00182553 0.02168000 0.01418577 0.00115323 0.00569267 0.00097929 
0.04901472 0.07086556 0.02367103 0.00332320 0.00088977 0.00492056 0.02443007 0.02075792 0.02167259 0.00341544 0.00179824 0.02161181 0.01447208 0.00116607 0.00568276 0.00097425 
0.04979035 0.07031431 0.02373921 0.00329444 0.00089177 0.00497355 0.02466118 0.02074247 0.02146359 0.00342550 0.00177289 0.02158093 0.01475488 0.00118248 0.00567505 0.00096986 
0.05052939 0.06969121 0.02377860 0.00326397 0.00089361 0.00502535 0.02488898 0.02070290 0.02125322 0.00343529 0.00174964 0.02158708 0.01503330 0.00120243 0.00566962 0.00096615 
0.05122776 0.06899986 0.02378922 0.00323219 0.00089531 0.00507583 0.02511303 0.02063943 0.02104355 0.00344475 0.00172864 0.02162976 0.01530649 0.00122591 0.00566654 0.00096314 
0.05188173 0.06824432 0.02377119 0.00319947 0.00089685 0.00512480 0.02533289 0.02055235 0.02083682 0.00345385 0.00171003 0.02170829 0.01557355 0.00125287 0.00566584 0.00096087 
0.05248791 0.06742907 0.02372472 0.00316621 0.00089822 0.00517213 0.02554816 0.02044209 0.02063549 0.00346253 0.00169394 0.02182180 0.01583359 0.00128324 0.00566754 0.00095933 
0.05304334 0.06655901 0.02365017 0.00313282 0.00089942 0.00521765 0.02575841 0.02030914 0.02044215 0.00347076 0.00168052 0.02196924 0.01608570 0.00131694 0.00567163 0.00095855 
0.05354543 0.06563942 0.02354799 0.00309968 0.00090044 0.00526122 0.02596324 0.02015411 0.02025955 0.00347850 0.00166987 0.02214939 0.01632899 0.00135388 0.00567809 0.00095853 
0.05399204 0.06467592 0.02341872 0.00306720 0.00090129 0.00530269 0.02616225 0.01997770 0.02009058 0.00348572 0.00166213 0.02236084 0.01656254 0.00139392 0.00568689 0.00095929 
0.05438144 0.06367449 0.02326303 0.00303578 0.00090194 0.00534192 0.02635506 0.01978069 0.01993823 0.00349239 0.00165738 0.02260204 0.01678545 0.00143695 0.00569797 0.00096082 
0.05471233 0.06264138 0.02308169 0.00300580 0.00090239 0.00537879 0.02654129 0.01956394 0.01980558 0.00349850 0.00165573 0.02287127 0.01699681 0.00148279 0.00571124 0.00096313 
0.05498387 0.06158312 0.02287554 0.00297764 0.00090264 0.00541318 0.02672060 0.01932840 0.01969579 0.00350404 0.00165726 0.02316670 0.01719575 0.00153129 0.00572660 0.00096620 
0.05519563 0.06050650 0.02264554 0.00295168 0.00090268 0.00544496 0.02689262 0.01907508 0.01961205 0.00350900 0.00166206 0.02348635 0.01738141 0.00158226 0.00574395 0.00097004 
0.05534765 0.05941845 0.02239273 0.00292826 0.00090250 0.00547404 0.02705704 0.01880508 0.01955756 0.00351338 0.00167018 0.02382814 0.01755293 0.00163551 0.00576314 0.00097462 
0.05544036 0.05832612 0.02211822 0.00290772 0.00090209 0.00550031 0.02721355 0.01851952 0.01953555 0.00351719 0.00168169 0.02418989 0.01770952 0.00169082 0.00578403 0.00097993 
0.05547466 0.05723674 0.02182324 0.00289039 0.00090145 0.00552371 0.02736186 0.01821961 0.01954917 0.00352044 0.00169662 0.02456933 0.01785037 0.00174797 0.00580646 0.00098596 
0.05545182 0.05615764 0.02150904 0.00287656 0.00090057 0.00554415 0.02750168 0.01790658 0.01960155 0.00352316 0.00171500 0.02496413 0.01797476 0.00180673 0.00583024 0.00099267 
0.05537353 0.05509620 0.02117698 0.00286651 0.00089945 0.00556159 0.02763278 0.01758172 0.01969571 0.00352537 0.00173686 0.02537190 0.01808198 0.00186686 0.00585519 0.00100004 
0.05524185 0.05405978 0.02082846 0.00286048 0.00089808 0.00557596 0.02775491 0.01724632 0.01983457 0.00352711 0.00176220 0.02579022 0.01817137 0.00192811 0.00588110 0.00100805 
0.05505921 0.05305574 0.02046495 0.00285871 0.00089645 0.00558725 0.02786786 0.01690172 0.02002089 0.00352841 0.00179102 0.02621665 0.01824235 0.00199023 0.00590777 0.00101666 
0.05482838 0.05209132 0.02008795 0.00286138 0.00089456 0.00559544 0.02797144 0.01654927 0.02025730 0.00352933 0.00182328 0.02664876 0.01829435 0.00205296 0.00593498 0.00102583 
0.05455242 0.05117367 0.01969902 0.00286866 0.00089241 0.00560051 0.02806548 0.01619031 0.02054619 0.00352991 0.00185898 0.02708411 0.01832691 0.00211604 0.00596251 0.00103552 
0.05423471 0.05030979 0.01929976 0.00288070 0.00089000 0.00560248 0.02814984 0.01582619 0.02088976 0.00353021 0.00189804 0.02752031 0.01833960 0.00217920 0.00599012 0.00104570 
0.05387888 0.04950645 0.01889177 0.00289759 0.00088732 0.00560137 0.02822437 0.01545826 0.02128997 0.00353030 0.00194043 0.02795502 0.01833209 0.00224217 0.00601760 0.00105633 
0.05348877 0.04877023 0.01847671 0.00291941 0.00088437 0.00559723 0.02828899 0.01508783 0.02174850 0.00353023 0.00198608 0.02838593 0.01830409 0.00230471 0.00604472 0.00106735 
0.05306846 0.04810741 0.01805624 0.00294619 0.00088116 0.00559009 0.02834361 0.01471622 0.02226674 0.00353008 0.00203488 0.02881085 0.01825542 0.00236655 0.00607125 0.00107872 
0.05262217 0.04752398 0.01763200 0.00297795 0.00087768 0.00558004 0.02838816 0.01434468 0.02284580 0.00352992 0.00208677 0.02922766 0.01818597 0.00242743 0.00609698 0.00109040 
0.05215427 0.04702561 0.01720569 0.00301466 0.00087395 0.00556714 0.02842260 0.01397444 0.02348643 0.00352982 0.00214161 0.02963436 0.01809570 0.00248711 0.00612168 0.00110234 
0.05166920 0.04661758 0.01677894 0.00305627 0.00086996 0.00555149 0.02844692 0.01360670 0.02418905 0.00352986 0.00219931 0.03002906 0.01798466 0.00254535 0.00614516 0.00111448 
0.05117152 0.04630480 0.01635342 0.00310267 0.00086572 0.00553320 0.02846112 0.01324258 0.02495373 0.00353012 0.00225973 0.03040999 0.01785302 0.00260192 0.00616722 0.00112679 
0.05066577 0.04609174 0.01593075 0.00315375 0.00086124 0.00551238 0.02846521 0.01288316 0.02578016 0.00353067 0.00232273 0.03077554 0.01770100 0.00265659 0.00618767 0.00113920 
0.05015652 0.04598244 0.01551253 0.00320936 0.00085652 0.00548916 0.02845924 0.01252946 0.02666766 0.00353160 0.00238816 0.03112426 0.01752892 0.00270917 0.00620635 0.00115167 
0.04964830 0.04598048 0.01510033 0.00326931 0.00085158 0.00546368 0.02844327 0.01218242 0.02761516 0.00353297 0.00245586 0.03145483 0.01733720 0.00275946 0.00622311 0.00116415 
0.04914555 0.04608895 0.01469567 0.00333339 0.00084644 0.00543610 0.02841739 0.01184293 0.02862120 0.00353487 0.00252567 0.03176612 0.01712636 0.00280727 0.00623780 0.00117660 
0.04865263 0.04631046 0.01430005 0.00340136 0.00084109 0.00540656 0.02838168 0.01151179 0.02968392 0.00353736 0.00259741 0.03205717 0.01689700 0.00285244 0.00625031 0.00118896 
0.04817376 0.04664708 0.01391488 0.00347296 0.00083557 0.00537523 0.02833626 0.01118973 0.03080108 0.00354052 0.00267090 0.03232719 0.01664980 0.00289482 0.00626054 0.00120119 
0.04771298 0.04710041 0.01354155 0.00354790 0.00082988 0.00534230 0.02828128 0.01087738 0.03197006 0.00354440 0.00274594 0.03257556 0.01638555 0.00293428 0.00626841 0.00121324 
0.04727415 0.04767149 0.01318135 0.00362587 0.00082404 0.00530793 0.02821688 0.01057533 0.03318784 0.00354908 0.00282236 0.03280187 0.01610512 0.00297070 0.00627387 0.00122508 
0.04686091 0.04836085 0.01283554 0.00370653 0.00081808 0.00527232 0.02814323 0.01028405 0.03445104 0.00355460 0.00289994 0.03300586 0.01580946 0.00300400 0.00627690 0.00123666 
0.04647662 0.04916848 0.01250526 0.00378954 0.00081201 0.00523565 0.02806052 0.01000394 0.03575592 0.00356102 0.00297848 0.03318746 0.01549962 0.00303408 0.00627747 0.00124794 
0.04612442 0.05009387 0.01219162 0.00387453 0.00080585 0.00519811 0.02796896 0.00973533 0.03709839 0.00356839 0.00305778 0.03334678 0.01517670 0.00306090 0.00627561 0.00125889 
0.04580711 0.05113597 0.01189561 0.00396113 0.00079964 0.00515991 0.02786876 0.00947845 0.03847404 0.00357673 0.00313764 0.03348410 0.01484192 0.00308441 0.00627135 0.00126947 
0.04552719 0.05229324 0.01161816 0.00404895 0.00079339 0.00512123 0.02776016 0.00923346 0.03987816 0.00358607 0.00321784 0.03359985 0.01449653 0.00310460 0.00626477 0.00127965 
0.04528683 0.05356363 0.01136009 0.00413759 0.00078713 0.00508227 0.02764341 0.00900043 0.04130574 0.00359646 0.00329818 0.03369464 0.01414186 0.00312146 0.00625596 0.00128941 
0.04508787 0.05494461 0.01112214 0.00422666 0.00078089 0.00504322 0.02751879 0.00877937 0.04275153 0.00360789 0.00337846 0.03376921 0.01377932 0.00313501 0.00624503 0.00129871 
0.04493177 0.05643318 0.01090496 0.00431574 0.00077469 0.00500427 0.02738658 0.00857021 0.04421005 0.00362037 0.00345846 0.03382446 0.01341035 0.00314531 0.00623212 0.00130754 
0.04481962 0.05802590 0.01070907 0.00440443 0.00076857 0.00496562 0.02724708 0.00837281 0.04567559 0.00363391 0.00353800 0.03386140 0.01303646 0.00315239 0.00621741 0.00131588 
0.04475217 0.05971890 0.01053494 0.00449234 0.00076254 0.00492744 0.02710063 0.00818698 0.04714231 0.00364849 0.00361686 0.03388116 0.01265920 0.00315633 0.00620107 0.00132371 
0.04472976 0.06150791 0.01038291 0.00457905 0.00075665 0.00488991 0.02694755 0.00801244 0.04860421 0.00366409 0.00369487 0.03388499 0.01228014 0.00315724 0.00618331 0.00133101 
0.04475236 0.06338827 0.01025321 0.00466419 0.00075092 0.00485321 0.02678821 0.00784890 0.05005518 0.00368070 0.00377183 0.03387423 0.01190092 0.00315521 0.00616438 0.00133778 
0.04481957 0.06535498 0.01014599 0.00474738 0.00074538 0.00481749 0.02662298 0.00769597 0.05148907 0.00369827 0.00384757 0.03385028 0.01152316 0.00315038 0.00614452 0.00134402 
0.04493063 0.06740272 0.01006131 0.00482823 0.00074005 0.00478291 0.02645225 0.00755325 0.05289968 0.00371676 0.00392192 0.03381462 0.01114854 0.00314288 0.00612399 0.00134971 
0.04508439 0.06952586 0.00999909 0.00490641 0.00073498 0.00474961 0.02627645 0.00742030 0.05428081 0.00373613 0.00399471 0.03376880 0.01077870 0.00313287 0.00610310 0.00135486 
0.04527937 0.07171851 0.00995919 0.00498158 0.00073018 0.00471775 0.02609600 0.00729665 0.05562632 0.00375630 0.00406579 0.03371436 0.01041533 0.00312051 0.00608214 0.00135947 
0.04551372 0.07397455 0.00994136 0.00505341 0.00072569 0.00468743 0.02591136 0.00718179 0.05693014 0.00377722 0.00413502 0.03365290 0.01006008 0.00310599 0.00606142 0.00136354 
0.04578529 0.07628767 0.00994524 0.00512161 0.00072153 0.00465878 0.02572300 0.00707520 0.05818633 0.00379881 0.00420226 0.03358601 0.00971459 0.00308948 0.00604127 0.00136709 
0.04609162 0.07865136 0.00997041 0.00518591 0.00071774 0.00463189 0.02553141 0.00697637 0.05938908 0.00382098 0.00426740 0.03351528 0.00938051 0.00307119 0.00602204 0.00137012 
0.04642994 0.08105900 0.01001634 0.00524606 0.00071432 0.00460688 0.02533712 0.00688475 0.06053281 0.00384366 0.00433031 0.03344229 0.00905941 0.00305132 0.00600405 0.00137264 
0.04679722 0.08350385 0.01008243 0.00530183 0.00071132 0.00458380 0.02514065 0.00679981 0.06161212 0.00386675 0.00439091 0.03336855 0.00875286 0.00303008 0.00598766 0.00137469 
0.04719018 0.08597910 0.01016798 0.00535303 0.00070875 0.00456274 0.02494256 0.00672105 0.06262192 0.00389014 0.00444910 0.03329555 0.00846236 0.00300768 0.00597322 0.00137626 
0.04760533 0.08847788 0.01027223 0.00539949 0.00070664 0.00454374 0.02474343 0.00664794 0.06355739 0.00391374 0.00450481 0.03322473 0.00818938 0.00298434 0.00596107 0.00137739 
0.04803898 0.09099333 0.01039434 0.00544107 0.00070499 0.00452686 0.02454386 0.00658001 0.06441402 0.00393744 0.00455798 0.03315742 0.00793531 0.00296028 0.00595157 0.00137808 
0.04848726 0.09351858 0.01053343 0.00547767 0.00070384 0.00451211 0.02434448 0.00651680 0.06518768 0.00396112 0.00460856 0.03309490 0.00770148 0.00293571 0.00594503 0.00137838 
0.04894616 0.09604683 0.01068852 0.00550919 0.00070319 0.00449953 0.02414591 0.00645789 0.06587461 0.00398468 0.00465651 0.03303836 0.00748915 0.00291085 0.00594181 0.00137830 
0.04941159 0.09857132 0.01085861 0.00553560 0.00070307 0.00448911 0.02394882 0.00640289 0.06647147 0.00400799 0.00470181 0.03298887 0.00729947 0.00288592 0.00594221 0.00137787 
0.04987932 0.10108541 0.01104263 0.00555688 0.00070347 0.00448085 0.02375389 0.00635146 0.06697533 0.00403094 0.00474445 0.03294739 0.00713355 0.00286113 0.00594654 0.00137711 
0.05034513 0.10358256 0.01123949 0.00557304 0.00070441 0.00447473 0.02356180 0.00630330 0.06738372 0.00405341 0.00478442 0.03291479 0.00699236 0.00283666 0.00595510 0.00137606 
0.05080474 0.10605638 0.01144804 0.00558412 0.00070590 0.00447072 0.02337329 0.00625817 0.06769464 0.00407527 0.00482174 0.03289180 0.00687680 0.00281273 0.00596814 0.00137475 
0.05125388 0.10850064 0.01166712 0.00559020 0.00070794 0.00446877 0.02318907 0.00621589 0.06790656 0.00409642 0.00485643 0.03287903 0.00678765 0.00278951 0.00598592 0.00137320 
0.05168833 0.11090929 0.01189556 0.00559137 0.00071052 0.00446885 0.02300989 0.00617631 0.06801844 0.00411673 0.00488854 0.03287697 0.00672559 0.00276717 0.00600865 0.00137144 
0.05210394 0.11327647 0.01213215 0.00558778 0.00071365 0.00447088 0.02283650 0.00613937 0.06802975 0.00413609 0.00491810 0.03288598 0.00669118 0.00274589 0.00603655 0.00136950 
0.05249663 0.11559654 0.01237568 0.00557957 0.00071733 0.00447480 0.02266968 0.00610506 0.06794047 0.00415438 0.00494518 0.03290628 0.00668485 0.00272581 0.00606977 0.00136742 
0.05286246 0.11786408 0.01262495 0.00556694 0.00072154 0.00448051 0.02251019 0.00607343 0.06775106 0.00417150 0.00496983 0.03293799 0.00670695 0.00270708 0.00610846 0.00136522 
0.05319765 0.12007391 0.01287876 0.00555008 0.00072628 0.00448795 0.02235882 0.00604460 0.06746250 0.00418735 0.00499214 0.03298107 0.00675765 0.00268981 0.00615272 0.00136294 
0.05349856 0.12222107 0.01313593 0.00552923 0.00073153 0.00449700 0.02221637 0.00601874 0.06707629 0.00420181 0.00501219 0.03303538 0.00683705 0.00267411 0.00620262 0.00136059 
0.05376177 0.12430090 0.01339529 0.00550463 0.00073728 0.00450757 0.02208362 0.00599609 0.06659440 0.00421480 0.00503008 0.03310066 0.00694509 0.00266007 0.00625821 0.00135821 
0.05398408 0.12630894 0.01365571 0.00547656 0.00074350 0.00451955 0.02196136 0.00597696 0.06601928 0.00422622 0.00504589 0.03317654 0.00708158 0.00264778 0.00631947 0.00135582 
0.05416252 0.12824104 0.01391608 0.00544531 0.00075019 0.00453283 0.02185039 0.00596169 0.06535386 0.00423600 0.00505975 0.03326254 0.00724624 0.00263728 0.00638637 0.00135345 
0.05429436 0.13009326 0.01417533 0.00541117 0.00075732 0.00454727 0.02175148 0.00595072 0.06460152 0.00424405 0.00507176 0.03335807 0.00743861 0.00262863 0.00645884 0.00135112 
0.05437717 0.13186198 0.01443244 0.00537446 0.00076485 0.00456278 0.02166541 0.00594449 0.06376609 0.00425031 0.00508203 0.03346248 0.00765815 0.00262183 0.00653675 0.00134886 
0.05440879 0.13354379 0.01468645 0.00533550 0.00077278 0.00457921 0.02159294 0.00594354 0.06285178 0.00425472 0.00509069 0.03357500 0.00790417 0.00261691 0.00661996 0.00134668 
0.05438736 0.13513558 0.01493642 0.00529462 0.00078105 0.00459644 0.02153484 0.00594841 0.06186322 0.00425722 0.00509787 0.03369483 0.00817587 0.00261384 0.00670826 0.00134460 
0.05431132 0.13663445 0.01518150 0.00525217 0.00078965 0.00461435 0.02149182 0.00595970 0.06080538 0.00425777 0.00510368 0.03382107 0.00847232 0.00261260 0.00680142 0.00134265 
0.05417943 0.13803780 0.01542090 0.00520848 0.00079854 0.00463281 0.02146461 0.00597805 0.05968359 0.00425634 0.00510827 0.03395280 0.00879249 0.00261314 0.00689916 0.00134084 
0.05399078 0.13934324 0.01565389 0.00516390 0.00080768 0.00465169 0.02145389 0.00600412 0.05850346 0.00425290 0.00511176 0.03408903 0.00913523 0.00261540 0.00700118 0.00133917 
0.05374475 0.14054863 0.01587979 0.00511875 0.00081704 0.00467086 0.02146033 0.00603859 0.05727088 0.00424743 0.00511429 0.03422875 0.00949929 0.00261929 0.00710711 0.00133767 
0.05344107 0.14165207 0.01609802 0.00507339 0.00082659 0.00469020 0.02148457 0.00608214 0.05599198 0.00423994 0.00511598 0.03437094 0.00988331 0.00262471 0.00721657 0.00133634 
0.05307978 0.14265186 0.01630806 0.00502814 0.00083627 0.00470960 0.02152721 0.00613550 0.05467311 0.00423042 0.00511697 0.03451455 0.01028584 0.00263157 0.00732914 0.00133519 
0.05266124 0.14354655 0.01650947 0.00498331 0.00084606 0.00472892 0.02158881 0.00619936 0.05332076 0.00421889 0.00511739 0.03465856 0.01070534 0.00263972 0.00744437 0.00133423 
0.05218610 0.14433487 0.01670186 0.00493923 0.00085592 0.00474807 0.02166991 0.00627442 0.05194157 0.00420537 0.00511737 0.03480194 0.01114020 0.00264904 0.00756177 0.00133346 
0.05165534 0.14501577 0.01688496 0.00489618 0.00086579 0.00476692 0.02177099 0.00636137 0.05054229 0.00418990 0.00511703 0.03494367 0.01158872 0.00265936 0.00768081 0.00133288 
0.05107021 0.14558840 0.01705852 0.00485445 0.00087565 0.00478539 0.02189251 0.00646086 0.04912969 0.00417253 0.00511651 0.03508279 0.01204914 0.00267053 0.00780097 0.00133250 
0.05043225 0.14605208 0.01722241 0.00481431 0.00088545 0.00480336 0.02203485 0.00657354 0.04771061 0.00415331 0.00511591 0.03521836 0.01251965 0.00268237 0.00792168 0.00133231 
0.04974326 0.14640632 0.01737653 0.00477599 0.00089516 0.00482076 0.02219838 0.00670000 0.04629183 0.00413232 0.00511537 0.03534949 0.01299837 0.00269469 0.00804235 0.00133231 
0.04900530 0.14665082 0.01752089 0.00473973 0.00090472 0.00483749 0.02238338 0.00684080 0.04488011 0.00410962 0.00511499 0.03547534 0.01348339 0.00270732 0.00816239 0.00133250 
0.04822064 0.14678544 0.01765553 0.00470574 0.00091411 0.00485348 0.02259011 0.00699643 0.04348210 0.00408530 0.00511488 0.03559513 0.01397278 0.00272006 0.00828117 0.00133286 
0.04739181 0.14681020 0.01778058 0.00467420 0.00092329 0.00486867 0.02281875 0.00716734 0.04210434 0.00405948 0.00511516 0.03570816 0.01446456 0.00273269 0.00839807 0.00133340 
0.04652149 0.14672531 0.01789619 0.00464525 0.00093222 0.00488299 0.02306944 0.00735391 0.04075319 0.00403224 0.00511591 0.03581378 0.01495676 0.00274503 0.00851246 0.00133411 
0.04561256 0.14653111 0.01800261 0.00461906 0.00094086 0.00489640 0.02334223 0.00755644 0.03943484 0.00400370 0.00511725 0.03591144 0.01544740 0.00275686 0.00862371 0.00133497 
0.04466807 0.14622812 0.01810010 0.00459571 0.00094919 0.00490884 0.02363715 0.00777517 0.03815525 0.00397400 0.00511925 0.03600064 0.01593449 0.00276799 0.00873117 0.00133597 
0.04369118 0.14581704 0.01818900 0.00457529 0.00095716 0.00492028 0.02395413 0.00801024 0.03692011 0.00394327 0.00512201 0.03608097 0.01641607 0.00277820 0.00883422 0.00133710 
0.04268519 0.14529871 0.01826965 0.00455787 0.00096475 0.00493070 0.02429306 0.00826170 0.03573484 0.00391164 0.00512561 0.03615211 0.01689020 0.00278730 0.00893225 0.00133835 
0.04165348 0.14467413 0.01834245 0.00454346 0.00097194 0.00494007 0.02465374 0.00852953 0.03460454 0.00387928 0.00513011 0.03621381 0.01735497 0.00279509 0.00902463 0.00133971 
0.04059949 0.14394449 0.01840781 0.00453209 0.00097869 0.00494839 0.02503591 0.00881359 0.03353397 0.00384632 0.00513560 0.03626590 0.01780852 0.00280139 0.00911078 0.00134116 
0.03952674 0.14311115 0.01846618 0.00452372 0.00098499 0.00495566 0.02543926 0.00911365 0.03252753 0.00381295 0.00514213 0.03630828 0.01824904 0.00280601 0.00919012 0.00134269 
0.03843875 0.14217564 0.01851801 0.00451832 0.00099081 0.00496188 0.02586339 0.00942938 0.03158925 0.00377932 0.00514976 0.03634094 0.01867476 0.00280878 0.00926212 0.00134428 
0.03733906 0.14113968 0.01856375 0.00451580 0.00099614 0.00496707 0.02630782 0.00976034 0.03072275 0.00374560 0.00515855 0.03636393 0.01908400 0.00280954 0.00932624 0.00134591 
0.03623120 0.14000518 0.01860386 0.00451608 0.00100096 0.00497125 0.02677202 0.01010600 0.02993122 0.00371199 0.00516854 0.03637737 0.01947516 0.00280815 0.00938201 0.00134758 
0.03511866 0.13877425 0.01863880 0.00451904 0.00100525 0.00497444 0.02725537 0.01046569 0.02921743 0.00367865 0.00517976 0.03638143 0.01984671 0.00280446 0.00942897 0.00134927 
0.03400488 0.13744922 0.01866901 0.00452454 0.00100902 0.00497670 0.02775719 0.01083867 0.02858371 0.00364577 0.00519226 0.03637635 0.02019721 0.00279835 0.00946670 0.00135096 
0.03289323 0.13603261 0.01869491 0.00453242 0.00101225 0.00497805 0.02827673 0.01122409 0.02803194 0.00361353 0.00520606 0.03636242 0.02052534 0.00278972 0.00949483 0.00135264 
0.03178699 0.13452720 0.01871690 0.00454250 0.00101493 0.00497855 0.02881314 0.01162098 0.02756352 0.00358212 0.00522118 0.03633996 0.02082985 0.00277849 0.00951304 0.00135430 
0.03068934 0.13293597 0.01873535 0.00455458 0.00101708 0.00497825 0.02936552 0.01202830 0.02717940 0.00355173 0.00523764 0.03630934 0.02110964 0.00276457 0.00952104 0.00135592 
0.02960336 0.13126216 0.01875060 0.00456846 0.00101868 0.00497722 0.02993290 0.01244489 0.02688007 0.00352253 0.00525543 0.03627095 0.02136370 0.00274793 0.00951861 0.00135749 
0.02853196 0.12950926 0.01876294 0.00458391 0.00101975 0.00497551 0.03051423 0.01286952 0.02666554 0.00349472 0.00527458 0.03622519 0.02159115 0.00272852 0.00950555 0.00135900 
0.02747794 0.12768102 0.01877261 0.00460068 0.00102030 0.00497320 0.03110839 0.01330085 0.02653538 0.00346846 0.00529505 0.03617251 0.02179123 0.00270634 0.00948175 0.00136044 
0.02644394 0.12578145 0.01877983 0.00461854 0.00102032 0.00497035 0.03171418 0.01373748 0.02648869 0.00344392 0.00531685 0.03611333 0.02196331 0.00268139 0.00944712 0.00136180 
0.02543243 0.12381484 0.01878472 0.00463723 0.00101984 0.00496704 0.03233035 0.01417795 0.02652413 0.00342129 0.00533996 0.03604809 0.02210689 0.00265370 0.00940167 0.00136307 
0.02444573 0.12178574 0.01878739 0.00465649 0.00101888 0.00496334 0.03295557 0.01462070 0.02663991 0.00340071 0.00536434 0.03597721 0.02222162 0.00262333 0.00934542 0.00136424 
0.02348596 0.11969901 0.01878787 0.00467605 0.00101744 0.00495934 0.03358845 0.01506415 0.02683384 0.00338234 0.00538997 0.03590111 0.02230726 0.00259034 0.00927848 0.00136531 
0.02255508 0.11755976 0.01878612 0.00469564 0.00101555 0.00495510 0.03422754 0.01550663 0.02710331 0.00336633 0.00541679 0.03582017 0.02236371 0.00255483 0.00920100 0.00136626 
0.02165486 0.11537342 0.01878207 0.00471500 0.00101324 0.00495071 0.03487133 0.01594648 0.02744533 0.00335282 0.00544477 0.03573477 0.02239103 0.00251691 0.00911320 0.00136710 
0.02078689 0.11314566 0.01877557 0.00473388 0.00101052 0.00494625 0.03551823 0.01638197 0.02785651 0.00334191 0.00547384 0.03564524 0.02238938 0.00247672 0.00901536 0.00136783 
0.01995257 0.11088248 0.01876639 0.00475199 0.00100742 0.00494178 0.03616664 0.01681137 0.02833314 0.00333374 0.00550394 0.03555187 0.02235908 0.00243441 0.00890779 0.00136843 
0.01915313 0.10859013 0.01875427 0.00476911 0.00100397 0.00493739 0.03681486 0.01723294 0.02887118 0.00332839 0.00553499 0.03545493 0.02230057 0.00239015 0.00879088 0.00136892 
0.01838961 0.10627512 0.01873889 0.00478497 0.00100020 0.00493314 0.03746119 0.01764493 0.02946627 0.00332597 0.00556691 0.03535462 0.02221443 0.00234415 0.00866508 0.00136928 
0.01766287 0.10394425 0.01871984 0.00479936 0.00099614 0.00492911 0.03810385 0.01804561 0.03011379 0.00332653 0.00559963 0.03525113 0.02210135 0.00229661 0.00853087 0.00136953 
0.01697361 0.10160454 0.01869670 0.00481204 0.00099181 0.00492535 0.03874104 0.01843327 0.03080886 0.00333013 0.00563303 0.03514458 0.02196215 0.00224776 0.00838879 0.00136966 
0.01632238 0.09926327 0.01866897 0.00482282 0.00098726 0.00492194 0.03937094 0.01880623 0.03154638 0.00333683 0.00566701 0.03503503 0.02179779 0.00219784 0.00823943 0.00136968 
0.01570954 0.09692792 0.01863612 0.00483150 0.00098251 0.00491893 0.03999167 0.01916287 0.03232105 0.00334665 0.00570147 0.03492252 0.02160930 0.00214712 0.00808343 0.00136959 
0.01513533 0.09460618 0.01859756 0.00483790 0.00097761 0.00491637 0.04060136 0.01950160 0.03312744 0.00335959 0.00573627 0.03480702 0.02139786 0.00209587 0.00792144 0.00136940 
