0.08440822 0.03153601 0.01583108 0.00254087 0.00093758 0.00196415 0.00708493 0.00463909 0.03594127 0.00241279 0.00274640 0.07954870 0.00516064 0.00500646 0.00664028 0.00128203 
0.08371037 0.03222380 0.01583664 0.00253249 0.00095444 0.00195100 0.00722026 0.00460802 0.03636369 0.00244614 0.00274864 0.08054105 0.00512071 0.00504088 0.00673994 0.00128515 
0.08299486 0.03294915 0.01582593 0.00252687 0.00097205 0.00193708 0.00735329 0.00457418 0.03674011 0.00247918 0.00275054 0.08145284 0.00507283 0.00507993 0.00684149 0.00128815 
0.08226529 0.03370812 0.01579895 0.00252411 0.00099039 0.00192246 0.00748376 0.00453768 0.03706897 0.00251182 0.00275222 0.08228005 0.00501728 0.00512329 0.00694450 0.00129097 
0.08152514 0.03449660 0.01575578 0.00252429 0.00100944 0.00190724 0.00761137 0.00449863 0.03734898 0.00254398 0.00275375 0.08301895 0.00495438 0.00517062 0.00704851 0.00129357 
0.08077780 0.03531036 0.01569658 0.00252749 0.00102917 0.00189148 0.00773589 0.00445716 0.03757907 0.00257558 0.00275526 0.08366616 0.00488451 0.00522154 0.00715306 0.00129593 
0.08002649 0.03614507 0.01562157 0.00253377 0.00104955 0.00187528 0.00785707 0.00441341 0.03775845 0.00260654 0.00275685 0.08421866 0.00480807 0.00527567 0.00725767 0.00129799 
0.07927431 0.03699628 0.01553105 0.00254319 0.00107053 0.00185872 0.00797469 0.00436753 0.03788657 0.00263679 0.00275863 0.08467378 0.00472552 0.00533262 0.00736186 0.00129972 
0.07852416 0.03785951 0.01542540 0.00255580 0.00109207 0.00184188 0.00808854 0.00431968 0.03796315 0.00266625 0.00276073 0.08502926 0.00463733 0.00539195 0.00746514 0.00130109 
0.07777879 0.03873023 0.01530506 0.00257163 0.00111412 0.00182486 0.00819844 0.00427005 0.03798817 0.00269486 0.00276327 0.08528318 0.00454402 0.00545325 0.00756702 0.00130207 
0.07704073 0.03960390 0.01517053 0.00259070 0.00113662 0.00180774 0.00830423 0.00421881 0.03796188 0.00272255 0.00276637 0.08543408 0.00444614 0.00551606 0.00766701 0.00130261 
0.07631233 0.04047598 0.01502238 0.00261303 0.00115952 0.00179061 0.00840574 0.00416615 0.03788478 0.00274925 0.00277015 0.08548085 0.00434427 0.00557994 0.00776462 0.00130269 
0.07559571 0.04134197 0.01486123 0.00263862 0.00118274 0.00177355 0.00850285 0.00411229 0.03775766 0.00277493 0.00277474 0.08542282 0.00423901 0.00564442 0.00785935 0.00130228 
0.07489277 0.04219744 0.01468775 0.00266746 0.00120623 0.00175665 0.00859543 0.00405742 0.03758153 0.00279951 0.00278025 0.08525973 0.00413099 0.00570905 0.00795073 0.00130136 
0.07420518 0.04303800 0.01450267 0.00269951 0.00122990 0.00173999 0.00868339 0.00400175 0.03735767 0.00282296 0.00278681 0.08499171 0.00402086 0.00577336 0.00803828 0.00129990 
0.07353440 0.04385938 0.01430677 0.00273474 0.00125367 0.00172365 0.00876664 0.00394551 0.03708761 0.00284523 0.00279454 0.08461932 0.00390927 0.00583688 0.00812153 0.00129788 
0.07288161 0.04465743 0.01410084 0.00277311 0.00127747 0.00170771 0.00884511 0.00388892 0.03677311 0.00286627 0.00280353 0.08414350 0.00379691 0.00589916 0.00820004 0.00129529 
0.07224778 0.04542814 0.01388574 0.00281453 0.00130120 0.00169223 0.00891876 0.00383219 0.03641616 0.00288607 0.00281389 0.08356562 0.00368446 0.00595972 0.00827337 0.00129212 
0.07163362 0.04616764 0.01366234 0.00285894 0.00132479 0.00167730 0.00898755 0.00377555 0.03601894 0.00290457 0.00282573 0.08288739 0.00357260 0.00601811 0.00834110 0.00128834 
0.07103961 0.04687226 0.01343155 0.00290623 0.00134813 0.00166298 0.00905144 0.00371923 0.03558388 0.00292176 0.00283913 0.08211095 0.00346204 0.00607390 0.00840282 0.00128397 
0.07046598 0.04753850 0.01319429 0.00295630 0.00137114 0.00164933 0.00911045 0.00366345 0.03511355 0.00293762 0.00285418 0.08123876 0.00335346 0.00612664 0.00845816 0.00127899 
0.06991273 0.04816307 0.01295150 0.00300902 0.00139373 0.00163641 0.00916457 0.00360844 0.03461072 0.00295211 0.00287094 0.08027365 0.00324755 0.00617591 0.00850676 0.00127341 
0.06937962 0.04874291 0.01270415 0.00306426 0.00141578 0.00162427 0.00921382 0.00355441 0.03407832 0.00296524 0.00288947 0.07921878 0.00314498 0.00622130 0.00854829 0.00126722 
0.06886617 0.04927520 0.01245318 0.00312187 0.00143722 0.00161297 0.00925823 0.00350158 0.03351941 0.00297698 0.00290984 0.07807764 0.00304643 0.00626243 0.00858244 0.00126045 
0.06837171 0.04975734 0.01219957 0.00318167 0.00145794 0.00160253 0.00929785 0.00345016 0.03293716 0.00298733 0.00293206 0.07685400 0.00295253 0.00629891 0.00860894 0.00125311 
0.06789534 0.05018702 0.01194429 0.00324350 0.00147785 0.00159300 0.00933274 0.00340037 0.03233488 0.00299628 0.00295619 0.07555191 0.00286391 0.00633041 0.00862754 0.00124521 
0.06743595 0.05056217 0.01168830 0.00330715 0.00149686 0.00158441 0.00936295 0.00335240 0.03171593 0.00300384 0.00298221 0.07417568 0.00278118 0.00635658 0.00863802 0.00123677 
0.06699225 0.05088101 0.01143254 0.00337243 0.00151486 0.00157679 0.00938856 0.00330645 0.03108376 0.00301000 0.00301015 0.07272987 0.00270492 0.00637712 0.00864022 0.00122782 
0.06656278 0.05114203 0.01117795 0.00343911 0.00153178 0.00157016 0.00940965 0.00326270 0.03044186 0.00301477 0.00303998 0.07121922 0.00263567 0.00639176 0.00863399 0.00121839 
0.06614590 0.05134400 0.01092547 0.00350697 0.00154753 0.00156453 0.00942632 0.00322134 0.02979372 0.00301816 0.00307167 0.06964869 0.00257395 0.00640024 0.00861921 0.00120852 
0.06573982 0.05148601 0.01067599 0.00357577 0.00156202 0.00155991 0.00943867 0.00318253 0.02914288 0.00302019 0.00310519 0.06802340 0.00252023 0.00640234 0.00859582 0.00119825 
0.06534263 0.05156741 0.01043039 0.00364525 0.00157517 0.00155630 0.00944679 0.00314645 0.02849282 0.00302086 0.00314049 0.06634859 0.00247496 0.00639787 0.00856378 0.00118761 
0.06495229 0.05158786 0.01018953 0.00371516 0.00158691 0.00155370 0.00945081 0.00311323 0.02784702 0.00302019 0.00317749 0.06462965 0.00243852 0.00638666 0.00852310 0.00117665 
0.06456667 0.05154730 0.00995424 0.00378523 0.00159718 0.00155211 0.00945083 0.00308302 0.02720887 0.00301820 0.00321612 0.06287204 0.00241126 0.00636860 0.00847383 0.00116543 
0.06418353 0.05144597 0.00972530 0.00385518 0.00160591 0.00155151 0.00944698 0.00305596 0.02658172 0.00301491 0.00325628 0.06108130 0.00239350 0.00634359 0.00841605 0.00115399 
0.06380059 0.05128441 0.00950349 0.00392473 0.00161305 0.00155188 0.00943939 0.00303216 0.02596880 0.00301035 0.00329786 0.05926302 0.00238549 0.00631158 0.00834990 0.00114240 
0.06341553 0.05106342 0.00928952 0.00399359 0.00161854 0.00155320 0.00942819 0.00301173 0.02537323 0.00300454 0.00334075 0.05742280 0.00238744 0.00627253 0.00827554 0.00113071 
0.06302597 0.05078411 0.00908410 0.00406148 0.00162236 0.00155545 0.00941350 0.00299476 0.02479801 0.00299752 0.00338481 0.05556627 0.00239950 0.00622648 0.00819318 0.00111899 
0.06262956 0.05044784 0.00888787 0.00412810 0.00162446 0.00155859 0.00939547 0.00298136 0.02424599 0.00298931 0.00342990 0.05369901 0.00242176 0.00617348 0.00810307 0.00110729 
0.06222393 0.05005624 0.00870144 0.00419316 0.00162482 0.00156258 0.00937422 0.00297158 0.02371985 0.00297994 0.00347587 0.05182660 0.00245429 0.00611361 0.00800550 0.00109570 
0.06180677 0.04961121 0.00852540 0.00425635 0.00162344 0.00156739 0.00934991 0.00296550 0.02322209 0.00296946 0.00352255 0.04995451 0.00249707 0.00604700 0.00790081 0.00108428 
0.06137580 0.04911489 0.00836027 0.00431739 0.00162031 0.00157299 0.00932266 0.00296315 0.02275505 0.00295790 0.00356979 0.04808818 0.00255004 0.00597384 0.00778936 0.00107309 
0.06092882 0.04856965 0.00820654 0.00437599 0.00161542 0.00157931 0.00929261 0.00296460 0.02232082 0.00294529 0.00361739 0.04623294 0.00261308 0.00589432 0.00767156 0.00106222 
0.06046371 0.04797812 0.00806467 0.00443186 0.00160881 0.00158632 0.00925991 0.00296985 0.02192131 0.00293169 0.00366518 0.04439401 0.00268603 0.00580868 0.00754785 0.00105173 
0.05997847 0.04734310 0.00793507 0.00448473 0.00160049 0.00159397 0.00922470 0.00297893 0.02155820 0.00291714 0.00371296 0.04257648 0.00276865 0.00571722 0.00741872 0.00104169 
0.05947122 0.04666762 0.00781810 0.00453431 0.00159050 0.00160221 0.00918712 0.00299184 0.02123294 0.00290167 0.00376055 0.04078532 0.00286068 0.00562025 0.00728468 0.00103219 
0.05894020 0.04595490 0.00771408 0.00458035 0.00157890 0.00161098 0.00914729 0.00300858 0.02094674 0.00288535 0.00380774 0.03902534 0.00296177 0.00551812 0.00714628 0.00102329 
0.05838383 0.04520831 0.00762330 0.00462260 0.00156572 0.00162024 0.00910537 0.00302913 0.02070058 0.00286822 0.00385434 0.03730118 0.00307154 0.00541124 0.00700408 0.00101506 
0.05780069 0.04443139 0.00754601 0.00466081 0.00155106 0.00162993 0.00906149 0.00305345 0.02049518 0.00285034 0.00390015 0.03561734 0.00318958 0.00530001 0.00685870 0.00100757 
0.05718955 0.04362783 0.00748241 0.00469475 0.00153498 0.00164000 0.00901578 0.00308152 0.02033103 0.00283176 0.00394497 0.03397813 0.00331539 0.00518491 0.00671077 0.00100090 
0.05654937 0.04280144 0.00743266 0.00472422 0.00151757 0.00165040 0.00896837 0.00311328 0.02020836 0.00281254 0.00398862 0.03238766 0.00344846 0.00506641 0.00656094 0.00099511 
0.05587932 0.04195612 0.00739690 0.00474902 0.00149893 0.00166107 0.00891940 0.00314868 0.02012718 0.00279274 0.00403088 0.03084989 0.00358822 0.00494504 0.00640987 0.00099027 
0.05517878 0.04109590 0.00737519 0.00476896 0.00147918 0.00167198 0.00886900 0.00318764 0.02008725 0.00277243 0.00407159 0.02936855 0.00373407 0.00482134 0.00625828 0.00098642 
0.05444735 0.04022484 0.00736761 0.00478390 0.00145842 0.00168306 0.00881730 0.00323008 0.02008809 0.00275168 0.00411056 0.02794721 0.00388537 0.00469588 0.00610685 0.00098364 
0.05368488 0.03934707 0.00737416 0.00479369 0.00143680 0.00169429 0.00876442 0.00327593 0.02012900 0.00273055 0.00414762 0.02658921 0.00404145 0.00456925 0.00595632 0.00098197 
0.05289144 0.03846678 0.00739482 0.00479821 0.00141444 0.00170560 0.00871049 0.00332509 0.02020906 0.00270911 0.00418260 0.02529773 0.00420160 0.00444207 0.00580740 0.00098146 
0.05206734 0.03758815 0.00742953 0.00479736 0.00139149 0.00171696 0.00865563 0.00337744 0.02032714 0.00268745 0.00421534 0.02407572 0.00436509 0.00431497 0.00566083 0.00098215 
0.05121313 0.03671536 0.00747821 0.00479108 0.00136810 0.00172834 0.00859997 0.00343289 0.02048192 0.00266563 0.00424571 0.02292597 0.00453117 0.00418859 0.00551734 0.00098409 
0.05032959 0.03585259 0.00754072 0.00477931 0.00134444 0.00173970 0.00854363 0.00349132 0.02067187 0.00264374 0.00427357 0.02185103 0.00469908 0.00406360 0.00537767 0.00098731 
0.04941775 0.03500396 0.00761693 0.00476202 0.00132065 0.00175101 0.00848672 0.00355259 0.02089532 0.00262186 0.00429881 0.02085332 0.00486801 0.00394065 0.00524253 0.00099183 
0.04847888 0.03417356 0.00770663 0.00473922 0.00129692 0.00176223 0.00842936 0.00361657 0.02115042 0.00260008 0.00432131 0.01993501 0.00503719 0.00382043 0.00511265 0.00099767 
0.04751445 0.03336538 0.00780962 0.00471094 0.00127341 0.00177335 0.00837166 0.00368314 0.02143517 0.00257848 0.00434099 0.01909814 0.00520580 0.00370360 0.00498874 0.00100485 
0.04652617 0.03258334 0.00792563 0.00467722 0.00125031 0.00178434 0.00831375 0.00375213 0.02174747 0.00255716 0.00435777 0.01834453 0.00537305 0.00359085 0.00487147 0.00101338 
0.04551595 0.03183123 0.00805439 0.00463813 0.00122778 0.00179520 0.00825574 0.00382341 0.02208508 0.00253620 0.00437158 0.01767586 0.00553813 0.00348283 0.00476152 0.00102325 
0.04448593 0.03111273 0.00819560 0.00459379 0.00120602 0.00180589 0.00819772 0.00389682 0.02244568 0.00251570 0.00438240 0.01709360 0.00570025 0.00338023 0.00465954 0.00103447 
0.04343840 0.03043138 0.00834891 0.00454431 0.00118520 0.00181643 0.00813983 0.00397220 0.02282687 0.00249576 0.00439019 0.01659909 0.00585861 0.00328368 0.00456614 0.00104702 
0.04237585 0.02979055 0.00851397 0.00448986 0.00116551 0.00182679 0.00808215 0.00404939 0.02322620 0.00247647 0.00439494 0.01619349 0.00601246 0.00319383 0.00448192 0.00106087 
0.04130093 0.02919345 0.00869036 0.00443060 0.00114712 0.00183699 0.00802480 0.00412822 0.02364117 0.00245793 0.00439666 0.01587780 0.00616105 0.00311129 0.00440742 0.00107601 
0.04021643 0.02864307 0.00887768 0.00436675 0.00113020 0.00184702 0.00796788 0.00420852 0.02406927 0.00244024 0.00439537 0.01565287 0.00630364 0.00303666 0.00434317 0.00109239 
0.03912527 0.02814225 0.00907547 0.00429852 0.00111493 0.00185688 0.00791149 0.00429011 0.02450797 0.00242349 0.00439111 0.01551940 0.00643953 0.00297051 0.00428965 0.00110998 
0.03803050 0.02769357 0.00928325 0.00422617 0.00110147 0.00186660 0.00785574 0.00437284 0.02495477 0.00240780 0.00438396 0.01547793 0.00656807 0.00291340 0.00424728 0.00112872 
0.03693523 0.02729941 0.00950053 0.00414996 0.00108998 0.00187618 0.00780072 0.00445651 0.02540719 0.00239325 0.00437397 0.01552888 0.00668862 0.00286583 0.00421647 0.00114856 
0.03584267 0.02696190 0.00972676 0.00407020 0.00108062 0.00188564 0.00774652 0.00454095 0.02586280 0.00237994 0.00436124 0.01567250 0.00680057 0.00282828 0.00419755 0.00116944 
0.03475607 0.02668295 0.00996140 0.00398718 0.00107353 0.00189499 0.00769324 0.00462598 0.02631925 0.00236797 0.00434589 0.01590892 0.00690339 0.00280119 0.00419082 0.00119128 
0.03367872 0.02646418 0.01020386 0.00390123 0.00106884 0.00190427 0.00764096 0.00471142 0.02677425 0.00235744 0.00432803 0.01623811 0.00699657 0.00278496 0.00419653 0.00121402 
0.03261391 0.02630698 0.01045354 0.00381270 0.00106667 0.00191349 0.00758978 0.00479710 0.02722560 0.00234843 0.00430780 0.01665992 0.00707964 0.00277995 0.00421485 0.00123756 
0.03156495 0.02621246 0.01070980 0.00372195 0.00106715 0.00192268 0.00753976 0.00488282 0.02767125 0.00234104 0.00428535 0.01717404 0.00715221 0.00278647 0.00424591 0.00126183 
0.03053508 0.02618145 0.01097199 0.00362936 0.00107035 0.00193187 0.00749099 0.00496842 0.02810921 0.00233536 0.00426084 0.01778003 0.00721391 0.00280479 0.00428981 0.00128673 
0.02952751 0.02621452 0.01123943 0.00353530 0.00107638 0.00194110 0.00744354 0.00505372 0.02853769 0.00233145 0.00423445 0.01847730 0.00726444 0.00283511 0.00434654 0.00131217 
0.02854538 0.02631196 0.01151142 0.00344016 0.00108531 0.00195038 0.00739748 0.00513853 0.02895498 0.00232942 0.00420637 0.01926512 0.00730358 0.00287761 0.00441608 0.00133804 
0.02759173 0.02647378 0.01178724 0.00334436 0.00109718 0.00195976 0.00735287 0.00522269 0.02935957 0.00232932 0.00417678 0.02014260 0.00733112 0.00293238 0.00449832 0.00136424 
0.02666949 0.02669973 0.01206615 0.00324829 0.00111204 0.00196926 0.00730977 0.00530602 0.02975007 0.00233122 0.00414589 0.02110872 0.00734696 0.00299948 0.00459310 0.00139066 
0.02578145 0.02698926 0.01234740 0.00315236 0.00112992 0.00197892 0.00726822 0.00538836 0.03012530 0.00233519 0.00411391 0.02216228 0.00735103 0.00307890 0.00470021 0.00141719 
0.02493026 0.02734158 0.01263019 0.00305700 0.00115082 0.00198877 0.00722826 0.00546954 0.03048420 0.00234128 0.00408106 0.02330193 0.00734333 0.00317060 0.00481938 0.00144371 
0.02411840 0.02775562 0.01291375 0.00296260 0.00117473 0.00199884 0.00718995 0.00554940 0.03082593 0.00234954 0.00404754 0.02452615 0.00732393 0.00327445 0.00495027 0.00147012 
0.02334816 0.02823005 0.01319726 0.00286958 0.00120162 0.00200917 0.00715329 0.00562778 0.03114980 0.00236001 0.00401357 0.02583326 0.00729296 0.00339027 0.00509249 0.00149629 
0.02262164 0.02876330 0.01347991 0.00277834 0.00123145 0.00201979 0.00711833 0.00570452 0.03145529 0.00237271 0.00397938 0.02722139 0.00725059 0.00351785 0.00524560 0.00152212 
0.02194070 0.02935356 0.01376087 0.00268928 0.00126415 0.00203071 0.00708506 0.00577948 0.03174207 0.00238768 0.00394519 0.02868850 0.00719707 0.00365689 0.00540911 0.00154748 
0.02130701 0.02999880 0.01403931 0.00260279 0.00129964 0.00204198 0.00705349 0.00585250 0.03200998 0.00240493 0.00391121 0.03023236 0.00713273 0.00380704 0.00558248 0.00157226 
0.02072197 0.03069677 0.01431439 0.00251924 0.00133783 0.00205360 0.00702362 0.00592347 0.03225902 0.00242446 0.00387765 0.03185053 0.00705791 0.00396792 0.00576510 0.00159634 
0.02018676 0.03144500 0.01458526 0.00243900 0.00137859 0.00206561 0.00699544 0.00599222 0.03248935 0.00244626 0.00384473 0.03354040 0.00697305 0.00413906 0.00595634 0.00161963 
0.01970228 0.03224085 0.01485109 0.00236243 0.00142179 0.00207803 0.00696892 0.00605865 0.03270131 0.00247033 0.00381264 0.03529915 0.00687862 0.00431997 0.00615551 0.00164200 
0.01926918 0.03308152 0.01511104 0.00228984 0.00146728 0.00209086 0.00694404 0.00612263 0.03289536 0.00249663 0.00378157 0.03712374 0.00677515 0.00451009 0.00636190 0.00166336 
0.01888784 0.03396403 0.01536428 0.00222158 0.00151490 0.00210413 0.00692075 0.00618404 0.03307211 0.00252514 0.00375172 0.03901093 0.00666323 0.00470882 0.00657474 0.00168360 
0.01855838 0.03488528 0.01560998 0.00215792 0.00156445 0.00211783 0.00689901 0.00624277 0.03323230 0.00255580 0.00372324 0.04095727 0.00654348 0.00491551 0.00679324 0.00170263 
0.01828063 0.03584204 0.01584733 0.00209915 0.00161574 0.00213198 0.00687876 0.00629872 0.03337680 0.00258855 0.00369631 0.04295909 0.00641657 0.00512949 0.00701658 0.00172036 
0.01805417 0.03683098 0.01607554 0.00204552 0.00166856 0.00214658 0.00685994 0.00635179 0.03350655 0.00262334 0.00367106 0.04501251 0.00628321 0.00535001 0.00724391 0.00173670 
0.01787829 0.03784871 0.01629384 0.00199726 0.00172268 0.00216162 0.00684246 0.00640190 0.03362263 0.00266007 0.00364764 0.04711343 0.00614415 0.00557632 0.00747436 0.00175157 
0.01775203 0.03889175 0.01650146 0.00195459 0.00177788 0.00217709 0.00682626 0.00644896 0.03372618 0.00269866 0.00362617 0.04925752 0.00600017 0.00580763 0.00770705 0.00176490 
0.01767417 0.03995661 0.01669769 0.00191767 0.00183389 0.00219299 0.00681123 0.00649290 0.03381840 0.00273902 0.00360674 0.05144025 0.00585208 0.00604309 0.00794107 0.00177663 
0.01764325 0.04103976 0.01688183 0.00188668 0.00189048 0.00220930 0.00679728 0.00653365 0.03390056 0.00278102 0.00358944 0.05365690 0.00570070 0.00628187 0.00817552 0.00178670 
0.01765754 0.04213767 0.01705321 0.00186173 0.00194736 0.00222599 0.00678432 0.00657115 0.03397396 0.00282455 0.00357435 0.05590250 0.00554689 0.00652310 0.00840948 0.00179506 
0.01771510 0.04324685 0.01721120 0.00184292 0.00200429 0.00224305 0.00677222 0.00660535 0.03403995 0.00286947 0.00356151 0.05817191 0.00539151 0.00676588 0.00864204 0.00180166 
0.01781377 0.04436386 0.01735520 0.00183033 0.00206097 0.00226044 0.00676088 0.00663620 0.03409985 0.00291566 0.00355097 0.06045981 0.00523544 0.00700932 0.00887229 0.00180647 
0.01795119 0.04548529 0.01748468 0.00182401 0.00211715 0.00227814 0.00675017 0.00666368 0.03415502 0.00296295 0.00354273 0.06276067 0.00507957 0.00725250 0.00909933 0.00180948 
0.01812479 0.04660783 0.01759912 0.00182397 0.00217253 0.00229610 0.00673998 0.00668775 0.03420679 0.00301120 0.00353680 0.06506881 0.00492477 0.00749452 0.00932228 0.00181065 
0.01833184 0.04772830 0.01769807 0.00183021 0.00222684 0.00231429 0.00673018 0.00670840 0.03425646 0.00306023 0.00353316 0.06737840 0.00477192 0.00773445 0.00954027 0.00180999 
0.01856946 0.04884360 0.01778112 0.00184268 0.00227981 0.00233266 0.00672064 0.00672561 0.03430530 0.00310989 0.00353178 0.06968345 0.00462190 0.00797140 0.00975244 0.00180749 
0.01883461 0.04995079 0.01784792 0.00186132 0.00233116 0.00235115 0.00671123 0.00673938 0.03435451 0.00315998 0.00353259 0.07197785 0.00447555 0.00820447 0.00995799 0.00180317 
0.01912415 0.05104709 0.01789816 0.00188605 0.00238064 0.00236973 0.00670184 0.00674972 0.03440526 0.00321033 0.00353553 0.07425539 0.00433372 0.00843276 0.01015611 0.00179704 
0.01943483 0.05212988 0.01793161 0.00191673 0.00242797 0.00238834 0.00669234 0.00675664 0.03445861 0.00326076 0.00354052 0.07650977 0.00419721 0.00865541 0.01034605 0.00178913 
0.01976333 0.05319673 0.01794808 0.00195324 0.00247292 0.00240691 0.00668259 0.00676017 0.03451558 0.00331106 0.00354744 0.07873462 0.00406682 0.00887159 0.01052709 0.00177948 
0.02010625 0.05424541 0.01794744 0.00199541 0.00251525 0.00242539 0.00667249 0.00676033 0.03457706 0.00336106 0.00355618 0.08092354 0.00394329 0.00908047 0.01069855 0.00176814 
0.02046019 0.05527390 0.01792964 0.00204305 0.00255472 0.00244373 0.00666193 0.00675718 0.03464386 0.00341054 0.00356662 0.08307010 0.00382735 0.00928126 0.01085981 0.00175515 
0.02082169 0.05628039 0.01789467 0.00209595 0.00259113 0.00246185 0.00665078 0.00675076 0.03471670 0.00345932 0.00357859 0.08516787 0.00371966 0.00947321 0.01101027 0.00174058 
0.02118733 0.05726332 0.01784259 0.00215388 0.00262428 0.00247969 0.00663896 0.00674112 0.03479619 0.00350720 0.00359196 0.08721047 0.00362088 0.00965561 0.01114940 0.00172451 
0.02155371 0.05822135 0.01777353 0.00221658 0.00265399 0.00249718 0.00662637 0.00672835 0.03488279 0.00355399 0.00360654 0.08919158 0.00353157 0.00982778 0.01127672 0.00170699 
0.02191745 0.05915338 0.01768766 0.00228381 0.00268010 0.00251428 0.00661293 0.00671251 0.03497691 0.00359949 0.00362216 0.09110496 0.00345228 0.00998910 0.01139181 0.00168812 
0.02227528 0.06005856 0.01758525 0.00235526 0.00270247 0.00253089 0.00659857 0.00669370 0.03507878 0.00364351 0.00363865 0.09294449 0.00338348 0.01013898 0.01149429 0.00166800 
0.02262399 0.06093628 0.01746658 0.00243065 0.00272097 0.00254698 0.00658322 0.00667200 0.03518857 0.00368587 0.00365579 0.09470422 0.00332560 0.01027690 0.01158387 0.00164670 
0.02296048 0.06178618 0.01733204 0.00250967 0.00273551 0.00256246 0.00656684 0.00664753 0.03530630 0.00372639 0.00367341 0.09637835 0.00327901 0.01040238 0.01166029 0.00162435 
0.02328180 0.06260814 0.01718205 0.00259199 0.00274600 0.00257729 0.00654939 0.00662040 0.03543190 0.00376490 0.00369129 0.09796133 0.00324400 0.01051500 0.01172338 0.00160103 
0.02358510 0.06340227 0.01701709 0.00267729 0.00275238 0.00259140 0.00653085 0.00659074 0.03556516 0.00380123 0.00370923 0.09944782 0.00322083 0.01061440 0.01177301 0.00157687 
0.02386773 0.06416892 0.01683769 0.00276522 0.00275464 0.00260473 0.00651121 0.00655867 0.03570581 0.00383522 0.00372703 0.10083278 0.00320967 0.01070027 0.01180914 0.00155199 
0.02412720 0.06490867 0.01664445 0.00285546 0.00275275 0.00261723 0.00649049 0.00652434 0.03585344 0.00386672 0.00374448 0.10211144 0.00321064 0.01077237 0.01183176 0.00152649 
0.02436121 0.06562231 0.01643801 0.00294765 0.00274674 0.00262885 0.00646870 0.00648790 0.03600758 0.00389560 0.00376138 0.10327941 0.00322377 0.01083051 0.01184097 0.00150051 
0.02456767 0.06631082 0.01621904 0.00304144 0.00273663 0.00263954 0.00644588 0.00644951 0.03616765 0.00392173 0.00377753 0.10433262 0.00324906 0.01087459 0.01183689 0.00147416 
0.02474470 0.06697539 0.01598827 0.00313648 0.00272250 0.00264927 0.00642210 0.00640933 0.03633300 0.00394498 0.00379273 0.10526743 0.00328643 0.01090455 0.01181974 0.00144757 
0.02489064 0.06761739 0.01574647 0.00323242 0.00270443 0.00265799 0.00639742 0.00636755 0.03650292 0.00396527 0.00380680 0.10608058 0.00333572 0.01092039 0.01178978 0.00142088 
0.02500407 0.06823834 0.01549444 0.00332893 0.00268252 0.00266567 0.00637193 0.00632435 0.03667662 0.00398249 0.00381956 0.10676928 0.00339672 0.01092219 0.01174734 0.00139420 
0.02508381 0.06883990 0.01523301 0.00342565 0.00265692 0.00267228 0.00634575 0.00627991 0.03685329 0.00399657 0.00383083 0.10733119 0.00346917 0.01091007 0.01169281 0.00136766 
0.02512893 0.06942387 0.01496304 0.00352226 0.00262778 0.00267781 0.00631899 0.00623444 0.03703206 0.00400744 0.00384045 0.10776447 0.00355273 0.01088424 0.01162664 0.00134140 
0.02513875 0.06999216 0.01468542 0.00361842 0.00259526 0.00268223 0.00629179 0.00618814 0.03721202 0.00401506 0.00384826 0.10806778 0.00364700 0.01084496 0.01154934 0.00131552 
0.02511283 0.07054674 0.01440105 0.00371381 0.00255956 0.00268554 0.00626430 0.00614122 0.03739226 0.00401940 0.00385414 0.10824028 0.00375155 0.01079253 0.01146147 0.00129017 
0.02505100 0.07108969 0.01411084 0.00380813 0.00252091 0.00268772 0.00623670 0.00609389 0.03757185 0.00402042 0.00385795 0.10828170 0.00386586 0.01072733 0.01136364 0.00126545 
0.02495333 0.07162311 0.01381573 0.00390108 0.00247952 0.00268880 0.00620917 0.00604639 0.03774988 0.00401813 0.00385958 0.10819229 0.00398939 0.01064980 0.01125651 0.00124149 
0.02482015 0.07214913 0.01351665 0.00399236 0.00243564 0.00268876 0.00618190 0.00599892 0.03792543 0.00401255 0.00385893 0.10797288 0.00412154 0.01056041 0.01114079 0.00121839 
0.02465203 0.07266987 0.01321453 0.00408170 0.00238953 0.00268763 0.00615511 0.00595173 0.03809760 0.00400368 0.00385592 0.10762484 0.00426166 0.01045970 0.01101722 0.00119626 
0.02444979 0.07318747 0.01291031 0.00416885 0.00234148 0.00268543 0.00612902 0.00590504 0.03826555 0.00399158 0.00385049 0.10715009 0.00440908 0.01034825 0.01088659 0.00117521 
0.02421447 0.07370398 0.01260492 0.00425356 0.00229175 0.00268218 0.00610385 0.00585908 0.03842845 0.00397630 0.00384258 0.10655114 0.00456307 0.01022669 0.01074973 0.00115534 
0.02394734 0.07422143 0.01229926 0.00433560 0.00224066 0.00267792 0.00607985 0.00581409 0.03858554 0.00395792 0.00383215 0.10583103 0.00472289 0.01009569 0.01060748 0.00113674 
0.02364989 0.07474174 0.01199425 0.00441474 0.00218848 0.00267270 0.00605727 0.00577030 0.03873612 0.00393650 0.00381920 0.10499335 0.00488777 0.00995596 0.01046074 0.00111949 
0.02332382 0.07526673 0.01169075 0.00449081 0.00213554 0.00266654 0.00603636 0.00572793 0.03887953 0.00391217 0.00380371 0.10404223 0.00505691 0.00980824 0.01031039 0.00110367 
0.02297101 0.07579813 0.01138963 0.00456360 0.00208215 0.00265951 0.00601738 0.00568723 0.03901522 0.00388501 0.00378571 0.10298232 0.00522950 0.00965330 0.01015737 0.00108935 
0.02259352 0.07633748 0.01109173 0.00463296 0.00202861 0.00265166 0.00600059 0.00564841 0.03914270 0.00385517 0.00376523 0.10181874 0.00540470 0.00949196 0.01000260 0.00107661 
0.02219360 0.07688620 0.01079783 0.00469874 0.00197523 0.00264305 0.00598625 0.00561170 0.03926155 0.00382277 0.00374231 0.10055713 0.00558169 0.00932502 0.00984703 0.00106549 
0.02177362 0.07744551 0.01050872 0.00476080 0.00192233 0.00263375 0.00597463 0.00557731 0.03937147 0.00378797 0.00371701 0.09920354 0.00575963 0.00915334 0.00969160 0.00105604 
0.02133611 0.07801646 0.01022514 0.00481904 0.00187020 0.00262383 0.00596600 0.00554545 0.03947223 0.00375091 0.00368942 0.09776446 0.00593769 0.00897778 0.00953727 0.00104831 
0.02088371 0.07859988 0.00994777 0.00487335 0.00181915 0.00261335 0.00596059 0.00551632 0.03956370 0.00371178 0.00365964 0.09624677 0.00611503 0.00879921 0.00938498 0.00104232 
0.02041915 0.07919639 0.00967728 0.00492366 0.00176946 0.00260239 0.00595868 0.00549011 0.03964586 0.00367073 0.00362775 0.09465771 0.00629085 0.00861850 0.00923565 0.00103811 
0.01994527 0.07980641 0.00941428 0.00496989 0.00172141 0.00259104 0.00596049 0.00546701 0.03971876 0.00362796 0.00359390 0.09300482 0.00646435 0.00843654 0.00909022 0.00103568 
0.01946496 0.08043008 0.00915936 0.00501200 0.00167528 0.00257937 0.00596627 0.00544718 0.03978257 0.00358366 0.00355820 0.09129592 0.00663474 0.00825419 0.00894957 0.00103505 
0.01898117 0.08106734 0.00891305 0.00504996 0.00163130 0.00256747 0.00597623 0.00543078 0.03983755 0.00353801 0.00352081 0.08953909 0.00680128 0.00807233 0.00881458 0.00103621 
0.01849688 0.08171788 0.00867583 0.00508374 0.00158973 0.00255541 0.00599059 0.00541795 0.03988405 0.00349123 0.00348188 0.08774257 0.00696325 0.00789181 0.00868611 0.00103914 
0.01801509 0.08238113 0.00844814 0.00511334 0.00155079 0.00254328 0.00600954 0.00540883 0.03992252 0.00344351 0.00344157 0.08591477 0.00711996 0.00771349 0.00856497 0.00104384 
0.01753878 0.08305628 0.00823039 0.00513878 0.00151467 0.00253117 0.00603325 0.00540354 0.03995347 0.00339505 0.00340006 0.08406418 0.00727076 0.00753817 0.00845193 0.00105027 
0.01707093 0.08374227 0.00802293 0.00516006 0.00148156 0.00251916 0.00606189 0.00540216 0.03997753 0.00334607 0.00335751 0.08219936 0.00741504 0.00736667 0.00834774 0.00105841 
0.01661448 0.08443783 0.00782606 0.00517724 0.00145163 0.00250732 0.00609559 0.00540478 0.03999538 0.00329677 0.00331413 0.08032887 0.00755224 0.00719975 0.00825310 0.00106819 
0.01617230 0.08514141 0.00764006 0.00519034 0.00142503 0.00249574 0.00613447 0.00541146 0.04000778 0.00324736 0.00327009 0.07846122 0.00768184 0.00703815 0.00816864 0.00107958 
0.01574721 0.08585126 0.00746514 0.00519944 0.00140187 0.00248449 0.00617863 0.00542225 0.04001555 0.00319804 0.00322559 0.07660482 0.00780337 0.00688258 0.00809498 0.00109252 
0.01534192 0.08656542 0.00730148 0.00520460 0.00138225 0.00247364 0.00622813 0.00543717 0.04001957 0.00314900 0.00318083 0.07476797 0.00791643 0.00673372 0.00803264 0.00110694 
0.01495908 0.08728169 0.00714924 0.00520589 0.00136626 0.00246328 0.00628302 0.00545623 0.04002076 0.00310045 0.00313600 0.07295875 0.00802064 0.00659217 0.00798212 0.00112276 
0.01460118 0.08799770 0.00700851 0.00520341 0.00135393 0.00245346 0.00634332 0.00547942 0.04002009 0.00305257 0.00309130 0.07118501 0.00811571 0.00645853 0.00794384 0.00113991 
0.01427061 0.08871091 0.00687936 0.00519724 0.00134532 0.00244424 0.00640902 0.00550670 0.04001857 0.00300555 0.00304691 0.06945435 0.00820139 0.00633333 0.00791817 0.00115830 
0.01396961 0.08941860 0.00676182 0.00518749 0.00134041 0.00243569 0.00648009 0.00553801 0.04001720 0.00295957 0.00300304 0.06777402 0.00827749 0.00621706 0.00790540 0.00117785 
0.01370027 0.09011792 0.00665590 0.00517427 0.00133919 0.00242786 0.00655644 0.00557329 0.04001702 0.00291478 0.00295987 0.06615092 0.00834388 0.00611015 0.00790577 0.00119845 
0.01346451 0.09080588 0.00656157 0.00515769 0.00134163 0.00242079 0.00663800 0.00561243 0.04001906 0.00287137 0.00291759 0.06459155 0.00840048 0.00601297 0.00791946 0.00122001 
0.01326408 0.09147940 0.00647877 0.00513787 0.00134766 0.00241453 0.00672464 0.00565533 0.04002436 0.00282946 0.00287636 0.06310198 0.00844729 0.00592586 0.00794655 0.00124242 
0.01310057 0.09213532 0.00640742 0.00511494 0.00135719 0.00240910 0.00681620 0.00570185 0.04003394 0.00278921 0.00283637 0.06168781 0.00848434 0.00584908 0.00798708 0.00126558 
0.01297534 0.09277039 0.00634743 0.00508902 0.00137012 0.00240455 0.00691251 0.00575183 0.04004877 0.00275074 0.00279777 0.06035414 0.00851174 0.00578285 0.00804102 0.00128937 
0.01288959 0.09338137 0.00629867 0.00506025 0.00138633 0.00240089 0.00701334 0.00580510 0.04006982 0.00271416 0.00276071 0.05910556 0.00852963 0.00572730 0.00810826 0.00131368 
0.01284431 0.09396496 0.00626101 0.00502877 0.00140566 0.00239814 0.00711846 0.00586147 0.04009800 0.00267960 0.00272534 0.05794609 0.00853823 0.00568254 0.00818862 0.00133840 
0.01284028 0.09451790 0.00623429 0.00499471 0.00142796 0.00239632 0.00722760 0.00592073 0.04013417 0.00264713 0.00269179 0.05687924 0.00853780 0.00564860 0.00828187 0.00136341 
0.01287806 0.09503696 0.00621835 0.00495822 0.00145304 0.00239542 0.00734047 0.00598267 0.04017915 0.00261683 0.00266019 0.05590789 0.00852863 0.00562545 0.00838769 0.00138860 
0.01295803 0.09551894 0.00621302 0.00491943 0.00148070 0.00239545 0.00745674 0.00604704 0.04023367 0.00258878 0.00263064 0.05503436 0.00851108 0.00561302 0.00850573 0.00141384 
0.01308033 0.09596076 0.00621810 0.00487850 0.00151074 0.00239640 0.00757607 0.00611358 0.04029839 0.00256303 0.00260324 0.05426039 0.00848555 0.00561115 0.00863554 0.00143902 
0.01324491 0.09635943 0.00623342 0.00483556 0.00154292 0.00239825 0.00769808 0.00618204 0.04037391 0.00253962 0.00257807 0.05358709 0.00845247 0.00561966 0.00877663 0.00146402 
0.01345150 0.09671207 0.00625879 0.00479076 0.00157702 0.00240099 0.00782239 0.00625214 0.04046072 0.00251857 0.00255521 0.05301503 0.00841231 0.00563830 0.00892844 0.00148873 
0.01369961 0.09701597 0.00629400 0.00474425 0.00161279 0.00240458 0.00794858 0.00632358 0.04055923 0.00249991 0.00253472 0.05254414 0.00836557 0.00566676 0.00909037 0.00151304 
0.01398858 0.09726858 0.00633887 0.00469618 0.00164997 0.00240902 0.00807622 0.00639608 0.04066977 0.00248362 0.00251664 0.05217382 0.00831278 0.00570469 0.00926176 0.00153683 
0.01431751 0.09746755 0.00639319 0.00464669 0.00168831 0.00241424 0.00820487 0.00646933 0.04079255 0.00246971 0.00250101 0.05190288 0.00825449 0.00575169 0.00944189 0.00156001 
0.01468534 0.09761072 0.00645678 0.00459593 0.00172753 0.00242023 0.00833405 0.00654302 0.04092769 0.00245814 0.00248783 0.05172960 0.00819129 0.00580730 0.00963002 0.00158246 
0.01509079 0.09769618 0.00652944 0.00454405 0.00176738 0.00242693 0.00846331 0.00661685 0.04107520 0.00244888 0.00247712 0.05165174 0.00812375 0.00587104 0.00982534 0.00160409 
0.01553243 0.09772225 0.00661099 0.00449118 0.00180758 0.00243429 0.00859215 0.00669050 0.04123500 0.00244188 0.00246886 0.05166656 0.00805249 0.00594238 0.01002703 0.00162480 
0.01600863 0.09768751 0.00670123 0.00443749 0.00184785 0.00244228 0.00872008 0.00676365 0.04140690 0.00243709 0.00246304 0.05177085 0.00797811 0.00602075 0.01023422 0.00164450 
0.01651761 0.09759079 0.00679999 0.00438311 0.00188795 0.00245082 0.00884661 0.00683601 0.04159060 0.00243442 0.00245962 0.05196097 0.00790122 0.00610555 0.01044600 0.00166311 
0.01705743 0.09743122 0.00690708 0.00432818 0.00192759 0.00245987 0.00897124 0.00690724 0.04178570 0.00243380 0.00245855 0.05223288 0.00782244 0.00619615 0.01066147 0.00168055 
0.01762600 0.09720823 0.00702233 0.00427286 0.00196652 0.00246938 0.00909347 0.00697706 0.04199171 0.00243514 0.00245977 0.05258216 0.00774236 0.00629188 0.01087968 0.00169673 
0.01822111 0.09692150 0.00714556 0.00421728 0.00200450 0.00247927 0.00921280 0.00704517 0.04220803 0.00243834 0.00246321 0.05300408 0.00766159 0.00639209 0.01109968 0.00171160 
0.01884040 0.09657107 0.00727660 0.00416159 0.00204126 0.00248949 0.00932876 0.00711128 0.04243399 0.00244329 0.00246878 0.05349360 0.00758070 0.00649606 0.01132050 0.00172508 
0.01948143 0.09615723 0.00741527 0.00410592 0.00207659 0.00249998 0.00944085 0.00717511 0.04266880 0.00244987 0.00247641 0.05404546 0.00750026 0.00660308 0.01154119 0.00173713 
0.02014163 0.09568060 0.00756139 0.00405042 0.00211025 0.00251068 0.00954861 0.00723639 0.04291160 0.00245796 0.00248598 0.05465416 0.00742081 0.00671244 0.01176077 0.00174770 
0.02081838 0.09514210 0.00771480 0.00399523 0.00214204 0.00252152 0.00965159 0.00729487 0.04316148 0.00246744 0.00249738 0.05531409 0.00734286 0.00682340 0.01197828 0.00175674 
0.02150896 0.09454295 0.00787531 0.00394048 0.00217174 0.00253245 0.00974933 0.00735031 0.04341741 0.00247816 0.00251050 0.05601947 0.00726691 0.00693523 0.01219277 0.00176421 
0.02221058 0.09388465 0.00804273 0.00388631 0.00219918 0.00254340 0.00984144 0.00740248 0.04367834 0.00248999 0.00252520 0.05676449 0.00719341 0.00704722 0.01240330 0.00177010 
0.02292045 0.09316902 0.00821687 0.00383286 0.00222419 0.00255433 0.00992749 0.00745119 0.04394313 0.00250278 0.00254137 0.05754329 0.00712279 0.00715863 0.01260896 0.00177436 
0.02363570 0.09239813 0.00839752 0.00378025 0.00224661 0.00256516 0.01000713 0.00749624 0.04421060 0.00251640 0.00255885 0.05835002 0.00705543 0.00726875 0.01280885 0.00177700 
0.02435346 0.09157432 0.00858448 0.00372863 0.00226631 0.00257586 0.01008000 0.00753747 0.04447955 0.00253068 0.00257751 0.05917889 0.00699170 0.00737688 0.01300210 0.00177799 
0.02507088 0.09070019 0.00877751 0.00367811 0.00228315 0.00258636 0.01014578 0.00757472 0.04474872 0.00254550 0.00259721 0.06002422 0.00693188 0.00748234 0.01318789 0.00177734 
0.02578507 0.08977858 0.00897639 0.00362884 0.00229704 0.00259663 0.01020418 0.00760786 0.04501683 0.00256068 0.00261779 0.06088043 0.00687626 0.00758446 0.01336542 0.00177505 
0.02649321 0.08881256 0.00918085 0.00358093 0.00230789 0.00260660 0.01025494 0.00763681 0.04528260 0.00257609 0.00263910 0.06174214 0.00682506 0.00768262 0.01353394 0.00177114 
0.02719250 0.08780540 0.00939062 0.00353450 0.00231563 0.00261625 0.01029783 0.00766146 0.04554472 0.00259158 0.00266099 0.06260417 0.00677846 0.00777620 0.01369274 0.00176562 
0.02788019 0.08676057 0.00960540 0.00348968 0.00232021 0.00262553 0.01033267 0.00768176 0.04580189 0.00260700 0.00268331 0.06346157 0.00673659 0.00786461 0.01384115 0.00175850 
0.02855360 0.08568170 0.00982490 0.00344659 0.00232159 0.00263440 0.01035929 0.00769767 0.04605283 0.00262221 0.00270592 0.06430966 0.00669955 0.00794731 0.01397857 0.00174984 
0.02921012 0.08457257 0.01004877 0.00340533 0.00231978 0.00264284 0.01037759 0.00770918 0.04629626 0.00263707 0.00272866 0.06514405 0.00666739 0.00802380 0.01410443 0.00173964 
0.02984725 0.08343710 0.01027665 0.00336602 0.00231476 0.00265080 0.01038747 0.00771629 0.04653093 0.00265144 0.00275138 0.06596067 0.00664011 0.00809359 0.01421825 0.00172797 
0.03046257 0.08227931 0.01050816 0.00332876 0.00230655 0.00265828 0.01038891 0.00771904 0.04675562 0.00266518 0.00277396 0.06675578 0.00661766 0.00815625 0.01431958 0.00171486 
0.03105380 0.08110331 0.01074289 0.00329366 0.00229521 0.00266524 0.01038189 0.00771748 0.04696915 0.00267818 0.00279624 0.06752600 0.00659998 0.00821139 0.01440803 0.00170036 
0.03161876 0.07991326 0.01098041 0.00326080 0.00228077 0.00267166 0.01036646 0.00771169 0.04717039 0.00269032 0.00281809 0.06826831 0.00658694 0.00825866 0.01448330 0.00168453 
0.03215543 0.07871337 0.01122025 0.00323028 0.00226333 0.00267754 0.01034270 0.00770176 0.04735827 0.00270147 0.00283940 0.06898006 0.00657838 0.00829777 0.01454511 0.00166743 
0.03266192 0.07750787 0.01146193 0.00320219 0.00224295 0.00268285 0.01031071 0.00768782 0.04753174 0.00271154 0.00286003 0.06965900 0.00657410 0.00832845 0.01459328 0.00164912 
0.03313652 0.07630098 0.01170493 0.00317660 0.00221974 0.00268759 0.01027065 0.00767000 0.04768985 0.00272042 0.00287989 0.07030325 0.00657387 0.00835049 0.01462768 0.00162967 
0.03357766 0.07509687 0.01194872 0.00315359 0.00219382 0.00269175 0.01022271 0.00764846 0.04783171 0.00272801 0.00289885 0.07091133 0.00657743 0.00836373 0.01464824 0.00160915 
0.03398397 0.07389971 0.01219271 0.00313321 0.00216531 0.00269532 0.01016713 0.00762338 0.04795648 0.00273424 0.00291683 0.07148211 0.00658448 0.00836806 0.01465497 0.00158764 
0.03435422 0.07271354 0.01243633 0.00311553 0.00213437 0.00269831 0.01010417 0.00759494 0.04806341 0.00273903 0.00293374 0.07201486 0.00659470 0.00836340 0.01464793 0.00156521 
0.03468741 0.07154235 0.01267895 0.00310060 0.00210113 0.00270072 0.01003412 0.00756337 0.04815182 0.00274231 0.00294950 0.07250921 0.00660774 0.00834975 0.01462724 0.00154194 
0.03498270 0.07039000 0.01291993 0.00308845 0.00206576 0.00270254 0.00995732 0.00752888 0.04822110 0.00274402 0.00296404 0.07296513 0.00662325 0.00832713 0.01459309 0.00151791 
0.03523946 0.06926021 0.01315862 0.00307912 0.00202844 0.00270378 0.00987413 0.00749171 0.04827073 0.00274412 0.00297730 0.07338292 0.00664084 0.00829560 0.01454573 0.00149320 
0.03545726 0.06815657 0.01339433 0.00307262 0.00198934 0.00270445 0.00978494 0.00745210 0.04830026 0.00274256 0.00298923 0.07376321 0.00666011 0.00825529 0.01448547 0.00146791 
0.03563585 0.06708247 0.01362637 0.00306898 0.00194865 0.00270455 0.00969018 0.00741031 0.04830932 0.00273931 0.00299980 0.07410692 0.00668066 0.00820637 0.01441266 0.00144212 
0.03577521 0.06604116 0.01385403 0.00306820 0.00190656 0.00270409 0.00959029 0.00736660 0.04829760 0.00273435 0.00300897 0.07441523 0.00670207 0.00814904 0.01432772 0.00141591 
0.03587550 0.06503566 0.01407658 0.00307026 0.00186328 0.00270308 0.00948574 0.00732124 0.04826489 0.00272767 0.00301672 0.07468957 0.00672392 0.00808354 0.01423112 0.00138938 
0.03593709 0.06406879 0.01429329 0.00307516 0.00181900 0.00270152 0.00937701 0.00727452 0.04821104 0.00271927 0.00302305 0.07493160 0.00674580 0.00801016 0.01412336 0.00136261 
0.03596053 0.06314314 0.01450343 0.00308286 0.00177392 0.00269943 0.00926461 0.00722670 0.04813596 0.00270915 0.00302796 0.07514317 0.00676729 0.00792923 0.01400502 0.00133569 
0.03594660 0.06226108 0.01470626 0.00309332 0.00172825 0.00269681 0.00914905 0.00717806 0.04803963 0.00269733 0.00303147 0.07532627 0.00678799 0.00784110 0.01387668 0.00130871 
0.03589623 0.06142473 0.01490102 0.00310649 0.00168221 0.00269368 0.00903088 0.00712888 0.04792211 0.00268383 0.00303358 0.07548307 0.00680749 0.00774617 0.01373898 0.00128175 
0.03581056 0.06063596 0.01508700 0.00312231 0.00163598 0.00269004 0.00891063 0.00707943 0.04778349 0.00266869 0.00303434 0.07561580 0.00682542 0.00764485 0.01359261 0.00125492 
0.03569090 0.05989638 0.01526347 0.00314071 0.00158979 0.00268590 0.00878886 0.00702998 0.04762395 0.00265195 0.00303378 0.07572678 0.00684140 0.00753759 0.01343826 0.00122829 
0.03553873 0.05920735 0.01542970 0.00316161 0.00154382 0.00268127 0.00866610 0.00698080 0.04744368 0.00263366 0.00303196 0.07581840 0.00685508 0.00742487 0.01327667 0.00120194 
0.03535568 0.05856997 0.01558501 0.00318490 0.00149828 0.00267615 0.00854292 0.00693213 0.04724294 0.00261388 0.00302893 0.07589304 0.00686613 0.00730719 0.01310859 0.00117597 
0.03514356 0.05798506 0.01572871 0.00321050 0.00145336 0.00267056 0.00841986 0.00688423 0.04702203 0.00259268 0.00302475 0.07595308 0.00687426 0.00718506 0.01293479 0.00115045 
0.03490430 0.05745319 0.01586014 0.00323827 0.00140924 0.00266449 0.00829746 0.00683733 0.04678128 0.00257013 0.00301950 0.07600086 0.00687919 0.00705902 0.01275607 0.00112548 
0.03463996 0.05697465 0.01597869 0.00326809 0.00136612 0.00265795 0.00817628 0.00679164 0.04652106 0.00254631 0.00301325 0.07603865 0.00688066 0.00692960 0.01257323 0.00110111 
0.03435272 0.05654950 0.01608374 0.00329983 0.00132416 0.00265095 0.00805681 0.00674738 0.04624175 0.00252132 0.00300610 0.07606866 0.00687846 0.00679737 0.01238708 0.00107744 
0.03404488 0.05617751 0.01617475 0.00333334 0.00128352 0.00264349 0.00793959 0.00670474 0.04594378 0.00249524 0.00299813 0.07609296 0.00687242 0.00666290 0.01219843 0.00105454 
0.03371881 0.05585823 0.01625118 0.00336847 0.00124438 0.00263558 0.00782511 0.00666388 0.04562758 0.00246818 0.00298943 0.07611351 0.00686236 0.00652676 0.01200810 0.00103247 
0.03337696 0.05559094 0.01631255 0.00340505 0.00120687 0.00262721 0.00771383 0.00662498 0.04529360 0.00244024 0.00298011 0.07613212 0.00684819 0.00638952 0.01181691 0.00101132 
0.03302186 0.05537469 0.01635843 0.00344292 0.00117115 0.00261839 0.00760623 0.00658816 0.04494232 0.00241154 0.00297026 0.07615043 0.00682982 0.00625175 0.01162565 0.00099113 
0.03265606 0.05520832 0.01638843 0.00348188 0.00113733 0.00260912 0.00750272 0.00655355 0.04457421 0.00238218 0.00295999 0.07616991 0.00680721 0.00611403 0.01143513 0.00097199 
0.03228217 0.05509044 0.01640222 0.00352177 0.00110554 0.00259941 0.00740372 0.00652125 0.04418976 0.00235230 0.00294941 0.07619184 0.00678035 0.00597692 0.01124613 0.00095394 
0.03190279 0.05501943 0.01639950 0.00356239 0.00107590 0.00258925 0.00730960 0.00649133 0.04378946 0.00232200 0.00293862 0.07621731 0.00674927 0.00584097 0.01105941 0.00093704 
0.03152052 0.05499352 0.01638005 0.00360354 0.00104848 0.00257865 0.00722072 0.00646385 0.04337381 0.00229143 0.00292774 0.07624721 0.00671405 0.00570673 0.01087572 0.00092135 
0.03113797 0.05501071 0.01634370 0.00364502 0.00102340 0.00256762 0.00713739 0.00643885 0.04294333 0.00226070 0.00291686 0.07628220 0.00667478 0.00557474 0.01069579 0.00090691 
0.03075767 0.05506886 0.01629034 0.00368663 0.00100071 0.00255616 0.00705991 0.00641635 0.04249853 0.00222994 0.00290609 0.07632278 0.00663162 0.00544551 0.01052031 0.00089377 
0.03038215 0.05516566 0.01621992 0.00372817 0.00098049 0.00254427 0.00698852 0.00639632 0.04203993 0.00219929 0.00289553 0.07636920 0.00658472 0.00531953 0.01034996 0.00088198 
0.03001384 0.05529866 0.01613245 0.00376944 0.00096279 0.00253197 0.00692345 0.00637876 0.04156806 0.00216887 0.00288530 0.07642155 0.00653431 0.00519730 0.01018539 0.00087156 
0.02965510 0.05546528 0.01602801 0.00381021 0.00094764 0.00251926 0.00686489 0.00636360 0.04108346 0.00213883 0.00287547 0.07647971 0.00648062 0.00507926 0.01002720 0.00086255 
0.02930818 0.05566282 0.01590674 0.00385030 0.00093509 0.00250615 0.00681297 0.00635078 0.04058668 0.00210928 0.00286615 0.07654338 0.00642393 0.00496585 0.00987598 0.00085498 
0.02897523 0.05588849 0.01576884 0.00388949 0.00092515 0.00249266 0.00676783 0.00634021 0.04007828 0.00208035 0.00285743 0.07661208 0.00636453 0.00485747 0.00973227 0.00084886 
0.02865827 0.05613941 0.01561457 0.00392760 0.00091783 0.00247881 0.00672952 0.00633177 0.03955885 0.00205219 0.00284939 0.07668519 0.00630277 0.00475452 0.00959658 0.00084424 
0.02835918 0.05641263 0.01544426 0.00396441 0.00091313 0.00246461 0.00669811 0.00632535 0.03902900 0.00202490 0.00284210 0.07676194 0.00623899 0.00465735 0.00946938 0.00084110 
0.02807969 0.05670514 0.01525829 0.00399975 0.00091103 0.00245008 0.00667359 0.00632080 0.03848936 0.00199862 0.00283564 0.07684142 0.00617358 0.00456628 0.00935111 0.00083947 
0.02782134 0.05701392 0.01505711 0.00403343 0.00091152 0.00243526 0.00665593 0.00631795 0.03794059 0.00197345 0.00283007 0.07692263 0.00610692 0.00448160 0.00924216 0.00083935 
0.02758553 0.05733589 0.01484122 0.00406527 0.00091455 0.00242016 0.00664508 0.00631663 0.03738339 0.00194953 0.00282545 0.07700447 0.00603944 0.00440360 0.00914289 0.00084074 
0.02737345 0.05766799 0.01461117 0.00409511 0.00092009 0.00240482 0.00664094 0.00631665 0.03681850 0.00192695 0.00282184 0.07708579 0.00597157 0.00433248 0.00905361 0.00084363 
0.02718610 0.05800715 0.01436757 0.00412278 0.00092809 0.00238927 0.00664338 0.00631781 0.03624669 0.00190583 0.00281926 0.07716535 0.00590375 0.00426847 0.00897460 0.00084801 
0.02702428 0.05835033 0.01411108 0.00414814 0.00093849 0.00237356 0.00665225 0.00631989 0.03566879 0.00188626 0.00281777 0.07724193 0.00583643 0.00421173 0.00890609 0.00085388 
0.02688856 0.05869453 0.01384241 0.00417106 0.00095121 0.00235771 0.00666735 0.00632268 0.03508569 0.00186833 0.00281738 0.07731427 0.00577009 0.00416239 0.00884826 0.00086120 
0.02677933 0.05903680 0.01356228 0.00419141 0.00096620 0.00234179 0.00668847 0.00632593 0.03449833 0.00185214 0.00281812 0.07738114 0.00570518 0.00412056 0.00880129 0.00086995 
0.02669674 0.05937424 0.01327150 0.00420908 0.00098335 0.00232583 0.00671538 0.00632942 0.03390770 0.00183776 0.00281999 0.07744136 0.00564217 0.00408632 0.00876527 0.00088011 
0.02664071 0.05970405 0.01297088 0.00422397 0.00100259 0.00230990 0.00674781 0.00633291 0.03331487 0.00182527 0.00282300 0.07749378 0.00558154 0.00405969 0.00874028 0.00089164 
0.02661095 0.06002350 0.01266126 0.00423601 0.00102383 0.00229403 0.00678546 0.00633614 0.03272099 0.00181473 0.00282715 0.07753735 0.00552374 0.00404070 0.00872635 0.00090449 
0.02660695 0.06032996 0.01234352 0.00424512 0.00104695 0.00227830 0.00682805 0.00633889 0.03212725 0.00180620 0.00283241 0.07757111 0.00546924 0.00402932 0.00872348 0.00091863 
0.02662797 0.06062094 0.01201856 0.00425127 0.00107186 0.00226277 0.00687524 0.00634089 0.03153495 0.00179973 0.00283877 0.07759422 0.00541847 0.00402548 0.00873163 0.00093401 
0.02667306 0.06089405 0.01168728 0.00425440 0.00109845 0.00224750 0.00692671 0.00634192 0.03094543 0.00179536 0.00284620 0.07760595 0.00537187 0.00402912 0.00875071 0.00095057 
0.02674105 0.06114703 0.01135063 0.00425452 0.00112660 0.00223255 0.00698209 0.00634174 0.03036015 0.00179311 0.00285466 0.07760575 0.00532988 0.00404011 0.00878061 0.00096825 
0.02683057 0.06137778 0.01100953 0.00425162 0.00115620 0.00221800 0.00704104 0.00634012 0.02978060 0.00179302 0.00286411 0.07759320 0.00529289 0.00405831 0.00882118 0.00098699 
0.02694005 0.06158436 0.01066491 0.00424572 0.00118713 0.00220392 0.00710319 0.00633684 0.02920838 0.00179508 0.00287450 0.07756809 0.00526128 0.00408357 0.00887223 0.00100673 
0.02706772 0.06176495 0.01031772 0.00423685 0.00121926 0.00219037 0.00716818 0.00633168 0.02864515 0.00179932 0.00288577 0.07753035 0.00523543 0.00411567 0.00893355 0.00102739 
0.02721165 0.06191794 0.00996889 0.00422506 0.00125247 0.00217744 0.00723562 0.00632445 0.02809266 0.00180570 0.00289787 0.07748013 0.00521568 0.00415440 0.00900489 0.00104890 
0.02736971 0.06204186 0.00961934 0.00421044 0.00128665 0.00216519 0.00730516 0.00631496 0.02755270 0.00181423 0.00291072 0.07741777 0.00520234 0.00419953 0.00908596 0.00107120 
0.02753966 0.06213545 0.00926997 0.00419306 0.00132165 0.00215370 0.00737643 0.00630304 0.02702716 0.00182487 0.00292425 0.07734380 0.00519571 0.00425079 0.00917647 0.00109418 
0.02771906 0.06219761 0.00892167 0.00417303 0.00135736 0.00214304 0.00744907 0.00628853 0.02651795 0.00183759 0.00293839 0.07725896 0.00519604 0.00430790 0.00927607 0.00111779 
0.02790540 0.06222742 0.00857530 0.00415047 0.00139364 0.00213329 0.00752274 0.00627128 0.02602706 0.00185233 0.00295306 0.07716420 0.00520357 0.00437055 0.00938441 0.00114192 
0.02809601 0.06222418 0.00823171 0.00412552 0.00143038 0.00212452 0.00759710 0.00625119 0.02555652 0.00186905 0.00296818 0.07706064 0.00521850 0.00443842 0.00950110 0.00116650 
0.02828816 0.06218735 0.00789171 0.00409833 0.00146744 0.00211679 0.00767182 0.00622815 0.02510839 0.00188768 0.00298366 0.07694962 0.00524100 0.00451119 0.00962573 0.00119143 
0.02847903 0.06211660 0.00755607 0.00406906 0.00150471 0.00211017 0.00774661 0.00620208 0.02468477 0.00190814 0.00299942 0.07683267 0.00527121 0.00458850 0.00975788 0.00121663 
0.02866574 0.06201178 0.00722554 0.00403790 0.00154205 0.00210473 0.00782117 0.00617291 0.02428776 0.00193036 0.00301538 0.07671146 0.00530922 0.00467000 0.00989710 0.00124200 
0.02884537 0.06187295 0.00690081 0.00400503 0.00157934 0.00210053 0.00789525 0.00614061 0.02391948 0.00195423 0.00303144 0.07658788 0.00535512 0.00475532 0.01004292 0.00126745 
0.02901498 0.06170033 0.00658256 0.00397066 0.00161648 0.00209761 0.00796859 0.00610517 0.02358204 0.00197966 0.00304752 0.07646393 0.00540893 0.00484408 0.01019487 0.00129290 
0.02917164 0.06149435 0.00627139 0.00393499 0.00165333 0.00209604 0.00804100 0.00606658 0.02327751 0.00200655 0.00306355 0.07634178 0.00547064 0.00493590 0.01035245 0.00131826 
0.02931244 0.06125562 0.00596790 0.00389826 0.00168978 0.00209585 0.00811227 0.00602489 0.02300797 0.00203476 0.00307943 0.07622369 0.00554023 0.00503038 0.01051514 0.00134342 
0.02943448 0.06098492 0.00567261 0.00386069 0.00172573 0.00209709 0.00818226 0.00598015 0.02277542 0.00206420 0.00309508 0.07611206 0.00561761 0.00512715 0.01068245 0.00136831 
0.02953496 0.06068321 0.00538601 0.00382250 0.00176106 0.00209980 0.00825082 0.00593244 0.02258180 0.00209472 0.00311044 0.07600936 0.00570269 0.00522580 0.01085383 0.00139283 
0.02961114 0.06035162 0.00510853 0.00378395 0.00179567 0.00210399 0.00831787 0.00588185 0.02242898 0.00212619 0.00312543 0.07591814 0.00579532 0.00532595 0.01102877 0.00141689 
0.02966038 0.05999144 0.00484058 0.00374528 0.00182945 0.00210970 0.00838333 0.00582851 0.02231874 0.00215848 0.00313998 0.07584098 0.00589532 0.00542721 0.01120673 0.00144043 
0.02968017 0.05960410 0.00458250 0.00370671 0.00186230 0.00211693 0.00844717 0.00577257 0.02225276 0.00219143 0.00315403 0.07578049 0.00600248 0.00552920 0.01138716 0.00146334 
0.02966814 0.05919120 0.00433460 0.00366851 0.00189414 0.00212569 0.00850940 0.00571420 0.02223257 0.00222491 0.00316752 0.07573931 0.00611657 0.00563153 0.01156954 0.00148556 
0.02962207 0.05875445 0.00409712 0.00363090 0.00192486 0.00213597 0.00857005 0.00565359 0.02225958 0.00225877 0.00318040 0.07572003 0.00623730 0.00573383 0.01175332 0.00150701 
0.02953992 0.05829572 0.00387029 0.00359412 0.00195439 0.00214777 0.00862919 0.00559095 0.02233506 0.00229284 0.00319263 0.07572521 0.00636437 0.00583575 0.01193799 0.00152762 
0.02941986 0.05781698 0.00365427 0.00355841 0.00198264 0.00216108 0.00868692 0.00552651 0.02246007 0.00232699 0.00320417 0.07575736 0.00649744 0.00593694 0.01212300 0.00154732 
0.02926023 0.05732030 0.00344921 0.00352399 0.00200953 0.00217585 0.00874337 0.00546052 0.02263553 0.00236105 0.00321499 0.07581888 0.00663616 0.00603705 0.01230785 0.00156604 
0.02905965 0.05680787 0.00325519 0.00349106 0.00203498 0.00219206 0.00879872 0.00539325 0.02286213 0.00239488 0.00322507 0.07591209 0.00678012 0.00613576 0.01249203 0.00158373 
0.02881693 0.05628195 0.00307227 0.00345985 0.00205894 0.00220966 0.00885317 0.00532498 0.02314036 0.00242832 0.00323439 0.07603917 0.00692892 0.00623275 0.01267505 0.00160034 
0.02853116 0.05574489 0.00290049 0.00343053 0.00208134 0.00222861 0.00890695 0.00525600 0.02347049 0.00246121 0.00324294 0.07620215 0.00708212 0.00632775 0.01285642 0.00161581 
0.02820171 0.05519909 0.00273983 0.00340329 0.00210211 0.00224884 0.00896031 0.00518663 0.02385256 0.00249342 0.00325073 0.07640289 0.00723924 0.00642045 0.01303569 0.00163011 
0.02782819 0.05464701 0.00259026 0.00337830 0.00212121 0.00227028 0.00901356 0.00511718 0.02428634 0.00252480 0.00325776 0.07664307 0.00739981 0.00651062 0.01321239 0.00164318 
0.02741051 0.05409116 0.00245173 0.00335570 0.00213859 0.00229286 0.00906700 0.00504798 0.02477137 0.00255520 0.00326406 0.07692418 0.00756332 0.00659800 0.01338612 0.00165501 
0.02694888 0.05353407 0.00232415 0.00333562 0.00215420 0.00231650 0.00912097 0.00497937 0.02530692 0.00258450 0.00326964 0.07724745 0.00772927 0.00668237 0.01355646 0.00166556 
0.02644380 0.05297831 0.00220744 0.00331818 0.00216801 0.00234111 0.00917583 0.00491168 0.02589199 0.00261256 0.00327454 0.07761391 0.00789710 0.00676355 0.01372303 0.00167482 
0.02589607 0.05242643 0.00210147 0.00330346 0.00217999 0.00236658 0.00923196 0.00484527 0.02652531 0.00263927 0.00327880 0.07802434 0.00806628 0.00684134 0.01388547 0.00168275 
0.02530682 0.05188101 0.00200613 0.00329156 0.00219011 0.00239282 0.00928976 0.00478048 0.02720533 0.00266450 0.00328247 0.07847925 0.00823626 0.00691560 0.01404345 0.00168937 
0.02467744 0.05134460 0.00192129 0.00328250 0.00219835 0.00241972 0.00934963 0.00471765 0.02793023 0.00268815 0.00328561 0.07897888 0.00840646 0.00698618 0.01419667 0.00169466 
0.02400968 0.05081972 0.00184680 0.00327634 0.00220471 0.00244717 0.00941199 0.00465713 0.02869790 0.00271013 0.00328827 0.07952320 0.00857632 0.00705299 0.01434486 0.00169862 
0.02330554 0.05030890 0.00178252 0.00327308 0.00220917 0.00247505 0.00947727 0.00459926 0.02950598 0.00273033 0.00329053 0.08011190 0.00874526 0.00711594 0.01448776 0.00170127 
0.02256737 0.04981457 0.00172831 0.00327270 0.00221173 0.00250323 0.00954590 0.00454436 0.03035181 0.00274870 0.00329245 0.08074438 0.00891270 0.00717495 0.01462516 0.00170261 
0.02179777 0.04933917 0.00168403 0.00327517 0.00221240 0.00253160 0.00961829 0.00449277 0.03123249 0.00276515 0.00329413 0.08141974 0.00907808 0.00723001 0.01475688 0.00170266 
0.02099965 0.04888506 0.00164955 0.00328044 0.00221120 0.00256003 0.00969489 0.00444478 0.03214486 0.00277962 0.00329565 0.08213680 0.00924082 0.00728108 0.01488276 0.00170145 
0.02017619 0.04845452 0.00162473 0.00328843 0.00220813 0.00258839 0.00977611 0.00440071 0.03308552 0.00279208 0.00329709 0.08289410 0.00940035 0.00732818 0.01500269 0.00169900 
0.01933084 0.04804979 0.00160947 0.00329903 0.00220324 0.00261654 0.00986235 0.00436083 0.03405081 0.00280248 0.00329856 0.08368988 0.00955611 0.00737135 0.01511659 0.00169536 
0.01846729 0.04767301 0.00160365 0.00331213 0.00219655 0.00264438 0.00995402 0.00432541 0.03503690 0.00281080 0.00330014 0.08452210 0.00970757 0.00741063 0.01522440 0.00169055 
0.01758949 0.04732627 0.00160718 0.00332760 0.00218809 0.00267175 0.01005148 0.00429471 0.03603971 0.00281704 0.00330194 0.08538848 0.00985418 0.00744611 0.01532610 0.00168463 
0.01670158 0.04701155 0.00161997 0.00334526 0.00217792 0.00269855 0.01015509 0.00426896 0.03705501 0.00282118 0.00330405 0.08628643 0.00999542 0.00747788 0.01542171 0.00167763 
0.01580793 0.04673074 0.00164197 0.00336495 0.00216609 0.00272464 0.01026518 0.00424837 0.03807840 0.00282324 0.00330659 0.08721314 0.01013079 0.00750608 0.01551127 0.00166962 
0.01491309 0.04648566 0.00167311 0.00338648 0.00215266 0.00274991 0.01038205 0.00423312 0.03910533 0.00282325 0.00330965 0.08816555 0.01025981 0.00753085 0.01559487 0.00166064 
0.01402177 0.04627801 0.00171337 0.00340963 0.00213769 0.00277425 0.01050598 0.00422338 0.04013113 0.00282125 0.00331333 0.08914039 0.01038201 0.00755234 0.01567262 0.00165075 
0.01313882 0.04610941 0.00176272 0.00343418 0.00212125 0.00279753 0.01063718 0.00421929 0.04115104 0.00281727 0.00331774 0.09013416 0.01049695 0.00757075 0.01574466 0.00164002 
0.01226921 0.04598139 0.00182116 0.00345991 0.00210342 0.00281965 0.01077587 0.00422097 0.04216023 0.00281138 0.00332299 0.09114320 0.01060423 0.00758627 0.01581117 0.00162851 
0.01141803 0.04589537 0.00188869 0.00348657 0.00208429 0.00284052 0.01092219 0.00422849 0.04315384 0.00280366 0.00332915 0.09216363 0.01070345 0.00759913 0.01587236 0.00161628 
0.01059041 0.04585266 0.00196534 0.00351390 0.00206393 0.00286003 0.01107625 0.00424193 0.04412697 0.00279418 0.00333634 0.09319148 0.01079427 0.00760957 0.01592844 0.00160341 
0.00979155 0.04585450 0.00205113 0.00354166 0.00204246 0.00287812 0.01123812 0.00426132 0.04507477 0.00278304 0.00334463 0.09422261 0.01087634 0.00761783 0.01597969 0.00158996 
0.00902665 0.04590201 0.00214612 0.00356959 0.00201996 0.00289469 0.01140782 0.00428666 0.04599239 0.00277034 0.00335413 0.09525277 0.01094939 0.00762417 0.01602639 0.00157601 
0.00830091 0.04599623 0.00225035 0.00359741 0.00199655 0.00290968 0.01158531 0.00431793 0.04687510 0.00275620 0.00336490 0.09627766 0.01101314 0.00762889 0.01606884 0.00156162 
0.00761951 0.04613809 0.00236388 0.00362487 0.00197232 0.00292303 0.01177052 0.00435508 0.04771825 0.00274073 0.00337702 0.09729290 0.01106738 0.00763226 0.01610737 0.00154687 
0.00698754 0.04632843 0.00248678 0.00365171 0.00194739 0.00293469 0.01196329 0.00439803 0.04851733 0.00272406 0.00339056 0.09829406 0.01111191 0.00763458 0.01614233 0.00153183 
0.00641002 0.04656801 0.00261909 0.00367768 0.00192188 0.00294462 0.01216345 0.00444667 0.04926799 0.00270634 0.00340559 0.09927674 0.01114658 0.00763617 0.01617409 0.00151659 
0.00589183 0.04685750 0.00276090 0.00370252 0.00189591 0.00295278 0.01237074 0.00450088 0.04996609 0.00268770 0.00342215 0.10023653 0.01117127 0.00763732 0.01620302 0.00150120 
0.00543773 0.04719745 0.00291223 0.00372600 0.00186959 0.00295916 0.01258487 0.00456048 0.05060769 0.00266829 0.00344030 0.10116907 0.01118592 0.00763837 0.01622953 0.00148575 
0.00505228 0.04758837 0.00307316 0.00374789 0.00184306 0.00296375 0.01280547 0.00462530 0.05118912 0.00264828 0.00346006 0.10207007 0.01119047 0.00763963 0.01625401 0.00147030 
0.00473986 0.04803063 0.00324369 0.00376798 0.00181643 0.00296654 0.01303216 0.00469512 0.05170699 0.00262782 0.00348148 0.10293533 0.01118494 0.00764142 0.01627688 0.00145493 
0.00450459 0.04852457 0.00342387 0.00378607 0.00178982 0.00296755 0.01326445 0.00476971 0.05215821 0.00260707 0.00350457 0.10376078 0.01116934 0.00764406 0.01629856 0.00143970 
0.00435036 0.04907041 0.00361368 0.00380197 0.00176338 0.00296679 0.01350184 0.00484881 0.05254002 0.00258620 0.00352934 0.10454250 0.01114377 0.00764788 0.01631947 0.00142469 
0.00428078 0.04966830 0.00381311 0.00381553 0.00173721 0.00296430 0.01374377 0.00493214 0.05285001 0.00256537 0.00355580 0.10527671 0.01110834 0.00765318 0.01634002 0.00140995 
0.00429913 0.05031829 0.00402211 0.00382661 0.00171144 0.00296012 0.01398963 0.00501940 0.05308615 0.00254476 0.00358393 0.10595986 0.01106318 0.00766028 0.01636065 0.00139556 
0.00440839 0.05102037 0.00424060 0.00383507 0.00168620 0.00295429 0.01423874 0.00511027 0.05324680 0.00252452 0.00361371 0.10658860 0.01100850 0.00766947 0.01638177 0.00138157 
0.00461118 0.05177442 0.00446847 0.00384084 0.00166161 0.00294688 0.01449043 0.00520442 0.05333072 0.00250482 0.00364512 0.10715982 0.01094450 0.00768106 0.01640377 0.00136804 
0.00490974 0.05258026 0.00470558 0.00384383 0.00163777 0.00293795 0.01474393 0.00530150 0.05333712 0.00248582 0.00367811 0.10767066 0.01087145 0.00769531 0.01642706 0.00135503 
0.00530594 0.05343760 0.00495175 0.00384400 0.00161481 0.00292758 0.01499848 0.00540114 0.05326562 0.00246768 0.00371264 0.10811854 0.01078963 0.00771249 0.01645202 0.00134260 
0.00580124 0.05434607 0.00520675 0.00384133 0.00159282 0.00291585 0.01525326 0.00550297 0.05311628 0.00245055 0.00374865 0.10850118 0.01069935 0.00773286 0.01647902 0.00133079 
0.00639665 0.05530520 0.00547033 0.00383582 0.00157192 0.00290286 0.01550743 0.00560660 0.05288964 0.00243458 0.00378607 0.10881661 0.01060096 0.00775666 0.01650840 0.00131964 
0.00709280 0.05631443 0.00574216 0.00382752 0.00155220 0.00288870 0.01576011 0.00571164 0.05258667 0.00241991 0.00382482 0.10906316 0.01049483 0.00778409 0.01654050 0.00130922 
0.00788983 0.05737310 0.00602188 0.00381649 0.00153375 0.00287347 0.01601042 0.00581769 0.05220879 0.00240668 0.00386481 0.10923954 0.01038136 0.00781537 0.01657561 0.00129955 
0.00878744 0.05848043 0.00630910 0.00380281 0.00151665 0.00285728 0.01625745 0.00592434 0.05175790 0.00239500 0.00390594 0.10934474 0.01026096 0.00785065 0.01661401 0.00129067 
0.00978488 0.05963556 0.00660334 0.00378660 0.00150098 0.00284024 0.01650027 0.00603119 0.05123631 0.00238499 0.00394810 0.10937817 0.01013408 0.00789011 0.01665595 0.00128262 
0.01088094 0.06083748 0.00690409 0.00376801 0.00148681 0.00282248 0.01673796 0.00613782 0.05064679 0.00237676 0.00399118 0.10933954 0.01000115 0.00793386 0.01670165 0.00127542 
0.01207391 0.06208508 0.00721080 0.00374719 0.00147420 0.00280410 0.01696958 0.00624385 0.04999255 0.00237040 0.00403506 0.10922895 0.00986267 0.00798201 0.01675130 0.00126912 
0.01336165 0.06337714 0.00752285 0.00372436 0.00146320 0.00278523 0.01719421 0.00634885 0.04927716 0.00236600 0.00407960 0.10904685 0.00971910 0.00803464 0.01680505 0.00126372 
0.01474154 0.06471227 0.00783957 0.00369972 0.00145385 0.00276598 0.01741091 0.00645245 0.04850464 0.00236362 0.00412466 0.10879405 0.00957094 0.00809179 0.01686301 0.00125925 
0.01621050 0.06608897 0.00816025 0.00367351 0.00144619 0.00274649 0.01761879 0.00655424 0.04767935 0.00236333 0.00417010 0.10847173 0.00941869 0.00815350 0.01692526 0.00125572 
0.01776502 0.06750560 0.00848412 0.00364600 0.00144023 0.00272686 0.01781694 0.00665386 0.04680601 0.00236516 0.00421577 0.10808139 0.00926284 0.00821974 0.01699185 0.00125315 
0.01940113 0.06896038 0.00881038 0.00361746 0.00143599 0.00270722 0.01800449 0.00675092 0.04588966 0.00236914 0.00426150 0.10762490 0.00910391 0.00829048 0.01706278 0.00125155 
0.02111445 0.07045134 0.00913816 0.00358818 0.00143348 0.00268768 0.01818061 0.00684508 0.04493564 0.00237531 0.00430713 0.10710444 0.00894240 0.00836565 0.01713800 0.00125093 
0.02290017 0.07197641 0.00946657 0.00355848 0.00143268 0.00266836 0.01834447 0.00693599 0.04394954 0.00238365 0.00435250 0.10652251 0.00877880 0.00844516 0.01721744 0.00125127 
0.02475310 0.07353331 0.00979468 0.00352868 0.00143357 0.00264937 0.01849529 0.00702332 0.04293721 0.00239415 0.00439743 0.10588194 0.00861362 0.00852886 0.01730096 0.00125260 
0.02666767 0.07511963 0.01012151 0.00349911 0.00143614 0.00263080 0.01863236 0.00710677 0.04190467 0.00240680 0.00444175 0.10518580 0.00844733 0.00861660 0.01738842 0.00125489 
0.02863797 0.07673278 0.01044607 0.00347011 0.00144034 0.00261276 0.01875497 0.00718605 0.04085813 0.00242155 0.00448528 0.10443746 0.00828042 0.00870818 0.01747960 0.00125814 
0.03065776 0.07837001 0.01076733 0.00344202 0.00144613 0.00259534 0.01886250 0.00726087 0.03980388 0.00243834 0.00452785 0.10364053 0.00811335 0.00880338 0.01757426 0.00126234 
0.03272047 0.08002840 0.01108425 0.00341518 0.00145345 0.00257861 0.01895435 0.00733099 0.03874835 0.00245711 0.00456928 0.10279884 0.00794657 0.00890194 0.01767212 0.00126748 
0.03481931 0.08170486 0.01139576 0.00338995 0.00146223 0.00256267 0.01903000 0.00739618 0.03769797 0.00247778 0.00460939 0.10191644 0.00778051 0.00900358 0.01777284 0.00127354 
0.03694719 0.08339613 0.01170080 0.00336666 0.00147240 0.00254758 0.01908899 0.00745623 0.03665919 0.00250024 0.00464800 0.10099752 0.00761559 0.00910797 0.01787606 0.00128049 
0.03909686 0.08509882 0.01199830 0.00334564 0.00148388 0.00253339 0.01913092 0.00751097 0.03563843 0.00252439 0.00468494 0.10004647 0.00745221 0.00921479 0.01798139 0.00128831 
0.04126084 0.08680933 0.01228718 0.00332722 0.00149657 0.00252017 0.01915546 0.00756022 0.03464202 0.00255011 0.00472003 0.09906776 0.00729074 0.00932366 0.01808839 0.00129699 
0.04343155 0.08852395 0.01256638 0.00331171 0.00151039 0.00250795 0.01916234 0.00760385 0.03367618 0.00257727 0.00475311 0.09806599 0.00713154 0.00943418 0.01819659 0.00130648 
0.04560126 0.09023881 0.01283487 0.00329940 0.00152521 0.00249676 0.01915139 0.00764177 0.03274698 0.00260572 0.00478402 0.09704581 0.00697496 0.00954594 0.01830550 0.00131675 
0.04776220 0.09194990 0.01309163 0.00329057 0.00154095 0.00248664 0.01912248 0.00767387 0.03186026 0.00263531 0.00481259 0.09601192 0.00682129 0.00965850 0.01841459 0.00132778 
0.04990653 0.09365309 0.01333566 0.00328549 0.00155747 0.00247758 0.01907558 0.00770012 0.03102166 0.00266588 0.00483868 0.09496904 0.00667083 0.00977139 0.01852331 0.00133951 
0.05202643 0.09534413 0.01356602 0.00328437 0.00157467 0.00246960 0.01901072 0.00772047 0.03023653 0.00269725 0.00486213 0.09392186 0.00652384 0.00988413 0.01863109 0.00135192 
0.05411411 0.09701868 0.01378180 0.00328744 0.00159241 0.00246269 0.01892803 0.00773492 0.02950990 0.00272925 0.00488281 0.09287504 0.00638058 0.00999623 0.01873733 0.00136497 
0.05616183 0.09867229 0.01398214 0.00329488 0.00161057 0.00245683 0.01882771 0.00774350 0.02884648 0.00276169 0.00490060 0.09183317 0.00624127 0.01010717 0.01884144 0.00137860 
0.05816199 0.10030048 0.01416625 0.00330683 0.00162903 0.00245199 0.01871001 0.00774626 0.02825058 0.00279438 0.00491536 0.09080073 0.00610610 0.01021644 0.01894279 0.00139277 
0.06010713 0.10189868 0.01433340 0.00332341 0.00164766 0.00244815 0.01857530 0.00774327 0.02772613 0.00282713 0.00492701 0.08978210 0.00597525 0.01032350 0.01904075 0.00140743 
0.06198994 0.10346231 0.01448292 0.00334473 0.00166633 0.00244525 0.01842401 0.00773464 0.02727661 0.00285975 0.00493543 0.08878149 0.00584889 0.01042783 0.01913470 0.00142254 
0.06380337 0.10498675 0.01461423 0.00337082 0.00168490 0.00244324 0.01825663 0.00772048 0.02690506 0.00289203 0.00494054 0.08780296 0.00572715 0.01052886 0.01922400 0.00143804 
0.06554058 0.10646743 0.01472682 0.00340172 0.00170326 0.00244205 0.01807374 0.00770097 0.02661404 0.00292379 0.00494227 0.08685038 0.00561016 0.01062608 0.01930803 0.00145389 
0.06719504 0.10789977 0.01482029 0.00343739 0.00172128 0.00244163 0.01787599 0.00767627 0.02640561 0.00295482 0.00494055 0.08592739 0.00549801 0.01071894 0.01938617 0.00147001 
0.06876052 0.10927928 0.01489431 0.00347780 0.00173885 0.00244189 0.01766411 0.00764659 0.02628133 0.00298494 0.00493535 0.08503743 0.00539080 0.01080690 0.01945781 0.00148637 
0.07023114 0.11060152 0.01494865 0.00352285 0.00175584 0.00244274 0.01743887 0.00761216 0.02624224 0.00301395 0.00492662 0.08418367 0.00528859 0.01088946 0.01952236 0.00150291 
0.07160139 0.11186219 0.01498320 0.00357240 0.00177215 0.00244411 0.01720111 0.00757322 0.02628885 0.00304168 0.00491435 0.08336902 0.00519146 0.01096609 0.01957925 0.00151956 
0.07286614 0.11305709 0.01499793 0.00362631 0.00178767 0.00244589 0.01695176 0.00753005 0.02642115 0.00306795 0.00489854 0.08259615 0.00509945 0.01103631 0.01962794 0.00153627 
0.07402072 0.11418219 0.01499293 0.00368437 0.00180231 0.00244798 0.01669177 0.00748293 0.02663859 0.00309258 0.00487920 0.08186741 0.00501261 0.01109964 0.01966790 0.00155299 
0.07506087 0.11523364 0.01496839 0.00374635 0.00181597 0.00245029 0.01642216 0.00743219 0.02694008 0.00311543 0.00485636 0.08118489 0.00493095 0.01115563 0.01969866 0.00156965 
0.07598280 0.11620780 0.01492463 0.00381197 0.00182859 0.00245270 0.01614398 0.00737815 0.02732403 0.00313635 0.00483005 0.08055037 0.00485452 0.01120384 0.01971978 0.00158620 
0.07678320 0.11710128 0.01486204 0.00388094 0.00184008 0.00245512 0.01585835 0.00732116 0.02778833 0.00315519 0.00480035 0.07996533 0.00478332 0.01124389 0.01973084 0.00160257 
0.07745926 0.11791092 0.01478117 0.00395293 0.00185039 0.00245743 0.01556639 0.00726158 0.02833036 0.00317184 0.00476732 0.07943098 0.00471738 0.01127541 0.01973149 0.00161872 
0.07800867 0.11863387 0.01468264 0.00402757 0.00185946 0.00245952 0.01526930 0.00719980 0.02894703 0.00318618 0.00473105 0.07894819 0.00465672 0.01129806 0.01972142 0.00163458 
0.07842964 0.11926759 0.01456719 0.00410449 0.00186725 0.00246129 0.01496826 0.00713620 0.02963480 0.00319813 0.00469166 0.07851758 0.00460134 0.01131154 0.01970036 0.00165009 
0.07872090 0.11980987 0.01443568 0.00418326 0.00187374 0.00246263 0.01466450 0.00707120 0.03038967 0.00320760 0.00464927 0.07813944 0.00455128 0.01131561 0.01966812 0.00166520 
0.07888171 0.12025883 0.01428905 0.00426345 0.00187891 0.00246344 0.01435926 0.00700521 0.03120724 0.00321453 0.00460402 0.07781382 0.00450653 0.01131005 0.01962454 0.00167985 
0.07891185 0.12061300 0.01412835 0.00434462 0.00188274 0.00246361 0.01405378 0.00693865 0.03208272 0.00321888 0.00455605 0.07754046 0.00446713 0.01129470 0.01956954 0.00169400 
0.07881164 0.12087128 0.01395472 0.00442630 0.00188526 0.00246306 0.01374932 0.00687195 0.03301098 0.00322061 0.00450553 0.07731888 0.00443309 0.01126943 0.01950309 0.00170759 
0.07858190 0.12103300 0.01376939 0.00450800 0.00188646 0.00246170 0.01344712 0.00680556 0.03398657 0.00321973 0.00445265 0.07714832 0.00440445 0.01123417 0.01942522 0.00172056 
0.07822399 0.12109788 0.01357368 0.00458923 0.00188640 0.00245944 0.01314843 0.00673991 0.03500375 0.00321623 0.00439761 0.07702781 0.00438125 0.01118891 0.01933606 0.00173287 
0.07773977 0.12106612 0.01336897 0.00466951 0.00188510 0.00245620 0.01285448 0.00667544 0.03605655 0.00321015 0.00434060 0.07695616 0.00436351 0.01113367 0.01923576 0.00174447 
0.07713159 0.12093834 0.01315672 0.00474832 0.00188263 0.00245191 0.01256647 0.00661259 0.03713878 0.00320153 0.00428185 0.07693197 0.00435128 0.01106855 0.01912456 0.00175532 
0.07640229 0.12071561 0.01293846 0.00482518 0.00187905 0.00244653 0.01228558 0.00655181 0.03824410 0.00319044 0.00422159 0.07695366 0.00434462 0.01099369 0.01900278 0.00176537 
0.07555517 0.12039947 0.01271576 0.00489960 0.00187444 0.00243998 0.01201297 0.00649352 0.03936605 0.00317696 0.00416006 0.07701950 0.00434358 0.01090927 0.01887079 0.00177459 
0.07459399 0.11999192 0.01249023 0.00497107 0.00186889 0.00243224 0.01174975 0.00643815 0.04049809 0.00316119 0.00409751 0.07712761 0.00434821 0.01081556 0.01872903 0.00178294 
0.07352293 0.11949541 0.01226354 0.00503914 0.00186251 0.00242327 0.01149699 0.00638613 0.04163363 0.00314326 0.00403418 0.07727598 0.00435858 0.01071285 0.01857802 0.00179038 
0.07234657 0.11891287 0.01203736 0.00510335 0.00185539 0.00241305 0.01125573 0.00633786 0.04276611 0.00312330 0.00397036 0.07746250 0.00437475 0.01060151 0.01841833 0.00179688 
0.07106989 0.11824766 0.01181338 0.00516325 0.00184767 0.00240156 0.01102693 0.00629373 0.04388900 0.00310146 0.00390630 0.07768497 0.00439679 0.01048195 0.01825062 0.00180242 
0.06969821 0.11750358 0.01159333 0.00521843 0.00183947 0.00238882 0.01081152 0.00625414 0.04499589 0.00307792 0.00384228 0.07794113 0.00442478 0.01035465 0.01807558 0.00180697 
0.06823719 0.11668486 0.01137889 0.00526850 0.00183093 0.00237483 0.01061034 0.00621942 0.04608047 0.00305287 0.00377857 0.07822867 0.00445877 0.01022011 0.01789398 0.00181051 
0.06669279 0.11579614 0.01117175 0.00531309 0.00182220 0.00235962 0.01042419 0.00618995 0.04713663 0.00302650 0.00371546 0.07854525 0.00449883 0.01007891 0.01770665 0.00181302 
0.06507125 0.11484248 0.01097359 0.00535187 0.00181343 0.00234322 0.01025379 0.00616603 0.04815846 0.00299902 0.00365321 0.07888851 0.00454503 0.00993166 0.01751447 0.00181450 
0.06337904 0.11382927 0.01078602 0.00538454 0.00180479 0.00232568 0.01009980 0.00614797 0.04914031 0.00297066 0.00359212 0.07925612 0.00459741 0.00977902 0.01731837 0.00181492 
0.06162287 0.11276228 0.01061064 0.00541083 0.00179642 0.00230707 0.00996279 0.00613604 0.05007681 0.00294166 0.00353244 0.07964574 0.00465604 0.00962170 0.01711932 0.00181429 
0.05980961 0.11164758 0.01044899 0.00543053 0.00178851 0.00228745 0.00984326 0.00613049 0.05096292 0.00291226 0.00347446 0.08005509 0.00472094 0.00946042 0.01691835 0.00181260 
0.05794629 0.11049155 0.01030252 0.00544344 0.00178122 0.00226691 0.00974163 0.00613154 0.05179394 0.00288270 0.00341843 0.08048191 0.00479214 0.00929598 0.01671651 0.00180986 
0.05604005 0.10930082 0.01017263 0.00544944 0.00177473 0.00224554 0.00965823 0.00613938 0.05256555 0.00285326 0.00336462 0.08092404 0.00486966 0.00912918 0.01651490 0.00180607 
0.05409812 0.10808225 0.01006064 0.00544840 0.00176920 0.00222344 0.00959333 0.00615417 0.05327385 0.00282419 0.00331328 0.08137935 0.00495350 0.00896084 0.01631464 0.00180124 
0.05212781 0.10684290 0.00996778 0.00544030 0.00176481 0.00220074 0.00954710 0.00617604 0.05391535 0.00279575 0.00326464 0.08184581 0.00504363 0.00879184 0.01611686 0.00179540 
0.05013642 0.10558996 0.00989516 0.00542510 0.00176174 0.00217756 0.00951962 0.00620506 0.05448701 0.00276821 0.00321894 0.08232146 0.00514001 0.00862304 0.01592273 0.00178855 
0.04813126 0.10433077 0.00984379 0.00540286 0.00176015 0.00215403 0.00951091 0.00624130 0.05498626 0.00274185 0.00317639 0.08280445 0.00524259 0.00845533 0.01573342 0.00178072 
0.04611961 0.10307271 0.00981459 0.00537365 0.00176020 0.00213029 0.00952088 0.00628478 0.05541101 0.00271691 0.00313721 0.08329301 0.00535127 0.00828961 0.01555010 0.00177194 
0.04410866 0.10182322 0.00980833 0.00533761 0.00176206 0.00210650 0.00954938 0.00633547 0.05575966 0.00269367 0.00310158 0.08378548 0.00546594 0.00812679 0.01537393 0.00176224 
0.04210553 0.10058973 0.00982567 0.00529491 0.00176588 0.00208281 0.00959617 0.00639332 0.05603108 0.00267237 0.00306968 0.08428029 0.00558648 0.00796776 0.01520609 0.00175166 
0.04011721 0.09937959 0.00986712 0.00524576 0.00177181 0.00205938 0.00966093 0.00645823 0.05622467 0.00265327 0.00304166 0.08477597 0.00571270 0.00781342 0.01504770 0.00174022 
0.03815054 0.09820010 0.00993308 0.00519044 0.00177997 0.00203640 0.00974327 0.00653007 0.05634030 0.00263659 0.00301767 0.08527114 0.00584441 0.00766465 0.01489991 0.00172799 
0.03621217 0.09705840 0.01002379 0.00512925 0.00179052 0.00201402 0.00984273 0.00660865 0.05637835 0.00262257 0.00299783 0.08576454 0.00598138 0.00752231 0.01476379 0.00171500 
0.03430856 0.09596146 0.01013936 0.00506252 0.00180355 0.00199244 0.00995877 0.00669377 0.05633967 0.00261142 0.00298226 0.08625498 0.00612335 0.00738725 0.01464041 0.00170131 
0.03244596 0.09491602 0.01027974 0.00499065 0.00181918 0.00197181 0.01009078 0.00678518 0.05622559 0.00260334 0.00297102 0.08674136 0.00627002 0.00726029 0.01453079 0.00168696 
0.03063036 0.09392859 0.01044474 0.00491406 0.00183750 0.00195234 0.01023811 0.00688258 0.05603792 0.00259851 0.00296419 0.08722267 0.00642108 0.00714219 0.01443588 0.00167201 
0.02886748 0.09300536 0.01063403 0.00483320 0.00185860 0.00193420 0.01040003 0.00698565 0.05577889 0.00259710 0.00296181 0.08769796 0.00657615 0.00703370 0.01435659 0.00165652 
0.02716278 0.09215219 0.01084713 0.00474855 0.00188254 0.00191757 0.01057576 0.00709403 0.05545117 0.00259925 0.00296391 0.08816636 0.00673485 0.00693554 0.01429378 0.00164056 
0.02552140 0.09137458 0.01108342 0.00466063 0.00190938 0.00190263 0.01076447 0.00720732 0.05505782 0.00260511 0.00297049 0.08862706 0.00689674 0.00684834 0.01424822 0.00162418 
0.02394817 0.09067764 0.01134212 0.00456997 0.00193914 0.00188955 0.01096530 0.00732508 0.05460229 0.00261478 0.00298152 0.08907930 0.00706136 0.00677270 0.01422061 0.00160745 
0.02244759 0.09006600 0.01162232 0.00447713 0.00197185 0.00187852 0.01117734 0.00744686 0.05408839 0.00262834 0.00299698 0.08952238 0.00722824 0.00670918 0.01421159 0.00159044 
0.02102382 0.08954389 0.01192299 0.00438268 0.00200753 0.00186969 0.01139963 0.00757217 0.05352023 0.00264586 0.00301679 0.08995562 0.00739683 0.00665826 0.01422169 0.00157322 
0.01968068 0.08911502 0.01224294 0.00428722 0.00204614 0.00186323 0.01163122 0.00770047 0.05290223 0.00266738 0.00304088 0.09037839 0.00756661 0.00662036 0.01425135 0.00155585 
0.01842161 0.08878258 0.01258088 0.00419134 0.00208767 0.00185930 0.01187111 0.00783123 0.05223907 0.00269293 0.00306914 0.09079008 0.00773698 0.00659583 0.01430095 0.00153841 
0.01724970 0.08854927 0.01293538 0.00409565 0.00213206 0.00185804 0.01211828 0.00796388 0.05153563 0.00272250 0.00310145 0.09119010 0.00790736 0.00658495 0.01437074 0.00152097 
0.01616764 0.08841721 0.01330491 0.00400076 0.00217925 0.00185959 0.01237172 0.00809782 0.05079701 0.00275605 0.00313766 0.09157787 0.00807712 0.00658795 0.01446087 0.00150360 
0.01517779 0.08838798 0.01368783 0.00390727 0.00222916 0.00186408 0.01263039 0.00823246 0.05002845 0.00279354 0.00317762 0.09195284 0.00824563 0.00660496 0.01457140 0.00148637 
0.01428209 0.08846259 0.01408241 0.00381579 0.00228168 0.00187163 0.01289327 0.00836717 0.04923531 0.00283489 0.00322114 0.09231446 0.00841223 0.00663605 0.01470228 0.00146935 
0.01348212 0.08864147 0.01448681 0.00372690 0.00233670 0.00188235 0.01315934 0.00850131 0.04842301 0.00287998 0.00326802 0.09266216 0.00857625 0.00668120 0.01485336 0.00145261 
0.01277908 0.08892449 0.01489913 0.00364119 0.00239408 0.00189633 0.01342759 0.00863426 0.04759705 0.00292871 0.00331806 0.09299539 0.00873702 0.00674033 0.01502435 0.00143621 
0.01217380 0.08931093 0.01531741 0.00355922 0.00245366 0.00191365 0.01369701 0.00876536 0.04676290 0.00298091 0.00337102 0.09331362 0.00889386 0.00681326 0.01521489 0.00142023 
0.01166673 0.08979950 0.01573960 0.00348153 0.00251528 0.00193440 0.01396664 0.00889396 0.04592602 0.00303642 0.00342665 0.09361628 0.00904609 0.00689976 0.01542448 0.00140473 
0.01125795 0.09038836 0.01616363 0.00340863 0.00257876 0.00195861 0.01423553 0.00901943 0.04509180 0.00309503 0.00348470 0.09390284 0.00919303 0.00699950 0.01565253 0.00138976 
0.01094720 0.09107510 0.01658738 0.00334102 0.00264389 0.00198633 0.01450276 0.00914112 0.04426551 0.00315654 0.00354490 0.09417276 0.00933401 0.00711210 0.01589834 0.00137540 
0.01073384 0.09185679 0.01700870 0.00327915 0.00271045 0.00201760 0.01476744 0.00925841 0.04345230 0.00322071 0.00360697 0.09442549 0.00946838 0.00723707 0.01616110 0.00136169 
0.01061693 0.09272996 0.01742543 0.00322345 0.00277822 0.00205241 0.01502873 0.00937068 0.04265715 0.00328728 0.00367062 0.09466052 0.00959548 0.00737389 0.01643990 0.00134868 
0.01059515 0.09369065 0.01783541 0.00317432 0.00284696 0.00209077 0.01528582 0.00947732 0.04188484 0.00335598 0.00373556 0.09487734 0.00971470 0.00752195 0.01673373 0.00133643 
0.01066689 0.09473444 0.01823648 0.00313209 0.00291641 0.00213266 0.01553797 0.00957777 0.04113992 0.00342653 0.00380147 0.09507546 0.00982544 0.00768058 0.01704149 0.00132498 
0.01083023 0.09585644 0.01862652 0.00309709 0.00298631 0.00217804 0.01578444 0.00967146 0.04042668 0.00349861 0.00386806 0.09525443 0.00992712 0.00784903 0.01736198 0.00131437 
0.01108294 0.09705134 0.01900341 0.00306957 0.00305639 0.00222687 0.01602459 0.00975787 0.03974914 0.00357193 0.00393500 0.09541383 0.01001922 0.00802653 0.01769392 0.00130463 
0.01142252 0.09831344 0.01936511 0.00304976 0.00312636 0.00227907 0.01625780 0.00983649 0.03911101 0.00364614 0.00400199 0.09555328 0.01010122 0.00821222 0.01803597 0.00129580 
0.01184620 0.09963669 0.01970959 0.00303783 0.00319594 0.00233456 0.01648351 0.00990687 0.03851567 0.00372092 0.00406872 0.09567245 0.01017268 0.00840522 0.01838667 0.00128791 
0.01235097 0.10101470 0.02003494 0.00303393 0.00326484 0.00239325 0.01670123 0.00996856 0.03796618 0.00379592 0.00413487 0.09577107 0.01023317 0.00860458 0.01874456 0.00128096 
0.01293356 0.10244082 0.02033928 0.00303812 0.00333276 0.00245503 0.01691052 0.01002119 0.03746523 0.00387079 0.00420013 0.09584895 0.01028232 0.00880932 0.01910806 0.00127498 
0.01359052 0.10390812 0.02062085 0.00305043 0.00339940 0.00251976 0.01711096 0.01006441 0.03701514 0.00394519 0.00426420 0.09590594 0.01031983 0.00901845 0.01947558 0.00126998 
0.01431817 0.10540948 0.02087795 0.00307087 0.00346447 0.00258731 0.01730224 0.01009791 0.03661785 0.00401875 0.00432678 0.09594202 0.01034543 0.00923091 0.01984547 0.00126596 
0.01511266 0.10693760 0.02110904 0.00309935 0.00352766 0.00265751 0.01748408 0.01012144 0.03627494 0.00409114 0.00438757 0.09595723 0.01035892 0.00944566 0.02021606 0.00126291 
0.01596998 0.10848507 0.02131265 0.00313577 0.00358867 0.00273021 0.01765623 0.01013478 0.03598757 0.00416199 0.00444630 0.09595170 0.01036014 0.00966161 0.02058564 0.00126084 
0.01688598 0.11004435 0.02148746 0.00317998 0.00364723 0.00280521 0.01781854 0.01013779 0.03575653 0.00423097 0.00450269 0.09592568 0.01034901 0.00987769 0.02095251 0.00125972 
0.01785636 0.11160788 0.02163227 0.00323176 0.00370303 0.00288232 0.01797087 0.01013036 0.03558222 0.00429774 0.00455648 0.09587954 0.01032550 0.01009280 0.02131493 0.00125953 
0.01887674 0.11316810 0.02174602 0.00329087 0.00375581 0.00296134 0.01811315 0.01011243 0.03546466 0.00436196 0.00460742 0.09581372 0.01028967 0.01030587 0.02167120 0.00126026 
0.01994264 0.11471745 0.02182782 0.00335701 0.00380529 0.00304205 0.01824535 0.01008402 0.03540348 0.00442334 0.00465528 0.09572883 0.01024160 0.01051583 0.02201960 0.00126186 
0.02104952 0.11624848 0.02187691 0.00342986 0.00385121 0.00312422 0.01836749 0.01004518 0.03539796 0.00448155 0.00469983 0.09562555 0.01018148 0.01072160 0.02235848 0.00126429 
0.02219277 0.11775381 0.02189270 0.00350905 0.00389333 0.00320762 0.01847962 0.00999602 0.03544702 0.00453631 0.00474088 0.09550471 0.01010953 0.01092217 0.02268617 0.00126753 
0.02336778 0.11922623 0.02187474 0.00359416 0.00393141 0.00329200 0.01858183 0.00993672 0.03554923 0.00458736 0.00477823 0.09536724 0.01002606 0.01111651 0.02300108 0.00127150 
0.02456990 0.12065873 0.02182278 0.00368476 0.00396523 0.00337711 0.01867424 0.00986749 0.03570283 0.00463442 0.00481171 0.09521420 0.00993141 0.01130366 0.02330166 0.00127617 
0.02579452 0.12204450 0.02173673 0.00378037 0.00399460 0.00346269 0.01875703 0.00978863 0.03590579 0.00467728 0.00484118 0.09504677 0.00982603 0.01148268 0.02358642 0.00128147 
0.02703701 0.12337698 0.02161664 0.00388050 0.00401932 0.00354847 0.01883036 0.00970046 0.03615574 0.00471571 0.00486649 0.09486621 0.00971038 0.01165269 0.02385396 0.00128734 
0.02829283 0.12464991 0.02146278 0.00398461 0.00403923 0.00363420 0.01889446 0.00960337 0.03645010 0.00474953 0.00488754 0.09467392 0.00958501 0.01181284 0.02410294 0.00129370 
0.02955748 0.12585734 0.02127557 0.00409218 0.00405418 0.00371960 0.01894954 0.00949779 0.03678600 0.00477857 0.00490423 0.09447137 0.00945051 0.01196235 0.02433210 0.00130048 
0.03082653 0.12699365 0.02105559 0.00420263 0.00406405 0.00380439 0.01899585 0.00938423 0.03716039 0.00480268 0.00491648 0.09426012 0.00930754 0.01210049 0.02454030 0.00130761 
0.03209566 0.12805362 0.02080360 0.00431539 0.00406873 0.00388830 0.01903364 0.00926320 0.03757000 0.00482175 0.00492424 0.09404183 0.00915680 0.01222660 0.02472649 0.00131501 
0.03336066 0.12903239 0.02052054 0.00442987 0.00406814 0.00397106 0.01906319 0.00913530 0.03801141 0.00483569 0.00492749 0.09381819 0.00899901 0.01234010 0.02488972 0.00132258 
0.03461742 0.12992553 0.02020750 0.00454548 0.00406223 0.00405239 0.01908475 0.00900114 0.03848106 0.00484443 0.00492620 0.09359098 0.00883499 0.01244045 0.02502918 0.00133025 
0.03586201 0.13072903 0.01986573 0.00466162 0.00405096 0.00413202 0.01909860 0.00886139 0.03897528 0.00484794 0.00492038 0.09336199 0.00866553 0.01252720 0.02514416 0.00133792 
0.03709063 0.13143934 0.01949664 0.00477770 0.00403432 0.00420969 0.01910500 0.00871675 0.03949031 0.00484621 0.00491005 0.09313307 0.00849151 0.01259998 0.02523409 0.00134550 
0.03829963 0.13205336 0.01910179 0.00489311 0.00401233 0.00428512 0.01910423 0.00856794 0.04002234 0.00483925 0.00489527 0.09290604 0.00831380 0.01265849 0.02529850 0.00135289 
0.03948558 0.13256847 0.01868288 0.00500728 0.00398503 0.00435807 0.01909653 0.00841574 0.04056753 0.00482712 0.00487610 0.09268276 0.00813332 0.01270251 0.02533709 0.00136001 
0.04064520 0.13298250 0.01824175 0.00511964 0.00395249 0.00442827 0.01908215 0.00826092 0.04112204 0.00480989 0.00485261 0.09246503 0.00795098 0.01273191 0.02534967 0.00136676 
0.04177543 0.13329380 0.01778034 0.00522962 0.00391480 0.00449549 0.01906131 0.00810430 0.04168204 0.00478765 0.00482492 0.09225465 0.00776774 0.01274662 0.02533620 0.00137304 
0.04287341 0.13350118 0.01730076 0.00533669 0.00387207 0.00455949 0.01903425 0.00794671 0.04224379 0.00476053 0.00479314 0.09205334 0.00758453 0.01274666 0.02529677 0.00137876 
0.04393648 0.13360395 0.01680517 0.00544033 0.00382445 0.00462004 0.01900115 0.00778898 0.04280358 0.00472869 0.00475740 0.09186278 0.00740231 0.01273215 0.02523161 0.00138383 
0.04496223 0.13360187 0.01629587 0.00554003 0.00377211 0.00467694 0.01896220 0.00763197 0.04335783 0.00469230 0.00471786 0.09168453 0.00722203 0.01270325 0.02514107 0.00138815 
0.04594846 0.13349521 0.01577522 0.00563534 0.00371523 0.00472997 0.01891755 0.00747652 0.04390307 0.00465156 0.00467467 0.09152009 0.00704463 0.01266023 0.02502566 0.00139164 
0.04689319 0.13328470 0.01524567 0.00572580 0.00365402 0.00477895 0.01886736 0.00732351 0.04443599 0.00460668 0.00462802 0.09137083 0.00687103 0.01260341 0.02488600 0.00139420 
0.04779469 0.13297152 0.01470973 0.00581103 0.00358872 0.00482370 0.01881173 0.00717376 0.04495340 0.00455792 0.00457810 0.09123798 0.00670215 0.01253320 0.02472285 0.00139576 
0.04865145 0.13255728 0.01416997 0.00589063 0.00351960 0.00486405 0.01875077 0.00702814 0.04545235 0.00450552 0.00452510 0.09112266 0.00653887 0.01245008 0.02453708 0.00139624 
0.04946221 0.13204404 0.01362897 0.00596428 0.00344692 0.00489987 0.01868455 0.00688746 0.04593003 0.00444977 0.00446925 0.09102580 0.00638205 0.01235457 0.02432970 0.00139555 
0.05022593 0.13143426 0.01308938 0.00603168 0.00337098 0.00493102 0.01861313 0.00675254 0.04638389 0.00439097 0.00441076 0.09094821 0.00623251 0.01224729 0.02410180 0.00139362 
0.05094181 0.13073078 0.01255381 0.00609255 0.00329209 0.00495738 0.01853655 0.00662416 0.04681156 0.00432941 0.00434986 0.09089051 0.00609103 0.01212889 0.02385461 0.00139040 
0.05160927 0.12993684 0.01202492 0.00614670 0.00321060 0.00497886 0.01845482 0.00650309 0.04721094 0.00426542 0.00428679 0.09085313 0.00595838 0.01200009 0.02358943 0.00138581 
0.05222796 0.12905599 0.01150532 0.00619393 0.00312683 0.00499538 0.01836794 0.00639005 0.04758014 0.00419933 0.00422179 0.09083634 0.00583524 0.01186164 0.02330766 0.00137980 
0.05279774 0.12809212 0.01099760 0.00623410 0.00304116 0.00500688 0.01827590 0.00628574 0.04791754 0.00413147 0.00415511 0.09084022 0.00572226 0.01171437 0.02301078 0.00137233 
0.05331870 0.12704941 0.01050433 0.00626713 0.00295395 0.00501332 0.01817867 0.00619082 0.04822177 0.00406220 0.00408700 0.09086463 0.00562003 0.01155910 0.02270036 0.00136335 
0.05379110 0.12593230 0.01002800 0.00629295 0.00286558 0.00501466 0.01807620 0.00610590 0.04849170 0.00399184 0.00401771 0.09090929 0.00552911 0.01139673 0.02237800 0.00135283 
0.05421542 0.12474546 0.00957105 0.00631156 0.00277644 0.00501092 0.01796844 0.00603155 0.04872648 0.00392077 0.00394749 0.09097369 0.00544997 0.01122815 0.02204537 0.00134073 
0.05459233 0.12349379 0.00913583 0.00632298 0.00268693 0.00500210 0.01785534 0.00596828 0.04892550 0.00384931 0.00387659 0.09105715 0.00538302 0.01105430 0.02170420 0.00132704 
0.05492263 0.12218235 0.00872459 0.00632728 0.00259746 0.00498825 0.01773683 0.00591657 0.04908839 0.00377783 0.00380527 0.09115882 0.00532862 0.01087613 0.02135623 0.00131174 
0.05520733 0.12081635 0.00833950 0.00632458 0.00250841 0.00496941 0.01761285 0.00587682 0.04921505 0.00370666 0.00373378 0.09127766 0.00528706 0.01069460 0.02100321 0.00129483 
0.05544756 0.11940110 0.00798260 0.00631501 0.00242020 0.00494567 0.01748334 0.00584939 0.04930560 0.00363614 0.00366236 0.09141249 0.00525857 0.01051065 0.02064694 0.00127631 
0.05564459 0.11794202 0.00765580 0.00629876 0.00233323 0.00491711 0.01734823 0.00583456 0.04936040 0.00356659 0.00359126 0.09156194 0.00524329 0.01032527 0.02028919 0.00125619 
0.05579982 0.11644454 0.00736088 0.00627604 0.00224790 0.00488385 0.01720747 0.00583257 0.04938003 0.00349834 0.00352071 0.09172454 0.00524131 0.01013940 0.01993172 0.00123449 
0.05591474 0.11491415 0.00709946 0.00624712 0.00216460 0.00484603 0.01706103 0.00584359 0.04936527 0.00343169 0.00345094 0.09189867 0.00525265 0.00995399 0.01957629 0.00121124 
0.05599094 0.11335629 0.00687302 0.00621226 0.00208373 0.00480380 0.01690887 0.00586773 0.04931712 0.00336693 0.00338218 0.09208259 0.00527726 0.00976997 0.01922461 0.00118647 
0.05603010 0.11177639 0.00668287 0.00617178 0.00200565 0.00475733 0.01675098 0.00590501 0.04923673 0.00330434 0.00331465 0.09227448 0.00531502 0.00958824 0.01887834 0.00116023 
0.05603395 0.11017978 0.00653014 0.00612601 0.00193074 0.00470681 0.01658736 0.00595541 0.04912545 0.00324418 0.00324855 0.09247244 0.00536573 0.00940968 0.01853912 0.00113257 
0.05600427 0.10857171 0.00641579 0.00607532 0.00185935 0.00465243 0.01641805 0.00601885 0.04898477 0.00318670 0.00318408 0.09267449 0.00542916 0.00923514 0.01820850 0.00110355 
0.05594286 0.10695728 0.00634060 0.00602008 0.00179182 0.00459443 0.01624310 0.00609516 0.04881632 0.00313211 0.00312144 0.09287863 0.00550498 0.00906542 0.01788797 0.00107323 
0.05585155 0.10534146 0.00630515 0.00596068 0.00172848 0.00453305 0.01606258 0.00618413 0.04862186 0.00308063 0.00306080 0.09308281 0.00559281 0.00890131 0.01757894 0.00104169 
0.05573218 0.10372901 0.00630984 0.00589755 0.00166962 0.00446852 0.01587661 0.00628546 0.04840323 0.00303244 0.00300235 0.09328502 0.00569221 0.00874353 0.01728274 0.00100902 
0.05558655 0.10212453 0.00635485 0.00583109 0.00161555 0.00440112 0.01568531 0.00639881 0.04816239 0.00298770 0.00294624 0.09348321 0.00580270 0.00859274 0.01700059 0.00097529 
0.05541647 0.10053235 0.00644018 0.00576176 0.00156651 0.00433113 0.01548886 0.00652377 0.04790134 0.00294655 0.00289261 0.09367541 0.00592372 0.00844960 0.01673362 0.00094062 
0.05522369 0.09895659 0.00656564 0.00568997 0.00152276 0.00425882 0.01528747 0.00665988 0.04762217 0.00290911 0.00284163 0.09385968 0.00605466 0.00831466 0.01648287 0.00090509 
0.05500991 0.09740110 0.00673083 0.00561618 0.00148450 0.00418451 0.01508136 0.00680661 0.04732698 0.00287548 0.00279340 0.09403416 0.00619489 0.00818845 0.01624923 0.00086881 
0.05477678 0.09586946 0.00693515 0.00554082 0.00145195 0.00410850 0.01487083 0.00696340 0.04701790 0.00284573 0.00274806 0.09419708 0.00634371 0.00807143 0.01603352 0.00083190 
0.05452586 0.09436495 0.00717781 0.00546434 0.00142525 0.00403110 0.01465619 0.00712961 0.04669707 0.00281992 0.00270571 0.09434679 0.00650039 0.00796401 0.01583639 0.00079448 
0.05425864 0.09289058 0.00745784 0.00538716 0.00140455 0.00395263 0.01443777 0.00730457 0.04636660 0.00279807 0.00266644 0.09448174 0.00666416 0.00786653 0.01565842 0.00075666 
0.05397651 0.09144902 0.00777405 0.00530971 0.00138997 0.00387343 0.01421598 0.00748758 0.04602860 0.00278019 0.00263036 0.09460056 0.00683422 0.00777926 0.01550003 0.00071857 
0.05368078 0.09004267 0.00812511 0.00523240 0.00138158 0.00379381 0.01399124 0.00767788 0.04568513 0.00276627 0.00259753 0.09470199 0.00700975 0.00770244 0.01536153 0.00068034 
0.05337264 0.08867358 0.00850948 0.00515563 0.00137944 0.00371411 0.01376401 0.00787468 0.04533819 0.00275627 0.00256802 0.09478496 0.00718989 0.00763621 0.01524310 0.00064211 
0.05305317 0.08734350 0.00892548 0.00507979 0.00138357 0.00363466 0.01353478 0.00807717 0.04498974 0.00275013 0.00254188 0.09484858 0.00737378 0.00758069 0.01514481 0.00060399 
0.05272334 0.08605388 0.00937125 0.00500523 0.00139397 0.00355579 0.01330411 0.00828450 0.04464165 0.00274780 0.00251918 0.09489213 0.00756053 0.00753591 0.01506660 0.00056613 
0.05238402 0.08480585 0.00984479 0.00493230 0.00141060 0.00347782 0.01307254 0.00849582 0.04429569 0.00274917 0.00249994 0.09491510 0.00774926 0.00750184 0.01500829 0.00052866 
0.05203594 0.08360024 0.01034395 0.00486132 0.00143340 0.00340108 0.01284069 0.00871024 0.04395357 0.00275414 0.00248420 0.09491716 0.00793908 0.00747842 0.01496957 0.00049172 
0.05167972 0.08243758 0.01086646 0.00479260 0.00146226 0.00332588 0.01260918 0.00892686 0.04361687 0.00276258 0.00247198 0.09489820 0.00812908 0.00746551 0.01495006 0.00045544 
0.05131589 0.08131813 0.01140992 0.00472640 0.00149706 0.00325254 0.01237867 0.00914480 0.04328709 0.00277436 0.00246330 0.09485830 0.00831839 0.00746292 0.01494922 0.00041996 
0.05094483 0.08024189 0.01197183 0.00466298 0.00153765 0.00318135 0.01214984 0.00936315 0.04296558 0.00278934 0.00245815 0.09479774 0.00850611 0.00747042 0.01496646 0.00038540 
0.05056684 0.07920858 0.01254960 0.00460254 0.00158384 0.00311260 0.01192340 0.00958102 0.04265360 0.00280734 0.00245654 0.09471701 0.00869139 0.00748774 0.01500106 0.00035189 
0.05018212 0.07821771 0.01314054 0.00454529 0.00163542 0.00304656 0.01170007 0.00979752 0.04235228 0.00282820 0.00245846 0.09461678 0.00887337 0.00751453 0.01505222 0.00031957 
0.04979075 0.07726855 0.01374191 0.00449139 0.00169215 0.00298352 0.01148059 0.01001178 0.04206263 0.00285175 0.00246390 0.09449794 0.00905124 0.00755043 0.01511908 0.00028855 
0.04939275 0.07636019 0.01435091 0.00444096 0.00175377 0.00292371 0.01126572 0.01022294 0.04178553 0.00287779 0.00247283 0.09436151 0.00922419 0.00759504 0.01520068 0.00025896 
0.04898804 0.07549154 0.01496471 0.00439413 0.00181998 0.00286736 0.01105620 0.01043017 0.04152175 0.00290613 0.00248524 0.09420872 0.00939147 0.00764791 0.01529601 0.00023090 
0.04857647 0.07466136 0.01558042 0.00435095 0.00189047 0.00281471 0.01085282 0.01063266 0.04127191 0.00293659 0.00250109 0.09404095 0.00955232 0.00770857 0.01540401 0.00020448 
0.04815785 0.07386827 0.01619519 0.00431148 0.00196492 0.00276594 0.01065634 0.01082963 0.04103654 0.00296897 0.00252035 0.09385971 0.00970607 0.00777652 0.01552355 0.00017982 
0.04773193 0.07311079 0.01680613 0.00427573 0.00204295 0.00272124 0.01046752 0.01102037 0.04081602 0.00300307 0.00254297 0.09366666 0.00985205 0.00785125 0.01565351 0.00015699 
0.04729840 0.07238737 0.01741039 0.00424371 0.00212420 0.00268077 0.01028713 0.01120415 0.04061063 0.00303869 0.00256891 0.09346355 0.00998965 0.00793220 0.01579269 0.00013610 
0.04685697 0.07169640 0.01800514 0.00421537 0.00220828 0.00264468 0.01011590 0.01138033 0.04042055 0.00307565 0.00259813 0.09325226 0.01011831 0.00801883 0.01593990 0.00011723 
0.04640729 0.07103623 0.01858762 0.00419065 0.00229477 0.00261308 0.00995457 0.01154831 0.04024584 0.00311375 0.00263056 0.09303473 0.01023752 0.00811058 0.01609394 0.00010044 
0.04594904 0.07040522 0.01915511 0.00416947 0.00238326 0.00258607 0.00980385 0.01170751 0.04008645 0.00315280 0.00266616 0.09281296 0.01034680 0.00820687 0.01625361 0.00008582 
0.04548190 0.06980175 0.01970496 0.00415173 0.00247331 0.00256373 0.00966442 0.01185744 0.03994225 0.00319264 0.00270486 0.09258899 0.01044575 0.00830714 0.01641771 0.00007341 
0.04500557 0.06922425 0.02023464 0.00413728 0.00256449 0.00254611 0.00953695 0.01199764 0.03981301 0.00323309 0.00274660 0.09236491 0.01053402 0.00841080 0.01658509 0.00006326 
0.04451979 0.06867122 0.02074169 0.00412600 0.00265634 0.00253324 0.00942207 0.01212772 0.03969844 0.00327398 0.00279132 0.09214278 0.01061129 0.00851731 0.01675458 0.00005543 
0.04402435 0.06814124 0.02122378 0.00411771 0.00274841 0.00252514 0.00932037 0.01224734 0.03959814 0.00331516 0.00283893 0.09192466 0.01067733 0.00862610 0.01692510 0.00004993 
0.04351909 0.06763304 0.02167870 0.00411223 0.00284025 0.00252179 0.00923239 0.01235622 0.03951166 0.00335648 0.00288937 0.09171257 0.01073195 0.00873664 0.01709557 0.00004680 
0.04300393 0.06714544 0.02210437 0.00410937 0.00293139 0.00252315 0.00915865 0.01245415 0.03943849 0.00339782 0.00294256 0.09150850 0.01077502 0.00884840 0.01726500 0.00004605 
0.04247886 0.06667745 0.02249888 0.00410892 0.00302139 0.00252916 0.00909960 0.01254096 0.03937807 0.00343904 0.00299842 0.09131432 0.01080646 0.00896089 0.01743242 0.00004768 
0.04194397 0.06622823 0.02286045 0.00411067 0.00310980 0.00253974 0.00905567 0.01261656 0.03932976 0.00348004 0.00305686 0.09113185 0.01082627 0.00907362 0.01759698 0.00005168 
0.04139945 0.06579715 0.02318748 0.00411440 0.00319616 0.00255479 0.00902720 0.01268091 0.03929292 0.00352071 0.00311778 0.09096279 0.01083448 0.00918614 0.01775785 0.00005806 
0.04084557 0.06538377 0.02347854 0.00411987 0.00328005 0.00257419 0.00901450 0.01273403 0.03926684 0.00356096 0.00318111 0.09080870 0.01083118 0.00929802 0.01791431 0.00006677 
0.04028275 0.06498784 0.02373239 0.00412685 0.00336104 0.00259779 0.00901781 0.01277601 0.03925081 0.00360072 0.00324673 0.09067105 0.01081654 0.00940889 0.01806571 0.00007780 
0.03971149 0.06460935 0.02394796 0.00413511 0.00343872 0.00262542 0.00903731 0.01280698 0.03924409 0.00363992 0.00331455 0.09055110 0.01079076 0.00951837 0.01821149 0.00009110 
0.03913243 0.06424851 0.02412437 0.00414442 0.00351270 0.00265691 0.00907313 0.01282713 0.03924591 0.00367851 0.00338445 0.09044998 0.01075408 0.00962616 0.01835118 0.00010661 
0.03854634 0.06390577 0.02426096 0.00415455 0.00358259 0.00269206 0.00912531 0.01283670 0.03925550 0.00371644 0.00345633 0.09036866 0.01070681 0.00973196 0.01848441 0.00012430 
0.03795410 0.06358178 0.02435724 0.00416527 0.00364804 0.00273065 0.00919386 0.01283600 0.03927209 0.00375367 0.00353006 0.09030790 0.01064930 0.00983554 0.01861088 0.00014407 
0.03735671 0.06327743 0.02441294 0.00417637 0.00370871 0.00277245 0.00927870 0.01282536 0.03929490 0.00379019 0.00360552 0.09026828 0.01058195 0.00993668 0.01873042 0.00016588 
0.03675532 0.06299385 0.02442797 0.00418762 0.00376428 0.00281721 0.00937968 0.01280517 0.03932315 0.00382598 0.00368258 0.09025020 0.01050518 0.01003521 0.01884292 0.00018962 
0.03615116 0.06273236 0.02440246 0.00419883 0.00381446 0.00286468 0.00949659 0.01277585 0.03935608 0.00386104 0.00376109 0.09025385 0.01041948 0.01013103 0.01894838 0.00021522 
0.03554562 0.06249448 0.02433673 0.00420980 0.00385900 0.00291459 0.00962917 0.01273786 0.03939295 0.00389536 0.00384092 0.09027921 0.01032534 0.01022403 0.01904690 0.00024258 
0.03494017 0.06228195 0.02423129 0.00422035 0.00389765 0.00296666 0.00977707 0.01269171 0.03943300 0.00392896 0.00392192 0.09032609 0.01022330 0.01031419 0.01913864 0.00027160 
0.03433638 0.06209667 0.02408685 0.00423031 0.00393022 0.00302060 0.00993988 0.01263791 0.03947551 0.00396186 0.00400392 0.09039408 0.01011393 0.01040148 0.01922389 0.00030218 
0.03373594 0.06194068 0.02390430 0.00423954 0.00395651 0.00307611 0.01011715 0.01257701 0.03951979 0.00399406 0.00408677 0.09048258 0.00999782 0.01048596 0.01930298 0.00033419 
0.03314060 0.06181619 0.02368473 0.00424788 0.00397639 0.00313291 0.01030833 0.01250959 0.03956515 0.00402561 0.00417030 0.09059080 0.00987558 0.01056769 0.01937634 0.00036753 
0.03255219 0.06172552 0.02342937 0.00425521 0.00398974 0.00319068 0.01051286 0.01243623 0.03961093 0.00405652 0.00425432 0.09071779 0.00974783 0.01064677 0.01944446 0.00040208 
0.03197262 0.06167106 0.02313967 0.00426143 0.00399649 0.00324912 0.01073007 0.01235754 0.03965651 0.00408682 0.00433865 0.09086239 0.00961522 0.01072336 0.01950792 0.00043771 
0.03140384 0.06165530 0.02281718 0.00426643 0.00399659 0.00330793 0.01095929 0.01227412 0.03970127 0.00411655 0.00442310 0.09102330 0.00947840 0.01079764 0.01956734 0.00047429 
0.03084781 0.06168074 0.02246365 0.00427015 0.00399003 0.00336679 0.01119975 0.01218657 0.03974463 0.00414573 0.00450747 0.09119907 0.00933801 0.01086979 0.01962339 0.00051170 
0.03030655 0.06174990 0.02208094 0.00427251 0.00397682 0.00342540 0.01145067 0.01209552 0.03978605 0.00417440 0.00459156 0.09138810 0.00919472 0.01094007 0.01967679 0.00054981 
0.02978206 0.06186530 0.02167105 0.00427347 0.00395702 0.00348347 0.01171122 0.01200157 0.03982499 0.00420257 0.00467516 0.09158866 0.00904919 0.01100873 0.01972831 0.00058849 
0.02927635 0.06202937 0.02123609 0.00427300 0.00393073 0.00354070 0.01198052 0.01190531 0.03986095 0.00423028 0.00475804 0.09179892 0.00890205 0.01107605 0.01977873 0.00062759 
0.02879140 0.06224450 0.02077828 0.00427108 0.00389806 0.00359679 0.01225767 0.01180733 0.03989347 0.00425754 0.00484000 0.09201697 0.00875395 0.01114233 0.01982886 0.00066700 
0.02832912 0.06251292 0.02029993 0.00426771 0.00385917 0.00365148 0.01254174 0.01170820 0.03992210 0.00428437 0.00492080 0.09224078 0.00860551 0.01120789 0.01987952 0.00070658 
0.02789141 0.06283674 0.01980343 0.00426290 0.00381424 0.00370449 0.01283176 0.01160846 0.03994643 0.00431076 0.00500021 0.09246829 0.00845734 0.01127306 0.01993153 0.00074620 
0.02748006 0.06321789 0.01929124 0.00425667 0.00376351 0.00375556 0.01312677 0.01150864 0.03996606 0.00433673 0.00507801 0.09269739 0.00831004 0.01133818 0.01998572 0.00078573 
0.02709678 0.06365808 0.01876587 0.00424905 0.00370721 0.00380443 0.01342577 0.01140923 0.03998063 0.00436227 0.00515396 0.09292594 0.00816416 0.01140359 0.02004287 0.00082506 
0.02674318 0.06415878 0.01822985 0.00424010 0.00364562 0.00385089 0.01372776 0.01131072 0.03998981 0.00438737 0.00522781 0.09315181 0.00802026 0.01146964 0.02010378 0.00086404 
0.02642075 0.06472119 0.01768576 0.00422986 0.00357905 0.00389469 0.01403175 0.01121352 0.03999328 0.00441200 0.00529934 0.09337285 0.00787884 0.01153667 0.02016918 0.00090258 
0.02613082 0.06534620 0.01713616 0.00421840 0.00350783 0.00393564 0.01433674 0.01111806 0.03999076 0.00443612 0.00536831 0.09358697 0.00774039 0.01160504 0.02023977 0.00094055 
0.02587460 0.06603438 0.01658364 0.00420579 0.00343232 0.00397353 0.01464174 0.01102470 0.03998199 0.00445972 0.00543448 0.09379210 0.00760536 0.01167507 0.02031622 0.00097785 
0.02565313 0.06678593 0.01603073 0.00419211 0.00335290 0.00400821 0.01494577 0.01093376 0.03996674 0.00448272 0.00549761 0.09398627 0.00747416 0.01174709 0.02039911 0.00101436 
0.02546725 0.06760070 0.01547994 0.00417742 0.00326997 0.00403950 0.01524789 0.01084555 0.03994479 0.00450508 0.00555749 0.09416756 0.00734718 0.01182141 0.02048898 0.00104999 
0.02531766 0.06847812 0.01493376 0.00416182 0.00318394 0.00406726 0.01554716 0.01076031 0.03991598 0.00452674 0.00561389 0.09433417 0.00722476 0.01189832 0.02058629 0.00108465 
0.02520483 0.06941720 0.01439457 0.00414539 0.00309525 0.00409137 0.01584268 0.01067826 0.03988013 0.00454761 0.00566658 0.09448440 0.00710719 0.01197808 0.02069141 0.00111824 
0.02512903 0.07041654 0.01386471 0.00412821 0.00300434 0.00411172 0.01613358 0.01059957 0.03983711 0.00456761 0.00571537 0.09461669 0.00699476 0.01206096 0.02080465 0.00115069 
0.02509034 0.07147427 0.01334642 0.00411037 0.00291169 0.00412823 0.01641904 0.01052438 0.03978683 0.00458665 0.00576005 0.09472962 0.00688766 0.01214717 0.02092621 0.00118192 
0.02508861 0.07258808 0.01284184 0.00409196 0.00281776 0.00414083 0.01669827 0.01045277 0.03972921 0.00460464 0.00580042 0.09482192 0.00678610 0.01223691 0.02105620 0.00121187 
0.02512347 0.07375520 0.01235300 0.00407304 0.00272303 0.00414946 0.01697055 0.01038481 0.03966418 0.00462147 0.00583632 0.09489251 0.00669021 0.01233033 0.02119465 0.00124047 
0.02519435 0.07497240 0.01188181 0.00405369 0.00262798 0.00415409 0.01723519 0.01032050 0.03959174 0.00463702 0.00586758 0.09494047 0.00660008 0.01242758 0.02134146 0.00126766 
0.02530044 0.07623598 0.01143005 0.00403399 0.00253309 0.00415472 0.01749155 0.01025983 0.03951187 0.00465119 0.00589404 0.09496506 0.00651577 0.01252874 0.02149646 0.00129341 
0.02544073 0.07754179 0.01099937 0.00401400 0.00243885 0.00415134 0.01773909 0.01020274 0.03942463 0.00466385 0.00591557 0.09496575 0.00643731 0.01263388 0.02165935 0.00131768 
0.02561396 0.07888522 0.01059124 0.00399376 0.00234575 0.00414398 0.01797729 0.01014913 0.03933006 0.00467488 0.00593205 0.09494221 0.00636468 0.01274303 0.02182974 0.00134043 
0.02581871 0.08026124 0.01020701 0.00397334 0.00225425 0.00413267 0.01820571 0.01009888 0.03922827 0.00468415 0.00594339 0.09489431 0.00629780 0.01285617 0.02200713 0.00136163 
0.02605333 0.08166440 0.00984785 0.00395277 0.00216483 0.00411748 0.01842399 0.01005185 0.03911937 0.00469154 0.00594950 0.09482212 0.00623659 0.01297326 0.02219093 0.00138128 
0.02631597 0.08308885 0.00951476 0.00393208 0.00207794 0.00409848 0.01863180 0.01000784 0.03900352 0.00469692 0.00595031 0.09472594 0.00618092 0.01309420 0.02238044 0.00139937 
0.02660462 0.08452833 0.00920859 0.00391130 0.00199403 0.00407576 0.01882893 0.00996665 0.03888091 0.00470018 0.00594580 0.09460626 0.00613061 0.01321886 0.02257486 0.00141588 
0.02691709 0.08597628 0.00893000 0.00389043 0.00191353 0.00404943 0.01901521 0.00992806 0.03875175 0.00470118 0.00593595 0.09446379 0.00608547 0.01334709 0.02277331 0.00143083 
0.02725102 0.08742580 0.00867948 0.00386948 0.00183685 0.00401960 0.01919054 0.00989182 0.03861630 0.00469982 0.00592075 0.09429943 0.00604527 0.01347868 0.02297482 0.00144423 
0.02760392 0.08886968 0.00845735 0.00384844 0.00176440 0.00398641 0.01935490 0.00985767 0.03847484 0.00469597 0.00590025 0.09411430 0.00600975 0.01361339 0.02317834 0.00145610 
0.02797318 0.09030049 0.00826373 0.00382730 0.00169654 0.00395001 0.01950834 0.00982533 0.03832769 0.00468955 0.00587449 0.09390969 0.00597863 0.01375095 0.02338273 0.00146646 
0.02835607 0.09171057 0.00809861 0.00380602 0.00163363 0.00391055 0.01965098 0.00979451 0.03817520 0.00468044 0.00584356 0.09368709 0.00595160 0.01389106 0.02358680 0.00147534 
0.02874977 0.09309211 0.00796176 0.00378458 0.00157599 0.00386821 0.01978300 0.00976492 0.03801774 0.00466857 0.00580755 0.09344817 0.00592834 0.01403337 0.02378930 0.00148278 
0.02915140 0.09443715 0.00785283 0.00376294 0.00152393 0.00382316 0.01990466 0.00973626 0.03785573 0.00465385 0.00576661 0.09319476 0.00590850 0.01417751 0.02398891 0.00148882 
0.02955802 0.09573767 0.00777128 0.00374103 0.00147772 0.00377560 0.02001626 0.00970824 0.03768962 0.00463623 0.00572087 0.09292883 0.00589171 0.01432310 0.02418430 0.00149351 
0.02996666 0.09698560 0.00771640 0.00371880 0.00143760 0.00372573 0.02011818 0.00968056 0.03751988 0.00461565 0.00567054 0.09265253 0.00587762 0.01446970 0.02437408 0.00149690 
0.03037435 0.09817290 0.00768738 0.00369619 0.00140380 0.00367374 0.02021086 0.00965292 0.03734701 0.00459208 0.00561580 0.09236809 0.00586582 0.01461687 0.02455684 0.00149905 
0.03077814 0.09929160 0.00768321 0.00367312 0.00137650 0.00361985 0.02029478 0.00962505 0.03717154 0.00456550 0.00555689 0.09207790 0.00585594 0.01476415 0.02473119 0.00150000 
0.03117509 0.10033384 0.00770279 0.00364952 0.00135584 0.00356429 0.02037048 0.00959666 0.03699404 0.00453589 0.00549407 0.09178441 0.00584757 0.01491106 0.02489569 0.00149984 
0.03156235 0.10129193 0.00774487 0.00362532 0.00134196 0.00350726 0.02043854 0.00956751 0.03681508 0.00450327 0.00542760 0.09149019 0.00584031 0.01505709 0.02504896 0.00149862 
0.03193713 0.10215840 0.00780811 0.00360042 0.00133495 0.00344900 0.02049960 0.00953734 0.03663526 0.00446766 0.00535780 0.09119784 0.00583377 0.01520175 0.02518960 0.00149641 
0.03229674 0.10292605 0.00789104 0.00357475 0.00133486 0.00338973 0.02055431 0.00950594 0.03645522 0.00442912 0.00528497 0.09091004 0.00582755 0.01534451 0.02531628 0.00149329 
0.03263864 0.10358801 0.00799211 0.00354821 0.00134171 0.00332968 0.02060338 0.00947309 0.03627560 0.00438771 0.00520947 0.09062948 0.00582127 0.01548486 0.02542768 0.00148932 
0.03296040 0.10413778 0.00810971 0.00352074 0.00135550 0.00326908 0.02064751 0.00943861 0.03609704 0.00434350 0.00513164 0.09035889 0.00581455 0.01562228 0.02552256 0.00148459 
0.03325976 0.10456927 0.00824212 0.00349225 0.00137620 0.00320815 0.02068747 0.00940234 0.03592023 0.00429661 0.00505187 0.09010097 0.00580701 0.01575624 0.02559973 0.00147916 
0.03353465 0.10487687 0.00838761 0.00346265 0.00140372 0.00314714 0.02072400 0.00936415 0.03574583 0.00424715 0.00497055 0.08985842 0.00579831 0.01588622 0.02565809 0.00147311 
0.03378319 0.10505544 0.00854437 0.00343189 0.00143798 0.00308625 0.02075789 0.00932394 0.03557454 0.00419526 0.00488808 0.08963390 0.00578811 0.01601174 0.02569662 0.00146651 
0.03400372 0.10510045 0.00871060 0.00339988 0.00147883 0.00302572 0.02078992 0.00928161 0.03540704 0.00414111 0.00480488 0.08943002 0.00577609 0.01613228 0.02571438 0.00145944 
0.03419479 0.10500790 0.00888444 0.00336658 0.00152611 0.00296575 0.02082085 0.00923713 0.03524401 0.00408485 0.00472138 0.08924931 0.00576194 0.01624737 0.02571057 0.00145198 
0.03435521 0.10477444 0.00906407 0.00333193 0.00157964 0.00290657 0.02085147 0.00919046 0.03508613 0.00402670 0.00463801 0.08909422 0.00574540 0.01635654 0.02568448 0.00144420 
0.03448402 0.10439737 0.00924765 0.00329589 0.00163921 0.00284837 0.02088253 0.00914162 0.03493408 0.00396685 0.00455521 0.08896710 0.00572621 0.01645935 0.02563551 0.00143616 
0.03458053 0.10387468 0.00943338 0.00325842 0.00170456 0.00279137 0.02091479 0.00909064 0.03478850 0.00390554 0.00447343 0.08887020 0.00570415 0.01655537 0.02556323 0.00142794 
0.03464432 0.10320506 0.00961948 0.00321951 0.00177543 0.00273574 0.02094896 0.00903759 0.03465006 0.00384301 0.00439310 0.08880562 0.00567902 0.01664422 0.02546730 0.00141961 
0.03467524 0.10238791 0.00980425 0.00317914 0.00185154 0.00268169 0.02098574 0.00898257 0.03451935 0.00377950 0.00431468 0.08877534 0.00565064 0.01672553 0.02534754 0.00141122 
0.03467339 0.10142341 0.00998600 0.00313733 0.00193257 0.00262939 0.02102580 0.00892569 0.03439699 0.00371529 0.00423859 0.08878118 0.00561889 0.01679895 0.02520392 0.00140285 
0.03463918 0.10031247 0.01016316 0.00309408 0.00201820 0.00257900 0.02106976 0.00886710 0.03428353 0.00365065 0.00416527 0.08882479 0.00558365 0.01686418 0.02503655 0.00139455 
0.03457326 0.09905676 0.01033420 0.00304944 0.00210808 0.00253068 0.02111820 0.00880700 0.03417951 0.00358588 0.00409514 0.08890767 0.00554485 0.01692094 0.02484568 0.00138638 
0.03447658 0.09765873 0.01049772 0.00300345 0.00220186 0.00248460 0.02117167 0.00874556 0.03408542 0.00352127 0.00402862 0.08903112 0.00550245 0.01696901 0.02463173 0.00137839 
0.03435033 0.09612158 0.01065238 0.00295617 0.00229915 0.00244088 0.02123066 0.00868302 0.03400172 0.00345711 0.00396609 0.08919627 0.00545644 0.01700817 0.02439527 0.00137063 
0.03419597 0.09444927 0.01079698 0.00290768 0.00239957 0.00239965 0.02129559 0.00861963 0.03392882 0.00339373 0.00390794 0.08940405 0.00540685 0.01703827 0.02413700 0.00136314 
0.03401519 0.09264651 0.01093041 0.00285808 0.00250272 0.00236104 0.02136685 0.00855565 0.03386707 0.00333141 0.00385452 0.08965520 0.00535373 0.01705917 0.02385778 0.00135597 
0.03380993 0.09071874 0.01105171 0.00280747 0.00260820 0.00232515 0.02144475 0.00849136 0.03381679 0.00327049 0.00380619 0.08995026 0.00529720 0.01707079 0.02355864 0.00134916 
0.03358235 0.08867209 0.01116001 0.00275600 0.00271561 0.00229207 0.02152954 0.00842706 0.03377822 0.00321125 0.00376324 0.09028958 0.00523736 0.01707309 0.02324070 0.00134273 
0.03333480 0.08651341 0.01125460 0.00270378 0.00282453 0.00226189 0.02162141 0.00836306 0.03375156 0.00315402 0.00372597 0.09067329 0.00517440 0.01706606 0.02290528 0.00133672 
0.03306983 0.08425016 0.01133490 0.00265100 0.00293454 0.00223467 0.02172048 0.00829968 0.03373692 0.00309908 0.00369465 0.09110133 0.00510850 0.01704973 0.02255376 0.00133116 
0.03279014 0.08189046 0.01140045 0.00259781 0.00304523 0.00221048 0.02182679 0.00823725 0.03373438 0.00304674 0.00366950 0.09157345 0.00503990 0.01702418 0.02218771 0.00132606 
0.03249861 0.07944300 0.01145095 0.00254441 0.00315618 0.00218937 0.02194032 0.00817610 0.03374393 0.00299727 0.00365073 0.09208921 0.00496886 0.01698952 0.02180878 0.00132144 
0.03219822 0.07691700 0.01148622 0.00249099 0.00326700 0.00217135 0.02206096 0.00811658 0.03376548 0.00295095 0.00363850 0.09264794 0.00489567 0.01694589 0.02141871 0.00131732 
0.03189205 0.07432221 0.01150624 0.00243778 0.00337727 0.00215647 0.02218856 0.00805901 0.03379890 0.00290803 0.00363295 0.09324884 0.00482065 0.01689349 0.02101938 0.00131371 
0.03158327 0.07166880 0.01151110 0.00238499 0.00348661 0.00214471 0.02232287 0.00800374 0.03384394 0.00286877 0.00363418 0.09389090 0.00474416 0.01683254 0.02061273 0.00131061 
0.03127510 0.06896736 0.01150103 0.00233287 0.00359462 0.00213609 0.02246358 0.00795108 0.03390033 0.00283338 0.00364224 0.09457293 0.00466657 0.01676331 0.02020077 0.00130802 
0.03097078 0.06622883 0.01147641 0.00228166 0.00370092 0.00213057 0.02261029 0.00790135 0.03396766 0.00280208 0.00365716 0.09529361 0.00458828 0.01668608 0.01978559 0.00130595 
0.03067357 0.06346443 0.01143771 0.00223162 0.00380516 0.00212813 0.02276255 0.00785487 0.03404550 0.00277505 0.00367892 0.09605143 0.00450971 0.01660119 0.01936931 0.00130439 
0.03038668 0.06068562 0.01138555 0.00218301 0.00390698 0.00212873 0.02291984 0.00781193 0.03413332 0.00275246 0.00370747 0.09684474 0.00443132 0.01650899 0.01895411 0.00130333 
0.03011329 0.05790404 0.01132065 0.00213610 0.00400605 0.00213231 0.02308156 0.00777280 0.03423049 0.00273445 0.00374272 0.09767178 0.00435357 0.01640987 0.01854216 0.00130276 
0.02985650 0.05513144 0.01124382 0.00209117 0.00410204 0.00213880 0.02324705 0.00773774 0.03433634 0.00272115 0.00378454 0.09853063 0.00427693 0.01630425 0.01813568 0.00130267 
0.02961928 0.05237963 0.01115599 0.00204849 0.00419464 0.00214813 0.02341560 0.00770700 0.03445012 0.00271264 0.00383275 0.09941928 0.00420191 0.01619256 0.01773686 0.00130304 
0.02940452 0.04966040 0.01105817 0.00200835 0.00428358 0.00216020 0.02358643 0.00768078 0.03457098 0.00270898 0.00388715 0.10033558 0.00412900 0.01607528 0.01734788 0.00130385 
0.02921491 0.04698547 0.01095144 0.00197101 0.00436857 0.00217491 0.02375871 0.00765928 0.03469803 0.00271023 0.00394749 0.10127733 0.00405872 0.01595287 0.01697088 0.00130508 
0.02905300 0.04436644 0.01083697 0.00193676 0.00444938 0.00219215 0.02393155 0.00764266 0.03483030 0.00271639 0.00401349 0.10224221 0.00399159 0.01582585 0.01660797 0.00130671 
0.02892111 0.04181470 0.01071598 0.00190586 0.00452577 0.00221179 0.02410404 0.00763104 0.03496675 0.00272743 0.00408483 0.10322785 0.00392814 0.01569473 0.01626118 0.00130871 
0.02882137 0.03934139 0.01058972 0.00187859 0.00459752 0.00223370 0.02427521 0.00762455 0.03510630 0.00274333 0.00416115 0.10423179 0.00386887 0.01556004 0.01593248 0.00131105 
0.02875566 0.03695732 0.01045950 0.00185520 0.00466445 0.00225774 0.02444405 0.00762323 0.03524779 0.00276399 0.00424208 0.10525155 0.00381433 0.01542233 0.01562375 0.00131372 
0.02872559 0.03467294 0.01032666 0.00183595 0.00472638 0.00228376 0.02460953 0.00762715 0.03539002 0.00278933 0.00432719 0.10628458 0.00376501 0.01528215 0.01533678 0.00131667 
0.02873252 0.03249825 0.01019253 0.00182107 0.00478318 0.00231158 0.02477059 0.00763629 0.03553176 0.00281920 0.00441605 0.10732831 0.00372143 0.01514005 0.01507323 0.00131988 
0.02877751 0.03044277 0.01005849 0.00181079 0.00483470 0.00234105 0.02492617 0.00765063 0.03567171 0.00285344 0.00450818 0.10838016 0.00368407 0.01499661 0.01483465 0.00132332 
0.02886131 0.02851548 0.00992585 0.00180532 0.00488083 0.00237199 0.02507516 0.00767012 0.03580855 0.00289188 0.00460309 0.10943749 0.00365342 0.01485239 0.01462246 0.00132696 
0.02898440 0.02672478 0.00979597 0.00180486 0.00492151 0.00240421 0.02521650 0.00769465 0.03594095 0.00293429 0.00470026 0.11049770 0.00362993 0.01470795 0.01443794 0.00133076 
0.02914690 0.02507840 0.00967013 0.00180960 0.00495664 0.00243753 0.02534908 0.00772409 0.03606753 0.00298043 0.00479916 0.11155817 0.00361404 0.01456385 0.01428219 0.00133470 
0.02934864 0.02358342 0.00954961 0.00181969 0.00498619 0.00247176 0.02547182 0.00775827 0.03618693 0.00303006 0.00489924 0.11261629 0.00360617 0.01442065 0.01415619 0.00133874 
0.02958910 0.02224620 0.00943561 0.00183527 0.00501014 0.00250669 0.02558367 0.00779700 0.03629776 0.00308287 0.00499993 0.11366945 0.00360671 0.01427891 0.01406072 0.00134285 
0.02986747 0.02107232 0.00932930 0.00185646 0.00502846 0.00254212 0.02568359 0.00784004 0.03639865 0.00313857 0.00510067 0.11471507 0.00361601 0.01413916 0.01399641 0.00134700 
0.03018260 0.02006659 0.00923176 0.00188336 0.00504118 0.00257785 0.02577056 0.00788714 0.03648823 0.00319684 0.00520087 0.11575060 0.00363439 0.01400194 0.01396371 0.00135116 
0.03053300 0.01923300 0.00914401 0.00191604 0.00504833 0.00261368 0.02584362 0.00793799 0.03656517 0.00325732 0.00529995 0.11677349 0.00366216 0.01386777 0.01396286 0.00135531 
0.03091692 0.01857470 0.00906698 0.00195455 0.00504994 0.00264940 0.02590185 0.00799228 0.03662814 0.00331967 0.00539733 0.11778126 0.00369956 0.01373714 0.01399396 0.00135941 
0.03133226 0.01809397 0.00900152 0.00199892 0.00504609 0.00268480 0.02594437 0.00804965 0.03667589 0.00338351 0.00549243 0.11877143 0.00374682 0.01361054 0.01405690 0.00136344 
0.03177666 0.01779222 0.00894838 0.00204913 0.00503686 0.00271968 0.02597038 0.00810974 0.03670718 0.00344846 0.00558468 0.11974157 0.00380409 0.01348845 0.01415138 0.00136738 
0.03224748 0.01766999 0.00890819 0.00210515 0.00502234 0.00275384 0.02597914 0.00817214 0.03672085 0.00351414 0.00567352 0.12068928 0.00387152 0.01337132 0.01427693 0.00137119 
0.03274182 0.01772692 0.00888151 0.00216694 0.00500264 0.00278708 0.02596997 0.00823644 0.03671578 0.00358015 0.00575840 0.12161221 0.00394919 0.01325957 0.01443288 0.00137485 
0.03325655 0.01796174 0.00886875 0.00223439 0.00497790 0.00281920 0.02594230 0.00830220 0.03669097 0.00364609 0.00583879 0.12250805 0.00403714 0.01315361 0.01461842 0.00137835 
0.03378829 0.01837232 0.00887023 0.00230740 0.00494825 0.00285002 0.02589562 0.00836897 0.03664545 0.00371157 0.00591418 0.12337451 0.00413536 0.01305383 0.01483252 0.00138167 
0.03433350 0.01895565 0.00888616 0.00238581 0.00491385 0.00287935 0.02582954 0.00843628 0.03657837 0.00377619 0.00598409 0.12420937 0.00424379 0.01296059 0.01507401 0.00138478 
0.03488845 0.01970783 0.00891660 0.00246947 0.00487486 0.00290703 0.02574374 0.00850367 0.03648898 0.00383955 0.00604805 0.12501044 0.00436233 0.01287422 0.01534155 0.00138768 
0.03544925 0.02062415 0.00896154 0.00255817 0.00483147 0.00293287 0.02563803 0.00857065 0.03637663 0.00390127 0.00610564 0.12577557 0.00449083 0.01279503 0.01563365 0.00139034 
0.03601190 0.02169905 0.00902081 0.00265169 0.00478385 0.00295673 0.02551233 0.00863674 0.03624079 0.00396097 0.00615646 0.12650266 0.00462908 0.01272330 0.01594868 0.00139275 
0.03657232 0.02292618 0.00909414 0.00274977 0.00473220 0.00297846 0.02536666 0.00870145 0.03608103 0.00401829 0.00620014 0.12718966 0.00477682 0.01265928 0.01628488 0.00139491 
0.03712634 0.02429844 0.00918116 0.00285214 0.00467674 0.00299793 0.02520115 0.00876430 0.03589706 0.00407289 0.00623636 0.12783457 0.00493375 0.01260321 0.01664035 0.00139680 
0.03766977 0.02580798 0.00928137 0.00295849 0.00461768 0.00301501 0.02501609 0.00882481 0.03568874 0.00412442 0.00626484 0.12843542 0.00509953 0.01255528 0.01701310 0.00139842 
0.03819842 0.02744629 0.00939417 0.00306850 0.00455524 0.00302958 0.02481186 0.00888252 0.03545603 0.00417258 0.00628533 0.12899031 0.00527375 0.01251566 0.01740103 0.00139976 
0.03870809 0.02920419 0.00951885 0.00318182 0.00448966 0.00304157 0.02458897 0.00893696 0.03519905 0.00421706 0.00629763 0.12949739 0.00545596 0.01248448 0.01780196 0.00140082 
0.03919468 0.03107192 0.00965462 0.00329809 0.00442116 0.00305088 0.02434807 0.00898769 0.03491807 0.00425762 0.00630158 0.12995486 0.00564569 0.01246186 0.01821364 0.00140160 
0.03965416 0.03303917 0.00980059 0.00341690 0.00435001 0.00305745 0.02408993 0.00903429 0.03461349 0.00429399 0.00629708 0.13036101 0.00584239 0.01244787 0.01863376 0.00140208 
0.04008260 0.03509514 0.00995577 0.00353786 0.00427643 0.00306123 0.02381545 0.00907636 0.03428586 0.00432596 0.00628407 0.13071415 0.00604549 0.01244257 0.01905997 0.00140229 
0.04047623 0.03722859 0.01011911 0.00366055 0.00420069 0.00306219 0.02352566 0.00911350 0.03393588 0.00435335 0.00626253 0.13101272 0.00625438 0.01244597 0.01948990 0.00140221 
