0.01213438 0.00474140 0.00174418 0.00373225 0.00068390 0.00133888 0.00063206 0.00179319 0.00171182 0.00250376 0.00150426 0.00137134 0.00179788 0.00205831 0.00472165 0.00094756 
0.01248795 0.00474003 0.00180497 0.00368665 0.00065999 0.00127260 0.00065577 0.00176493 0.00175381 0.00241110 0.00152373 0.00129086 0.00177988 0.00202595 0.00457211 0.00094072 
0.01286844 0.00474151 0.00187072 0.00363804 0.00063743 0.00120842 0.00068437 0.00173616 0.00180198 0.00232193 0.00154161 0.00121031 0.00176110 0.00199286 0.00442284 0.00093493 
0.01327608 0.00474606 0.00194147 0.00358659 0.00061620 0.00114650 0.00071779 0.00170697 0.00185660 0.00223635 0.00155777 0.00113010 0.00174164 0.00195913 0.00427428 0.00093027 
0.01371103 0.00475389 0.00201724 0.00353247 0.00059630 0.00108702 0.00075596 0.00167744 0.00191795 0.00215444 0.00157209 0.00105066 0.00172158 0.00192488 0.00412688 0.00092678 
0.01417341 0.00476523 0.00209805 0.00347585 0.00057770 0.00103014 0.00079878 0.00164766 0.00198631 0.00207626 0.00158445 0.00097244 0.00170100 0.00189020 0.00398106 0.00092451 
0.01466329 0.00478030 0.00218388 0.00341694 0.00056040 0.00097599 0.00084613 0.00161774 0.00206194 0.00200188 0.00159476 0.00089587 0.00167999 0.00185520 0.00383720 0.00092352 
0.01518068 0.00479931 0.00227470 0.00335594 0.00054434 0.00092471 0.00089787 0.00158776 0.00214510 0.00193131 0.00160291 0.00082140 0.00165864 0.00181997 0.00369568 0.00092384 
0.01572554 0.00482251 0.00237045 0.00329309 0.00052951 0.00087640 0.00095383 0.00155783 0.00223603 0.00186456 0.00160882 0.00074947 0.00163704 0.00178461 0.00355684 0.00092550 
0.01629774 0.00485009 0.00247107 0.00322861 0.00051586 0.00083117 0.00101384 0.00152806 0.00233498 0.00180164 0.00161239 0.00068053 0.00161528 0.00174921 0.00342101 0.00092854 
0.01689713 0.00488230 0.00257646 0.00316274 0.00050335 0.00078910 0.00107769 0.00149855 0.00244216 0.00174252 0.00161357 0.00061502 0.00159345 0.00171384 0.00328849 0.00093297 
0.01752344 0.00491933 0.00268651 0.00309574 0.00049193 0.00075026 0.00114515 0.00146940 0.00255776 0.00168715 0.00161230 0.00055337 0.00157165 0.00167861 0.00315955 0.00093881 
0.01817637 0.00496140 0.00280110 0.00302786 0.00048156 0.00071469 0.00121598 0.00144074 0.00268197 0.00163548 0.00160851 0.00049601 0.00154995 0.00164357 0.00303443 0.00094607 
0.01885551 0.00500871 0.00292006 0.00295936 0.00047217 0.00068243 0.00128992 0.00141266 0.00281492 0.00158743 0.00160219 0.00044335 0.00152845 0.00160880 0.00291337 0.00095475 
0.01956039 0.00506146 0.00304325 0.00289052 0.00046371 0.00065350 0.00136670 0.00138528 0.00295675 0.00154292 0.00159330 0.00039579 0.00150722 0.00157437 0.00279655 0.00096484 
0.02029044 0.00511983 0.00317047 0.00282160 0.00045613 0.00062791 0.00144603 0.00135870 0.00310754 0.00150184 0.00158184 0.00035372 0.00148636 0.00154034 0.00268416 0.00097633 
0.02104503 0.00518398 0.00330153 0.00275287 0.00044937 0.00060563 0.00152759 0.00133304 0.00326734 0.00146407 0.00156782 0.00031749 0.00146594 0.00150675 0.00257634 0.00098920 
0.02182342 0.00525408 0.00343622 0.00268460 0.00044337 0.00058665 0.00161109 0.00130840 0.00343618 0.00142950 0.00155124 0.00028746 0.00144604 0.00147367 0.00247323 0.00100341 
0.02262480 0.00533026 0.00357430 0.00261705 0.00043807 0.00057092 0.00169618 0.00128489 0.00361404 0.00139797 0.00153214 0.00026393 0.00142673 0.00144114 0.00237493 0.00101894 
0.02344825 0.00541266 0.00371554 0.00255051 0.00043342 0.00055838 0.00178253 0.00126260 0.00380085 0.00136936 0.00151059 0.00024721 0.00140808 0.00140919 0.00228153 0.00103573 
0.02429277 0.00550138 0.00385968 0.00248522 0.00042935 0.00054897 0.00186980 0.00124164 0.00399653 0.00134349 0.00148663 0.00023755 0.00139016 0.00137787 0.00219310 0.00105373 
0.02515726 0.00559651 0.00400647 0.00242145 0.00042581 0.00054260 0.00195764 0.00122210 0.00420092 0.00132021 0.00146035 0.00023520 0.00137302 0.00134719 0.00210969 0.00107290 
0.02604054 0.00569812 0.00415563 0.00235944 0.00042275 0.00053917 0.00204571 0.00120408 0.00441384 0.00129936 0.00143184 0.00024034 0.00135672 0.00131719 0.00203134 0.00109315 
0.02694133 0.00580625 0.00430689 0.00229943 0.00042011 0.00053858 0.00213364 0.00118765 0.00463507 0.00128076 0.00140123 0.00025316 0.00134132 0.00128788 0.00195805 0.00111441 
0.02785825 0.00592092 0.00445996 0.00224167 0.00041785 0.00054072 0.00222110 0.00117291 0.00486432 0.00126424 0.00136863 0.00027377 0.00132686 0.00125928 0.00188985 0.00113662 
0.02878986 0.00604212 0.00461456 0.00218636 0.00041591 0.00054545 0.00230772 0.00115993 0.00510126 0.00124963 0.00133420 0.00030227 0.00131338 0.00123140 0.00182671 0.00115967 
0.02973460 0.00616984 0.00477040 0.00213374 0.00041427 0.00055265 0.00239318 0.00114877 0.00534555 0.00123676 0.00129809 0.00033871 0.00130092 0.00120424 0.00176861 0.00118348 
0.03069084 0.00630401 0.00492719 0.00208398 0.00041287 0.00056217 0.00247714 0.00113951 0.00559676 0.00122547 0.00126047 0.00038311 0.00128951 0.00117782 0.00171554 0.00120795 
0.03165686 0.00644454 0.00508464 0.00203728 0.00041169 0.00057386 0.00255927 0.00113221 0.00585443 0.00121559 0.00122154 0.00043543 0.00127917 0.00115212 0.00166744 0.00123298 
0.03263086 0.00659133 0.00524246 0.00199382 0.00041069 0.00058758 0.00263927 0.00112690 0.00611807 0.00120696 0.00118150 0.00049560 0.00126992 0.00112715 0.00162428 0.00125845 
0.03361099 0.00674424 0.00540037 0.00195374 0.00040984 0.00060316 0.00271683 0.00112364 0.00638715 0.00119944 0.00114057 0.00056350 0.00126178 0.00110290 0.00158599 0.00128426 
0.03459529 0.00690309 0.00555810 0.00191720 0.00040913 0.00062045 0.00279168 0.00112246 0.00666107 0.00119288 0.00109897 0.00063897 0.00125476 0.00107936 0.00155253 0.00131030 
0.03558177 0.00706768 0.00571537 0.00188431 0.00040853 0.00063928 0.00286357 0.00112340 0.00693924 0.00118714 0.00105696 0.00072180 0.00124885 0.00105652 0.00152383 0.00133643 
0.03656835 0.00723778 0.00587193 0.00185520 0.00040804 0.00065950 0.00293224 0.00112646 0.00722099 0.00118212 0.00101478 0.00081175 0.00124407 0.00103436 0.00149982 0.00136254 
0.03755292 0.00741314 0.00602753 0.00182995 0.00040764 0.00068093 0.00299749 0.00113167 0.00750564 0.00117769 0.00097270 0.00090853 0.00124039 0.00101287 0.00148044 0.00138850 
0.03853331 0.00759346 0.00618192 0.00180864 0.00040733 0.00070342 0.00305913 0.00113903 0.00779250 0.00117377 0.00093099 0.00101179 0.00123782 0.00099204 0.00146561 0.00141419 
0.03950732 0.00777843 0.00633488 0.00179132 0.00040710 0.00072680 0.00311699 0.00114853 0.00808081 0.00117027 0.00088993 0.00112115 0.00123632 0.00097184 0.00145528 0.00143949 
0.04047270 0.00796769 0.00648620 0.00177805 0.00040697 0.00075092 0.00317095 0.00116015 0.00836984 0.00116713 0.00084981 0.00123621 0.00123589 0.00095226 0.00144936 0.00146427 
0.04142720 0.00816088 0.00663568 0.00176883 0.00040694 0.00077563 0.00322089 0.00117389 0.00865879 0.00116429 0.00081092 0.00135651 0.00123649 0.00093328 0.00144779 0.00148839 
0.04236852 0.00835760 0.00678314 0.00176369 0.00040703 0.00080078 0.00326676 0.00118970 0.00894690 0.00116172 0.00077356 0.00148154 0.00123810 0.00091487 0.00145049 0.00151175 
0.04329438 0.00855741 0.00692842 0.00176260 0.00040724 0.00082621 0.00330851 0.00120755 0.00923336 0.00115940 0.00073803 0.00161078 0.00124067 0.00089702 0.00145740 0.00153421 
0.04420248 0.00875986 0.00707137 0.00176553 0.00040760 0.00085181 0.00334615 0.00122738 0.00951738 0.00115733 0.00070462 0.00174366 0.00124419 0.00087971 0.00146845 0.00155566 
0.04509055 0.00896449 0.00721186 0.00177245 0.00040813 0.00087742 0.00337971 0.00124915 0.00979815 0.00115551 0.00067365 0.00187960 0.00124860 0.00086292 0.00148356 0.00157597 
0.04595631 0.00917080 0.00734979 0.00178328 0.00040886 0.00090293 0.00340926 0.00127279 0.01007489 0.00115399 0.00064540 0.00201796 0.00125386 0.00084662 0.00150267 0.00159504 
0.04679753 0.00937827 0.00748506 0.00179795 0.00040981 0.00092822 0.00343492 0.00129823 0.01034682 0.00115280 0.00062016 0.00215811 0.00125993 0.00083081 0.00152571 0.00161276 
0.04761200 0.00958637 0.00761760 0.00181636 0.00041100 0.00095319 0.00345683 0.00132538 0.01061316 0.00115201 0.00059823 0.00229939 0.00126676 0.00081546 0.00155261 0.00162903 
0.04839757 0.00979455 0.00774736 0.00183839 0.00041248 0.00097773 0.00347519 0.00135416 0.01087316 0.00115170 0.00057988 0.00244110 0.00127430 0.00080055 0.00158330 0.00164374 
0.04915212 0.01000226 0.00787431 0.00186393 0.00041427 0.00100174 0.00349021 0.00138447 0.01112612 0.00115197 0.00056539 0.00258255 0.00128250 0.00078607 0.00161771 0.00165682 
0.04987362 0.01020892 0.00799843 0.00189282 0.00041641 0.00102515 0.00350217 0.00141621 0.01137132 0.00115290 0.00055501 0.00272304 0.00129131 0.00077200 0.00165577 0.00166816 
0.05056009 0.01041396 0.00811973 0.00192492 0.00041893 0.00104788 0.00351136 0.00144927 0.01160812 0.00115464 0.00054899 0.00286186 0.00130068 0.00075833 0.00169740 0.00167770 
0.05120965 0.01061679 0.00823823 0.00196005 0.00042185 0.00106987 0.00351812 0.00148354 0.01183589 0.00115731 0.00054757 0.00299830 0.00131056 0.00074505 0.00174252 0.00168536 
0.05182050 0.01081683 0.00835396 0.00199804 0.00042522 0.00109105 0.00352283 0.00151889 0.01205405 0.00116105 0.00055095 0.00313166 0.00132089 0.00073215 0.00179106 0.00169109 
0.05239093 0.01101348 0.00846699 0.00203870 0.00042905 0.00111139 0.00352590 0.00155519 0.01226208 0.00116602 0.00055935 0.00326124 0.00133162 0.00071962 0.00184292 0.00169483 
0.05291936 0.01120618 0.00857739 0.00208182 0.00043339 0.00113085 0.00352777 0.00159233 0.01245949 0.00117237 0.00057293 0.00338636 0.00134271 0.00070744 0.00189802 0.00169654 
0.05340430 0.01139433 0.00868524 0.00212720 0.00043826 0.00114939 0.00352892 0.00163015 0.01264585 0.00118027 0.00059186 0.00350635 0.00135411 0.00069562 0.00195626 0.00169619 
0.05384440 0.01157737 0.00879064 0.00217462 0.00044368 0.00116699 0.00352986 0.00166852 0.01282081 0.00118990 0.00061627 0.00362058 0.00136576 0.00068414 0.00201753 0.00169374 
0.05423843 0.01175475 0.00889371 0.00222385 0.00044967 0.00118364 0.00353111 0.00170730 0.01298406 0.00120143 0.00064628 0.00372842 0.00137763 0.00067302 0.00208172 0.00168918 
0.05458531 0.01192593 0.00899456 0.00227466 0.00045625 0.00119934 0.00353324 0.00174634 0.01313536 0.00121503 0.00068197 0.00382931 0.00138967 0.00066223 0.00214871 0.00168252 
0.05488407 0.01209039 0.00909332 0.00232681 0.00046345 0.00121409 0.00353682 0.00178550 0.01327453 0.00123089 0.00072341 0.00392271 0.00140183 0.00065179 0.00221838 0.00167374 
0.05513392 0.01224762 0.00919014 0.00238007 0.00047126 0.00122790 0.00354247 0.00182463 0.01340147 0.00124917 0.00077064 0.00400810 0.00141410 0.00064170 0.00229058 0.00166287 
0.05533423 0.01239716 0.00928516 0.00243418 0.00047970 0.00124080 0.00355079 0.00186358 0.01351614 0.00127005 0.00082365 0.00408504 0.00142641 0.00063196 0.00236516 0.00164993 
0.05548449 0.01253854 0.00937854 0.00248891 0.00048877 0.00125279 0.00356243 0.00190220 0.01361858 0.00129369 0.00088244 0.00415313 0.00143876 0.00062258 0.00244197 0.00163495 
0.05558440 0.01267136 0.00947042 0.00254401 0.00049847 0.00126391 0.00357802 0.00194034 0.01370891 0.00132024 0.00094694 0.00421200 0.00145111 0.00061355 0.00252084 0.00161798 
0.05563378 0.01279523 0.00956097 0.00259923 0.00050880 0.00127421 0.00359821 0.00197785 0.01378729 0.00134985 0.00101708 0.00426139 0.00146342 0.00060490 0.00260159 0.00159907 
0.05563266 0.01290979 0.00965034 0.00265433 0.00051973 0.00128371 0.00362366 0.00201460 0.01385400 0.00138266 0.00109275 0.00430104 0.00147570 0.00059664 0.00268402 0.00157828 
0.05558123 0.01301474 0.00973867 0.00270907 0.00053127 0.00129247 0.00365502 0.00205044 0.01390935 0.00141878 0.00117382 0.00433081 0.00148791 0.00058876 0.00276793 0.00155568 
0.05547984 0.01310981 0.00982614 0.00276321 0.00054338 0.00130053 0.00369294 0.00208523 0.01395375 0.00145832 0.00126010 0.00435058 0.00150004 0.00058129 0.00285312 0.00153136 
0.05532903 0.01319476 0.00991287 0.00281651 0.00055604 0.00130794 0.00373806 0.00211884 0.01398768 0.00150138 0.00135140 0.00436034 0.00151208 0.00057425 0.00293934 0.00150541 
0.05512951 0.01326940 0.00999901 0.00286876 0.00056922 0.00131476 0.00379100 0.00215113 0.01401166 0.00154801 0.00144749 0.00436012 0.00152403 0.00056764 0.00302637 0.00147791 
0.05488218 0.01333360 0.01008470 0.00291972 0.00058288 0.00132105 0.00385239 0.00218200 0.01402630 0.00159827 0.00154811 0.00435004 0.00153589 0.00056149 0.00311396 0.00144899 
0.05458809 0.01338726 0.01017005 0.00296920 0.00059699 0.00132687 0.00392280 0.00221131 0.01403229 0.00165219 0.00165298 0.00433029 0.00154765 0.00055581 0.00320186 0.00141874 
0.05424847 0.01343035 0.01025518 0.00301697 0.00061150 0.00133227 0.00400282 0.00223896 0.01403035 0.00170978 0.00176178 0.00430113 0.00155932 0.00055062 0.00328979 0.00138729 
0.05386475 0.01346285 0.01034018 0.00306286 0.00062636 0.00133732 0.00409297 0.00226485 0.01402127 0.00177101 0.00187417 0.00426290 0.00157090 0.00054595 0.00337748 0.00135476 
0.05343848 0.01348484 0.01042516 0.00310667 0.00064152 0.00134208 0.00419378 0.00228888 0.01400591 0.00183585 0.00198979 0.00421601 0.00158242 0.00054182 0.00346465 0.00132128 
0.05297141 0.01349641 0.01051018 0.00314823 0.00065691 0.00134661 0.00430571 0.00231096 0.01398515 0.00190422 0.00210825 0.00416094 0.00159388 0.00053824 0.00355102 0.00128699 
0.05246543 0.01349772 0.01059530 0.00318738 0.00067249 0.00135097 0.00442920 0.00233102 0.01395994 0.00197604 0.00222915 0.00409826 0.00160531 0.00053524 0.00363627 0.00125203 
0.05192260 0.01348898 0.01068056 0.00322398 0.00068819 0.00135522 0.00456463 0.00234900 0.01393127 0.00205118 0.00235205 0.00402859 0.00161671 0.00053285 0.00372013 0.00121653 
0.05134510 0.01347044 0.01076599 0.00325788 0.00070394 0.00135942 0.00471237 0.00236483 0.01390016 0.00212950 0.00247650 0.00395261 0.00162812 0.00053109 0.00380228 0.00118066 
0.05073529 0.01344241 0.01085160 0.00328897 0.00071968 0.00136362 0.00487270 0.00237846 0.01386767 0.00221081 0.00260205 0.00387109 0.00163956 0.00052998 0.00388243 0.00114454 
0.05009562 0.01340525 0.01093739 0.00331714 0.00073533 0.00136788 0.00504587 0.00238987 0.01383487 0.00229493 0.00272821 0.00378484 0.00165105 0.00052956 0.00396025 0.00110834 
0.04942869 0.01335936 0.01102332 0.00334229 0.00075083 0.00137226 0.00523207 0.00239904 0.01380287 0.00238162 0.00285452 0.00369472 0.00166262 0.00052984 0.00403547 0.00107220 
0.04873722 0.01330518 0.01110935 0.00336435 0.00076610 0.00137679 0.00543145 0.00240593 0.01377280 0.00247063 0.00298046 0.00360168 0.00167431 0.00053085 0.00410776 0.00103628 
0.04802402 0.01324320 0.01119542 0.00338325 0.00078107 0.00138152 0.00564407 0.00241057 0.01374577 0.00256169 0.00310554 0.00350666 0.00168613 0.00053261 0.00417684 0.00100072 
0.04729200 0.01317396 0.01128145 0.00339894 0.00079567 0.00138651 0.00586996 0.00241296 0.01372293 0.00265449 0.00322926 0.00341068 0.00169813 0.00053516 0.00424241 0.00096566 
0.04654416 0.01309802 0.01136733 0.00341139 0.00080984 0.00139178 0.00610908 0.00241312 0.01370540 0.00274871 0.00335112 0.00331479 0.00171033 0.00053851 0.00430419 0.00093127 
0.04578356 0.01301600 0.01145296 0.00342058 0.00082349 0.00139737 0.00636130 0.00241109 0.01369431 0.00284400 0.00347061 0.00322006 0.00172276 0.00054269 0.00436191 0.00089767 
0.04501335 0.01292852 0.01153820 0.00342651 0.00083658 0.00140331 0.00662648 0.00240692 0.01369077 0.00294000 0.00358725 0.00312759 0.00173546 0.00054772 0.00441530 0.00086501 
0.04423668 0.01283626 0.01162289 0.00342919 0.00084902 0.00140964 0.00690436 0.00240068 0.01369586 0.00303633 0.00370054 0.00303848 0.00174846 0.00055362 0.00446412 0.00083341 
0.04345678 0.01273991 0.01170687 0.00342865 0.00086077 0.00141637 0.00719466 0.00239244 0.01371066 0.00313257 0.00381002 0.00295385 0.00176177 0.00056042 0.00450811 0.00080302 
0.04267688 0.01264019 0.01178996 0.00342492 0.00087176 0.00142353 0.00749701 0.00238229 0.01373620 0.00322833 0.00391523 0.00287482 0.00177544 0.00056813 0.00454707 0.00077396 
0.04190020 0.01253783 0.01187195 0.00341807 0.00088195 0.00143113 0.00781099 0.00237033 0.01377346 0.00332317 0.00401573 0.00280250 0.00178948 0.00057678 0.00458079 0.00074633 
0.04112999 0.01243357 0.01195263 0.00340815 0.00089128 0.00143919 0.00813611 0.00235667 0.01382341 0.00341667 0.00411111 0.00273799 0.00180393 0.00058637 0.00460908 0.00072026 
0.04036945 0.01232818 0.01203179 0.00339526 0.00089972 0.00144771 0.00847182 0.00234144 0.01388696 0.00350837 0.00420096 0.00268237 0.00181879 0.00059693 0.00463177 0.00069584 
0.03962174 0.01222242 0.01210917 0.00337948 0.00090723 0.00145671 0.00881751 0.00232477 0.01396495 0.00359784 0.00428492 0.00263668 0.00183410 0.00060846 0.00464871 0.00067318 
0.03888998 0.01211706 0.01218453 0.00336092 0.00091377 0.00146619 0.00917252 0.00230682 0.01405817 0.00368462 0.00436265 0.00260192 0.00184986 0.00062098 0.00465979 0.00065234 
0.03817721 0.01201285 0.01225762 0.00333970 0.00091933 0.00147614 0.00953614 0.00228774 0.01416737 0.00376828 0.00443385 0.00257905 0.00186610 0.00063449 0.00466490 0.00063343 
0.03748639 0.01191055 0.01232817 0.00331594 0.00092388 0.00148656 0.00990758 0.00226770 0.01429320 0.00384837 0.00449824 0.00256900 0.00188281 0.00064901 0.00466396 0.00061649 
0.03682037 0.01181090 0.01239590 0.00328978 0.00092742 0.00149745 0.01028604 0.00224688 0.01443626 0.00392447 0.00455559 0.00257260 0.00190001 0.00066453 0.00465693 0.00060160 
0.03618191 0.01171462 0.01246055 0.00326136 0.00092996 0.00150880 0.01067063 0.00222548 0.01459707 0.00399614 0.00460570 0.00259065 0.00191770 0.00068106 0.00464376 0.00058880 
0.03557362 0.01162242 0.01252182 0.00323084 0.00093148 0.00152059 0.01106046 0.00220369 0.01477607 0.00406300 0.00464843 0.00262384 0.00193588 0.00069859 0.00462448 0.00057813 
0.03499796 0.01153498 0.01257943 0.00319837 0.00093201 0.00153282 0.01145456 0.00218172 0.01497361 0.00412463 0.00468364 0.00267281 0.00195454 0.00071712 0.00459909 0.00056962 
0.03445724 0.01145295 0.01263311 0.00316413 0.00093157 0.00154547 0.01185197 0.00215978 0.01518997 0.00418069 0.00471129 0.00273811 0.00197368 0.00073664 0.00456765 0.00056328 
0.03395360 0.01137694 0.01268256 0.00312827 0.00093019 0.00155853 0.01225167 0.00213809 0.01542534 0.00423081 0.00473134 0.00282020 0.00199328 0.00075715 0.00453023 0.00055913 
0.03348898 0.01130753 0.01272750 0.00309098 0.00092791 0.00157197 0.01265260 0.00211688 0.01567982 0.00427469 0.00474383 0.00291943 0.00201332 0.00077862 0.00448695 0.00055717 
0.03306514 0.01124526 0.01276765 0.00305242 0.00092477 0.00158578 0.01305372 0.00209639 0.01595341 0.00431203 0.00474881 0.00303607 0.00203378 0.00080104 0.00443793 0.00055738 
0.03268362 0.01119061 0.01280275 0.00301278 0.00092082 0.00159995 0.01345393 0.00207684 0.01624604 0.00434257 0.00474641 0.00317027 0.00205464 0.00082439 0.00438334 0.00055974 
0.03234573 0.01114404 0.01283253 0.00297224 0.00091614 0.00161445 0.01385214 0.00205847 0.01655754 0.00436610 0.00473681 0.00332210 0.00207586 0.00084865 0.00432334 0.00056421 
0.03205256 0.01110595 0.01285672 0.00293098 0.00091078 0.00162926 0.01424726 0.00204154 0.01688763 0.00438242 0.00472021 0.00349150 0.00209742 0.00087379 0.00425815 0.00057077 
0.03180496 0.01107667 0.01287509 0.00288916 0.00090482 0.00164437 0.01463817 0.00202626 0.01723597 0.00439140 0.00469688 0.00367832 0.00211926 0.00089978 0.00418800 0.00057934 
0.03160353 0.01105650 0.01288739 0.00284698 0.00089835 0.00165975 0.01502378 0.00201290 0.01760210 0.00439293 0.00466714 0.00388227 0.00214136 0.00092659 0.00411315 0.00058988 
0.03144863 0.01104567 0.01289340 0.00280459 0.00089146 0.00167540 0.01540297 0.00200168 0.01798550 0.00438694 0.00463133 0.00410298 0.00216365 0.00095419 0.00403386 0.00060231 
0.03134032 0.01104436 0.01289293 0.00276217 0.00088423 0.00169129 0.01577466 0.00199284 0.01838553 0.00437343 0.00458988 0.00433996 0.00218610 0.00098253 0.00395043 0.00061655 
0.03127846 0.01105268 0.01288577 0.00271989 0.00087677 0.00170741 0.01613778 0.00198662 0.01880149 0.00435243 0.00454321 0.00459263 0.00220864 0.00101157 0.00386319 0.00063253 
0.03126259 0.01107069 0.01287174 0.00267789 0.00086919 0.00172375 0.01649128 0.00198325 0.01923259 0.00432402 0.00449184 0.00486027 0.00223121 0.00104128 0.00377245 0.00065014 
0.03129202 0.01109840 0.01285071 0.00263633 0.00086159 0.00174030 0.01683412 0.00198294 0.01967796 0.00428833 0.00443628 0.00514209 0.00225376 0.00107160 0.00367857 0.00066928 
0.03136579 0.01113575 0.01282252 0.00259536 0.00085408 0.00175704 0.01716530 0.00198590 0.02013664 0.00424555 0.00437710 0.00543720 0.00227622 0.00110248 0.00358192 0.00068986 
0.03148265 0.01118261 0.01278707 0.00255511 0.00084678 0.00177398 0.01748386 0.00199236 0.02060761 0.00419590 0.00431492 0.00574459 0.00229852 0.00113388 0.00348286 0.00071175 
0.03164115 0.01123882 0.01274427 0.00251570 0.00083981 0.00179109 0.01778885 0.00200249 0.02108978 0.00413968 0.00425037 0.00606320 0.00232060 0.00116575 0.00338179 0.00073485 
0.03183953 0.01130416 0.01269404 0.00247726 0.00083329 0.00180840 0.01807940 0.00201649 0.02158201 0.00407721 0.00418412 0.00639186 0.00234237 0.00119801 0.00327911 0.00075902 
0.03207582 0.01137833 0.01263634 0.00243990 0.00082733 0.00182588 0.01835464 0.00203452 0.02208306 0.00400888 0.00411687 0.00672935 0.00236376 0.00123063 0.00317521 0.00078415 
0.03234782 0.01146100 0.01257116 0.00240372 0.00082205 0.00184355 0.01861378 0.00205675 0.02259169 0.00393512 0.00404932 0.00707435 0.00238471 0.00126354 0.00307051 0.00081011 
0.03265308 0.01155181 0.01249850 0.00236880 0.00081757 0.00186141 0.01885606 0.00208332 0.02310657 0.00385641 0.00398223 0.00742551 0.00240512 0.00129668 0.00296542 0.00083677 
0.03298895 0.01165031 0.01241839 0.00233522 0.00081401 0.00187947 0.01908078 0.00211435 0.02362634 0.00377328 0.00391635 0.00778142 0.00242492 0.00133000 0.00286036 0.00086399 
0.03335260 0.01175605 0.01233090 0.00230306 0.00081148 0.00189774 0.01928730 0.00214996 0.02414962 0.00368630 0.00385244 0.00814062 0.00244404 0.00136342 0.00275573 0.00089165 
0.03374098 0.01186852 0.01223612 0.00227237 0.00081008 0.00191623 0.01947503 0.00219025 0.02467498 0.00359609 0.00379129 0.00850162 0.00246239 0.00139689 0.00265194 0.00091962 
0.03415092 0.01198717 0.01213416 0.00224319 0.00080993 0.00193495 0.01964344 0.00223528 0.02520098 0.00350330 0.00373366 0.00886292 0.00247988 0.00143035 0.00254941 0.00094775 
0.03457906 0.01211144 0.01202517 0.00221556 0.00081112 0.00195392 0.01979206 0.00228512 0.02572615 0.00340862 0.00368034 0.00922299 0.00249646 0.00146373 0.00244853 0.00097593 
0.03502192 0.01224074 0.01190933 0.00218950 0.00081374 0.00197317 0.01992049 0.00233979 0.02624904 0.00331278 0.00363210 0.00958030 0.00251203 0.00149697 0.00234969 0.00100403 
0.03547594 0.01237445 0.01178685 0.00216503 0.00081788 0.00199271 0.02002838 0.00239931 0.02676817 0.00321654 0.00358971 0.00993333 0.00252651 0.00153001 0.00225328 0.00103191 
0.03593745 0.01251193 0.01165794 0.00214216 0.00082362 0.00201256 0.02011546 0.00246368 0.02728208 0.00312067 0.00355393 0.01028057 0.00253984 0.00156279 0.00215965 0.00105946 
0.03640270 0.01265254 0.01152288 0.00212086 0.00083102 0.00203276 0.02018152 0.00253285 0.02778932 0.00302599 0.00352548 0.01062055 0.00255195 0.00159524 0.00206916 0.00108656 
0.03686792 0.01279563 0.01138195 0.00210114 0.00084017 0.00205332 0.02022640 0.00260679 0.02828846 0.00293332 0.00350508 0.01095182 0.00256276 0.00162731 0.00198215 0.00111310 
0.03732932 0.01294056 0.01123547 0.00208295 0.00085109 0.00207426 0.02025003 0.00268541 0.02877809 0.00284350 0.00349342 0.01127299 0.00257220 0.00165893 0.00189894 0.00113897 
0.03778311 0.01308667 0.01108379 0.00206627 0.00086384 0.00209563 0.02025239 0.00276862 0.02925686 0.00275738 0.00349115 0.01158273 0.00258022 0.00169005 0.00181983 0.00116407 
0.03822553 0.01323333 0.01092726 0.00205104 0.00087845 0.00211744 0.02023353 0.00285629 0.02972344 0.00267582 0.00349890 0.01187976 0.00258675 0.00172061 0.00174510 0.00118829 
0.03865288 0.01337991 0.01076629 0.00203723 0.00089493 0.00213973 0.02019356 0.00294828 0.03017655 0.00259968 0.00351725 0.01216289 0.00259174 0.00175055 0.00167500 0.00121156 
0.03906151 0.01352581 0.01060129 0.00202476 0.00091330 0.00216251 0.02013267 0.00304442 0.03061496 0.00252981 0.00354675 0.01243100 0.00259514 0.00177983 0.00160977 0.00123378 
0.03944792 0.01367044 0.01043271 0.00201357 0.00093356 0.00218581 0.02005110 0.00314451 0.03103753 0.00246705 0.00358788 0.01268307 0.00259690 0.00180838 0.00154962 0.00125489 
0.03980871 0.01381325 0.01026100 0.00200359 0.00095569 0.00220966 0.01994914 0.00324834 0.03144315 0.00241223 0.00364111 0.01291818 0.00259699 0.00183617 0.00149474 0.00127481 
0.04014062 0.01395372 0.01008664 0.00199474 0.00097966 0.00223408 0.01982716 0.00335568 0.03183082 0.00236615 0.00370682 0.01313551 0.00259537 0.00186313 0.00144529 0.00129349 
0.04044058 0.01409136 0.00991014 0.00198694 0.00100544 0.00225910 0.01968559 0.00346627 0.03219958 0.00232961 0.00378536 0.01333437 0.00259201 0.00188922 0.00140139 0.00131086 
0.04070571 0.01422573 0.00973201 0.00198009 0.00103297 0.00228471 0.01952490 0.00357983 0.03254858 0.00230336 0.00387701 0.01351415 0.00258689 0.00191440 0.00136316 0.00132689 
0.04093334 0.01435643 0.00955278 0.00197412 0.00106219 0.00231095 0.01934564 0.00369605 0.03287705 0.00228811 0.00398199 0.01367440 0.00258000 0.00193863 0.00133066 0.00134154 
0.04112105 0.01448310 0.00937300 0.00196893 0.00109303 0.00233783 0.01914840 0.00381463 0.03318431 0.00228454 0.00410047 0.01381477 0.00257133 0.00196186 0.00130396 0.00135478 
0.04126666 0.01460544 0.00919320 0.00196442 0.00112540 0.00236534 0.01893381 0.00393523 0.03346977 0.00229330 0.00423254 0.01393505 0.00256088 0.00198405 0.00128306 0.00136659 
0.04136827 0.01472320 0.00901397 0.00196049 0.00115920 0.00239350 0.01870258 0.00405750 0.03373295 0.00231495 0.00437822 0.01403516 0.00254865 0.00200517 0.00126796 0.00137696 
0.04142425 0.01483618 0.00883585 0.00195706 0.00119433 0.00242230 0.01845544 0.00418107 0.03397346 0.00235002 0.00453750 0.01411514 0.00253465 0.00202518 0.00125863 0.00138588 
0.04143329 0.01494425 0.00865943 0.00195403 0.00123066 0.00245174 0.01819319 0.00430557 0.03419102 0.00239900 0.00471027 0.01417517 0.00251892 0.00204405 0.00125499 0.00139336 
0.04139436 0.01504733 0.00848527 0.00195130 0.00126806 0.00248180 0.01791665 0.00443059 0.03438544 0.00246229 0.00489634 0.01421557 0.00250147 0.00206174 0.00125696 0.00139940 
0.04130680 0.01514540 0.00831394 0.00194879 0.00130640 0.00251246 0.01762670 0.00455574 0.03455663 0.00254023 0.00509550 0.01423675 0.00248234 0.00207822 0.00126442 0.00140403 
0.04117023 0.01523850 0.00814600 0.00194641 0.00134553 0.00254371 0.01732424 0.00468061 0.03470462 0.00263308 0.00530743 0.01423929 0.00246157 0.00209347 0.00127722 0.00140728 
0.04098463 0.01532673 0.00798201 0.00194407 0.00138529 0.00257552 0.01701024 0.00480478 0.03482954 0.00274106 0.00553175 0.01422386 0.00243922 0.00210746 0.00129518 0.00140916 
0.04075030 0.01541026 0.00782253 0.00194169 0.00142551 0.00260784 0.01668567 0.00492783 0.03493159 0.00286428 0.00576804 0.01419127 0.00241535 0.00212016 0.00131812 0.00140973 
0.04046791 0.01548931 0.00766807 0.00193920 0.00146604 0.00264064 0.01635155 0.00504933 0.03501112 0.00300279 0.00601578 0.01414242 0.00239001 0.00213155 0.00134581 0.00140903 
0.04013843 0.01556416 0.00751918 0.00193652 0.00150669 0.00267387 0.01600892 0.00516885 0.03506852 0.00315655 0.00627441 0.01407834 0.00236327 0.00214161 0.00137801 0.00140711 
0.03976319 0.01563517 0.00737634 0.00193360 0.00154729 0.00270747 0.01565885 0.00528597 0.03510431 0.00332545 0.00654331 0.01400012 0.00233523 0.00215031 0.00141445 0.00140402 
0.03934384 0.01570271 0.00724005 0.00193037 0.00158764 0.00274137 0.01530244 0.00540027 0.03511908 0.00350929 0.00682178 0.01390898 0.00230595 0.00215764 0.00145485 0.00139983 
0.03888235 0.01576726 0.00711075 0.00192678 0.00162758 0.00277551 0.01494080 0.00551132 0.03511351 0.00370778 0.00710909 0.01380619 0.00227553 0.00216358 0.00149891 0.00139459 
0.03838099 0.01582931 0.00698890 0.00192280 0.00166691 0.00280982 0.01457506 0.00561872 0.03508837 0.00392056 0.00740444 0.01369313 0.00224408 0.00216810 0.00154631 0.00138839 
0.03784235 0.01588942 0.00687490 0.00191838 0.00170544 0.00284420 0.01420639 0.00572207 0.03504448 0.00414717 0.00770699 0.01357120 0.00221168 0.00217120 0.00159671 0.00138129 
0.03726930 0.01594821 0.00676912 0.00191350 0.00174298 0.00287858 0.01383594 0.00582097 0.03498273 0.00438709 0.00801586 0.01344188 0.00217844 0.00217286 0.00164976 0.00137337 
0.03666496 0.01600630 0.00667192 0.00190814 0.00177937 0.00291284 0.01346489 0.00591504 0.03490410 0.00463970 0.00833010 0.01330669 0.00214448 0.00217307 0.00170512 0.00136470 
0.03603270 0.01606440 0.00658360 0.00190229 0.00181440 0.00294690 0.01309442 0.00600393 0.03480959 0.00490431 0.00864875 0.01316717 0.00210992 0.00217181 0.00176239 0.00135537 
0.03537615 0.01612322 0.00650446 0.00189593 0.00184791 0.00298065 0.01272572 0.00608728 0.03470026 0.00518014 0.00897081 0.01302489 0.00207486 0.00216908 0.00182122 0.00134546 
0.03469910 0.01618352 0.00643472 0.00188909 0.00187973 0.00301396 0.01235998 0.00616477 0.03457723 0.00546636 0.00929526 0.01288143 0.00203943 0.00216486 0.00188122 0.00133504 
0.03400557 0.01624609 0.00637459 0.00188177 0.00190968 0.00304673 0.01199840 0.00623610 0.03444161 0.00576204 0.00962103 0.01273836 0.00200376 0.00215916 0.00194201 0.00132422 
0.03329969 0.01631173 0.00632423 0.00187399 0.00193762 0.00307884 0.01164215 0.00630097 0.03429458 0.00606621 0.00994705 0.01259725 0.00196796 0.00215197 0.00200318 0.00131305 
0.03258577 0.01638126 0.00628377 0.00186578 0.00196339 0.00311015 0.01129244 0.00635913 0.03413731 0.00637781 0.01027225 0.01245963 0.00193217 0.00214329 0.00206437 0.00130164 
0.03186817 0.01645554 0.00625327 0.00185719 0.00198685 0.00314054 0.01095041 0.00641034 0.03397099 0.00669574 0.01059552 0.01232701 0.00189652 0.00213311 0.00212519 0.00129006 
0.03115139 0.01653540 0.00623279 0.00184826 0.00200787 0.00316989 0.01061725 0.00645440 0.03379680 0.00701883 0.01091578 0.01220083 0.00186112 0.00212144 0.00218525 0.00127840 
0.03043991 0.01662170 0.00622230 0.00183904 0.00202634 0.00319804 0.01029408 0.00649112 0.03361594 0.00734588 0.01123191 0.01208250 0.00182611 0.00210828 0.00224419 0.00126673 
0.02973827 0.01671529 0.00622176 0.00182958 0.00204214 0.00322488 0.00998204 0.00652035 0.03342958 0.00767564 0.01154284 0.01197335 0.00179162 0.00209365 0.00230163 0.00125512 
0.02905098 0.01681701 0.00623108 0.00181997 0.00205519 0.00325027 0.00968224 0.00654197 0.03323885 0.00800681 0.01184750 0.01187463 0.00175776 0.00207756 0.00235724 0.00124367 
0.02838252 0.01692770 0.00625011 0.00181027 0.00206540 0.00327408 0.00939576 0.00655588 0.03304489 0.00833808 0.01214482 0.01178751 0.00172465 0.00206001 0.00241067 0.00123243 
0.02773728 0.01704817 0.00627867 0.00180056 0.00207270 0.00329616 0.00912365 0.00656203 0.03284879 0.00866810 0.01243378 0.01171307 0.00169242 0.00204104 0.00246159 0.00122148 
0.02711956 0.01717921 0.00631653 0.00179091 0.00207705 0.00331640 0.00886693 0.00656038 0.03265160 0.00899551 0.01271337 0.01165228 0.00166118 0.00202066 0.00250970 0.00121088 
0.02653350 0.01732159 0.00636344 0.00178143 0.00207841 0.00333467 0.00862659 0.00655094 0.03245431 0.00931894 0.01298261 0.01160599 0.00163104 0.00199890 0.00255470 0.00120069 
0.02598312 0.01747602 0.00641908 0.00177220 0.00207675 0.00335084 0.00840359 0.00653375 0.03225787 0.00963700 0.01324059 0.01157497 0.00160211 0.00197580 0.00259633 0.00119098 
0.02547222 0.01764322 0.00648311 0.00176331 0.00207206 0.00336479 0.00819883 0.00650887 0.03206317 0.00994834 0.01348640 0.01155984 0.00157448 0.00195139 0.00263433 0.00118179 
0.02500439 0.01782381 0.00655513 0.00175486 0.00206437 0.00337641 0.00801318 0.00647640 0.03187104 0.01025159 0.01371920 0.01156110 0.00154824 0.00192571 0.00266848 0.00117319 
0.02458299 0.01801840 0.00663475 0.00174695 0.00205369 0.00338560 0.00784746 0.00643647 0.03168224 0.01054541 0.01393821 0.01157913 0.00152350 0.00189881 0.00269858 0.00116520 
0.02421110 0.01822753 0.00672149 0.00173967 0.00204006 0.00339225 0.00770242 0.00638925 0.03149746 0.01082848 0.01414269 0.01161416 0.00150033 0.00187075 0.00272444 0.00115789 
0.02389151 0.01845169 0.00681488 0.00173312 0.00202353 0.00339627 0.00757880 0.00633493 0.03131730 0.01109952 0.01433195 0.01166632 0.00147880 0.00184158 0.00274592 0.00115127 
0.02362672 0.01869129 0.00691440 0.00172740 0.00200419 0.00339758 0.00747723 0.00627374 0.03114232 0.01135729 0.01450539 0.01173558 0.00145898 0.00181136 0.00276289 0.00114538 
0.02341889 0.01894669 0.00701951 0.00172261 0.00198211 0.00339611 0.00739831 0.00620591 0.03097297 0.01160059 0.01466245 0.01182177 0.00144093 0.00178018 0.00277526 0.00114025 
0.02326983 0.01921818 0.00712966 0.00171883 0.00195739 0.00339179 0.00734258 0.00613175 0.03080963 0.01182829 0.01480264 0.01192462 0.00142471 0.00174810 0.00278295 0.00113591 
0.02318101 0.01950594 0.00724424 0.00171615 0.00193016 0.00338457 0.00731048 0.00605154 0.03065260 0.01203928 0.01492555 0.01204370 0.00141035 0.00171521 0.00278593 0.00113236 
0.02315352 0.01981012 0.00736268 0.00171466 0.00190053 0.00337441 0.00730242 0.00596562 0.03050210 0.01223258 0.01503083 0.01217848 0.00139788 0.00168161 0.00278418 0.00112961 
0.02318805 0.02013076 0.00748433 0.00171444 0.00186864 0.00336127 0.00731870 0.00587436 0.03035827 0.01240721 0.01511822 0.01232827 0.00138735 0.00164738 0.00277773 0.00112769 
0.02328495 0.02046781 0.00760859 0.00171555 0.00183466 0.00334515 0.00735956 0.00577811 0.03022117 0.01256234 0.01518749 0.01249231 0.00137875 0.00161263 0.00276662 0.00112658 
0.02344414 0.02082115 0.00773482 0.00171807 0.00179874 0.00332602 0.00742518 0.00567728 0.03009078 0.01269715 0.01523854 0.01266968 0.00137210 0.00157747 0.00275093 0.00112629 
0.02366515 0.02119055 0.00786237 0.00172205 0.00176105 0.00330391 0.00751561 0.00557229 0.02996702 0.01281097 0.01527130 0.01285940 0.00136740 0.00154201 0.00273077 0.00112681 
0.02394715 0.02157571 0.00799061 0.00172755 0.00172178 0.00327883 0.00763086 0.00546356 0.02984971 0.01290319 0.01528578 0.01306037 0.00136464 0.00150639 0.00270626 0.00112812 
0.02428887 0.02197623 0.00811889 0.00173460 0.00168111 0.00325082 0.00777084 0.00535154 0.02973862 0.01297329 0.01528208 0.01327139 0.00136380 0.00147071 0.00267756 0.00113021 
0.02468871 0.02239160 0.00824660 0.00174323 0.00163925 0.00321992 0.00793537 0.00523669 0.02963346 0.01302085 0.01526036 0.01349121 0.00136485 0.00143513 0.00264487 0.00113306 
0.02514466 0.02282124 0.00837311 0.00175348 0.00159640 0.00318619 0.00812418 0.00511946 0.02953386 0.01304558 0.01522083 0.01371850 0.00136776 0.00139976 0.00260839 0.00113664 
0.02565435 0.02326446 0.00849781 0.00176535 0.00155276 0.00314972 0.00833690 0.00500034 0.02943942 0.01304725 0.01516379 0.01395185 0.00137248 0.00136477 0.00256837 0.00114093 
0.02621507 0.02372050 0.00862011 0.00177884 0.00150854 0.00311057 0.00857310 0.00487980 0.02934966 0.01302575 0.01508961 0.01418983 0.00137895 0.00133029 0.00252506 0.00114589 
0.02682378 0.02418847 0.00873943 0.00179395 0.00146397 0.00306886 0.00883222 0.00475832 0.02926406 0.01298109 0.01499869 0.01443096 0.00138713 0.00129648 0.00247873 0.00115148 
0.02747712 0.02466744 0.00885524 0.00181065 0.00141924 0.00302470 0.00911364 0.00463639 0.02918209 0.01291336 0.01489151 0.01467374 0.00139693 0.00126348 0.00242970 0.00115767 
0.02817141 0.02515634 0.00896700 0.00182891 0.00137458 0.00297820 0.00941662 0.00451448 0.02910314 0.01282277 0.01476862 0.01491665 0.00140829 0.00123146 0.00237828 0.00116441 
0.02890274 0.02565407 0.00907422 0.00184868 0.00133020 0.00292952 0.00974036 0.00439308 0.02902659 0.01270963 0.01463057 0.01515819 0.00142113 0.00120058 0.00232481 0.00117166 
0.02966691 0.02615941 0.00917644 0.00186992 0.00128631 0.00287878 0.01008394 0.00427264 0.02895182 0.01257434 0.01447802 0.01539684 0.00143534 0.00117099 0.00226964 0.00117936 
0.03045953 0.02667109 0.00927324 0.00189254 0.00124312 0.00282616 0.01044639 0.00415363 0.02887815 0.01241741 0.01431162 0.01563112 0.00145085 0.00114286 0.00221313 0.00118747 
0.03127599 0.02718775 0.00936420 0.00191648 0.00120082 0.00277182 0.01082660 0.00403650 0.02880491 0.01223945 0.01413210 0.01585960 0.00146754 0.00111635 0.00215566 0.00119592 
0.03211154 0.02770797 0.00944899 0.00194164 0.00115960 0.00271594 0.01122344 0.00392168 0.02873144 0.01204115 0.01394019 0.01608087 0.00148532 0.00109161 0.00209761 0.00120468 
0.03296125 0.02823029 0.00952728 0.00196792 0.00111967 0.00265869 0.01163565 0.00380961 0.02865707 0.01182329 0.01373668 0.01629362 0.00150407 0.00106881 0.00203937 0.00121367 
0.03382013 0.02875318 0.00959880 0.00199520 0.00108118 0.00260027 0.01206192 0.00370067 0.02858111 0.01158676 0.01352236 0.01649658 0.00152369 0.00104810 0.00198133 0.00122285 
0.03468308 0.02927506 0.00966331 0.00202337 0.00104432 0.00254089 0.01250085 0.00359526 0.02850294 0.01133249 0.01329806 0.01668858 0.00154405 0.00102962 0.00192390 0.00123214 
0.03554498 0.02979433 0.00972063 0.00205229 0.00100925 0.00248074 0.01295100 0.00349375 0.02842190 0.01106151 0.01306461 0.01686855 0.00156504 0.00101354 0.00186747 0.00124149 
0.03640069 0.03030934 0.00977062 0.00208182 0.00097610 0.00242003 0.01341084 0.00339647 0.02833740 0.01077492 0.01282287 0.01703551 0.00158653 0.00099998 0.00181244 0.00125084 
0.03724509 0.03081843 0.00981315 0.00211181 0.00094502 0.00235898 0.01387879 0.00330376 0.02824886 0.01047388 0.01257369 0.01718861 0.00160840 0.00098908 0.00175919 0.00126012 
0.03807312 0.03131994 0.00984819 0.00214209 0.00091613 0.00229779 0.01435324 0.00321589 0.02815573 0.01015959 0.01231793 0.01732713 0.00163053 0.00098098 0.00170812 0.00126928 
0.03887980 0.03181218 0.00987572 0.00217252 0.00088953 0.00223669 0.01483249 0.00313315 0.02805750 0.00983332 0.01205644 0.01745048 0.00165280 0.00097579 0.00165959 0.00127825 
0.03966026 0.03229349 0.00989576 0.00220290 0.00086533 0.00217589 0.01531486 0.00305578 0.02795373 0.00949639 0.01179007 0.01755820 0.00167507 0.00097362 0.00161398 0.00128697 
0.04040979 0.03276222 0.00990839 0.00223308 0.00084361 0.00211561 0.01579859 0.00298398 0.02784399 0.00915012 0.01151967 0.01765001 0.00169724 0.00097456 0.00157165 0.00129538 
0.04112386 0.03321673 0.00991372 0.00226286 0.00082443 0.00205605 0.01628192 0.00291796 0.02772793 0.00879590 0.01124606 0.01772576 0.00171917 0.00097872 0.00153292 0.00130342 
0.04179813 0.03365543 0.00991191 0.00229207 0.00080784 0.00199743 0.01676307 0.00285785 0.02760523 0.00843512 0.01097003 0.01778548 0.00174075 0.00098617 0.00149812 0.00131103 
0.04242849 0.03407679 0.00990314 0.00232051 0.00079388 0.00193996 0.01724026 0.00280380 0.02747564 0.00806919 0.01069239 0.01782933 0.00176187 0.00099697 0.00146757 0.00131816 
0.04301110 0.03447930 0.00988763 0.00234801 0.00078258 0.00188384 0.01771169 0.00275590 0.02733898 0.00769953 0.01041389 0.01785769 0.00178241 0.00101118 0.00144154 0.00132476 
0.04354238 0.03486154 0.00986566 0.00237438 0.00077393 0.00182925 0.01817559 0.00271422 0.02719510 0.00732754 0.01013526 0.01787106 0.00180226 0.00102883 0.00142029 0.00133076 
0.04401907 0.03522217 0.00983751 0.00239944 0.00076793 0.00177640 0.01863021 0.00267879 0.02704394 0.00695465 0.00985721 0.01787015 0.00182132 0.00104994 0.00140408 0.00133612 
0.04443820 0.03555992 0.00980350 0.00242299 0.00076455 0.00172545 0.01907380 0.00264963 0.02688550 0.00658224 0.00958041 0.01785582 0.00183949 0.00107454 0.00139312 0.00134080 
0.04479717 0.03587362 0.00976398 0.00244487 0.00076376 0.00167659 0.01950468 0.00262672 0.02671981 0.00621170 0.00930549 0.01782910 0.00185668 0.00110260 0.00138760 0.00134474 
0.04509371 0.03616219 0.00971931 0.00246491 0.00076550 0.00162997 0.01992118 0.00261000 0.02654700 0.00584436 0.00903306 0.01779118 0.00187281 0.00113411 0.00138768 0.00134792 
0.04532591 0.03642468 0.00966989 0.00248293 0.00076971 0.00158574 0.02032170 0.00259940 0.02636725 0.00548153 0.00876368 0.01774342 0.00188778 0.00116902 0.00139351 0.00135029 
0.04549224 0.03666025 0.00961611 0.00249878 0.00077630 0.00154405 0.02070470 0.00259481 0.02618079 0.00512450 0.00849787 0.01768735 0.00190154 0.00120729 0.00140520 0.00135181 
0.04559154 0.03686819 0.00955840 0.00251231 0.00078518 0.00150502 0.02106871 0.00259611 0.02598793 0.00477448 0.00823612 0.01762461 0.00191401 0.00124883 0.00142282 0.00135246 
0.04562305 0.03704790 0.00949719 0.00252338 0.00079625 0.00146877 0.02141233 0.00260314 0.02578900 0.00443265 0.00797888 0.01755703 0.00192513 0.00129357 0.00144644 0.00135222 
0.04558637 0.03719894 0.00943289 0.00253186 0.00080939 0.00143541 0.02173425 0.00261572 0.02558443 0.00410012 0.00772655 0.01748652 0.00193486 0.00134139 0.00147608 0.00135106 
0.04548151 0.03732100 0.00936596 0.00253763 0.00082448 0.00140501 0.02203324 0.00263364 0.02537467 0.00377795 0.00747951 0.01741517 0.00194316 0.00139217 0.00151173 0.00134896 
0.04530885 0.03741393 0.00929681 0.00254058 0.00084137 0.00137767 0.02230817 0.00265669 0.02516022 0.00346712 0.00723808 0.01734513 0.00194998 0.00144577 0.00155336 0.00134591 
0.04506915 0.03747771 0.00922589 0.00254063 0.00085992 0.00135343 0.02255804 0.00268462 0.02494164 0.00316856 0.00700256 0.01727868 0.00195531 0.00150204 0.00160090 0.00134192 
0.04476352 0.03751248 0.00915361 0.00253770 0.00087999 0.00133235 0.02278191 0.00271716 0.02471952 0.00288311 0.00677319 0.01721817 0.00195914 0.00156080 0.00165425 0.00133696 
0.04439345 0.03751853 0.00908038 0.00253173 0.00090140 0.00131446 0.02297901 0.00275405 0.02449449 0.00261155 0.00655019 0.01716604 0.00196145 0.00162188 0.00171331 0.00133105 
0.04396077 0.03749630 0.00900660 0.00252266 0.00092400 0.00129979 0.02314864 0.00279498 0.02426720 0.00235455 0.00633375 0.01712478 0.00196224 0.00168508 0.00177792 0.00132420 
0.04346763 0.03744638 0.00893264 0.00251047 0.00094761 0.00128832 0.02329025 0.00283965 0.02403834 0.00211274 0.00612401 0.01709692 0.00196154 0.00175017 0.00184789 0.00131641 
0.04291650 0.03736951 0.00885887 0.00249515 0.00097206 0.00128006 0.02340342 0.00288774 0.02380863 0.00188664 0.00592110 0.01708500 0.00195935 0.00181693 0.00192304 0.00130771 
0.04231014 0.03726658 0.00878561 0.00247669 0.00099718 0.00127498 0.02348783 0.00293891 0.02357878 0.00167670 0.00572509 0.01709160 0.00195572 0.00188513 0.00200313 0.00129811 
0.04165159 0.03713862 0.00871317 0.00245513 0.00102278 0.00127304 0.02354332 0.00299284 0.02334954 0.00148327 0.00553605 0.01711927 0.00195067 0.00195452 0.00208791 0.00128766 
0.04094414 0.03698678 0.00864185 0.00243050 0.00104869 0.00127419 0.02356985 0.00304918 0.02312165 0.00130664 0.00535401 0.01717055 0.00194426 0.00202483 0.00217710 0.00127637 
0.04019131 0.03681236 0.00857188 0.00240285 0.00107472 0.00127836 0.02356750 0.00310757 0.02289587 0.00114700 0.00517898 0.01724791 0.00193654 0.00209581 0.00227042 0.00126430 
0.03939680 0.03661677 0.00850349 0.00237226 0.00110072 0.00128548 0.02353650 0.00316767 0.02267292 0.00100446 0.00501095 0.01735378 0.00192757 0.00216718 0.00236754 0.00125148 
0.03856452 0.03640155 0.00843688 0.00233881 0.00112649 0.00129546 0.02347719 0.00322913 0.02245356 0.00087906 0.00484988 0.01749051 0.00191743 0.00223866 0.00246813 0.00123797 
0.03769852 0.03616833 0.00837219 0.00230263 0.00115188 0.00130818 0.02339005 0.00329159 0.02223850 0.00077074 0.00469573 0.01766033 0.00190620 0.00230996 0.00257185 0.00122382 
0.03680297 0.03591885 0.00830955 0.00226382 0.00117671 0.00132355 0.02327567 0.00335469 0.02202845 0.00067938 0.00454843 0.01786538 0.00189395 0.00238081 0.00267833 0.00120909 
0.03588213 0.03565491 0.00824904 0.00222254 0.00120083 0.00134142 0.02313477 0.00341811 0.02182409 0.00060478 0.00440791 0.01810765 0.00188078 0.00245091 0.00278720 0.00119384 
0.03494035 0.03537841 0.00819071 0.00217894 0.00122409 0.00136168 0.02296818 0.00348148 0.02162607 0.00054665 0.00427407 0.01838898 0.00186680 0.00251997 0.00289807 0.00117815 
0.03398201 0.03509132 0.00813459 0.00213319 0.00124633 0.00138417 0.02277684 0.00354447 0.02143502 0.00050467 0.00414681 0.01871104 0.00185210 0.00258772 0.00301055 0.00116207 
0.03301150 0.03479561 0.00808066 0.00208547 0.00126743 0.00140874 0.02256180 0.00360677 0.02125152 0.00047842 0.00402604 0.01907532 0.00183679 0.00265387 0.00312423 0.00114570 
0.03203320 0.03449336 0.00802886 0.00203598 0.00128726 0.00143523 0.02232420 0.00366804 0.02107612 0.00046743 0.00391164 0.01948311 0.00182099 0.00271815 0.00323872 0.00112910 
0.03105146 0.03418660 0.00797911 0.00198494 0.00130569 0.00146348 0.02206527 0.00372799 0.02090933 0.00047116 0.00380350 0.01993549 0.00180481 0.00278028 0.00335362 0.00111236 
0.03007055 0.03387743 0.00793131 0.00193256 0.00132262 0.00149331 0.02178632 0.00378631 0.02075160 0.00048905 0.00370149 0.02043329 0.00178838 0.00284002 0.00346850 0.00109557 
0.02909467 0.03356791 0.00788530 0.00187908 0.00133794 0.00152454 0.02148875 0.00384273 0.02060334 0.00052044 0.00360550 0.02097714 0.00177182 0.00289710 0.00358298 0.00107882 
0.02812789 0.03326010 0.00784093 0.00182474 0.00135158 0.00155699 0.02117400 0.00389696 0.02046492 0.00056467 0.00351542 0.02156739 0.00175524 0.00295129 0.00369666 0.00106219 
0.02717416 0.03295604 0.00779799 0.00176978 0.00136346 0.00159048 0.02084360 0.00394876 0.02033663 0.00062102 0.00343112 0.02220412 0.00173879 0.00300237 0.00380915 0.00104578 
0.02623727 0.03265769 0.00775627 0.00171446 0.00137351 0.00162482 0.02049909 0.00399789 0.02021873 0.00068872 0.00335249 0.02288718 0.00172257 0.00305013 0.00392006 0.00102968 
0.02532082 0.03236700 0.00771554 0.00165904 0.00138169 0.00165981 0.02014208 0.00404413 0.02011142 0.00076700 0.00327942 0.02361610 0.00170673 0.00309437 0.00402903 0.00101398 
0.02442826 0.03208581 0.00767555 0.00160378 0.00138794 0.00169527 0.01977419 0.00408726 0.02001482 0.00085503 0.00321180 0.02439017 0.00169137 0.00313493 0.00413570 0.00099878 
0.02356278 0.03181590 0.00763602 0.00154895 0.00139225 0.00173101 0.01939706 0.00412709 0.01992903 0.00095199 0.00314953 0.02520835 0.00167663 0.00317165 0.00423972 0.00098418 
0.02272738 0.03155896 0.00759668 0.00149481 0.00139460 0.00176683 0.01901235 0.00416346 0.01985408 0.00105702 0.00309250 0.02606936 0.00166263 0.00320439 0.00434078 0.00097025 
0.02192482 0.03131657 0.00755724 0.00144162 0.00139499 0.00180255 0.01862172 0.00419621 0.01978993 0.00116926 0.00304062 0.02697160 0.00164948 0.00323304 0.00443857 0.00095711 
0.02115763 0.03109020 0.00751743 0.00138965 0.00139343 0.00183799 0.01822679 0.00422520 0.01973649 0.00128783 0.00299381 0.02791319 0.00163729 0.00325751 0.00453281 0.00094483 
0.02042807 0.03088117 0.00747694 0.00133916 0.00138994 0.00187296 0.01782921 0.00425031 0.01969363 0.00141186 0.00295195 0.02889197 0.00162617 0.00327774 0.00462322 0.00093351 
0.01973813 0.03069071 0.00743549 0.00129040 0.00138454 0.00190728 0.01743055 0.00427145 0.01966117 0.00154048 0.00291499 0.02990551 0.00161622 0.00329368 0.00470958 0.00092323 
0.01908958 0.03051987 0.00739281 0.00124361 0.00137730 0.00194078 0.01703238 0.00428854 0.01963885 0.00167281 0.00288283 0.03095109 0.00160755 0.00330531 0.00479165 0.00091407 
0.01848390 0.03036959 0.00734861 0.00119904 0.00136826 0.00197330 0.01663620 0.00430151 0.01962640 0.00180801 0.00285539 0.03202575 0.00160024 0.00331265 0.00486927 0.00090611 
0.01792229 0.03024062 0.00730265 0.00115692 0.00135748 0.00200468 0.01624347 0.00431031 0.01962348 0.00194523 0.00283259 0.03312626 0.00159436 0.00331572 0.00494225 0.00089943 
0.01740572 0.03013358 0.00725466 0.00111745 0.00134505 0.00203476 0.01585559 0.00431493 0.01962972 0.00208363 0.00281437 0.03424916 0.00159001 0.00331459 0.00501047 0.00089409 
0.01693489 0.03004892 0.00720444 0.00108086 0.00133104 0.00206340 0.01547386 0.00431535 0.01964471 0.00222242 0.00280065 0.03539075 0.00158724 0.00330933 0.00507381 0.00089016 
0.01651024 0.02998692 0.00715178 0.00104733 0.00131556 0.00209045 0.01509954 0.00431157 0.01966800 0.00236082 0.00279134 0.03654713 0.00158611 0.00330007 0.00513220 0.00088769 
0.01613196 0.02994771 0.00709649 0.00101705 0.00129870 0.00211580 0.01473380 0.00430364 0.01969913 0.00249808 0.00278637 0.03771422 0.00158666 0.00328694 0.00518559 0.00088674 
0.01580002 0.02993124 0.00703842 0.00099018 0.00128058 0.00213932 0.01437771 0.00429159 0.01973758 0.00263346 0.00278567 0.03888773 0.00158895 0.00327009 0.00523395 0.00088735 
0.01551415 0.02993732 0.00697745 0.00096686 0.00126130 0.00216091 0.01403226 0.00427548 0.01978284 0.00276629 0.00278914 0.04006324 0.00159299 0.00324972 0.00527730 0.00088955 
0.01527386 0.02996557 0.00691348 0.00094724 0.00124099 0.00218046 0.01369833 0.00425538 0.01983437 0.00289591 0.00279670 0.04123619 0.00159880 0.00322603 0.00531566 0.00089339 
0.01507846 0.03001548 0.00684645 0.00093142 0.00121977 0.00219788 0.01337671 0.00423140 0.01989160 0.00302171 0.00280826 0.04240190 0.00160640 0.00319925 0.00534910 0.00089889 
0.01492709 0.03008636 0.00677633 0.00091951 0.00119778 0.00221310 0.01306810 0.00420362 0.01995399 0.00314311 0.00282371 0.04355562 0.00161578 0.00316963 0.00537771 0.00090605 
0.01481867 0.03017741 0.00670313 0.00091158 0.00117515 0.00222605 0.01277307 0.00417218 0.02002095 0.00325957 0.00284295 0.04469252 0.00162692 0.00313745 0.00540162 0.00091488 
0.01475200 0.03028765 0.00662688 0.00090769 0.00115201 0.00223667 0.01249211 0.00413720 0.02009193 0.00337062 0.00286586 0.04580773 0.00163981 0.00310300 0.00542095 0.00092539 
0.01472573 0.03041600 0.00654765 0.00090787 0.00112850 0.00224491 0.01222559 0.00409883 0.02016637 0.00347579 0.00289233 0.04689638 0.00165442 0.00306658 0.00543589 0.00093756 
0.01473836 0.03056124 0.00646557 0.00091216 0.00110476 0.00225075 0.01197377 0.00405724 0.02024370 0.00357469 0.00292221 0.04795361 0.00167069 0.00302852 0.00544662 0.00095138 
0.01478831 0.03072204 0.00638077 0.00092054 0.00108093 0.00225416 0.01173684 0.00401259 0.02032340 0.00366696 0.00295537 0.04897458 0.00168857 0.00298916 0.00545335 0.00096681 
0.01487389 0.03089695 0.00629344 0.00093300 0.00105714 0.00225512 0.01151485 0.00396508 0.02040495 0.00375229 0.00299165 0.04995455 0.00170800 0.00294883 0.00545632 0.00098382 
0.01499334 0.03108446 0.00620379 0.00094950 0.00103353 0.00225365 0.01130778 0.00391488 0.02048784 0.00383040 0.00303089 0.05088885 0.00172890 0.00290791 0.00545578 0.00100236 
0.01514485 0.03128294 0.00611206 0.00096998 0.00101022 0.00224974 0.01111549 0.00386221 0.02057161 0.00390109 0.00307292 0.05177294 0.00175119 0.00286676 0.00545200 0.00102239 
0.01532655 0.03149073 0.00601854 0.00099436 0.00098736 0.00224342 0.01093776 0.00380728 0.02065582 0.00396417 0.00311754 0.05260243 0.00177479 0.00282575 0.00544527 0.00104383 
0.01553656 0.03170607 0.00592353 0.00102254 0.00096505 0.00223473 0.01077429 0.00375031 0.02074007 0.00401951 0.00316457 0.05337309 0.00179958 0.00278525 0.00543587 0.00106663 
0.01577301 0.03192718 0.00582736 0.00105441 0.00094342 0.00222370 0.01062469 0.00369154 0.02082398 0.00406701 0.00321379 0.05408090 0.00182546 0.00274564 0.00542411 0.00109069 
0.01603401 0.03215224 0.00573039 0.00108984 0.00092259 0.00221039 0.01048849 0.00363120 0.02090723 0.00410665 0.00326499 0.05472207 0.00185231 0.00270729 0.00541032 0.00111594 
0.01631771 0.03237942 0.00563299 0.00112868 0.00090265 0.00219487 0.01036516 0.00356954 0.02098954 0.00413840 0.00331794 0.05529304 0.00188002 0.00267057 0.00539480 0.00114228 
0.01662229 0.03260688 0.00553557 0.00117076 0.00088371 0.00217721 0.01025410 0.00350680 0.02107067 0.00416230 0.00337240 0.05579054 0.00190845 0.00263585 0.00537789 0.00116960 
0.01694601 0.03283276 0.00543853 0.00121590 0.00086586 0.00215748 0.01015464 0.00344326 0.02115043 0.00417844 0.00342813 0.05621157 0.00193747 0.00260349 0.00535991 0.00119781 
0.01728715 0.03305526 0.00534231 0.00126391 0.00084918 0.00213579 0.01006608 0.00337916 0.02122869 0.00418691 0.00348487 0.05655345 0.00196695 0.00257383 0.00534118 0.00122679 
0.01764412 0.03327258 0.00524732 0.00131458 0.00083375 0.00211222 0.00998767 0.00331478 0.02130534 0.00418786 0.00354235 0.05681383 0.00199675 0.00254720 0.00532203 0.00125642 
0.01801538 0.03348299 0.00515402 0.00136770 0.00081963 0.00208690 0.00991862 0.00325039 0.02138037 0.00418148 0.00360032 0.05699072 0.00202671 0.00252393 0.00530278 0.00128658 
0.01839949 0.03368479 0.00506283 0.00142303 0.00080688 0.00205992 0.00985811 0.00318625 0.02145380 0.00416796 0.00365850 0.05708246 0.00205670 0.00250431 0.00528373 0.00131713 
0.01879513 0.03387637 0.00497421 0.00148034 0.00079556 0.00203142 0.00980530 0.00312265 0.02152568 0.00414756 0.00371661 0.05708778 0.00208657 0.00248864 0.00526518 0.00134796 
0.01920108 0.03405618 0.00488857 0.00153938 0.00078568 0.00200152 0.00975934 0.00305986 0.02159617 0.00412054 0.00377437 0.05700581 0.00211617 0.00247716 0.00524741 0.00137892 
0.01961626 0.03422277 0.00480634 0.00159990 0.00077729 0.00197035 0.00971938 0.00299815 0.02166543 0.00408718 0.00383151 0.05683606 0.00214536 0.00247013 0.00523072 0.00140988 
0.02003967 0.03437478 0.00472794 0.00166163 0.00077040 0.00193805 0.00968454 0.00293781 0.02173371 0.00404780 0.00388773 0.05657842 0.00217401 0.00246775 0.00521534 0.00144070 
0.02047048 0.03451096 0.00465374 0.00172433 0.00076502 0.00190476 0.00965400 0.00287910 0.02180129 0.00400273 0.00394277 0.05623324 0.00220195 0.00247023 0.00520153 0.00147124 
0.02090795 0.03463017 0.00458413 0.00178772 0.00076114 0.00187063 0.00962691 0.00282230 0.02186852 0.00395234 0.00399635 0.05580123 0.00222907 0.00247772 0.00518950 0.00150136 
0.02135150 0.03473139 0.00451946 0.00185155 0.00075876 0.00183580 0.00960247 0.00276768 0.02193579 0.00389697 0.00404820 0.05528353 0.00225523 0.00249036 0.00517945 0.00153092 
0.02180063 0.03481373 0.00446004 0.00191554 0.00075785 0.00180043 0.00957989 0.00271550 0.02200352 0.00383703 0.00409805 0.05468170 0.00228029 0.00250826 0.00517158 0.00155980 
0.02225501 0.03487643 0.00440617 0.00197943 0.00075839 0.00176466 0.00955843 0.00266603 0.02207222 0.00377289 0.00414565 0.05399768 0.00230416 0.00253150 0.00516603 0.00158784 
0.02271441 0.03491887 0.00435812 0.00204297 0.00076032 0.00172866 0.00953738 0.00261952 0.02214239 0.00370496 0.00419076 0.05323384 0.00232670 0.00256013 0.00516293 0.00161493 
0.02317871 0.03494057 0.00431610 0.00210590 0.00076361 0.00169257 0.00951609 0.00257623 0.02221460 0.00363366 0.00423314 0.05239290 0.00234782 0.00259416 0.00516241 0.00164093 
0.02364791 0.03494119 0.00428033 0.00216798 0.00076820 0.00165654 0.00949394 0.00253638 0.02228945 0.00355939 0.00427255 0.05147802 0.00236741 0.00263358 0.00516455 0.00166573 
0.02412210 0.03492051 0.00425094 0.00222895 0.00077401 0.00162073 0.00947039 0.00250022 0.02236756 0.00348257 0.00430881 0.05049267 0.00238540 0.00267835 0.00516940 0.00168919 
0.02460147 0.03487848 0.00422806 0.00228859 0.00078099 0.00158528 0.00944493 0.00246798 0.02244960 0.00340361 0.00434171 0.04944071 0.00240171 0.00272838 0.00517702 0.00171122 
0.02508631 0.03481519 0.00421176 0.00234668 0.00078904 0.00155035 0.00941714 0.00243985 0.02253624 0.00332295 0.00437108 0.04832635 0.00241627 0.00278359 0.00518740 0.00173170 
0.02557697 0.03473086 0.00420207 0.00240300 0.00079809 0.00151607 0.00938664 0.00241605 0.02262818 0.00324098 0.00439675 0.04715409 0.00242902 0.00284382 0.00520053 0.00175054 
0.02607387 0.03462585 0.00419900 0.00245736 0.00080805 0.00148259 0.00935314 0.00239677 0.02272612 0.00315811 0.00441859 0.04592876 0.00243992 0.00290893 0.00521639 0.00176765 
0.02657749 0.03450064 0.00420250 0.00250956 0.00081881 0.00145004 0.00931640 0.00238218 0.02283078 0.00307476 0.00443648 0.04465547 0.00244895 0.00297871 0.00523492 0.00178294 
0.02708835 0.03435586 0.00421248 0.00255943 0.00083028 0.00141855 0.00927626 0.00237244 0.02294289 0.00299130 0.00445031 0.04333958 0.00245607 0.00305295 0.00525604 0.00179634 
0.02760701 0.03419226 0.00422882 0.00260681 0.00084235 0.00138825 0.00923262 0.00236770 0.02306317 0.00290813 0.00446001 0.04198671 0.00246129 0.00313140 0.00527964 0.00180778 
0.02813404 0.03401068 0.00425136 0.00265155 0.00085493 0.00135926 0.00918546 0.00236810 0.02319231 0.00282562 0.00446552 0.04060268 0.00246461 0.00321380 0.00530561 0.00181721 
0.02867003 0.03381211 0.00427989 0.00269353 0.00086788 0.00133169 0.00913481 0.00237374 0.02333102 0.00274412 0.00446680 0.03919350 0.00246605 0.00329985 0.00533382 0.00182459 
0.02921556 0.03359761 0.00431419 0.00273263 0.00088112 0.00130564 0.00908079 0.00238473 0.02347996 0.00266399 0.00446385 0.03776534 0.00246564 0.00338925 0.00536412 0.00182987 
0.02977120 0.03336835 0.00435399 0.00276876 0.00089453 0.00128122 0.00902357 0.00240114 0.02363980 0.00258555 0.00445666 0.03632453 0.00246342 0.00348166 0.00539633 0.00183304 
0.03033749 0.03312558 0.00439900 0.00280182 0.00090799 0.00125852 0.00896337 0.00242304 0.02381115 0.00250912 0.00444528 0.03487749 0.00245944 0.00357674 0.00543029 0.00183407 
0.03091493 0.03287063 0.00444890 0.00283177 0.00092140 0.00123762 0.00890049 0.00245046 0.02399458 0.00243500 0.00442975 0.03343071 0.00245379 0.00367413 0.00546580 0.00183297 
0.03150396 0.03260488 0.00450336 0.00285855 0.00093464 0.00121859 0.00883529 0.00248343 0.02419064 0.00236346 0.00441016 0.03199077 0.00244653 0.00377345 0.00550268 0.00182973 
0.03210497 0.03232979 0.00456201 0.00288213 0.00094762 0.00120150 0.00876815 0.00252195 0.02439982 0.00229478 0.00438661 0.03056424 0.00243775 0.00387432 0.00554073 0.00182438 
0.03271828 0.03204684 0.00462448 0.00290249 0.00096022 0.00118642 0.00869952 0.00256598 0.02462254 0.00222919 0.00435920 0.02915770 0.00242757 0.00397636 0.00557975 0.00181694 
0.03334411 0.03175756 0.00469039 0.00291965 0.00097235 0.00117338 0.00862990 0.00261550 0.02485920 0.00216693 0.00432809 0.02777772 0.00241609 0.00407915 0.00561953 0.00180746 
0.03398261 0.03146350 0.00475936 0.00293361 0.00098391 0.00116244 0.00855980 0.00267044 0.02511009 0.00210818 0.00429343 0.02643077 0.00240342 0.00418231 0.00565987 0.00179597 
0.03463381 0.03116623 0.00483098 0.00294442 0.00099481 0.00115361 0.00848977 0.00273071 0.02537546 0.00205314 0.00425540 0.02512326 0.00238971 0.00428543 0.00570060 0.00178253 
0.03529764 0.03086730 0.00490488 0.00295212 0.00100497 0.00114693 0.00842040 0.00279621 0.02565549 0.00200197 0.00421419 0.02386150 0.00237510 0.00438813 0.00574150 0.00176721 
0.03597393 0.03056828 0.00498067 0.00295678 0.00101429 0.00114241 0.00835230 0.00286680 0.02595025 0.00195480 0.00417001 0.02265162 0.00235972 0.00449000 0.00578242 0.00175009 
0.03666236 0.03027071 0.00505799 0.00295846 0.00102272 0.00114004 0.00828607 0.00294234 0.02625976 0.00191177 0.00412310 0.02149963 0.00234372 0.00459066 0.00582318 0.00173124 
0.03736252 0.02997608 0.00513649 0.00295728 0.00103018 0.00113984 0.00822233 0.00302265 0.02658393 0.00187298 0.00407368 0.02041132 0.00232728 0.00468974 0.00586364 0.00171077 
0.03807385 0.02968588 0.00521582 0.00295332 0.00103662 0.00114178 0.00816172 0.00310755 0.02692262 0.00183849 0.00402200 0.01939228 0.00231054 0.00478688 0.00590365 0.00168876 
0.03879566 0.02940151 0.00529571 0.00294671 0.00104197 0.00114584 0.00810484 0.00319683 0.02727554 0.00180838 0.00396833 0.01844786 0.00229368 0.00488172 0.00594310 0.00166533 
0.03952715 0.02912435 0.00537586 0.00293756 0.00104619 0.00115199 0.00805232 0.00329025 0.02764237 0.00178267 0.00391294 0.01758316 0.00227686 0.00497393 0.00598190 0.00164059 
0.04026738 0.02885568 0.00545605 0.00292601 0.00104926 0.00116020 0.00800475 0.00338756 0.02802263 0.00176140 0.00385609 0.01680299 0.00226025 0.00506320 0.00601996 0.00161466 
0.04101528 0.02859674 0.00553607 0.00291221 0.00105113 0.00117042 0.00796270 0.00348850 0.02841581 0.00174455 0.00379808 0.01611186 0.00224402 0.00514922 0.00605723 0.00158766 
0.04176965 0.02834865 0.00561576 0.00289631 0.00105179 0.00118260 0.00792670 0.00359278 0.02882124 0.00173211 0.00373918 0.01551400 0.00222835 0.00523174 0.00609368 0.00155972 
0.04252918 0.02811247 0.00569502 0.00287845 0.00105123 0.00119668 0.00789729 0.00370011 0.02923820 0.00172404 0.00367967 0.01501326 0.00221338 0.00531050 0.00612931 0.00153096 
0.04329245 0.02788915 0.00577378 0.00285882 0.00104944 0.00121259 0.00787492 0.00381016 0.02966585 0.00172028 0.00361985 0.01461318 0.00219930 0.00538527 0.00616414 0.00150153 
0.04405791 0.02767956 0.00585202 0.00283756 0.00104642 0.00123027 0.00786004 0.00392263 0.03010326 0.00172076 0.00356000 0.01431692 0.00218625 0.00545586 0.00619822 0.00147157 
0.04482393 0.02748443 0.00592980 0.00281486 0.00104219 0.00124964 0.00785302 0.00403716 0.03054941 0.00172539 0.00350039 0.01412729 0.00217440 0.00552210 0.00623163 0.00144120 
0.04558878 0.02730442 0.00600719 0.00279088 0.00103676 0.00127061 0.00785421 0.00415340 0.03100318 0.00173405 0.00344130 0.01404668 0.00216389 0.00558383 0.00626445 0.00141057 
0.04635066 0.02714005 0.00608436 0.00276581 0.00103018 0.00129310 0.00786388 0.00427101 0.03146336 0.00174663 0.00338299 0.01407714 0.00215486 0.00564095 0.00629684 0.00137981 
0.04710767 0.02699175 0.00616151 0.00273981 0.00102246 0.00131703 0.00788225 0.00438962 0.03192866 0.00176299 0.00332573 0.01422027 0.00214745 0.00569338 0.00632893 0.00134907 
0.04785787 0.02685981 0.00623890 0.00271305 0.00101365 0.00134229 0.00790950 0.00450885 0.03239773 0.00178298 0.00326975 0.01447729 0.00214179 0.00574105 0.00636091 0.00131848 
0.04859929 0.02674442 0.00631687 0.00268572 0.00100381 0.00136879 0.00794571 0.00462833 0.03286910 0.00180642 0.00321531 0.01484902 0.00213798 0.00578393 0.00639298 0.00128817 
0.04932989 0.02664566 0.00639580 0.00265798 0.00099299 0.00139643 0.00799093 0.00474770 0.03334126 0.00183315 0.00316261 0.01533585 0.00213614 0.00582205 0.00642538 0.00125828 
0.05004764 0.02656348 0.00647610 0.00263000 0.00098125 0.00142512 0.00804514 0.00486656 0.03381263 0.00186298 0.00311188 0.01593775 0.00213636 0.00585541 0.00645834 0.00122893 
0.05075050 0.02649774 0.00655828 0.00260195 0.00096865 0.00145475 0.00810823 0.00498455 0.03428157 0.00189571 0.00306331 0.01665430 0.00213872 0.00588409 0.00649214 0.00120025 
0.05143642 0.02644817 0.00664288 0.00257397 0.00095528 0.00148521 0.00818005 0.00510130 0.03474640 0.00193112 0.00301707 0.01748465 0.00214330 0.00590818 0.00652707 0.00117234 
0.05210339 0.02641441 0.00673047 0.00254623 0.00094120 0.00151641 0.00826038 0.00521644 0.03520537 0.00196901 0.00297333 0.01842754 0.00215016 0.00592779 0.00656342 0.00114534 
0.05274945 0.02639600 0.00682168 0.00251887 0.00092651 0.00154825 0.00834892 0.00532960 0.03565673 0.00200915 0.00293223 0.01948131 0.00215934 0.00594306 0.00660152 0.00111933 
0.05337268 0.02639237 0.00691720 0.00249204 0.00091128 0.00158061 0.00844534 0.00544045 0.03609866 0.00205131 0.00289390 0.02064392 0.00217088 0.00595415 0.00664168 0.00109442 
0.05397124 0.02640287 0.00701772 0.00246587 0.00089561 0.00161341 0.00854922 0.00554863 0.03652937 0.00209525 0.00285845 0.02191289 0.00218481 0.00596127 0.00668423 0.00107071 
0.05454336 0.02642678 0.00712397 0.00244050 0.00087957 0.00164653 0.00866010 0.00565383 0.03694703 0.00214073 0.00282595 0.02328542 0.00220113 0.00596461 0.00672953 0.00104827 
0.05508738 0.02646328 0.00723673 0.00241603 0.00086327 0.00167990 0.00877744 0.00575571 0.03734981 0.00218751 0.00279649 0.02475828 0.00221983 0.00596441 0.00677789 0.00102719 
0.05560176 0.02651151 0.00735677 0.00239259 0.00084681 0.00171340 0.00890068 0.00585398 0.03773591 0.00223534 0.00277011 0.02632791 0.00224092 0.00596091 0.00682966 0.00100753 
0.05608508 0.02657051 0.00748487 0.00237027 0.00083026 0.00174695 0.00902919 0.00594835 0.03810354 0.00228396 0.00274683 0.02799041 0.00226435 0.00595438 0.00688516 0.00098935 
0.05653607 0.02663932 0.00762185 0.00234919 0.00081372 0.00178045 0.00916230 0.00603856 0.03845093 0.00233314 0.00272667 0.02974152 0.00229010 0.00594510 0.00694472 0.00097270 
0.05695359 0.02671689 0.00776850 0.00232943 0.00079730 0.00181383 0.00929931 0.00612435 0.03877637 0.00238263 0.00270961 0.03157667 0.00231811 0.00593335 0.00700865 0.00095763 
0.05733668 0.02680217 0.00792560 0.00231108 0.00078107 0.00184701 0.00943947 0.00620548 0.03907819 0.00243216 0.00269563 0.03349099 0.00234831 0.00591943 0.00707723 0.00094417 
0.05768455 0.02689407 0.00809394 0.00229420 0.00076513 0.00187989 0.00958202 0.00628176 0.03935477 0.00248150 0.00268467 0.03547934 0.00238065 0.00590365 0.00715075 0.00093234 
0.05799660 0.02699148 0.00827426 0.00227887 0.00074956 0.00191242 0.00972615 0.00635298 0.03960458 0.00253041 0.00267667 0.03753628 0.00241505 0.00588632 0.00722944 0.00092216 
0.05827239 0.02709330 0.00846729 0.00226516 0.00073445 0.00194452 0.00987104 0.00641897 0.03982614 0.00257864 0.00267155 0.03965615 0.00245140 0.00586773 0.00731353 0.00091364 
0.05851170 0.02719844 0.00867370 0.00225310 0.00071989 0.00197612 0.01001588 0.00647960 0.04001810 0.00262595 0.00266921 0.04183305 0.00248962 0.00584822 0.00740323 0.00090676 
0.05871450 0.02730579 0.00889414 0.00224275 0.00070593 0.00200716 0.01015980 0.00653473 0.04017917 0.00267213 0.00266952 0.04406088 0.00252960 0.00582807 0.00749868 0.00090152 
0.05888097 0.02741431 0.00912919 0.00223416 0.00069267 0.00203759 0.01030199 0.00658425 0.04030818 0.00271695 0.00267236 0.04633335 0.00257123 0.00580760 0.00760001 0.00089790 
0.05901149 0.02752296 0.00937937 0.00222735 0.00068016 0.00206735 0.01044158 0.00662810 0.04040407 0.00276018 0.00267758 0.04864401 0.00261440 0.00578709 0.00770731 0.00089587 
0.05910662 0.02763075 0.00964513 0.00222235 0.00066847 0.00209639 0.01057776 0.00666621 0.04046589 0.00280163 0.00268502 0.05098627 0.00265898 0.00576682 0.00782064 0.00089539 
0.05916716 0.02773674 0.00992686 0.00221919 0.00065765 0.00212468 0.01070969 0.00669854 0.04049284 0.00284109 0.00269451 0.05335344 0.00270486 0.00574708 0.00793998 0.00089642 
0.05919408 0.02784007 0.01022486 0.00221789 0.00064775 0.00215218 0.01083659 0.00672509 0.04048423 0.00287838 0.00270588 0.05573872 0.00275191 0.00572812 0.00806530 0.00089890 
0.05918856 0.02793991 0.01053934 0.00221845 0.00063883 0.00217884 0.01095767 0.00674586 0.04043953 0.00291331 0.00271893 0.05813526 0.00279999 0.00571017 0.00819652 0.00090277 
0.05915196 0.02803553 0.01087042 0.00222089 0.00063091 0.00220463 0.01107220 0.00676088 0.04035832 0.00294572 0.00273347 0.06053617 0.00284899 0.00569345 0.00833348 0.00090797 
0.05908581 0.02812627 0.01121812 0.00222520 0.00062404 0.00222954 0.01117945 0.00677020 0.04024036 0.00297544 0.00274928 0.06293453 0.00289877 0.00567818 0.00847602 0.00091443 
0.05899182 0.02821157 0.01158236 0.00223140 0.00061823 0.00225354 0.01127875 0.00677389 0.04008553 0.00300234 0.00276617 0.06532345 0.00294920 0.00566453 0.00862389 0.00092207 
0.05887186 0.02829094 0.01196295 0.00223947 0.00061350 0.00227660 0.01136947 0.00677204 0.03989388 0.00302627 0.00278391 0.06769607 0.00300017 0.00565265 0.00877680 0.00093081 
0.05872793 0.02836401 0.01235960 0.00224942 0.00060987 0.00229872 0.01145103 0.00676476 0.03966561 0.00304711 0.00280229 0.07004559 0.00305155 0.00564268 0.00893442 0.00094056 
0.05856218 0.02843050 0.01277189 0.00226123 0.00060735 0.00231987 0.01152289 0.00675216 0.03940107 0.00306477 0.00282109 0.07236530 0.00310322 0.00563472 0.00909636 0.00095123 
0.05837685 0.02849022 0.01319931 0.00227488 0.00060592 0.00234006 0.01158457 0.00673440 0.03910074 0.00307913 0.00284010 0.07464859 0.00315507 0.00562886 0.00926218 0.00096273 
0.05817431 0.02854312 0.01364122 0.00229037 0.00060559 0.00235927 0.01163564 0.00671162 0.03876529 0.00309012 0.00285908 0.07688901 0.00320698 0.00562516 0.00943140 0.00097497 
0.05795699 0.02858922 0.01409686 0.00230768 0.00060634 0.00237750 0.01167573 0.00668399 0.03839550 0.00309768 0.00287784 0.07908026 0.00325887 0.00562363 0.00960348 0.00098784 
0.05772739 0.02862867 0.01456536 0.00232679 0.00060816 0.00239475 0.01170454 0.00665169 0.03799232 0.00310175 0.00289616 0.08121620 0.00331061 0.00562428 0.00977786 0.00100124 
0.05748804 0.02866172 0.01504574 0.00234767 0.00061101 0.00241101 0.01172183 0.00661491 0.03755684 0.00310229 0.00291383 0.08329094 0.00336214 0.00562707 0.00995390 0.00101508 
0.05724153 0.02868873 0.01553691 0.00237031 0.00061486 0.00242630 0.01172741 0.00657385 0.03709026 0.00309927 0.00293065 0.08529880 0.00341336 0.00563196 0.01013096 0.00102927 
0.05699042 0.02871016 0.01603766 0.00239467 0.00061968 0.00244062 0.01172115 0.00652872 0.03659394 0.00309269 0.00294643 0.08723433 0.00346419 0.00563886 0.01030834 0.00104369 
0.05673726 0.02872658 0.01654670 0.00242073 0.00062542 0.00245397 0.01170302 0.00647973 0.03606935 0.00308256 0.00296098 0.08909237 0.00351457 0.00564766 0.01048530 0.00105826 
0.05648458 0.02873865 0.01706261 0.00244847 0.00063205 0.00246635 0.01167301 0.00642711 0.03551808 0.00306888 0.00297413 0.09086805 0.00356444 0.00565824 0.01066110 0.00107287 
0.05623482 0.02874712 0.01758389 0.00247784 0.00063950 0.00247779 0.01163120 0.00637108 0.03494183 0.00305170 0.00298571 0.09255680 0.00361374 0.00567042 0.01083496 0.00108745 
0.05599038 0.02875283 0.01810895 0.00250881 0.00064773 0.00248828 0.01157773 0.00631187 0.03434238 0.00303107 0.00299556 0.09415436 0.00366242 0.00568403 0.01100606 0.00110189 
0.05575353 0.02875670 0.01863612 0.00254135 0.00065667 0.00249784 0.01151279 0.00624971 0.03372164 0.00300704 0.00300355 0.09565683 0.00371044 0.00569887 0.01117360 0.00111611 
0.05552643 0.02875974 0.01916367 0.00257542 0.00066627 0.00250648 0.01143665 0.00618484 0.03308159 0.00297969 0.00300953 0.09706063 0.00375778 0.00571471 0.01133673 0.00113004 
0.05531111 0.02876300 0.01968978 0.00261097 0.00067645 0.00251421 0.01134960 0.00611747 0.03242426 0.00294911 0.00301340 0.09836257 0.00380441 0.00573131 0.01149464 0.00114359 
0.05510944 0.02876761 0.02021258 0.00264795 0.00068716 0.00252104 0.01125203 0.00604786 0.03175176 0.00291540 0.00301505 0.09955982 0.00385031 0.00574843 0.01164647 0.00115669 
0.05492311 0.02877475 0.02073016 0.00268633 0.00069833 0.00252699 0.01114436 0.00597622 0.03106627 0.00287868 0.00301439 0.10064992 0.00389546 0.00576578 0.01179141 0.00116928 
0.05475362 0.02878562 0.02124058 0.00272604 0.00070988 0.00253207 0.01102705 0.00590277 0.03037000 0.00283907 0.00301134 0.10163081 0.00393986 0.00578309 0.01192862 0.00118130 
0.05460228 0.02880147 0.02174186 0.00276703 0.00072175 0.00253629 0.01090063 0.00582774 0.02966516 0.00279672 0.00300584 0.10250082 0.00398351 0.00580006 0.01205731 0.00119268 
0.05447016 0.02882357 0.02223200 0.00280924 0.00073386 0.00253967 0.01076565 0.00575136 0.02895404 0.00275177 0.00299785 0.10325867 0.00402641 0.00581641 0.01217669 0.00120339 
0.05435812 0.02885320 0.02270902 0.00285260 0.00074616 0.00254222 0.01062273 0.00567381 0.02823890 0.00270439 0.00298734 0.10390347 0.00406857 0.00583182 0.01228601 0.00121337 
0.05426676 0.02889163 0.02317091 0.00289704 0.00075855 0.00254395 0.01047250 0.00559532 0.02752201 0.00265474 0.00297428 0.10443475 0.00411000 0.00584600 0.01238454 0.00122260 
0.05419645 0.02894014 0.02361571 0.00294250 0.00077099 0.00254489 0.01031562 0.00551608 0.02680562 0.00260300 0.00295869 0.10485242 0.00415071 0.00585865 0.01247160 0.00123104 
0.05414730 0.02899996 0.02404148 0.00298889 0.00078340 0.00254503 0.01015280 0.00543629 0.02609198 0.00254936 0.00294058 0.10515678 0.00419071 0.00586946 0.01254655 0.00123868 
0.05411914 0.02907233 0.02444632 0.00303612 0.00079571 0.00254441 0.00998476 0.00535612 0.02538328 0.00249403 0.00291998 0.10534853 0.00423003 0.00587816 0.01260880 0.00124550 
0.05411157 0.02915840 0.02482836 0.00308411 0.00080786 0.00254303 0.00981224 0.00527576 0.02468170 0.00243719 0.00289693 0.10542872 0.00426867 0.00588445 0.01265781 0.00125148 
0.05412390 0.02925931 0.02518584 0.00313276 0.00081979 0.00254092 0.00963600 0.00519538 0.02398933 0.00237906 0.00287149 0.10539882 0.00430666 0.00588808 0.01269311 0.00125662 
0.05415519 0.02937610 0.02551703 0.00318197 0.00083145 0.00253808 0.00945681 0.00511513 0.02330824 0.00231985 0.00284374 0.10526063 0.00434400 0.00588879 0.01271427 0.00126094 
0.05420423 0.02950977 0.02582031 0.00323163 0.00084278 0.00253455 0.00927544 0.00503518 0.02264038 0.00225979 0.00281378 0.10501631 0.00438072 0.00588635 0.01272095 0.00126444 
0.05426957 0.02966121 0.02609414 0.00328164 0.00085372 0.00253033 0.00909268 0.00495567 0.02198767 0.00219909 0.00278169 0.10466836 0.00441681 0.00588054 0.01271288 0.00126713 
0.05434950 0.02983123 0.02633710 0.00333188 0.00086423 0.00252544 0.00890932 0.00487674 0.02135191 0.00213797 0.00274759 0.10421960 0.00445230 0.00587117 0.01268986 0.00126904 
0.05444210 0.03002055 0.02654787 0.00338222 0.00087426 0.00251991 0.00872611 0.00479852 0.02073481 0.00207667 0.00271161 0.10367318 0.00448719 0.00585808 0.01265175 0.00127019 
0.05454518 0.03022976 0.02672526 0.00343254 0.00088379 0.00251376 0.00854384 0.00472113 0.02013799 0.00201541 0.00267389 0.10303253 0.00452147 0.00584112 0.01259852 0.00127062 
0.05465638 0.03045935 0.02686820 0.00348270 0.00089276 0.00250701 0.00836326 0.00464470 0.01956294 0.00195441 0.00263457 0.10230137 0.00455515 0.00582018 0.01253019 0.00127037 
0.05477313 0.03070968 0.02697577 0.00353257 0.00090114 0.00249969 0.00818511 0.00456934 0.01901105 0.00189390 0.00259381 0.10148367 0.00458821 0.00579519 0.01244690 0.00126947 
0.05489266 0.03098098 0.02704719 0.00358201 0.00090893 0.00249181 0.00801012 0.00449515 0.01848358 0.00183411 0.00255177 0.10058366 0.00462065 0.00576608 0.01234885 0.00126797 
0.05501208 0.03127335 0.02708183 0.00363088 0.00091608 0.00248342 0.00783898 0.00442222 0.01798168 0.00177525 0.00250864 0.09960578 0.00465244 0.00573286 0.01223633 0.00126592 
0.05512832 0.03158676 0.02707920 0.00367902 0.00092258 0.00247453 0.00767237 0.00435065 0.01750635 0.00171753 0.00246458 0.09855469 0.00468356 0.00569552 0.01210971 0.00126337 
0.05523820 0.03192103 0.02703897 0.00372628 0.00092841 0.00246518 0.00751095 0.00428053 0.01705846 0.00166117 0.00241978 0.09743524 0.00471398 0.00565413 0.01196945 0.00126038 
0.05533846 0.03227583 0.02696100 0.00377252 0.00093358 0.00245539 0.00735532 0.00421193 0.01663876 0.00160638 0.00237444 0.09625244 0.00474368 0.00560877 0.01181610 0.00125699 
0.05542575 0.03265070 0.02684527 0.00381758 0.00093807 0.00244521 0.00720608 0.00414494 0.01624784 0.00155334 0.00232874 0.09501143 0.00477259 0.00555958 0.01165027 0.00125327 
0.05549667 0.03304503 0.02669195 0.00386131 0.00094189 0.00243466 0.00706378 0.00407962 0.01588617 0.00150225 0.00228289 0.09371751 0.00480070 0.00550670 0.01147266 0.00124928 
0.05554780 0.03345805 0.02650137 0.00390354 0.00094503 0.00242379 0.00692893 0.00401604 0.01555406 0.00145328 0.00223708 0.09237607 0.00482793 0.00545033 0.01128407 0.00124507 
0.05557572 0.03388888 0.02627400 0.00394413 0.00094750 0.00241263 0.00680202 0.00395427 0.01525170 0.00140662 0.00219150 0.09099259 0.00485424 0.00539070 0.01108532 0.00124071 
0.05557703 0.03433647 0.02601049 0.00398293 0.00094933 0.00240122 0.00668349 0.00389436 0.01497912 0.00136242 0.00214636 0.08957262 0.00487956 0.00532808 0.01087734 0.00123625 
0.05554839 0.03479965 0.02571164 0.00401978 0.00095051 0.00238961 0.00657372 0.00383637 0.01473622 0.00132084 0.00210185 0.08812174 0.00490384 0.00526277 0.01066112 0.00123175 
0.05548654 0.03527711 0.02537841 0.00405454 0.00095108 0.00237783 0.00647308 0.00378036 0.01452277 0.00128201 0.00205816 0.08664559 0.00492700 0.00519508 0.01043768 0.00122727 
0.05538831 0.03576742 0.02501190 0.00408707 0.00095104 0.00236593 0.00638189 0.00372636 0.01433840 0.00124606 0.00201548 0.08514980 0.00494899 0.00512539 0.01020813 0.00122286 
0.05525068 0.03626904 0.02461334 0.00411723 0.00095044 0.00235395 0.00630041 0.00367442 0.01418260 0.00121311 0.00197399 0.08363999 0.00496971 0.00505407 0.00997361 0.00121857 
0.05507075 0.03678030 0.02418412 0.00414489 0.00094929 0.00234195 0.00622888 0.00362459 0.01405475 0.00118325 0.00193386 0.08212177 0.00498911 0.00498154 0.00973529 0.00121446 
0.05484583 0.03729944 0.02372575 0.00416993 0.00094762 0.00232996 0.00616749 0.00357690 0.01395409 0.00115659 0.00189528 0.08060068 0.00500710 0.00490823 0.00949441 0.00121057 
0.05457341 0.03782460 0.02323985 0.00419224 0.00094547 0.00231804 0.00611637 0.00353139 0.01387975 0.00113318 0.00185839 0.07908221 0.00502361 0.00483461 0.00925219 0.00120695 
0.05425121 0.03835386 0.02272815 0.00421171 0.00094287 0.00230623 0.00607563 0.00348810 0.01383075 0.00111311 0.00182335 0.07757179 0.00503856 0.00476115 0.00900991 0.00120363 
0.05387719 0.03888520 0.02219250 0.00422825 0.00093986 0.00229459 0.00604533 0.00344704 0.01380601 0.00109640 0.00179029 0.07607474 0.00505189 0.00468834 0.00876886 0.00120067 
0.05344956 0.03941655 0.02163483 0.00424176 0.00093648 0.00228316 0.00602549 0.00340824 0.01380432 0.00108309 0.00175937 0.07459628 0.00506352 0.00461668 0.00853031 0.00119808 
0.05296681 0.03994582 0.02105716 0.00425219 0.00093275 0.00227199 0.00601608 0.00337174 0.01382441 0.00107321 0.00173068 0.07314149 0.00507337 0.00454668 0.00829556 0.00119590 
0.05242772 0.04047085 0.02046156 0.00425948 0.00092873 0.00226113 0.00601704 0.00333753 0.01386491 0.00106675 0.00170434 0.07171534 0.00508140 0.00447888 0.00806588 0.00119415 
0.05183140 0.04098948 0.01985018 0.00426356 0.00092446 0.00225063 0.00602828 0.00330564 0.01392437 0.00106370 0.00168045 0.07032264 0.00508752 0.00441377 0.00784253 0.00119286 
0.05117724 0.04149955 0.01922522 0.00426443 0.00091997 0.00224053 0.00604965 0.00327607 0.01400128 0.00106405 0.00165909 0.06896803 0.00509170 0.00435189 0.00762674 0.00119205 
0.05046497 0.04199889 0.01858890 0.00426205 0.00091530 0.00223089 0.00608098 0.00324884 0.01409406 0.00106773 0.00164032 0.06765599 0.00509387 0.00429375 0.00741974 0.00119172 
0.04969467 0.04248538 0.01794348 0.00425644 0.00091050 0.00222174 0.00612206 0.00322393 0.01420108 0.00107472 0.00162420 0.06639081 0.00509399 0.00423986 0.00722267 0.00119189 
0.04886673 0.04295692 0.01729123 0.00424759 0.00090561 0.00221313 0.00617265 0.00320134 0.01432066 0.00108493 0.00161077 0.06517658 0.00509203 0.00419071 0.00703667 0.00119255 
0.04798192 0.04341147 0.01663442 0.00423555 0.00090066 0.00220510 0.00623248 0.00318106 0.01445110 0.00109828 0.00160007 0.06401719 0.00508794 0.00414677 0.00686279 0.00119372 
0.04704131 0.04384705 0.01597532 0.00422037 0.00089571 0.00219769 0.00630125 0.00316308 0.01459065 0.00111469 0.00159208 0.06291631 0.00508172 0.00410851 0.00670205 0.00119538 
0.04604635 0.04426179 0.01531615 0.00420210 0.00089078 0.00219094 0.00637863 0.00314737 0.01473757 0.00113405 0.00158683 0.06187738 0.00507334 0.00407637 0.00655538 0.00119752 
0.04499880 0.04465389 0.01465914 0.00418082 0.00088591 0.00218488 0.00646425 0.00313391 0.01489009 0.00115623 0.00158428 0.06090364 0.00506280 0.00405075 0.00642365 0.00120014 
0.04390077 0.04502168 0.01400645 0.00415665 0.00088115 0.00217954 0.00655775 0.00312265 0.01504646 0.00118112 0.00158442 0.05999804 0.00505009 0.00403204 0.00630766 0.00120322 
0.04275470 0.04536361 0.01336018 0.00412968 0.00087653 0.00217496 0.00665872 0.00311356 0.01520494 0.00120856 0.00158718 0.05916331 0.00503524 0.00402059 0.00620811 0.00120674 
0.04156332 0.04567827 0.01272239 0.00410006 0.00087208 0.00217115 0.00676674 0.00310660 0.01536379 0.00123843 0.00159252 0.05840191 0.00501825 0.00401670 0.00612562 0.00121068 
0.04032969 0.04596439 0.01209505 0.00406792 0.00086784 0.00216815 0.00688136 0.00310170 0.01552132 0.00127054 0.00160036 0.05771606 0.00499916 0.00402066 0.00606072 0.00121502 
0.03905715 0.04622088 0.01148007 0.00403343 0.00086385 0.00216596 0.00700213 0.00309880 0.01567587 0.00130475 0.00161062 0.05710768 0.00497800 0.00403270 0.00601384 0.00121971 
0.03774932 0.04644682 0.01087924 0.00399678 0.00086013 0.00216461 0.00712857 0.00309784 0.01582583 0.00134087 0.00162320 0.05657843 0.00495482 0.00405302 0.00598531 0.00122474 
0.03641006 0.04664147 0.01029427 0.00395814 0.00085671 0.00216411 0.00726020 0.00309875 0.01596964 0.00137874 0.00163800 0.05612970 0.00492968 0.00408175 0.00597537 0.00123008 
0.03504350 0.04680428 0.00972678 0.00391773 0.00085363 0.00216445 0.00739653 0.00310144 0.01610582 0.00141815 0.00165489 0.05576256 0.00490263 0.00411901 0.00598415 0.00123568 
0.03365395 0.04693490 0.00917824 0.00387576 0.00085091 0.00216566 0.00753704 0.00310583 0.01623294 0.00145893 0.00167374 0.05547783 0.00487375 0.00416485 0.00601167 0.00124151 
0.03224596 0.04703321 0.00865004 0.00383246 0.00084858 0.00216772 0.00768122 0.00311183 0.01634965 0.00150088 0.00169442 0.05527600 0.00484312 0.00421927 0.00605784 0.00124753 
0.03082421 0.04709926 0.00814344 0.00378807 0.00084666 0.00217062 0.00782855 0.00311932 0.01645471 0.00154381 0.00171679 0.05515729 0.00481082 0.00428222 0.00612250 0.00125371 
0.02939356 0.04713334 0.00765956 0.00374284 0.00084518 0.00217437 0.00797851 0.00312822 0.01654694 0.00158751 0.00174069 0.05512160 0.00477695 0.00435360 0.00620534 0.00126000 
0.02795898 0.04713597 0.00719943 0.00369702 0.00084416 0.00217895 0.00813056 0.00313841 0.01662527 0.00163179 0.00176595 0.05516855 0.00474161 0.00443328 0.00630598 0.00126636 
0.02652556 0.04710785 0.00676390 0.00365088 0.00084362 0.00218433 0.00828420 0.00314977 0.01668874 0.00167645 0.00179243 0.05529742 0.00470489 0.00452105 0.00642393 0.00127277 
0.02509844 0.04704994 0.00635373 0.00360468 0.00084359 0.00219050 0.00843887 0.00316219 0.01673649 0.00172130 0.00181994 0.05550723 0.00466692 0.00461665 0.00655858 0.00127916 
0.02368282 0.04696338 0.00596953 0.00355870 0.00084408 0.00219743 0.00859407 0.00317555 0.01676777 0.00176613 0.00184833 0.05579667 0.00462780 0.00471980 0.00670927 0.00128551 
0.02228393 0.04684954 0.00561178 0.00351320 0.00084511 0.00220508 0.00874927 0.00318971 0.01678195 0.00181077 0.00187740 0.05616412 0.00458765 0.00483015 0.00687520 0.00129178 
0.02090696 0.04671000 0.00528084 0.00346846 0.00084670 0.00221344 0.00890394 0.00320455 0.01677851 0.00185500 0.00190700 0.05660768 0.00454660 0.00494729 0.00705551 0.00129792 
0.01955710 0.04654652 0.00497693 0.00342475 0.00084887 0.00222245 0.00905759 0.00321994 0.01675707 0.00189867 0.00193694 0.05712513 0.00450477 0.00507079 0.00724926 0.00130391 
0.01823947 0.04636107 0.00470014 0.00338233 0.00085163 0.00223207 0.00920971 0.00323576 0.01671734 0.00194158 0.00196706 0.05771398 0.00446227 0.00520017 0.00745541 0.00130970 
0.01695911 0.04615580 0.00445045 0.00334147 0.00085500 0.00224227 0.00935980 0.00325186 0.01665918 0.00198356 0.00199719 0.05837142 0.00441925 0.00533489 0.00767287 0.00131526 
0.01572093 0.04593301 0.00422771 0.00330242 0.00085898 0.00225298 0.00950738 0.00326811 0.01658257 0.00202445 0.00202715 0.05909439 0.00437583 0.00547440 0.00790048 0.00132056 
0.01452971 0.04569518 0.00403167 0.00326543 0.00086361 0.00226416 0.00965197 0.00328440 0.01648759 0.00206409 0.00205680 0.05987953 0.00433212 0.00561810 0.00813701 0.00132556 
0.01339009 0.04544492 0.00386195 0.00323074 0.00086888 0.00227575 0.00979311 0.00330058 0.01637447 0.00210234 0.00208596 0.06072322 0.00428827 0.00576534 0.00838119 0.00133025 
0.01230649 0.04518496 0.00371808 0.00319857 0.00087482 0.00228770 0.00993035 0.00331653 0.01624354 0.00213904 0.00211450 0.06162159 0.00424439 0.00591548 0.00863170 0.00133458 
0.01128315 0.04491814 0.00359948 0.00316912 0.00088143 0.00229994 0.01006327 0.00333214 0.01609526 0.00217408 0.00214227 0.06257050 0.00420061 0.00606781 0.00888719 0.00133855 
0.01032406 0.04464742 0.00350549 0.00314261 0.00088871 0.00231241 0.01019143 0.00334729 0.01593019 0.00220733 0.00216915 0.06356561 0.00415704 0.00622164 0.00914626 0.00134212 
0.00943299 0.04437580 0.00343536 0.00311921 0.00089670 0.00232505 0.01031444 0.00336186 0.01574901 0.00223868 0.00219499 0.06460233 0.00411381 0.00637623 0.00940751 0.00134528 
0.00861341 0.04410634 0.00338826 0.00309908 0.00090538 0.00233778 0.01043190 0.00337575 0.01555250 0.00226802 0.00221970 0.06567589 0.00407102 0.00653084 0.00966952 0.00134800 
0.00786853 0.04384213 0.00336329 0.00308237 0.00091478 0.00235055 0.01054346 0.00338886 0.01534155 0.00229528 0.00224316 0.06678130 0.00402879 0.00668472 0.00993087 0.00135029 
0.00720124 0.04358629 0.00335949 0.00306920 0.00092489 0.00236328 0.01064875 0.00340111 0.01511714 0.00232038 0.00226529 0.06791344 0.00398723 0.00683711 0.01019013 0.00135211 
0.00661412 0.04334190 0.00337584 0.00305967 0.00093572 0.00237591 0.01074746 0.00341241 0.01488033 0.00234324 0.00228601 0.06906701 0.00394642 0.00698726 0.01044589 0.00135347 
0.00610943 0.04311202 0.00341128 0.00305387 0.00094728 0.00238835 0.01083926 0.00342269 0.01463227 0.00236382 0.00230524 0.07023658 0.00390647 0.00713441 0.01069676 0.00135436 
0.00568909 0.04289967 0.00346470 0.00305184 0.00095958 0.00240055 0.01092387 0.00343188 0.01437418 0.00238207 0.00232293 0.07141663 0.00386748 0.00727781 0.01094138 0.00135477 
0.00535465 0.04270775 0.00353497 0.00305363 0.00097260 0.00241243 0.01100103 0.00343995 0.01410737 0.00239796 0.00233904 0.07260155 0.00382952 0.00741672 0.01117841 0.00135470 
0.00510733 0.04253910 0.00362092 0.00305925 0.00098636 0.00242392 0.01107048 0.00344683 0.01383317 0.00241147 0.00235353 0.07378565 0.00379268 0.00755044 0.01140657 0.00135415 
0.00494798 0.04239641 0.00372138 0.00306868 0.00100086 0.00243495 0.01113202 0.00345251 0.01355300 0.00242260 0.00236640 0.07496323 0.00375703 0.00767826 0.01162462 0.00135312 
0.00487707 0.04228223 0.00383516 0.00308188 0.00101609 0.00244545 0.01118543 0.00345697 0.01326830 0.00243134 0.00237763 0.07612856 0.00372264 0.00779952 0.01183139 0.00135163 
0.00489472 0.04219897 0.00396108 0.00309879 0.00103204 0.00245537 0.01123056 0.00346020 0.01298055 0.00243772 0.00238724 0.07727595 0.00368959 0.00791356 0.01202575 0.00134967 
0.00500067 0.04214881 0.00409796 0.00311932 0.00104872 0.00246462 0.01126726 0.00346220 0.01269126 0.00244175 0.00239525 0.07839972 0.00365792 0.00801978 0.01220667 0.00134725 
0.00519429 0.04213375 0.00424463 0.00314336 0.00106611 0.00247315 0.01129540 0.00346300 0.01240194 0.00244347 0.00240168 0.07949431 0.00362770 0.00811761 0.01237317 0.00134440 
0.00547458 0.04215557 0.00439993 0.00317076 0.00108420 0.00248090 0.01131490 0.00346263 0.01211414 0.00244294 0.00240660 0.08055421 0.00359898 0.00820652 0.01252437 0.00134111 
0.00584021 0.04221579 0.00456275 0.00320138 0.00110299 0.00248781 0.01132569 0.00346113 0.01182938 0.00244020 0.00241005 0.08157409 0.00357180 0.00828601 0.01265946 0.00133740 
0.00628945 0.04231569 0.00473198 0.00323503 0.00112245 0.00249382 0.01132774 0.00345855 0.01154917 0.00243533 0.00241211 0.08254875 0.00354620 0.00835565 0.01277774 0.00133329 
0.00682025 0.04245628 0.00490657 0.00327151 0.00114257 0.00249888 0.01132104 0.00345497 0.01127501 0.00242838 0.00241286 0.08347318 0.00352222 0.00841505 0.01287859 0.00132881 
0.00743021 0.04263827 0.00508550 0.00331058 0.00116333 0.00250294 0.01130562 0.00345046 0.01100838 0.00241945 0.00241238 0.08434261 0.00349989 0.00846387 0.01296149 0.00132395 
0.00811662 0.04286210 0.00526779 0.00335202 0.00118470 0.00250596 0.01128152 0.00344511 0.01075069 0.00240863 0.00241078 0.08515248 0.00347924 0.00850182 0.01302603 0.00131876 
0.00887644 0.04312788 0.00545251 0.00339555 0.00120666 0.00250789 0.01124882 0.00343903 0.01050334 0.00239601 0.00240817 0.08589854 0.00346030 0.00852867 0.01307190 0.00131324 
0.00970633 0.04343545 0.00563878 0.00344090 0.00122919 0.00250870 0.01120766 0.00343232 0.01026766 0.00238170 0.00240466 0.08657680 0.00344310 0.00854426 0.01309888 0.00130741 
0.01060267 0.04378430 0.00582579 0.00348777 0.00125224 0.00250835 0.01115815 0.00342510 0.01004491 0.00236580 0.00240038 0.08718364 0.00342764 0.00854846 0.01310687 0.00130131 
0.01156158 0.04417362 0.00601275 0.00353587 0.00127579 0.00250682 0.01110049 0.00341750 0.00983629 0.00234842 0.00239546 0.08771575 0.00341394 0.00854124 0.01309587 0.00129496 
0.01257889 0.04460228 0.00619897 0.00358487 0.00129980 0.00250407 0.01103487 0.00340967 0.00964293 0.00232970 0.00239002 0.08817020 0.00340202 0.00852259 0.01306599 0.00128837 
0.01365025 0.04506886 0.00638377 0.00363444 0.00132423 0.00250010 0.01096153 0.00340173 0.00946586 0.00230974 0.00238422 0.08854448 0.00339190 0.00849258 0.01301744 0.00128158 
0.01477104 0.04557159 0.00656658 0.00368425 0.00134904 0.00249487 0.01088075 0.00339384 0.00930604 0.00228867 0.00237819 0.08883644 0.00338357 0.00845134 0.01295052 0.00127460 
0.01593650 0.04610843 0.00674684 0.00373397 0.00137417 0.00248839 0.01079280 0.00338616 0.00916432 0.00226663 0.00237207 0.08904442 0.00337704 0.00839906 0.01286565 0.00126746 
0.01714166 0.04667705 0.00692408 0.00378325 0.00139959 0.00248065 0.01069803 0.00337883 0.00904145 0.00224373 0.00236601 0.08916715 0.00337233 0.00833597 0.01276335 0.00126019 
0.01838141 0.04727480 0.00709788 0.00383174 0.00142524 0.00247164 0.01059679 0.00337202 0.00893809 0.00222012 0.00236016 0.08920384 0.00336943 0.00826238 0.01264420 0.00125280 
0.01965051 0.04789880 0.00726786 0.00387910 0.00145107 0.00246137 0.01048945 0.00336588 0.00885478 0.00219592 0.00235466 0.08915418 0.00336834 0.00817865 0.01250890 0.00124533 
0.02094361 0.04854591 0.00743371 0.00392499 0.00147701 0.00244985 0.01037644 0.00336059 0.00879196 0.00217126 0.00234966 0.08901830 0.00336906 0.00808518 0.01235823 0.00123780 
0.02225531 0.04921273 0.00759517 0.00396908 0.00150302 0.00243710 0.01025819 0.00335628 0.00874994 0.00214627 0.00234528 0.08879683 0.00337158 0.00798242 0.01219303 0.00123023 
0.02358009 0.04989567 0.00775203 0.00401104 0.00152902 0.00242312 0.01013517 0.00335313 0.00872893 0.00212108 0.00234167 0.08849088 0.00337591 0.00787089 0.01201425 0.00122264 
0.02491246 0.05059094 0.00790411 0.00405054 0.00155497 0.00240796 0.01000786 0.00335128 0.00872903 0.00209582 0.00233896 0.08810204 0.00338204 0.00775113 0.01182288 0.00121506 
0.02624687 0.05129456 0.00805128 0.00408729 0.00158078 0.00239163 0.00987677 0.00335088 0.00875021 0.00207061 0.00233726 0.08763236 0.00338994 0.00762373 0.01161997 0.00120751 
0.02757781 0.05200244 0.00819347 0.00412098 0.00160641 0.00237416 0.00974245 0.00335207 0.00879231 0.00204558 0.00233671 0.08708438 0.00339962 0.00748932 0.01140665 0.00120001 
0.02889980 0.05271033 0.00833062 0.00415134 0.00163177 0.00235560 0.00960543 0.00335498 0.00885510 0.00202084 0.00233741 0.08646108 0.00341106 0.00734855 0.01118407 0.00119258 
0.03020742 0.05341392 0.00846271 0.00417810 0.00165680 0.00233599 0.00946629 0.00335973 0.00893820 0.00199650 0.00233945 0.08576590 0.00342423 0.00720213 0.01095345 0.00118524 
0.03149532 0.05410879 0.00858975 0.00420103 0.00168143 0.00231537 0.00932562 0.00336645 0.00904113 0.00197267 0.00234294 0.08500270 0.00343912 0.00705076 0.01071602 0.00117801 
0.03275827 0.05479054 0.00871178 0.00421989 0.00170559 0.00229379 0.00918401 0.00337522 0.00916329 0.00194946 0.00234796 0.08417577 0.00345570 0.00689518 0.01047305 0.00117091 
0.03399118 0.05545472 0.00882885 0.00423449 0.00172921 0.00227131 0.00904207 0.00338615 0.00930401 0.00192697 0.00235458 0.08328975 0.00347395 0.00673615 0.01022582 0.00116395 
0.03518907 0.05609693 0.00894104 0.00424465 0.00175222 0.00224798 0.00890043 0.00339930 0.00946250 0.00190529 0.00236287 0.08234969 0.00349382 0.00657443 0.00997563 0.00115716 
0.03634717 0.05671281 0.00904842 0.00425022 0.00177455 0.00222387 0.00875970 0.00341475 0.00963785 0.00188451 0.00237287 0.08136096 0.00351529 0.00641079 0.00972378 0.00115055 
0.03746088 0.05729809 0.00915110 0.00425105 0.00179613 0.00219903 0.00862051 0.00343255 0.00982911 0.00186471 0.00238462 0.08032923 0.00353831 0.00624600 0.00947156 0.00114413 
0.03852581 0.05784863 0.00924917 0.00424706 0.00181690 0.00217354 0.00848349 0.00345272 0.01003521 0.00184597 0.00239816 0.07926048 0.00356284 0.00608085 0.00922026 0.00113792 
0.03953780 0.05836041 0.00934272 0.00423815 0.00183678 0.00214746 0.00834927 0.00347529 0.01025503 0.00182835 0.00241351 0.07816089 0.00358882 0.00591609 0.00897115 0.00113193 
0.04049294 0.05882962 0.00943187 0.00422429 0.00185571 0.00212087 0.00821848 0.00350026 0.01048734 0.00181192 0.00243066 0.07703689 0.00361619 0.00575250 0.00872546 0.00112617 
0.04138756 0.05925264 0.00951671 0.00420544 0.00187363 0.00209383 0.00809171 0.00352761 0.01073090 0.00179674 0.00244961 0.07589506 0.00364490 0.00559080 0.00848440 0.00112066 
0.04221830 0.05962607 0.00959733 0.00418162 0.00189047 0.00206642 0.00796959 0.00355732 0.01098438 0.00178286 0.00247035 0.07474212 0.00367487 0.00543172 0.00824914 0.00111540 
0.04298204 0.05994680 0.00967380 0.00415286 0.00190619 0.00203872 0.00785269 0.00358934 0.01124641 0.00177032 0.00249283 0.07358489 0.00370603 0.00527595 0.00802079 0.00111041 
0.04367600 0.06021198 0.00974619 0.00411920 0.00192072 0.00201080 0.00774159 0.00362359 0.01151559 0.00175915 0.00251703 0.07243024 0.00373830 0.00512418 0.00780043 0.00110568 
0.04429769 0.06041910 0.00981456 0.00408075 0.00193401 0.00198274 0.00763685 0.00366001 0.01179048 0.00174940 0.00254288 0.07128505 0.00377158 0.00497703 0.00758906 0.00110124 
0.04484495 0.06056595 0.00987895 0.00403762 0.00194602 0.00195462 0.00753899 0.00369849 0.01206962 0.00174107 0.00257032 0.07015616 0.00380579 0.00483512 0.00738764 0.00109708 
0.04531594 0.06065069 0.00993937 0.00398993 0.00195670 0.00192652 0.00744851 0.00373893 0.01235155 0.00173420 0.00259929 0.06905036 0.00384081 0.00469901 0.00719703 0.00109321 
0.04570915 0.06067186 0.00999584 0.00393787 0.00196602 0.00189852 0.00736591 0.00378118 0.01263479 0.00172878 0.00262969 0.06797431 0.00387654 0.00456922 0.00701805 0.00108964 
0.04602342 0.06062837 0.01004833 0.00388160 0.00197393 0.00187068 0.00729161 0.00382511 0.01291788 0.00172484 0.00266143 0.06693453 0.00391287 0.00444624 0.00685143 0.00108636 
0.04625792 0.06051952 0.01009683 0.00382136 0.00198040 0.00184310 0.00722603 0.00387056 0.01319935 0.00172236 0.00269442 0.06593732 0.00394968 0.00433050 0.00669782 0.00108338 
0.04641216 0.06034506 0.01014127 0.00375737 0.00198542 0.00181584 0.00716956 0.00391735 0.01347779 0.00172134 0.00272854 0.06498878 0.00398682 0.00422239 0.00655778 0.00108071 
0.04648601 0.06010511 0.01018160 0.00368987 0.00198896 0.00178897 0.00712252 0.00396532 0.01375179 0.00172177 0.00276368 0.06409470 0.00402419 0.00412224 0.00643181 0.00107833 
0.04647965 0.05980026 0.01021774 0.00361916 0.00199100 0.00176257 0.00708521 0.00401425 0.01401999 0.00172364 0.00279971 0.06326057 0.00406162 0.00403034 0.00632030 0.00107625 
0.04639362 0.05943150 0.01024957 0.00354551 0.00199154 0.00173671 0.00705789 0.00406394 0.01428109 0.00172692 0.00283651 0.06249156 0.00409899 0.00394693 0.00622357 0.00107447 
0.04622879 0.05900025 0.01027700 0.00346922 0.00199057 0.00171145 0.00704078 0.00411419 0.01453383 0.00173158 0.00287394 0.06179243 0.00413613 0.00387216 0.00614183 0.00107299 
0.04598634 0.05850836 0.01029990 0.00339063 0.00198810 0.00168687 0.00703403 0.00416477 0.01477701 0.00173760 0.00291188 0.06116754 0.00417291 0.00380618 0.00607523 0.00107179 
0.04566779 0.05795810 0.01031813 0.00331005 0.00198412 0.00166301 0.00703776 0.00421544 0.01500951 0.00174495 0.00295018 0.06062082 0.00420915 0.00374905 0.00602381 0.00107088 
0.04527495 0.05735214 0.01033155 0.00322784 0.00197866 0.00163995 0.00705204 0.00426599 0.01523029 0.00175357 0.00298870 0.06015572 0.00424471 0.00370079 0.00598753 0.00107025 
0.04480994 0.05669358 0.01034002 0.00314433 0.00197173 0.00161773 0.00707690 0.00431617 0.01543839 0.00176345 0.00302731 0.05977522 0.00427943 0.00366135 0.00596628 0.00106989 
0.04427514 0.05598586 0.01034338 0.00305989 0.00196336 0.00159641 0.00711230 0.00436574 0.01563294 0.00177452 0.00306587 0.05948179 0.00431313 0.00363065 0.00595984 0.00106979 
0.04367322 0.05523283 0.01034147 0.00297487 0.00195358 0.00157603 0.00715817 0.00441446 0.01581314 0.00178674 0.00310425 0.05927737 0.00434567 0.00360855 0.00596794 0.00106994 
0.04300713 0.05443865 0.01033415 0.00288964 0.00194242 0.00155664 0.00721438 0.00446211 0.01597832 0.00180007 0.00314230 0.05916337 0.00437687 0.00359485 0.00599021 0.00107034 
0.04228000 0.05360785 0.01032127 0.00280455 0.00192993 0.00153828 0.00728075 0.00450843 0.01612791 0.00181444 0.00317989 0.05914065 0.00440659 0.00358931 0.00602622 0.00107096 
0.04149525 0.05274522 0.01030270 0.00271998 0.00191616 0.00152099 0.00735705 0.00455321 0.01626141 0.00182981 0.00321691 0.05920952 0.00443465 0.00359166 0.00607545 0.00107181 
0.04065646 0.05185587 0.01027830 0.00263627 0.00190116 0.00150480 0.00744301 0.00459621 0.01637847 0.00184613 0.00325323 0.05936975 0.00446092 0.00360156 0.00613735 0.00107285 
0.03976742 0.05094512 0.01024795 0.00255378 0.00188498 0.00148973 0.00753832 0.00463722 0.01647881 0.00186333 0.00328873 0.05962054 0.00448524 0.00361865 0.00621128 0.00107409 
0.03883207 0.05001852 0.01021157 0.00247285 0.00186769 0.00147580 0.00764259 0.00467602 0.01656229 0.00188135 0.00332331 0.05996053 0.00450746 0.00364252 0.00629656 0.00107550 
0.03785452 0.04908182 0.01016906 0.00239382 0.00184937 0.00146304 0.00775542 0.00471241 0.01662887 0.00190015 0.00335688 0.06038784 0.00452746 0.00367273 0.00639244 0.00107707 
0.03683899 0.04814090 0.01012036 0.00231701 0.00183007 0.00145146 0.00787635 0.00474622 0.01667861 0.00191965 0.00338934 0.06090006 0.00454510 0.00370883 0.00649814 0.00107878 
0.03578982 0.04720176 0.01006545 0.00224273 0.00180988 0.00144107 0.00800490 0.00477724 0.01671169 0.00193980 0.00342060 0.06149425 0.00456026 0.00375030 0.00661285 0.00108061 
0.03471142 0.04627048 0.01000430 0.00217129 0.00178889 0.00143187 0.00814053 0.00480533 0.01672839 0.00196055 0.00345061 0.06216698 0.00457283 0.00379663 0.00673571 0.00108255 
0.03360826 0.04535319 0.00993693 0.00210297 0.00176716 0.00142386 0.00828268 0.00483033 0.01672910 0.00198182 0.00347930 0.06291434 0.00458271 0.00384729 0.00686584 0.00108458 
0.03248488 0.04445601 0.00986338 0.00203803 0.00174480 0.00141704 0.00843074 0.00485211 0.01671429 0.00200356 0.00350663 0.06373198 0.00458982 0.00390172 0.00700233 0.00108667 
0.03134580 0.04358502 0.00978374 0.00197673 0.00172189 0.00141139 0.00858410 0.00487054 0.01668456 0.00202572 0.00353254 0.06461511 0.00459407 0.00395935 0.00714426 0.00108881 
0.03019557 0.04274625 0.00969809 0.00191929 0.00169852 0.00140691 0.00874210 0.00488552 0.01664057 0.00204822 0.00355703 0.06555856 0.00459540 0.00401962 0.00729072 0.00109097 
0.02903871 0.04194560 0.00960659 0.00186593 0.00167479 0.00140357 0.00890407 0.00489697 0.01658309 0.00207103 0.00358007 0.06655680 0.00459376 0.00408195 0.00744077 0.00109314 
0.02787968 0.04118880 0.00950940 0.00181683 0.00165080 0.00140135 0.00906932 0.00490482 0.01651296 0.00209407 0.00360166 0.06760397 0.00458912 0.00414578 0.00759348 0.00109530 
0.02672289 0.04048142 0.00940673 0.00177217 0.00162663 0.00140023 0.00923714 0.00490901 0.01643108 0.00211730 0.00362182 0.06869390 0.00458144 0.00421052 0.00774793 0.00109743 
0.02557266 0.03982878 0.00929881 0.00173209 0.00160240 0.00140018 0.00940681 0.00490952 0.01633846 0.00214065 0.00364056 0.06982020 0.00457073 0.00427562 0.00790323 0.00109950 
0.02443320 0.03923596 0.00918592 0.00169673 0.00157820 0.00140117 0.00957762 0.00490634 0.01623612 0.00216408 0.00365791 0.07097625 0.00455699 0.00434055 0.00805850 0.00110149 
0.02330862 0.03870771 0.00906836 0.00166618 0.00155413 0.00140315 0.00974884 0.00489946 0.01612517 0.00218753 0.00367393 0.07215527 0.00454025 0.00440477 0.00821287 0.00110339 
0.02220288 0.03824846 0.00894646 0.00164052 0.00153028 0.00140609 0.00991973 0.00488890 0.01600674 0.00221095 0.00368866 0.07335036 0.00452054 0.00446778 0.00836553 0.00110518 
0.02111976 0.03786228 0.00882059 0.00161981 0.00150674 0.00140994 0.01008959 0.00487472 0.01588202 0.00223429 0.00370218 0.07455453 0.00449793 0.00452910 0.00851569 0.00110684 
0.02006289 0.03755285 0.00869114 0.00160408 0.00148363 0.00141467 0.01025769 0.00485696 0.01575222 0.00225750 0.00371455 0.07576073 0.00447247 0.00458828 0.00866260 0.00110835 
0.01903573 0.03732340 0.00855855 0.00159335 0.00146101 0.00142021 0.01042335 0.00483570 0.01561856 0.00228054 0.00372586 0.07696196 0.00444426 0.00464489 0.00880558 0.00110970 
0.01804151 0.03717674 0.00842325 0.00158761 0.00143900 0.00142653 0.01058588 0.00481103 0.01548227 0.00230335 0.00373621 0.07815123 0.00441339 0.00469855 0.00894395 0.00111086 
0.01708326 0.03711520 0.00828572 0.00158682 0.00141766 0.00143357 0.01074462 0.00478306 0.01534460 0.00232590 0.00374569 0.07932167 0.00437998 0.00474892 0.00907714 0.00111183 
0.01616379 0.03714060 0.00814644 0.00159094 0.00139709 0.00144127 0.01089894 0.00475190 0.01520678 0.00234813 0.00375441 0.08046651 0.00434416 0.00479569 0.00920460 0.00111259 
0.01528568 0.03725428 0.00800594 0.00159988 0.00137736 0.00144959 0.01104822 0.00471769 0.01507003 0.00237002 0.00376248 0.08157920 0.00430608 0.00483858 0.00932585 0.00111314 
0.01445126 0.03745704 0.00786474 0.00161355 0.00135855 0.00145848 0.01119190 0.00468057 0.01493554 0.00239151 0.00377002 0.08265337 0.00426587 0.00487738 0.00944046 0.00111346 
0.01366262 0.03774914 0.00772338 0.00163183 0.00134072 0.00146786 0.01132942 0.00464071 0.01480447 0.00241258 0.00377715 0.08368292 0.00422372 0.00491192 0.00954809 0.00111354 
0.01292160 0.03813031 0.00758240 0.00165460 0.00132395 0.00147770 0.01146029 0.00459827 0.01467795 0.00243317 0.00378400 0.08466206 0.00417980 0.00494205 0.00964844 0.00111338 
0.01222978 0.03859972 0.00744236 0.00168170 0.00130828 0.00148793 0.01158404 0.00455344 0.01455705 0.00245325 0.00379067 0.08558529 0.00413430 0.00496772 0.00974128 0.00111297 
0.01158848 0.03915600 0.00730383 0.00171297 0.00129378 0.00149851 0.01170023 0.00450638 0.01444278 0.00247280 0.00379731 0.08644751 0.00408741 0.00498887 0.00982646 0.00111231 
0.01099876 0.03979723 0.00716736 0.00174822 0.00128048 0.00150937 0.01180851 0.00445731 0.01433612 0.00249176 0.00380403 0.08724398 0.00403933 0.00500553 0.00990388 0.00111141 
0.01046143 0.04052094 0.00703350 0.00178726 0.00126843 0.00152047 0.01190853 0.00440640 0.01423793 0.00251012 0.00381095 0.08797041 0.00399028 0.00501777 0.00997352 0.00111026 
0.00997701 0.04132414 0.00690281 0.00182987 0.00125767 0.00153175 0.01200000 0.00435388 0.01414904 0.00252783 0.00381819 0.08862293 0.00394047 0.00502570 0.01003541 0.00110887 
0.00954581 0.04220331 0.00677583 0.00187583 0.00124822 0.00154317 0.01208270 0.00429994 0.01407018 0.00254488 0.00382586 0.08919814 0.00389012 0.00502948 0.01008966 0.00110725 
0.00916785 0.04315442 0.00665308 0.00192491 0.00124010 0.00155468 0.01215643 0.00424478 0.01400199 0.00256122 0.00383406 0.08969313 0.00383945 0.00502933 0.01013643 0.00110539 
0.00884291 0.04417296 0.00653507 0.00197686 0.00123332 0.00156624 0.01222107 0.00418862 0.01394505 0.00257683 0.00384290 0.09010551 0.00378869 0.00502550 0.01017595 0.00110333 
0.00857055 0.04525395 0.00642229 0.00203143 0.00122790 0.00157781 0.01227653 0.00413166 0.01389981 0.00259169 0.00385247 0.09043337 0.00373806 0.00501829 0.01020850 0.00110106 
0.00835006 0.04639197 0.00631522 0.00208835 0.00122382 0.00158934 0.01232278 0.00407411 0.01386665 0.00260576 0.00386284 0.09067535 0.00368777 0.00500803 0.01023441 0.00109860 
0.00818054 0.04758119 0.00621429 0.00214737 0.00122108 0.00160080 0.01235984 0.00401616 0.01384584 0.00261903 0.00387409 0.09083062 0.00363806 0.00499512 0.01025408 0.00109598 
0.00806084 0.04881540 0.00611992 0.00220821 0.00121967 0.00161216 0.01238778 0.00395802 0.01383756 0.00263146 0.00388629 0.09089887 0.00358914 0.00497996 0.01026794 0.00109320 
0.00798964 0.05008803 0.00603249 0.00227060 0.00121957 0.00162339 0.01240671 0.00389986 0.01384190 0.00264305 0.00389947 0.09088033 0.00354122 0.00496300 0.01027647 0.00109030 
0.00796540 0.05139222 0.00595237 0.00233426 0.00122074 0.00163447 0.01241681 0.00384189 0.01385882 0.00265376 0.00391368 0.09077576 0.00349451 0.00494473 0.01028019 0.00108730 
0.00798641 0.05272080 0.00587985 0.00239892 0.00122314 0.00164537 0.01241829 0.00378428 0.01388821 0.00266358 0.00392894 0.09058644 0.00344921 0.00492566 0.01027966 0.00108421 
0.00805076 0.05406639 0.00581523 0.00246429 0.00122675 0.00165609 0.01241140 0.00372720 0.01392985 0.00267250 0.00394527 0.09031417 0.00340551 0.00490630 0.01027546 0.00108107 
0.00815643 0.05542142 0.00575875 0.00253009 0.00123150 0.00166659 0.01239644 0.00367082 0.01398344 0.00268049 0.00396265 0.08996123 0.00336360 0.00488722 0.01026821 0.00107791 
0.00830122 0.05677815 0.00571060 0.00259607 0.00123734 0.00167688 0.01237376 0.00361528 0.01404858 0.00268754 0.00398107 0.08953040 0.00332364 0.00486897 0.01025854 0.00107476 
0.00848281 0.05812874 0.00567096 0.00266194 0.00124422 0.00168695 0.01234373 0.00356074 0.01412477 0.00269364 0.00400050 0.08902492 0.00328581 0.00485213 0.01024709 0.00107163 
0.00869876 0.05946531 0.00563993 0.00272744 0.00125207 0.00169680 0.01230677 0.00350733 0.01421145 0.00269879 0.00402089 0.08844845 0.00325025 0.00483728 0.01023453 0.00106858 
0.00894655 0.06077993 0.00561759 0.00279231 0.00126081 0.00170643 0.01226330 0.00345518 0.01430798 0.00270296 0.00404218 0.08780510 0.00321712 0.00482501 0.01022152 0.00106563 
0.00922353 0.06206473 0.00560399 0.00285630 0.00127038 0.00171585 0.01221381 0.00340441 0.01441362 0.00270616 0.00406430 0.08709935 0.00318654 0.00481588 0.01020873 0.00106280 
0.00952702 0.06331190 0.00559909 0.00291917 0.00128069 0.00172507 0.01215878 0.00335512 0.01452760 0.00270838 0.00408716 0.08633602 0.00315863 0.00481049 0.01019682 0.00106014 
0.00985427 0.06451379 0.00560286 0.00298068 0.00129166 0.00173410 0.01209873 0.00330740 0.01464907 0.00270961 0.00411066 0.08552031 0.00313349 0.00480938 0.01018644 0.00105768 
0.01020248 0.06566288 0.00561518 0.00304060 0.00130321 0.00174296 0.01203418 0.00326136 0.01477714 0.00270987 0.00413469 0.08465766 0.00311123 0.00481310 0.01017822 0.00105544 
0.01056882 0.06675189 0.00563593 0.00309872 0.00131525 0.00175167 0.01196567 0.00321707 0.01491085 0.00270915 0.00415911 0.08375380 0.00309193 0.00482218 0.01017278 0.00105347 
0.01095046 0.06777380 0.00566491 0.00315483 0.00132769 0.00176026 0.01189374 0.00317459 0.01504923 0.00270745 0.00418379 0.08281468 0.00307565 0.00483712 0.01017071 0.00105179 
0.01134457 0.06872190 0.00570190 0.00320875 0.00134043 0.00176876 0.01181896 0.00313398 0.01519128 0.00270479 0.00420858 0.08184645 0.00306246 0.00485838 0.01017256 0.00105043 
0.01174832 0.06958983 0.00574664 0.00326029 0.00135340 0.00177719 0.01174186 0.00309531 0.01533595 0.00270117 0.00423333 0.08085537 0.00305241 0.00488640 0.01017888 0.00104943 
0.01215893 0.07037161 0.00579882 0.00330928 0.00136649 0.00178559 0.01166299 0.00305862 0.01548223 0.00269661 0.00425786 0.07984786 0.00304553 0.00492159 0.01019014 0.00104880 
0.01257364 0.07106169 0.00585810 0.00335558 0.00137961 0.00179399 0.01158288 0.00302394 0.01562904 0.00269112 0.00428201 0.07883038 0.00304184 0.00496429 0.01020680 0.00104858 
0.01298976 0.07165499 0.00592411 0.00339904 0.00139267 0.00180243 0.01150206 0.00299130 0.01577537 0.00268473 0.00430560 0.07780942 0.00304137 0.00501483 0.01022926 0.00104880 
0.01340466 0.07214692 0.00599643 0.00343955 0.00140559 0.00181096 0.01142102 0.00296074 0.01592018 0.00267744 0.00432843 0.07679148 0.00304411 0.00507348 0.01025787 0.00104946 
0.01381577 0.07253343 0.00607463 0.00347699 0.00141827 0.00181960 0.01134025 0.00293226 0.01606247 0.00266930 0.00435033 0.07578302 0.00305008 0.00514044 0.01029294 0.00105060 
0.01422065 0.07281101 0.00615824 0.00351127 0.00143064 0.00182841 0.01126020 0.00290590 0.01620127 0.00266031 0.00437109 0.07479038 0.00305925 0.00521589 0.01033472 0.00105223 
0.01461691 0.07297676 0.00624675 0.00354232 0.00144260 0.00183742 0.01118129 0.00288166 0.01633565 0.00265052 0.00439054 0.07381981 0.00307161 0.00529994 0.01038342 0.00105437 
0.01500231 0.07302835 0.00633965 0.00357007 0.00145409 0.00184667 0.01110393 0.00285955 0.01646471 0.00263995 0.00440848 0.07287740 0.00308714 0.00539263 0.01043916 0.00105702 
0.01537469 0.07296409 0.00643641 0.00359449 0.00146503 0.00185621 0.01102848 0.00283958 0.01658763 0.00262865 0.00442472 0.07196903 0.00310580 0.00549397 0.01050204 0.00106021 
0.01573204 0.07278294 0.00653645 0.00361553 0.00147535 0.00186609 0.01095524 0.00282175 0.01670364 0.00261664 0.00443907 0.07110037 0.00312755 0.00560390 0.01057208 0.00106393 
0.01607246 0.07248451 0.00663920 0.00363319 0.00148499 0.00187633 0.01088451 0.00280607 0.01681204 0.00260396 0.00445136 0.07027680 0.00315236 0.00572229 0.01064924 0.00106820 
0.01639421 0.07206904 0.00674407 0.00364748 0.00149389 0.00188698 0.01081652 0.00279254 0.01691219 0.00259067 0.00446142 0.06950345 0.00318018 0.00584896 0.01073344 0.00107301 
0.01669567 0.07153748 0.00685047 0.00365840 0.00150200 0.00189809 0.01075146 0.00278117 0.01700354 0.00257680 0.00446908 0.06878511 0.00321097 0.00598368 0.01082452 0.00107835 
0.01697539 0.07089141 0.00695778 0.00366601 0.00150927 0.00190967 0.01068948 0.00277197 0.01708564 0.00256240 0.00447417 0.06812622 0.00324466 0.00612615 0.01092227 0.00108424 
0.01723206 0.07013308 0.00706540 0.00367034 0.00151567 0.00192178 0.01063067 0.00276493 0.01715812 0.00254753 0.00447656 0.06753085 0.00328121 0.00627601 0.01102644 0.00109065 
0.01746452 0.06926543 0.00717272 0.00367147 0.00152116 0.00193444 0.01057510 0.00276007 0.01722068 0.00253222 0.00447612 0.06700269 0.00332057 0.00643286 0.01113671 0.00109759 
0.01767178 0.06829199 0.00727913 0.00366947 0.00152572 0.00194767 0.01052277 0.00275739 0.01727314 0.00251654 0.00447272 0.06654500 0.00336267 0.00659624 0.01125271 0.00110502 
0.01785299 0.06721698 0.00738403 0.00366445 0.00152933 0.00196151 0.01047362 0.00275692 0.01731542 0.00250054 0.00446625 0.06616065 0.00340746 0.00676563 0.01137403 0.00111294 
0.01800750 0.06604520 0.00748681 0.00365651 0.00153198 0.00197598 0.01042758 0.00275866 0.01734753 0.00248428 0.00445662 0.06585201 0.00345488 0.00694047 0.01150022 0.00112134 
0.01813477 0.06478207 0.00758690 0.00364577 0.00153367 0.00199108 0.01038451 0.00276262 0.01736958 0.00246781 0.00444376 0.06562105 0.00350487 0.00712017 0.01163076 0.00113017 
0.01823445 0.06343357 0.00768373 0.00363238 0.00153441 0.00200684 0.01034422 0.00276883 0.01738178 0.00245120 0.00442761 0.06546925 0.00355737 0.00730407 0.01176512 0.00113943 
0.01830634 0.06200622 0.00777674 0.00361647 0.00153420 0.00202327 0.01030650 0.00277732 0.01738445 0.00243449 0.00440812 0.06539763 0.00361233 0.00749149 0.01190272 0.00114908 
0.01835042 0.06050708 0.00786541 0.00359821 0.00153307 0.00204037 0.01027107 0.00278809 0.01737798 0.00241776 0.00438528 0.06540674 0.00366967 0.00768172 0.01204297 0.00115909 
0.01836678 0.05894368 0.00794921 0.00357778 0.00153104 0.00205813 0.01023766 0.00280118 0.01736290 0.00240105 0.00435908 0.06549665 0.00372935 0.00787402 0.01218524 0.00116943 
0.01835571 0.05732399 0.00802766 0.00355534 0.00152815 0.00207656 0.01020591 0.00281661 0.01733979 0.00238444 0.00432953 0.06566697 0.00379129 0.00806762 0.01232887 0.00118007 
0.01831761 0.05565639 0.00810030 0.00353109 0.00152444 0.00209564 0.01017548 0.00283442 0.01730933 0.00236798 0.00429668 0.06591685 0.00385543 0.00826174 0.01247320 0.00119097 
0.01825304 0.05394965 0.00816671 0.00350522 0.00151996 0.00211535 0.01014596 0.00285463 0.01727230 0.00235173 0.00426057 0.06624498 0.00392171 0.00845558 0.01261756 0.00120209 
0.01816271 0.05221283 0.00822648 0.00347794 0.00151475 0.00213568 0.01011696 0.00287726 0.01722953 0.00233575 0.00422128 0.06664961 0.00399005 0.00864833 0.01276127 0.00121340 
0.01804744 0.05045530 0.00827924 0.00344946 0.00150889 0.00215660 0.01008805 0.00290236 0.01718194 0.00232010 0.00417890 0.06712857 0.00406038 0.00883919 0.01290365 0.00122485 
0.01790819 0.04868664 0.00832468 0.00341999 0.00150242 0.00217807 0.01005878 0.00292994 0.01713051 0.00230484 0.00413355 0.06767925 0.00413263 0.00902736 0.01304403 0.00123640 
0.01774606 0.04691664 0.00836250 0.00338975 0.00149543 0.00220006 0.01002870 0.00296004 0.01707628 0.00229001 0.00408536 0.06829868 0.00420671 0.00921202 0.01318175 0.00124801 
0.01756223 0.04515520 0.00839244 0.00335895 0.00148798 0.00222252 0.00999738 0.00299267 0.01702034 0.00227569 0.00403448 0.06898349 0.00428254 0.00939241 0.01331616 0.00125964 
0.01735802 0.04341232 0.00841429 0.00332783 0.00148016 0.00224542 0.00996436 0.00302785 0.01696381 0.00226191 0.00398108 0.06972997 0.00436003 0.00956776 0.01344663 0.00127124 
0.01713484 0.04169803 0.00842788 0.00329660 0.00147204 0.00226868 0.00992921 0.00306561 0.01690785 0.00224872 0.00392534 0.07053407 0.00443906 0.00973734 0.01357257 0.00128278 
0.01689418 0.04002232 0.00843308 0.00326547 0.00146371 0.00229226 0.00989151 0.00310596 0.01685365 0.00223619 0.00386747 0.07139146 0.00451955 0.00990042 0.01369341 0.00129420 
0.01663765 0.03839515 0.00842981 0.00323468 0.00145525 0.00231609 0.00985085 0.00314889 0.01680241 0.00222434 0.00380768 0.07229753 0.00460136 0.01005635 0.01380862 0.00130546 
0.01636690 0.03682631 0.00841802 0.00320443 0.00144675 0.00234011 0.00980685 0.00319442 0.01675533 0.00221322 0.00374621 0.07324743 0.00468438 0.01020448 0.01391770 0.00131653 
0.01608369 0.03532544 0.00839771 0.00317493 0.00143829 0.00236425 0.00975917 0.00324253 0.01671361 0.00220288 0.00368330 0.07423609 0.00476847 0.01034423 0.01402022 0.00132736 
0.01578980 0.03390195 0.00836893 0.00314638 0.00142997 0.00238843 0.00970750 0.00329321 0.01667843 0.00219335 0.00361922 0.07525828 0.00485348 0.01047505 0.01411575 0.00133791 
0.01548709 0.03256495 0.00833177 0.00311898 0.00142187 0.00241256 0.00965157 0.00334643 0.01665095 0.00218465 0.00355422 0.07630859 0.00493926 0.01059645 0.01420397 0.00134814 
0.01517747 0.03132325 0.00828637 0.00309291 0.00141407 0.00243658 0.00959115 0.00340216 0.01663231 0.00217683 0.00348858 0.07738155 0.00502564 0.01070801 0.01428457 0.00135802 
0.01486285 0.03018526 0.00823290 0.00306836 0.00140666 0.00246040 0.00952607 0.00346036 0.01662358 0.00216990 0.00342260 0.07847156 0.00511243 0.01080933 0.01435731 0.00136750 
0.01454521 0.02915897 0.00817158 0.00304548 0.00139972 0.00248392 0.00945621 0.00352098 0.01662578 0.00216389 0.00335656 0.07957301 0.00519945 0.01090013 0.01442202 0.00137655 
0.01422651 0.02825190 0.00810268 0.00302442 0.00139333 0.00250707 0.00938150 0.00358394 0.01663990 0.00215882 0.00329076 0.08068026 0.00528648 0.01098013 0.01447857 0.00138514 
0.01390875 0.02747106 0.00802650 0.00300533 0.00138757 0.00252976 0.00930196 0.00364917 0.01666682 0.00215469 0.00322549 0.08178771 0.00537332 0.01104916 0.01452691 0.00139325 
0.01359390 0.02682288 0.00794338 0.00298834 0.00138249 0.00255188 0.00921763 0.00371659 0.01670737 0.00215153 0.00316107 0.08288981 0.00545973 0.01110709 0.01456705 0.00140083 
0.01328394 0.02631323 0.00785372 0.00297355 0.00137817 0.00257336 0.00912866 0.00378608 0.01676228 0.00214932 0.00309778 0.08398109 0.00554547 0.01115389 0.01459904 0.00140786 
0.01298081 0.02594732 0.00775792 0.00296105 0.00137467 0.00259410 0.00903523 0.00385754 0.01683219 0.00214809 0.00303593 0.08505622 0.00563028 0.01118957 0.01462302 0.00141433 
0.01268646 0.02572971 0.00765644 0.00295092 0.00137205 0.00261402 0.00893763 0.00393084 0.01691764 0.00214781 0.00297582 0.08611001 0.00571392 0.01121421 0.01463918 0.00142021 
0.01240275 0.02566427 0.00754978 0.00294323 0.00137034 0.00263303 0.00883619 0.00400583 0.01701906 0.00214849 0.00291772 0.08713745 0.00579609 0.01122797 0.01464778 0.00142548 
0.01213154 0.02575414 0.00743844 0.00293801 0.00136959 0.00265103 0.00873131 0.00408238 0.01713679 0.00215011 0.00286194 0.08813375 0.00587653 0.01123107 0.01464911 0.00143012 
0.01187461 0.02600170 0.00732297 0.00293528 0.00136984 0.00266796 0.00862349 0.00416031 0.01727102 0.00215266 0.00280873 0.08909434 0.00595493 0.01122380 0.01464354 0.00143412 
0.01163369 0.02640860 0.00720396 0.00293504 0.00137112 0.00268372 0.00851328 0.00423944 0.01742186 0.00215611 0.00275836 0.09001494 0.00603102 0.01120649 0.01463150 0.00143747 
0.01141043 0.02697569 0.00708199 0.00293729 0.00137343 0.00269824 0.00840128 0.00431959 0.01758926 0.00216044 0.00271110 0.09089151 0.00610447 0.01117957 0.01461344 0.00144017 
0.01120640 0.02770302 0.00695767 0.00294198 0.00137681 0.00271146 0.00828819 0.00440056 0.01777308 0.00216562 0.00266716 0.09172035 0.00617500 0.01114349 0.01458989 0.00144220 
0.01102308 0.02858985 0.00683165 0.00294906 0.00138125 0.00272329 0.00817475 0.00448213 0.01797304 0.00217162 0.00262679 0.09249806 0.00624229 0.01109878 0.01456139 0.00144357 
0.01086187 0.02963463 0.00670457 0.00295845 0.00138674 0.00273368 0.00806178 0.00456410 0.01818875 0.00217840 0.00259019 0.09322157 0.00630605 0.01104599 0.01452855 0.00144428 
0.01072406 0.03083501 0.00657709 0.00297005 0.00139329 0.00274257 0.00795011 0.00464622 0.01841966 0.00218592 0.00255754 0.09388819 0.00636596 0.01098576 0.01449198 0.00144432 
0.01061083 0.03218784 0.00644988 0.00298376 0.00140087 0.00274991 0.00784068 0.00472826 0.01866515 0.00219413 0.00252903 0.09449554 0.00642173 0.01091872 0.01445234 0.00144371 
0.01052324 0.03368917 0.00632360 0.00299944 0.00140946 0.00275565 0.00773444 0.00480998 0.01892444 0.00220299 0.00250481 0.09504165 0.00647308 0.01084557 0.01441030 0.00144245 
0.01046223 0.03533427 0.00619894 0.00301694 0.00141902 0.00275975 0.00763237 0.00489113 0.01919666 0.00221245 0.00248501 0.09552489 0.00651972 0.01076704 0.01436655 0.00144055 
0.01042864 0.03711765 0.00607657 0.00303609 0.00142953 0.00276219 0.00753552 0.00497145 0.01948080 0.00222244 0.00246974 0.09594403 0.00656138 0.01068388 0.01432180 0.00143803 
0.01042314 0.03903309 0.00595714 0.00305671 0.00144093 0.00276293 0.00744493 0.00505068 0.01977578 0.00223291 0.00245910 0.09629820 0.00659780 0.01059685 0.01427675 0.00143490 
0.01044629 0.04107364 0.00584133 0.00307859 0.00145316 0.00276196 0.00736168 0.00512857 0.02008040 0.00224380 0.00245315 0.09658688 0.00662876 0.01050673 0.01423210 0.00143117 
0.01049849 0.04323167 0.00572977 0.00310153 0.00146619 0.00275927 0.00728686 0.00520484 0.02039336 0.00225505 0.00245193 0.09680995 0.00665402 0.01041433 0.01418855 0.00142687 
0.01058003 0.04549889 0.00562309 0.00312530 0.00147993 0.00275486 0.00722156 0.00527925 0.02071329 0.00226659 0.00245548 0.09696761 0.00667340 0.01032043 0.01414679 0.00142202 
0.01069102 0.04786639 0.00552190 0.00314966 0.00149433 0.00274873 0.00716687 0.00535151 0.02103872 0.00227835 0.00246378 0.09706044 0.00668671 0.01022583 0.01410746 0.00141665 
0.01083144 0.05032471 0.00542679 0.00317436 0.00150932 0.00274090 0.00712386 0.00542139 0.02136813 0.00229027 0.00247682 0.09708931 0.00669382 0.01013132 0.01407121 0.00141076 
0.01100113 0.05286384 0.00533833 0.00319915 0.00152481 0.00273139 0.00709361 0.00548863 0.02169994 0.00230227 0.00249454 0.09705545 0.00669459 0.01003767 0.01403863 0.00140440 
0.01119975 0.05547328 0.00525704 0.00322376 0.00154073 0.00272022 0.00707713 0.00555298 0.02203250 0.00231428 0.00251687 0.09696034 0.00668895 0.00994562 0.01401030 0.00139758 
0.01142685 0.05814213 0.00518343 0.00324793 0.00155700 0.00270745 0.00707543 0.00561419 0.02236414 0.00232624 0.00254372 0.09680577 0.00667683 0.00985592 0.01398674 0.00139034 
0.01168180 0.06085909 0.00511797 0.00327138 0.00157354 0.00269310 0.00708945 0.00567205 0.02269314 0.00233806 0.00257498 0.09659377 0.00665821 0.00976924 0.01396841 0.00138270 
0.01196384 0.06361254 0.00506109 0.00329384 0.00159025 0.00267723 0.00712010 0.00572633 0.02301779 0.00234968 0.00261049 0.09632662 0.00663311 0.00968626 0.01395575 0.00137470 
0.01227207 0.06639061 0.00501317 0.00331503 0.00160706 0.00265990 0.00716822 0.00577681 0.02333633 0.00236102 0.00265011 0.09600679 0.00660157 0.00960760 0.01394910 0.00136636 
0.01260542 0.06918122 0.00497456 0.00333470 0.00162388 0.00264118 0.00723458 0.00582331 0.02364703 0.00237202 0.00269365 0.09563694 0.00656368 0.00953382 0.01394879 0.00135771 
0.01296273 0.07197218 0.00494558 0.00335257 0.00164063 0.00262115 0.00731987 0.00586563 0.02394818 0.00238259 0.00274091 0.09521988 0.00651957 0.00946546 0.01395504 0.00134879 
0.01334266 0.07475119 0.00492647 0.00336839 0.00165722 0.00259987 0.00742472 0.00590361 0.02423807 0.00239268 0.00279167 0.09475855 0.00646940 0.00940299 0.01396802 0.00133962 
