0.00098977 0.02011952 0.00666239 0.00404305 0.00152543 0.00334241 0.00749034 0.00594578 0.01338191 0.00209786 0.00207181 0.03475879 0.01609005 0.00400173 0.00768703 0.00135202 
0.00071979 0.01984498 0.00629339 0.00397461 0.00152007 0.00336280 0.00734253 0.00600639 0.01299671 0.00207197 0.00206080 0.03524097 0.01604875 0.00396773 0.00765276 0.00135466 
0.00058095 0.01959859 0.00593307 0.00390745 0.00151366 0.00338085 0.00719521 0.00606826 0.01261644 0.00204633 0.00204919 0.03580221 0.01598440 0.00393429 0.00761793 0.00135726 
0.00057360 0.01938111 0.00558253 0.00384177 0.00150629 0.00339658 0.00704934 0.00613114 0.01224240 0.00202104 0.00203707 0.03644145 0.01589725 0.00390159 0.00758277 0.00135981 
0.00069779 0.01919311 0.00524281 0.00377775 0.00149804 0.00341000 0.00690587 0.00619472 0.01187591 0.00199624 0.00202455 0.03715726 0.01578760 0.00386982 0.00754753 0.00136229 
0.00095326 0.01903503 0.00491488 0.00371558 0.00148901 0.00342113 0.00676574 0.00625873 0.01151825 0.00197202 0.00201174 0.03794776 0.01565588 0.00383916 0.00751241 0.00136470 
0.00133949 0.01890713 0.00459964 0.00365545 0.00147929 0.00343001 0.00662986 0.00632287 0.01117066 0.00194848 0.00199874 0.03881066 0.01550258 0.00380979 0.00747760 0.00136702 
0.00185566 0.01880954 0.00429794 0.00359753 0.00146896 0.00343669 0.00649914 0.00638686 0.01083438 0.00192571 0.00198567 0.03974329 0.01532831 0.00378187 0.00744329 0.00136925 
0.00250065 0.01874222 0.00401054 0.00354198 0.00145813 0.00344121 0.00637441 0.00645038 0.01051058 0.00190382 0.00197261 0.04074255 0.01513373 0.00375556 0.00740961 0.00137137 
0.00327309 0.01870499 0.00373812 0.00348897 0.00144689 0.00344362 0.00625650 0.00651316 0.01020040 0.00188286 0.00195969 0.04180501 0.01491961 0.00373103 0.00737672 0.00137338 
0.00417129 0.01869751 0.00348131 0.00343864 0.00143533 0.00344399 0.00614619 0.00657489 0.00990491 0.00186290 0.00194698 0.04292683 0.01468680 0.00370842 0.00734472 0.00137527 
0.00519328 0.01871929 0.00324062 0.00339112 0.00142355 0.00344238 0.00604420 0.00663530 0.00962514 0.00184402 0.00193459 0.04410387 0.01443621 0.00368788 0.00731370 0.00137704 
0.00633683 0.01876971 0.00301652 0.00334655 0.00141163 0.00343886 0.00595122 0.00669409 0.00936204 0.00182625 0.00192260 0.04533165 0.01416884 0.00366954 0.00728373 0.00137866 
0.00759941 0.01884801 0.00280939 0.00330504 0.00139968 0.00343352 0.00586788 0.00675099 0.00911649 0.00180965 0.00191109 0.04660538 0.01388574 0.00365352 0.00725487 0.00138014 
0.00897822 0.01895330 0.00261951 0.00326670 0.00138776 0.00342643 0.00579474 0.00680573 0.00888930 0.00179423 0.00190015 0.04792004 0.01358805 0.00363994 0.00722713 0.00138148 
0.01047015 0.01908455 0.00244711 0.00323163 0.00137597 0.00341768 0.00573230 0.00685805 0.00868120 0.00178002 0.00188983 0.04927032 0.01327694 0.00362891 0.00720053 0.00138265 
0.01207184 0.01924065 0.00229233 0.00319989 0.00136439 0.00340736 0.00568102 0.00690771 0.00849282 0.00176704 0.00188021 0.05065073 0.01295364 0.00362053 0.00717506 0.00138367 
0.01377966 0.01942035 0.00215522 0.00317156 0.00135308 0.00339555 0.00564126 0.00695447 0.00832473 0.00175529 0.00187134 0.05205558 0.01261943 0.00361490 0.00715069 0.00138453 
0.01558967 0.01962230 0.00203577 0.00314669 0.00134213 0.00338237 0.00561334 0.00699810 0.00817738 0.00174476 0.00186328 0.05347906 0.01227562 0.00361209 0.00712737 0.00138522 
0.01749767 0.01984509 0.00193389 0.00312533 0.00133159 0.00336789 0.00559749 0.00703839 0.00805116 0.00173542 0.00185606 0.05491521 0.01192357 0.00361218 0.00710505 0.00138574 
0.01949921 0.02008718 0.00184943 0.00310751 0.00132151 0.00335222 0.00559387 0.00707515 0.00794634 0.00172727 0.00184971 0.05635801 0.01156464 0.00361524 0.00708365 0.00138609 
0.02158954 0.02034701 0.00178216 0.00309323 0.00131196 0.00333545 0.00560259 0.00710819 0.00786312 0.00172027 0.00184427 0.05780140 0.01120024 0.00362132 0.00706309 0.00138627 
0.02376366 0.02062291 0.00173177 0.00308249 0.00130298 0.00331768 0.00562366 0.00713736 0.00780157 0.00171437 0.00183976 0.05923930 0.01083176 0.00363047 0.00704328 0.00138628 
0.02601631 0.02091320 0.00169792 0.00307529 0.00129460 0.00329900 0.00565703 0.00716250 0.00776171 0.00170953 0.00183618 0.06066567 0.01046062 0.00364273 0.00702410 0.00138612 
0.02834197 0.02121613 0.00168019 0.00307160 0.00128686 0.00327952 0.00570257 0.00718347 0.00774344 0.00170568 0.00183353 0.06207453 0.01008822 0.00365814 0.00700546 0.00138579 
0.03073487 0.02152992 0.00167810 0.00307137 0.00127978 0.00325932 0.00576010 0.00720016 0.00774658 0.00170278 0.00183181 0.06345998 0.00971596 0.00367672 0.00698725 0.00138529 
0.03318901 0.02185279 0.00169112 0.00307454 0.00127339 0.00323849 0.00582935 0.00721248 0.00777085 0.00170075 0.00183101 0.06481631 0.00934524 0.00369849 0.00696936 0.00138463 
0.03569812 0.02218294 0.00171869 0.00308106 0.00126768 0.00321712 0.00590999 0.00722034 0.00781590 0.00169952 0.00183111 0.06613792 0.00897740 0.00372347 0.00695167 0.00138381 
0.03825575 0.02251856 0.00176018 0.00309083 0.00126267 0.00319529 0.00600162 0.00722368 0.00788128 0.00169901 0.00183207 0.06741946 0.00861378 0.00375165 0.00693407 0.00138283 
0.04085520 0.02285786 0.00181493 0.00310377 0.00125834 0.00317309 0.00610378 0.00722245 0.00796648 0.00169914 0.00183387 0.06865580 0.00825568 0.00378303 0.00691648 0.00138170 
0.04348958 0.02319907 0.00188225 0.00311976 0.00125470 0.00315058 0.00621596 0.00721662 0.00807091 0.00169984 0.00183646 0.06984207 0.00790434 0.00381760 0.00689880 0.00138043 
0.04615180 0.02354045 0.00196140 0.00313869 0.00125172 0.00312784 0.00633758 0.00720618 0.00819389 0.00170101 0.00183979 0.07097371 0.00756099 0.00385535 0.00688093 0.00137901 
0.04883459 0.02388030 0.00205164 0.00316042 0.00124938 0.00310494 0.00646801 0.00719112 0.00833471 0.00170256 0.00184382 0.07204648 0.00722676 0.00389626 0.00686283 0.00137746 
0.05153052 0.02421697 0.00215217 0.00318481 0.00124766 0.00308193 0.00660658 0.00717148 0.00849258 0.00170442 0.00184848 0.07305650 0.00690275 0.00394030 0.00684442 0.00137579 
0.05423202 0.02454887 0.00226220 0.00321171 0.00124650 0.00305888 0.00675256 0.00714728 0.00866665 0.00170649 0.00185371 0.07400023 0.00659000 0.00398744 0.00682567 0.00137399 
0.05693136 0.02487447 0.00238091 0.00324095 0.00124588 0.00303582 0.00690521 0.00711858 0.00885604 0.00170870 0.00185945 0.07487457 0.00628948 0.00403763 0.00680656 0.00137209 
0.05962072 0.02519232 0.00250747 0.00327237 0.00124575 0.00301281 0.00706373 0.00708543 0.00905983 0.00171095 0.00186562 0.07567680 0.00600206 0.00409084 0.00678708 0.00137008 
0.06229218 0.02550106 0.00264106 0.00330579 0.00124605 0.00298988 0.00722730 0.00704793 0.00927705 0.00171317 0.00187216 0.07640463 0.00572858 0.00414702 0.00676725 0.00136798 
0.06493776 0.02579939 0.00278082 0.00334101 0.00124674 0.00296707 0.00739507 0.00700615 0.00950671 0.00171529 0.00187898 0.07705620 0.00546976 0.00420611 0.00674712 0.00136579 
0.06754941 0.02608615 0.00292591 0.00337784 0.00124775 0.00294440 0.00756618 0.00696022 0.00974779 0.00171723 0.00188602 0.07763011 0.00522628 0.00426806 0.00672673 0.00136353 
0.07011906 0.02636025 0.00307552 0.00341609 0.00124903 0.00292189 0.00773975 0.00691024 0.00999928 0.00171891 0.00189319 0.07812540 0.00499871 0.00433279 0.00670619 0.00136119 
0.07263865 0.02662070 0.00322879 0.00345555 0.00125051 0.00289957 0.00791489 0.00685634 0.01026014 0.00172030 0.00190043 0.07854159 0.00478754 0.00440026 0.00668559 0.00135880 
0.07510013 0.02686664 0.00338493 0.00349602 0.00125212 0.00287743 0.00809072 0.00679867 0.01052932 0.00172131 0.00190765 0.07887863 0.00459319 0.00447037 0.00666508 0.00135636 
0.07749550 0.02709731 0.00354312 0.00353727 0.00125380 0.00285550 0.00826635 0.00673739 0.01080581 0.00172192 0.00191478 0.07913692 0.00441597 0.00454306 0.00664480 0.00135387 
0.07981686 0.02731209 0.00370257 0.00357911 0.00125549 0.00283377 0.00844091 0.00667264 0.01108857 0.00172207 0.00192175 0.07931733 0.00425613 0.00461825 0.00662493 0.00135136 
0.08205639 0.02751045 0.00386251 0.00362131 0.00125710 0.00281224 0.00861353 0.00660460 0.01137660 0.00172173 0.00192849 0.07942114 0.00411381 0.00469585 0.00660569 0.00134882 
0.08420641 0.02769200 0.00402220 0.00366366 0.00125859 0.00279090 0.00878336 0.00653344 0.01166893 0.00172088 0.00193493 0.07945008 0.00398909 0.00477577 0.00658730 0.00134627 
0.08625942 0.02785647 0.00418091 0.00370596 0.00125987 0.00276975 0.00894959 0.00645937 0.01196458 0.00171949 0.00194101 0.07940627 0.00388197 0.00485791 0.00657000 0.00134371 
0.08820809 0.02800369 0.00433795 0.00374799 0.00126089 0.00274878 0.00911141 0.00638256 0.01226265 0.00171756 0.00194666 0.07929223 0.00379233 0.00494218 0.00655406 0.00134116 
0.09004534 0.02813365 0.00449265 0.00378955 0.00126158 0.00272797 0.00926808 0.00630323 0.01256224 0.00171509 0.00195184 0.07911085 0.00372002 0.00502848 0.00653978 0.00133861 
0.09176433 0.02824643 0.00464436 0.00383043 0.00126189 0.00270730 0.00941887 0.00622157 0.01286251 0.00171208 0.00195649 0.07886537 0.00366479 0.00511669 0.00652744 0.00133609 
0.09335850 0.02834224 0.00479247 0.00387044 0.00126175 0.00268676 0.00956309 0.00613780 0.01316266 0.00170854 0.00196057 0.07855937 0.00362632 0.00520671 0.00651738 0.00133359 
0.09482163 0.02842141 0.00493642 0.00390939 0.00126112 0.00266634 0.00970010 0.00605214 0.01346193 0.00170451 0.00196404 0.07819669 0.00360422 0.00529842 0.00650992 0.00133113 
0.09614781 0.02848437 0.00507565 0.00394710 0.00125995 0.00264601 0.00982932 0.00596481 0.01375963 0.00170001 0.00196687 0.07778148 0.00359804 0.00539169 0.00650539 0.00132870 
0.09733154 0.02853166 0.00520966 0.00398339 0.00125819 0.00262577 0.00995020 0.00587603 0.01405510 0.00169509 0.00196902 0.07731809 0.00360726 0.00548641 0.00650416 0.00132633 
0.09836769 0.02856394 0.00533798 0.00401809 0.00125581 0.00260558 0.01006226 0.00578604 0.01434776 0.00168978 0.00197048 0.07681112 0.00363133 0.00558244 0.00650657 0.00132401 
0.09925158 0.02858196 0.00546018 0.00405105 0.00125277 0.00258544 0.01016507 0.00569506 0.01463706 0.00168415 0.00197123 0.07626530 0.00366960 0.00567965 0.00651298 0.00132174 
0.09997898 0.02858654 0.00557584 0.00408212 0.00124904 0.00256533 0.01025825 0.00560334 0.01492252 0.00167826 0.00197126 0.07568552 0.00372141 0.00577789 0.00652374 0.00131955 
0.10054616 0.02857863 0.00568461 0.00411117 0.00124461 0.00254525 0.01034148 0.00551111 0.01520372 0.00167218 0.00197057 0.07507678 0.00378606 0.00587703 0.00653921 0.00131742 
0.10094987 0.02855923 0.00578616 0.00413807 0.00123946 0.00252518 0.01041451 0.00541861 0.01548030 0.00166597 0.00196917 0.07444414 0.00386277 0.00597692 0.00655973 0.00131536 
0.10118741 0.02852941 0.00588020 0.00416271 0.00123357 0.00250512 0.01047714 0.00532608 0.01575193 0.00165972 0.00196706 0.07379268 0.00395078 0.00607740 0.00658563 0.00131338 
0.10125663 0.02849033 0.00596648 0.00418499 0.00122696 0.00248507 0.01052923 0.00523376 0.01601837 0.00165351 0.00196425 0.07312751 0.00404927 0.00617832 0.00661723 0.00131148 
0.10115596 0.02844318 0.00604478 0.00420482 0.00121961 0.00246502 0.01057070 0.00514189 0.01627941 0.00164743 0.00196077 0.07245368 0.00415739 0.00627952 0.00665484 0.00130967 
0.10088439 0.02838921 0.00611492 0.00422214 0.00121155 0.00244498 0.01060154 0.00505072 0.01653490 0.00164157 0.00195665 0.07177618 0.00427430 0.00638082 0.00669874 0.00130794 
0.10044155 0.02832972 0.00617676 0.00423687 0.00120279 0.00242497 0.01062178 0.00496048 0.01678473 0.00163602 0.00195190 0.07109988 0.00439912 0.00648207 0.00674920 0.00130630 
0.09982766 0.02826603 0.00623018 0.00424898 0.00119335 0.00240499 0.01063153 0.00487142 0.01702885 0.00163087 0.00194658 0.07042954 0.00453099 0.00658309 0.00680645 0.00130475 
0.09904360 0.02819948 0.00627511 0.00425844 0.00118327 0.00238506 0.01063092 0.00478378 0.01726723 0.00162623 0.00194071 0.06976972 0.00466901 0.00668370 0.00687070 0.00130329 
0.09809086 0.02813143 0.00631150 0.00426521 0.00117259 0.00236520 0.01062016 0.00469779 0.01749992 0.00162217 0.00193434 0.06912482 0.00481232 0.00678372 0.00694212 0.00130193 
0.09697160 0.02806324 0.00633935 0.00426930 0.00116134 0.00234545 0.01059950 0.00461369 0.01772695 0.00161881 0.00192751 0.06849897 0.00496003 0.00688298 0.00702087 0.00130065 
0.09568860 0.02799627 0.00635867 0.00427072 0.00114957 0.00232583 0.01056924 0.00453172 0.01794842 0.00161622 0.00192028 0.06789608 0.00511128 0.00698128 0.00710704 0.00129947 
0.09424532 0.02793186 0.00636953 0.00426949 0.00113735 0.00230637 0.01052973 0.00445210 0.01816444 0.00161449 0.00191268 0.06731977 0.00526522 0.00707845 0.00720071 0.00129838 
0.09264585 0.02787134 0.00637200 0.00426563 0.00112472 0.00228712 0.01048135 0.00437507 0.01837517 0.00161372 0.00190478 0.06677338 0.00542102 0.00717429 0.00730190 0.00129738 
0.09089493 0.02781599 0.00636619 0.00425921 0.00111176 0.00226811 0.01042451 0.00430083 0.01858074 0.00161398 0.00189662 0.06625991 0.00557786 0.00726862 0.00741061 0.00129648 
0.08899793 0.02776706 0.00635224 0.00425027 0.00109853 0.00224940 0.01035969 0.00422963 0.01878134 0.00161534 0.00188826 0.06578204 0.00573497 0.00736125 0.00752678 0.00129566 
0.08696085 0.02772576 0.00633033 0.00423888 0.00108510 0.00223104 0.01028735 0.00416166 0.01897714 0.00161789 0.00187975 0.06534210 0.00589156 0.00745198 0.00765031 0.00129493 
0.08479030 0.02769323 0.00630064 0.00422513 0.00107155 0.00221307 0.01020802 0.00409714 0.01916834 0.00162166 0.00187113 0.06494206 0.00604693 0.00754064 0.00778106 0.00129429 
0.08249350 0.02767056 0.00626339 0.00420912 0.00105797 0.00219555 0.01012223 0.00403627 0.01935511 0.00162674 0.00186247 0.06458352 0.00620036 0.00762703 0.00791883 0.00129373 
0.08007824 0.02765876 0.00621882 0.00419093 0.00104442 0.00217855 0.01003053 0.00397924 0.01953763 0.00163315 0.00185381 0.06426771 0.00635120 0.00771096 0.00806341 0.00129325 
0.07755285 0.02765877 0.00616720 0.00417068 0.00103100 0.00216213 0.00993349 0.00392625 0.01971609 0.00164095 0.00184519 0.06399548 0.00649882 0.00779227 0.00821450 0.00129286 
0.07492621 0.02767145 0.00610880 0.00414849 0.00101779 0.00214633 0.00983168 0.00387748 0.01989065 0.00165016 0.00183667 0.06376730 0.00664264 0.00787077 0.00837179 0.00129254 
0.07220771 0.02769756 0.00604395 0.00412449 0.00100486 0.00213124 0.00972569 0.00383309 0.02006145 0.00166080 0.00182827 0.06358328 0.00678210 0.00794629 0.00853491 0.00129230 
0.06940720 0.02773779 0.00597295 0.00409881 0.00099232 0.00211691 0.00961610 0.00379325 0.02022863 0.00167289 0.00182003 0.06344314 0.00691670 0.00801866 0.00870345 0.00129213 
0.06653498 0.02779271 0.00589616 0.00407158 0.00098023 0.00210341 0.00950350 0.00375812 0.02039229 0.00168642 0.00181200 0.06334625 0.00704598 0.00808771 0.00887697 0.00129203 
0.06360176 0.02786281 0.00581393 0.00404296 0.00096869 0.00209079 0.00938847 0.00372784 0.02055252 0.00170139 0.00180420 0.06329164 0.00716952 0.00815330 0.00905498 0.00129199 
0.06061861 0.02794847 0.00572664 0.00401309 0.00095778 0.00207913 0.00927157 0.00370254 0.02070938 0.00171778 0.00179665 0.06327797 0.00728694 0.00821528 0.00923697 0.00129203 
0.05759696 0.02804997 0.00563469 0.00398212 0.00094756 0.00206849 0.00915336 0.00368234 0.02086288 0.00173555 0.00178937 0.06330362 0.00739791 0.00827350 0.00942236 0.00129212 
0.05454849 0.02816748 0.00553846 0.00395021 0.00093813 0.00205893 0.00903438 0.00366736 0.02101304 0.00175468 0.00178237 0.06336664 0.00750213 0.00832785 0.00961059 0.00129227 
0.05148515 0.02830106 0.00543839 0.00391752 0.00092955 0.00205050 0.00891515 0.00365768 0.02115981 0.00177511 0.00177568 0.06346481 0.00759935 0.00837819 0.00980103 0.00129248 
0.04841911 0.02845069 0.00533490 0.00388421 0.00092189 0.00204326 0.00879618 0.00365339 0.02130313 0.00179679 0.00176928 0.06359562 0.00768938 0.00842442 0.00999306 0.00129275 
0.04536265 0.02861622 0.00522842 0.00385043 0.00091522 0.00203727 0.00867794 0.00365456 0.02144290 0.00181963 0.00176318 0.06375637 0.00777204 0.00846644 0.01018601 0.00129306 
0.04232820 0.02879740 0.00511940 0.00381635 0.00090958 0.00203257 0.00856088 0.00366125 0.02157898 0.00184357 0.00175738 0.06394411 0.00784721 0.00850417 0.01037920 0.00129343 
0.03932823 0.02899390 0.00500830 0.00378213 0.00090505 0.00202921 0.00844542 0.00367348 0.02171120 0.00186852 0.00175187 0.06415572 0.00791481 0.00853754 0.01057196 0.00129383 
0.03637523 0.02920527 0.00489558 0.00374792 0.00090165 0.00202722 0.00833196 0.00369128 0.02183938 0.00189438 0.00174662 0.06438793 0.00797479 0.00856648 0.01076360 0.00129429 
0.03348163 0.02943098 0.00478171 0.00371388 0.00089945 0.00202666 0.00822085 0.00371467 0.02196327 0.00192106 0.00174162 0.06463731 0.00802714 0.00859095 0.01095340 0.00129478 
0.03065978 0.02967041 0.00466714 0.00368018 0.00089846 0.00202754 0.00811243 0.00374362 0.02208262 0.00194843 0.00173684 0.06490038 0.00807189 0.00861093 0.01114068 0.00129531 
0.02792188 0.02992285 0.00455237 0.00364695 0.00089871 0.00202991 0.00800697 0.00377811 0.02219714 0.00197638 0.00173225 0.06517356 0.00810910 0.00862639 0.01132475 0.00129588 
0.02527994 0.03018752 0.00443785 0.00361435 0.00090024 0.00203376 0.00790476 0.00381810 0.02230652 0.00200479 0.00172783 0.06545324 0.00813886 0.00863733 0.01150491 0.00129649 
0.02274572 0.03046356 0.00432406 0.00358254 0.00090304 0.00203914 0.00780600 0.00386352 0.02241043 0.00203354 0.00172353 0.06573581 0.00816130 0.00864376 0.01168050 0.00129712 
0.02033069 0.03075005 0.00421148 0.00355164 0.00090714 0.00204603 0.00771090 0.00391429 0.02250850 0.00206249 0.00171932 0.06601766 0.00817656 0.00864572 0.01185087 0.00129779 
0.01804594 0.03104600 0.00410058 0.00352181 0.00091251 0.00205446 0.00761960 0.00397031 0.02260036 0.00209150 0.00171515 0.06629528 0.00818485 0.00864324 0.01201539 0.00129848 
0.01590220 0.03135039 0.00399181 0.00349317 0.00091917 0.00206441 0.00753222 0.00403146 0.02268565 0.00212044 0.00171098 0.06656519 0.00818635 0.00863640 0.01217346 0.00129920 
0.01390972 0.03166214 0.00388565 0.00346586 0.00092708 0.00207588 0.00744886 0.00409761 0.02276395 0.00214917 0.00170676 0.06682407 0.00818131 0.00862525 0.01232451 0.00129995 
0.01207829 0.03198012 0.00378254 0.00344001 0.00093623 0.00208887 0.00736956 0.00416860 0.02283488 0.00217756 0.00170244 0.06706872 0.00816997 0.00860988 0.01246799 0.00130071 
0.01041712 0.03230320 0.00368292 0.00341574 0.00094658 0.00210334 0.00729436 0.00424425 0.02289803 0.00220545 0.00169798 0.06729609 0.00815261 0.00859041 0.01260342 0.00130150 
0.00893486 0.03263020 0.00358724 0.00339316 0.00095809 0.00211927 0.00722325 0.00432438 0.02295302 0.00223272 0.00169333 0.06750335 0.00812953 0.00856694 0.01273033 0.00130231 
0.00763953 0.03295995 0.00349592 0.00337241 0.00097072 0.00213664 0.00715619 0.00440878 0.02299946 0.00225924 0.00168844 0.06768786 0.00810103 0.00853960 0.01284831 0.00130313 
0.00653849 0.03329127 0.00340936 0.00335358 0.00098442 0.00215541 0.00709311 0.00449722 0.02303696 0.00228485 0.00168326 0.06784723 0.00806744 0.00850854 0.01295699 0.00130397 
0.00563838 0.03362298 0.00332796 0.00333678 0.00099912 0.00217554 0.00703394 0.00458945 0.02306519 0.00230946 0.00167775 0.06797932 0.00802910 0.00847390 0.01305607 0.00130482 
0.00494511 0.03395389 0.00325211 0.00332212 0.00101476 0.00219698 0.00697856 0.00468522 0.02308380 0.00233291 0.00167187 0.06808227 0.00798637 0.00843585 0.01314528 0.00130568 
0.00446384 0.03428288 0.00318217 0.00330969 0.00103127 0.00221968 0.00692685 0.00478425 0.02309249 0.00235512 0.00166557 0.06815449 0.00793960 0.00839456 0.01322440 0.00130656 
0.00419890 0.03460880 0.00311847 0.00329958 0.00104858 0.00224358 0.00687865 0.00488625 0.02309098 0.00237595 0.00165883 0.06819471 0.00788918 0.00835022 0.01329329 0.00130744 
0.00415381 0.03493057 0.00306135 0.00329190 0.00106659 0.00226863 0.00683379 0.00499091 0.02307904 0.00239531 0.00165160 0.06820194 0.00783548 0.00830301 0.01335186 0.00130832 
0.00433125 0.03524715 0.00301111 0.00328672 0.00108523 0.00229476 0.00679209 0.00509791 0.02305645 0.00241311 0.00164386 0.06817554 0.00777888 0.00825314 0.01340005 0.00130921 
0.00473304 0.03555752 0.00296802 0.00328413 0.00110441 0.00232190 0.00675337 0.00520694 0.02302308 0.00242927 0.00163559 0.06811517 0.00771979 0.00820079 0.01343789 0.00131010 
0.00536009 0.03586075 0.00293235 0.00328420 0.00112403 0.00234998 0.00671741 0.00531764 0.02297880 0.00244369 0.00162677 0.06802082 0.00765859 0.00814619 0.01346546 0.00131099 
0.00621244 0.03615593 0.00290431 0.00328701 0.00114400 0.00237894 0.00668401 0.00542967 0.02292356 0.00245633 0.00161739 0.06789282 0.00759569 0.00808953 0.01348288 0.00131188 
0.00728925 0.03644226 0.00288412 0.00329263 0.00116422 0.00240868 0.00665295 0.00554266 0.02285737 0.00246712 0.00160745 0.06773179 0.00753149 0.00803104 0.01349034 0.00131276 
0.00858873 0.03671897 0.00287195 0.00330112 0.00118459 0.00243914 0.00662400 0.00565626 0.02278026 0.00247603 0.00159694 0.06753870 0.00746640 0.00797091 0.01348809 0.00131364 
0.01010823 0.03698538 0.00286793 0.00331254 0.00120501 0.00247022 0.00659695 0.00577010 0.02269237 0.00248301 0.00158588 0.06731479 0.00740080 0.00790937 0.01347642 0.00131450 
0.01184416 0.03724090 0.00287220 0.00332696 0.00122537 0.00250186 0.00657158 0.00588380 0.02259387 0.00248804 0.00157428 0.06706164 0.00733511 0.00784661 0.01345567 0.00131536 
0.01379209 0.03748499 0.00288482 0.00334442 0.00124559 0.00253397 0.00654766 0.00599699 0.02248500 0.00249113 0.00156217 0.06678109 0.00726971 0.00778286 0.01342624 0.00131620 
0.01594666 0.03771723 0.00290585 0.00336497 0.00126556 0.00256646 0.00652498 0.00610929 0.02236606 0.00249226 0.00154958 0.06647525 0.00720501 0.00771830 0.01338856 0.00131702 
0.01830168 0.03793726 0.00293530 0.00338865 0.00128519 0.00259925 0.00650333 0.00622034 0.02223744 0.00249146 0.00153656 0.06614649 0.00714138 0.00765313 0.01334312 0.00131782 
0.02085010 0.03814482 0.00297317 0.00341550 0.00130436 0.00263225 0.00648251 0.00632976 0.02209956 0.00248874 0.00152314 0.06579741 0.00707923 0.00758754 0.01329044 0.00131860 
0.02358407 0.03833974 0.00301940 0.00344554 0.00132301 0.00266539 0.00646233 0.00643719 0.02195295 0.00248414 0.00150939 0.06543082 0.00701891 0.00752172 0.01323106 0.00131936 
0.02649492 0.03852191 0.00307391 0.00347880 0.00134102 0.00269857 0.00644260 0.00654228 0.02179818 0.00247772 0.00149538 0.06504973 0.00696080 0.00745582 0.01316558 0.00132009 
0.02957325 0.03869135 0.00313658 0.00351531 0.00135832 0.00273172 0.00642315 0.00664468 0.02163587 0.00246953 0.00148116 0.06465731 0.00690526 0.00739003 0.01309460 0.00132079 
0.03280892 0.03884814 0.00320725 0.00355506 0.00137483 0.00276477 0.00640382 0.00674406 0.02146675 0.00245964 0.00146684 0.06425686 0.00685265 0.00732447 0.01301876 0.00132146 
0.03619111 0.03899245 0.00328574 0.00359806 0.00139046 0.00279762 0.00638446 0.00684009 0.02129156 0.00244812 0.00145249 0.06385181 0.00680330 0.00725930 0.01293870 0.00132210 
0.03970835 0.03912454 0.00337183 0.00364430 0.00140515 0.00283021 0.00636495 0.00693248 0.02111113 0.00243507 0.00143821 0.06344566 0.00675755 0.00719465 0.01285511 0.00132270 
0.04334859 0.03924474 0.00346526 0.00369377 0.00141882 0.00286246 0.00634515 0.00702094 0.02092635 0.00242059 0.00142411 0.06304199 0.00671571 0.00713062 0.01276865 0.00132327 
0.04709921 0.03935348 0.00356575 0.00374645 0.00143142 0.00289430 0.00632496 0.00710519 0.02073813 0.00240477 0.00141029 0.06264438 0.00667808 0.00706731 0.01268000 0.00132379 
0.05094710 0.03945123 0.00367296 0.00380230 0.00144288 0.00292566 0.00630429 0.00718500 0.02054746 0.00238774 0.00139687 0.06225644 0.00664497 0.00700482 0.01258985 0.00132428 
0.05487871 0.03953856 0.00378655 0.00386128 0.00145317 0.00295649 0.00628306 0.00726013 0.02035536 0.00236961 0.00138397 0.06188172 0.00661665 0.00694323 0.01249887 0.00132472 
0.05888010 0.03961609 0.00390614 0.00392334 0.00146223 0.00298672 0.00626120 0.00733039 0.02016287 0.00235050 0.00137171 0.06152374 0.00659337 0.00688258 0.01240773 0.00132512 
0.06293700 0.03968451 0.00403132 0.00398841 0.00147004 0.00301628 0.00623867 0.00739560 0.01997111 0.00233056 0.00136023 0.06118592 0.00657539 0.00682293 0.01231708 0.00132547 
0.06703487 0.03974457 0.00416164 0.00405642 0.00147655 0.00304514 0.00621542 0.00745561 0.01978118 0.00230991 0.00134967 0.06087158 0.00656292 0.00676431 0.01222757 0.00132578 
0.07115895 0.03979705 0.00429665 0.00412727 0.00148176 0.00307324 0.00619144 0.00751031 0.01959421 0.00228869 0.00134015 0.06058387 0.00655618 0.00670674 0.01213981 0.00132604 
0.07529437 0.03984279 0.00443585 0.00420087 0.00148564 0.00310052 0.00616670 0.00755960 0.01941137 0.00226705 0.00133183 0.06032582 0.00655536 0.00665023 0.01205439 0.00132626 
0.07942614 0.03988267 0.00457873 0.00427711 0.00148819 0.00312696 0.00614121 0.00760343 0.01923380 0.00224511 0.00132483 0.06010024 0.00656062 0.00659477 0.01197189 0.00132643 
0.08353927 0.03991760 0.00472477 0.00435585 0.00148940 0.00315252 0.00611497 0.00764176 0.01906268 0.00222304 0.00131931 0.05990974 0.00657211 0.00654035 0.01189283 0.00132655 
0.08761882 0.03994852 0.00487343 0.00443697 0.00148928 0.00317715 0.00608801 0.00767460 0.01889914 0.00220096 0.00131539 0.05975668 0.00658995 0.00648693 0.01181772 0.00132663 
0.09164997 0.03997639 0.00502413 0.00452031 0.00148784 0.00320084 0.00606035 0.00770199 0.01874433 0.00217902 0.00131323 0.05964320 0.00661425 0.00643448 0.01174702 0.00132667 
0.09561806 0.04000217 0.00517631 0.00460571 0.00148510 0.00322355 0.00603203 0.00772398 0.01859936 0.00215735 0.00131296 0.05957114 0.00664508 0.00638296 0.01168117 0.00132666 
0.09950869 0.04002684 0.00532938 0.00469299 0.00148108 0.00324527 0.00600309 0.00774068 0.01846531 0.00213609 0.00131471 0.05954208 0.00668250 0.00633231 0.01162055 0.00132661 
0.10330776 0.04005138 0.00548277 0.00478197 0.00147582 0.00326598 0.00597358 0.00775222 0.01834325 0.00211538 0.00131862 0.05955728 0.00672654 0.00628246 0.01156551 0.00132651 
0.10700153 0.04007677 0.00563587 0.00487243 0.00146935 0.00328566 0.00594356 0.00775876 0.01823416 0.00209533 0.00132480 0.05961770 0.00677718 0.00623335 0.01151635 0.00132639 
0.11057669 0.04010396 0.00578810 0.00496416 0.00146172 0.00330430 0.00591309 0.00776049 0.01813900 0.00207607 0.00133339 0.05972401 0.00683442 0.00618491 0.01147334 0.00132622 
0.11402043 0.04013389 0.00593887 0.00505694 0.00145297 0.00332191 0.00588223 0.00775764 0.01805867 0.00205771 0.00134449 0.05987652 0.00689820 0.00613706 0.01143669 0.00132602 
0.11732046 0.04016747 0.00608761 0.00515052 0.00144314 0.00333847 0.00585104 0.00775045 0.01799400 0.00204035 0.00135821 0.06007523 0.00696843 0.00608973 0.01140659 0.00132580 
0.12046511 0.04020560 0.00623373 0.00524466 0.00143231 0.00335399 0.00581959 0.00773920 0.01794575 0.00202409 0.00137464 0.06031982 0.00704500 0.00604284 0.01138316 0.00132554 
0.12344334 0.04024911 0.00637668 0.00533910 0.00142053 0.00336848 0.00578795 0.00772419 0.01791458 0.00200903 0.00139387 0.06060964 0.00712779 0.00599631 0.01136649 0.00132526 
0.12624481 0.04029880 0.00651591 0.00543356 0.00140786 0.00338194 0.00575619 0.00770576 0.01790111 0.00199523 0.00141598 0.06094371 0.00721662 0.00595008 0.01135663 0.00132496 
0.12885993 0.04035543 0.00665091 0.00552776 0.00139437 0.00339438 0.00572438 0.00768425 0.01790584 0.00198278 0.00144103 0.06132074 0.00731130 0.00590407 0.01135360 0.00132465 
0.13127987 0.04041970 0.00678117 0.00562143 0.00138013 0.00340582 0.00569258 0.00766002 0.01792917 0.00197174 0.00146907 0.06173915 0.00741160 0.00585821 0.01135737 0.00132432 
0.13349664 0.04049223 0.00690622 0.00571426 0.00136521 0.00341627 0.00566086 0.00763347 0.01797143 0.00196215 0.00150015 0.06219703 0.00751728 0.00581246 0.01136786 0.00132399 
0.13550308 0.04057361 0.00702560 0.00580595 0.00134969 0.00342574 0.00562928 0.00760499 0.01803282 0.00195405 0.00153430 0.06269223 0.00762805 0.00576676 0.01138498 0.00132365 
0.13729293 0.04066434 0.00713891 0.00589620 0.00133364 0.00343427 0.00559790 0.00757500 0.01811345 0.00194748 0.00157152 0.06322229 0.00774361 0.00572108 0.01140860 0.00132330 
0.13886083 0.04076484 0.00724575 0.00598470 0.00131714 0.00344187 0.00556678 0.00754391 0.01821331 0.00194245 0.00161182 0.06378453 0.00786361 0.00567538 0.01143856 0.00132297 
0.14020233 0.04087546 0.00734580 0.00607114 0.00130027 0.00344857 0.00553598 0.00751215 0.01833230 0.00193896 0.00165519 0.06437602 0.00798770 0.00562965 0.01147466 0.00132264 
0.14131395 0.04099649 0.00743872 0.00615521 0.00128310 0.00345438 0.00550554 0.00748016 0.01847018 0.00193703 0.00170158 0.06499363 0.00811549 0.00558387 0.01151670 0.00132232 
0.14219315 0.04112809 0.00752427 0.00623660 0.00126572 0.00345934 0.00547553 0.00744836 0.01862662 0.00193662 0.00175096 0.06563403 0.00824656 0.00553807 0.01156443 0.00132201 
0.14283833 0.04127037 0.00760222 0.00631499 0.00124819 0.00346348 0.00544597 0.00741719 0.01880118 0.00193772 0.00180326 0.06629373 0.00838047 0.00549225 0.01161760 0.00132173 
0.14324889 0.04142334 0.00767239 0.00639009 0.00123059 0.00346681 0.00541693 0.00738706 0.01899328 0.00194029 0.00185841 0.06696909 0.00851678 0.00544647 0.01167594 0.00132146 
0.14342515 0.04158692 0.00773465 0.00646158 0.00121301 0.00346938 0.00538843 0.00735839 0.01920227 0.00194428 0.00191632 0.06765636 0.00865499 0.00540076 0.01173916 0.00132122 
0.14336840 0.04176093 0.00778891 0.00652919 0.00119550 0.00347120 0.00536052 0.00733158 0.01942735 0.00194964 0.00197687 0.06835169 0.00879461 0.00535519 0.01180696 0.00132101 
0.14308087 0.04194509 0.00783514 0.00659261 0.00117815 0.00347231 0.00533323 0.00730701 0.01966766 0.00195631 0.00203994 0.06905116 0.00893511 0.00530986 0.01187904 0.00132083 
0.14256570 0.04213905 0.00787335 0.00665157 0.00116102 0.00347273 0.00530659 0.00728504 0.01992221 0.00196420 0.00210540 0.06975082 0.00907597 0.00526484 0.01195508 0.00132068 
0.14182693 0.04234233 0.00790360 0.00670582 0.00114418 0.00347251 0.00528064 0.00726604 0.02018992 0.00197324 0.00217308 0.07044671 0.00921665 0.00522027 0.01203477 0.00132057 
0.14086948 0.04255439 0.00792600 0.00675508 0.00112769 0.00347165 0.00525541 0.00725030 0.02046963 0.00198334 0.00224283 0.07113488 0.00935657 0.00517627 0.01211778 0.00132049 
0.13969910 0.04277458 0.00794072 0.00679913 0.00111161 0.00347020 0.00523092 0.00723814 0.02076008 0.00199439 0.00231446 0.07181141 0.00949518 0.00513297 0.01220380 0.00132045 
0.13832235 0.04300214 0.00794796 0.00683774 0.00109600 0.00346817 0.00520721 0.00722980 0.02105995 0.00200630 0.00238777 0.07247246 0.00963191 0.00509054 0.01229251 0.00132044 
0.13674656 0.04323626 0.00794797 0.00687069 0.00108092 0.00346561 0.00518431 0.00722553 0.02136782 0.00201896 0.00246256 0.07311428 0.00976617 0.00504915 0.01238360 0.00132048 
0.13497980 0.04347599 0.00794107 0.00689781 0.00106641 0.00346252 0.00516224 0.00722552 0.02168225 0.00203225 0.00253861 0.07373323 0.00989739 0.00500898 0.01247675 0.00132055 
0.13303079 0.04372033 0.00792758 0.00691892 0.00105252 0.00345895 0.00514103 0.00722993 0.02200171 0.00204604 0.00261569 0.07432582 0.01002500 0.00497022 0.01257166 0.00132065 
0.13090891 0.04396819 0.00790791 0.00693386 0.00103929 0.00345491 0.00512071 0.00723889 0.02232465 0.00206022 0.00269355 0.07488872 0.01014842 0.00493308 0.01266804 0.00132079 
0.12862411 0.04421839 0.00788248 0.00694251 0.00102676 0.00345042 0.00510132 0.00725248 0.02264945 0.00207466 0.00277196 0.07541877 0.01026710 0.00489777 0.01276561 0.00132097 
0.12618685 0.04446968 0.00785176 0.00694476 0.00101497 0.00344552 0.00508289 0.00727075 0.02297451 0.00208923 0.00285065 0.07591305 0.01038048 0.00486451 0.01286407 0.00132117 
0.12360808 0.04472074 0.00781624 0.00694052 0.00100395 0.00344023 0.00506545 0.00729370 0.02329818 0.00210380 0.00292936 0.07636883 0.01048803 0.00483353 0.01296318 0.00132141 
0.12089916 0.04497018 0.00777645 0.00692973 0.00099372 0.00343457 0.00504903 0.00732129 0.02361882 0.00211824 0.00300783 0.07678363 0.01058924 0.00480505 0.01306265 0.00132166 
0.11807178 0.04521657 0.00773297 0.00691235 0.00098431 0.00342856 0.00503369 0.00735344 0.02393479 0.00213242 0.00308579 0.07715524 0.01068360 0.00477930 0.01316226 0.00132194 
0.11513794 0.04545839 0.00768636 0.00688837 0.00097574 0.00342222 0.00501945 0.00739004 0.02424446 0.00214621 0.00316295 0.07748170 0.01077064 0.00475652 0.01326175 0.00132224 
0.11210985 0.04569411 0.00763725 0.00685780 0.00096802 0.00341557 0.00500635 0.00743092 0.02454624 0.00215949 0.00323905 0.07776135 0.01084993 0.00473693 0.01336090 0.00132255 
0.10899991 0.04592214 0.00758624 0.00682067 0.00096116 0.00340865 0.00499445 0.00747588 0.02483858 0.00217212 0.00331381 0.07799281 0.01092104 0.00472076 0.01345949 0.00132287 
0.10582058 0.04614085 0.00753397 0.00677704 0.00095517 0.00340146 0.00498380 0.00752467 0.02511997 0.00218399 0.00338696 0.07817499 0.01098359 0.00470823 0.01355730 0.00132319 
0.10258440 0.04634861 0.00748109 0.00672701 0.00095005 0.00339403 0.00497442 0.00757701 0.02538896 0.00219498 0.00345824 0.07830713 0.01103725 0.00469956 0.01365413 0.00132351 
0.09930385 0.04654376 0.00742824 0.00667067 0.00094580 0.00338638 0.00496639 0.00763258 0.02564418 0.00220498 0.00352736 0.07838876 0.01108170 0.00469494 0.01374979 0.00132382 
0.09599135 0.04672463 0.00737606 0.00660816 0.00094242 0.00337854 0.00495975 0.00769104 0.02588433 0.00221388 0.00359409 0.07841973 0.01111669 0.00469456 0.01384408 0.00132412 
0.09265915 0.04688955 0.00732521 0.00653964 0.00093990 0.00337053 0.00495455 0.00775199 0.02610821 0.00222158 0.00365816 0.07840020 0.01114201 0.00469861 0.01393683 0.00132441 
0.08931931 0.04703687 0.00727629 0.00646529 0.00093822 0.00336236 0.00495084 0.00781502 0.02631471 0.00222798 0.00371934 0.07833063 0.01115747 0.00470725 0.01402785 0.00132467 
0.08598362 0.04716496 0.00722994 0.00638530 0.00093738 0.00335408 0.00494868 0.00787968 0.02650284 0.00223301 0.00377739 0.07821179 0.01116296 0.00472061 0.01411698 0.00132489 
0.08266357 0.04727223 0.00718675 0.00629990 0.00093736 0.00334570 0.00494812 0.00794551 0.02667173 0.00223656 0.00383210 0.07804476 0.01115842 0.00473883 0.01420405 0.00132509 
0.07937025 0.04735710 0.00714728 0.00620934 0.00093812 0.00333725 0.00494922 0.00801201 0.02682064 0.00223859 0.00388326 0.07783090 0.01114382 0.00476200 0.01428890 0.00132524 
0.07611436 0.04741807 0.00711209 0.00611387 0.00093966 0.00332875 0.00495202 0.00807868 0.02694894 0.00223902 0.00393067 0.07757185 0.01111921 0.00479022 0.01437136 0.00132535 
0.07290612 0.04745370 0.00708169 0.00601378 0.00094194 0.00332025 0.00495658 0.00814500 0.02705616 0.00223779 0.00397417 0.07726953 0.01108468 0.00482354 0.01445129 0.00132540 
0.06975525 0.04746260 0.00705655 0.00590935 0.00094494 0.00331177 0.00496294 0.00821042 0.02714198 0.00223488 0.00401359 0.07692612 0.01104037 0.00486199 0.01452852 0.00132540 
0.06667092 0.04744348 0.00703711 0.00580090 0.00094863 0.00330335 0.00497115 0.00827441 0.02720621 0.00223023 0.00404878 0.07654402 0.01098650 0.00490559 0.01460291 0.00132534 
0.06366171 0.04739515 0.00702377 0.00568876 0.00095297 0.00329502 0.00498124 0.00833643 0.02724884 0.00222383 0.00407964 0.07612590 0.01092332 0.00495431 0.01467431 0.00132521 
0.06073560 0.04731651 0.00701686 0.00557326 0.00095792 0.00328682 0.00499327 0.00839592 0.02726999 0.00221566 0.00410604 0.07567460 0.01085116 0.00500811 0.01474258 0.00132502 
0.05789992 0.04720656 0.00701669 0.00545474 0.00096345 0.00327879 0.00500725 0.00845235 0.02726996 0.00220571 0.00412792 0.07519319 0.01077039 0.00506691 0.01480757 0.00132475 
0.05516134 0.04706445 0.00702351 0.00533355 0.00096953 0.00327098 0.00502322 0.00850519 0.02724920 0.00219400 0.00414521 0.07468488 0.01068143 0.00513061 0.01486915 0.00132441 
0.05252583 0.04688944 0.00703750 0.00521007 0.00097611 0.00326342 0.00504121 0.00855391 0.02720832 0.00218053 0.00415785 0.07415306 0.01058478 0.00519909 0.01492719 0.00132399 
0.04999867 0.04668094 0.00705879 0.00508466 0.00098316 0.00325617 0.00506122 0.00859802 0.02714810 0.00216534 0.00416585 0.07360125 0.01048096 0.00527219 0.01498155 0.00132350 
0.04758444 0.04643851 0.00708747 0.00495768 0.00099062 0.00324927 0.00508327 0.00863703 0.02706947 0.00214845 0.00416919 0.07303307 0.01037055 0.00534971 0.01503211 0.00132293 
0.04528698 0.04616186 0.00712355 0.00482951 0.00099847 0.00324278 0.00510737 0.00867047 0.02697351 0.00212991 0.00416791 0.07245224 0.01025419 0.00543145 0.01507877 0.00132227 
0.04310945 0.04585085 0.00716698 0.00470052 0.00100666 0.00323674 0.00513351 0.00869792 0.02686145 0.00210979 0.00416205 0.07186256 0.01013255 0.00551716 0.01512141 0.00132154 
0.04105426 0.04550554 0.00721766 0.00457107 0.00101514 0.00323121 0.00516168 0.00871898 0.02673467 0.00208814 0.00415167 0.07126785 0.01000635 0.00560657 0.01515994 0.00132073 
0.03912312 0.04512613 0.00727544 0.00444153 0.00102387 0.00322625 0.00519186 0.00873327 0.02659469 0.00206504 0.00413687 0.07067198 0.00987633 0.00569941 0.01519428 0.00131985 
0.03731706 0.04471303 0.00734007 0.00431227 0.00103281 0.00322191 0.00522403 0.00874047 0.02644314 0.00204058 0.00411777 0.07007880 0.00974328 0.00579535 0.01522434 0.00131890 
0.03563642 0.04426681 0.00741129 0.00418363 0.00104193 0.00321824 0.00525816 0.00874027 0.02628180 0.00201485 0.00409449 0.06949216 0.00960801 0.00589405 0.01525008 0.00131787 
0.03408087 0.04378824 0.00748875 0.00405596 0.00105117 0.00321532 0.00529421 0.00873244 0.02611254 0.00198795 0.00406718 0.06891585 0.00947137 0.00599517 0.01527145 0.00131678 
0.03264946 0.04327826 0.00757205 0.00392960 0.00106050 0.00321319 0.00533213 0.00871675 0.02593737 0.00195999 0.00403603 0.06835361 0.00933422 0.00609833 0.01528844 0.00131563 
0.03134062 0.04273801 0.00766075 0.00380486 0.00106988 0.00321192 0.00537186 0.00869306 0.02575834 0.00193108 0.00400121 0.06780910 0.00919743 0.00620315 0.01530104 0.00131442 
0.03015221 0.04216882 0.00775434 0.00368207 0.00107927 0.00321157 0.00541335 0.00866125 0.02557762 0.00190136 0.00396295 0.06728585 0.00906189 0.00630921 0.01530926 0.00131316 
0.02908153 0.04157219 0.00785229 0.00356151 0.00108864 0.00321219 0.00545652 0.00862124 0.02539743 0.00187095 0.00392147 0.06678729 0.00892849 0.00641610 0.01531316 0.00131186 
0.02812538 0.04094981 0.00795398 0.00344346 0.00109796 0.00321384 0.00550130 0.00857304 0.02522007 0.00183999 0.00387700 0.06631671 0.00879812 0.00652341 0.01531281 0.00131053 
0.02728009 0.04030354 0.00805879 0.00332821 0.00110718 0.00321658 0.00554761 0.00851667 0.02504786 0.00180862 0.00382980 0.06587724 0.00867167 0.00663071 0.01530831 0.00130916 
0.02654156 0.03963543 0.00816605 0.00321598 0.00111629 0.00322045 0.00559536 0.00845222 0.02488314 0.00177700 0.00378015 0.06547184 0.00855002 0.00673755 0.01529977 0.00130777 
0.02590531 0.03894766 0.00827505 0.00310703 0.00112525 0.00322552 0.00564445 0.00837983 0.02472831 0.00174526 0.00372832 0.06510328 0.00843404 0.00684352 0.01528738 0.00130637 
0.02536653 0.03824261 0.00838506 0.00300155 0.00113404 0.00323183 0.00569480 0.00829967 0.02458572 0.00171357 0.00367460 0.06477412 0.00832455 0.00694818 0.01527130 0.00130497 
0.02492009 0.03752278 0.00849533 0.00289974 0.00114264 0.00323943 0.00574630 0.00821200 0.02445773 0.00168209 0.00361928 0.06448674 0.00822237 0.00705110 0.01525179 0.00130357 
0.02456066 0.03679080 0.00860507 0.00280179 0.00115103 0.00324836 0.00579884 0.00811709 0.02434667 0.00165098 0.00356268 0.06424326 0.00812829 0.00715188 0.01522908 0.00130219 
0.02428268 0.03604945 0.00871349 0.00270784 0.00115920 0.00325865 0.00585233 0.00801528 0.02425483 0.00162039 0.00350510 0.06404561 0.00804305 0.00725009 0.01520350 0.00130083 
0.02408047 0.03530159 0.00881981 0.00261803 0.00116713 0.00327035 0.00590664 0.00790694 0.02418443 0.00159050 0.00344686 0.06389546 0.00796735 0.00734536 0.01517536 0.00129951 
0.02394826 0.03455022 0.00892321 0.00253247 0.00117482 0.00328347 0.00596167 0.00779248 0.02413763 0.00156146 0.00338825 0.06379424 0.00790185 0.00743730 0.01514505 0.00129822 
0.02388020 0.03379838 0.00902290 0.00245127 0.00118225 0.00329804 0.00601731 0.00767238 0.02411649 0.00153345 0.00332961 0.06374314 0.00784715 0.00752556 0.01511296 0.00129699 
0.02387051 0.03304921 0.00911809 0.00237450 0.00118944 0.00331408 0.00607344 0.00754712 0.02412296 0.00150661 0.00327124 0.06374312 0.00780380 0.00760980 0.01507956 0.00129582 
0.02391340 0.03230588 0.00920799 0.00230221 0.00119637 0.00333160 0.00612996 0.00741724 0.02415891 0.00148112 0.00321344 0.06379487 0.00777230 0.00768971 0.01504533 0.00129472 
0.02400323 0.03157160 0.00929185 0.00223445 0.00120306 0.00335059 0.00618677 0.00728331 0.02422605 0.00145712 0.00315652 0.06389884 0.00775306 0.00776501 0.01501078 0.00129369 
0.02413448 0.03084960 0.00936893 0.00217124 0.00120953 0.00337107 0.00624374 0.00714591 0.02432596 0.00143478 0.00310077 0.06405524 0.00774646 0.00783543 0.01497646 0.00129276 
0.02430184 0.03014312 0.00943852 0.00211257 0.00121577 0.00339301 0.00630079 0.00700567 0.02446006 0.00141424 0.00304648 0.06426403 0.00775277 0.00790075 0.01494298 0.00129192 
0.02450022 0.02945533 0.00949994 0.00205843 0.00122182 0.00341640 0.00635780 0.00686322 0.02462962 0.00139565 0.00299391 0.06452497 0.00777224 0.00796079 0.01491093 0.00129118 
0.02472482 0.02878942 0.00955256 0.00200879 0.00122769 0.00344121 0.00641469 0.00671922 0.02483572 0.00137915 0.00294333 0.06483754 0.00780500 0.00801536 0.01488098 0.00129054 
0.02497114 0.02814847 0.00959578 0.00196360 0.00123342 0.00346741 0.00647137 0.00657434 0.02507926 0.00136488 0.00289499 0.06520105 0.00785112 0.00806436 0.01485380 0.00129002 
0.02523503 0.02753552 0.00962906 0.00192280 0.00123902 0.00349496 0.00652774 0.00642924 0.02536095 0.00135295 0.00284911 0.06561456 0.00791061 0.00810770 0.01483008 0.00128963 
0.02551272 0.02695347 0.00965189 0.00188631 0.00124453 0.00352381 0.00658373 0.00628463 0.02568130 0.00134349 0.00280592 0.06607696 0.00798339 0.00814531 0.01481054 0.00128935 
0.02580083 0.02640513 0.00966385 0.00185403 0.00125000 0.00355389 0.00663926 0.00614117 0.02604061 0.00133662 0.00276561 0.06658692 0.00806930 0.00817718 0.01479590 0.00128920 
0.02609642 0.02589316 0.00966454 0.00182588 0.00125545 0.00358515 0.00669427 0.00599954 0.02643897 0.00133243 0.00272837 0.06714297 0.00816812 0.00820334 0.01478691 0.00128919 
0.02639701 0.02542008 0.00965365 0.00180173 0.00126095 0.00361751 0.00674869 0.00586041 0.02687625 0.00133102 0.00269434 0.06774344 0.00827953 0.00822385 0.01478433 0.00128930 
0.02670057 0.02498821 0.00963092 0.00178147 0.00126652 0.00365088 0.00680246 0.00572445 0.02735211 0.00133248 0.00266366 0.06838651 0.00840315 0.00823880 0.01478890 0.00128955 
0.02700555 0.02459971 0.00959616 0.00176496 0.00127222 0.00368518 0.00685555 0.00559228 0.02786597 0.00133688 0.00263646 0.06907024 0.00853855 0.00824834 0.01480136 0.00128993 
0.02731090 0.02425650 0.00954925 0.00175206 0.00127810 0.00372031 0.00690790 0.00546452 0.02841704 0.00134428 0.00261283 0.06979255 0.00868519 0.00825262 0.01482247 0.00129045 
0.02761605 0.02396032 0.00949014 0.00174262 0.00128422 0.00375617 0.00695948 0.00534178 0.02900432 0.00135473 0.00259283 0.07055125 0.00884249 0.00825186 0.01485295 0.00129109 
0.02792093 0.02371264 0.00941885 0.00173650 0.00129063 0.00379265 0.00701027 0.00522461 0.02962656 0.00136828 0.00257652 0.07134404 0.00900980 0.00824630 0.01489350 0.00129187 
0.02822595 0.02351470 0.00933547 0.00173354 0.00129739 0.00382963 0.00706023 0.00511354 0.03028232 0.00138496 0.00256392 0.07216856 0.00918641 0.00823621 0.01494480 0.00129277 
0.02853201 0.02336747 0.00924018 0.00173357 0.00130455 0.00386699 0.00710936 0.00500907 0.03096994 0.00140479 0.00255503 0.07302237 0.00937155 0.00822188 0.01500752 0.00129378 
0.02884050 0.02327168 0.00913320 0.00173645 0.00131217 0.00390460 0.00715764 0.00491165 0.03168755 0.00142776 0.00254983 0.07390295 0.00956440 0.00820366 0.01508226 0.00129492 
0.02915322 0.02322775 0.00901485 0.00174199 0.00132031 0.00394233 0.00720506 0.00482170 0.03243308 0.00145388 0.00254827 0.07480777 0.00976411 0.00818189 0.01516959 0.00129616 
0.02947244 0.02323584 0.00888552 0.00175005 0.00132902 0.00398005 0.00725162 0.00473959 0.03320429 0.00148312 0.00255028 0.07573425 0.00996976 0.00815697 0.01527003 0.00129750 
0.02980083 0.02329582 0.00874565 0.00176044 0.00133837 0.00401761 0.00729734 0.00466564 0.03399873 0.00151546 0.00255577 0.07667979 0.01018042 0.00812927 0.01538406 0.00129893 
0.03014145 0.02340727 0.00859576 0.00177303 0.00134841 0.00405489 0.00734221 0.00460012 0.03481379 0.00155084 0.00256464 0.07764178 0.01039511 0.00809924 0.01551207 0.00130044 
0.03049769 0.02356947 0.00843644 0.00178763 0.00135919 0.00409172 0.00738625 0.00454326 0.03564671 0.00158920 0.00257673 0.07861764 0.01061284 0.00806729 0.01565441 0.00130203 
0.03087330 0.02378142 0.00826833 0.00180409 0.00137076 0.00412798 0.00742947 0.00449522 0.03649457 0.00163048 0.00259191 0.07960476 0.01083259 0.00803387 0.01581136 0.00130368 
0.03127227 0.02404184 0.00809216 0.00182225 0.00138318 0.00416352 0.00747190 0.00445611 0.03735434 0.00167460 0.00260998 0.08060059 0.01105333 0.00799944 0.01598309 0.00130538 
0.03169887 0.02434916 0.00790868 0.00184197 0.00139647 0.00419818 0.00751354 0.00442601 0.03822286 0.00172145 0.00263077 0.08160260 0.01127402 0.00796445 0.01616974 0.00130712 
0.03215755 0.02470154 0.00771871 0.00186310 0.00141069 0.00423184 0.00755443 0.00440491 0.03909686 0.00177093 0.00265407 0.08260829 0.01149364 0.00792936 0.01637132 0.00130889 
0.03265293 0.02509686 0.00752313 0.00188548 0.00142588 0.00426436 0.00759457 0.00439277 0.03997300 0.00182292 0.00267964 0.08361523 0.01171114 0.00789464 0.01658779 0.00131067 
0.03318971 0.02553276 0.00732285 0.00190899 0.00144205 0.00429558 0.00763401 0.00438949 0.04084787 0.00187728 0.00270725 0.08462101 0.01192552 0.00786073 0.01681898 0.00131246 
0.03377270 0.02600663 0.00711884 0.00193348 0.00145925 0.00432539 0.00767275 0.00439492 0.04171802 0.00193388 0.00273664 0.08562330 0.01213577 0.00782809 0.01706467 0.00131423 
0.03440669 0.02651563 0.00691208 0.00195883 0.00147748 0.00435365 0.00771083 0.00440884 0.04257994 0.00199256 0.00276756 0.08661983 0.01234091 0.00779715 0.01732451 0.00131598 
0.03509645 0.02705670 0.00670360 0.00198492 0.00149677 0.00438025 0.00774827 0.00443101 0.04343014 0.00205315 0.00279973 0.08760840 0.01254000 0.00776833 0.01759806 0.00131770 
0.03584666 0.02762659 0.00649447 0.00201162 0.00151711 0.00440505 0.00778507 0.00446111 0.04426512 0.00211549 0.00283288 0.08858686 0.01273213 0.00774203 0.01788479 0.00131936 
0.03666185 0.02822186 0.00628574 0.00203883 0.00153852 0.00442795 0.00782128 0.00449881 0.04508142 0.00217938 0.00286671 0.08955314 0.01291641 0.00771864 0.01818408 0.00132096 
0.03754640 0.02883893 0.00607852 0.00206643 0.00156098 0.00444885 0.00785690 0.00454370 0.04587562 0.00224465 0.00290093 0.09050525 0.01309203 0.00769851 0.01849519 0.00132249 
0.03850441 0.02947407 0.00587391 0.00209433 0.00158449 0.00446765 0.00789195 0.00459535 0.04664435 0.00231108 0.00293526 0.09144126 0.01325821 0.00768199 0.01881731 0.00132392 
0.03953972 0.03012342 0.00567301 0.00212243 0.00160902 0.00448427 0.00792646 0.00465329 0.04738436 0.00237849 0.00296941 0.09235931 0.01341421 0.00766938 0.01914950 0.00132525 
0.04065586 0.03078305 0.00547694 0.00215064 0.00163453 0.00449861 0.00796042 0.00471702 0.04809246 0.00244665 0.00300307 0.09325762 0.01355939 0.00766095 0.01949077 0.00132647 
0.04185593 0.03144896 0.00528679 0.00217886 0.00166101 0.00451061 0.00799385 0.00478600 0.04876562 0.00251535 0.00303597 0.09413448 0.01369312 0.00765696 0.01984002 0.00132756 
0.04314266 0.03211709 0.00510366 0.00220702 0.00168840 0.00452022 0.00802677 0.00485968 0.04940094 0.00258437 0.00306782 0.09498822 0.01381486 0.00765760 0.02019607 0.00132852 
0.04451829 0.03278337 0.00492861 0.00223504 0.00171664 0.00452737 0.00805918 0.00493747 0.04999565 0.00265349 0.00309834 0.09581728 0.01392416 0.00766307 0.02055767 0.00132933 
0.04598459 0.03344376 0.00476270 0.00226285 0.00174569 0.00453202 0.00809108 0.00501878 0.05054720 0.00272248 0.00312728 0.09662013 0.01402059 0.00767350 0.02092347 0.00132998 
0.04754276 0.03409422 0.00460695 0.00229037 0.00177547 0.00453416 0.00812249 0.00510300 0.05105319 0.00279112 0.00315437 0.09739531 0.01410382 0.00768898 0.02129209 0.00133047 
0.04919347 0.03473080 0.00446235 0.00231754 0.00180592 0.00453375 0.00815340 0.00518951 0.05151144 0.00285919 0.00317938 0.09814143 0.01417359 0.00770960 0.02166207 0.00133079 
0.05093679 0.03534961 0.00432984 0.00234429 0.00183694 0.00453078 0.00818383 0.00527769 0.05191999 0.00292645 0.00320206 0.09885713 0.01422972 0.00773536 0.02203190 0.00133093 
0.05277217 0.03594689 0.00421034 0.00237057 0.00186846 0.00452525 0.00821376 0.00536691 0.05227709 0.00299268 0.00322222 0.09954113 0.01427208 0.00776627 0.02240001 0.00133088 
0.05469842 0.03651902 0.00410470 0.00239630 0.00190037 0.00451717 0.00824322 0.00545658 0.05258125 0.00305767 0.00323964 0.10019219 0.01430062 0.00780227 0.02276484 0.00133064 
0.05671371 0.03706253 0.00401373 0.00242145 0.00193259 0.00450657 0.00827220 0.00554607 0.05283123 0.00312119 0.00325416 0.10080911 0.01431537 0.00784328 0.02312474 0.00133021 
0.05881556 0.03757415 0.00393816 0.00244595 0.00196500 0.00449347 0.00830070 0.00563482 0.05302602 0.00318304 0.00326560 0.10139076 0.01431644 0.00788918 0.02347810 0.00132958 
0.06100081 0.03805082 0.00387869 0.00246975 0.00199751 0.00447791 0.00832874 0.00572225 0.05316490 0.00324302 0.00327384 0.10193605 0.01430398 0.00793981 0.02382327 0.00132875 
0.06326563 0.03848969 0.00383593 0.00249281 0.00202998 0.00445993 0.00835631 0.00580783 0.05324740 0.00330092 0.00327874 0.10244393 0.01427823 0.00799497 0.02415860 0.00132772 
0.06560555 0.03888820 0.00381043 0.00251506 0.00206232 0.00443960 0.00838344 0.00589103 0.05327333 0.00335656 0.00328021 0.10291339 0.01423948 0.00805444 0.02448246 0.00132649 
0.06801543 0.03924403 0.00380267 0.00253647 0.00209440 0.00441699 0.00841014 0.00597139 0.05324276 0.00340975 0.00327819 0.10334349 0.01418809 0.00811798 0.02479324 0.00132506 
0.07048949 0.03955516 0.00381305 0.00255699 0.00212610 0.00439215 0.00843641 0.00604846 0.05315605 0.00346033 0.00327260 0.10373331 0.01412448 0.00818529 0.02508937 0.00132344 
0.07302133 0.03981990 0.00384189 0.00257657 0.00215731 0.00436519 0.00846229 0.00612182 0.05301380 0.00350814 0.00326344 0.10408201 0.01404912 0.00825606 0.02536931 0.00132162 
0.07560396 0.04003684 0.00388944 0.00259517 0.00218789 0.00433617 0.00848779 0.00619114 0.05281690 0.00355302 0.00325068 0.10438878 0.01396253 0.00832998 0.02563158 0.00131962 
0.07822982 0.04020494 0.00395584 0.00261275 0.00221774 0.00430521 0.00851294 0.00625608 0.05256648 0.00359485 0.00323436 0.10465288 0.01386527 0.00840667 0.02587475 0.00131743 
0.08089081 0.04032347 0.00404119 0.00262927 0.00224673 0.00427239 0.00853779 0.00631639 0.05226393 0.00363350 0.00321450 0.10487361 0.01375797 0.00848578 0.02609748 0.00131507 
0.08357832 0.04039210 0.00414547 0.00264469 0.00227474 0.00423784 0.00856236 0.00637184 0.05191088 0.00366886 0.00319119 0.10505036 0.01364126 0.00856692 0.02629849 0.00131254 
0.08628329 0.04041081 0.00426858 0.00265898 0.00230167 0.00420165 0.00858670 0.00642228 0.05150917 0.00370084 0.00316450 0.10518256 0.01351583 0.00864968 0.02647660 0.00130986 
0.08899626 0.04037998 0.00441035 0.00267210 0.00232740 0.00416394 0.00861085 0.00646760 0.05106090 0.00372935 0.00313454 0.10526974 0.01338239 0.00873365 0.02663074 0.00130702 
0.09170737 0.04030034 0.00457050 0.00268402 0.00235184 0.00412483 0.00863488 0.00650773 0.05056833 0.00375434 0.00310145 0.10531150 0.01324168 0.00881844 0.02675993 0.00130405 
0.09440649 0.04017299 0.00474870 0.00269471 0.00237487 0.00408444 0.00865884 0.00654268 0.05003394 0.00377575 0.00306538 0.10530752 0.01309443 0.00890361 0.02686330 0.00130095 
0.09708318 0.03999939 0.00494449 0.00270415 0.00239641 0.00404290 0.00868280 0.00657250 0.04946036 0.00379355 0.00302650 0.10525758 0.01294143 0.00898875 0.02694012 0.00129774 
0.09972685 0.03978136 0.00515737 0.00271232 0.00241638 0.00400034 0.00870682 0.00659729 0.04885041 0.00380771 0.00298500 0.10516156 0.01278344 0.00907345 0.02698977 0.00129442 
0.10232672 0.03952107 0.00538673 0.00271920 0.00243470 0.00395687 0.00873098 0.00661721 0.04820699 0.00381825 0.00294110 0.10501946 0.01262124 0.00915731 0.02701177 0.00129102 
0.10487197 0.03922105 0.00563189 0.00272479 0.00245129 0.00391264 0.00875536 0.00663248 0.04753318 0.00382516 0.00289500 0.10483138 0.01245561 0.00923991 0.02700576 0.00128754 
0.10735174 0.03888415 0.00589210 0.00272907 0.00246611 0.00386776 0.00878005 0.00664335 0.04683212 0.00382848 0.00284697 0.10459755 0.01228732 0.00932088 0.02697154 0.00128401 
0.10975521 0.03851351 0.00616652 0.00273205 0.00247909 0.00382236 0.00880513 0.00665014 0.04610702 0.00382825 0.00279723 0.10431833 0.01211713 0.00939985 0.02690903 0.00128043 
0.11207168 0.03811263 0.00645426 0.00273374 0.00249019 0.00377658 0.00883068 0.00665319 0.04536118 0.00382452 0.00274606 0.10399422 0.01194579 0.00947646 0.02681833 0.00127683 
0.11429064 0.03768524 0.00675436 0.00273414 0.00249940 0.00373053 0.00885682 0.00665291 0.04459790 0.00381737 0.00269373 0.10362587 0.01177403 0.00955038 0.02669963 0.00127321 
0.11640178 0.03723536 0.00706577 0.00273328 0.00250668 0.00368434 0.00888362 0.00664972 0.04382052 0.00380689 0.00264052 0.10321408 0.01160256 0.00962130 0.02655331 0.00126960 
0.11839513 0.03676726 0.00738741 0.00273118 0.00251203 0.00363814 0.00891118 0.00664409 0.04303235 0.00379317 0.00258672 0.10275980 0.01143205 0.00968894 0.02637988 0.00126601 
0.12026107 0.03628542 0.00771815 0.00272789 0.00251545 0.00359204 0.00893961 0.00663652 0.04223669 0.00377633 0.00253261 0.10226416 0.01126316 0.00975302 0.02617997 0.00126246 
0.12199039 0.03579451 0.00805679 0.00272345 0.00251694 0.00354616 0.00896900 0.00662755 0.04143678 0.00375649 0.00247848 0.10172843 0.01109651 0.00981332 0.02595438 0.00125897 
0.12357438 0.03529938 0.00840209 0.00271791 0.00251654 0.00350062 0.00899945 0.00661770 0.04063578 0.00373378 0.00242464 0.10115409 0.01093269 0.00986964 0.02570402 0.00125555 
0.12500488 0.03480502 0.00875279 0.00271134 0.00251428 0.00345552 0.00903104 0.00660756 0.03983677 0.00370836 0.00237137 0.10054277 0.01077224 0.00992179 0.02542994 0.00125221 
0.12627429 0.03431653 0.00910758 0.00270380 0.00251020 0.00341098 0.00906388 0.00659770 0.03904274 0.00368036 0.00231896 0.09989628 0.01061567 0.00996964 0.02513330 0.00124898 
0.12737568 0.03383910 0.00946513 0.00269539 0.00250435 0.00336710 0.00909804 0.00658870 0.03825652 0.00364997 0.00226769 0.09921661 0.01046345 0.01001307 0.02481539 0.00124588 
0.12830280 0.03337796 0.00982409 0.00268620 0.00249680 0.00332397 0.00913361 0.00658114 0.03748082 0.00361734 0.00221783 0.09850591 0.01031602 0.01005200 0.02447760 0.00124291 
0.12905014 0.03293839 0.01018309 0.00267632 0.00248761 0.00328170 0.00917067 0.00657562 0.03671818 0.00358265 0.00216965 0.09776653 0.01017375 0.01008639 0.02412143 0.00124009 
0.12961294 0.03252563 0.01054076 0.00266587 0.00247688 0.00324038 0.00920929 0.00657271 0.03597098 0.00354610 0.00212341 0.09700097 0.01003699 0.01011620 0.02374845 0.00123744 
0.12998727 0.03214491 0.01089573 0.00265498 0.00246469 0.00320010 0.00924953 0.00657297 0.03524140 0.00350785 0.00207935 0.09621190 0.00990602 0.01014146 0.02336034 0.00123498 
0.13017001 0.03180136 0.01124661 0.00264378 0.00245113 0.00316094 0.00929144 0.00657694 0.03453144 0.00346811 0.00203770 0.09540216 0.00978111 0.01016221 0.02295883 0.00123271 
0.13015892 0.03150002 0.01159206 0.00263240 0.00243631 0.00312299 0.00933507 0.00658515 0.03384288 0.00342705 0.00199867 0.09457471 0.00966247 0.01017852 0.02254572 0.00123065 
0.12995261 0.03124581 0.01193072 0.00262100 0.00242034 0.00308632 0.00938045 0.00659808 0.03317730 0.00338489 0.00196245 0.09373267 0.00955024 0.01019048 0.02212286 0.00122881 
0.12955062 0.03104346 0.01226128 0.00260973 0.00240333 0.00305101 0.00942761 0.00661619 0.03253605 0.00334180 0.00192924 0.09287931 0.00944457 0.01019822 0.02169213 0.00122721 
0.12895336 0.03089751 0.01258245 0.00259878 0.00238539 0.00301713 0.00947656 0.00663992 0.03192026 0.00329798 0.00189918 0.09201797 0.00934553 0.01020190 0.02125544 0.00122585 
0.12816216 0.03081229 0.01289297 0.00258830 0.00236666 0.00298474 0.00952731 0.00666963 0.03133083 0.00325362 0.00187242 0.09115214 0.00925316 0.01020168 0.02081473 0.00122475 
0.12717925 0.03079187 0.01319163 0.00257848 0.00234725 0.00295391 0.00957983 0.00670566 0.03076845 0.00320890 0.00184907 0.09028537 0.00916746 0.01019775 0.02037192 0.00122391 
0.12600774 0.03084003 0.01347727 0.00256952 0.00232728 0.00292470 0.00963410 0.00674830 0.03023355 0.00316401 0.00182924 0.08942129 0.00908840 0.01019032 0.01992893 0.00122334 
0.12465166 0.03096025 0.01374877 0.00256159 0.00230689 0.00289717 0.00969009 0.00679778 0.02972636 0.00311912 0.00181300 0.08856360 0.00901591 0.01017963 0.01948767 0.00122306 
0.12311588 0.03115569 0.01400507 0.00255491 0.00228619 0.00287136 0.00974774 0.00685429 0.02924688 0.00307441 0.00180039 0.08771601 0.00894989 0.01016590 0.01905001 0.00122306 
0.12140611 0.03142915 0.01424519 0.00254966 0.00226531 0.00284734 0.00980698 0.00691794 0.02879490 0.00303005 0.00179147 0.08688227 0.00889019 0.01014940 0.01861777 0.00122335 
0.11952891 0.03178306 0.01446819 0.00254606 0.00224437 0.00282515 0.00986773 0.00698880 0.02837001 0.00298618 0.00178622 0.08606613 0.00883667 0.01013038 0.01819273 0.00122393 
0.11749158 0.03221944 0.01467323 0.00254430 0.00222349 0.00280483 0.00992989 0.00706688 0.02797158 0.00294297 0.00178463 0.08527131 0.00878913 0.01010910 0.01777658 0.00122481 
0.11530221 0.03273994 0.01485953 0.00254458 0.00220277 0.00278643 0.00999335 0.00715211 0.02759882 0.00290056 0.00178668 0.08450149 0.00874736 0.01008583 0.01737097 0.00122599 
0.11296957 0.03334576 0.01502639 0.00254712 0.00218233 0.00276999 0.01005798 0.00724439 0.02725073 0.00285908 0.00179229 0.08376028 0.00871113 0.01006085 0.01697744 0.00122746 
0.11050311 0.03403766 0.01517318 0.00255209 0.00216226 0.00275554 0.01012364 0.00734352 0.02692617 0.00281865 0.00180138 0.08305123 0.00868019 0.01003442 0.01659744 0.00122923 
0.10791288 0.03481599 0.01529939 0.00255970 0.00214267 0.00274312 0.01019017 0.00744928 0.02662385 0.00277941 0.00181386 0.08237775 0.00865428 0.01000680 0.01623233 0.00123130 
0.10520949 0.03568061 0.01540457 0.00257014 0.00212364 0.00273276 0.01025742 0.00756135 0.02634233 0.00274144 0.00182959 0.08174316 0.00863311 0.00997826 0.01588336 0.00123365 
0.10240408 0.03663095 0.01548836 0.00258357 0.00210525 0.00272449 0.01032518 0.00767939 0.02608007 0.00270486 0.00184845 0.08115061 0.00861640 0.00994903 0.01555165 0.00123629 
0.09950822 0.03766597 0.01555049 0.00260018 0.00208757 0.00271834 0.01039327 0.00780298 0.02583541 0.00266975 0.00187026 0.08060310 0.00860384 0.00991937 0.01523821 0.00123921 
0.09653386 0.03878417 0.01559081 0.00262013 0.00207068 0.00271434 0.01046149 0.00793164 0.02560661 0.00263620 0.00189485 0.08010343 0.00859514 0.00988949 0.01494394 0.00124239 
0.09349329 0.03998360 0.01560921 0.00264356 0.00205461 0.00271251 0.01052961 0.00806487 0.02539188 0.00260427 0.00192203 0.07965421 0.00859000 0.00985961 0.01466958 0.00124584 
0.09039906 0.04126187 0.01560573 0.00267061 0.00203942 0.00271286 0.01059740 0.00820209 0.02518934 0.00257403 0.00195159 0.07925783 0.00858809 0.00982993 0.01441577 0.00124954 
0.08726392 0.04261612 0.01558046 0.00270140 0.00202514 0.00271542 0.01066463 0.00834270 0.02499711 0.00254553 0.00198331 0.07891644 0.00858913 0.00980061 0.01418300 0.00125348 
0.08410075 0.04404309 0.01553360 0.00273604 0.00201181 0.00272019 0.01073106 0.00848604 0.02481329 0.00251881 0.00201696 0.07863195 0.00859280 0.00977183 0.01397163 0.00125764 
0.08092247 0.04553907 0.01546543 0.00277463 0.00199943 0.00272720 0.01079643 0.00863143 0.02463598 0.00249392 0.00205230 0.07840599 0.00859881 0.00974372 0.01378188 0.00126202 
0.07774204 0.04709998 0.01537634 0.00281722 0.00198801 0.00273645 0.01086048 0.00877815 0.02446329 0.00247089 0.00208907 0.07823995 0.00860687 0.00971640 0.01361384 0.00126659 
0.07457232 0.04872132 0.01526678 0.00286389 0.00197755 0.00274795 0.01092295 0.00892547 0.02429340 0.00244973 0.00212703 0.07813491 0.00861670 0.00968998 0.01346748 0.00127135 
0.07142604 0.05039825 0.01513731 0.00291465 0.00196804 0.00276170 0.01098359 0.00907262 0.02412451 0.00243048 0.00216591 0.07809166 0.00862803 0.00966453 0.01334264 0.00127626 
0.06831575 0.05212557 0.01498855 0.00296952 0.00195947 0.00277770 0.01104211 0.00921883 0.02395492 0.00241313 0.00220545 0.07811072 0.00864060 0.00964011 0.01323901 0.00128133 
0.06525371 0.05389777 0.01482121 0.00302851 0.00195179 0.00279594 0.01109826 0.00936332 0.02378299 0.00239769 0.00224539 0.07819229 0.00865417 0.00961676 0.01315621 0.00128652 
0.06225189 0.05570903 0.01463608 0.00309156 0.00194498 0.00281643 0.01115176 0.00950530 0.02360721 0.00238418 0.00228546 0.07833627 0.00866850 0.00959450 0.01309370 0.00129182 
0.05932185 0.05755328 0.01443402 0.00315864 0.00193898 0.00283915 0.01120237 0.00964399 0.02342617 0.00237258 0.00232540 0.07854227 0.00868338 0.00957332 0.01305085 0.00129720 
0.05647473 0.05942420 0.01421596 0.00322967 0.00193376 0.00286408 0.01124982 0.00977861 0.02323859 0.00236289 0.00236496 0.07880960 0.00869860 0.00955320 0.01302694 0.00130266 
0.05372117 0.06131526 0.01398287 0.00330454 0.00192925 0.00289121 0.01129387 0.00990840 0.02304332 0.00235510 0.00240388 0.07913728 0.00871399 0.00953410 0.01302114 0.00130815 
0.05107127 0.06321976 0.01373583 0.00338314 0.00192539 0.00292051 0.01133426 0.01003262 0.02283939 0.00234921 0.00244192 0.07952402 0.00872938 0.00951596 0.01303255 0.00131367 
0.04853454 0.06513086 0.01347593 0.00346532 0.00192211 0.00295196 0.01137078 0.01015057 0.02262595 0.00234521 0.00247885 0.07996827 0.00874461 0.00949870 0.01306019 0.00131918 
0.04611987 0.06704158 0.01320434 0.00355091 0.00191934 0.00298553 0.01140320 0.01026156 0.02240234 0.00234307 0.00251445 0.08046822 0.00875955 0.00948225 0.01310299 0.00132467 
0.04383545 0.06894490 0.01292226 0.00363972 0.00191701 0.00302119 0.01143131 0.01036494 0.02216808 0.00234279 0.00254849 0.08102177 0.00877408 0.00946649 0.01315987 0.00133012 
0.04168878 0.07083374 0.01263094 0.00373154 0.00191505 0.00305888 0.01145492 0.01046012 0.02192284 0.00234436 0.00258079 0.08162661 0.00878811 0.00945132 0.01322964 0.00133549 
0.03968662 0.07270100 0.01233167 0.00382614 0.00191336 0.00309857 0.01147386 0.01054654 0.02166649 0.00234776 0.00261115 0.08228017 0.00880156 0.00943660 0.01331113 0.00134077 
0.03783494 0.07453964 0.01202575 0.00392325 0.00191188 0.00314021 0.01148796 0.01062369 0.02139909 0.00235299 0.00263942 0.08297969 0.00881435 0.00942220 0.01340310 0.00134594 
0.03613894 0.07634266 0.01171455 0.00402261 0.00191053 0.00318375 0.01149709 0.01069113 0.02112085 0.00236003 0.00266542 0.08372219 0.00882645 0.00940799 0.01350432 0.00135097 
0.03460300 0.07810315 0.01139941 0.00412391 0.00190923 0.00322912 0.01150113 0.01074846 0.02083219 0.00236888 0.00268904 0.08450454 0.00883781 0.00939382 0.01361352 0.00135584 
0.03323068 0.07981435 0.01108172 0.00422686 0.00190791 0.00327627 0.01149998 0.01079535 0.02053372 0.00237953 0.00271015 0.08532342 0.00884841 0.00937955 0.01372944 0.00136053 
0.03202469 0.08146965 0.01076287 0.00433112 0.00190649 0.00332512 0.01149357 0.01083155 0.02022618 0.00239198 0.00272865 0.08617541 0.00885825 0.00936501 0.01385086 0.00136501 
0.03098691 0.08306265 0.01044427 0.00443636 0.00190490 0.00337561 0.01148185 0.01085686 0.01991053 0.00240622 0.00274446 0.08705693 0.00886733 0.00935007 0.01397654 0.00136927 
0.03011837 0.08458716 0.01012730 0.00454221 0.00190309 0.00342766 0.01146479 0.01087115 0.01958786 0.00242225 0.00275751 0.08796433 0.00887569 0.00933457 0.01410527 0.00137329 
0.02941927 0.08603727 0.00981336 0.00464832 0.00190099 0.00348119 0.01144239 0.01087436 0.01925943 0.00244008 0.00276777 0.08889389 0.00888333 0.00931837 0.01423590 0.00137705 
0.02888899 0.08740735 0.00950385 0.00475431 0.00189855 0.00353611 0.01141468 0.01086650 0.01892664 0.00245970 0.00277522 0.08984182 0.00889032 0.00930133 0.01436731 0.00138054 
0.02852607 0.08869207 0.00920012 0.00485980 0.00189572 0.00359233 0.01138172 0.01084767 0.01859102 0.00248112 0.00277984 0.09080432 0.00889669 0.00928331 0.01449841 0.00138373 
0.02832825 0.08988647 0.00890353 0.00496440 0.00189246 0.00364977 0.01134357 0.01081801 0.01825425 0.00250435 0.00278165 0.09177755 0.00890250 0.00926420 0.01462821 0.00138661 
0.02829250 0.09098593 0.00861542 0.00506773 0.00188875 0.00370832 0.01130036 0.01077775 0.01791810 0.00252939 0.00278069 0.09275772 0.00890783 0.00924386 0.01475574 0.00138917 
0.02841505 0.09198624 0.00833707 0.00516939 0.00188454 0.00376788 0.01125221 0.01072718 0.01758443 0.00255624 0.00277701 0.09374105 0.00891273 0.00922220 0.01488013 0.00139139 
0.02869136 0.09288357 0.00806976 0.00526900 0.00187984 0.00382836 0.01119929 0.01066666 0.01725521 0.00258492 0.00277067 0.09472381 0.00891728 0.00919911 0.01500057 0.00139328 
0.02911623 0.09367454 0.00781472 0.00536616 0.00187462 0.00388965 0.01114179 0.01059662 0.01693246 0.00261543 0.00276176 0.09570236 0.00892157 0.00917450 0.01511631 0.00139481 
0.02968379 0.09435621 0.00757314 0.00546051 0.00186889 0.00395163 0.01107991 0.01051753 0.01661826 0.00264777 0.00275039 0.09667313 0.00892567 0.00914831 0.01522671 0.00139598 
0.03038753 0.09492607 0.00734615 0.00555166 0.00186266 0.00401420 0.01101390 0.01042994 0.01631473 0.00268194 0.00273666 0.09763268 0.00892966 0.00912047 0.01533120 0.00139678 
0.03122039 0.09538211 0.00713486 0.00563925 0.00185594 0.00407724 0.01094403 0.01033444 0.01602400 0.00271794 0.00272071 0.09857767 0.00893362 0.00909093 0.01542928 0.00139721 
0.03217475 0.09572278 0.00694030 0.00572293 0.00184876 0.00414064 0.01087058 0.01023167 0.01574823 0.00275578 0.00270269 0.09950492 0.00893765 0.00905964 0.01552057 0.00139728 
0.03324250 0.09594700 0.00676345 0.00580238 0.00184115 0.00420429 0.01079386 0.01012233 0.01548954 0.00279544 0.00268274 0.10041138 0.00894180 0.00902659 0.01560473 0.00139697 
0.03441509 0.09605418 0.00660524 0.00587725 0.00183316 0.00426806 0.01071420 0.01000713 0.01525004 0.00283692 0.00266104 0.10129417 0.00894617 0.00899177 0.01568153 0.00139629 
0.03568357 0.09604424 0.00646653 0.00594726 0.00182484 0.00433184 0.01063195 0.00988684 0.01503180 0.00288019 0.00263775 0.10215059 0.00895083 0.00895517 0.01575083 0.00139525 
0.03703866 0.09591756 0.00634811 0.00601213 0.00181624 0.00439550 0.01054748 0.00976224 0.01483680 0.00292523 0.00261307 0.10297813 0.00895583 0.00891680 0.01581256 0.00139384 
0.03847077 0.09567500 0.00625070 0.00607158 0.00180744 0.00445894 0.01046116 0.00963416 0.01466696 0.00297202 0.00258717 0.10377444 0.00896125 0.00887669 0.01586672 0.00139209 
0.03997010 0.09531791 0.00617494 0.00612539 0.00179849 0.00452203 0.01037340 0.00950341 0.01452413 0.00302052 0.00256026 0.10453740 0.00896715 0.00883488 0.01591341 0.00138999 
0.04152663 0.09484810 0.00612142 0.00617335 0.00178949 0.00458465 0.01028460 0.00937083 0.01441000 0.00307068 0.00253253 0.10526507 0.00897357 0.00879141 0.01595277 0.00138755 
0.04313023 0.09426783 0.00609063 0.00621527 0.00178051 0.00464669 0.01019517 0.00923728 0.01432619 0.00312246 0.00250419 0.10595571 0.00898055 0.00874633 0.01598503 0.00138479 
0.04477070 0.09357980 0.00608299 0.00625099 0.00177164 0.00470803 0.01010554 0.00910358 0.01427414 0.00317579 0.00247543 0.10660781 0.00898815 0.00869971 0.01601048 0.00138173 
0.04643781 0.09278716 0.00609882 0.00628040 0.00176298 0.00476855 0.01001613 0.00897059 0.01425517 0.00323061 0.00244645 0.10722004 0.00899637 0.00865162 0.01602946 0.00137838 
0.04812136 0.09189344 0.00613838 0.00630338 0.00175463 0.00482815 0.00992736 0.00883911 0.01427043 0.00328683 0.00241747 0.10779129 0.00900526 0.00860214 0.01604236 0.00137475 
0.04981124 0.09090259 0.00620183 0.00631988 0.00174668 0.00488671 0.00983967 0.00870995 0.01432089 0.00334437 0.00238866 0.10832064 0.00901481 0.00855135 0.01604963 0.00137087 
0.05149745 0.08981890 0.00628926 0.00632985 0.00173925 0.00494412 0.00975348 0.00858388 0.01440735 0.00340313 0.00236024 0.10880738 0.00902503 0.00849935 0.01605174 0.00136675 
0.05317021 0.08864703 0.00640064 0.00633331 0.00173242 0.00500028 0.00966921 0.00846166 0.01453040 0.00346299 0.00233237 0.10925098 0.00903593 0.00844623 0.01604922 0.00136243 
0.05481996 0.08739193 0.00653589 0.00633027 0.00172631 0.00505508 0.00958725 0.00834400 0.01469045 0.00352384 0.00230526 0.10965112 0.00904748 0.00839208 0.01604260 0.00135791 
0.05643739 0.08605888 0.00669482 0.00632080 0.00172101 0.00510841 0.00950801 0.00823155 0.01488771 0.00358554 0.00227907 0.11000764 0.00905966 0.00833700 0.01603246 0.00135322 
0.05801356 0.08465341 0.00687714 0.00630499 0.00171664 0.00516019 0.00943188 0.00812495 0.01512215 0.00364796 0.00225396 0.11032058 0.00907245 0.00828111 0.01601936 0.00134840 
0.05953986 0.08318127 0.00708249 0.00628297 0.00171329 0.00521031 0.00935921 0.00802478 0.01539356 0.00371094 0.00223010 0.11059011 0.00908581 0.00822449 0.01600390 0.00134345 
0.06100809 0.08164845 0.00731042 0.00625490 0.00171106 0.00525869 0.00929037 0.00793156 0.01570149 0.00377432 0.00220762 0.11081660 0.00909970 0.00816725 0.01598667 0.00133842 
0.06241049 0.08006110 0.00756037 0.00622095 0.00171004 0.00530523 0.00922567 0.00784574 0.01604529 0.00383794 0.00218668 0.11100055 0.00911406 0.00810949 0.01596824 0.00133333 
0.06373979 0.07842552 0.00783173 0.00618136 0.00171033 0.00534984 0.00916543 0.00776775 0.01642410 0.00390160 0.00216738 0.11114259 0.00912883 0.00805132 0.01594922 0.00132819 
0.06498921 0.07674810 0.00812377 0.00613636 0.00171200 0.00539244 0.00910994 0.00769792 0.01683682 0.00396512 0.00214985 0.11124350 0.00914394 0.00799282 0.01593014 0.00132305 
0.06615250 0.07503536 0.00843568 0.00608622 0.00171513 0.00543296 0.00905945 0.00763655 0.01728216 0.00402831 0.00213419 0.11130417 0.00915933 0.00793409 0.01591157 0.00131793 
0.06722398 0.07329382 0.00876658 0.00603126 0.00171980 0.00547131 0.00901419 0.00758384 0.01775862 0.00409096 0.00212048 0.11132562 0.00917491 0.00787523 0.01589402 0.00131285 
0.06819853 0.07153003 0.00911551 0.00597178 0.00172607 0.00550743 0.00897436 0.00753996 0.01826450 0.00415285 0.00210879 0.11130894 0.00919060 0.00781632 0.01587798 0.00130784 
0.06907164 0.06975054 0.00948141 0.00590813 0.00173400 0.00554123 0.00894015 0.00750499 0.01879792 0.00421377 0.00209921 0.11125535 0.00920631 0.00775745 0.01586390 0.00130294 
0.06983941 0.06796184 0.00986316 0.00584069 0.00174363 0.00557266 0.00891170 0.00747895 0.01935680 0.00427350 0.00209176 0.11116614 0.00922194 0.00769869 0.01585222 0.00129816 
0.07049855 0.06617033 0.01025958 0.00576983 0.00175500 0.00560164 0.00888912 0.00746180 0.01993889 0.00433182 0.00208650 0.11104265 0.00923741 0.00764013 0.01584332 0.00129353 
0.07104642 0.06438231 0.01066939 0.00569595 0.00176813 0.00562813 0.00887250 0.00745345 0.02054179 0.00438850 0.00208344 0.11088632 0.00925260 0.00758185 0.01583753 0.00128908 
0.07148100 0.06260394 0.01109128 0.00561948 0.00178306 0.00565205 0.00886189 0.00745371 0.02116294 0.00444330 0.00208260 0.11069864 0.00926742 0.00752391 0.01583516 0.00128483 
0.07180090 0.06084121 0.01152385 0.00554083 0.00179978 0.00567335 0.00885731 0.00746237 0.02179965 0.00449600 0.00208398 0.11048115 0.00928176 0.00746638 0.01583646 0.00128081 
0.07200536 0.05909990 0.01196566 0.00546045 0.00181829 0.00569199 0.00885876 0.00747916 0.02244910 0.00454637 0.00208758 0.11023542 0.00929551 0.00740932 0.01584163 0.00127703 
0.07209426 0.05738558 0.01241521 0.00537877 0.00183858 0.00570791 0.00886621 0.00750372 0.02310838 0.00459420 0.00209336 0.10996308 0.00930857 0.00735281 0.01585083 0.00127352 
0.07206809 0.05570358 0.01287098 0.00529625 0.00186062 0.00572106 0.00887958 0.00753568 0.02377446 0.00463924 0.00210130 0.10966577 0.00932083 0.00729691 0.01586418 0.00127030 
0.07192793 0.05405893 0.01333137 0.00521333 0.00188439 0.00573139 0.00889878 0.00757462 0.02444428 0.00468130 0.00211136 0.10934518 0.00933217 0.00724168 0.01588173 0.00126738 
0.07167546 0.05245641 0.01379477 0.00513045 0.00190982 0.00573887 0.00892371 0.00762005 0.02511467 0.00472017 0.00212349 0.10900299 0.00934250 0.00718718 0.01590351 0.00126478 
0.07131293 0.05090044 0.01425954 0.00504806 0.00193687 0.00574346 0.00895420 0.00767147 0.02578246 0.00475563 0.00213763 0.10864092 0.00935171 0.00713347 0.01592949 0.00126251 
0.07084314 0.04939515 0.01472402 0.00496660 0.00196547 0.00574511 0.00899011 0.00772835 0.02644444 0.00478751 0.00215372 0.10826070 0.00935969 0.00708062 0.01595958 0.00126060 
0.07026940 0.04794430 0.01518652 0.00488650 0.00199552 0.00574380 0.00903124 0.00779011 0.02709740 0.00481561 0.00217168 0.10786406 0.00936634 0.00702869 0.01599369 0.00125904 
0.06959553 0.04655131 0.01564535 0.00480816 0.00202696 0.00573949 0.00907738 0.00785616 0.02773814 0.00483978 0.00219143 0.10745276 0.00937156 0.00697776 0.01603166 0.00125785 
0.06882581 0.04521922 0.01609882 0.00473200 0.00205967 0.00573215 0.00912832 0.00792589 0.02836351 0.00485986 0.00221290 0.10702854 0.00937526 0.00692789 0.01607329 0.00125704 
0.06796498 0.04395070 0.01654525 0.00465839 0.00209354 0.00572175 0.00918381 0.00799869 0.02897038 0.00487570 0.00223599 0.10659315 0.00937735 0.00687917 0.01611836 0.00125661 
0.06701815 0.04274802 0.01698296 0.00458770 0.00212845 0.00570826 0.00924361 0.00807393 0.02955572 0.00488719 0.00226063 0.10614835 0.00937773 0.00683167 0.01616660 0.00125656 
0.06599082 0.04161308 0.01741029 0.00452028 0.00216429 0.00569168 0.00930746 0.00815098 0.03011656 0.00489421 0.00228670 0.10569589 0.00937632 0.00678549 0.01621773 0.00125690 
0.06488884 0.04054738 0.01782562 0.00445645 0.00220090 0.00567196 0.00937509 0.00822922 0.03065005 0.00489668 0.00231413 0.10523755 0.00937304 0.00674072 0.01627144 0.00125763 
0.06371833 0.03955202 0.01822735 0.00439649 0.00223815 0.00564911 0.00944622 0.00830803 0.03115346 0.00489452 0.00234282 0.10477506 0.00936781 0.00669746 0.01632739 0.00125873 
0.06248569 0.03862772 0.01861392 0.00434069 0.00227588 0.00562310 0.00952059 0.00838681 0.03162417 0.00488769 0.00237268 0.10431020 0.00936058 0.00665582 0.01638521 0.00126022 
0.06119751 0.03777482 0.01898383 0.00428929 0.00231394 0.00559392 0.00959792 0.00846499 0.03205975 0.00487616 0.00240360 0.10384470 0.00935126 0.00661592 0.01644455 0.00126207 
0.05986059 0.03699327 0.01933563 0.00424248 0.00235217 0.00556157 0.00967793 0.00854199 0.03245791 0.00485991 0.00243550 0.10338034 0.00933980 0.00657788 0.01650501 0.00126428 
0.05848185 0.03628267 0.01966792 0.00420046 0.00239039 0.00552604 0.00976037 0.00861730 0.03281653 0.00483896 0.00246829 0.10291884 0.00932615 0.00654183 0.01656621 0.00126685 
0.05706833 0.03564223 0.01997939 0.00416337 0.00242844 0.00548734 0.00984495 0.00869040 0.03313371 0.00481333 0.00250189 0.10246197 0.00931026 0.00650792 0.01662774 0.00126975 
0.05562709 0.03507085 0.02026878 0.00413132 0.00246614 0.00544546 0.00993145 0.00876083 0.03340773 0.00478310 0.00253620 0.10201146 0.00929209 0.00647630 0.01668920 0.00127298 
0.05416525 0.03456707 0.02053493 0.00410439 0.00250332 0.00540043 0.01001960 0.00882817 0.03363709 0.00474833 0.00257116 0.10156905 0.00927159 0.00644713 0.01675020 0.00127652 
0.05268987 0.03412913 0.02077676 0.00408263 0.00253979 0.00535224 0.01010918 0.00889203 0.03382050 0.00470913 0.00260667 0.10113646 0.00924875 0.00642057 0.01681033 0.00128035 
0.05120797 0.03375496 0.02099328 0.00406604 0.00257539 0.00530092 0.01019998 0.00895207 0.03395691 0.00466562 0.00264268 0.10071540 0.00922353 0.00639680 0.01686921 0.00128445 
0.04972646 0.03344223 0.02118360 0.00405461 0.00260994 0.00524649 0.01029178 0.00900799 0.03404550 0.00461793 0.00267912 0.10030758 0.00919592 0.00637600 0.01692645 0.00128880 
0.04825211 0.03318833 0.02134693 0.00404828 0.00264325 0.00518899 0.01038442 0.00905955 0.03408569 0.00456625 0.00271593 0.09991469 0.00916591 0.00635836 0.01698169 0.00129338 
0.04679154 0.03299044 0.02148260 0.00404696 0.00267517 0.00512845 0.01047771 0.00910653 0.03407715 0.00451075 0.00275304 0.09953838 0.00913348 0.00634408 0.01703458 0.00129816 
0.04535112 0.03284549 0.02159002 0.00405052 0.00270551 0.00506490 0.01057150 0.00914880 0.03401977 0.00445164 0.00279041 0.09918030 0.00909864 0.00633334 0.01708478 0.00130313 
0.04393703 0.03275025 0.02166873 0.00405880 0.00273413 0.00499841 0.01066567 0.00918625 0.03391372 0.00438914 0.00282799 0.09884205 0.00906140 0.00632636 0.01713197 0.00130826 
0.04255512 0.03270132 0.02171841 0.00407163 0.00276086 0.00492902 0.01076009 0.00921883 0.03375938 0.00432350 0.00286575 0.09852521 0.00902177 0.00632335 0.01717584 0.00131352 
0.04121099 0.03269514 0.02173882 0.00408878 0.00278556 0.00485680 0.01085467 0.00924655 0.03355741 0.00425497 0.00290364 0.09823131 0.00897977 0.00632450 0.01721614 0.00131888 
0.03990989 0.03272805 0.02172986 0.00411002 0.00280807 0.00478182 0.01094933 0.00926945 0.03330866 0.00418384 0.00294164 0.09796184 0.00893541 0.00633003 0.01725259 0.00132432 
0.03865672 0.03279630 0.02169155 0.00413506 0.00282826 0.00470416 0.01104399 0.00928763 0.03301426 0.00411039 0.00297972 0.09771823 0.00888874 0.00634014 0.01728498 0.00132981 
0.03745600 0.03289605 0.02162404 0.00416363 0.00284602 0.00462390 0.01113863 0.00930123 0.03267553 0.00403492 0.00301785 0.09750184 0.00883980 0.00635505 0.01731310 0.00133533 
0.03631188 0.03302346 0.02152757 0.00419540 0.00286121 0.00454115 0.01123319 0.00931044 0.03229403 0.00395776 0.00305602 0.09731398 0.00878861 0.00637494 0.01733678 0.00134085 
0.03522806 0.03317464 0.02140255 0.00423004 0.00287375 0.00445600 0.01132766 0.00931548 0.03187153 0.00387922 0.00309421 0.09715587 0.00873525 0.00640003 0.01735585 0.00134633 
0.03420785 0.03334573 0.02124948 0.00426719 0.00288354 0.00436857 0.01142203 0.00931663 0.03140998 0.00379964 0.00313241 0.09702863 0.00867975 0.00643048 0.01737021 0.00135176 
0.03325412 0.03353290 0.02106898 0.00430649 0.00289048 0.00427899 0.01151630 0.00931418 0.03091154 0.00371935 0.00317061 0.09693330 0.00862219 0.00646650 0.01737975 0.00135710 
0.03236928 0.03373236 0.02086179 0.00434756 0.00289453 0.00418740 0.01161048 0.00930847 0.03037852 0.00363871 0.00320880 0.09687083 0.00856264 0.00650824 0.01738442 0.00136233 
0.03155529 0.03394044 0.02062877 0.00439000 0.00289561 0.00409392 0.01170458 0.00929987 0.02981342 0.00355805 0.00324698 0.09684203 0.00850117 0.00655586 0.01738416 0.00136743 
0.03081366 0.03415353 0.02037089 0.00443343 0.00289370 0.00399872 0.01179864 0.00928877 0.02921888 0.00347773 0.00328513 0.09684760 0.00843786 0.00660952 0.01737896 0.00137237 
0.03014545 0.03436817 0.02008922 0.00447743 0.00288876 0.00390196 0.01189265 0.00927558 0.02859764 0.00339810 0.00332325 0.09688811 0.00837282 0.00666934 0.01736885 0.00137712 
0.02955125 0.03458104 0.01978493 0.00452161 0.00288077 0.00380381 0.01198665 0.00926073 0.02795260 0.00331949 0.00336134 0.09696399 0.00830613 0.00673543 0.01735387 0.00138167 
0.02903123 0.03478897 0.01945930 0.00456556 0.00286975 0.00370446 0.01208065 0.00924466 0.02728673 0.00324226 0.00339939 0.09707553 0.00823791 0.00680790 0.01733408 0.00138598 
0.02858510 0.03498898 0.01911368 0.00460890 0.00285570 0.00360411 0.01217465 0.00922782 0.02660309 0.00316672 0.00343739 0.09722284 0.00816826 0.00688683 0.01730958 0.00139006 
0.02821212 0.03517828 0.01874953 0.00465122 0.00283866 0.00350295 0.01226867 0.00921068 0.02590482 0.00309322 0.00347533 0.09740590 0.00809732 0.00697226 0.01728050 0.00139386 
0.02791118 0.03535430 0.01836838 0.00469215 0.00281868 0.00340119 0.01236269 0.00919370 0.02519508 0.00302206 0.00351320 0.09762451 0.00802521 0.00706425 0.01724698 0.00139738 
0.02768072 0.03551467 0.01797183 0.00473132 0.00279580 0.00329908 0.01245670 0.00917732 0.02447707 0.00295356 0.00355097 0.09787829 0.00795207 0.00716280 0.01720920 0.00140061 
0.02751883 0.03565729 0.01756154 0.00476837 0.00277011 0.00319682 0.01255065 0.00916200 0.02375402 0.00288800 0.00358864 0.09816669 0.00787805 0.00726791 0.01716735 0.00140352 
0.02742320 0.03578026 0.01713924 0.00480297 0.00274169 0.00309468 0.01264448 0.00914818 0.02302912 0.00282566 0.00362618 0.09848895 0.00780332 0.00737954 0.01712166 0.00140610 
0.02739120 0.03588197 0.01670670 0.00483480 0.00271065 0.00299290 0.01273814 0.00913628 0.02230555 0.00276680 0.00366355 0.09884417 0.00772804 0.00749765 0.01707237 0.00140835 
0.02741986 0.03596105 0.01626575 0.00486357 0.00267710 0.00289174 0.01283152 0.00912669 0.02158645 0.00271167 0.00370074 0.09923122 0.00765239 0.00762215 0.01701975 0.00141026 
0.02750593 0.03601639 0.01581825 0.00488901 0.00264118 0.00279146 0.01292451 0.00911982 0.02087491 0.00266049 0.00373770 0.09964879 0.00757655 0.00775293 0.01696408 0.00141182 
0.02764587 0.03604715 0.01536607 0.00491086 0.00260301 0.00269235 0.01301697 0.00911600 0.02017392 0.00261347 0.00377439 0.10009540 0.00750074 0.00788988 0.01690568 0.00141302 
0.02783590 0.03605276 0.01491111 0.00492891 0.00256276 0.00259468 0.01310874 0.00911557 0.01948639 0.00257079 0.00381077 0.10056933 0.00742517 0.00803283 0.01684487 0.00141386 
0.02807203 0.03603293 0.01445528 0.00494297 0.00252059 0.00249874 0.01319962 0.00911883 0.01881513 0.00253261 0.00384678 0.10106873 0.00735005 0.00818160 0.01678201 0.00141434 
0.02835007 0.03598760 0.01400051 0.00495288 0.00247667 0.00240483 0.01328939 0.00912603 0.01816282 0.00249908 0.00388237 0.10159153 0.00727562 0.00833600 0.01671746 0.00141447 
0.02866569 0.03591702 0.01354870 0.00495850 0.00243118 0.00231324 0.01337782 0.00913741 0.01753200 0.00247031 0.00391747 0.10213549 0.00720214 0.00849579 0.01665160 0.00141424 
0.02901443 0.03582167 0.01310174 0.00495974 0.00238432 0.00222426 0.01346464 0.00915315 0.01692507 0.00244639 0.00395202 0.10269819 0.00712985 0.00866072 0.01658484 0.00141366 
0.02939172 0.03570227 0.01266151 0.00495654 0.00233628 0.00213822 0.01354956 0.00917341 0.01634426 0.00242740 0.00398595 0.10327704 0.00705904 0.00883052 0.01651758 0.00141274 
0.02979294 0.03555983 0.01222984 0.00494885 0.00228727 0.00205541 0.01363225 0.00919829 0.01579164 0.00241337 0.00401918 0.10386930 0.00698998 0.00900491 0.01645027 0.00141148 
0.03021343 0.03539554 0.01180855 0.00493668 0.00223751 0.00197613 0.01371238 0.00922785 0.01526910 0.00240433 0.00405163 0.10447207 0.00692297 0.00918355 0.01638334 0.00140990 
0.03064853 0.03521087 0.01139940 0.00492007 0.00218720 0.00190070 0.01378957 0.00926214 0.01477832 0.00240028 0.00408322 0.10508233 0.00685831 0.00936613 0.01631725 0.00140800 
0.03109360 0.03500746 0.01100409 0.00489907 0.00213657 0.00182941 0.01386345 0.00930112 0.01432081 0.00240118 0.00411385 0.10569689 0.00679634 0.00955229 0.01625246 0.00140580 
0.03154407 0.03478718 0.01062427 0.00487378 0.00208583 0.00176257 0.01393360 0.00934475 0.01389787 0.00240698 0.00414344 0.10631248 0.00673737 0.00974167 0.01618945 0.00140331 
0.03199545 0.03455207 0.01026153 0.00484433 0.00203521 0.00170047 0.01399962 0.00939292 0.01351058 0.00241761 0.00417190 0.10692572 0.00668175 0.00993389 0.01612869 0.00140055 
0.03244334 0.03430436 0.00991738 0.00481089 0.00198494 0.00164341 0.01406106 0.00944550 0.01315983 0.00243297 0.00419912 0.10753313 0.00662982 0.01012855 0.01607067 0.00139753 
0.03288351 0.03404644 0.00959326 0.00477363 0.00193522 0.00159167 0.01411749 0.00950230 0.01284629 0.00245294 0.00422502 0.10813116 0.00658196 0.01032526 0.01601587 0.00139428 
0.03331188 0.03378082 0.00929051 0.00473277 0.00188630 0.00154552 0.01416845 0.00956311 0.01257042 0.00247737 0.00424949 0.10871622 0.00653852 0.01052360 0.01596480 0.00139080 
0.03372454 0.03351017 0.00901040 0.00468856 0.00183837 0.00150524 0.01421348 0.00962768 0.01233246 0.00250611 0.00427243 0.10928466 0.00649989 0.01072317 0.01591793 0.00138713 
0.03411782 0.03323723 0.00875409 0.00464125 0.00179165 0.00147108 0.01425214 0.00969572 0.01213245 0.00253896 0.00429376 0.10983281 0.00646644 0.01092352 0.01587576 0.00138329 
0.03448826 0.03296488 0.00852267 0.00459115 0.00174635 0.00144327 0.01428396 0.00976691 0.01197024 0.00257574 0.00431337 0.11035701 0.00643856 0.01112425 0.01583876 0.00137928 
0.03483265 0.03269602 0.00831710 0.00453855 0.00170267 0.00142206 0.01430850 0.00984089 0.01184544 0.00261622 0.00433117 0.11085360 0.00641665 0.01132493 0.01580742 0.00137514 
0.03514802 0.03243364 0.00813825 0.00448378 0.00166081 0.00140766 0.01432534 0.00991731 0.01175749 0.00266017 0.00434706 0.11131896 0.00640109 0.01152514 0.01578220 0.00137089 
0.03543172 0.03218077 0.00798688 0.00442719 0.00162093 0.00140025 0.01433404 0.00999576 0.01170565 0.00270734 0.00436097 0.11174952 0.00639227 0.01172445 0.01576355 0.00136655 
0.03568136 0.03194044 0.00786365 0.00436914 0.00158324 0.00140003 0.01433422 0.01007582 0.01168898 0.00275748 0.00437281 0.11214178 0.00639059 0.01192247 0.01575191 0.00136213 
0.03589484 0.03171568 0.00776908 0.00430999 0.00154787 0.00140715 0.01432549 0.01015705 0.01170637 0.00281030 0.00438249 0.11249234 0.00639643 0.01211877 0.01574769 0.00135768 
0.03607038 0.03150951 0.00770362 0.00425012 0.00151501 0.00142176 0.01430751 0.01023900 0.01175656 0.00286554 0.00438996 0.11279790 0.00641017 0.01231297 0.01575131 0.00135319 
0.03620652 0.03132491 0.00766758 0.00418991 0.00148477 0.00144395 0.01427996 0.01032121 0.01183813 0.00292289 0.00439513 0.11305530 0.00643218 0.01250468 0.01576314 0.00134871 
0.03630210 0.03116480 0.00766115 0.00412975 0.00145731 0.00147384 0.01424256 0.01040322 0.01194954 0.00298207 0.00439796 0.11326152 0.00646282 0.01269354 0.01578353 0.00134424 
0.03635627 0.03103203 0.00768441 0.00407003 0.00143273 0.00151149 0.01419507 0.01048454 0.01208908 0.00304278 0.00439839 0.11341372 0.00650242 0.01287919 0.01581281 0.00133981 
0.03636851 0.03092936 0.00773736 0.00401113 0.00141114 0.00155693 0.01413730 0.01056471 0.01225498 0.00310470 0.00439637 0.11350923 0.00655133 0.01306129 0.01585127 0.00133545 
0.03633861 0.03085945 0.00781983 0.00395343 0.00139263 0.00161020 0.01406909 0.01064324 0.01244533 0.00316754 0.00439187 0.11354561 0.00660985 0.01323952 0.01589916 0.00133116 
0.03626665 0.03082481 0.00793158 0.00389730 0.00137728 0.00167126 0.01399033 0.01071969 0.01265815 0.00323098 0.00438487 0.11352061 0.00667826 0.01341359 0.01595671 0.00132697 
0.03615302 0.03082784 0.00807225 0.00384311 0.00136515 0.00174009 0.01390099 0.01079358 0.01289139 0.00329473 0.00437535 0.11343225 0.00675682 0.01358321 0.01602410 0.00132289 
0.03599840 0.03087076 0.00824137 0.00379122 0.00135628 0.00181661 0.01380107 0.01086447 0.01314294 0.00335848 0.00436330 0.11327878 0.00684578 0.01374812 0.01610149 0.00131895 
0.03580376 0.03095566 0.00843837 0.00374195 0.00135072 0.00190072 0.01369062 0.01093194 0.01341064 0.00342194 0.00434873 0.11305873 0.00694532 0.01390809 0.01618896 0.00131516 
0.03557032 0.03108441 0.00866256 0.00369562 0.00134847 0.00199228 0.01356978 0.01099558 0.01369232 0.00348482 0.00433165 0.11277091 0.00705562 0.01406292 0.01628656 0.00131152 
0.03529954 0.03125871 0.00891317 0.00365254 0.00134954 0.00209115 0.01343871 0.01105499 0.01398578 0.00354684 0.00431209 0.11241442 0.00717680 0.01421240 0.01639432 0.00130807 
0.03499316 0.03148004 0.00918933 0.00361299 0.00135391 0.00219711 0.01329768 0.01110982 0.01428883 0.00360772 0.00429008 0.11198867 0.00730897 0.01435637 0.01651217 0.00130480 
0.03465310 0.03174968 0.00949007 0.00357722 0.00136156 0.00230995 0.01314699 0.01115971 0.01459929 0.00366721 0.00426567 0.11149340 0.00745216 0.01449471 0.01664004 0.00130172 
0.03428150 0.03206869 0.00981435 0.00354546 0.00137245 0.00242941 0.01298700 0.01120436 0.01491503 0.00372505 0.00423892 0.11092865 0.00760637 0.01462728 0.01677777 0.00129886 
0.03388068 0.03243789 0.01016103 0.00351792 0.00138651 0.00255520 0.01281814 0.01124348 0.01523395 0.00378100 0.00420990 0.11029481 0.00777157 0.01475400 0.01692517 0.00129621 
0.03345312 0.03285786 0.01052889 0.00349478 0.00140368 0.00268699 0.01264091 0.01127682 0.01555400 0.00383485 0.00417868 0.10959260 0.00794766 0.01487479 0.01708198 0.00129379 
0.03300145 0.03332895 0.01091665 0.00347619 0.00142387 0.00282445 0.01245587 0.01130417 0.01587321 0.00388638 0.00414536 0.10882309 0.00813448 0.01498962 0.01724790 0.00129159 
0.03252841 0.03385125 0.01132294 0.00346227 0.00144699 0.00296719 0.01226361 0.01132534 0.01618970 0.00393541 0.00411004 0.10798768 0.00833185 0.01509846 0.01742257 0.00128962 
0.03203686 0.03442463 0.01174636 0.00345310 0.00147291 0.00311480 0.01206482 0.01134018 0.01650167 0.00398176 0.00407282 0.10708812 0.00853949 0.01520131 0.01760558 0.00128788 
0.03152971 0.03504867 0.01218543 0.00344875 0.00150152 0.00326685 0.01186022 0.01134857 0.01680743 0.00402527 0.00403382 0.10612652 0.00875709 0.01529818 0.01779646 0.00128639 
0.03100996 0.03572274 0.01263861 0.00344923 0.00153268 0.00342287 0.01165057 0.01135045 0.01710541 0.00406579 0.00399318 0.10510532 0.00898429 0.01538911 0.01799469 0.00128512 
0.03048061 0.03644593 0.01310432 0.00345456 0.00156625 0.00358237 0.01143670 0.01134576 0.01739416 0.00410322 0.00395102 0.10402729 0.00922065 0.01547416 0.01819971 0.00128409 
0.02994469 0.03721711 0.01358095 0.00346468 0.00160208 0.00374485 0.01121947 0.01133451 0.01767237 0.00413744 0.00390750 0.10289554 0.00946568 0.01555340 0.01841089 0.00128329 
0.02940524 0.03803488 0.01406684 0.00347954 0.00163998 0.00390978 0.01099979 0.01131672 0.01793884 0.00416838 0.00386276 0.10171349 0.00971883 0.01562692 0.01862756 0.00128272 
0.02886523 0.03889764 0.01456031 0.00349903 0.00167980 0.00407659 0.01077859 0.01129246 0.01819254 0.00419596 0.00381696 0.10048490 0.00997949 0.01569480 0.01884903 0.00128236 
0.02832761 0.03980354 0.01505966 0.00352303 0.00172135 0.00424472 0.01055685 0.01126182 0.01843260 0.00422014 0.00377026 0.09921379 0.01024699 0.01575717 0.01907452 0.00128223 
0.02779526 0.04075050 0.01556315 0.00355137 0.00176444 0.00441359 0.01033556 0.01122495 0.01865827 0.00424090 0.00372283 0.09790449 0.01052061 0.01581413 0.01930325 0.00128230 
0.02727096 0.04173625 0.01606906 0.00358388 0.00180887 0.00458259 0.01011574 0.01118201 0.01886899 0.00425823 0.00367485 0.09656160 0.01079957 0.01586582 0.01953438 0.00128258 
0.02675741 0.04275830 0.01657563 0.00362034 0.00185446 0.00475111 0.00989840 0.01113320 0.01906432 0.00427213 0.00362648 0.09518997 0.01108304 0.01591236 0.01976705 0.00128305 
0.02625715 0.04381400 0.01708114 0.00366052 0.00190099 0.00491854 0.00968459 0.01107874 0.01924402 0.00428264 0.00357790 0.09379466 0.01137013 0.01595389 0.02000036 0.00128370 
0.02577263 0.04490049 0.01758384 0.00370415 0.00194826 0.00508425 0.00947534 0.01101889 0.01940799 0.00428980 0.00352929 0.09238097 0.01165991 0.01599054 0.02023340 0.00128452 
0.02530611 0.04601476 0.01808202 0.00375095 0.00199607 0.00524762 0.00927168 0.01095393 0.01955628 0.00429368 0.00348083 0.09095438 0.01195140 0.01602244 0.02046522 0.00128550 
0.02485972 0.04715365 0.01857397 0.00380063 0.00204420 0.00540802 0.00907463 0.01088415 0.01968911 0.00429435 0.00343270 0.08952052 0.01224360 0.01604973 0.02069487 0.00128663 
0.02443539 0.04831389 0.01905801 0.00385285 0.00209244 0.00556483 0.00888521 0.01080990 0.01980683 0.00429191 0.00338508 0.08808518 0.01253544 0.01607253 0.02092136 0.00128791 
0.02403489 0.04949207 0.01953248 0.00390728 0.00214059 0.00571744 0.00870438 0.01073150 0.01990996 0.00428647 0.00333813 0.08665425 0.01282585 0.01609095 0.02114373 0.00128930 
0.02365978 0.05068469 0.01999578 0.00396358 0.00218843 0.00586523 0.00853309 0.01064933 0.01999916 0.00427815 0.00329204 0.08523369 0.01311371 0.01610511 0.02136098 0.00129081 
0.02331143 0.05188817 0.02044631 0.00402138 0.00223578 0.00600762 0.00837227 0.01056376 0.02007520 0.00426708 0.00324696 0.08382953 0.01339789 0.01611512 0.02157215 0.00129242 
0.02299101 0.05309887 0.02088257 0.00408032 0.00228241 0.00614403 0.00822278 0.01047517 0.02013901 0.00425342 0.00320307 0.08244782 0.01367725 0.01612105 0.02177625 0.00129411 
0.02269946 0.05431312 0.02130305 0.00414002 0.00232815 0.00627390 0.00808544 0.01038397 0.02019162 0.00423733 0.00316051 0.08109459 0.01395062 0.01612298 0.02197233 0.00129588 
0.02243754 0.05552722 0.02170633 0.00420009 0.00237279 0.00639670 0.00796103 0.01029055 0.02023417 0.00421896 0.00311945 0.07977584 0.01421684 0.01612098 0.02215945 0.00129771 
0.02220578 0.05673747 0.02209106 0.00426016 0.00241616 0.00651191 0.00785025 0.01019534 0.02026792 0.00419849 0.00308001 0.07849749 0.01447476 0.01611509 0.02233668 0.00129959 
0.02200450 0.05794018 0.02245591 0.00431985 0.00245807 0.00661904 0.00775375 0.01009873 0.02029419 0.00417611 0.00304234 0.07726536 0.01472323 0.01610535 0.02250313 0.00130149 
0.02183382 0.05913172 0.02279967 0.00437878 0.00249836 0.00671765 0.00767212 0.01000115 0.02031442 0.00415199 0.00300656 0.07608512 0.01496112 0.01609177 0.02265795 0.00130342 
0.02169364 0.06030849 0.02312116 0.00443659 0.00253686 0.00680732 0.00760584 0.00990299 0.02033010 0.00412635 0.00297278 0.07496229 0.01518732 0.01607434 0.02280031 0.00130536 
0.02158367 0.06146701 0.02341929 0.00449290 0.00257342 0.00688766 0.00755536 0.00980466 0.02034276 0.00409936 0.00294113 0.07390217 0.01540076 0.01605306 0.02292942 0.00130729 
0.02150343 0.06260386 0.02369307 0.00454737 0.00260791 0.00695832 0.00752100 0.00970656 0.02035402 0.00407122 0.00291168 0.07290982 0.01560039 0.01602787 0.02304457 0.00130921 
0.02145222 0.06371575 0.02394156 0.00459967 0.00264017 0.00701900 0.00750305 0.00960907 0.02036549 0.00404214 0.00288452 0.07199005 0.01578522 0.01599874 0.02314507 0.00131110 
0.02142921 0.06479954 0.02416393 0.00464946 0.00267010 0.00706944 0.00750167 0.00951256 0.02037883 0.00401230 0.00285973 0.07114737 0.01595431 0.01596559 0.02323028 0.00131295 
0.02143335 0.06585223 0.02435941 0.00469644 0.00269758 0.00710942 0.00751694 0.00941740 0.02039570 0.00398191 0.00283737 0.07038595 0.01610677 0.01592834 0.02329966 0.00131475 
0.02146346 0.06687099 0.02452736 0.00474033 0.00272251 0.00713877 0.00754886 0.00932392 0.02041776 0.00395115 0.00281749 0.06970962 0.01624178 0.01588689 0.02335269 0.00131649 
0.02151820 0.06785319 0.02466720 0.00478085 0.00274480 0.00715735 0.00759735 0.00923246 0.02044666 0.00392021 0.00280012 0.06912184 0.01635860 0.01584114 0.02338894 0.00131816 
0.02159609 0.06879637 0.02477846 0.00481777 0.00276438 0.00716509 0.00766221 0.00914331 0.02048401 0.00388927 0.00278529 0.06862565 0.01645654 0.01579095 0.02340804 0.00131975 
0.02169553 0.06969833 0.02486076 0.00485086 0.00278117 0.00716197 0.00774316 0.00905676 0.02053138 0.00385852 0.00277300 0.06822367 0.01653503 0.01573620 0.02340971 0.00132126 
0.02181480 0.07055705 0.02491381 0.00487993 0.00279514 0.00714801 0.00783984 0.00897308 0.02059031 0.00382811 0.00276326 0.06791808 0.01659355 0.01567675 0.02339372 0.00132267 
0.02195209 0.07137080 0.02493743 0.00490481 0.00280623 0.00712328 0.00795179 0.00889251 0.02066225 0.00379820 0.00275606 0.06771061 0.01663170 0.01561244 0.02335993 0.00132398 
0.02210549 0.07213804 0.02493154 0.00492535 0.00281441 0.00708790 0.00807847 0.00881526 0.02074861 0.00376896 0.00275136 0.06760247 0.01664916 0.01554315 0.02330829 0.00132518 
0.02227305 0.07285753 0.02489615 0.00494144 0.00281969 0.00704204 0.00821924 0.00874152 0.02085068 0.00374051 0.00274912 0.06759442 0.01664573 0.01546870 0.02323880 0.00132626 
0.02245272 0.07352828 0.02483137 0.00495299 0.00282204 0.00698593 0.00837339 0.00867146 0.02096967 0.00371299 0.00274930 0.06768670 0.01662128 0.01538895 0.02315158 0.00132723 
0.02264245 0.07414954 0.02473740 0.00495994 0.00282148 0.00691985 0.00854014 0.00860522 0.02110671 0.00368652 0.00275184 0.06787905 0.01657581 0.01530377 0.02304680 0.00132807 
0.02284014 0.07472088 0.02461455 0.00496227 0.00281802 0.00684410 0.00871862 0.00854291 0.02126278 0.00366120 0.00275665 0.06817070 0.01650942 0.01521299 0.02292473 0.00132879 
0.02304369 0.07524208 0.02446323 0.00495997 0.00281171 0.00675906 0.00890789 0.00848461 0.02143878 0.00363714 0.00276365 0.06856036 0.01642233 0.01511651 0.02278571 0.00132937 
0.02325100 0.07571324 0.02428391 0.00495306 0.00280258 0.00666514 0.00910697 0.00843038 0.02163544 0.00361441 0.00277275 0.06904622 0.01631486 0.01501420 0.02263018 0.00132982 
0.02345999 0.07613469 0.02407720 0.00494161 0.00279068 0.00656279 0.00931478 0.00838025 0.02185340 0.00359308 0.00278384 0.06962599 0.01618743 0.01490595 0.02245863 0.00133014 
0.02366861 0.07650704 0.02384376 0.00492570 0.00277609 0.00645251 0.00953022 0.00833424 0.02209313 0.00357322 0.00279681 0.07029687 0.01604057 0.01479168 0.02227165 0.00133032 
0.02387486 0.07683115 0.02358435 0.00490542 0.00275887 0.00633482 0.00975214 0.00829231 0.02235499 0.00355486 0.00281153 0.07105556 0.01587494 0.01467133 0.02206991 0.00133036 
0.02407679 0.07710813 0.02329983 0.00488092 0.00273911 0.00621031 0.00997933 0.00825443 0.02263916 0.00353804 0.00282787 0.07189831 0.01569127 0.01454486 0.02185414 0.00133027 
0.02427253 0.07733932 0.02299112 0.00485235 0.00271690 0.00607958 0.01021056 0.00822053 0.02294570 0.00352278 0.00284570 0.07282091 0.01549041 0.01441225 0.02162516 0.00133004 
0.02446031 0.07752629 0.02265922 0.00481990 0.00269235 0.00594325 0.01044459 0.00819050 0.02327450 0.00350907 0.00286486 0.07381873 0.01527330 0.01427352 0.02138384 0.00132967 
0.02463843 0.07767082 0.02230521 0.00478375 0.00266555 0.00580199 0.01068012 0.00816424 0.02362531 0.00349693 0.00288521 0.07488671 0.01504099 0.01412871 0.02113112 0.00132917 
0.02480531 0.07777488 0.02193024 0.00474414 0.00263663 0.00565648 0.01091588 0.00814160 0.02399774 0.00348632 0.00290659 0.07601944 0.01479458 0.01397789 0.02086802 0.00132854 
0.02495951 0.07784065 0.02153552 0.00470131 0.00260571 0.00550744 0.01115057 0.00812243 0.02439123 0.00347721 0.00292885 0.07721112 0.01453528 0.01382119 0.02059560 0.00132778 
0.02509969 0.07787045 0.02112233 0.00465550 0.00257293 0.00535557 0.01138291 0.00810656 0.02480508 0.00346958 0.00295181 0.07845567 0.01426436 0.01365875 0.02031499 0.00132689 
0.02522466 0.07786673 0.02069199 0.00460699 0.00253840 0.00520162 0.01161162 0.00809378 0.02523846 0.00346335 0.00297533 0.07974672 0.01398318 0.01349076 0.02002734 0.00132589 
0.02533339 0.07783212 0.02024588 0.00455606 0.00250227 0.00504633 0.01183545 0.00808390 0.02569038 0.00345848 0.00299922 0.08107763 0.01369314 0.01331745 0.01973388 0.00132476 
0.02542497 0.07776929 0.01978543 0.00450300 0.00246469 0.00489044 0.01205317 0.00807667 0.02615973 0.00345488 0.00302333 0.08244158 0.01339569 0.01313909 0.01943586 0.00132353 
0.02549870 0.07768105 0.01931210 0.00444812 0.00242580 0.00473472 0.01226358 0.00807188 0.02664528 0.00345249 0.00304749 0.08383159 0.01309234 0.01295600 0.01913456 0.00132218 
0.02555400 0.07757024 0.01882740 0.00439171 0.00238574 0.00457990 0.01246555 0.00806926 0.02714564 0.00345120 0.00307153 0.08524052 0.01278462 0.01276852 0.01883133 0.00132073 
0.02559050 0.07743975 0.01833284 0.00433408 0.00234467 0.00442674 0.01265797 0.00806857 0.02765936 0.00345093 0.00309530 0.08666119 0.01247410 0.01257705 0.01852748 0.00131919 
0.02560798 0.07729250 0.01782998 0.00427556 0.00230274 0.00427595 0.01283978 0.00806953 0.02818483 0.00345158 0.00311863 0.08808638 0.01216235 0.01238204 0.01822439 0.00131755 
0.02560641 0.07713139 0.01732039 0.00421644 0.00226009 0.00412827 0.01301002 0.00807188 0.02872037 0.00345304 0.00314137 0.08950885 0.01185097 0.01218397 0.01792343 0.00131584 
0.02558593 0.07695931 0.01680564 0.00415704 0.00221689 0.00398439 0.01316776 0.00807533 0.02926421 0.00345520 0.00316336 0.09092147 0.01154155 0.01198335 0.01762599 0.00131404 
0.02554689 0.07677908 0.01628732 0.00409766 0.00217328 0.00384499 0.01331216 0.00807962 0.02981450 0.00345795 0.00318447 0.09231717 0.01123565 0.01178075 0.01733344 0.00131217 
0.02548979 0.07659346 0.01576700 0.00403859 0.00212941 0.00371073 0.01344247 0.00808446 0.03036932 0.00346117 0.00320454 0.09368904 0.01093485 0.01157678 0.01704715 0.00131024 
0.02541532 0.07640514 0.01524628 0.00398013 0.00208542 0.00358223 0.01355800 0.00808958 0.03092668 0.00346473 0.00322345 0.09503039 0.01064065 0.01137207 0.01676850 0.00130825 
0.02532437 0.07621668 0.01472670 0.00392254 0.00204147 0.00346010 0.01365818 0.00809469 0.03148456 0.00346853 0.00324107 0.09633474 0.01035456 0.01116730 0.01649883 0.00130621 
0.02521799 0.07603051 0.01420981 0.00386610 0.00199769 0.00334488 0.01374249 0.00809954 0.03204089 0.00347245 0.00325727 0.09759590 0.01007801 0.01096317 0.01623946 0.00130414 
0.02509740 0.07584891 0.01369712 0.00381105 0.00195422 0.00323712 0.01381053 0.00810385 0.03259359 0.00347636 0.00327195 0.09880802 0.00981239 0.01076042 0.01599169 0.00130202 
0.02496400 0.07567401 0.01319014 0.00375763 0.00191120 0.00313728 0.01386201 0.00810736 0.03314054 0.00348016 0.00328500 0.09996560 0.00955900 0.01055981 0.01575677 0.00129989 
0.02481936 0.07550775 0.01269030 0.00370605 0.00186875 0.00304583 0.01389670 0.00810983 0.03367966 0.00348372 0.00329632 0.10106353 0.00931911 0.01036212 0.01553592 0.00129773 
0.02466518 0.07535189 0.01219903 0.00365653 0.00182700 0.00296315 0.01391452 0.00811102 0.03420883 0.00348694 0.00330583 0.10209717 0.00909386 0.01016817 0.01533031 0.00129557 
0.02450335 0.07520797 0.01171768 0.00360923 0.00178607 0.00288959 0.01391543 0.00811070 0.03472599 0.00348972 0.00331346 0.10306230 0.00888435 0.00997877 0.01514105 0.00129340 
0.02433586 0.07507731 0.01124758 0.00356432 0.00174607 0.00282547 0.01389954 0.00810865 0.03522909 0.00349196 0.00331913 0.10395525 0.00869155 0.00979476 0.01496921 0.00129125 
0.02416488 0.07496103 0.01078997 0.00352195 0.00170711 0.00277103 0.01386704 0.00810468 0.03571613 0.00349356 0.00332278 0.10477284 0.00851634 0.00961698 0.01481577 0.00128910 
0.02399268 0.07486000 0.01034605 0.00348222 0.00166929 0.00272649 0.01381821 0.00809859 0.03618516 0.00349443 0.00332436 0.10551242 0.00835951 0.00944626 0.01468168 0.00128698 
0.02382163 0.07477485 0.00991697 0.00344524 0.00163270 0.00269200 0.01375344 0.00809022 0.03663429 0.00349449 0.00332385 0.10617195 0.00822172 0.00928347 0.01456777 0.00128490 
0.02365424 0.07470599 0.00950378 0.00341109 0.00159745 0.00266765 0.01367319 0.00807941 0.03706171 0.00349367 0.00332119 0.10674992 0.00810352 0.00912942 0.01447484 0.00128285 
0.02349309 0.07465358 0.00910747 0.00337981 0.00156359 0.00265350 0.01357803 0.00806603 0.03746569 0.00349190 0.00331638 0.10724542 0.00800536 0.00898494 0.01440358 0.00128085 
0.02334083 0.07461753 0.00872897 0.00335145 0.00153122 0.00264955 0.01346861 0.00804995 0.03784458 0.00348912 0.00330940 0.10765813 0.00792756 0.00885084 0.01435459 0.00127890 
0.02320021 0.07459753 0.00836910 0.00332601 0.00150041 0.00265574 0.01334564 0.00803108 0.03819684 0.00348528 0.00330026 0.10798834 0.00787031 0.00872791 0.01432841 0.00127702 
0.02307400 0.07459304 0.00802863 0.00330348 0.00147121 0.00267196 0.01320994 0.00800933 0.03852103 0.00348035 0.00328894 0.10823690 0.00783369 0.00861691 0.01432546 0.00127521 
0.02296503 0.07460329 0.00770824 0.00328384 0.00144367 0.00269806 0.01306235 0.00798465 0.03881581 0.00347428 0.00327548 0.10840524 0.00781765 0.00851856 0.01434608 0.00127347 
0.02287614 0.07462729 0.00740850 0.00326704 0.00141786 0.00273382 0.01290382 0.00795699 0.03907997 0.00346705 0.00325988 0.10849539 0.00782203 0.00843355 0.01439052 0.00127183 
0.02281020 0.07466385 0.00712993 0.00325300 0.00139381 0.00277900 0.01273532 0.00792632 0.03931242 0.00345865 0.00324219 0.10850988 0.00784654 0.00836253 0.01445891 0.00127027 
0.02277006 0.07471160 0.00687294 0.00324165 0.00137156 0.00283328 0.01255788 0.00789265 0.03951220 0.00344907 0.00322245 0.10845180 0.00789079 0.00830611 0.01455130 0.00126881 
0.02275855 0.07476897 0.00663785 0.00323288 0.00135113 0.00289633 0.01237259 0.00785599 0.03967845 0.00343831 0.00320069 0.10832473 0.00795424 0.00826484 0.01466763 0.00126746 
0.02277846 0.07483423 0.00642491 0.00322659 0.00133256 0.00296775 0.01218053 0.00781638 0.03981049 0.00342638 0.00317697 0.10813273 0.00803627 0.00823920 0.01480773 0.00126621 
0.02283254 0.07490552 0.00623425 0.00322263 0.00131586 0.00304710 0.01198284 0.00777386 0.03990772 0.00341330 0.00315135 0.10788028 0.00813615 0.00822964 0.01497133 0.00126509 
0.02292346 0.07498084 0.00606596 0.00322087 0.00130104 0.00313391 0.01178067 0.00772853 0.03996972 0.00339909 0.00312390 0.10757228 0.00825303 0.00823652 0.01515807 0.00126408 
0.02305382 0.07505808 0.00591998 0.00322116 0.00128812 0.00322768 0.01157517 0.00768046 0.03999619 0.00338379 0.00309469 0.10721397 0.00838598 0.00826014 0.01536747 0.00126320 
0.02322609 0.07513504 0.00579623 0.00322334 0.00127708 0.00332786 0.01136750 0.00762976 0.03998694 0.00336744 0.00306379 0.10681091 0.00853397 0.00830073 0.01559897 0.00126245 
0.02344265 0.07520944 0.00569449 0.00322724 0.00126794 0.00343388 0.01115880 0.00757657 0.03994193 0.00335008 0.00303128 0.10636893 0.00869590 0.00835844 0.01585188 0.00126184 
0.02370573 0.07527898 0.00561449 0.00323268 0.00126068 0.00354515 0.01095020 0.00752101 0.03986127 0.00333177 0.00299726 0.10589406 0.00887059 0.00843335 0.01612543 0.00126137 
0.02401743 0.07534130 0.00555588 0.00323950 0.00125530 0.00366104 0.01074281 0.00746326 0.03974517 0.00331257 0.00296181 0.10539253 0.00905676 0.00852544 0.01641874 0.00126103 
0.02437966 0.07539407 0.00551822 0.00324752 0.00125177 0.00378091 0.01053771 0.00740348 0.03959398 0.00329254 0.00292503 0.10487064 0.00925312 0.00863464 0.01673087 0.00126085 
0.02479416 0.07543493 0.00550099 0.00325655 0.00125008 0.00390409 0.01033593 0.00734185 0.03940814 0.00327175 0.00288702 0.10433478 0.00945829 0.00876075 0.01706074 0.00126081 
0.02526249 0.07546161 0.00550362 0.00326642 0.00125021 0.00402991 0.01013846 0.00727858 0.03918825 0.00325028 0.00284787 0.10379132 0.00967086 0.00890351 0.01740722 0.00126091 
0.02578599 0.07547187 0.00552546 0.00327696 0.00125212 0.00415769 0.00994624 0.00721386 0.03893500 0.00322820 0.00280770 0.10324659 0.00988939 0.00906258 0.01776907 0.00126117 
0.02636577 0.07546355 0.00556581 0.00328799 0.00125580 0.00428674 0.00976015 0.00714792 0.03864918 0.00320559 0.00276661 0.10270682 0.01011240 0.00923752 0.01814499 0.00126157 
0.02700272 0.07543461 0.00562389 0.00329935 0.00126122 0.00441635 0.00958100 0.00708099 0.03833168 0.00318254 0.00272470 0.10217806 0.01033841 0.00942779 0.01853359 0.00126213 
0.02769749 0.07538313 0.00569888 0.00331088 0.00126833 0.00454585 0.00940953 0.00701329 0.03798349 0.00315913 0.00268210 0.10166614 0.01056591 0.00963279 0.01893342 0.00126284 
0.02845045 0.07530732 0.00578993 0.00332244 0.00127710 0.00467453 0.00924642 0.00694507 0.03760569 0.00313544 0.00263891 0.10117665 0.01079341 0.00985181 0.01934297 0.00126369 
0.02926173 0.07520555 0.00589610 0.00333389 0.00128751 0.00480173 0.00909224 0.00687656 0.03719945 0.00311156 0.00259526 0.10071484 0.01101943 0.01008408 0.01976064 0.00126469 
0.03013117 0.07507637 0.00601646 0.00334510 0.00129950 0.00492676 0.00894750 0.00680802 0.03676598 0.00308758 0.00255125 0.10028559 0.01124251 0.01032871 0.02018481 0.00126583 
0.03105833 0.07491854 0.00615001 0.00335595 0.00131304 0.00504898 0.00881263 0.00673970 0.03630658 0.00306359 0.00250701 0.09989340 0.01146120 0.01058477 0.02061380 0.00126712 
0.03204248 0.07473099 0.00629575 0.00336634 0.00132809 0.00516775 0.00868795 0.00667184 0.03582263 0.00303966 0.00246265 0.09954227 0.01167411 0.01085123 0.02104588 0.00126854 
0.03308260 0.07451290 0.00645265 0.00337618 0.00134460 0.00528246 0.00857371 0.00660469 0.03531553 0.00301589 0.00241831 0.09923577 0.01187989 0.01112700 0.02147931 0.00127009 
0.03417738 0.07426366 0.00661965 0.00338539 0.00136254 0.00539251 0.00847006 0.00653851 0.03478674 0.00299235 0.00237410 0.09897691 0.01207723 0.01141091 0.02191230 0.00127178 
0.03532520 0.07398291 0.00679570 0.00339390 0.00138185 0.00549735 0.00837707 0.00647352 0.03423778 0.00296912 0.00233014 0.09876815 0.01226491 0.01170174 0.02234306 0.00127358 
0.03652414 0.07367053 0.00697974 0.00340167 0.00140249 0.00559645 0.00829470 0.00640998 0.03367017 0.00294628 0.00228656 0.09861140 0.01244174 0.01199818 0.02276976 0.00127551 
0.03777199 0.07332665 0.00717070 0.00340867 0.00142442 0.00568932 0.00822285 0.00634811 0.03308550 0.00292390 0.00224349 0.09850795 0.01260664 0.01229892 0.02319059 0.00127755 
0.03906622 0.07295165 0.00736753 0.00341486 0.00144759 0.00577548 0.00816133 0.00628813 0.03248534 0.00290206 0.00220105 0.09845849 0.01275859 0.01260255 0.02360373 0.00127969 
0.04040404 0.07254617 0.00756919 0.00342025 0.00147195 0.00585452 0.00810984 0.00623027 0.03187132 0.00288081 0.00215937 0.09846310 0.01289666 0.01290764 0.02400739 0.00128193 
0.04178234 0.07211112 0.00777465 0.00342483 0.00149746 0.00592605 0.00806803 0.00617473 0.03124505 0.00286021 0.00211857 0.09852122 0.01302001 0.01321275 0.02439977 0.00128425 
0.04319775 0.07164764 0.00798293 0.00342862 0.00152406 0.00598975 0.00803548 0.00612170 0.03060817 0.00284033 0.00207880 0.09863167 0.01312791 0.01351637 0.02477911 0.00128666 
0.04464662 0.07115713 0.00819305 0.00343167 0.00155170 0.00604530 0.00801168 0.00607137 0.02996231 0.00282122 0.00204017 0.09879269 0.01321971 0.01381700 0.02514370 0.00128914 
0.04612504 0.07064122 0.00840408 0.00343400 0.00158034 0.00609247 0.00799607 0.00602390 0.02930912 0.00280293 0.00200282 0.09900186 0.01329488 0.01411312 0.02549185 0.00129169 
0.04762886 0.07010180 0.00861512 0.00343567 0.00160992 0.00613105 0.00798802 0.00597947 0.02865022 0.00278549 0.00196687 0.09925624 0.01335297 0.01440320 0.02582193 0.00129428 
0.04915367 0.06954096 0.00882531 0.00343675 0.00164039 0.00616087 0.00798687 0.00593820 0.02798725 0.00276895 0.00193247 0.09955226 0.01339366 0.01468574 0.02613236 0.00129692 
0.05069486 0.06896101 0.00903385 0.00343729 0.00167170 0.00618184 0.00799189 0.00590023 0.02732182 0.00275334 0.00189973 0.09988588 0.01341673 0.01495921 0.02642163 0.00129960 
0.05224762 0.06836445 0.00923999 0.00343739 0.00170379 0.00619389 0.00800234 0.00586568 0.02665554 0.00273869 0.00186880 0.10025252 0.01342206 0.01522214 0.02668831 0.00130229 
0.05380693 0.06775397 0.00944302 0.00343713 0.00173660 0.00619701 0.00801742 0.00583464 0.02599001 0.00272502 0.00183979 0.10064715 0.01340964 0.01547306 0.02693105 0.00130500 
0.05536763 0.06713243 0.00964229 0.00343660 0.00177008 0.00619123 0.00803634 0.00580719 0.02532680 0.00271236 0.00181286 0.10106431 0.01337956 0.01571057 0.02714856 0.00130771 
0.05692441 0.06650282 0.00983722 0.00343589 0.00180417 0.00617663 0.00805828 0.00578340 0.02466749 0.00270072 0.00178812 0.10149817 0.01333203 0.01593328 0.02733968 0.00131041 
0.05847183 0.06586827 0.01002728 0.00343509 0.00183880 0.00615335 0.00808242 0.00576332 0.02401360 0.00269010 0.00176570 0.10194256 0.01326734 0.01613989 0.02750332 0.00131308 
0.06000435 0.06523201 0.01021202 0.00343431 0.00187392 0.00612156 0.00810793 0.00574698 0.02336668 0.00268053 0.00174574 0.10239107 0.01318588 0.01632912 0.02763852 0.00131572 
0.06151637 0.06459735 0.01039104 0.00343365 0.00190946 0.00608148 0.00813400 0.00573440 0.02272824 0.00267200 0.00172836 0.10283702 0.01308815 0.01649980 0.02774441 0.00131832 
0.06300224 0.06396768 0.01056399 0.00343319 0.00194536 0.00603337 0.00815986 0.00572557 0.02209975 0.00266450 0.00171368 0.10327360 0.01297472 0.01665081 0.02782024 0.00132086 
0.06445628 0.06334639 0.01073062 0.00343304 0.00198154 0.00597753 0.00818473 0.00572049 0.02148270 0.00265805 0.00170184 0.10369389 0.01284626 0.01678112 0.02786539 0.00132333 
0.06587282 0.06273693 0.01089073 0.00343329 0.00201793 0.00591430 0.00820789 0.00571912 0.02087854 0.00265262 0.00169294 0.10409093 0.01270349 0.01688981 0.02787935 0.00132573 
0.06724623 0.06214269 0.01104416 0.00343402 0.00205447 0.00584407 0.00822865 0.00572143 0.02028870 0.00264821 0.00168712 0.10445776 0.01254723 0.01697604 0.02786176 0.00132803 
0.06857093 0.06156706 0.01119085 0.00343531 0.00209108 0.00576724 0.00824638 0.00572733 0.01971458 0.00264481 0.00168447 0.10478753 0.01237835 0.01703907 0.02781237 0.00133023 
0.06984144 0.06101333 0.01133078 0.00343724 0.00212768 0.00568425 0.00826050 0.00573678 0.01915759 0.00264241 0.00168512 0.10507351 0.01219778 0.01707827 0.02773107 0.00133232 
0.07105241 0.06048475 0.01146399 0.00343987 0.00216420 0.00559559 0.00827049 0.00574967 0.01861910 0.00264097 0.00168916 0.10530918 0.01200652 0.01709313 0.02761788 0.00133429 
0.07219863 0.05998441 0.01159058 0.00344326 0.00220055 0.00550175 0.00827591 0.00576591 0.01810046 0.00264050 0.00169670 0.10548828 0.01180558 0.01708327 0.02747296 0.00133613 
0.07327505 0.05951529 0.01171071 0.00344746 0.00223665 0.00540325 0.00827638 0.00578539 0.01760299 0.00264096 0.00170783 0.10560487 0.01159604 0.01704840 0.02729662 0.00133782 
0.07427684 0.05908021 0.01182457 0.00345250 0.00227242 0.00530062 0.00827159 0.00580800 0.01712802 0.00264235 0.00172263 0.10565339 0.01137898 0.01698839 0.02708929 0.00133936 
0.07519942 0.05868180 0.01193242 0.00345842 0.00230777 0.00519443 0.00826133 0.00583360 0.01667682 0.00264462 0.00174119 0.10562871 0.01115552 0.01690321 0.02685154 0.00134074 
0.07603845 0.05832247 0.01203455 0.00346523 0.00234262 0.00508525 0.00824547 0.00586205 0.01625066 0.00264777 0.00176358 0.10552617 0.01092679 0.01679296 0.02658407 0.00134196 
0.07678987 0.05800444 0.01213128 0.00347294 0.00237687 0.00497365 0.00822397 0.00589322 0.01585076 0.00265176 0.00178987 0.10534164 0.01069392 0.01665789 0.02628772 0.00134299 
0.07744995 0.05772966 0.01222297 0.00348155 0.00241043 0.00486022 0.00819685 0.00592695 0.01547835 0.00265658 0.00182010 0.10507156 0.01045804 0.01649837 0.02596347 0.00134384 
0.07801527 0.05749982 0.01231002 0.00349104 0.00244322 0.00474554 0.00816425 0.00596308 0.01513459 0.00266219 0.00185432 0.10471298 0.01022028 0.01631489 0.02561239 0.00134450 
0.07848280 0.05731632 0.01239284 0.00350139 0.00247515 0.00463019 0.00812640 0.00600146 0.01482063 0.00266859 0.00189256 0.10426356 0.00998174 0.01610808 0.02523572 0.00134497 
0.07884986 0.05718030 0.01247186 0.00351256 0.00250611 0.00451476 0.00808359 0.00604193 0.01453757 0.00267573 0.00193486 0.10372166 0.00974351 0.01587870 0.02483478 0.00134523 
0.07911418 0.05709257 0.01254752 0.00352450 0.00253603 0.00439982 0.00803622 0.00608432 0.01428648 0.00268360 0.00198121 0.10308631 0.00950662 0.01562762 0.02441102 0.00134529 
0.07927389 0.05705362 0.01262027 0.00353716 0.00256480 0.00428592 0.00798477 0.00612846 0.01406839 0.00269218 0.00203163 0.10235725 0.00927210 0.01535584 0.02396599 0.00134513 
0.07932757 0.05706362 0.01269056 0.00355048 0.00259234 0.00417362 0.00792980 0.00617419 0.01388425 0.00270144 0.00208609 0.10153494 0.00904093 0.01506447 0.02350135 0.00134476 
0.07927422 0.05712241 0.01275885 0.00356438 0.00261856 0.00406342 0.00787193 0.00622135 0.01373501 0.00271136 0.00214457 0.10062057 0.00881401 0.01475475 0.02301884 0.00134418 
0.07911330 0.05722950 0.01282557 0.00357877 0.00264336 0.00395585 0.00781188 0.00626977 0.01362151 0.00272191 0.00220702 0.09961605 0.00859223 0.01442800 0.02252028 0.00134338 
0.07884474 0.05738405 0.01289115 0.00359358 0.00266667 0.00385138 0.00775042 0.00631930 0.01354455 0.00273307 0.00227340 0.09852401 0.00837640 0.01408565 0.02200759 0.00134237 
0.07846894 0.05758488 0.01295599 0.00360871 0.00268839 0.00375046 0.00768838 0.00636978 0.01350487 0.00274483 0.00234364 0.09734779 0.00816727 0.01372925 0.02148275 0.00134114 
0.07798674 0.05783049 0.01302049 0.00362406 0.00270844 0.00365353 0.00762665 0.00642107 0.01350312 0.00275715 0.00241764 0.09609142 0.00796553 0.01336040 0.02094777 0.00133969 
0.07739949 0.05811904 0.01308498 0.00363952 0.00272675 0.00356096 0.00756618 0.00647300 0.01353987 0.00277002 0.00249532 0.09475959 0.00777181 0.01298079 0.02040476 0.00133803 
0.07670899 0.05844836 0.01314981 0.00365500 0.00274324 0.00347312 0.00750793 0.00652546 0.01361562 0.00278341 0.00257655 0.09335767 0.00758665 0.01259220 0.01985583 0.00133617 
0.07591751 0.05881599 0.01321524 0.00367038 0.00275783 0.00339034 0.00745291 0.00657829 0.01373075 0.00279731 0.00266121 0.09189159 0.00741053 0.01219645 0.01930314 0.00133410 
0.07502778 0.05921914 0.01328154 0.00368556 0.00277046 0.00331290 0.00740216 0.00663139 0.01388555 0.00281168 0.00274915 0.09036788 0.00724387 0.01179541 0.01874887 0.00133182 
0.07404297 0.05965476 0.01334889 0.00370042 0.00278107 0.00324104 0.00735671 0.00668461 0.01408024 0.00282650 0.00284021 0.08879360 0.00708701 0.01139103 0.01819520 0.00132936 
0.07296672 0.06011950 0.01341746 0.00371486 0.00278959 0.00317499 0.00731761 0.00673786 0.01431487 0.00284175 0.00293421 0.08717628 0.00694022 0.01098524 0.01764432 0.00132671 
0.07180305 0.06060978 0.01348735 0.00372878 0.00279597 0.00311489 0.00728592 0.00679102 0.01458942 0.00285741 0.00303097 0.08552390 0.00680368 0.01058005 0.01709840 0.00132387 
0.07055642 0.06112178 0.01355862 0.00374207 0.00280017 0.00306089 0.00726265 0.00684400 0.01490373 0.00287344 0.00313028 0.08384479 0.00667752 0.01017745 0.01655959 0.00132087 
0.06923166 0.06165146 0.01363127 0.00375464 0.00280214 0.00301307 0.00724883 0.00689670 0.01525751 0.00288982 0.00323191 0.08214763 0.00656182 0.00977943 0.01603001 0.00131771 
0.06783398 0.06219461 0.01370525 0.00376640 0.00280185 0.00297146 0.00724542 0.00694905 0.01565034 0.00290651 0.00333565 0.08044135 0.00645655 0.00938800 0.01551175 0.00131440 
0.06636892 0.06274685 0.01378046 0.00377725 0.00279928 0.00293608 0.00725336 0.00700096 0.01608169 0.00292350 0.00344122 0.07873507 0.00636165 0.00900513 0.01500683 0.00131095 
0.06484234 0.06330365 0.01385673 0.00378713 0.00279439 0.00290689 0.00727354 0.00705238 0.01655085 0.00294074 0.00354839 0.07703805 0.00627700 0.00863279 0.01451720 0.00130737 
0.06326038 0.06386040 0.01393387 0.00379595 0.00278718 0.00288380 0.00730679 0.00710323 0.01705700 0.00295820 0.00365687 0.07535963 0.00620242 0.00827288 0.01404477 0.00130368 
0.06162946 0.06441239 0.01401159 0.00380366 0.00277764 0.00286671 0.00735386 0.00715346 0.01759917 0.00297584 0.00376639 0.07370914 0.00613766 0.00792727 0.01359134 0.00129989 
0.05995620 0.06495486 0.01408959 0.00381019 0.00276577 0.00285546 0.00741545 0.00720302 0.01817622 0.00299363 0.00387664 0.07209587 0.00608247 0.00759778 0.01315863 0.00129601 
0.05824744 0.06548304 0.01416750 0.00381551 0.00275159 0.00284986 0.00749215 0.00725188 0.01878690 0.00301151 0.00398734 0.07052895 0.00603650 0.00728616 0.01274826 0.00129206 
0.05651016 0.06599218 0.01424491 0.00381958 0.00273510 0.00284969 0.00758448 0.00729999 0.01942981 0.00302946 0.00409815 0.06901734 0.00599940 0.00699407 0.01236174 0.00128806 
0.05475149 0.06647754 0.01432135 0.00382236 0.00271634 0.00285469 0.00769286 0.00734733 0.02010337 0.00304742 0.00420877 0.06756976 0.00597079 0.00672310 0.01200047 0.00128401 
0.05297861 0.06693448 0.01439632 0.00382385 0.00269533 0.00286458 0.00781761 0.00739386 0.02080591 0.00306534 0.00431888 0.06619457 0.00595024 0.00647475 0.01166573 0.00127995 
0.05119881 0.06735847 0.01446929 0.00382403 0.00267212 0.00287905 0.00795894 0.00743957 0.02153558 0.00308317 0.00442814 0.06489979 0.00593732 0.00625041 0.01135866 0.00127587 
0.04941934 0.06774509 0.01453968 0.00382290 0.00264676 0.00289775 0.00811697 0.00748444 0.02229041 0.00310087 0.00453621 0.06369300 0.00593156 0.00605136 0.01108028 0.00127181 
0.04764747 0.06809009 0.01460688 0.00382048 0.00261930 0.00292033 0.00829167 0.00752845 0.02306831 0.00311837 0.00464277 0.06258127 0.00593250 0.00587877 0.01083146 0.00126778 
0.04589040 0.06838944 0.01467027 0.00381679 0.00258982 0.00294642 0.00848295 0.00757159 0.02386706 0.00313563 0.00474747 0.06157116 0.00593967 0.00573370 0.01061294 0.00126379 
0.04415524 0.06863931 0.01472919 0.00381185 0.00255838 0.00297561 0.00869055 0.00761386 0.02468431 0.00315257 0.00484999 0.06066864 0.00595257 0.00561706 0.01042531 0.00125987 
0.04244897 0.06883611 0.01478297 0.00380571 0.00252506 0.00300749 0.00891412 0.00765526 0.02551762 0.00316915 0.00494998 0.05987904 0.00597074 0.00552964 0.01026901 0.00125602 
