0.00944429 0.00607102 0.00405882 0.00735098 0.00352570 0.01240386 0.00303695 0.00664667 0.02414082 0.00883936 0.00157304 0.00367229 0.00541180 0.00349877 0.00494363 0.00027464 
0.00981824 0.00602469 0.00408628 0.00726679 0.00338373 0.01201946 0.00300792 0.00662801 0.02387654 0.00852350 0.00155472 0.00367151 0.00541295 0.00349314 0.00494838 0.00028395 
0.01023009 0.00596921 0.00411671 0.00717694 0.00324231 0.01162481 0.00297686 0.00660580 0.02360108 0.00820496 0.00153636 0.00366584 0.00541105 0.00348385 0.00495462 0.00029529 
0.01067626 0.00590519 0.00415026 0.00708185 0.00310190 0.01122146 0.00294392 0.00657997 0.02331524 0.00788488 0.00151799 0.00365527 0.00540583 0.00347089 0.00496215 0.00030867 
0.01115304 0.00583334 0.00418706 0.00698193 0.00296294 0.01081096 0.00290929 0.00655045 0.02301993 0.00756437 0.00149966 0.00363980 0.00539705 0.00345427 0.00497075 0.00032407 
0.01165665 0.00575446 0.00422722 0.00687761 0.00282585 0.01039489 0.00287317 0.00651719 0.02271610 0.00724449 0.00148140 0.00361946 0.00538452 0.00343400 0.00498020 0.00034147 
0.01218321 0.00566943 0.00427085 0.00676932 0.00269104 0.00997480 0.00283577 0.00648013 0.02240477 0.00692631 0.00146322 0.00359428 0.00536803 0.00341013 0.00499029 0.00036084 
0.01272883 0.00557919 0.00431804 0.00665750 0.00255893 0.00955225 0.00279735 0.00643925 0.02208702 0.00661083 0.00144516 0.00356433 0.00534743 0.00338271 0.00500077 0.00038213 
0.01328957 0.00548477 0.00436887 0.00654258 0.00242989 0.00912879 0.00275817 0.00639451 0.02176399 0.00629902 0.00142723 0.00352969 0.00532257 0.00335181 0.00501143 0.00040532 
0.01386154 0.00538728 0.00442341 0.00642500 0.00230427 0.00870591 0.00271851 0.00634589 0.02143687 0.00599182 0.00140946 0.00349046 0.00529335 0.00331754 0.00502202 0.00043034 
0.01444089 0.00528788 0.00448171 0.00630520 0.00218243 0.00828511 0.00267868 0.00629339 0.02110691 0.00569012 0.00139184 0.00344675 0.00525969 0.00327998 0.00503232 0.00045714 
0.01502382 0.00518778 0.00454380 0.00618360 0.00206468 0.00786781 0.00263901 0.00623701 0.02077537 0.00539476 0.00137440 0.00339872 0.00522153 0.00323927 0.00504210 0.00048566 
0.01560665 0.00508827 0.00460973 0.00606062 0.00195132 0.00745543 0.00259984 0.00617678 0.02044360 0.00510650 0.00135714 0.00334649 0.00517886 0.00319554 0.00505113 0.00051581 
0.01618584 0.00499066 0.00467949 0.00593669 0.00184263 0.00704930 0.00256153 0.00611273 0.02011293 0.00482610 0.00134006 0.00329025 0.00513168 0.00314893 0.00505920 0.00054753 
0.01675797 0.00489631 0.00475311 0.00581221 0.00173884 0.00665070 0.00252445 0.00604491 0.01978474 0.00455422 0.00132317 0.00323017 0.00508004 0.00309959 0.00506607 0.00058072 
0.01731982 0.00480663 0.00483057 0.00568756 0.00164019 0.00626085 0.00248897 0.00597339 0.01946042 0.00429147 0.00130647 0.00316646 0.00502401 0.00304771 0.00507156 0.00061529 
0.01786836 0.00472304 0.00491186 0.00556314 0.00154687 0.00588089 0.00245550 0.00589825 0.01914138 0.00403842 0.00128997 0.00309931 0.00496369 0.00299345 0.00507545 0.00065116 
0.01840078 0.00464695 0.00499694 0.00543930 0.00145905 0.00551191 0.00242443 0.00581959 0.01882901 0.00379555 0.00127366 0.00302896 0.00489922 0.00293701 0.00507755 0.00068821 
0.01891452 0.00457982 0.00508579 0.00531639 0.00137688 0.00515489 0.00239616 0.00573752 0.01852470 0.00356330 0.00125755 0.00295562 0.00483075 0.00287857 0.00507769 0.00072634 
0.01940726 0.00452309 0.00517835 0.00519475 0.00130046 0.00481076 0.00237110 0.00565217 0.01822982 0.00334204 0.00124164 0.00287955 0.00475849 0.00281834 0.00507570 0.00076544 
0.01987697 0.00447818 0.00527457 0.00507470 0.00122989 0.00448033 0.00234967 0.00556370 0.01794572 0.00313208 0.00122593 0.00280100 0.00468265 0.00275652 0.00507141 0.00080540 
0.02032189 0.00444650 0.00537438 0.00495652 0.00116523 0.00416435 0.00233226 0.00547227 0.01767369 0.00293367 0.00121042 0.00272022 0.00460349 0.00269332 0.00506469 0.00084609 
0.02074057 0.00442943 0.00547771 0.00484049 0.00110651 0.00386347 0.00231927 0.00537805 0.01741499 0.00274698 0.00119513 0.00263748 0.00452126 0.00262895 0.00505540 0.00088740 
0.02113187 0.00442830 0.00558448 0.00472688 0.00105374 0.00357825 0.00231110 0.00528124 0.01717084 0.00257214 0.00118007 0.00255305 0.00443628 0.00256362 0.00504342 0.00092920 
0.02149495 0.00444440 0.00569460 0.00461591 0.00100688 0.00330915 0.00230813 0.00518205 0.01694236 0.00240922 0.00116525 0.00246721 0.00434886 0.00249755 0.00502865 0.00097137 
0.02182930 0.00447895 0.00580798 0.00450781 0.00096591 0.00305656 0.00231072 0.00508071 0.01673061 0.00225821 0.00115068 0.00238023 0.00425934 0.00243094 0.00501101 0.00101377 
0.02213471 0.00453311 0.00592452 0.00440277 0.00093073 0.00282075 0.00231923 0.00497744 0.01653658 0.00211907 0.00113639 0.00229239 0.00416810 0.00236401 0.00499042 0.00105629 
0.02241130 0.00460796 0.00604410 0.00430097 0.00090126 0.00260193 0.00233401 0.00487251 0.01636114 0.00199170 0.00112240 0.00220399 0.00407549 0.00229696 0.00496682 0.00109879 
0.02265951 0.00470449 0.00616661 0.00420257 0.00087737 0.00240018 0.00235535 0.00476617 0.01620509 0.00187593 0.00110874 0.00211530 0.00398193 0.00222999 0.00494017 0.00114115 
0.02288009 0.00482358 0.00629193 0.00410771 0.00085891 0.00221553 0.00238355 0.00465869 0.01606911 0.00177155 0.00109545 0.00202661 0.00388782 0.00216331 0.00491046 0.00118324 
0.02307407 0.00496603 0.00641993 0.00401649 0.00084572 0.00204791 0.00241889 0.00455035 0.01595376 0.00167832 0.00108257 0.00193820 0.00379357 0.00209711 0.00487767 0.00122493 
0.02324279 0.00513250 0.00655047 0.00392903 0.00083761 0.00189717 0.00246158 0.00444144 0.01585948 0.00159593 0.00107014 0.00185036 0.00369962 0.00203157 0.00484180 0.00126609 
0.02338786 0.00532354 0.00668341 0.00384541 0.00083436 0.00176307 0.00251185 0.00433226 0.01578660 0.00152405 0.00105821 0.00176335 0.00360641 0.00196687 0.00480289 0.00130661 
0.02351116 0.00553958 0.00681861 0.00376569 0.00083577 0.00164530 0.00256987 0.00422311 0.01573531 0.00146229 0.00104684 0.00167746 0.00351437 0.00190318 0.00476097 0.00134637 
0.02361479 0.00578090 0.00695590 0.00368993 0.00084157 0.00154348 0.00263577 0.00411429 0.01570566 0.00141025 0.00103610 0.00159296 0.00342396 0.00184068 0.00471609 0.00138524 
0.02370111 0.00604764 0.00709512 0.00361815 0.00085152 0.00145717 0.00270967 0.00400612 0.01569758 0.00136749 0.00102605 0.00151012 0.00333562 0.00177950 0.00466834 0.00142312 
0.02377266 0.00633981 0.00723610 0.00355039 0.00086535 0.00138585 0.00279163 0.00389889 0.01571085 0.00133353 0.00101676 0.00142919 0.00324978 0.00171979 0.00461778 0.00145990 
0.02383218 0.00665725 0.00737867 0.00348665 0.00088277 0.00132895 0.00288168 0.00379293 0.01574512 0.00130788 0.00100832 0.00135043 0.00316691 0.00166170 0.00456453 0.00149546 
0.02388255 0.00699967 0.00752264 0.00342692 0.00090349 0.00128585 0.00297982 0.00368853 0.01579990 0.00129003 0.00100081 0.00127408 0.00308743 0.00160533 0.00450869 0.00152972 
0.02392681 0.00736660 0.00766780 0.00337120 0.00092721 0.00125587 0.00308599 0.00358601 0.01587457 0.00127945 0.00099432 0.00120040 0.00301177 0.00155081 0.00445040 0.00156257 
0.02396807 0.00775743 0.00781397 0.00331946 0.00095362 0.00123830 0.00320010 0.00348567 0.01596838 0.00127560 0.00098895 0.00112961 0.00294035 0.00149824 0.00438978 0.00159393 
0.02400956 0.00817138 0.00796092 0.00327168 0.00098242 0.00123239 0.00332202 0.00338780 0.01608042 0.00127792 0.00098480 0.00106194 0.00287359 0.00144771 0.00432700 0.00162371 
0.02405453 0.00860753 0.00810843 0.00322780 0.00101329 0.00123735 0.00345157 0.00329269 0.01620970 0.00128587 0.00098196 0.00099760 0.00281188 0.00139930 0.00426222 0.00165184 
0.02410628 0.00906480 0.00825628 0.00318780 0.00104591 0.00125237 0.00358855 0.00320063 0.01635509 0.00129887 0.00098055 0.00093680 0.00275561 0.00135307 0.00419561 0.00167824 
0.02416807 0.00954195 0.00840421 0.00315161 0.00107998 0.00127662 0.00373270 0.00311188 0.01651536 0.00131638 0.00098068 0.00087975 0.00270514 0.00130909 0.00412735 0.00170285 
0.02424317 0.01003760 0.00855199 0.00311919 0.00111517 0.00130926 0.00388373 0.00302671 0.01668915 0.00133785 0.00098246 0.00082662 0.00266083 0.00126740 0.00405764 0.00172561 
0.02433475 0.01055022 0.00869934 0.00309048 0.00115119 0.00134942 0.00404130 0.00294537 0.01687504 0.00136272 0.00098601 0.00077761 0.00262300 0.00122804 0.00398668 0.00174648 
0.02444591 0.01107815 0.00884599 0.00306542 0.00118774 0.00139626 0.00420505 0.00286809 0.01707150 0.00139048 0.00099143 0.00073287 0.00259196 0.00119103 0.00391467 0.00176539 
0.02457962 0.01161959 0.00899167 0.00304396 0.00122452 0.00144890 0.00437457 0.00279510 0.01727695 0.00142060 0.00099886 0.00069256 0.00256802 0.00115638 0.00384183 0.00178233 
0.02473872 0.01217264 0.00913608 0.00302602 0.00126125 0.00150651 0.00454942 0.00272661 0.01748973 0.00145257 0.00100840 0.00065684 0.00255142 0.00112410 0.00376839 0.00179726 
0.02492588 0.01273525 0.00927892 0.00301156 0.00129765 0.00156823 0.00472914 0.00266281 0.01770814 0.00148593 0.00102016 0.00062583 0.00254243 0.00109417 0.00369455 0.00181016 
0.02514356 0.01330530 0.00941987 0.00300051 0.00133348 0.00163325 0.00491321 0.00260388 0.01793044 0.00152022 0.00103428 0.00059965 0.00254125 0.00106659 0.00362055 0.00182101 
0.02539400 0.01388056 0.00955862 0.00299281 0.00136847 0.00170076 0.00510113 0.00254997 0.01815486 0.00155498 0.00105084 0.00057843 0.00254809 0.00104132 0.00354663 0.00182982 
0.02567924 0.01445873 0.00969484 0.00298842 0.00140240 0.00176999 0.00529233 0.00250124 0.01837962 0.00158983 0.00106997 0.00056225 0.00256311 0.00101833 0.00347300 0.00183657 
0.02600102 0.01503743 0.00982818 0.00298726 0.00143506 0.00184018 0.00548625 0.00245781 0.01860296 0.00162438 0.00109176 0.00055121 0.00258644 0.00099756 0.00339990 0.00184127 
0.02636084 0.01561424 0.00995830 0.00298930 0.00146625 0.00191063 0.00568230 0.00241977 0.01882312 0.00165827 0.00111632 0.00054537 0.00261821 0.00097897 0.00332757 0.00184395 
0.02675989 0.01618667 0.01008485 0.00299448 0.00149578 0.00198064 0.00587987 0.00238723 0.01903837 0.00169119 0.00114373 0.00054479 0.00265850 0.00096250 0.00325622 0.00184462 
0.02719906 0.01675224 0.01020748 0.00300276 0.00152350 0.00204959 0.00607835 0.00236025 0.01924704 0.00172284 0.00117408 0.00054953 0.00270737 0.00094806 0.00318609 0.00184332 
0.02767894 0.01730843 0.01032582 0.00301408 0.00154927 0.00211686 0.00627711 0.00233888 0.01944750 0.00175298 0.00120745 0.00055960 0.00276484 0.00093559 0.00311740 0.00184007 
0.02819980 0.01785274 0.01043950 0.00302842 0.00157296 0.00218191 0.00647553 0.00232314 0.01963821 0.00178137 0.00124391 0.00057503 0.00283091 0.00092501 0.00305036 0.00183493 
0.02876158 0.01838267 0.01054817 0.00304572 0.00159446 0.00224423 0.00667298 0.00231306 0.01981771 0.00180783 0.00128351 0.00059582 0.00290555 0.00091621 0.00298518 0.00182794 
0.02936389 0.01889578 0.01065145 0.00306595 0.00161371 0.00230336 0.00686883 0.00230862 0.01998464 0.00183219 0.00132631 0.00062195 0.00298871 0.00090911 0.00292208 0.00181916 
0.03000603 0.01938966 0.01074898 0.00308908 0.00163065 0.00235888 0.00706246 0.00230980 0.02013775 0.00185434 0.00137236 0.00065340 0.00308029 0.00090360 0.00286124 0.00180864 
0.03068696 0.01986196 0.01084039 0.00311506 0.00164522 0.00241043 0.00725326 0.00231655 0.02027590 0.00187419 0.00142166 0.00069012 0.00318017 0.00089958 0.00280286 0.00179647 
0.03140534 0.02031044 0.01092534 0.00314386 0.00165742 0.00245771 0.00744064 0.00232880 0.02039810 0.00189167 0.00147426 0.00073206 0.00328820 0.00089694 0.00274711 0.00178270 
0.03215949 0.02073293 0.01100347 0.00317544 0.00166725 0.00250045 0.00762401 0.00234648 0.02050350 0.00190677 0.00153014 0.00077914 0.00340420 0.00089556 0.00269417 0.00176742 
0.03294746 0.02112738 0.01107444 0.00320977 0.00167474 0.00253844 0.00780282 0.00236948 0.02059140 0.00191948 0.00158930 0.00083127 0.00352797 0.00089534 0.00264419 0.00175071 
0.03376700 0.02149187 0.01113792 0.00324680 0.00167992 0.00257153 0.00797653 0.00239769 0.02066124 0.00192983 0.00165172 0.00088834 0.00365927 0.00089615 0.00259731 0.00173265 
0.03461560 0.02182461 0.01119360 0.00328651 0.00168285 0.00259961 0.00814463 0.00243098 0.02071265 0.00193789 0.00171737 0.00095022 0.00379783 0.00089788 0.00255368 0.00171334 
0.03549049 0.02212397 0.01124117 0.00332884 0.00168363 0.00262261 0.00830664 0.00246920 0.02074543 0.00194375 0.00178619 0.00101679 0.00394337 0.00090040 0.00251340 0.00169287 
0.03638867 0.02238850 0.01128036 0.00337375 0.00168234 0.00264052 0.00846212 0.00251218 0.02075954 0.00194752 0.00185812 0.00108787 0.00409555 0.00090360 0.00247660 0.00167133 
0.03730691 0.02261689 0.01131090 0.00342119 0.00167911 0.00265337 0.00861066 0.00255974 0.02075512 0.00194934 0.00193309 0.00116330 0.00425404 0.00090736 0.00244335 0.00164883 
0.03824183 0.02280805 0.01133255 0.00347110 0.00167405 0.00266123 0.00875187 0.00261169 0.02073250 0.00194936 0.00201101 0.00124289 0.00441846 0.00091156 0.00241374 0.00162547 
0.03918986 0.02296107 0.01134509 0.00352342 0.00166733 0.00266424 0.00888543 0.00266784 0.02069217 0.00194776 0.00209176 0.00132643 0.00458840 0.00091607 0.00238783 0.00160134 
0.04014731 0.02307526 0.01134833 0.00357809 0.00165909 0.00266253 0.00901103 0.00272795 0.02063482 0.00194473 0.00217524 0.00141371 0.00476345 0.00092080 0.00236566 0.00157656 
0.04111036 0.02315012 0.01134212 0.00363503 0.00164950 0.00265630 0.00912843 0.00279181 0.02056129 0.00194049 0.00226131 0.00150448 0.00494315 0.00092563 0.00234726 0.00155122 
0.04207512 0.02318539 0.01132632 0.00369417 0.00163875 0.00264578 0.00923742 0.00285917 0.02047261 0.00193525 0.00234983 0.00159850 0.00512705 0.00093044 0.00233265 0.00152545 
0.04303768 0.02318101 0.01130083 0.00375541 0.00162703 0.00263122 0.00933783 0.00292979 0.02036998 0.00192925 0.00244063 0.00169550 0.00531464 0.00093514 0.00232182 0.00149933 
0.04399406 0.02313716 0.01126560 0.00381866 0.00161453 0.00261291 0.00942954 0.00300341 0.02025472 0.00192272 0.00253354 0.00179521 0.00550541 0.00093962 0.00231476 0.00147297 
0.04494031 0.02305425 0.01122059 0.00388382 0.00160146 0.00259116 0.00951249 0.00307976 0.02012835 0.00191592 0.00262839 0.00189733 0.00569883 0.00094380 0.00231142 0.00144648 
0.04587254 0.02293291 0.01116582 0.00395077 0.00158802 0.00256629 0.00958663 0.00315859 0.01999250 0.00190909 0.00272497 0.00200157 0.00589436 0.00094758 0.00231175 0.00141996 
0.04678691 0.02277398 0.01110133 0.00401939 0.00157443 0.00253866 0.00965201 0.00323960 0.01984892 0.00190249 0.00282308 0.00210760 0.00609143 0.00095089 0.00231568 0.00139350 
0.04767965 0.02257856 0.01102722 0.00408955 0.00156090 0.00250863 0.00970866 0.00332253 0.01969952 0.00189636 0.00292252 0.00221510 0.00628947 0.00095364 0.00232312 0.00136721 
0.04854717 0.02234792 0.01094361 0.00416110 0.00154763 0.00247658 0.00975671 0.00340709 0.01954628 0.00189094 0.00302304 0.00232374 0.00648787 0.00095578 0.00233398 0.00134118 
0.04938600 0.02208358 0.01085069 0.00423391 0.00153485 0.00244288 0.00979630 0.00349299 0.01939129 0.00188650 0.00312443 0.00243319 0.00668604 0.00095723 0.00234812 0.00131550 
0.05019284 0.02178726 0.01074867 0.00430782 0.00152275 0.00240794 0.00982762 0.00357995 0.01923670 0.00188324 0.00322644 0.00254309 0.00688337 0.00095796 0.00236542 0.00129026 
0.05096460 0.02146086 0.01063781 0.00438265 0.00151155 0.00237213 0.00985091 0.00366768 0.01908474 0.00188141 0.00332883 0.00265309 0.00707924 0.00095792 0.00238572 0.00126553 
0.05169843 0.02110646 0.01051842 0.00445824 0.00150143 0.00233584 0.00986643 0.00375588 0.01893769 0.00188121 0.00343135 0.00276285 0.00727303 0.00095707 0.00240887 0.00124140 
0.05239171 0.02072636 0.01039084 0.00453440 0.00149258 0.00229947 0.00987449 0.00384428 0.01879783 0.00188284 0.00353374 0.00287201 0.00746411 0.00095539 0.00243467 0.00121795 
0.05304207 0.02032297 0.01025547 0.00461095 0.00148518 0.00226339 0.00987542 0.00393258 0.01866749 0.00188649 0.00363575 0.00298022 0.00765185 0.00095287 0.00246293 0.00119523 
0.05364745 0.01989887 0.01011274 0.00468770 0.00147940 0.00222797 0.00986960 0.00402052 0.01854897 0.00189233 0.00373713 0.00308713 0.00783564 0.00094951 0.00249346 0.00117332 
0.05420604 0.01945679 0.00996312 0.00476445 0.00147539 0.00219356 0.00985742 0.00410780 0.01844456 0.00190051 0.00383760 0.00319239 0.00801485 0.00094530 0.00252604 0.00115227 
0.05471637 0.01899955 0.00980715 0.00484098 0.00147331 0.00216050 0.00983930 0.00419417 0.01835652 0.00191116 0.00393692 0.00329567 0.00818887 0.00094027 0.00256044 0.00113213 
0.05517726 0.01853010 0.00964536 0.00491711 0.00147327 0.00212912 0.00981568 0.00427935 0.01828704 0.00192440 0.00403484 0.00339664 0.00835710 0.00093445 0.00259641 0.00111295 
0.05558785 0.01805145 0.00947836 0.00499262 0.00147539 0.00209971 0.00978704 0.00436308 0.01823824 0.00194031 0.00413109 0.00349499 0.00851894 0.00092786 0.00263373 0.00109476 
0.05594761 0.01756670 0.00930679 0.00506730 0.00147977 0.00207256 0.00975383 0.00444511 0.01821215 0.00195897 0.00422543 0.00359041 0.00867381 0.00092056 0.00267213 0.00107761 
0.05625631 0.01707898 0.00913130 0.00514094 0.00148649 0.00204791 0.00971657 0.00452520 0.01821069 0.00198043 0.00431762 0.00368262 0.00882117 0.00091261 0.00271136 0.00106151 
0.05651405 0.01659147 0.00895259 0.00521333 0.00149562 0.00202602 0.00967574 0.00460311 0.01823568 0.00200471 0.00440742 0.00377136 0.00896046 0.00090407 0.00275115 0.00104649 
0.05672124 0.01610734 0.00877140 0.00528429 0.00150720 0.00200707 0.00963184 0.00467862 0.01828878 0.00203181 0.00449461 0.00385638 0.00909116 0.00089503 0.00279124 0.00103256 
0.05687860 0.01562976 0.00858847 0.00535359 0.00152126 0.00199126 0.00958539 0.00475151 0.01837150 0.00206172 0.00457897 0.00393746 0.00921279 0.00088556 0.00283136 0.00101974 
0.05698713 0.01516189 0.00840459 0.00542105 0.00153781 0.00197872 0.00953689 0.00482159 0.01848520 0.00209439 0.00466029 0.00401441 0.00932486 0.00087578 0.00287123 0.00100801 
0.05704812 0.01470683 0.00822055 0.00548649 0.00155684 0.00196958 0.00948684 0.00488865 0.01863105 0.00212976 0.00473837 0.00408707 0.00942696 0.00086578 0.00291059 0.00099738 
0.05706313 0.01426761 0.00803718 0.00554972 0.00157833 0.00196394 0.00943572 0.00495252 0.01881005 0.00216774 0.00481302 0.00415530 0.00951866 0.00085568 0.00294917 0.00098783 
0.05703395 0.01384719 0.00785529 0.00561058 0.00160222 0.00196185 0.00938403 0.00501304 0.01902297 0.00220822 0.00488406 0.00421901 0.00959960 0.00084560 0.00298671 0.00097935 
0.05696261 0.01344842 0.00767574 0.00566890 0.00162845 0.00196334 0.00933222 0.00507005 0.01927041 0.00225107 0.00495135 0.00427813 0.00966944 0.00083568 0.00302294 0.00097191 
0.05685136 0.01307406 0.00749936 0.00572456 0.00165693 0.00196843 0.00928074 0.00512340 0.01955274 0.00229613 0.00501473 0.00433265 0.00972789 0.00082604 0.00305762 0.00096549 
0.05670261 0.01272669 0.00732700 0.00577741 0.00168758 0.00197709 0.00923003 0.00517299 0.01987010 0.00234325 0.00507407 0.00438257 0.00977468 0.00081684 0.00309049 0.00096005 
0.05651896 0.01240878 0.00715952 0.00582735 0.00172026 0.00198925 0.00918049 0.00521869 0.02022242 0.00239224 0.00512924 0.00442796 0.00980960 0.00080822 0.00312132 0.00095555 
0.05630311 0.01212261 0.00699775 0.00587428 0.00175485 0.00200485 0.00913250 0.00526042 0.02060941 0.00244288 0.00518016 0.00446893 0.00983248 0.00080034 0.00314989 0.00095195 
0.05605791 0.01187032 0.00684252 0.00591811 0.00179120 0.00202378 0.00908641 0.00529808 0.02103053 0.00249497 0.00522672 0.00450561 0.00984319 0.00079335 0.00317597 0.00094921 
0.05578626 0.01165382 0.00669466 0.00595879 0.00182913 0.00204590 0.00904255 0.00533162 0.02148504 0.00254826 0.00526885 0.00453821 0.00984165 0.00078740 0.00319938 0.00094726 
0.05549114 0.01147484 0.00655496 0.00599628 0.00186848 0.00207106 0.00900121 0.00536100 0.02197193 0.00260251 0.00530651 0.00456698 0.00982782 0.00078266 0.00321992 0.00094605 
0.05517553 0.01133490 0.00642420 0.00603055 0.00190905 0.00209908 0.00896264 0.00538616 0.02249003 0.00265747 0.00533964 0.00459220 0.00980173 0.00077930 0.00323742 0.00094553 
0.05484245 0.01123529 0.00630313 0.00606160 0.00195064 0.00212976 0.00892709 0.00540711 0.02303789 0.00271288 0.00536823 0.00461423 0.00976343 0.00077745 0.00325172 0.00094563 
0.05449485 0.01117708 0.00619247 0.00608946 0.00199303 0.00216288 0.00889474 0.00542383 0.02361388 0.00276845 0.00539226 0.00463345 0.00971305 0.00077730 0.00326269 0.00094629 
0.05413567 0.01116112 0.00609291 0.00611416 0.00203601 0.00219822 0.00886574 0.00543635 0.02421618 0.00282391 0.00541174 0.00465031 0.00965072 0.00077899 0.00327020 0.00094743 
0.05376774 0.01118801 0.00600509 0.00613577 0.00207934 0.00223551 0.00884021 0.00544469 0.02484274 0.00287897 0.00542668 0.00466530 0.00957668 0.00078267 0.00327417 0.00094901 
0.05339381 0.01125810 0.00592962 0.00615437 0.00212279 0.00227450 0.00881823 0.00544889 0.02549135 0.00293336 0.00543712 0.00467897 0.00949117 0.00078849 0.00327450 0.00095093 
0.05301649 0.01137154 0.00586706 0.00617007 0.00216613 0.00231491 0.00879986 0.00544902 0.02615962 0.00298679 0.00544312 0.00469192 0.00939451 0.00079658 0.00327114 0.00095314 
0.05263826 0.01152819 0.00581792 0.00618300 0.00220910 0.00235645 0.00878509 0.00544515 0.02684501 0.00303897 0.00544472 0.00470478 0.00928704 0.00080708 0.00326405 0.00095556 
0.05226143 0.01172770 0.00578265 0.00619331 0.00225147 0.00239885 0.00877391 0.00543737 0.02754484 0.00308963 0.00544200 0.00471825 0.00916917 0.00082012 0.00325321 0.00095813 
0.05188812 0.01196949 0.00576168 0.00620116 0.00229298 0.00244179 0.00876625 0.00542579 0.02825627 0.00313850 0.00543504 0.00473305 0.00904133 0.00083579 0.00323862 0.00096077 
0.05152025 0.01225274 0.00575533 0.00620673 0.00233340 0.00248499 0.00876201 0.00541052 0.02897639 0.00318529 0.00542396 0.00474996 0.00890403 0.00085422 0.00322032 0.00096342 
0.05115954 0.01257639 0.00576390 0.00621024 0.00237249 0.00252815 0.00876106 0.00539170 0.02970217 0.00322977 0.00540883 0.00476979 0.00875777 0.00087548 0.00319835 0.00096601 
0.05080748 0.01293919 0.00578760 0.00621189 0.00241001 0.00257096 0.00876325 0.00536946 0.03043051 0.00327167 0.00538980 0.00479339 0.00860313 0.00089966 0.00317278 0.00096848 
0.05046532 0.01333966 0.00582660 0.00621192 0.00244572 0.00261313 0.00876837 0.00534396 0.03115825 0.00331076 0.00536697 0.00482166 0.00844071 0.00092682 0.00314370 0.00097075 
0.05013409 0.01377614 0.00588100 0.00621058 0.00247942 0.00265438 0.00877623 0.00531537 0.03188219 0.00334681 0.00534048 0.00485549 0.00827114 0.00095701 0.00311122 0.00097279 
0.04981456 0.01424675 0.00595080 0.00620813 0.00251088 0.00269441 0.00878656 0.00528387 0.03259912 0.00337963 0.00531046 0.00489583 0.00809509 0.00099025 0.00307547 0.00097452 
0.04950727 0.01474947 0.00603598 0.00620482 0.00253990 0.00273297 0.00879910 0.00524963 0.03330580 0.00340901 0.00527707 0.00494365 0.00791326 0.00102658 0.00303662 0.00097590 
0.04921251 0.01528210 0.00613641 0.00620095 0.00256629 0.00276979 0.00881357 0.00521286 0.03399905 0.00343477 0.00524045 0.00499991 0.00772636 0.00106598 0.00299482 0.00097687 
0.04893034 0.01584227 0.00625193 0.00619677 0.00258987 0.00280461 0.00882965 0.00517375 0.03467570 0.00345677 0.00520075 0.00506562 0.00753513 0.00110844 0.00295027 0.00097739 
0.04866058 0.01642751 0.00638227 0.00619258 0.00261047 0.00283720 0.00884703 0.00513251 0.03533263 0.00347486 0.00515813 0.00514176 0.00734034 0.00115393 0.00290317 0.00097743 
0.04840284 0.01703521 0.00652712 0.00618866 0.00262794 0.00286734 0.00886536 0.00508937 0.03596682 0.00348892 0.00511275 0.00522933 0.00714275 0.00120240 0.00285375 0.00097694 
0.04815650 0.01766264 0.00668608 0.00618528 0.00264215 0.00289482 0.00888431 0.00504454 0.03657533 0.00349885 0.00506476 0.00532933 0.00694314 0.00125376 0.00280224 0.00097590 
0.04792077 0.01830702 0.00685872 0.00618273 0.00265297 0.00291946 0.00890351 0.00499823 0.03715534 0.00350458 0.00501432 0.00544274 0.00674231 0.00130795 0.00274890 0.00097428 
0.04769466 0.01896547 0.00704449 0.00618127 0.00266031 0.00294109 0.00892261 0.00495069 0.03770415 0.00350604 0.00496161 0.00557053 0.00654106 0.00136483 0.00269398 0.00097206 
0.04747702 0.01963504 0.00724283 0.00618117 0.00266407 0.00295956 0.00894126 0.00490214 0.03821920 0.00350320 0.00490676 0.00571364 0.00634016 0.00142430 0.00263776 0.00096922 
0.04726655 0.02031278 0.00745309 0.00618266 0.00266420 0.00297473 0.00895909 0.00485280 0.03869810 0.00349606 0.00484994 0.00587299 0.00614042 0.00148621 0.00258053 0.00096576 
0.04706185 0.02099570 0.00767455 0.00618599 0.00266064 0.00298650 0.00897576 0.00480291 0.03913864 0.00348460 0.00479131 0.00604947 0.00594260 0.00155040 0.00252258 0.00096167 
0.04686138 0.02168078 0.00790646 0.00619137 0.00265337 0.00299478 0.00899091 0.00475269 0.03953876 0.00346888 0.00473102 0.00624390 0.00574748 0.00161669 0.00246419 0.00095696 
0.04666357 0.02236504 0.00814801 0.00619901 0.00264237 0.00299951 0.00900423 0.00470236 0.03989665 0.00344894 0.00466921 0.00645708 0.00555581 0.00168489 0.00240567 0.00095162 
0.04646676 0.02304553 0.00839834 0.00620908 0.00262766 0.00300062 0.00901538 0.00465215 0.04021068 0.00342484 0.00460603 0.00668975 0.00536832 0.00175480 0.00234733 0.00094569 
0.04626927 0.02371931 0.00865652 0.00622174 0.00260925 0.00299810 0.00902407 0.00460227 0.04047942 0.00339670 0.00454161 0.00694259 0.00518571 0.00182619 0.00228946 0.00093917 
0.04606944 0.02438353 0.00892161 0.00623712 0.00258721 0.00299195 0.00903000 0.00455292 0.04070170 0.00336461 0.00447610 0.00721621 0.00500867 0.00189883 0.00223237 0.00093208 
0.04586560 0.02503540 0.00919263 0.00625533 0.00256159 0.00298218 0.00903292 0.00450432 0.04087656 0.00332871 0.00440962 0.00751114 0.00483785 0.00197248 0.00217636 0.00092447 
0.04565616 0.02567220 0.00946853 0.00627644 0.00253247 0.00296882 0.00903259 0.00445666 0.04100328 0.00328915 0.00434231 0.00782785 0.00467386 0.00204688 0.00212171 0.00091635 
0.04543959 0.02629133 0.00974828 0.00630051 0.00249997 0.00295193 0.00902878 0.00441012 0.04108137 0.00324610 0.00427426 0.00816670 0.00451728 0.00212177 0.00206873 0.00090779 
0.04521447 0.02689030 0.01003079 0.00632756 0.00246419 0.00293159 0.00902131 0.00436487 0.04111060 0.00319975 0.00420562 0.00852799 0.00436865 0.00219689 0.00201768 0.00089880 
0.04497949 0.02746673 0.01031497 0.00635757 0.00242527 0.00290789 0.00901002 0.00432108 0.04109096 0.00315029 0.00413647 0.00891192 0.00422848 0.00227196 0.00196885 0.00088946 
0.04473350 0.02801838 0.01059971 0.00639051 0.00238337 0.00288093 0.00899478 0.00427890 0.04102269 0.00309794 0.00406693 0.00931857 0.00409721 0.00234670 0.00192248 0.00087980 
0.04447552 0.02854314 0.01088387 0.00642629 0.00233864 0.00285085 0.00897550 0.00423848 0.04090626 0.00304293 0.00399709 0.00974793 0.00397526 0.00242083 0.00187882 0.00086990 
0.04420477 0.02903908 0.01116635 0.00646482 0.00229126 0.00281779 0.00895210 0.00419994 0.04074237 0.00298549 0.00392704 0.01019990 0.00386298 0.00249408 0.00183810 0.00085980 
0.04392065 0.02950439 0.01144601 0.00650594 0.00224142 0.00278191 0.00892456 0.00416340 0.04053194 0.00292587 0.00385688 0.01067424 0.00376069 0.00256618 0.00180055 0.00084957 
0.04362283 0.02993745 0.01172173 0.00654950 0.00218933 0.00274337 0.00889288 0.00412895 0.04027614 0.00286433 0.00378668 0.01117063 0.00366864 0.00263684 0.00176635 0.00083928 
0.04331119 0.03033679 0.01199241 0.00659529 0.00213520 0.00270235 0.00885709 0.00409667 0.03997631 0.00280114 0.00371652 0.01168861 0.00358703 0.00270582 0.00173569 0.00082900 
0.04298588 0.03070114 0.01225695 0.00664308 0.00207925 0.00265905 0.00881726 0.00406665 0.03963402 0.00273656 0.00364647 0.01222763 0.00351602 0.00277286 0.00170872 0.00081879 
0.04264731 0.03102937 0.01251429 0.00669260 0.00202171 0.00261368 0.00877350 0.00403892 0.03925101 0.00267087 0.00357659 0.01278699 0.00345571 0.00283770 0.00168560 0.00080874 
0.04229617 0.03132056 0.01276338 0.00674357 0.00196282 0.00256643 0.00872594 0.00401353 0.03882923 0.00260434 0.00350697 0.01336590 0.00340614 0.00290012 0.00166643 0.00079891 
0.04193343 0.03157395 0.01300321 0.00679567 0.00190281 0.00251754 0.00867476 0.00399051 0.03837076 0.00253725 0.00343764 0.01396345 0.00336731 0.00295991 0.00165132 0.00078938 
0.04156035 0.03178896 0.01323280 0.00684856 0.00184194 0.00246721 0.00862014 0.00396985 0.03787787 0.00246989 0.00336868 0.01457861 0.00333915 0.00301686 0.00164034 0.00078022 
0.04117846 0.03196518 0.01345121 0.00690189 0.00178045 0.00241568 0.00856233 0.00395155 0.03735296 0.00240252 0.00330013 0.01521023 0.00332155 0.00307079 0.00163354 0.00077151 
0.04078958 0.03210238 0.01365756 0.00695526 0.00171860 0.00236317 0.00850158 0.00393558 0.03679854 0.00233542 0.00323204 0.01585706 0.00331434 0.00312153 0.00163095 0.00076332 
0.04039581 0.03220051 0.01385099 0.00700827 0.00165662 0.00230992 0.00843819 0.00392191 0.03621726 0.00226886 0.00316447 0.01651774 0.00331732 0.00316895 0.00163258 0.00075572 
0.03999952 0.03225968 0.01403072 0.00706052 0.00159479 0.00225615 0.00837246 0.00391047 0.03561186 0.00220310 0.00309745 0.01719080 0.00333021 0.00321293 0.00163841 0.00074879 
0.03960333 0.03228014 0.01419602 0.00711157 0.00153333 0.00220210 0.00830474 0.00390120 0.03498515 0.00213840 0.00303104 0.01787467 0.00335271 0.00325337 0.00164840 0.00074259 
0.03921012 0.03226232 0.01434619 0.00716099 0.00147249 0.00214799 0.00823537 0.00389402 0.03434004 0.00207500 0.00296527 0.01856769 0.00338447 0.00329021 0.00166248 0.00073718 
0.03882299 0.03220680 0.01448064 0.00720833 0.00141252 0.00209405 0.00816476 0.00388882 0.03367945 0.00201314 0.00290019 0.01926811 0.00342509 0.00332339 0.00168058 0.00073264 
0.03844525 0.03211427 0.01459880 0.00725314 0.00135364 0.00204050 0.00809327 0.00388549 0.03300637 0.00195304 0.00283584 0.01997409 0.00347414 0.00335291 0.00170258 0.00072902 
0.03808042 0.03198560 0.01470021 0.00729498 0.00129609 0.00198754 0.00802134 0.00388392 0.03232381 0.00189493 0.00277226 0.02068372 0.00353115 0.00337877 0.00172835 0.00072637 
0.03773217 0.03182175 0.01478443 0.00733340 0.00124008 0.00193539 0.00794938 0.00388397 0.03163478 0.00183900 0.00270949 0.02139502 0.00359561 0.00340101 0.00175775 0.00072475 
0.03740433 0.03162380 0.01485113 0.00736796 0.00118582 0.00188424 0.00787782 0.00388550 0.03094228 0.00178544 0.00264758 0.02210594 0.00366700 0.00341970 0.00179060 0.00072421 
0.03710085 0.03139295 0.01490003 0.00739823 0.00113350 0.00183428 0.00780710 0.00388835 0.03024931 0.00173443 0.00258655 0.02281439 0.00374476 0.00343493 0.00182672 0.00072478 
0.03682577 0.03113050 0.01493095 0.00742379 0.00108333 0.00178570 0.00773766 0.00389237 0.02955880 0.00168612 0.00252646 0.02351824 0.00382830 0.00344682 0.00186590 0.00072651 
0.03658318 0.03083782 0.01494374 0.00744425 0.00103547 0.00173867 0.00766995 0.00389740 0.02887369 0.00164067 0.00246734 0.02421530 0.00391703 0.00345553 0.00190793 0.00072942 
0.03637721 0.03051637 0.01493837 0.00745921 0.00099009 0.00169335 0.00760441 0.00390325 0.02819680 0.00159819 0.00240925 0.02490339 0.00401033 0.00346123 0.00195257 0.00073355 
0.03621201 0.03016769 0.01491485 0.00746832 0.00094735 0.00164987 0.00754147 0.00390977 0.02753092 0.00155880 0.00235221 0.02558028 0.00410758 0.00346411 0.00199957 0.00073890 
0.03609167 0.02979336 0.01487328 0.00747123 0.00090738 0.00160840 0.00748157 0.00391676 0.02687875 0.00152260 0.00229629 0.02624377 0.00420815 0.00346440 0.00204868 0.00074551 
0.03602021 0.02939503 0.01481382 0.00746764 0.00087031 0.00156904 0.00742512 0.00392405 0.02624289 0.00148966 0.00224152 0.02689164 0.00431139 0.00346236 0.00209963 0.00075337 
0.03600159 0.02897438 0.01473672 0.00745727 0.00083626 0.00153191 0.00737253 0.00393147 0.02562585 0.00146004 0.00218795 0.02752170 0.00441668 0.00345825 0.00215214 0.00076249 
0.03603960 0.02853312 0.01464228 0.00743986 0.00080532 0.00149711 0.00732420 0.00393884 0.02503001 0.00143379 0.00213563 0.02813180 0.00452338 0.00345235 0.00220593 0.00077286 
0.03613788 0.02807298 0.01453089 0.00741519 0.00077757 0.00146473 0.00728049 0.00394598 0.02445766 0.00141094 0.00208461 0.02871981 0.00463087 0.00344499 0.00226072 0.00078447 
0.03629986 0.02759572 0.01440299 0.00738309 0.00075308 0.00143484 0.00724177 0.00395274 0.02391095 0.00139150 0.00203495 0.02928365 0.00473854 0.00343647 0.00231623 0.00079731 
0.03652876 0.02710308 0.01425908 0.00734342 0.00073191 0.00140750 0.00720837 0.00395894 0.02339190 0.00137546 0.00198668 0.02982132 0.00484580 0.00342713 0.00237215 0.00081135 
0.03682753 0.02659684 0.01409974 0.00729606 0.00071409 0.00138276 0.00718059 0.00396443 0.02290239 0.00136280 0.00193986 0.03033089 0.00495208 0.00341733 0.00242822 0.00082656 
0.03719881 0.02607872 0.01392560 0.00724096 0.00069966 0.00136066 0.00715872 0.00396907 0.02244416 0.00135349 0.00189456 0.03081050 0.00505683 0.00340742 0.00248414 0.00084291 
0.03764493 0.02555046 0.01373733 0.00717808 0.00068862 0.00134122 0.00714302 0.00397273 0.02201882 0.00134747 0.00185081 0.03125839 0.00515952 0.00339775 0.00253964 0.00086036 
0.03816790 0.02501376 0.01353568 0.00710745 0.00068097 0.00132445 0.00713372 0.00397529 0.02162781 0.00134468 0.00180867 0.03167291 0.00525966 0.00338870 0.00259446 0.00087885 
0.03876930 0.02447030 0.01332143 0.00702913 0.00067669 0.00131035 0.00713100 0.00397663 0.02127244 0.00134504 0.00176820 0.03205253 0.00535679 0.00338063 0.00264833 0.00089834 
0.03945036 0.02392171 0.01309542 0.00694321 0.00067575 0.00129890 0.00713505 0.00397667 0.02095384 0.00134845 0.00172945 0.03239584 0.00545049 0.00337391 0.00270101 0.00091877 
0.04021188 0.02336961 0.01285851 0.00684984 0.00067811 0.00129007 0.00714599 0.00397532 0.02067301 0.00135482 0.00169247 0.03270155 0.00554038 0.00336889 0.00275226 0.00094006 
0.04105420 0.02281555 0.01261162 0.00674920 0.00068371 0.00128385 0.00716392 0.00397253 0.02043079 0.00136401 0.00165732 0.03296853 0.00562610 0.00336592 0.00280186 0.00096217 
0.04197723 0.02226103 0.01235568 0.00664151 0.00069249 0.00128017 0.00718891 0.00396825 0.02022787 0.00137591 0.00162405 0.03319580 0.00570737 0.00336534 0.00284962 0.00098500 
0.04298042 0.02170752 0.01209167 0.00652703 0.00070436 0.00127898 0.00722100 0.00396245 0.02006476 0.00139038 0.00159270 0.03338254 0.00578391 0.00336748 0.00289534 0.00100849 
0.04406270 0.02115642 0.01182060 0.00640606 0.00071924 0.00128023 0.00726018 0.00395514 0.01994187 0.00140727 0.00156332 0.03352807 0.00585553 0.00337266 0.00293886 0.00103254 
0.04522256 0.02060907 0.01154346 0.00627894 0.00073702 0.00128383 0.00730643 0.00394633 0.01985940 0.00142642 0.00153597 0.03363193 0.00592206 0.00338115 0.00298004 0.00105709 
0.04645796 0.02006677 0.01126130 0.00614604 0.00075760 0.00128971 0.00735969 0.00393605 0.01981745 0.00144768 0.00151069 0.03369379 0.00598338 0.00339324 0.00301876 0.00108204 
0.04776639 0.01953073 0.01097517 0.00600775 0.00078086 0.00129778 0.00741984 0.00392436 0.01981595 0.00147088 0.00148752 0.03371352 0.00603943 0.00340916 0.00305490 0.00110729 
0.04914482 0.01900212 0.01068611 0.00586452 0.00080667 0.00130794 0.00748677 0.00391135 0.01985468 0.00149583 0.00146649 0.03369119 0.00609021 0.00342915 0.00308841 0.00113276 
0.05058975 0.01848205 0.01039518 0.00571679 0.00083490 0.00132010 0.00756031 0.00389711 0.01993331 0.00152238 0.00144766 0.03362704 0.00613573 0.00345339 0.00311922 0.00115835 
0.05209719 0.01797155 0.01010343 0.00556505 0.00086541 0.00133415 0.00764027 0.00388176 0.02005136 0.00155033 0.00143104 0.03352150 0.00617610 0.00348205 0.00314732 0.00118396 
0.05366267 0.01747160 0.00981190 0.00540981 0.00089806 0.00134998 0.00772644 0.00386546 0.02020819 0.00157950 0.00141668 0.03337521 0.00621144 0.00351527 0.00317270 0.00120950 
0.05528125 0.01698311 0.00952165 0.00525159 0.00093269 0.00136749 0.00781856 0.00384835 0.02040307 0.00160972 0.00140459 0.03318897 0.00624193 0.00355313 0.00319539 0.00123486 
0.05694756 0.01650692 0.00923368 0.00509092 0.00096915 0.00138656 0.00791637 0.00383065 0.02063513 0.00164078 0.00139480 0.03296381 0.00626782 0.00359572 0.00321545 0.00125995 
0.05865579 0.01604383 0.00894900 0.00492838 0.00100729 0.00140706 0.00801957 0.00381253 0.02090339 0.00167252 0.00138733 0.03270092 0.00628936 0.00364306 0.00323295 0.00128467 
0.06039973 0.01559456 0.00866859 0.00476450 0.00104694 0.00142889 0.00812785 0.00379425 0.02120672 0.00170474 0.00138219 0.03240169 0.00630689 0.00369515 0.00324800 0.00130892 
0.06217278 0.01515978 0.00839341 0.00459987 0.00108794 0.00145192 0.00824086 0.00377603 0.02154392 0.00173727 0.00137939 0.03206769 0.00632076 0.00375195 0.00326073 0.00133259 
0.06396798 0.01474009 0.00812438 0.00443506 0.00113013 0.00147604 0.00835825 0.00375814 0.02191366 0.00176992 0.00137894 0.03170067 0.00633139 0.00381339 0.00327130 0.00135560 
0.06577807 0.01433604 0.00786239 0.00427063 0.00117335 0.00150113 0.00847965 0.00374086 0.02231451 0.00180253 0.00138082 0.03130255 0.00633920 0.00387936 0.00327989 0.00137785 
0.06759546 0.01394813 0.00760831 0.00410715 0.00121743 0.00152708 0.00860467 0.00372448 0.02274495 0.00183492 0.00138505 0.03087542 0.00634467 0.00394972 0.00328671 0.00139924 
0.06941232 0.01357680 0.00736294 0.00394518 0.00126221 0.00155376 0.00873291 0.00370931 0.02320336 0.00186693 0.00139160 0.03042152 0.00634832 0.00402428 0.00329198 0.00141969 
0.07122059 0.01322241 0.00712707 0.00378528 0.00130753 0.00158107 0.00886396 0.00369566 0.02368803 0.00189840 0.00140046 0.02994325 0.00635067 0.00410284 0.00329596 0.00143911 
0.07301202 0.01288532 0.00690142 0.00362797 0.00135323 0.00160889 0.00899740 0.00368387 0.02419718 0.00192918 0.00141160 0.02944314 0.00635229 0.00418515 0.00329890 0.00145740 
0.07477821 0.01256579 0.00668667 0.00347379 0.00139916 0.00163713 0.00913281 0.00367427 0.02472894 0.00195913 0.00142500 0.02892386 0.00635376 0.00427094 0.00330111 0.00147450 
0.07651066 0.01226406 0.00648347 0.00332322 0.00144516 0.00166568 0.00926976 0.00366720 0.02528135 0.00198810 0.00144062 0.02838820 0.00635568 0.00435991 0.00330288 0.00149032 
0.07820079 0.01198031 0.00629238 0.00317674 0.00149108 0.00169445 0.00940782 0.00366300 0.02585243 0.00201596 0.00145842 0.02783905 0.00635866 0.00445172 0.00330453 0.00150479 
0.07984003 0.01171468 0.00611396 0.00303482 0.00153679 0.00172334 0.00954656 0.00366203 0.02644008 0.00204260 0.00147836 0.02727941 0.00636334 0.00454602 0.00330639 0.00151784 
0.08141981 0.01146725 0.00594866 0.00289787 0.00158213 0.00175226 0.00968554 0.00366463 0.02704218 0.00206790 0.00150038 0.02671233 0.00637034 0.00464244 0.00330881 0.00152940 
0.08293162 0.01123808 0.00579693 0.00276630 0.00162698 0.00178114 0.00982435 0.00367114 0.02765655 0.00209176 0.00152443 0.02614096 0.00638029 0.00474058 0.00331214 0.00153941 
0.08436707 0.01102715 0.00565912 0.00264046 0.00167120 0.00180990 0.00996255 0.00368191 0.02828096 0.00211408 0.00155044 0.02556849 0.00639383 0.00484002 0.00331673 0.00154782 
0.08571794 0.01083443 0.00553555 0.00252070 0.00171468 0.00183847 0.01009973 0.00369725 0.02891313 0.00213479 0.00157834 0.02499815 0.00641158 0.00494035 0.00332294 0.00155459 
0.08697620 0.01065983 0.00542648 0.00240731 0.00175729 0.00186678 0.01023549 0.00371750 0.02955075 0.00215380 0.00160806 0.02443320 0.00643416 0.00504113 0.00333112 0.00155965 
0.08813408 0.01050323 0.00533211 0.00230054 0.00179892 0.00189477 0.01036941 0.00374296 0.03019149 0.00217104 0.00163951 0.02387689 0.00646217 0.00514190 0.00334165 0.00156298 
0.08918408 0.01036445 0.00525259 0.00220063 0.00183946 0.00192240 0.01050112 0.00377392 0.03083299 0.00218648 0.00167262 0.02333248 0.00649618 0.00524223 0.00335488 0.00156454 
0.09011906 0.01024330 0.00518800 0.00210776 0.00187882 0.00194961 0.01063023 0.00381066 0.03147286 0.00220005 0.00170728 0.02280320 0.00653676 0.00534167 0.00337114 0.00156430 
0.09093225 0.01013952 0.00513840 0.00202208 0.00191690 0.00197637 0.01075637 0.00385342 0.03210872 0.00221172 0.00174341 0.02229224 0.00658444 0.00543975 0.00339078 0.00156225 
0.09161730 0.01005283 0.00510376 0.00194369 0.00195362 0.00200264 0.01087919 0.00390245 0.03273817 0.00222148 0.00178090 0.02180273 0.00663972 0.00553606 0.00341413 0.00155836 
0.09216830 0.00998290 0.00508403 0.00187267 0.00198890 0.00202840 0.01099835 0.00395795 0.03335883 0.00222929 0.00181964 0.02133772 0.00670305 0.00563014 0.00344148 0.00155263 
0.09257988 0.00992938 0.00507909 0.00180904 0.00202267 0.00205361 0.01111352 0.00402009 0.03396830 0.00223517 0.00185954 0.02090019 0.00677488 0.00572159 0.00347314 0.00154506 
0.09284717 0.00989185 0.00508877 0.00175279 0.00205485 0.00207827 0.01122438 0.00408904 0.03456423 0.00223910 0.00190046 0.02049300 0.00685559 0.00580999 0.00350936 0.00153564 
0.09296588 0.00986989 0.00511288 0.00170388 0.00208539 0.00210237 0.01133064 0.00416492 0.03514428 0.00224111 0.00194230 0.02011889 0.00694551 0.00589495 0.00355040 0.00152440 
0.09293232 0.00986302 0.00515115 0.00166223 0.00211424 0.00212589 0.01143200 0.00424780 0.03570614 0.00224121 0.00198493 0.01978046 0.00704495 0.00597612 0.00359648 0.00151133 
0.09274343 0.00987074 0.00520331 0.00162771 0.00214135 0.00214883 0.01152821 0.00433776 0.03624754 0.00223944 0.00202823 0.01948018 0.00715413 0.00605313 0.00364779 0.00149648 
0.09239679 0.00989250 0.00526901 0.00160017 0.00216668 0.00217119 0.01161899 0.00443480 0.03676627 0.00223583 0.00207206 0.01922032 0.00727326 0.00612569 0.00370448 0.00147986 
0.09189068 0.00992772 0.00534789 0.00157942 0.00219020 0.00219299 0.01170411 0.00453892 0.03726017 0.00223043 0.00211631 0.01900302 0.00740247 0.00619349 0.00376669 0.00146151 
0.09122408 0.00997580 0.00543954 0.00156524 0.00221187 0.00221423 0.01178334 0.00465005 0.03772715 0.00222330 0.00216083 0.01883017 0.00754183 0.00625628 0.00383451 0.00144147 
0.09039667 0.01003610 0.00554355 0.00155738 0.00223169 0.00223492 0.01185647 0.00476810 0.03816518 0.00221450 0.00220549 0.01870351 0.00769136 0.00631383 0.00390800 0.00141979 
0.08940888 0.01010794 0.00565943 0.00155556 0.00224962 0.00225507 0.01192329 0.00489295 0.03857233 0.00220409 0.00225015 0.01862453 0.00785103 0.00636595 0.00398717 0.00139653 
0.08826185 0.01019063 0.00578672 0.00155949 0.00226567 0.00227472 0.01198362 0.00502441 0.03894675 0.00219215 0.00229468 0.01859451 0.00802073 0.00641247 0.00407199 0.00137174 
0.08695752 0.01028344 0.00592489 0.00156883 0.00227982 0.00229387 0.01203728 0.00516229 0.03928669 0.00217876 0.00233893 0.01861450 0.00820029 0.00645329 0.00416241 0.00134549 
0.08549854 0.01038562 0.00607343 0.00158324 0.00229207 0.00231255 0.01208411 0.00530633 0.03959053 0.00216401 0.00238278 0.01868529 0.00838950 0.00648832 0.00425831 0.00131785 
0.08388833 0.01049640 0.00623178 0.00160235 0.00230244 0.00233078 0.01212396 0.00545623 0.03985672 0.00214799 0.00242607 0.01880743 0.00858807 0.00651751 0.00435955 0.00128890 
0.08213106 0.01061499 0.00639938 0.00162579 0.00231092 0.00234858 0.01215669 0.00561168 0.04008389 0.00213080 0.00246868 0.01898124 0.00879564 0.00654085 0.00446594 0.00125871 
0.08023164 0.01074057 0.00657567 0.00165316 0.00231754 0.00236597 0.01218217 0.00577230 0.04027077 0.00211253 0.00251047 0.01920674 0.00901182 0.00655837 0.00457723 0.00122738 
0.07819570 0.01087233 0.00676007 0.00168407 0.00232230 0.00238298 0.01220029 0.00593770 0.04041623 0.00209329 0.00255130 0.01948371 0.00923614 0.00657013 0.00469315 0.00119501 
0.07602960 0.01100943 0.00695199 0.00171809 0.00232524 0.00239963 0.01221094 0.00610744 0.04051930 0.00207318 0.00259104 0.01981167 0.00946807 0.00657625 0.00481337 0.00116167 
0.07374038 0.01115102 0.00715083 0.00175482 0.00232638 0.00241593 0.01221403 0.00628104 0.04057916 0.00205232 0.00262956 0.02018986 0.00970703 0.00657687 0.00493752 0.00112748 
0.07133578 0.01129625 0.00735602 0.00179385 0.00232575 0.00243191 0.01220947 0.00645801 0.04059515 0.00203081 0.00266673 0.02061727 0.00995240 0.00657214 0.00506519 0.00109254 
0.06882417 0.01144428 0.00756696 0.00183475 0.00232337 0.00244758 0.01219719 0.00663781 0.04056680 0.00200877 0.00270242 0.02109263 0.01020349 0.00656229 0.00519595 0.00105697 
0.06621452 0.01159425 0.00778306 0.00187712 0.00231929 0.00246295 0.01217712 0.00681988 0.04049377 0.00198630 0.00273652 0.02161440 0.01045957 0.00654755 0.00532929 0.00102086 
0.06351643 0.01174534 0.00800376 0.00192056 0.00231355 0.00247803 0.01214921 0.00700364 0.04037593 0.00196353 0.00276891 0.02218081 0.01071986 0.00652819 0.00546469 0.00098434 
0.06074000 0.01189671 0.00822847 0.00196466 0.00230618 0.00249283 0.01211342 0.00718849 0.04021333 0.00194057 0.00279948 0.02278982 0.01098356 0.00650451 0.00560161 0.00094752 
0.05789588 0.01204755 0.00845663 0.00200906 0.00229722 0.00250736 0.01206971 0.00737379 0.04000619 0.00191752 0.00282812 0.02343917 0.01124981 0.00647682 0.00573943 0.00091053 
0.05499516 0.01219707 0.00868769 0.00205337 0.00228673 0.00252161 0.01201805 0.00755891 0.03975493 0.00189450 0.00285474 0.02412637 0.01151771 0.00644546 0.00587755 0.00087349 
0.05204935 0.01234451 0.00892112 0.00209724 0.00227475 0.00253557 0.01195845 0.00774320 0.03946017 0.00187162 0.00287923 0.02484871 0.01178637 0.00641081 0.00601532 0.00083651 
0.04907035 0.01248914 0.00915638 0.00214034 0.00226133 0.00254924 0.01189090 0.00792598 0.03912269 0.00184898 0.00290152 0.02560327 0.01205483 0.00637323 0.00615207 0.00079974 
0.04607036 0.01263026 0.00939296 0.00218235 0.00224653 0.00256261 0.01181541 0.00810658 0.03874348 0.00182670 0.00292151 0.02638697 0.01232214 0.00633312 0.00628711 0.00076328 
0.04306188 0.01276720 0.00963037 0.00222299 0.00223039 0.00257565 0.01173201 0.00828435 0.03832372 0.00180487 0.00293915 0.02719650 0.01258732 0.00629088 0.00641974 0.00072726 
0.04005758 0.01289937 0.00986813 0.00226198 0.00221296 0.00258835 0.01164073 0.00845859 0.03786479 0.00178359 0.00295435 0.02802845 0.01284938 0.00624693 0.00654926 0.00069182 
0.03707032 0.01302618 0.01010578 0.00229907 0.00219432 0.00260068 0.01154164 0.00862865 0.03736821 0.00176296 0.00296707 0.02887922 0.01310733 0.00620167 0.00667494 0.00065707 
0.03411305 0.01314715 0.01034287 0.00233404 0.00217450 0.00261261 0.01143481 0.00879387 0.03683574 0.00174308 0.00297725 0.02974511 0.01336019 0.00615552 0.00679606 0.00062314 
0.03119875 0.01326183 0.01057897 0.00236672 0.00215357 0.00262410 0.01132030 0.00895360 0.03626926 0.00172401 0.00298485 0.03062230 0.01360695 0.00610890 0.00691191 0.00059015 
0.02834038 0.01336983 0.01081367 0.00239692 0.00213159 0.00263511 0.01119824 0.00910721 0.03567085 0.00170586 0.00298984 0.03150690 0.01384664 0.00606222 0.00702178 0.00055821 
0.02555083 0.01347083 0.01104659 0.00242452 0.00210862 0.00264561 0.01106873 0.00925408 0.03504276 0.00168869 0.00299220 0.03239493 0.01407830 0.00601586 0.00712498 0.00052745 
0.02284283 0.01356461 0.01127734 0.00244942 0.00208471 0.00265553 0.01093193 0.00939364 0.03438736 0.00167257 0.00299192 0.03328238 0.01430098 0.00597023 0.00722083 0.00049797 
0.02022891 0.01365100 0.01150558 0.00247152 0.00205994 0.00266484 0.01078797 0.00952530 0.03370720 0.00165758 0.00298899 0.03416520 0.01451376 0.00592570 0.00730868 0.00046989 
0.01772132 0.01372991 0.01173097 0.00249079 0.00203434 0.00267348 0.01063705 0.00964854 0.03300494 0.00164378 0.00298341 0.03503937 0.01471574 0.00588262 0.00738791 0.00044330 
0.01533201 0.01380135 0.01195318 0.00250721 0.00200800 0.00268139 0.01047936 0.00976287 0.03228338 0.00163121 0.00297520 0.03590084 0.01490606 0.00584133 0.00745793 0.00041832 
0.01307251 0.01386542 0.01217192 0.00252079 0.00198098 0.00268851 0.01031513 0.00986780 0.03154543 0.00161993 0.00296438 0.03674565 0.01508390 0.00580215 0.00751818 0.00039503 
0.01095391 0.01392228 0.01238689 0.00253157 0.00195332 0.00269479 0.01014459 0.00996292 0.03079409 0.00160998 0.00295099 0.03756987 0.01524849 0.00576537 0.00756817 0.00037352 
0.00898682 0.01397220 0.01259783 0.00253961 0.00192510 0.00270017 0.00996803 0.01004783 0.03003246 0.00160140 0.00293507 0.03836966 0.01539908 0.00573126 0.00760744 0.00035388 
0.00718125 0.01401556 0.01280448 0.00254501 0.00189638 0.00270457 0.00978572 0.01012220 0.02926371 0.00159421 0.00291667 0.03914131 0.01553500 0.00570004 0.00763558 0.00033618 
0.00554662 0.01405281 0.01300660 0.00254789 0.00186721 0.00270794 0.00959799 0.01018572 0.02849107 0.00158844 0.00289586 0.03988121 0.01565560 0.00567194 0.00765225 0.00032049 
0.00409168 0.01408450 0.01320397 0.00254838 0.00183767 0.00271022 0.00940518 0.01023813 0.02771780 0.00158411 0.00287270 0.04058590 0.01576032 0.00564712 0.00765717 0.00030687 
0.00282446 0.01411127 0.01339636 0.00254666 0.00180782 0.00271135 0.00920766 0.01027925 0.02694721 0.00158122 0.00284727 0.04125211 0.01584864 0.00562573 0.00765013 0.00029538 
0.00175224 0.01413386 0.01358360 0.00254291 0.00177771 0.00271126 0.00900581 0.01030891 0.02618260 0.00157978 0.00281967 0.04187675 0.01592011 0.00560788 0.00763097 0.00028607 
0.00088150 0.01415312 0.01376548 0.00253734 0.00174740 0.00270990 0.00880007 0.01032700 0.02542730 0.00157979 0.00278998 0.04245693 0.01597433 0.00559365 0.00759963 0.00027897 
0.00021786 0.01416995 0.01394185 0.00253017 0.00171696 0.00270721 0.00859086 0.01033348 0.02468459 0.00158124 0.00275831 0.04299000 0.01601099 0.00558309 0.00755612 0.00027411 
0.00023392 0.01418538 0.01411253 0.00252164 0.00168645 0.00270315 0.00837866 0.01032835 0.02395773 0.00158412 0.00272478 0.04347352 0.01602984 0.00557620 0.00750051 0.00027151 
0.00046999 0.01420048 0.01427738 0.00251201 0.00165593 0.00269766 0.00816396 0.01031165 0.02324992 0.00158839 0.00268949 0.04390534 0.01603068 0.00557296 0.00743297 0.00027119 
0.00048742 0.01421645 0.01443627 0.00250154 0.00162546 0.00269071 0.00794727 0.01028348 0.02256429 0.00159405 0.00265257 0.04428356 0.01601340 0.00557332 0.00735374 0.00027314 
0.00028425 0.01423453 0.01458907 0.00249050 0.00159510 0.00268225 0.00772912 0.01024399 0.02190390 0.00160104 0.00261416 0.04460658 0.01597796 0.00557718 0.00726317 0.00027736 
0.00014049 0.01425605 0.01473566 0.00247919 0.00156489 0.00267226 0.00751009 0.01019339 0.02127171 0.00160934 0.00257438 0.04487308 0.01592439 0.00558444 0.00716165 0.00028384 
0.00078682 0.01428240 0.01487595 0.00246789 0.00153492 0.00266071 0.00729075 0.01013193 0.02067055 0.00161890 0.00253337 0.04508205 0.01585278 0.00559493 0.00704970 0.00029255 
0.00165373 0.01431501 0.01500984 0.00245689 0.00150521 0.00264757 0.00707168 0.01005989 0.02010313 0.00162968 0.00249128 0.04523279 0.01576330 0.00560849 0.00692789 0.00030346 
0.00273923 0.01435540 0.01513725 0.00244648 0.00147585 0.00263285 0.00685351 0.00997763 0.01957203 0.00164161 0.00244826 0.04532491 0.01565619 0.00562490 0.00679689 0.00031651 
0.00404033 0.01440511 0.01525812 0.00243696 0.00144687 0.00261653 0.00663687 0.00988552 0.01907964 0.00165463 0.00240446 0.04535836 0.01553175 0.00564394 0.00665745 0.00033167 
0.00555304 0.01446572 0.01537238 0.00242861 0.00141833 0.00259863 0.00642239 0.00978398 0.01862821 0.00166870 0.00236001 0.04533339 0.01539037 0.00566537 0.00651039 0.00034887 
0.00727239 0.01453885 0.01547999 0.00242171 0.00139028 0.00257914 0.00621072 0.00967347 0.01821980 0.00168373 0.00231509 0.04525059 0.01523246 0.00568890 0.00635661 0.00036803 
0.00919245 0.01462611 0.01558091 0.00241653 0.00136278 0.00255810 0.00600253 0.00955450 0.01785627 0.00169966 0.00226984 0.04511089 0.01505855 0.00571425 0.00619708 0.00038909 
0.01130635 0.01472914 0.01567513 0.00241334 0.00133587 0.00253553 0.00579848 0.00942758 0.01753930 0.00171641 0.00222441 0.04491550 0.01486917 0.00574112 0.00603285 0.00041195 
0.01360630 0.01484960 0.01576263 0.00241239 0.00130959 0.00251148 0.00559923 0.00929328 0.01727032 0.00173390 0.00217895 0.04466597 0.01466496 0.00576919 0.00586502 0.00043652 
0.01608361 0.01498909 0.01584343 0.00241392 0.00128400 0.00248598 0.00540546 0.00915217 0.01705057 0.00175206 0.00213362 0.04436417 0.01444658 0.00579814 0.00569475 0.00046270 
0.01872877 0.01514924 0.01591752 0.00241814 0.00125914 0.00245910 0.00521783 0.00900487 0.01688107 0.00177080 0.00208857 0.04401226 0.01421476 0.00582763 0.00552325 0.00049039 
0.02153143 0.01533162 0.01598495 0.00242527 0.00123504 0.00243090 0.00503699 0.00885198 0.01676257 0.00179004 0.00204394 0.04361268 0.01397026 0.00585732 0.00535181 0.00051945 
0.02448051 0.01553777 0.01604576 0.00243547 0.00121176 0.00240146 0.00486360 0.00869415 0.01669563 0.00180968 0.00199987 0.04316816 0.01371391 0.00588688 0.00518170 0.00054979 
0.02756419 0.01576916 0.01610001 0.00244893 0.00118932 0.00237086 0.00469830 0.00853204 0.01668052 0.00182965 0.00195650 0.04268170 0.01344656 0.00591597 0.00501428 0.00058126 
0.03077000 0.01602721 0.01614776 0.00246578 0.00116776 0.00233919 0.00454171 0.00836629 0.01671733 0.00184984 0.00191396 0.04215653 0.01316909 0.00594426 0.00485090 0.00061374 
0.03408486 0.01631328 0.01618911 0.00248613 0.00114711 0.00230654 0.00439442 0.00819756 0.01680584 0.00187018 0.00187239 0.04159614 0.01288244 0.00597143 0.00469294 0.00064710 
0.03749516 0.01662861 0.01622415 0.00251009 0.00112741 0.00227304 0.00425703 0.00802653 0.01694564 0.00189057 0.00183189 0.04100421 0.01258755 0.00599716 0.00454178 0.00068119 
0.04098680 0.01697439 0.01625301 0.00253773 0.00110867 0.00223878 0.00413009 0.00785384 0.01713606 0.00191091 0.00179259 0.04038462 0.01228540 0.00602115 0.00439883 0.00071588 
0.04454529 0.01735166 0.01627581 0.00256908 0.00109093 0.00220389 0.00401412 0.00768015 0.01737620 0.00193113 0.00175460 0.03974143 0.01197699 0.00604311 0.00426545 0.00075102 
0.04815576 0.01776137 0.01629270 0.00260417 0.00107421 0.00216850 0.00390963 0.00750610 0.01766491 0.00195112 0.00171801 0.03907886 0.01166333 0.00606278 0.00414301 0.00078647 
0.05180311 0.01820435 0.01630385 0.00264299 0.00105853 0.00213274 0.00381708 0.00733233 0.01800083 0.00197081 0.00168292 0.03840124 0.01134543 0.00607991 0.00403284 0.00082209 
0.05547202 0.01868128 0.01630943 0.00268551 0.00104389 0.00209675 0.00373689 0.00715945 0.01838238 0.00199011 0.00164941 0.03771300 0.01102433 0.00609427 0.00393625 0.00085772 
0.05914707 0.01919271 0.01630962 0.00273166 0.00103033 0.00206066 0.00366945 0.00698805 0.01880777 0.00200892 0.00161756 0.03701868 0.01070105 0.00610565 0.00385448 0.00089322 
0.06281277 0.01973904 0.01630465 0.00278136 0.00101783 0.00202463 0.00361510 0.00681871 0.01927500 0.00202718 0.00158743 0.03632285 0.01037664 0.00611389 0.00378875 0.00092846 
0.06645368 0.02032050 0.01629471 0.00283449 0.00100642 0.00198880 0.00357414 0.00665198 0.01978188 0.00204479 0.00155909 0.03563012 0.01005210 0.00611882 0.00374019 0.00096329 
0.07005447 0.02093718 0.01628005 0.00289091 0.00099610 0.00195331 0.00354681 0.00648839 0.02032604 0.00206169 0.00153258 0.03494509 0.00972845 0.00612033 0.00370986 0.00099757 
0.07359999 0.02158899 0.01626091 0.00295046 0.00098686 0.00191833 0.00353332 0.00632843 0.02090494 0.00207779 0.00150793 0.03427235 0.00940670 0.00611831 0.00369876 0.00103116 
0.07707535 0.02227566 0.01623755 0.00301295 0.00097870 0.00188399 0.00353382 0.00617256 0.02151589 0.00209303 0.00148519 0.03361644 0.00908782 0.00611271 0.00370777 0.00106395 
0.08046601 0.02299675 0.01621022 0.00307817 0.00097161 0.00185044 0.00354839 0.00602123 0.02215604 0.00210734 0.00146436 0.03298182 0.00877277 0.00610349 0.00373769 0.00109580 
0.08375783 0.02375165 0.01617922 0.00314589 0.00096559 0.00181784 0.00357708 0.00587483 0.02282244 0.00212067 0.00144547 0.03237284 0.00846250 0.00609065 0.00378923 0.00112660 
0.08693717 0.02453956 0.01614481 0.00321585 0.00096062 0.00178632 0.00361988 0.00573374 0.02351201 0.00213294 0.00142850 0.03179375 0.00815791 0.00607420 0.00386295 0.00115623 
0.08999092 0.02535949 0.01610730 0.00328777 0.00095669 0.00175604 0.00367671 0.00559828 0.02422157 0.00214411 0.00141346 0.03124862 0.00785988 0.00605421 0.00395934 0.00118459 
0.09290661 0.02621028 0.01606698 0.00336137 0.00095377 0.00172711 0.00374744 0.00546875 0.02494787 0.00215413 0.00140032 0.03074137 0.00756925 0.00603077 0.00407871 0.00121157 
0.09567243 0.02709058 0.01602416 0.00343634 0.00095185 0.00169968 0.00383189 0.00534541 0.02568758 0.00216295 0.00138907 0.03027570 0.00728684 0.00600398 0.00422129 0.00123709 
0.09827733 0.02799886 0.01597914 0.00351235 0.00095089 0.00167387 0.00392981 0.00522850 0.02643735 0.00217054 0.00137966 0.02985512 0.00701341 0.00597400 0.00438715 0.00126106 
0.10071106 0.02893343 0.01593223 0.00358908 0.00095087 0.00164980 0.00404089 0.00511818 0.02719376 0.00217686 0.00137205 0.02948287 0.00674970 0.00594098 0.00457623 0.00128341 
0.10296420 0.02989241 0.01588374 0.00366617 0.00095175 0.00162757 0.00416479 0.00501463 0.02795341 0.00218188 0.00136619 0.02916195 0.00649638 0.00590513 0.00478831 0.00130408 
0.10502826 0.03087377 0.01583398 0.00374328 0.00095350 0.00160730 0.00430108 0.00491795 0.02871288 0.00218559 0.00136203 0.02889508 0.00625411 0.00586667 0.00502307 0.00132300 
0.10689565 0.03187531 0.01578326 0.00382003 0.00095608 0.00158906 0.00444931 0.00482823 0.02946878 0.00218796 0.00135949 0.02868469 0.00602348 0.00582583 0.00528001 0.00134013 
0.10855977 0.03289468 0.01573187 0.00389608 0.00095945 0.00157295 0.00460894 0.00474552 0.03021775 0.00218898 0.00135851 0.02853291 0.00580504 0.00578289 0.00555848 0.00135543 
0.11001505 0.03392939 0.01568013 0.00397104 0.00096356 0.00155904 0.00477940 0.00466982 0.03095648 0.00218866 0.00135900 0.02844154 0.00559929 0.00573812 0.00585772 0.00136887 
0.11125692 0.03497680 0.01562831 0.00404456 0.00096837 0.00154739 0.00496008 0.00460114 0.03168173 0.00218699 0.00136089 0.02841206 0.00540668 0.00569183 0.00617681 0.00138044 
0.11228188 0.03603418 0.01557670 0.00411626 0.00097383 0.00153804 0.00515031 0.00453941 0.03239035 0.00218397 0.00136408 0.02844560 0.00522761 0.00564432 0.00651468 0.00139014 
0.11308749 0.03709867 0.01552556 0.00418579 0.00097990 0.00153105 0.00534938 0.00448457 0.03307926 0.00217963 0.00136847 0.02854295 0.00506243 0.00559592 0.00687013 0.00139795 
0.11367239 0.03816729 0.01547518 0.00425279 0.00098651 0.00152643 0.00555654 0.00443651 0.03374553 0.00217397 0.00137398 0.02870458 0.00491145 0.00554696 0.00724185 0.00140389 
0.11403629 0.03923700 0.01542578 0.00431691 0.00099361 0.00152420 0.00577099 0.00439511 0.03438631 0.00216703 0.00138051 0.02893057 0.00477490 0.00549780 0.00762837 0.00140799 
0.11418000 0.04030469 0.01537760 0.00437783 0.00100115 0.00152437 0.00599192 0.00436020 0.03499893 0.00215883 0.00138793 0.02922066 0.00465299 0.00544876 0.00802813 0.00141026 
0.11410535 0.04136716 0.01533087 0.00443521 0.00100907 0.00152693 0.00621848 0.00433162 0.03558083 0.00214941 0.00139616 0.02957426 0.00454587 0.00540020 0.00843944 0.00141076 
0.11381524 0.04242120 0.01528579 0.00448875 0.00101732 0.00153184 0.00644978 0.00430917 0.03612963 0.00213880 0.00140509 0.02999041 0.00445363 0.00535248 0.00886052 0.00140953 
0.11331361 0.04346354 0.01524255 0.00453815 0.00102582 0.00153909 0.00668493 0.00429263 0.03664311 0.00212707 0.00141459 0.03046783 0.00437632 0.00530592 0.00928948 0.00140663 
0.11260538 0.04449093 0.01520131 0.00458315 0.00103453 0.00154861 0.00692300 0.00428178 0.03711924 0.00211425 0.00142458 0.03100490 0.00431393 0.00526089 0.00972437 0.00140211 
0.11169643 0.04550009 0.01516222 0.00462349 0.00104339 0.00156037 0.00716307 0.00427636 0.03755615 0.00210041 0.00143493 0.03159968 0.00426642 0.00521769 0.01016313 0.00139605 
0.11059358 0.04648777 0.01512542 0.00465893 0.00105233 0.00157427 0.00740419 0.00427613 0.03795218 0.00208561 0.00144554 0.03224992 0.00423369 0.00517667 0.01060368 0.00138853 
0.10930452 0.04745076 0.01509101 0.00468926 0.00106129 0.00159026 0.00764541 0.00428080 0.03830587 0.00206990 0.00145631 0.03295309 0.00421559 0.00513813 0.01104387 0.00137963 
0.10783777 0.04838589 0.01505909 0.00471431 0.00107022 0.00160822 0.00788579 0.00429010 0.03861596 0.00205337 0.00146713 0.03370636 0.00421194 0.00510235 0.01148151 0.00136945 
0.10620266 0.04929007 0.01502973 0.00473391 0.00107906 0.00162807 0.00812438 0.00430374 0.03888138 0.00203609 0.00147790 0.03450666 0.00422250 0.00506964 0.01191440 0.00135807 
0.10440919 0.05016027 0.01500297 0.00474793 0.00108775 0.00164970 0.00836025 0.00432143 0.03910127 0.00201813 0.00148852 0.03535067 0.00424701 0.00504023 0.01234032 0.00134560 
0.10246807 0.05099358 0.01497885 0.00475627 0.00109622 0.00167297 0.00859248 0.00434288 0.03927501 0.00199958 0.00149889 0.03623484 0.00428515 0.00501439 0.01275706 0.00133215 
0.10039058 0.05178718 0.01495738 0.00475884 0.00110444 0.00169777 0.00882016 0.00436777 0.03940216 0.00198052 0.00150894 0.03715543 0.00433656 0.00499232 0.01316244 0.00131781 
0.09818854 0.05253840 0.01493853 0.00475559 0.00111234 0.00172396 0.00904240 0.00439581 0.03948249 0.00196103 0.00151856 0.03810852 0.00440086 0.00497422 0.01355430 0.00130270 
0.09587420 0.05324469 0.01492228 0.00474652 0.00111988 0.00175140 0.00925836 0.00442669 0.03951599 0.00194121 0.00152769 0.03909005 0.00447762 0.00496027 0.01393053 0.00128694 
0.09346024 0.05390367 0.01490857 0.00473162 0.00112701 0.00177994 0.00946721 0.00446012 0.03950285 0.00192116 0.00153623 0.04009582 0.00456639 0.00495060 0.01428909 0.00127063 
0.09095960 0.05451311 0.01489733 0.00471093 0.00113367 0.00180942 0.00966816 0.00449580 0.03944345 0.00190095 0.00154414 0.04112151 0.00466667 0.00494535 0.01462802 0.00125389 
0.08838550 0.05507097 0.01488847 0.00468453 0.00113984 0.00183970 0.00986045 0.00453343 0.03933837 0.00188070 0.00155133 0.04216276 0.00477795 0.00494461 0.01494545 0.00123683 
0.08575129 0.05557539 0.01488188 0.00465251 0.00114546 0.00187062 0.01004336 0.00457273 0.03918839 0.00186049 0.00155775 0.04321514 0.00489969 0.00494844 0.01523963 0.00121958 
0.08307040 0.05602472 0.01487743 0.00461500 0.00115051 0.00190201 0.01021625 0.00461341 0.03899447 0.00184042 0.00156335 0.04427418 0.00503132 0.00495688 0.01550891 0.00120223 
0.08035629 0.05641750 0.01487496 0.00457214 0.00115495 0.00193372 0.01037847 0.00465519 0.03875773 0.00182058 0.00156808 0.04533543 0.00517224 0.00496994 0.01575178 0.00118490 
0.07762232 0.05675249 0.01487433 0.00452413 0.00115876 0.00196557 0.01052947 0.00469781 0.03847949 0.00180109 0.00157191 0.04639447 0.00532184 0.00498760 0.01596689 0.00116770 
0.07488172 0.05702868 0.01487535 0.00447116 0.00116190 0.00199742 0.01066874 0.00474100 0.03816119 0.00178202 0.00157479 0.04744690 0.00547950 0.00500982 0.01615303 0.00115073 
0.07214751 0.05724528 0.01487783 0.00441347 0.00116437 0.00202910 0.01079580 0.00478452 0.03780445 0.00176348 0.00157672 0.04848844 0.00564457 0.00503652 0.01630919 0.00113410 
0.06943239 0.05740172 0.01488156 0.00435131 0.00116614 0.00206046 0.01091026 0.00482813 0.03741102 0.00174556 0.00157766 0.04951488 0.00581638 0.00506760 0.01643450 0.00111789 
0.06674875 0.05749767 0.01488632 0.00428495 0.00116721 0.00209135 0.01101177 0.00487158 0.03698277 0.00172835 0.00157760 0.05052213 0.00599428 0.00510294 0.01652830 0.00110222 
0.06410850 0.05753304 0.01489188 0.00421471 0.00116757 0.00212163 0.01110005 0.00491466 0.03652172 0.00171194 0.00157655 0.05150626 0.00617758 0.00514238 0.01659014 0.00108715 
0.06152312 0.05750795 0.01489799 0.00414089 0.00116722 0.00215114 0.01117489 0.00495716 0.03602996 0.00169642 0.00157449 0.05246350 0.00636559 0.00518575 0.01661976 0.00107278 
0.05900352 0.05742278 0.01490441 0.00406382 0.00116617 0.00217976 0.01123610 0.00499889 0.03550969 0.00168189 0.00157143 0.05339024 0.00655763 0.00523283 0.01661710 0.00105918 
0.05656000 0.05727813 0.01491086 0.00398386 0.00116443 0.00220736 0.01128361 0.00503964 0.03496322 0.00166840 0.00156740 0.05428311 0.00675301 0.00528342 0.01658234 0.00104642 
0.05420225 0.05707481 0.01491708 0.00390137 0.00116202 0.00223383 0.01131738 0.00507925 0.03439289 0.00165606 0.00156240 0.05513892 0.00695103 0.00533726 0.01651585 0.00103457 
0.05193923 0.05681387 0.01492278 0.00381672 0.00115895 0.00225905 0.01133742 0.00511756 0.03380114 0.00164492 0.00155646 0.05595472 0.00715102 0.00539409 0.01641825 0.00102368 
0.04977919 0.05649657 0.01492769 0.00373029 0.00115525 0.00228292 0.01134382 0.00515441 0.03319042 0.00163507 0.00154961 0.05672781 0.00735228 0.00545362 0.01629035 0.00101381 
0.04772961 0.05612438 0.01493149 0.00364248 0.00115097 0.00230536 0.01133673 0.00518966 0.03256325 0.00162656 0.00154188 0.05745574 0.00755414 0.00551555 0.01613320 0.00100499 
0.04579716 0.05569895 0.01493390 0.00355368 0.00114613 0.00232629 0.01131636 0.00522319 0.03192217 0.00161946 0.00153331 0.05813630 0.00775595 0.00557958 0.01594807 0.00099726 
0.04398769 0.05522216 0.01493461 0.00346429 0.00114078 0.00234563 0.01128297 0.00525488 0.03126971 0.00161383 0.00152395 0.05876757 0.00795703 0.00564536 0.01573642 0.00099066 
0.04230622 0.05469602 0.01493331 0.00337471 0.00113497 0.00236333 0.01123687 0.00528462 0.03060843 0.00160972 0.00151384 0.05934789 0.00815676 0.00571257 0.01549994 0.00098520 
0.04075690 0.05412275 0.01492969 0.00328532 0.00112876 0.00237934 0.01117843 0.00531233 0.02994088 0.00160716 0.00150303 0.05987587 0.00835450 0.00578084 0.01524051 0.00098090 
0.03934301 0.05350470 0.01492344 0.00319653 0.00112221 0.00239363 0.01110807 0.00533794 0.02926956 0.00160621 0.00149157 0.06035039 0.00854965 0.00584982 0.01496021 0.00097777 
0.03806699 0.05284438 0.01491424 0.00310871 0.00111537 0.00240619 0.01102626 0.00536136 0.02859697 0.00160689 0.00147953 0.06077061 0.00874162 0.00591915 0.01466130 0.00097580 
0.03693038 0.05214442 0.01490178 0.00302225 0.00110833 0.00241698 0.01093352 0.00538256 0.02792557 0.00160923 0.00146696 0.06113595 0.00892984 0.00598845 0.01434622 0.00097500 
0.03593389 0.05140756 0.01488574 0.00293751 0.00110116 0.00242603 0.01083038 0.00540148 0.02725774 0.00161325 0.00145391 0.06144610 0.00911375 0.00605735 0.01401755 0.00097534 
0.03507736 0.05063666 0.01486580 0.00285484 0.00109392 0.00243334 0.01071745 0.00541810 0.02659585 0.00161898 0.00144046 0.06170099 0.00929284 0.00612549 0.01367804 0.00097681 
0.03435984 0.04983466 0.01484165 0.00277459 0.00108672 0.00243893 0.01059536 0.00543240 0.02594215 0.00162641 0.00142666 0.06190081 0.00946660 0.00619248 0.01333056 0.00097939 
0.03377954 0.04900457 0.01481297 0.00269707 0.00107963 0.00244284 0.01046475 0.00544437 0.02529886 0.00163555 0.00141257 0.06204597 0.00963456 0.00625797 0.01297811 0.00098303 
0.03333392 0.04814945 0.01477945 0.00262260 0.00107275 0.00244512 0.01032631 0.00545402 0.02466810 0.00164639 0.00139827 0.06213712 0.00979627 0.00632157 0.01262376 0.00098770 
0.03301969 0.04727240 0.01474078 0.00255145 0.00106616 0.00244581 0.01018076 0.00546137 0.02405189 0.00165892 0.00138382 0.06217512 0.00995130 0.00638294 0.01227070 0.00099336 
0.03283284 0.04637657 0.01469665 0.00248389 0.00105996 0.00244500 0.01002883 0.00546643 0.02345216 0.00167312 0.00136927 0.06216101 0.01009927 0.00644172 0.01192215 0.00099995 
0.03276872 0.04546509 0.01464678 0.00242016 0.00105425 0.00244274 0.00987124 0.00546925 0.02287077 0.00168896 0.00135470 0.06209604 0.01023982 0.00649757 0.01158140 0.00100743 
0.03282204 0.04454111 0.01459085 0.00236048 0.00104913 0.00243913 0.00970877 0.00546988 0.02230943 0.00170642 0.00134015 0.06198160 0.01037259 0.00655016 0.01125175 0.00101574 
0.03298694 0.04360773 0.01452860 0.00230504 0.00104469 0.00243426 0.00954218 0.00546837 0.02176978 0.00172545 0.00132571 0.06181925 0.01049730 0.00659917 0.01093651 0.00102480 
0.03325702 0.04266806 0.01445972 0.00225400 0.00104103 0.00242821 0.00937223 0.00546479 0.02125332 0.00174601 0.00131141 0.06161067 0.01061367 0.00664429 0.01063897 0.00103457 
0.03362542 0.04172513 0.01438396 0.00220751 0.00103825 0.00242110 0.00919970 0.00545922 0.02076144 0.00176804 0.00129733 0.06135766 0.01072144 0.00668523 0.01036238 0.00104495 
0.03408486 0.04078191 0.01430105 0.00216568 0.00103645 0.00241304 0.00902534 0.00545175 0.02029544 0.00179148 0.00128351 0.06106214 0.01082042 0.00672172 0.01010993 0.00105590 
0.03462769 0.03984131 0.01421073 0.00212858 0.00103572 0.00240413 0.00884992 0.00544246 0.01985647 0.00181628 0.00127001 0.06072608 0.01091040 0.00675351 0.00988473 0.00106732 
0.03524595 0.03890615 0.01411278 0.00209630 0.00103617 0.00239448 0.00867418 0.00543147 0.01944556 0.00184234 0.00125689 0.06035154 0.01099124 0.00678034 0.00968978 0.00107914 
0.03593142 0.03797916 0.01400696 0.00206884 0.00103787 0.00238423 0.00849886 0.00541888 0.01906365 0.00186961 0.00124418 0.05994062 0.01106282 0.00680200 0.00952799 0.00109128 
0.03667570 0.03706294 0.01389307 0.00204621 0.00104091 0.00237349 0.00832466 0.00540482 0.01871154 0.00189799 0.00123193 0.05949547 0.01112503 0.00681830 0.00940207 0.00110366 
0.03747026 0.03616000 0.01377090 0.00202838 0.00104539 0.00236237 0.00815228 0.00538940 0.01838991 0.00192739 0.00122019 0.05901825 0.01117781 0.00682905 0.00931462 0.00111621 
0.03830648 0.03527270 0.01364028 0.00201531 0.00105137 0.00235101 0.00798239 0.00537275 0.01809933 0.00195773 0.00120900 0.05851111 0.01122111 0.00683410 0.00926802 0.00112883 
0.03917572 0.03440330 0.01350106 0.00200692 0.00105893 0.00233950 0.00781563 0.00535503 0.01784025 0.00198889 0.00119840 0.05797623 0.01125494 0.00683331 0.00926446 0.00114145 
0.04006939 0.03355388 0.01335309 0.00200309 0.00106813 0.00232798 0.00765262 0.00533635 0.01761301 0.00202078 0.00118842 0.05741573 0.01127930 0.00682658 0.00930591 0.00115399 
0.04097899 0.03272640 0.01319626 0.00200370 0.00107904 0.00231654 0.00749393 0.00531688 0.01741784 0.00205329 0.00117909 0.05683174 0.01129424 0.00681382 0.00939412 0.00116637 
0.04189614 0.03192268 0.01303049 0.00200860 0.00109171 0.00230530 0.00734011 0.00529675 0.01725487 0.00208630 0.00117044 0.05622634 0.01129982 0.00679496 0.00953055 0.00117850 
0.04281268 0.03114434 0.01285571 0.00201760 0.00110618 0.00229436 0.00719166 0.00527613 0.01712412 0.00211971 0.00116250 0.05560153 0.01129614 0.00676997 0.00971642 0.00119031 
0.04372069 0.03039289 0.01267188 0.00203052 0.00112248 0.00228382 0.00704907 0.00525516 0.01702550 0.00215338 0.00115529 0.05495931 0.01128330 0.00673884 0.00995267 0.00120172 
0.04461254 0.02966967 0.01247900 0.00204713 0.00114065 0.00227375 0.00691277 0.00523400 0.01695883 0.00218721 0.00114884 0.05430159 0.01126146 0.00670156 0.01023995 0.00121266 
0.04548094 0.02897584 0.01227709 0.00206720 0.00116069 0.00226424 0.00678314 0.00521280 0.01692385 0.00222105 0.00114316 0.05363023 0.01123077 0.00665820 0.01057859 0.00122306 
0.04631895 0.02831242 0.01206623 0.00209048 0.00118263 0.00225536 0.00666053 0.00519172 0.01692020 0.00225480 0.00113827 0.05294702 0.01119140 0.00660879 0.01096863 0.00123285 
0.04712008 0.02768026 0.01184649 0.00211671 0.00120644 0.00224717 0.00654526 0.00517092 0.01694744 0.00228832 0.00113419 0.05225369 0.01114358 0.00655344 0.01140978 0.00124197 
0.04787826 0.02708008 0.01161802 0.00214559 0.00123213 0.00223973 0.00643759 0.00515055 0.01700505 0.00232148 0.00113092 0.05155190 0.01108751 0.00649225 0.01190146 0.00125034 
0.04858790 0.02651241 0.01138098 0.00217685 0.00125966 0.00223308 0.00633774 0.00513075 0.01709245 0.00235416 0.00112848 0.05084326 0.01102345 0.00642536 0.01244272 0.00125792 
0.04924392 0.02597766 0.01113559 0.00221019 0.00128899 0.00222724 0.00624589 0.00511168 0.01720897 0.00238623 0.00112687 0.05012932 0.01095164 0.00635293 0.01303232 0.00126464 
0.04984177 0.02547608 0.01088210 0.00224529 0.00132009 0.00222224 0.00616218 0.00509348 0.01735389 0.00241756 0.00112610 0.04941157 0.01087236 0.00627514 0.01366870 0.00127047 
0.05037743 0.02500778 0.01062081 0.00228184 0.00135289 0.00221808 0.00608670 0.00507628 0.01752642 0.00244802 0.00112617 0.04869145 0.01078592 0.00619220 0.01434995 0.00127534 
0.05084746 0.02457275 0.01035207 0.00231954 0.00138732 0.00221477 0.00601949 0.00506021 0.01772573 0.00247750 0.00112710 0.04797038 0.01069261 0.00610434 0.01507387 0.00127921 
0.05124898 0.02417084 0.01007626 0.00235806 0.00142330 0.00221228 0.00596058 0.00504541 0.01795092 0.00250586 0.00112887 0.04724971 0.01059276 0.00601182 0.01583795 0.00128206 
0.05157969 0.02380179 0.00979381 0.00239708 0.00146073 0.00221059 0.00590993 0.00503198 0.01820107 0.00253300 0.00113148 0.04653081 0.01048671 0.00591490 0.01663937 0.00128384 
0.05183789 0.02346522 0.00950521 0.00243631 0.00149951 0.00220967 0.00586747 0.00502004 0.01847519 0.00255878 0.00113494 0.04581498 0.01037482 0.00581389 0.01747503 0.00128452 
0.05202245 0.02316063 0.00921098 0.00247543 0.00153952 0.00220946 0.00583310 0.00500970 0.01877227 0.00258311 0.00113925 0.04510357 0.01025744 0.00570910 0.01834156 0.00128407 
0.05213283 0.02288746 0.00891172 0.00251413 0.00158065 0.00220990 0.00580667 0.00500104 0.01909127 0.00260587 0.00114438 0.04439789 0.01013496 0.00560086 0.01923531 0.00128249 
0.05216906 0.02264504 0.00860805 0.00255213 0.00162274 0.00221092 0.00578801 0.00499414 0.01943110 0.00262695 0.00115035 0.04369928 0.01000777 0.00548953 0.02015241 0.00127975 
0.05213174 0.02243260 0.00830063 0.00258914 0.00166567 0.00221243 0.00577691 0.00498908 0.01979066 0.00264628 0.00115715 0.04300910 0.00987627 0.00537547 0.02108874 0.00127583 
0.05202201 0.02224934 0.00799021 0.00262490 0.00170926 0.00221436 0.00577312 0.00498592 0.02016882 0.00266374 0.00116475 0.04232874 0.00974087 0.00525908 0.02204000 0.00127074 
0.05184156 0.02209436 0.00767755 0.00265914 0.00175336 0.00221659 0.00577639 0.00498471 0.02056444 0.00267925 0.00117316 0.04165963 0.00960200 0.00514075 0.02300168 0.00126447 
0.05159259 0.02196672 0.00736346 0.00269162 0.00179780 0.00221901 0.00578641 0.00498548 0.02097636 0.00269274 0.00118236 0.04100324 0.00946008 0.00502090 0.02396913 0.00125702 
0.05127779 0.02186543 0.00704881 0.00272213 0.00184239 0.00222152 0.00580287 0.00498827 0.02140338 0.00270413 0.00119234 0.04036111 0.00931557 0.00489996 0.02493755 0.00124840 
0.05090031 0.02178947 0.00673450 0.00275043 0.00188696 0.00222398 0.00582543 0.00499308 0.02184432 0.00271336 0.00120309 0.03973484 0.00916890 0.00477837 0.02590202 0.00123861 
0.05046376 0.02173778 0.00642149 0.00277636 0.00193132 0.00222626 0.00585373 0.00499993 0.02229798 0.00272036 0.00121458 0.03912609 0.00902054 0.00465657 0.02685757 0.00122768 
0.04997214 0.02170927 0.00611075 0.00279973 0.00197526 0.00222824 0.00588739 0.00500879 0.02276315 0.00272510 0.00122681 0.03853660 0.00887095 0.00453503 0.02779912 0.00121563 
0.04942984 0.02170284 0.00580331 0.00282039 0.00201860 0.00222976 0.00592601 0.00501965 0.02323860 0.00272753 0.00123975 0.03796819 0.00872061 0.00441420 0.02872161 0.00120247 
0.04884159 0.02171737 0.00550022 0.00283821 0.00206114 0.00223070 0.00596920 0.00503247 0.02372312 0.00272761 0.00125338 0.03742276 0.00856998 0.00429457 0.02961993 0.00118823 
0.04821245 0.02175176 0.00520257 0.00285309 0.00210267 0.00223089 0.00601653 0.00504720 0.02421549 0.00272533 0.00126767 0.03690229 0.00841954 0.00417660 0.03048905 0.00117295 
0.04754773 0.02180488 0.00491145 0.00286493 0.00214299 0.00223021 0.00606759 0.00506377 0.02471446 0.00272066 0.00128261 0.03640882 0.00826979 0.00406078 0.03132396 0.00115665 
0.04685300 0.02187563 0.00462802 0.00287366 0.00218191 0.00222850 0.00612193 0.00508213 0.02521882 0.00271361 0.00129816 0.03594450 0.00812121 0.00394757 0.03211975 0.00113937 
0.04613402 0.02196291 0.00435340 0.00287925 0.00221923 0.00222563 0.00617913 0.00510219 0.02572733 0.00270418 0.00131430 0.03551153 0.00797427 0.00383747 0.03287162 0.00112116 
0.04539671 0.02206563 0.00408877 0.00288167 0.00225476 0.00222146 0.00623876 0.00512384 0.02623877 0.00269237 0.00133100 0.03511219 0.00782947 0.00373094 0.03357493 0.00110205 
0.04464714 0.02218273 0.00383529 0.00288092 0.00228830 0.00221584 0.00630037 0.00514699 0.02675190 0.00267822 0.00134821 0.03474882 0.00768729 0.00362845 0.03422521 0.00108210 
0.04389143 0.02231315 0.00359413 0.00287702 0.00231968 0.00220866 0.00636354 0.00517153 0.02726550 0.00266175 0.00136591 0.03442379 0.00754820 0.00353047 0.03481817 0.00106134 
0.04313578 0.02245589 0.00336646 0.00287001 0.00234871 0.00219979 0.00642784 0.00519732 0.02777835 0.00264301 0.00138405 0.03413955 0.00741270 0.00343746 0.03534979 0.00103983 
0.04238639 0.02260995 0.00315345 0.00285995 0.00237524 0.00218912 0.00649284 0.00522423 0.02828923 0.00262205 0.00140260 0.03389854 0.00728124 0.00334986 0.03581628 0.00101763 
0.04164943 0.02277435 0.00295623 0.00284693 0.00239910 0.00217653 0.00655814 0.00525213 0.02879693 0.00259892 0.00142150 0.03370325 0.00715428 0.00326812 0.03621413 0.00099478 
0.04093102 0.02294815 0.00277594 0.00283103 0.00242016 0.00216195 0.00662332 0.00528088 0.02930024 0.00257371 0.00144071 0.03355616 0.00703229 0.00319265 0.03654017 0.00097134 
0.04023716 0.02313043 0.00261367 0.00281238 0.00243826 0.00214528 0.00668800 0.00531031 0.02979797 0.00254647 0.00146018 0.03345971 0.00691570 0.00312386 0.03679153 0.00094737 
0.03957374 0.02332032 0.00247048 0.00279112 0.00245329 0.00212646 0.00675179 0.00534027 0.03028891 0.00251731 0.00147986 0.03341635 0.00680493 0.00306215 0.03696570 0.00092292 
0.03894648 0.02351693 0.00234741 0.00276738 0.00246515 0.00210542 0.00681434 0.00537062 0.03077189 0.00248632 0.00149969 0.03342845 0.00670041 0.00300789 0.03706053 0.00089806 
0.03836089 0.02371945 0.00224544 0.00274134 0.00247373 0.00208214 0.00687529 0.00540117 0.03124575 0.00245359 0.00151961 0.03349832 0.00660253 0.00296144 0.03707429 0.00087284 
0.03782226 0.02392706 0.00216548 0.00271316 0.00247896 0.00205658 0.00693431 0.00543178 0.03170932 0.00241925 0.00153957 0.03362818 0.00651166 0.00292311 0.03700561 0.00084732 
0.03733564 0.02413897 0.00210843 0.00268305 0.00248078 0.00202873 0.00699108 0.00546228 0.03216147 0.00238341 0.00155949 0.03382014 0.00642816 0.00289323 0.03685358 0.00082155 
0.03690577 0.02435441 0.00207508 0.00265118 0.00247913 0.00199860 0.00704531 0.00549252 0.03260107 0.00234619 0.00157931 0.03407618 0.00635237 0.00287208 0.03661770 0.00079561 
0.03653710 0.02457264 0.00206617 0.00261778 0.00247400 0.00196622 0.00709672 0.00552233 0.03302703 0.00230774 0.00159896 0.03439813 0.00628460 0.00285991 0.03629790 0.00076955 
0.03623376 0.02479292 0.00208235 0.00258306 0.00246537 0.00193164 0.00714506 0.00555157 0.03343825 0.00226818 0.00161839 0.03478764 0.00622512 0.00285694 0.03589458 0.00074342 
0.03599951 0.02501454 0.00212422 0.00254723 0.00245325 0.00189491 0.00719008 0.00558009 0.03383369 0.00222767 0.00163750 0.03524617 0.00617420 0.00286339 0.03540857 0.00071729 
0.03583776 0.02523679 0.00219226 0.00251052 0.00243766 0.00185612 0.00723159 0.00560776 0.03421231 0.00218635 0.00165623 0.03577496 0.00613206 0.00287941 0.03484117 0.00069121 
0.03575152 0.02545898 0.00228687 0.00247315 0.00241865 0.00181537 0.00726939 0.00563444 0.03457313 0.00214438 0.00167451 0.03637504 0.00609889 0.00290515 0.03419412 0.00066523 
0.03574342 0.02568043 0.00240836 0.00243537 0.00239630 0.00177278 0.00730331 0.00566002 0.03491518 0.00210192 0.00169226 0.03704716 0.00607486 0.00294070 0.03346962 0.00063941 
0.03581566 0.02590045 0.00255692 0.00239739 0.00237067 0.00172850 0.00733321 0.00568439 0.03523754 0.00205913 0.00170941 0.03779182 0.00606009 0.00298613 0.03267031 0.00061380 
0.03597006 0.02611837 0.00273264 0.00235944 0.00234187 0.00168268 0.00735897 0.00570746 0.03553933 0.00201618 0.00172588 0.03860920 0.00605467 0.00304147 0.03179926 0.00058845 
0.03620796 0.02633353 0.00293552 0.00232175 0.00231003 0.00163551 0.00738050 0.00572913 0.03581971 0.00197323 0.00174160 0.03949921 0.00605866 0.00310672 0.03085998 0.00056341 
0.03653032 0.02654524 0.00316543 0.00228454 0.00227529 0.00158718 0.00739772 0.00574936 0.03607790 0.00193046 0.00175650 0.04046145 0.00607207 0.00318184 0.02985640 0.00053873 
0.03693764 0.02675285 0.00342214 0.00224802 0.00223779 0.00153791 0.00741059 0.00576807 0.03631318 0.00188804 0.00177050 0.04149515 0.00609487 0.00326675 0.02879283 0.00051444 
0.03742999 0.02695568 0.00370527 0.00221241 0.00219772 0.00148794 0.00741909 0.00578525 0.03652485 0.00184614 0.00178353 0.04259924 0.00612701 0.00336134 0.02767397 0.00049059 
0.03800702 0.02715306 0.00401437 0.00217791 0.00215527 0.00143751 0.00742322 0.00580086 0.03671233 0.00180494 0.00179553 0.04377229 0.00616838 0.00346545 0.02650491 0.00046723 
0.03866793 0.02734432 0.00434884 0.00214470 0.00211064 0.00138690 0.00742300 0.00581493 0.03687504 0.00176460 0.00180644 0.04501252 0.00621884 0.00357890 0.02529104 0.00044438 
0.03941153 0.02752880 0.00470797 0.00211298 0.00206405 0.00133639 0.00741848 0.00582745 0.03701253 0.00172530 0.00181618 0.04631780 0.00627821 0.00370144 0.02403810 0.00042208 
0.04023620 0.02770581 0.00509094 0.00208292 0.00201574 0.00128627 0.00740975 0.00583848 0.03712438 0.00168721 0.00182472 0.04768562 0.00634625 0.00383283 0.02275211 0.00040036 
0.04113990 0.02787471 0.00549680 0.00205468 0.00196596 0.00123686 0.00739689 0.00584806 0.03721027 0.00165049 0.00183198 0.04911314 0.00642270 0.00397275 0.02143936 0.00037924 
0.04212023 0.02803481 0.00592450 0.00202841 0.00191496 0.00118847 0.00738003 0.00585629 0.03726994 0.00161530 0.00183794 0.05059717 0.00650727 0.00412087 0.02010637 0.00035877 
0.04317438 0.02818547 0.00637287 0.00200425 0.00186302 0.00114143 0.00735930 0.00586324 0.03730325 0.00158181 0.00184255 0.05213415 0.00659960 0.00427681 0.01875988 0.00033895 
0.04429920 0.02832603 0.00684064 0.00198233 0.00181040 0.00109609 0.00733488 0.00586905 0.03731009 0.00155018 0.00184577 0.05372021 0.00669931 0.00444017 0.01740680 0.00031980 
0.04549117 0.02845587 0.00732642 0.00196276 0.00175740 0.00105279 0.00730695 0.00587385 0.03729049 0.00152054 0.00184757 0.05535113 0.00680600 0.00461051 0.01605417 0.00030135 
0.04674646 0.02857434 0.00782873 0.00194563 0.00170430 0.00101187 0.00727572 0.00587778 0.03724454 0.00149305 0.00184794 0.05702240 0.00691919 0.00478736 0.01470915 0.00028361 
0.04806092 0.02868087 0.00834601 0.00193104 0.00165140 0.00097369 0.00724141 0.00588102 0.03717244 0.00146784 0.00184686 0.05872920 0.00703841 0.00497020 0.01337896 0.00026659 
0.04943011 0.02877485 0.00887660 0.00191906 0.00159900 0.00093860 0.00720427 0.00588376 0.03707446 0.00144504 0.00184433 0.06046644 0.00716314 0.00515853 0.01207088 0.00025029 
0.05084931 0.02885574 0.00941875 0.00190974 0.00154739 0.00090696 0.00716456 0.00588620 0.03695098 0.00142478 0.00184034 0.06222877 0.00729282 0.00535177 0.01079215 0.00023472 
0.05231357 0.02892301 0.00997065 0.00190313 0.00149687 0.00087911 0.00712256 0.00588856 0.03680249 0.00140717 0.00183492 0.06401060 0.00742688 0.00554936 0.00955002 0.00021988 
0.05381770 0.02897618 0.01053041 0.00189926 0.00144773 0.00085541 0.00707857 0.00589107 0.03662953 0.00139231 0.00182807 0.06580615 0.00756472 0.00575069 0.00835162 0.00020578 
0.05535632 0.02901480 0.01109611 0.00189816 0.00140027 0.00083617 0.00703291 0.00589397 0.03643277 0.00138031 0.00181983 0.06760944 0.00770572 0.00595513 0.00720401 0.00019240 
0.05692387 0.02903847 0.01166575 0.00189981 0.00135477 0.00082174 0.00698588 0.00589751 0.03621295 0.00137125 0.00181024 0.06941433 0.00784923 0.00616207 0.00611406 0.00017975 
0.05851464 0.02904684 0.01223731 0.00190422 0.00131149 0.00081243 0.00693784 0.00590197 0.03597091 0.00136521 0.00179934 0.07121459 0.00799458 0.00637084 0.00508848 0.00016782 
0.06012280 0.02903962 0.01280873 0.00191137 0.00127073 0.00080853 0.00688913 0.00590760 0.03570758 0.00136225 0.00178720 0.07300385 0.00814111 0.00658078 0.00413377 0.00015659 
0.06174242 0.02901656 0.01337793 0.00192122 0.00123271 0.00081035 0.00684010 0.00591467 0.03542396 0.00136244 0.00177387 0.07477571 0.00828813 0.00679124 0.00325614 0.00014606 
0.06336749 0.02897751 0.01394283 0.00193374 0.00119770 0.00081815 0.00679113 0.00592347 0.03512113 0.00136580 0.00175943 0.07652374 0.00843494 0.00700152 0.00246152 0.00013620 
0.06499195 0.02892237 0.01450134 0.00194887 0.00116592 0.00083217 0.00674258 0.00593426 0.03480026 0.00137239 0.00174396 0.07824151 0.00858084 0.00721095 0.00175554 0.00012701 
0.06660974 0.02885111 0.01505139 0.00196654 0.00113759 0.00085265 0.00669482 0.00594731 0.03446257 0.00138221 0.00172756 0.07992262 0.00872515 0.00741887 0.00114345 0.00011846 
0.06821479 0.02876378 0.01559092 0.00198669 0.00111290 0.00087980 0.00664824 0.00596290 0.03410936 0.00139527 0.00171032 0.08156075 0.00886715 0.00762459 0.00063010 0.00011054 
0.06980107 0.02866051 0.01611792 0.00200923 0.00109203 0.00091379 0.00660322 0.00598128 0.03374197 0.00141158 0.00169236 0.08314970 0.00900617 0.00782745 0.00021996 0.00010322 
0.07136260 0.02854154 0.01663041 0.00203409 0.00107514 0.00095477 0.00656013 0.00600270 0.03336181 0.00143111 0.00167379 0.08468340 0.00914153 0.00802680 0.00008297 0.00009648 
0.07289348 0.02840716 0.01712647 0.00206115 0.00106237 0.00100288 0.00651935 0.00602741 0.03297031 0.00145383 0.00165472 0.08615597 0.00927255 0.00822200 0.00027515 0.00009029 
0.07438795 0.02825777 0.01760423 0.00209032 0.00105384 0.00105821 0.00648125 0.00605562 0.03256897 0.00147971 0.00163530 0.08756170 0.00939859 0.00841241 0.00035353 0.00008463 
0.07584034 0.02809385 0.01806192 0.00212149 0.00104965 0.00112083 0.00644620 0.00608754 0.03215930 0.00150868 0.00161565 0.08889518 0.00951903 0.00859744 0.00031557 0.00007948 
0.07724515 0.02791598 0.01849782 0.00215456 0.00104986 0.00119076 0.00641454 0.00612336 0.03174282 0.00154068 0.00159591 0.09015121 0.00963324 0.00877649 0.00015928 0.00007481 
0.07859709 0.02772483 0.01891034 0.00218939 0.00105452 0.00126801 0.00638664 0.00616326 0.03132107 0.00157563 0.00157623 0.09132493 0.00974066 0.00894902 0.00011680 0.00007058 
0.07989102 0.02752116 0.01929797 0.00222587 0.00106367 0.00135254 0.00636282 0.00620737 0.03089561 0.00161343 0.00155675 0.09241180 0.00984073 0.00911448 0.00051358 0.00006678 
0.08112206 0.02730580 0.01965930 0.00226388 0.00107729 0.00144429 0.00634339 0.00625581 0.03046797 0.00165398 0.00153762 0.09340763 0.00993295 0.00927239 0.00103138 0.00006337 
0.08228557 0.02707970 0.01999307 0.00230329 0.00109536 0.00154316 0.00632867 0.00630869 0.03003969 0.00169716 0.00151899 0.09430859 0.01001682 0.00942226 0.00166995 0.00006033 
0.08337715 0.02684388 0.02029811 0.00234397 0.00111783 0.00164901 0.00631894 0.00636606 0.02961227 0.00174285 0.00150102 0.09511128 0.01009191 0.00956366 0.00242846 0.00005763 
0.08439271 0.02659942 0.02057340 0.00238580 0.00114463 0.00176167 0.00631446 0.00642796 0.02918717 0.00179089 0.00148385 0.09581271 0.01015781 0.00969620 0.00330548 0.00005524 
0.08532843 0.02634752 0.02081806 0.00242863 0.00117565 0.00188093 0.00631549 0.00649440 0.02876585 0.00184115 0.00146764 0.09641031 0.01021417 0.00981951 0.00429902 0.00005312 
0.08618083 0.02608941 0.02103133 0.00247235 0.00121078 0.00200654 0.00632223 0.00656534 0.02834967 0.00189345 0.00145253 0.09690198 0.01026067 0.00993329 0.00540648 0.00005127 
0.08694673 0.02582640 0.02121262 0.00251681 0.00124985 0.00213825 0.00633489 0.00664073 0.02793997 0.00194763 0.00143867 0.09728607 0.01029705 0.01003724 0.00662472 0.00004964 
0.08762331 0.02555986 0.02136148 0.00256189 0.00129270 0.00227573 0.00635364 0.00672047 0.02753801 0.00200351 0.00142620 0.09756141 0.01032310 0.01013115 0.00795002 0.00004822 
0.08820809 0.02529122 0.02147759 0.00260746 0.00133914 0.00241864 0.00637862 0.00680443 0.02714499 0.00206089 0.00141526 0.09772731 0.01033864 0.01021482 0.00937812 0.00004697 
0.08869896 0.02502194 0.02156081 0.00265339 0.00138894 0.00256663 0.00640995 0.00689246 0.02676201 0.00211958 0.00140597 0.09778356 0.01034356 0.01028811 0.01090421 0.00004588 
0.08909418 0.02475352 0.02161114 0.00269954 0.00144186 0.00271928 0.00644771 0.00698435 0.02639010 0.00217938 0.00139846 0.09773044 0.01033781 0.01035091 0.01252299 0.00004491 
0.08939237 0.02448749 0.02162873 0.00274581 0.00149767 0.00287616 0.00649196 0.00707988 0.02603021 0.00224006 0.00139284 0.09756871 0.01032136 0.01040319 0.01422867 0.00004406 
0.08959256 0.02422539 0.02161387 0.00279206 0.00155606 0.00303683 0.00654271 0.00717878 0.02568317 0.00230143 0.00138923 0.09729961 0.01029426 0.01044492 0.01601497 0.00004329 
0.08969414 0.02396877 0.02156703 0.00283816 0.00161677 0.00320081 0.00659997 0.00728076 0.02534971 0.00236325 0.00138771 0.09692487 0.01025661 0.01047616 0.01787520 0.00004260 
0.08969690 0.02371919 0.02148877 0.00288401 0.00167947 0.00336758 0.00666368 0.00738550 0.02503047 0.00242530 0.00138837 0.09644665 0.01020856 0.01049698 0.01980226 0.00004195 
0.08960100 0.02347819 0.02137984 0.00292948 0.00174385 0.00353664 0.00673378 0.00749265 0.02472598 0.00248735 0.00139129 0.09586761 0.01015031 0.01050752 0.02178867 0.00004133 
0.08940702 0.02324727 0.02124110 0.00297446 0.00180958 0.00370743 0.00681016 0.00760182 0.02443664 0.00254918 0.00139653 0.09519080 0.01008211 0.01050795 0.02382662 0.00004073 
0.08911588 0.02302793 0.02107354 0.00301882 0.00187631 0.00387942 0.00689268 0.00771261 0.02416276 0.00261055 0.00140415 0.09441974 0.01000427 0.01049849 0.02590799 0.00004014 
0.08872891 0.02282160 0.02087826 0.00306247 0.00194369 0.00405202 0.00698116 0.00782460 0.02390452 0.00267124 0.00141417 0.09355831 0.00991713 0.01047939 0.02802443 0.00003954 
0.08824778 0.02262967 0.02065650 0.00310529 0.00201137 0.00422466 0.00707541 0.00793734 0.02366199 0.00273100 0.00142664 0.09261081 0.00982109 0.01045096 0.03016733 0.00003891 
0.08767453 0.02245347 0.02040958 0.00314718 0.00207899 0.00439675 0.00717518 0.00805036 0.02343514 0.00278963 0.00144154 0.09158188 0.00971660 0.01041354 0.03232796 0.00003826 
0.08701157 0.02229425 0.02013893 0.00318804 0.00214617 0.00456772 0.00728020 0.00816320 0.02322381 0.00284689 0.00145889 0.09047651 0.00960415 0.01036749 0.03449742 0.00003757 
0.08626163 0.02215317 0.01984607 0.00322775 0.00221257 0.00473696 0.00739019 0.00827535 0.02302774 0.00290256 0.00147867 0.08929999 0.00948426 0.01031323 0.03666674 0.00003684 
0.08542776 0.02203132 0.01953259 0.00326622 0.00227781 0.00490388 0.00750481 0.00838632 0.02284656 0.00295644 0.00150084 0.08805791 0.00935749 0.01025119 0.03882692 0.00003605 
0.08451332 0.02192968 0.01920013 0.00330336 0.00234154 0.00506791 0.00762372 0.00849562 0.02267980 0.00300831 0.00152535 0.08675611 0.00922445 0.01018185 0.04096898 0.00003522 
0.08352198 0.02184912 0.01885042 0.00333907 0.00240340 0.00522847 0.00774653 0.00860274 0.02252690 0.00305798 0.00155215 0.08540065 0.00908576 0.01010570 0.04308398 0.00003432 
0.08245766 0.02179040 0.01848522 0.00337326 0.00246306 0.00538498 0.00787285 0.00870718 0.02238720 0.00310525 0.00158117 0.08399779 0.00894209 0.01002328 0.04516311 0.00003337 
0.08132455 0.02175418 0.01810632 0.00340583 0.00252017 0.00553690 0.00800224 0.00880846 0.02225994 0.00314995 0.00161230 0.08255396 0.00879412 0.00993511 0.04719771 0.00003236 
0.08012708 0.02174096 0.01771553 0.00343671 0.00257442 0.00568369 0.00813426 0.00890609 0.02214432 0.00319189 0.00164546 0.08107573 0.00864256 0.00984176 0.04917932 0.00003130 
0.07886987 0.02175114 0.01731469 0.00346579 0.00262551 0.00582483 0.00826846 0.00899961 0.02203942 0.00323092 0.00168052 0.07956976 0.00848812 0.00974382 0.05109974 0.00003018 
0.07755775 0.02178497 0.01690563 0.00349301 0.00267312 0.00595981 0.00840434 0.00908857 0.02194429 0.00326689 0.00171736 0.07804280 0.00833155 0.00964187 0.05295107 0.00002901 
0.07619572 0.02184258 0.01649016 0.00351828 0.00271701 0.00608818 0.00854142 0.00917255 0.02185792 0.00329966 0.00175584 0.07650163 0.00817359 0.00953652 0.05472574 0.00002780 
0.07478890 0.02192396 0.01607008 0.00354153 0.00275690 0.00620948 0.00867919 0.00925115 0.02177924 0.00332911 0.00179579 0.07495303 0.00801499 0.00942838 0.05641659 0.00002654 
0.07334254 0.02202895 0.01564716 0.00356267 0.00279256 0.00632329 0.00881714 0.00932399 0.02170715 0.00335513 0.00183708 0.07340377 0.00785651 0.00931806 0.05801686 0.00002525 
0.07186198 0.02215728 0.01522313 0.00358165 0.00282378 0.00642923 0.00895475 0.00939075 0.02164053 0.00337763 0.00187951 0.07186057 0.00769890 0.00920618 0.05952027 0.00002394 
0.07035262 0.02230853 0.01479967 0.00359838 0.00285037 0.00652694 0.00909149 0.00945112 0.02157822 0.00339652 0.00192291 0.07033006 0.00754291 0.00909335 0.06092105 0.00002260 
0.06881992 0.02248215 0.01437839 0.00361281 0.00287218 0.00661610 0.00922685 0.00950484 0.02151907 0.00341175 0.00196709 0.06881876 0.00738928 0.00898018 0.06221395 0.00002124 
0.06726932 0.02267746 0.01396085 0.00362488 0.00288905 0.00669643 0.00936030 0.00955168 0.02146193 0.00342325 0.00201186 0.06733305 0.00723872 0.00886727 0.06339432 0.00001989 
0.06570627 0.02289367 0.01354850 0.00363453 0.00290088 0.00676768 0.00949131 0.00959148 0.02140565 0.00343101 0.00205702 0.06587916 0.00709195 0.00875522 0.06445807 0.00001853 
0.06413616 0.02312986 0.01314275 0.00364171 0.00290758 0.00682965 0.00961939 0.00962410 0.02134911 0.00343500 0.00210235 0.06446309 0.00694964 0.00864459 0.06540175 0.00001719 
0.06256433 0.02338501 0.01274489 0.00364638 0.00290910 0.00688217 0.00974402 0.00964945 0.02129121 0.00343523 0.00214766 0.06309067 0.00681246 0.00853596 0.06622256 0.00001586 
0.06099603 0.02365799 0.01235613 0.00364849 0.00290541 0.00692511 0.00986472 0.00966752 0.02123089 0.00343171 0.00219272 0.06176745 0.00668104 0.00842988 0.06691834 0.00001457 
0.05943639 0.02394759 0.01197758 0.00364802 0.00289652 0.00695839 0.00998102 0.00967832 0.02116716 0.00342448 0.00223734 0.06049875 0.00655598 0.00832685 0.06748763 0.00001331 
0.05789038 0.02425249 0.01161023 0.00364492 0.00288244 0.00698196 0.01009244 0.00968191 0.02109907 0.00341357 0.00228129 0.05928959 0.00643785 0.00822740 0.06792962 0.00001210 
0.05636282 0.02457132 0.01125498 0.00363919 0.00286325 0.00699582 0.01019856 0.00967842 0.02102572 0.00339907 0.00232436 0.05814469 0.00632717 0.00813199 0.06824422 0.00001094 
0.05485837 0.02490263 0.01091262 0.00363080 0.00283902 0.00700001 0.01029895 0.00966804 0.02094632 0.00338105 0.00236635 0.05706847 0.00622445 0.00804109 0.06843201 0.00000984 
0.05338143 0.02524493 0.01058381 0.00361976 0.00280988 0.00699460 0.01039323 0.00965098 0.02086014 0.00335960 0.00240706 0.05606499 0.00613012 0.00795510 0.06849427 0.00000882 
0.05193621 0.02559667 0.01026913 0.00360606 0.00277597 0.00697972 0.01048101 0.00962753 0.02076652 0.00333485 0.00244628 0.05513798 0.00604460 0.00787444 0.06843296 0.00000786 
0.05052667 0.02595628 0.00996903 0.00358971 0.00273747 0.00695553 0.01056197 0.00959802 0.02066493 0.00330690 0.00248383 0.05429080 0.00596824 0.00779946 0.06825069 0.00000699 
0.04915649 0.02632218 0.00968384 0.00357075 0.00269455 0.00692221 0.01063578 0.00956282 0.02055492 0.00327591 0.00251952 0.05352646 0.00590137 0.00773049 0.06795075 0.00000621 
0.04782908 0.02669276 0.00941381 0.00354918 0.00264746 0.00688001 0.01070217 0.00952236 0.02043613 0.00324203 0.00255317 0.05284756 0.00584424 0.00766784 0.06753704 0.00000552 
0.04654756 0.02706643 0.00915908 0.00352507 0.00259643 0.00682919 0.01076088 0.00947711 0.02030834 0.00320542 0.00258463 0.05225634 0.00579708 0.00761176 0.06701409 0.00000492 
0.04531475 0.02744161 0.00891965 0.00349845 0.00254174 0.00677006 0.01081170 0.00942758 0.02017140 0.00316625 0.00261372 0.05175463 0.00576006 0.00756249 0.06638698 0.00000442 
0.04413313 0.02781676 0.00869549 0.00346939 0.00248367 0.00670295 0.01085443 0.00937432 0.02002531 0.00312472 0.00264031 0.05134386 0.00573329 0.00752021 0.06566139 0.00000402 
0.04300488 0.02819037 0.00848641 0.00343796 0.00242254 0.00662822 0.01088894 0.00931790 0.01987016 0.00308103 0.00266428 0.05102509 0.00571685 0.00748510 0.06484346 0.00000373 
0.04193183 0.02856098 0.00829219 0.00340425 0.00235867 0.00654628 0.01091510 0.00925896 0.01970616 0.00303537 0.00268549 0.05079894 0.00571077 0.00745727 0.06393985 0.00000354 
0.04091548 0.02892718 0.00811249 0.00336836 0.00229240 0.00645753 0.01093284 0.00919812 0.01953363 0.00298797 0.00270384 0.05066565 0.00571501 0.00743680 0.06295763 0.00000344 
0.03995700 0.02928766 0.00794693 0.00333038 0.00222410 0.00636243 0.01094211 0.00913604 0.01935301 0.00293904 0.00271926 0.05062507 0.00572950 0.00742375 0.06190426 0.00000345 
0.03905719 0.02964116 0.00779502 0.00329044 0.00215412 0.00626142 0.01094289 0.00907342 0.01916485 0.00288882 0.00273165 0.05067663 0.00575413 0.00741813 0.06078755 0.00000356 
0.03821654 0.02998652 0.00765627 0.00324868 0.00208286 0.00615500 0.01093523 0.00901093 0.01896980 0.00283753 0.00274096 0.05081939 0.00578873 0.00741992 0.05961561 0.00000377 
0.03743517 0.03032266 0.00753008 0.00320523 0.00201071 0.00604366 0.01091917 0.00894929 0.01876861 0.00278541 0.00274715 0.05105203 0.00583310 0.00742906 0.05839677 0.00000406 
0.03671290 0.03064863 0.00741584 0.00316026 0.00193805 0.00592792 0.01089481 0.00888919 0.01856215 0.00273270 0.00275019 0.05137283 0.00588699 0.00744547 0.05713956 0.00000444 
0.03604919 0.03096357 0.00731291 0.00311393 0.00186528 0.00580828 0.01086227 0.00883133 0.01835137 0.00267965 0.00275007 0.05177974 0.00595011 0.00746902 0.05585264 0.00000490 
0.03544319 0.03126671 0.00722061 0.00306642 0.00179281 0.00568529 0.01082173 0.00877640 0.01813729 0.00262649 0.00274678 0.05227032 0.00602214 0.00749955 0.05454476 0.00000543 
0.03489375 0.03155742 0.00713823 0.00301792 0.00172102 0.00555946 0.01077337 0.00872508 0.01792105 0.00257346 0.00274036 0.05284181 0.00610273 0.00753688 0.05322465 0.00000602 
0.03439942 0.03183519 0.00706507 0.00296863 0.00165033 0.00543135 0.01071740 0.00867802 0.01770383 0.00252081 0.00273084 0.05349112 0.00619148 0.00758079 0.05190105 0.00000667 
0.03395843 0.03209960 0.00700043 0.00291876 0.00158112 0.00530148 0.01065408 0.00863586 0.01748690 0.00246877 0.00271828 0.05421482 0.00628799 0.00763104 0.05058259 0.00000737 
0.03356878 0.03235037 0.00694359 0.00286854 0.00151376 0.00517038 0.01058369 0.00859919 0.01727156 0.00241759 0.00270272 0.05500922 0.00639181 0.00768736 0.04927774 0.00000811 
0.03322820 0.03258732 0.00689388 0.00281818 0.00144865 0.00503858 0.01050652 0.00856859 0.01705920 0.00236748 0.00268427 0.05587031 0.00650247 0.00774944 0.04799478 0.00000888 
0.03293417 0.03281039 0.00685061 0.00276794 0.00138613 0.00490659 0.01042290 0.00854459 0.01685121 0.00231868 0.00266301 0.05679384 0.00661950 0.00781696 0.04674174 0.00000966 
0.03268396 0.03301964 0.00681315 0.00271805 0.00132656 0.00477493 0.01033318 0.00852765 0.01664903 0.00227139 0.00263906 0.05777531 0.00674238 0.00788958 0.04552631 0.00001045 
0.03247465 0.03321522 0.00678089 0.00266876 0.00127027 0.00464409 0.01023771 0.00851822 0.01645412 0.00222585 0.00261254 0.05880999 0.00687061 0.00796693 0.04435586 0.00001124 
0.03230311 0.03339737 0.00675326 0.00262033 0.00121758 0.00451455 0.01013688 0.00851668 0.01626794 0.00218225 0.00258357 0.05989297 0.00700366 0.00804863 0.04323732 0.00001201 
0.03216608 0.03356646 0.00672974 0.00257302 0.00116879 0.00438676 0.01003110 0.00852334 0.01609197 0.00214078 0.00255232 0.06101911 0.00714100 0.00813426 0.04217721 0.00001275 
0.03206015 0.03372290 0.00670984 0.00252709 0.00112416 0.00426117 0.00992076 0.00853848 0.01592765 0.00210163 0.00251893 0.06218318 0.00728209 0.00822342 0.04118153 0.00001345 
0.03198181 0.03386721 0.00669316 0.00248280 0.00108396 0.00413821 0.00980629 0.00856229 0.01577643 0.00206499 0.00248356 0.06337976 0.00742638 0.00831568 0.04025575 0.00001410 
0.03192744 0.03399996 0.00667932 0.00244042 0.00104841 0.00401827 0.00968813 0.00859491 0.01563970 0.00203102 0.00244640 0.06460336 0.00757335 0.00841058 0.03940479 0.00001470 
0.03189338 0.03412181 0.00666802 0.00240022 0.00101772 0.00390173 0.00956670 0.00863641 0.01551884 0.00199986 0.00240762 0.06584838 0.00772245 0.00850768 0.03863297 0.00001521 
0.03187590 0.03423342 0.00665902 0.00236245 0.00099207 0.00378894 0.00944246 0.00868678 0.01541516 0.00197168 0.00236741 0.06710920 0.00787315 0.00860652 0.03794400 0.00001565 
0.03187128 0.03433554 0.00665213 0.00232736 0.00097161 0.00368022 0.00931584 0.00874595 0.01532990 0.00194660 0.00232596 0.06838013 0.00802495 0.00870662 0.03734094 0.00001599 
0.03187580 0.03442891 0.00664726 0.00229522 0.00095647 0.00357586 0.00918728 0.00881379 0.01526426 0.00192474 0.00228347 0.06965551 0.00817732 0.00880753 0.03682619 0.00001623 
0.03188575 0.03451431 0.00664433 0.00226626 0.00094674 0.00347614 0.00905724 0.00889007 0.01521933 0.00190621 0.00224014 0.07092969 0.00832978 0.00890877 0.03640149 0.00001636 
0.03189750 0.03459253 0.00664337 0.00224073 0.00094248 0.00338130 0.00892615 0.00897453 0.01519614 0.00189110 0.00219616 0.07219709 0.00848183 0.00900987 0.03606789 0.00001638 
0.03190749 0.03466433 0.00664445 0.00221885 0.00094374 0.00329154 0.00879444 0.00906680 0.01519559 0.00187951 0.00215174 0.07345219 0.00863302 0.00911036 0.03582578 0.00001626 
0.03191226 0.03473049 0.00664770 0.00220084 0.00095053 0.00320704 0.00866255 0.00916648 0.01521851 0.00187149 0.00210708 0.07468959 0.00878290 0.00920978 0.03567484 0.00001602 
0.03190845 0.03479175 0.00665330 0.00218689 0.00096282 0.00312796 0.00853087 0.00927308 0.01526561 0.00186710 0.00206237 0.07590403 0.00893103 0.00930767 0.03561411 0.00001564 
0.03189289 0.03484881 0.00666151 0.00217721 0.00098055 0.00305442 0.00839983 0.00938605 0.01533747 0.00186639 0.00201782 0.07709041 0.00907701 0.00940359 0.03564194 0.00001511 
0.03186254 0.03490233 0.00667261 0.00217197 0.00100366 0.00298650 0.00826982 0.00950479 0.01543456 0.00186939 0.00197360 0.07824382 0.00922046 0.00949709 0.03575607 0.00001445 
0.03181453 0.03495292 0.00668694 0.00217133 0.00103203 0.00292426 0.00814122 0.00962865 0.01555722 0.00187610 0.00192992 0.07935956 0.00936101 0.00958775 0.03595359 0.00001364 
0.03174622 0.03500115 0.00670487 0.00217542 0.00106552 0.00286775 0.00801439 0.00975692 0.01570567 0.00188655 0.00188695 0.08043319 0.00949832 0.00967516 0.03623101 0.00001268 
0.03165518 0.03504748 0.00672681 0.00218437 0.00110398 0.00281696 0.00788969 0.00988883 0.01587998 0.00190071 0.00184487 0.08146052 0.00963206 0.00975891 0.03658425 0.00001158 
0.03153919 0.03509233 0.00675319 0.00219828 0.00114721 0.00277187 0.00776744 0.01002359 0.01608008 0.00191856 0.00180384 0.08243765 0.00976194 0.00983864 0.03700871 0.00001034 
0.03139629 0.03513604 0.00678447 0.00221724 0.00119500 0.00273243 0.00764797 0.01016036 0.01630578 0.00194007 0.00176403 0.08336099 0.00988770 0.00991397 0.03749930 0.00000896 
0.03122478 0.03517885 0.00682112 0.00224130 0.00124711 0.00269858 0.00753157 0.01029828 0.01655674 0.00196519 0.00172558 0.08422729 0.01000906 0.00998456 0.03805047 0.00000744 
0.03102321 0.03522092 0.00686362 0.00227050 0.00130328 0.00267020 0.00741852 0.01043645 0.01683247 0.00199387 0.00168864 0.08503362 0.01012582 0.01005009 0.03865624 0.00000580 
0.03079042 0.03526233 0.00691245 0.00230486 0.00136323 0.00264718 0.00730908 0.01057396 0.01713237 0.00202603 0.00165333 0.08577745 0.01023775 0.01011027 0.03931029 0.00000404 
0.03052553 0.03530307 0.00696809 0.00234437 0.00142665 0.00262937 0.00720349 0.01070989 0.01745567 0.00206158 0.00161979 0.08645662 0.01034468 0.01016481 0.04000596 0.00000217 
0.03022793 0.03534302 0.00703100 0.00238899 0.00149324 0.00261662 0.00710197 0.01084329 0.01780149 0.00210044 0.00158811 0.08706934 0.01044644 0.01021347 0.04073635 0.00000021 
0.02989731 0.03538199 0.00710161 0.00243867 0.00156266 0.00260873 0.00700471 0.01097326 0.01816882 0.00214250 0.00155840 0.08761426 0.01054288 0.01025603 0.04149434 0.00000185 
0.02953367 0.03541970 0.00718034 0.00249332 0.00163455 0.00260552 0.00691190 0.01109884 0.01855649 0.00218766 0.00153074 0.08809041 0.01063388 0.01029227 0.04227264 0.00000398 
0.02913727 0.03545580 0.00726758 0.00255284 0.00170858 0.00260676 0.00682369 0.01121914 0.01896325 0.00223577 0.00150521 0.08849725 0.01071933 0.01032204 0.04306386 0.00000617 
0.02870867 0.03548985 0.00736366 0.00261709 0.00178435 0.00261223 0.00674022 0.01133326 0.01938771 0.00228672 0.00148188 0.08883468 0.01079914 0.01034518 0.04386059 0.00000841 
0.02824871 0.03552132 0.00746887 0.00268593 0.00186151 0.00262168 0.00666162 0.01144034 0.01982838 0.00234035 0.00146080 0.08910299 0.01087323 0.01036159 0.04465541 0.00001068 
0.02775852 0.03554966 0.00758345 0.00275916 0.00193967 0.00263487 0.00658797 0.01153953 0.02028367 0.00239653 0.00144200 0.08930291 0.01094155 0.01037117 0.04544095 0.00001296 
0.02723947 0.03557421 0.00770760 0.00283658 0.00201845 0.00265154 0.00651936 0.01163005 0.02075190 0.00245509 0.00142552 0.08943559 0.01100405 0.01037386 0.04621001 0.00001523 
0.02669323 0.03559431 0.00784143 0.00291798 0.00209746 0.00267141 0.00645586 0.01171114 0.02123128 0.00251586 0.00141138 0.08950257 0.01106070 0.01036963 0.04695550 0.00001748 
0.02612169 0.03560924 0.00798500 0.00300310 0.00217632 0.00269421 0.00639751 0.01178211 0.02171998 0.00257868 0.00139959 0.08950582 0.01111148 0.01035849 0.04767062 0.00001969 
0.02552698 0.03561823 0.00813829 0.00309166 0.00225466 0.00271968 0.00634434 0.01184230 0.02221608 0.00264337 0.00139014 0.08944768 0.01115638 0.01034045 0.04834879 0.00002183 
0.02491145 0.03562053 0.00830121 0.00318339 0.00233210 0.00274752 0.00629635 0.01189115 0.02271761 0.00270974 0.00138302 0.08933088 0.01119542 0.01031558 0.04898380 0.00002389 
0.02427766 0.03561536 0.00847359 0.00327797 0.00240827 0.00277747 0.00625355 0.01192812 0.02322257 0.00277761 0.00137820 0.08915848 0.01122860 0.01028395 0.04956977 0.00002585 
0.02362837 0.03560194 0.00865519 0.00337508 0.00248283 0.00280925 0.00621592 0.01195277 0.02372890 0.00284678 0.00137566 0.08893392 0.01125596 0.01024568 0.05010125 0.00002769 
0.02296647 0.03557952 0.00884568 0.00347437 0.00255543 0.00284257 0.00618342 0.01196473 0.02423454 0.00291706 0.00137536 0.08866093 0.01127751 0.01020090 0.05057325 0.00002938 
0.02229505 0.03554738 0.00904466 0.00357548 0.00262574 0.00287717 0.00615601 0.01196370 0.02473741 0.00298825 0.00137724 0.08834356 0.01129332 0.01014978 0.05098125 0.00003091 
0.02161728 0.03550483 0.00925163 0.00367806 0.00269346 0.00291279 0.00613363 0.01194947 0.02523543 0.00306014 0.00138125 0.08798610 0.01130343 0.01009251 0.05132123 0.00003226 
0.02093648 0.03545123 0.00946605 0.00378170 0.00275828 0.00294916 0.00611621 0.01192190 0.02572654 0.00313253 0.00138732 0.08759310 0.01130790 0.01002930 0.05158973 0.00003342 
0.02025602 0.03538602 0.00968725 0.00388602 0.00281993 0.00298604 0.00610367 0.01188095 0.02620870 0.00320522 0.00139539 0.08716934 0.01130681 0.00996039 0.05178386 0.00003435 
0.01957937 0.03530870 0.00991452 0.00399063 0.00287817 0.00302319 0.00609593 0.01182665 0.02667992 0.00327799 0.00140538 0.08671978 0.01130022 0.00988603 0.05190129 0.00003505 
0.01891000 0.03521887 0.01014706 0.00409511 0.00293276 0.00306037 0.00609287 0.01175912 0.02713823 0.00335065 0.00141721 0.08624951 0.01128823 0.00980652 0.05194031 0.00003550 
0.01825142 0.03511621 0.01038402 0.00419905 0.00298349 0.00309737 0.00609441 0.01167858 0.02758174 0.00342299 0.00143079 0.08576377 0.01127094 0.00972214 0.05189979 0.00003569 
0.01760712 0.03500053 0.01062446 0.00430205 0.00303018 0.00313398 0.00610041 0.01158532 0.02800864 0.00349479 0.00144603 0.08526788 0.01124844 0.00963323 0.05177923 0.00003560 
0.01698058 0.03487175 0.01086740 0.00440368 0.00307267 0.00317000 0.00611077 0.01147972 0.02841718 0.00356586 0.00146284 0.08476723 0.01122086 0.00954012 0.05157873 0.00003523 
0.01637520 0.03472989 0.01111178 0.00450355 0.00311085 0.00320527 0.00612535 0.01136225 0.02880572 0.00363600 0.00148113 0.08426721 0.01118831 0.00944317 0.05129898 0.00003455 
0.01579430 0.03457514 0.01135653 0.00460123 0.00314460 0.00323960 0.00614403 0.01123346 0.02917271 0.00370501 0.00150080 0.08377324 0.01115093 0.00934274 0.05094128 0.00003357 
0.01524114 0.03440781 0.01160049 0.00469634 0.00317385 0.00327285 0.00616666 0.01109396 0.02951673 0.00377269 0.00152174 0.08329065 0.01110886 0.00923924 0.05050751 0.00003228 
0.01471880 0.03422834 0.01184251 0.00478847 0.00319855 0.00330488 0.00619312 0.01094445 0.02983646 0.00383885 0.00154387 0.08282472 0.01106226 0.00913304 0.05000010 0.00003068 
0.01423026 0.03403734 0.01208137 0.00487725 0.00321870 0.00333558 0.00622325 0.01078572 0.03013072 0.00390331 0.00156707 0.08238063 0.01101130 0.00902457 0.04942203 0.00002876 
0.01377832 0.03383556 0.01231586 0.00496231 0.00323429 0.00336484 0.00625692 0.01061860 0.03039848 0.00396589 0.00159125 0.08196341 0.01095616 0.00891424 0.04877677 0.00002652 
0.01336558 0.03362391 0.01254473 0.00504328 0.00324537 0.00339257 0.00629397 0.01044398 0.03063882 0.00402641 0.00161630 0.08157791 0.01089703 0.00880248 0.04806830 0.00002397 
0.01299448 0.03340342 0.01276676 0.00511982 0.00325200 0.00341869 0.00633426 0.01026283 0.03085099 0.00408471 0.00164214 0.08122879 0.01083413 0.00868973 0.04730103 0.00002112 
0.01266719 0.03317530 0.01298070 0.00519162 0.00325429 0.00344315 0.00637763 0.01007616 0.03103439 0.00414062 0.00166865 0.08092050 0.01076766 0.00857643 0.04647979 0.00001796 
0.01238570 0.03294089 0.01318533 0.00525835 0.00325233 0.00346591 0.00642395 0.00988501 0.03118859 0.00419399 0.00169575 0.08065720 0.01069787 0.00846302 0.04560977 0.00001452 
0.01215170 0.03270169 0.01337943 0.00531975 0.00324629 0.00348693 0.00647305 0.00969049 0.03131330 0.00424469 0.00172334 0.08044281 0.01062500 0.00834996 0.04469651 0.00001081 
0.01196667 0.03245931 0.01356184 0.00537554 0.00323634 0.00350621 0.00652480 0.00949372 0.03140840 0.00429256 0.00175133 0.08028094 0.01054934 0.00823769 0.04374581 0.00000684 
0.01183177 0.03221550 0.01373141 0.00542548 0.00322265 0.00352375 0.00657903 0.00929585 0.03147393 0.00433750 0.00177963 0.08017485 0.01047114 0.00812668 0.04276372 0.00000262 
0.01174793 0.03197213 0.01388704 0.00546936 0.00320544 0.00353957 0.00663560 0.00909806 0.03151010 0.00437937 0.00180815 0.08012752 0.01039072 0.00801737 0.04175651 0.00000181 
0.01171576 0.03173117 0.01402769 0.00550698 0.00318496 0.00355368 0.00669436 0.00890151 0.03151728 0.00441807 0.00183681 0.08014152 0.01030839 0.00791022 0.04073054 0.00000644 
0.01173559 0.03149470 0.01415238 0.00553819 0.00316144 0.00356614 0.00675517 0.00870740 0.03149599 0.00445351 0.00186552 0.08021909 0.01022448 0.00780568 0.03969232 0.00001124 
0.01180747 0.03126489 0.01426019 0.00556284 0.00313515 0.00357700 0.00681787 0.00851689 0.03144693 0.00448559 0.00189420 0.08036208 0.01013933 0.00770419 0.03864838 0.00001618 
0.01193113 0.03104395 0.01435029 0.00558083 0.00310638 0.00358631 0.00688232 0.00833117 0.03137092 0.00451425 0.00192279 0.08057195 0.01005329 0.00760619 0.03760524 0.00002124 
0.01210603 0.03083418 0.01442190 0.00559207 0.00307542 0.00359416 0.00694838 0.00815137 0.03126894 0.00453943 0.00195121 0.08084979 0.00996675 0.00751212 0.03656939 0.00002638 
0.01233134 0.03063790 0.01447436 0.00559652 0.00304257 0.00360063 0.00701590 0.00797861 0.03114213 0.00456106 0.00197938 0.08119627 0.00988010 0.00742241 0.03554722 0.00003157 
0.01260592 0.03045746 0.01450709 0.00559415 0.00300815 0.00360580 0.00708475 0.00781397 0.03099173 0.00457911 0.00200725 0.08161168 0.00979373 0.00733748 0.03454495 0.00003677 
0.01292837 0.03029523 0.01451961 0.00558497 0.00297246 0.00360979 0.00715477 0.00765851 0.03081913 0.00459355 0.00203475 0.08209593 0.00970805 0.00725774 0.03356866 0.00004194 
0.01329703 0.03015353 0.01451154 0.00556901 0.00293583 0.00361269 0.00722582 0.00751320 0.03062582 0.00460437 0.00206181 0.08264851 0.00962350 0.00718360 0.03262415 0.00004706 
0.01370998 0.03003470 0.01448261 0.00554634 0.00289859 0.00361462 0.00729778 0.00737899 0.03041341 0.00461157 0.00208838 0.08326857 0.00954050 0.00711546 0.03171699 0.00005207 
0.01416502 0.02994100 0.01443265 0.00551704 0.00286104 0.00361569 0.00737049 0.00725676 0.03018359 0.00461514 0.00211441 0.08395488 0.00945949 0.00705369 0.03085241 0.00005695 
0.01465977 0.02987462 0.01436162 0.00548125 0.00282351 0.00361602 0.00744382 0.00714729 0.02993815 0.00461511 0.00213983 0.08470582 0.00938093 0.00699867 0.03003533 0.00006164 
0.01519160 0.02983767 0.01426957 0.00543910 0.00278631 0.00361573 0.00751763 0.00705133 0.02967895 0.00461151 0.00216461 0.08551949 0.00930525 0.00695077 0.02927028 0.00006611 
0.01575769 0.02983217 0.01415669 0.00539076 0.00274974 0.00361495 0.00759177 0.00696952 0.02940790 0.00460439 0.00218868 0.08639362 0.00923293 0.00691032 0.02856138 0.00007033 
0.01635504 0.02985999 0.01402326 0.00533645 0.00271409 0.00361379 0.00766611 0.00690243 0.02912697 0.00459381 0.00221201 0.08732565 0.00916441 0.00687768 0.02791234 0.00007424 
0.01698050 0.02992286 0.01386969 0.00527637 0.00267965 0.00361239 0.00774052 0.00685053 0.02883816 0.00457982 0.00223455 0.08831274 0.00910015 0.00685314 0.02732643 0.00007781 
0.01763077 0.03002238 0.01369650 0.00521078 0.00264667 0.00361086 0.00781484 0.00681421 0.02854349 0.00456251 0.00225626 0.08935180 0.00904058 0.00683703 0.02680642 0.00008101 
0.01830244 0.03015993 0.01350432 0.00513994 0.00261541 0.00360932 0.00788894 0.00679376 0.02824500 0.00454196 0.00227709 0.09043947 0.00898616 0.00682964 0.02635464 0.00008379 
0.01899199 0.03033673 0.01329389 0.00506414 0.00258610 0.00360789 0.00796267 0.00678935 0.02794471 0.00451828 0.00229701 0.09157223 0.00893732 0.00683123 0.02597293 0.00008613 
0.01969586 0.03055376 0.01306606 0.00498368 0.00255895 0.00360667 0.00803589 0.00680108 0.02764462 0.00449157 0.00231598 0.09274635 0.00889447 0.00684208 0.02566261 0.00008798 
0.02041042 0.03081181 0.01282176 0.00489889 0.00253415 0.00360578 0.00810846 0.00682893 0.02734672 0.00446196 0.00233397 0.09395796 0.00885802 0.00686243 0.02542454 0.00008932 
0.02113204 0.03111142 0.01256205 0.00481010 0.00251187 0.00360530 0.00818024 0.00687278 0.02705294 0.00442956 0.00235094 0.09520306 0.00882836 0.00689249 0.02525908 0.00009011 
0.02185706 0.03145288 0.01228806 0.00471766 0.00249226 0.00360534 0.00825107 0.00693241 0.02676515 0.00439452 0.00236686 0.09647758 0.00880585 0.00693250 0.02516608 0.00009034 
0.02258187 0.03183623 0.01200101 0.00462194 0.00247543 0.00360597 0.00832080 0.00700749 0.02648517 0.00435698 0.00238170 0.09777738 0.00879084 0.00698263 0.02514496 0.00008999 
0.02330292 0.03226124 0.01170220 0.00452331 0.00246148 0.00360728 0.00838930 0.00709761 0.02621471 0.00431709 0.00239542 0.09909829 0.00878364 0.00704306 0.02519465 0.00008902 
0.02401672 0.03272741 0.01139299 0.00442215 0.00245049 0.00360933 0.00845640 0.00720222 0.02595541 0.00427501 0.00240801 0.10043617 0.00878454 0.00711395 0.02531363 0.00008743 
0.02471988 0.03323399 0.01107484 0.00431884 0.00244249 0.00361218 0.00852196 0.00732072 0.02570881 0.00423090 0.00241943 0.10178691 0.00879380 0.00719544 0.02549998 0.00008522 
0.02540914 0.03377992 0.01074923 0.00421378 0.00243750 0.00361587 0.00858584 0.00745238 0.02547632 0.00418493 0.00242965 0.10314647 0.00881164 0.00728764 0.02575138 0.00008236 
0.02608138 0.03436389 0.01041771 0.00410735 0.00243551 0.00362046 0.00864786 0.00759642 0.02525924 0.00413728 0.00243867 0.10451092 0.00883824 0.00739066 0.02606511 0.00007886 
0.02673364 0.03498429 0.01008186 0.00399996 0.00243650 0.00362596 0.00870789 0.00775192 0.02505876 0.00408813 0.00244645 0.10587647 0.00887375 0.00750458 0.02643812 0.00007473 
0.02736316 0.03563926 0.00974329 0.00389198 0.00244039 0.00363239 0.00876578 0.00791794 0.02487590 0.00403765 0.00245297 0.10723949 0.00891828 0.00762944 0.02686706 0.00006997 
0.02796736 0.03632666 0.00940364 0.00378381 0.00244711 0.00363975 0.00882137 0.00809344 0.02471156 0.00398603 0.00245823 0.10859655 0.00897188 0.00776530 0.02734827 0.00006460 
0.02854390 0.03704409 0.00906457 0.00367583 0.00245654 0.00364806 0.00887452 0.00827729 0.02456651 0.00393346 0.00246220 0.10994447 0.00903457 0.00791218 0.02787787 0.00005863 
0.02909067 0.03778893 0.00872773 0.00356841 0.00246856 0.00365728 0.00892508 0.00846834 0.02444133 0.00388012 0.00246487 0.11128028 0.00910632 0.00807006 0.02845175 0.00005209 
0.02960580 0.03855828 0.00839477 0.00346192 0.00248301 0.00366739 0.00897291 0.00866537 0.02433649 0.00382620 0.00246624 0.11260133 0.00918705 0.00823894 0.02906563 0.00004501 
0.03008768 0.03934906 0.00806732 0.00335672 0.00249971 0.00367836 0.00901787 0.00886711 0.02425230 0.00377190 0.00246630 0.11390524 0.00927664 0.00841876 0.02971510 0.00003742 
0.03053499 0.04015794 0.00774699 0.00325315 0.00251848 0.00369014 0.00905982 0.00907227 0.02418889 0.00371739 0.00246505 0.11518997 0.00937490 0.00860946 0.03039564 0.00002936 
0.03094667 0.04098143 0.00743536 0.00315154 0.00253911 0.00370267 0.00909863 0.00927950 0.02414626 0.00366287 0.00246248 0.11645383 0.00948160 0.00881094 0.03110269 0.00002089 
0.03132196 0.04181585 0.00713397 0.00305221 0.00256136 0.00371588 0.00913418 0.00948746 0.02412428 0.00360852 0.00245860 0.11769546 0.00959646 0.00902311 0.03183163 0.00001204 
0.03166037 0.04265740 0.00684429 0.00295545 0.00258502 0.00372970 0.00916636 0.00969478 0.02412264 0.00355452 0.00245343 0.11891389 0.00971915 0.00924583 0.03257790 0.00000288 
0.03196170 0.04350210 0.00656774 0.00286157 0.00260982 0.00374405 0.00919505 0.00990011 0.02414090 0.00350106 0.00244697 0.12010854 0.00984930 0.00947895 0.03333694 0.00000652 
0.03222607 0.04434591 0.00630569 0.00277081 0.00263551 0.00375883 0.00922015 0.01010209 0.02417850 0.00344830 0.00243924 0.12127921 0.00998646 0.00972228 0.03410431 0.00001611 
0.03245386 0.04518468 0.00605941 0.00268342 0.00266182 0.00377394 0.00924157 0.01029937 0.02423473 0.00339642 0.00243026 0.12242610 0.01013015 0.00997563 0.03487568 0.00002581 
0.03264574 0.04601422 0.00583010 0.00259965 0.00268849 0.00378928 0.00925924 0.01049064 0.02430877 0.00334558 0.00242007 0.12354980 0.01027985 0.01023877 0.03564685 0.00003555 
0.03280265 0.04683030 0.00561885 0.00251969 0.00271525 0.00380474 0.00927309 0.01067462 0.02439968 0.00329596 0.00240868 0.12465130 0.01043499 0.01051146 0.03641383 0.00004524 
0.03292583 0.04762869 0.00542669 0.00244373 0.00274183 0.00382020 0.00928305 0.01085007 0.02450643 0.00324769 0.00239614 0.12573199 0.01059495 0.01079342 0.03717281 0.00005481 
0.03301673 0.04840517 0.00525450 0.00237193 0.00276796 0.00383554 0.00928910 0.01101580 0.02462788 0.00320094 0.00238249 0.12679362 0.01075907 0.01108437 0.03792022 0.00006416 
0.03307708 0.04915559 0.00510308 0.00230446 0.00279338 0.00385063 0.00929121 0.01117070 0.02476281 0.00315585 0.00236778 0.12783835 0.01092665 0.01138397 0.03865274 0.00007320 
0.03310883 0.04987586 0.00497313 0.00224141 0.00281784 0.00386536 0.00928935 0.01131369 0.02490993 0.00311256 0.00235206 0.12886866 0.01109698 0.01169189 0.03936733 0.00008184 
0.03311415 0.05056200 0.00486521 0.00218291 0.00284108 0.00387959 0.00928355 0.01144380 0.02506789 0.00307120 0.00233539 0.12988738 0.01126927 0.01200776 0.04006121 0.00008999 
0.03309540 0.05121016 0.00477975 0.00212903 0.00286288 0.00389321 0.00927382 0.01156012 0.02523528 0.00303189 0.00231783 0.13089766 0.01144276 0.01233119 0.04073193 0.00009754 
0.03305513 0.05181666 0.00471710 0.00207983 0.00288301 0.00390609 0.00926021 0.01166184 0.02541066 0.00299475 0.00229946 0.13190295 0.01161662 0.01266176 0.04137735 0.00010441 
0.03299604 0.05237796 0.00467744 0.00203534 0.00290127 0.00391810 0.00924277 0.01174826 0.02559256 0.00295989 0.00228034 0.13290693 0.01179002 0.01299903 0.04199563 0.00011048 
0.03292097 0.05289078 0.00466085 0.00199560 0.00291747 0.00392912 0.00922159 0.01181874 0.02577951 0.00292741 0.00226055 0.13391356 0.01196211 0.01334253 0.04258525 0.00011567 
0.03283288 0.05335202 0.00466728 0.00196058 0.00293144 0.00393906 0.00919675 0.01187279 0.02597003 0.00289740 0.00224019 0.13492695 0.01213204 0.01369177 0.04314504 0.00011987 
0.03273481 0.05375887 0.00469655 0.00193028 0.00294302 0.00394779 0.00916838 0.01190999 0.02616264 0.00286996 0.00221934 0.13595141 0.01229895 0.01404623 0.04367412 0.00012299 
0.03262989 0.05410874 0.00474836 0.00190465 0.00295211 0.00395521 0.00913662 0.01193007 0.02635590 0.00284515 0.00219810 0.13699135 0.01246196 0.01440537 0.04417194 0.00012494 
0.03252127 0.05439939 0.00482228 0.00188363 0.00295857 0.00396123 0.00910162 0.01193284 0.02654840 0.00282305 0.00217657 0.13805127 0.01262023 0.01476862 0.04463826 0.00012561 
0.03241215 0.05462883 0.00491775 0.00186714 0.00296234 0.00396576 0.00906355 0.01191825 0.02673877 0.00280373 0.00215484 0.13913570 0.01277289 0.01513539 0.04507311 0.00012492 
0.03230570 0.05479542 0.00503413 0.00185510 0.00296336 0.00396873 0.00902262 0.01188637 0.02692571 0.00278723 0.00213304 0.14024917 0.01291912 0.01550506 0.04547684 0.00012279 
