0.01411755 0.01460236 0.00328368 0.00244802 0.00240482 0.00142798 0.00957330 0.00461173 0.03375080 0.00268281 0.00874986 0.00119914 0.00806187 0.04356986 0.01651294 0.00082905 
0.01386309 0.01428941 0.00329507 0.00242903 0.00244924 0.00141782 0.00976232 0.00460331 0.03392503 0.00277027 0.00877765 0.00121039 0.00793465 0.04300407 0.01638069 0.00083057 
0.01360364 0.01396575 0.00330050 0.00240723 0.00250343 0.00140712 0.00994181 0.00459715 0.03410780 0.00286239 0.00880599 0.00122171 0.00781362 0.04247472 0.01625320 0.00083263 
0.01334068 0.01363286 0.00330004 0.00238271 0.00256743 0.00139594 0.01011134 0.00459326 0.03429764 0.00295890 0.00883485 0.00123302 0.00769953 0.04198389 0.01613103 0.00083517 
0.01307564 0.01329228 0.00329376 0.00235555 0.00264127 0.00138438 0.01027051 0.00459163 0.03449292 0.00305947 0.00886423 0.00124429 0.00759309 0.04153344 0.01601467 0.00083815 
0.01280999 0.01294562 0.00328178 0.00232587 0.00272497 0.00137251 0.01041901 0.00459220 0.03469197 0.00316376 0.00889419 0.00125546 0.00749492 0.04112496 0.01590459 0.00084153 
0.01254517 0.01259448 0.00326426 0.00229379 0.00281853 0.00136041 0.01055656 0.00459492 0.03489298 0.00327140 0.00892476 0.00126646 0.00740555 0.04075979 0.01580119 0.00084526 
0.01228262 0.01224052 0.00324137 0.00225945 0.00292194 0.00134817 0.01068295 0.00459968 0.03509414 0.00338200 0.00895606 0.00127724 0.00732545 0.04043906 0.01570483 0.00084931 
0.01202374 0.01188539 0.00321333 0.00222298 0.00303520 0.00133587 0.01079802 0.00460638 0.03529354 0.00349517 0.00898818 0.00128776 0.00725501 0.04016362 0.01561584 0.00085361 
0.01176990 0.01153075 0.00318035 0.00218455 0.00315827 0.00132361 0.01090167 0.00461488 0.03548926 0.00361048 0.00902129 0.00129794 0.00719452 0.03993412 0.01553447 0.00085813 
0.01152243 0.01117826 0.00314272 0.00214434 0.00329111 0.00131147 0.01099384 0.00462503 0.03567939 0.00372748 0.00905555 0.00130775 0.00714421 0.03975094 0.01546095 0.00086284 
0.01128262 0.01082954 0.00310070 0.00210252 0.00343367 0.00129953 0.01107456 0.00463665 0.03586198 0.00384575 0.00909117 0.00131712 0.00710420 0.03961427 0.01539546 0.00086767 
0.01105168 0.01048622 0.00305462 0.00205928 0.00358586 0.00128787 0.01114388 0.00464955 0.03603513 0.00396480 0.00912837 0.00132600 0.00707454 0.03952407 0.01533813 0.00087261 
0.01083080 0.01014986 0.00300479 0.00201481 0.00374761 0.00127658 0.01120193 0.00466354 0.03619698 0.00408419 0.00916740 0.00133434 0.00705518 0.03948008 0.01528906 0.00087760 
0.01062108 0.00982199 0.00295157 0.00196933 0.00391879 0.00126574 0.01124886 0.00467839 0.03634571 0.00420343 0.00920856 0.00134209 0.00704602 0.03948186 0.01524831 0.00088262 
0.01042355 0.00950408 0.00289531 0.00192304 0.00409928 0.00125541 0.01128490 0.00469388 0.03647959 0.00432206 0.00925214 0.00134920 0.00704684 0.03952877 0.01521590 0.00088763 
0.01023916 0.00919754 0.00283640 0.00187615 0.00428892 0.00124569 0.01131030 0.00470978 0.03659696 0.00443961 0.00929847 0.00135563 0.00705738 0.03962000 0.01519182 0.00089260 
0.01006880 0.00890371 0.00277521 0.00182888 0.00448755 0.00123662 0.01132539 0.00472584 0.03669626 0.00455559 0.00934789 0.00136133 0.00707728 0.03975458 0.01517603 0.00089751 
0.00991325 0.00862383 0.00271215 0.00178145 0.00469497 0.00122828 0.01133049 0.00474183 0.03677606 0.00466956 0.00940076 0.00136625 0.00710611 0.03993137 0.01516847 0.00090233 
0.00977323 0.00835909 0.00264760 0.00173407 0.00491095 0.00122072 0.01132601 0.00475748 0.03683505 0.00478105 0.00945746 0.00137037 0.00714340 0.04014908 0.01516902 0.00090704 
0.00964934 0.00811055 0.00258199 0.00168698 0.00513524 0.00121401 0.01131235 0.00477257 0.03687206 0.00488961 0.00951839 0.00137365 0.00718859 0.04040633 0.01517757 0.00091161 
0.00954212 0.00787920 0.00251571 0.00164038 0.00536758 0.00120818 0.01128997 0.00478685 0.03688606 0.00499481 0.00958393 0.00137604 0.00724109 0.04070159 0.01519397 0.00091604 
0.00945199 0.00766590 0.00244917 0.00159450 0.00560764 0.00120329 0.01125934 0.00480007 0.03687619 0.00509622 0.00965451 0.00137753 0.00730025 0.04103323 0.01521807 0.00092032 
0.00937929 0.00747141 0.00238278 0.00154953 0.00585510 0.00119936 0.01122096 0.00481201 0.03684175 0.00519345 0.00973051 0.00137808 0.00736536 0.04139953 0.01524967 0.00092442 
0.00932425 0.00729639 0.00231692 0.00150570 0.00610960 0.00119644 0.01117535 0.00482246 0.03678220 0.00528610 0.00981236 0.00137767 0.00743572 0.04179870 0.01528858 0.00092836 
0.00928701 0.00714137 0.00225198 0.00146320 0.00637072 0.00119454 0.01112303 0.00483119 0.03669720 0.00537381 0.00990046 0.00137628 0.00751056 0.04222887 0.01533459 0.00093211 
0.00926763 0.00700676 0.00218835 0.00142223 0.00663806 0.00119368 0.01106455 0.00483802 0.03658657 0.00545624 0.00999520 0.00137390 0.00758909 0.04268810 0.01538747 0.00093569 
0.00926605 0.00689287 0.00212639 0.00138296 0.00691115 0.00119388 0.01100046 0.00484276 0.03645031 0.00553306 0.01009696 0.00137051 0.00767054 0.04317444 0.01544699 0.00093910 
0.00928214 0.00679985 0.00206644 0.00134559 0.00718949 0.00119514 0.01093130 0.00484525 0.03628860 0.00560398 0.01020613 0.00136611 0.00775409 0.04368587 0.01551289 0.00094234 
0.00931565 0.00672778 0.00200885 0.00131029 0.00747257 0.00119746 0.01085762 0.00484534 0.03610182 0.00566873 0.01032304 0.00136069 0.00783894 0.04422036 0.01558493 0.00094541 
0.00936626 0.00667659 0.00195392 0.00127720 0.00775982 0.00120083 0.01077996 0.00484292 0.03589051 0.00572706 0.01044802 0.00135425 0.00792431 0.04477585 0.01566283 0.00094834 
0.00943357 0.00664610 0.00190195 0.00124647 0.00805067 0.00120525 0.01069885 0.00483786 0.03565536 0.00577877 0.01058138 0.00134679 0.00800940 0.04535029 0.01574634 0.00095112 
0.00951708 0.00663601 0.00185322 0.00121826 0.00834450 0.00121069 0.01061482 0.00483010 0.03539725 0.00582366 0.01072338 0.00133833 0.00809347 0.04594161 0.01583517 0.00095377 
0.00961621 0.00664592 0.00180797 0.00119267 0.00864066 0.00121712 0.01052836 0.00481957 0.03511722 0.00586158 0.01087425 0.00132887 0.00817577 0.04654776 0.01592903 0.00095632 
0.00973031 0.00667531 0.00176643 0.00116982 0.00893848 0.00122451 0.01043997 0.00480623 0.03481646 0.00589241 0.01103419 0.00131843 0.00825561 0.04716669 0.01602765 0.00095876 
0.00985867 0.00672358 0.00172880 0.00114981 0.00923727 0.00123284 0.01035010 0.00479007 0.03449627 0.00591605 0.01120335 0.00130704 0.00833233 0.04779637 0.01613072 0.00096113 
0.01000047 0.00679000 0.00169527 0.00113272 0.00953629 0.00124205 0.01025918 0.00477111 0.03415811 0.00593244 0.01138183 0.00129471 0.00840531 0.04843479 0.01623795 0.00096344 
0.01015488 0.00687378 0.00166596 0.00111864 0.00983481 0.00125210 0.01016764 0.00474937 0.03380355 0.00594153 0.01156970 0.00128148 0.00847400 0.04907998 0.01634902 0.00096571 
0.01032098 0.00697402 0.00164102 0.00110760 0.01013206 0.00126295 0.01007585 0.00472493 0.03343426 0.00594333 0.01176696 0.00126738 0.00853787 0.04972998 0.01646363 0.00096796 
0.01049780 0.00708977 0.00162052 0.00109967 0.01042725 0.00127452 0.00998416 0.00469786 0.03305201 0.00593786 0.01197356 0.00125244 0.00859649 0.05038287 0.01658144 0.00097021 
0.01068432 0.00721998 0.00160454 0.00109486 0.01071959 0.00128677 0.00989289 0.00466828 0.03265863 0.00592518 0.01218940 0.00123670 0.00864947 0.05103675 0.01670213 0.00097247 
0.01087949 0.00736357 0.00159311 0.00109319 0.01100827 0.00129964 0.00980232 0.00463631 0.03225604 0.00590536 0.01241430 0.00122021 0.00869649 0.05168977 0.01682536 0.00097476 
0.01108222 0.00751938 0.00158625 0.00109467 0.01129246 0.00131305 0.00971271 0.00460211 0.03184619 0.00587851 0.01264805 0.00120302 0.00873730 0.05234011 0.01695078 0.00097711 
0.01129138 0.00768621 0.00158393 0.00109929 0.01157134 0.00132695 0.00962427 0.00456585 0.03143106 0.00584478 0.01289035 0.00118517 0.00877172 0.05298597 0.01707803 0.00097952 
0.01150583 0.00786283 0.00158610 0.00110701 0.01184409 0.00134125 0.00953718 0.00452774 0.03101267 0.00580431 0.01314085 0.00116671 0.00879964 0.05362559 0.01720673 0.00098202 
0.01172439 0.00804799 0.00159271 0.00111780 0.01210988 0.00135589 0.00945160 0.00448797 0.03059302 0.00575730 0.01339914 0.00114772 0.00882103 0.05425726 0.01733652 0.00098462 
0.01194589 0.00824041 0.00160365 0.00113160 0.01236789 0.00137080 0.00936763 0.00444679 0.03017412 0.00570395 0.01366474 0.00112823 0.00883592 0.05487926 0.01746699 0.00098732 
0.01216913 0.00843879 0.00161879 0.00114835 0.01261730 0.00138590 0.00928536 0.00440445 0.02975794 0.00564450 0.01393709 0.00110833 0.00884442 0.05548994 0.01759773 0.00099015 
0.01239292 0.00864186 0.00163801 0.00116797 0.01285731 0.00140111 0.00920483 0.00436119 0.02934642 0.00557918 0.01421560 0.00108806 0.00884671 0.05608765 0.01772832 0.00099311 
0.01261609 0.00884833 0.00166112 0.00119037 0.01308715 0.00141638 0.00912606 0.00431729 0.02894143 0.00550827 0.01449958 0.00106750 0.00884303 0.05667078 0.01785832 0.00099619 
0.01283746 0.00905694 0.00168796 0.00121544 0.01330605 0.00143161 0.00904903 0.00427304 0.02854479 0.00543206 0.01478831 0.00104672 0.00883370 0.05723772 0.01798729 0.00099942 
0.01305586 0.00926646 0.00171829 0.00124309 0.01351327 0.00144675 0.00897372 0.00422873 0.02815824 0.00535084 0.01508099 0.00102579 0.00881908 0.05778691 0.01811475 0.00100279 
0.01327016 0.00947568 0.00175192 0.00127317 0.01370811 0.00146171 0.00890004 0.00418465 0.02778342 0.00526493 0.01537677 0.00100478 0.00879962 0.05831679 0.01824023 0.00100629 
0.01347925 0.00968345 0.00178859 0.00130557 0.01388987 0.00147644 0.00882791 0.00414111 0.02742187 0.00517465 0.01567475 0.00098376 0.00877578 0.05882583 0.01836323 0.00100993 
0.01368205 0.00988866 0.00182806 0.00134013 0.01405793 0.00149086 0.00875722 0.00409840 0.02707503 0.00508034 0.01597397 0.00096281 0.00874811 0.05931249 0.01848323 0.00101370 
0.01387752 0.01009026 0.00187005 0.00137671 0.01421168 0.00150491 0.00868783 0.00405683 0.02674420 0.00498234 0.01627344 0.00094201 0.00871719 0.05977529 0.01859972 0.00101759 
0.01406465 0.01028725 0.00191430 0.00141515 0.01435056 0.00151852 0.00861960 0.00401670 0.02643057 0.00488102 0.01657211 0.00092143 0.00868363 0.06021271 0.01871215 0.00102158 
0.01424249 0.01047872 0.00196051 0.00145529 0.01447405 0.00153166 0.00855236 0.00397831 0.02613520 0.00477672 0.01686889 0.00090115 0.00864807 0.06062330 0.01881999 0.00102568 
0.01441014 0.01066382 0.00200841 0.00149695 0.01458170 0.00154425 0.00848593 0.00394194 0.02585899 0.00466982 0.01716267 0.00088125 0.00861118 0.06100558 0.01892267 0.00102986 
0.01456674 0.01084178 0.00205769 0.00153996 0.01467308 0.00155625 0.00842013 0.00390788 0.02560270 0.00456068 0.01745229 0.00086181 0.00857367 0.06135812 0.01901964 0.00103409 
0.01471151 0.01101193 0.00210806 0.00158414 0.01474785 0.00156761 0.00835477 0.00387638 0.02536696 0.00444967 0.01773661 0.00084289 0.00853623 0.06167949 0.01911032 0.00103838 
0.01484370 0.01117368 0.00215922 0.00162931 0.01480570 0.00157829 0.00828964 0.00384772 0.02515225 0.00433716 0.01801442 0.00082459 0.00849958 0.06196829 0.01919413 0.00104268 
0.01496266 0.01132651 0.00221088 0.00167526 0.01484639 0.00158826 0.00822456 0.00382212 0.02495887 0.00422353 0.01828453 0.00080698 0.00846441 0.06222315 0.01927051 0.00104699 
0.01506779 0.01147002 0.00226275 0.00172183 0.01486975 0.00159748 0.00815932 0.00379981 0.02478701 0.00410912 0.01854575 0.00079013 0.00843144 0.06244271 0.01933889 0.00105127 
0.01515855 0.01160389 0.00231453 0.00176881 0.01487564 0.00160593 0.00809373 0.00378100 0.02463670 0.00399432 0.01879688 0.00077411 0.00840133 0.06262567 0.01939869 0.00105550 
0.01523448 0.01172791 0.00236595 0.00181601 0.01486403 0.00161358 0.00802759 0.00376587 0.02450781 0.00387949 0.01903672 0.00075901 0.00837476 0.06277076 0.01944936 0.00105965 
0.01529521 0.01184194 0.00241675 0.00186325 0.01483493 0.00162042 0.00796073 0.00375458 0.02440009 0.00376497 0.01926411 0.00074488 0.00835236 0.06287676 0.01949036 0.00106370 
0.01534042 0.01194595 0.00246665 0.00191032 0.01478840 0.00162642 0.00789296 0.00374729 0.02431315 0.00365112 0.01947789 0.00073181 0.00833472 0.06294251 0.01952116 0.00106762 
0.01536988 0.01204002 0.00251542 0.00195705 0.01472459 0.00163160 0.00782413 0.00374411 0.02424646 0.00353828 0.01967695 0.00071985 0.00832241 0.06296689 0.01954125 0.00107138 
0.01538343 0.01212429 0.00256283 0.00200325 0.01464371 0.00163594 0.00775408 0.00374512 0.02419939 0.00342678 0.01986022 0.00070907 0.00831592 0.06294889 0.01955014 0.00107495 
0.01538098 0.01219900 0.00260865 0.00204873 0.01454604 0.00163945 0.00768268 0.00375041 0.02417118 0.00331697 0.02002664 0.00069953 0.00831572 0.06288756 0.01954739 0.00107831 
0.01536255 0.01226448 0.00265268 0.00209332 0.01443189 0.00164213 0.00760981 0.00376001 0.02416097 0.00320915 0.02017523 0.00069130 0.00832221 0.06278204 0.01953257 0.00108143 
0.01532819 0.01232114 0.00269475 0.00213685 0.01430168 0.00164401 0.00753536 0.00377394 0.02416779 0.00310363 0.02030507 0.00068441 0.00833573 0.06263157 0.01950531 0.00108429 
0.01527807 0.01236947 0.00273468 0.00217913 0.01415585 0.00164509 0.00745924 0.00379218 0.02419061 0.00300073 0.02041530 0.00067894 0.00835656 0.06243552 0.01946526 0.00108687 
0.01521239 0.01241002 0.00277233 0.00222002 0.01399493 0.00164539 0.00738140 0.00381471 0.02422829 0.00290073 0.02050512 0.00067492 0.00838489 0.06219338 0.01941213 0.00108914 
0.01513146 0.01244341 0.00280757 0.00225936 0.01381948 0.00164495 0.00730177 0.00384144 0.02427966 0.00280390 0.02057381 0.00067240 0.00842087 0.06190476 0.01934568 0.00109108 
0.01503564 0.01247034 0.00284031 0.00229699 0.01363014 0.00164380 0.00722033 0.00387230 0.02434346 0.00271053 0.02062074 0.00067142 0.00846455 0.06156944 0.01926572 0.00109269 
0.01492537 0.01249154 0.00287046 0.00233279 0.01342757 0.00164196 0.00713708 0.00390717 0.02441840 0.00262087 0.02064537 0.00067202 0.00851593 0.06118733 0.01917213 0.00109394 
0.01480115 0.01250780 0.00289795 0.00236661 0.01321251 0.00163947 0.00705202 0.00394590 0.02450318 0.00253517 0.02064725 0.00067422 0.00857491 0.06075853 0.01906484 0.00109483 
0.01466355 0.01251994 0.00292275 0.00239834 0.01298572 0.00163638 0.00696518 0.00398832 0.02459644 0.00245367 0.02062602 0.00067806 0.00864134 0.06028332 0.01894386 0.00109535 
0.01451319 0.01252882 0.00294483 0.00242786 0.01274801 0.00163274 0.00687661 0.00403425 0.02469682 0.00237659 0.02058142 0.00068355 0.00871497 0.05976215 0.01880927 0.00109550 
0.01435074 0.01253532 0.00296420 0.00245506 0.01250023 0.00162857 0.00678639 0.00408347 0.02480299 0.00230415 0.02051331 0.00069071 0.00879550 0.05919569 0.01866120 0.00109528 
0.01417695 0.01254035 0.00298089 0.00247987 0.01224326 0.00162394 0.00669460 0.00413574 0.02491359 0.00223655 0.02042164 0.00069956 0.00888253 0.05858481 0.01849990 0.00109469 
0.01399260 0.01254483 0.00299493 0.00250219 0.01197799 0.00161890 0.00660135 0.00419081 0.02502730 0.00217398 0.02030649 0.00071008 0.00897563 0.05793059 0.01832565 0.00109375 
0.01379851 0.01254966 0.00300640 0.00252194 0.01170537 0.00161348 0.00650676 0.00424841 0.02514284 0.00211660 0.02016803 0.00072230 0.00907426 0.05723435 0.01813885 0.00109247 
0.01359556 0.01255575 0.00301537 0.00253908 0.01142634 0.00160776 0.00641097 0.00430823 0.02525896 0.00206460 0.02000655 0.00073620 0.00917785 0.05649760 0.01793995 0.00109087 
0.01338463 0.01256400 0.00302194 0.00255355 0.01114187 0.00160178 0.00631414 0.00436999 0.02537445 0.00201811 0.01982246 0.00075176 0.00928576 0.05572212 0.01772951 0.00108897 
0.01316667 0.01257528 0.00302624 0.00256532 0.01085294 0.00159559 0.00621644 0.00443335 0.02548818 0.00197728 0.01961627 0.00076898 0.00939729 0.05490990 0.01750814 0.00108680 
0.01294262 0.01259045 0.00302840 0.00257435 0.01056051 0.00158925 0.00611806 0.00449799 0.02559908 0.00194223 0.01938860 0.00078783 0.00951171 0.05406319 0.01727656 0.00108439 
0.01271347 0.01261031 0.00302857 0.00258063 0.01026558 0.00158281 0.00601918 0.00456356 0.02570614 0.00191306 0.01914021 0.00080827 0.00962823 0.05318445 0.01703556 0.00108178 
0.01248021 0.01263563 0.00302692 0.00258416 0.00996913 0.00157633 0.00592001 0.00462972 0.02580843 0.00188988 0.01887191 0.00083028 0.00974602 0.05227638 0.01678601 0.00107902 
0.01224382 0.01266714 0.00302362 0.00258494 0.00967211 0.00156985 0.00582077 0.00469611 0.02590512 0.00187276 0.01858468 0.00085381 0.00986424 0.05134192 0.01652885 0.00107614 
0.01200532 0.01270549 0.00301886 0.00258300 0.00937550 0.00156342 0.00572168 0.00476238 0.02599545 0.00186176 0.01827954 0.00087881 0.00998201 0.05038421 0.01626509 0.00107320 
0.01176569 0.01275130 0.00301283 0.00257836 0.00908023 0.00155710 0.00562297 0.00482816 0.02607876 0.00185694 0.01795763 0.00090523 0.01009844 0.04940664 0.01599582 0.00107025 
0.01152594 0.01280512 0.00300575 0.00257107 0.00878722 0.00155092 0.00552487 0.00489310 0.02615449 0.00185833 0.01762020 0.00093302 0.01021262 0.04841278 0.01572219 0.00106736 
0.01128704 0.01286740 0.00299782 0.00256118 0.00849736 0.00154492 0.00542762 0.00495685 0.02622215 0.00186595 0.01726856 0.00096210 0.01032367 0.04740639 0.01544542 0.00106458 
0.01104994 0.01293854 0.00298926 0.00254874 0.00821152 0.00153916 0.00533146 0.00501905 0.02628138 0.00187980 0.01690409 0.00099240 0.01043066 0.04639145 0.01516677 0.00106198 
0.01081559 0.01301888 0.00298030 0.00253384 0.00793052 0.00153365 0.00523663 0.00507936 0.02633190 0.00189986 0.01652827 0.00102385 0.01053272 0.04537205 0.01488755 0.00105963 
0.01058488 0.01310864 0.00297114 0.00251655 0.00765517 0.00152844 0.00514337 0.00513745 0.02637351 0.00192610 0.01614262 0.00105637 0.01062897 0.04435248 0.01460912 0.00105759 
0.01035868 0.01320797 0.00296202 0.00249696 0.00738622 0.00152355 0.00505191 0.00519299 0.02640614 0.00195847 0.01574872 0.00108987 0.01071858 0.04333714 0.01433287 0.00105595 
0.01013784 0.01331696 0.00295314 0.00247518 0.00712437 0.00151901 0.00496250 0.00524568 0.02642978 0.00199690 0.01534821 0.00112425 0.01080072 0.04233053 0.01406023 0.00105477 
0.00992313 0.01343559 0.00294474 0.00245131 0.00687031 0.00151483 0.00487536 0.00529521 0.02644451 0.00204130 0.01494275 0.00115943 0.01087464 0.04133725 0.01379262 0.00105414 
0.00971529 0.01356375 0.00293701 0.00242546 0.00662463 0.00151104 0.00479071 0.00534132 0.02645052 0.00209157 0.01453405 0.00119530 0.01093960 0.04036197 0.01353149 0.00105412 
0.00951502 0.01370126 0.00293017 0.00239776 0.00638793 0.00150763 0.00470877 0.00538373 0.02644804 0.00214758 0.01412383 0.00123176 0.01099493 0.03940940 0.01327829 0.00105479 
0.00932294 0.01384786 0.00292441 0.00236834 0.00616070 0.00150463 0.00462976 0.00542220 0.02643741 0.00220920 0.01371382 0.00126869 0.01104001 0.03848424 0.01303448 0.00105623 
0.00913963 0.01400317 0.00291991 0.00233732 0.00594342 0.00150203 0.00455387 0.00545652 0.02641902 0.00227626 0.01330575 0.00130600 0.01107428 0.03759121 0.01280146 0.00105851 
0.00896559 0.01416677 0.00291686 0.00230486 0.00573649 0.00149982 0.00448128 0.00548648 0.02639332 0.00234858 0.01290135 0.00134355 0.01109726 0.03673498 0.01258064 0.00106170 
0.00880128 0.01433815 0.00291542 0.00227108 0.00554027 0.00149801 0.00441220 0.00551190 0.02636081 0.00242596 0.01250233 0.00138125 0.01110852 0.03592013 0.01237339 0.00106588 
0.00864707 0.01451672 0.00291575 0.00223614 0.00535504 0.00149657 0.00434677 0.00553263 0.02632206 0.00250819 0.01211037 0.00141896 0.01110773 0.03515117 0.01218102 0.00107112 
0.00850327 0.01470181 0.00291797 0.00220019 0.00518107 0.00149549 0.00428515 0.00554853 0.02627766 0.00259503 0.01172711 0.00145657 0.01109462 0.03443247 0.01200481 0.00107746 
0.00837013 0.01489271 0.00292222 0.00216338 0.00501851 0.00149475 0.00422749 0.00555951 0.02622823 0.00268624 0.01135416 0.00149395 0.01106899 0.03376824 0.01184595 0.00108498 
0.00824781 0.01508862 0.00292861 0.00212586 0.00486751 0.00149433 0.00417392 0.00556548 0.02617442 0.00278153 0.01099306 0.00153099 0.01103075 0.03316253 0.01170558 0.00109373 
0.00813641 0.01528870 0.00293722 0.00208778 0.00472813 0.00149419 0.00412455 0.00556640 0.02611690 0.00288063 0.01064529 0.00156757 0.01097987 0.03261915 0.01158475 0.00110376 
0.00803596 0.01549206 0.00294813 0.00204930 0.00460039 0.00149430 0.00407949 0.00556222 0.02605636 0.00298324 0.01031227 0.00160356 0.01091641 0.03214167 0.01148443 0.00111511 
0.00794642 0.01569777 0.00296140 0.00201058 0.00448425 0.00149463 0.00403881 0.00555295 0.02599346 0.00308905 0.00999531 0.00163884 0.01084052 0.03173340 0.01140546 0.00112782 
0.00786767 0.01590486 0.00297706 0.00197175 0.00437962 0.00149513 0.00400258 0.00553861 0.02592888 0.00319771 0.00969567 0.00167329 0.01075242 0.03139737 0.01134863 0.00114192 
0.00779954 0.01611233 0.00299515 0.00193298 0.00428635 0.00149576 0.00397087 0.00551925 0.02586327 0.00330890 0.00941450 0.00170680 0.01065243 0.03113627 0.01131458 0.00115743 
0.00774177 0.01631916 0.00301565 0.00189440 0.00420426 0.00149648 0.00394372 0.00549495 0.02579726 0.00342225 0.00915283 0.00173925 0.01054093 0.03095246 0.01130385 0.00117438 
0.00769405 0.01652430 0.00303857 0.00185616 0.00413311 0.00149724 0.00392114 0.00546581 0.02573148 0.00353741 0.00891163 0.00177053 0.01041839 0.03084793 0.01131684 0.00119276 
0.00765602 0.01672673 0.00306386 0.00181840 0.00407261 0.00149799 0.00390315 0.00543194 0.02566649 0.00365401 0.00869171 0.00180054 0.01028534 0.03082429 0.01135385 0.00121257 
0.00762724 0.01692539 0.00309147 0.00178125 0.00402244 0.00149868 0.00388973 0.00539350 0.02560282 0.00377167 0.00849379 0.00182917 0.01014241 0.03088275 0.01141503 0.00123381 
0.00760724 0.01711926 0.00312134 0.00174483 0.00398224 0.00149926 0.00388088 0.00535066 0.02554098 0.00389000 0.00831847 0.00185633 0.00999027 0.03102412 0.01150039 0.00125646 
0.00759546 0.01730732 0.00315339 0.00170928 0.00395159 0.00149967 0.00387655 0.00530360 0.02548139 0.00400862 0.00816623 0.00188191 0.00982966 0.03124876 0.01160984 0.00128049 
0.00759134 0.01748859 0.00318750 0.00167470 0.00393007 0.00149988 0.00387669 0.00525254 0.02542446 0.00412715 0.00803740 0.00190584 0.00966137 0.03155660 0.01174311 0.00130587 
0.00759425 0.01766211 0.00322356 0.00164120 0.00391720 0.00149982 0.00388124 0.00519770 0.02537051 0.00424519 0.00793223 0.00192802 0.00948627 0.03194715 0.01189982 0.00133254 
0.00760353 0.01782695 0.00326143 0.00160888 0.00391250 0.00149945 0.00389012 0.00513934 0.02531981 0.00436237 0.00785079 0.00194840 0.00930524 0.03241943 0.01207944 0.00136045 
0.00761849 0.01798225 0.00330098 0.00157784 0.00391544 0.00149872 0.00390324 0.00507772 0.02527259 0.00447829 0.00779307 0.00196689 0.00911923 0.03297204 0.01228132 0.00138954 
0.00763841 0.01812720 0.00334204 0.00154816 0.00392547 0.00149759 0.00392049 0.00501311 0.02522900 0.00459260 0.00775891 0.00198343 0.00892921 0.03360312 0.01250464 0.00141973 
0.00766256 0.01826102 0.00338444 0.00151992 0.00394205 0.00149601 0.00394176 0.00494582 0.02518912 0.00470491 0.00774802 0.00199798 0.00873619 0.03431038 0.01274851 0.00145094 
0.00769019 0.01838304 0.00342798 0.00149319 0.00396458 0.00149394 0.00396692 0.00487614 0.02515299 0.00481489 0.00776001 0.00201048 0.00854117 0.03509107 0.01301185 0.00148308 
0.00772053 0.01849264 0.00347249 0.00146802 0.00399249 0.00149134 0.00399583 0.00480440 0.02512058 0.00492219 0.00779436 0.00202091 0.00834522 0.03594203 0.01329351 0.00151605 
0.00775281 0.01858927 0.00351774 0.00144447 0.00402518 0.00148820 0.00402835 0.00473091 0.02509180 0.00502649 0.00785043 0.00202922 0.00814937 0.03685967 0.01359220 0.00154975 
0.00778628 0.01867247 0.00356354 0.00142258 0.00406205 0.00148446 0.00406432 0.00465601 0.02506652 0.00512747 0.00792747 0.00203539 0.00795468 0.03784003 0.01390653 0.00158405 
0.00782018 0.01874188 0.00360966 0.00140238 0.00410249 0.00148013 0.00410357 0.00458003 0.02504453 0.00522484 0.00802463 0.00203943 0.00776218 0.03887876 0.01423501 0.00161884 
0.00785377 0.01879719 0.00365588 0.00138390 0.00414590 0.00147516 0.00414594 0.00450331 0.02502559 0.00531834 0.00814097 0.00204131 0.00757292 0.03997113 0.01457606 0.00165398 
0.00788632 0.01883823 0.00370197 0.00136715 0.00419169 0.00146956 0.00419124 0.00442621 0.02500943 0.00540773 0.00827544 0.00204105 0.00738792 0.04111212 0.01492803 0.00168935 
0.00791714 0.01886488 0.00374770 0.00135213 0.00423926 0.00146332 0.00423929 0.00434905 0.02499571 0.00549277 0.00842690 0.00203865 0.00720816 0.04229637 0.01528916 0.00172480 
0.00794556 0.01887715 0.00379284 0.00133886 0.00428804 0.00145643 0.00428990 0.00427218 0.02498409 0.00557328 0.00859415 0.00203415 0.00703461 0.04351827 0.01565767 0.00176019 
0.00797095 0.01887512 0.00383716 0.00132731 0.00433745 0.00144890 0.00434289 0.00419595 0.02497418 0.00564908 0.00877590 0.00202756 0.00686820 0.04477196 0.01603171 0.00179537 
0.00799272 0.01885898 0.00388043 0.00131746 0.00438695 0.00144074 0.00439806 0.00412068 0.02496557 0.00572004 0.00897081 0.00201893 0.00670981 0.04605134 0.01640939 0.00183019 
0.00801032 0.01882901 0.00392242 0.00130931 0.00443600 0.00143196 0.00445521 0.00404671 0.02495786 0.00578604 0.00917748 0.00200830 0.00656029 0.04735019 0.01678880 0.00186450 
0.00802325 0.01878559 0.00396292 0.00130280 0.00448409 0.00142260 0.00451415 0.00397435 0.02495062 0.00584701 0.00939446 0.00199573 0.00642043 0.04866209 0.01716801 0.00189814 
0.00803106 0.01872919 0.00400170 0.00129790 0.00453072 0.00141267 0.00457469 0.00390392 0.02494343 0.00590289 0.00962026 0.00198127 0.00629096 0.04998056 0.01754507 0.00193095 
0.00803336 0.01866035 0.00403855 0.00129457 0.00457543 0.00140223 0.00463663 0.00383572 0.02493588 0.00595367 0.00985337 0.00196501 0.00617255 0.05129904 0.01791807 0.00196279 
0.00802982 0.01857972 0.00407328 0.00129275 0.00461778 0.00139130 0.00469978 0.00377004 0.02492757 0.00599936 0.01009225 0.00194700 0.00606583 0.05261095 0.01828509 0.00199349 
0.00802016 0.01848802 0.00410569 0.00129238 0.00465736 0.00137993 0.00476396 0.00370716 0.02491812 0.00604000 0.01033536 0.00192734 0.00597132 0.05390973 0.01864425 0.00202290 
0.00800418 0.01838604 0.00413560 0.00129341 0.00469380 0.00136819 0.00482899 0.00364734 0.02490720 0.00607568 0.01058115 0.00190612 0.00588952 0.05518885 0.01899373 0.00205088 
0.00798174 0.01827466 0.00416284 0.00129577 0.00472673 0.00135613 0.00489468 0.00359083 0.02489448 0.00610649 0.01082807 0.00188342 0.00582082 0.05644190 0.01933175 0.00207728 
0.00795274 0.01815480 0.00418726 0.00129938 0.00475584 0.00134381 0.00496087 0.00353786 0.02487971 0.00613258 0.01107460 0.00185935 0.00576556 0.05766261 0.01965658 0.00210195 
0.00791719 0.01802746 0.00420871 0.00130417 0.00478086 0.00133130 0.00502741 0.00348865 0.02486265 0.00615411 0.01131925 0.00183401 0.00572399 0.05884485 0.01996661 0.00212477 
0.00787514 0.01789367 0.00422706 0.00131008 0.00480152 0.00131868 0.00509412 0.00344339 0.02484316 0.00617128 0.01156053 0.00180751 0.00569630 0.05998273 0.02026027 0.00214559 
0.00782671 0.01775453 0.00424221 0.00131701 0.00481763 0.00130603 0.00516087 0.00340227 0.02482110 0.00618431 0.01179704 0.00177996 0.00568259 0.06107058 0.02053611 0.00216430 
0.00777209 0.01761116 0.00425406 0.00132488 0.00482899 0.00129343 0.00522752 0.00336543 0.02479645 0.00619344 0.01202737 0.00175147 0.00568290 0.06210303 0.02079280 0.00218078 
0.00771152 0.01746470 0.00426252 0.00133363 0.00483548 0.00128095 0.00529394 0.00333302 0.02476922 0.00619893 0.01225022 0.00172216 0.00569717 0.06307501 0.02102909 0.00219492 
0.00764534 0.01731633 0.00426754 0.00134316 0.00483699 0.00126869 0.00536002 0.00330516 0.02473950 0.00620109 0.01246431 0.00169215 0.00572529 0.06398181 0.02124387 0.00220662 
0.00757391 0.01716723 0.00426907 0.00135340 0.00483344 0.00125674 0.00542565 0.00328194 0.02470745 0.00620021 0.01266847 0.00166157 0.00576707 0.06481906 0.02143616 0.00221579 
0.00749766 0.01701859 0.00426708 0.00136426 0.00482480 0.00124518 0.00549075 0.00326345 0.02467330 0.00619661 0.01286156 0.00163052 0.00582224 0.06558283 0.02160511 0.00222236 
0.00741709 0.01687158 0.00426158 0.00137567 0.00481109 0.00123412 0.00555521 0.00324972 0.02463736 0.00619064 0.01304256 0.00159913 0.00589048 0.06626958 0.02174999 0.00222625 
0.00733274 0.01672737 0.00425258 0.00138756 0.00479233 0.00122362 0.00561898 0.00324080 0.02460001 0.00618263 0.01321051 0.00156753 0.00597137 0.06687622 0.02187024 0.00222741 
0.00724520 0.01658710 0.00424010 0.00139984 0.00476861 0.00121380 0.00568200 0.00323670 0.02456170 0.00617294 0.01336454 0.00153583 0.00606447 0.06740012 0.02196543 0.00222578 
0.00715510 0.01645189 0.00422419 0.00141244 0.00474002 0.00120473 0.00574421 0.00323741 0.02452294 0.00616194 0.01350390 0.00150414 0.00616925 0.06783912 0.02203527 0.00222133 
0.00706310 0.01632281 0.00420493 0.00142530 0.00470671 0.00119650 0.00580558 0.00324290 0.02448433 0.00614996 0.01362791 0.00147259 0.00628513 0.06819157 0.02207962 0.00221405 
0.00696993 0.01620088 0.00418240 0.00143835 0.00466884 0.00118920 0.00586610 0.00325311 0.02444651 0.00613739 0.01373598 0.00144129 0.00641147 0.06845627 0.02209850 0.00220390 
0.00687630 0.01608707 0.00415671 0.00145154 0.00462662 0.00118290 0.00592573 0.00326797 0.02441018 0.00612456 0.01382766 0.00141035 0.00654760 0.06863256 0.02209206 0.00219090 
0.00678299 0.01598229 0.00412799 0.00146480 0.00458028 0.00117769 0.00598449 0.00328739 0.02437611 0.00611182 0.01390256 0.00137988 0.00669278 0.06872026 0.02206059 0.00217506 
0.00669077 0.01588739 0.00409636 0.00147808 0.00453007 0.00117363 0.00604238 0.00331126 0.02434510 0.00609951 0.01396042 0.00134997 0.00684626 0.06871969 0.02200452 0.00215640 
0.00660043 0.01580312 0.00406200 0.00149134 0.00447628 0.00117080 0.00609941 0.00333944 0.02431799 0.00608795 0.01400107 0.00132073 0.00700722 0.06863167 0.02192443 0.00213496 
0.00651276 0.01573017 0.00402507 0.00150454 0.00441921 0.00116925 0.00615561 0.00337179 0.02429566 0.00607743 0.01402445 0.00129224 0.00717482 0.06845750 0.02182102 0.00211078 
0.00642858 0.01566914 0.00398575 0.00151763 0.00435918 0.00116904 0.00621102 0.00340813 0.02427900 0.00606824 0.01403058 0.00126461 0.00734822 0.06819895 0.02169510 0.00208393 
0.00634866 0.01562053 0.00394426 0.00153060 0.00429654 0.00117021 0.00626568 0.00344830 0.02426894 0.00606065 0.01401961 0.00123791 0.00752652 0.06785826 0.02154762 0.00205447 
0.00627381 0.01558475 0.00390081 0.00154340 0.00423166 0.00117282 0.00631963 0.00349207 0.02426638 0.00605489 0.01399178 0.00121221 0.00770881 0.06743810 0.02137963 0.00202249 
0.00620478 0.01556212 0.00385562 0.00155602 0.00416491 0.00117689 0.00637294 0.00353925 0.02427226 0.00605116 0.01394739 0.00118759 0.00789419 0.06694159 0.02119226 0.00198809 
0.00614233 0.01555285 0.00380893 0.00156844 0.00409668 0.00118244 0.00642566 0.00358960 0.02428746 0.00604965 0.01388688 0.00116412 0.00808174 0.06637221 0.02098678 0.00195136 
0.00608717 0.01555704 0.00376099 0.00158066 0.00402737 0.00118950 0.00647784 0.00364288 0.02431288 0.00605051 0.01381075 0.00114186 0.00827053 0.06573385 0.02076449 0.00191242 
0.00603998 0.01557472 0.00371205 0.00159266 0.00395740 0.00119808 0.00652957 0.00369885 0.02434937 0.00605384 0.01371958 0.00112085 0.00845963 0.06503072 0.02052680 0.00187139 
0.00600143 0.01560577 0.00366237 0.00160445 0.00388718 0.00120817 0.00658089 0.00375723 0.02439772 0.00605974 0.01361405 0.00110114 0.00864813 0.06426737 0.02027517 0.00182842 
0.00597211 0.01565001 0.00361222 0.00161603 0.00381711 0.00121977 0.00663188 0.00381777 0.02445869 0.00606825 0.01349488 0.00108278 0.00883513 0.06344863 0.02001111 0.00178363 
0.00595259 0.01570712 0.00356187 0.00162740 0.00374763 0.00123285 0.00668260 0.00388018 0.02453297 0.00607939 0.01336291 0.00106579 0.00901973 0.06257957 0.01973616 0.00173718 
0.00594336 0.01577671 0.00351160 0.00163859 0.00367915 0.00124740 0.00673311 0.00394417 0.02462119 0.00609312 0.01321898 0.00105021 0.00920106 0.06166551 0.01945192 0.00168922 
0.00594487 0.01585828 0.00346166 0.00164960 0.00361207 0.00126337 0.00678348 0.00400947 0.02472389 0.00610938 0.01306404 0.00103605 0.00937828 0.06071193 0.01915999 0.00163992 
0.00595752 0.01595124 0.00341235 0.00166045 0.00354681 0.00128072 0.00683375 0.00407577 0.02484152 0.00612809 0.01289907 0.00102333 0.00955056 0.05972448 0.01886198 0.00158945 
0.00598162 0.01605490 0.00336393 0.00167118 0.00348374 0.00129941 0.00688397 0.00414279 0.02497443 0.00614910 0.01272510 0.00101206 0.00971713 0.05870890 0.01855950 0.00153799 
0.00601744 0.01616849 0.00331667 0.00168179 0.00342327 0.00131936 0.00693419 0.00421023 0.02512289 0.00617224 0.01254318 0.00100224 0.00987721 0.05767103 0.01825415 0.00148571 
0.00606516 0.01629117 0.00327083 0.00169231 0.00336575 0.00134051 0.00698444 0.00427780 0.02528703 0.00619733 0.01235443 0.00099387 0.01003011 0.05661674 0.01794750 0.00143280 
0.00612490 0.01642203 0.00322666 0.00170278 0.00331153 0.00136278 0.00703474 0.00434520 0.02546689 0.00622412 0.01215996 0.00098693 0.01017513 0.05555191 0.01764110 0.00137945 
0.00619670 0.01656006 0.00318442 0.00171323 0.00326096 0.00138609 0.00708510 0.00441215 0.02566238 0.00625235 0.01196092 0.00098142 0.01031165 0.05448239 0.01733645 0.00132585 
0.00628052 0.01670424 0.00314435 0.00172368 0.00321433 0.00141034 0.00713554 0.00447838 0.02587329 0.00628172 0.01175847 0.00097732 0.01043908 0.05341397 0.01703500 0.00127220 
0.00637626 0.01685345 0.00310666 0.00173416 0.00317194 0.00143544 0.00718603 0.00454360 0.02609928 0.00631193 0.01155377 0.00097460 0.01055688 0.05235231 0.01673815 0.00121869 
0.00648374 0.01700655 0.00307158 0.00174470 0.00313405 0.00146129 0.00723656 0.00460755 0.02633988 0.00634263 0.01134800 0.00097324 0.01066457 0.05130299 0.01644721 0.00116551 
0.00660269 0.01716237 0.00303931 0.00175534 0.00310089 0.00148777 0.00728711 0.00466997 0.02659451 0.00637346 0.01114230 0.00097320 0.01076170 0.05027140 0.01616344 0.00111288 
0.00673278 0.01731970 0.00301003 0.00176610 0.00307268 0.00151477 0.00733761 0.00473062 0.02686245 0.00640403 0.01093784 0.00097446 0.01084789 0.04926272 0.01588802 0.00106097 
0.00687361 0.01747732 0.00298393 0.00177700 0.00304960 0.00154217 0.00738802 0.00478928 0.02714285 0.00643397 0.01073573 0.00097697 0.01092281 0.04828196 0.01562203 0.00101000 
0.00702468 0.01763399 0.00296115 0.00178807 0.00303180 0.00156986 0.00743825 0.00484570 0.02743475 0.00646285 0.01053709 0.00098069 0.01098619 0.04733383 0.01536646 0.00096016 
0.00718544 0.01778848 0.00294184 0.00179933 0.00301938 0.00159771 0.00748823 0.00489971 0.02773706 0.00649028 0.01034299 0.00098558 0.01103780 0.04642283 0.01512223 0.00091163 
0.00735528 0.01793956 0.00292611 0.00181080 0.00301245 0.00162559 0.00753784 0.00495109 0.02804858 0.00651583 0.01015448 0.00099160 0.01107749 0.04555313 0.01489013 0.00086462 
0.00753352 0.01808603 0.00291406 0.00182250 0.00301104 0.00165338 0.00758699 0.00499969 0.02836800 0.00653910 0.00997257 0.00099870 0.01110514 0.04472860 0.01467087 0.00081932 
0.00771940 0.01822671 0.00290578 0.00183443 0.00301517 0.00168096 0.00763553 0.00504535 0.02869393 0.00655966 0.00979821 0.00100683 0.01112071 0.04395280 0.01446507 0.00077590 
0.00791212 0.01836044 0.00290133 0.00184660 0.00302484 0.00170820 0.00768332 0.00508793 0.02902486 0.00657711 0.00963231 0.00101595 0.01112421 0.04322896 0.01427323 0.00073454 
0.00811082 0.01848614 0.00290075 0.00185901 0.00303998 0.00173497 0.00773023 0.00512732 0.02935922 0.00659107 0.00947573 0.00102599 0.01111568 0.04255993 0.01409574 0.00069543 
0.00831461 0.01860275 0.00290405 0.00187167 0.00306051 0.00176116 0.00777607 0.00516342 0.02969534 0.00660115 0.00932928 0.00103692 0.01109525 0.04194824 0.01393292 0.00065874 
0.00852252 0.01870928 0.00291124 0.00188457 0.00308632 0.00178664 0.00782068 0.00519615 0.03003152 0.00660699 0.00919370 0.00104869 0.01106309 0.04139604 0.01378498 0.00062464 
0.00873358 0.01880481 0.00292229 0.00189769 0.00311725 0.00181131 0.00786386 0.00522546 0.03036598 0.00660825 0.00906966 0.00106123 0.01101942 0.04090512 0.01365202 0.00059327 
0.00894676 0.01888850 0.00293717 0.00191102 0.00315312 0.00183504 0.00790544 0.00525132 0.03069693 0.00660462 0.00895779 0.00107451 0.01096450 0.04047690 0.01353406 0.00056481 
0.00916101 0.01895959 0.00295580 0.00192454 0.00319372 0.00185774 0.00794520 0.00527372 0.03102254 0.00659582 0.00885862 0.00108848 0.01089867 0.04011244 0.01343103 0.00053938 
0.00937526 0.01901740 0.00297809 0.00193822 0.00323881 0.00187931 0.00798294 0.00529266 0.03134097 0.00658158 0.00877263 0.00110309 0.01082230 0.03981246 0.01334279 0.00051715 
0.00958844 0.01906134 0.00300396 0.00195204 0.00328810 0.00189966 0.00801844 0.00530817 0.03165038 0.00656169 0.00870023 0.00111829 0.01073580 0.03957728 0.01326909 0.00049822 
0.00979944 0.01909094 0.00303326 0.00196595 0.00334130 0.00191870 0.00805150 0.00532032 0.03194895 0.00653597 0.00864175 0.00113403 0.01063963 0.03940693 0.01320964 0.00048274 
0.01000718 0.01910581 0.00306585 0.00197992 0.00339808 0.00193635 0.00808188 0.00532916 0.03223490 0.00650427 0.00859744 0.00115028 0.01053430 0.03930107 0.01316406 0.00047081 
0.01021057 0.01910568 0.00310158 0.00199389 0.00345811 0.00195254 0.00810937 0.00533480 0.03250647 0.00646649 0.00856749 0.00116700 0.01042035 0.03925904 0.01313191 0.00046255 
0.01040852 0.01909037 0.00314025 0.00200784 0.00352100 0.00196722 0.00813376 0.00533735 0.03276199 0.00642256 0.00855200 0.00118414 0.01029836 0.03927990 0.01311271 0.00045804 
0.01059999 0.01905983 0.00318168 0.00202169 0.00358638 0.00198033 0.00815483 0.00533695 0.03299984 0.00637246 0.00855102 0.00120166 0.01016896 0.03936239 0.01310591 0.00045737 
0.01078392 0.01901411 0.00322565 0.00203539 0.00365384 0.00199183 0.00817237 0.00533374 0.03321850 0.00631622 0.00856451 0.00121953 0.01003278 0.03950498 0.01311094 0.00046063 
0.01095932 0.01895338 0.00327193 0.00204890 0.00372297 0.00200168 0.00818617 0.00532789 0.03341656 0.00625391 0.00859235 0.00123771 0.00989052 0.03970591 0.01312718 0.00046787 
0.01112521 0.01887790 0.00332029 0.00206213 0.00379333 0.00200987 0.00819603 0.00531960 0.03359270 0.00618565 0.00863436 0.00125618 0.00974288 0.03996314 0.01315400 0.00047915 
0.01128068 0.01878807 0.00337046 0.00207503 0.00386450 0.00201639 0.00820177 0.00530907 0.03374574 0.00611160 0.00869030 0.00127490 0.00959060 0.04027445 0.01319072 0.00049451 
0.01142485 0.01868438 0.00342218 0.00208754 0.00393603 0.00202122 0.00820320 0.00529650 0.03387465 0.00603196 0.00875985 0.00129383 0.00943443 0.04063740 0.01323668 0.00051399 
0.01155690 0.01856742 0.00347519 0.00209959 0.00400748 0.00202439 0.00820017 0.00528214 0.03397853 0.00594698 0.00884262 0.00131297 0.00927515 0.04104938 0.01329118 0.00053761 
0.01167606 0.01843790 0.00352919 0.00211110 0.00407841 0.00202589 0.00819252 0.00526623 0.03405666 0.00585696 0.00893817 0.00133227 0.00911356 0.04150763 0.01335354 0.00056537 
0.01178165 0.01829662 0.00358391 0.00212202 0.00414838 0.00202578 0.00818012 0.00524901 0.03410848 0.00576223 0.00904600 0.00135171 0.00895046 0.04200926 0.01342308 0.00059726 
0.01187303 0.01814446 0.00363905 0.00213227 0.00421697 0.00202407 0.00816283 0.00523074 0.03413360 0.00566316 0.00916554 0.00137128 0.00878668 0.04255124 0.01349912 0.00063327 
0.01194967 0.01798240 0.00369432 0.00214179 0.00428374 0.00202082 0.00814057 0.00521171 0.03413182 0.00556018 0.00929619 0.00139095 0.00862304 0.04313048 0.01358101 0.00067337 
0.01201108 0.01781149 0.00374941 0.00215052 0.00434829 0.00201609 0.00811325 0.00519217 0.03410315 0.00545372 0.00943728 0.00141069 0.00846037 0.04374379 0.01366811 0.00071751 
0.01205688 0.01763288 0.00380404 0.00215840 0.00441022 0.00200994 0.00808080 0.00517240 0.03404777 0.00534426 0.00958810 0.00143050 0.00829952 0.04438795 0.01375980 0.00076563 
0.01208677 0.01744775 0.00385790 0.00216536 0.00446916 0.00200243 0.00804318 0.00515270 0.03396606 0.00523232 0.00974791 0.00145035 0.00814132 0.04505968 0.01385548 0.00081766 
0.01210054 0.01725736 0.00391071 0.00217136 0.00452476 0.00199367 0.00800037 0.00513332 0.03385861 0.00511844 0.00991591 0.00147022 0.00798661 0.04575570 0.01395461 0.00087352 
0.01209804 0.01706303 0.00396219 0.00217635 0.00457666 0.00198372 0.00795238 0.00511457 0.03372621 0.00500317 0.01009129 0.00149009 0.00783620 0.04647273 0.01405666 0.00093309 
0.01207926 0.01686608 0.00401204 0.00218028 0.00462458 0.00197269 0.00789921 0.00509670 0.03356985 0.00488710 0.01027320 0.00150996 0.00769092 0.04720748 0.01416112 0.00099628 
0.01204425 0.01666792 0.00406000 0.00218310 0.00466823 0.00196068 0.00784094 0.00507999 0.03339071 0.00477082 0.01046077 0.00152979 0.00755157 0.04795671 0.01426755 0.00106294 
0.01199315 0.01646992 0.00410581 0.00218480 0.00470736 0.00194780 0.00777761 0.00506471 0.03319017 0.00465494 0.01065310 0.00154957 0.00741893 0.04871721 0.01437552 0.00113294 
0.01192622 0.01627353 0.00414923 0.00218534 0.00474174 0.00193415 0.00770933 0.00505111 0.03296979 0.00454009 0.01084929 0.00156929 0.00729379 0.04948583 0.01448464 0.00120612 
0.01184380 0.01608014 0.00419000 0.00218471 0.00477119 0.00191985 0.00763622 0.00503944 0.03273133 0.00442689 0.01104842 0.00158892 0.00717688 0.05025947 0.01459455 0.00128232 
0.01174630 0.01589118 0.00422792 0.00218289 0.00479556 0.00190502 0.00755841 0.00502993 0.03247669 0.00431595 0.01124956 0.00160845 0.00706893 0.05103510 0.01470496 0.00136134 
0.01163424 0.01570804 0.00426278 0.00217988 0.00481472 0.00188977 0.00747608 0.00502281 0.03220797 0.00420792 0.01145180 0.00162786 0.00697064 0.05180979 0.01481556 0.00144299 
0.01150823 0.01553210 0.00429438 0.00217569 0.00482861 0.00187424 0.00738940 0.00501829 0.03192740 0.00410339 0.01165421 0.00164712 0.00688267 0.05258065 0.01492612 0.00152707 
0.01136896 0.01536468 0.00432257 0.00217033 0.00483716 0.00185854 0.00729859 0.00501656 0.03163735 0.00400297 0.01185589 0.00166622 0.00680564 0.05334493 0.01503640 0.00161335 
0.01121719 0.01520709 0.00434718 0.00216382 0.00484037 0.00184279 0.00720388 0.00501780 0.03134032 0.00390726 0.01205593 0.00168513 0.00674015 0.05409994 0.01514621 0.00170160 
0.01105377 0.01506056 0.00436809 0.00215619 0.00483828 0.00182711 0.00710552 0.00502217 0.03103893 0.00381682 0.01225346 0.00170384 0.00668676 0.05484309 0.01525537 0.00179157 
0.01087961 0.01492626 0.00438519 0.00214749 0.00483094 0.00181163 0.00700377 0.00502981 0.03073589 0.00373221 0.01244763 0.00172230 0.00664596 0.05557188 0.01536373 0.00188302 
0.01069570 0.01480531 0.00439839 0.00213776 0.00481846 0.00179645 0.00689892 0.00504084 0.03043398 0.00365394 0.01263759 0.00174051 0.00661823 0.05628393 0.01547116 0.00197568 
0.01050308 0.01469873 0.00440763 0.00212707 0.00480099 0.00178170 0.00679128 0.00505537 0.03013606 0.00358251 0.01282256 0.00175842 0.00660397 0.05697694 0.01557752 0.00206927 
0.01030286 0.01460745 0.00441287 0.00211548 0.00477868 0.00176747 0.00668117 0.00507347 0.02984502 0.00351838 0.01300176 0.00177602 0.00660356 0.05764871 0.01568271 0.00216352 
0.01009619 0.01453234 0.00441410 0.00210307 0.00475176 0.00175388 0.00656892 0.00509520 0.02956378 0.00346199 0.01317448 0.00179327 0.00661730 0.05829712 0.01578662 0.00225814 
0.00988427 0.01447412 0.00441133 0.00208993 0.00472047 0.00174101 0.00645488 0.00512060 0.02929527 0.00341372 0.01334002 0.00181015 0.00664543 0.05892017 0.01588913 0.00235283 
0.00966834 0.01443346 0.00440458 0.00207614 0.00468507 0.00172896 0.00633941 0.00514968 0.02904239 0.00337393 0.01349776 0.00182661 0.00668816 0.05951592 0.01599014 0.00244729 
0.00944965 0.01441089 0.00439392 0.00206182 0.00464587 0.00171782 0.00622286 0.00518244 0.02880802 0.00334292 0.01364709 0.00184263 0.00674562 0.06008255 0.01608953 0.00254124 
0.00922951 0.01440683 0.00437943 0.00204707 0.00460320 0.00170765 0.00610562 0.00521885 0.02859499 0.00332096 0.01378750 0.00185817 0.00681787 0.06061830 0.01618718 0.00263435 
0.00900920 0.01442158 0.00436122 0.00203202 0.00455740 0.00169853 0.00598806 0.00525885 0.02840603 0.00330827 0.01391849 0.00187320 0.00690492 0.06112150 0.01628296 0.00272632 
0.00879005 0.01445533 0.00433942 0.00201678 0.00450886 0.00169052 0.00587057 0.00530237 0.02824379 0.00330503 0.01403964 0.00188768 0.00700671 0.06159057 0.01637671 0.00281685 
0.00857336 0.01450815 0.00431419 0.00200148 0.00445797 0.00168367 0.00575352 0.00534932 0.02811082 0.00331137 0.01415058 0.00190158 0.00712311 0.06202399 0.01646826 0.00290563 
0.00836046 0.01457998 0.00428570 0.00198626 0.00440515 0.00167801 0.00563731 0.00539956 0.02800951 0.00332737 0.01425103 0.00191485 0.00725392 0.06242033 0.01655744 0.00299236 
0.00815262 0.01467066 0.00425416 0.00197127 0.00435081 0.00167359 0.00552232 0.00545298 0.02794211 0.00335305 0.01434072 0.00192746 0.00739888 0.06277825 0.01664402 0.00307675 
0.00795111 0.01477988 0.00421979 0.00195664 0.00429540 0.00167042 0.00540891 0.00550940 0.02791070 0.00338841 0.01441950 0.00193937 0.00755765 0.06309646 0.01672780 0.00315849 
0.00775719 0.01490723 0.00418283 0.00194253 0.00423936 0.00166852 0.00529748 0.00556866 0.02791717 0.00343338 0.01448725 0.00195055 0.00772982 0.06337375 0.01680851 0.00323730 
0.00757206 0.01505218 0.00414355 0.00192908 0.00418314 0.00166789 0.00518837 0.00563055 0.02796320 0.00348785 0.01454393 0.00196095 0.00791493 0.06360901 0.01688588 0.00331292 
0.00739686 0.01521409 0.00410222 0.00191645 0.00412719 0.00166853 0.00508194 0.00569487 0.02805026 0.00355167 0.01458957 0.00197054 0.00811244 0.06380118 0.01695962 0.00338506 
0.00723273 0.01539222 0.00405915 0.00190478 0.00407197 0.00167041 0.00497854 0.00576138 0.02817960 0.00362464 0.01462425 0.00197928 0.00832172 0.06394930 0.01702940 0.00345347 
0.00708070 0.01558571 0.00401463 0.00189423 0.00401792 0.00167352 0.00487850 0.00582984 0.02835219 0.00370651 0.01464814 0.00198714 0.00854211 0.06405249 0.01709489 0.00351790 
0.00694177 0.01579361 0.00396901 0.00188496 0.00396547 0.00167781 0.00478212 0.00589999 0.02856877 0.00379700 0.01466147 0.00199408 0.00877288 0.06410995 0.01715573 0.00357814 
0.00681686 0.01601489 0.00392262 0.00187710 0.00391505 0.00168325 0.00468972 0.00597157 0.02882983 0.00389578 0.01466452 0.00200007 0.00901320 0.06412100 0.01721154 0.00363395 
0.00670682 0.01624842 0.00387580 0.00187080 0.00386708 0.00168979 0.00460157 0.00604430 0.02913556 0.00400249 0.01465765 0.00200507 0.00926224 0.06408504 0.01726194 0.00368515 
0.00661240 0.01649302 0.00382891 0.00186621 0.00382194 0.00169736 0.00451793 0.00611788 0.02948588 0.00411674 0.01464129 0.00200905 0.00951907 0.06400156 0.01730653 0.00373155 
0.00653430 0.01674741 0.00378232 0.00186345 0.00378002 0.00170590 0.00443905 0.00619203 0.02988045 0.00423810 0.01461591 0.00201200 0.00978273 0.06387020 0.01734489 0.00377298 
0.00647310 0.01701028 0.00373639 0.00186267 0.00374166 0.00171533 0.00436514 0.00626643 0.03031863 0.00436612 0.01458206 0.00201387 0.01005219 0.06369069 0.01737661 0.00380931 
0.00642931 0.01728026 0.00369148 0.00186398 0.00370719 0.00172558 0.00429639 0.00634078 0.03079951 0.00450029 0.01454035 0.00201465 0.01032640 0.06346292 0.01740129 0.00384041 
0.00640333 0.01755594 0.00364798 0.00186749 0.00367690 0.00173656 0.00423299 0.00641478 0.03132188 0.00464013 0.01449141 0.00201431 0.01060426 0.06318689 0.01741852 0.00386618 
0.00639546 0.01783588 0.00360624 0.00187331 0.00365108 0.00174818 0.00417508 0.00648810 0.03188429 0.00478510 0.01443596 0.00201285 0.01088462 0.06286276 0.01742790 0.00388654 
0.00640592 0.01811863 0.00356663 0.00188155 0.00362994 0.00176034 0.00412278 0.00656045 0.03248498 0.00493466 0.01437476 0.00201023 0.01116633 0.06249084 0.01742905 0.00390144 
0.00643482 0.01840272 0.00352951 0.00189227 0.00361371 0.00177296 0.00407618 0.00663151 0.03312198 0.00508825 0.01430860 0.00200646 0.01144820 0.06207162 0.01742161 0.00391083 
0.00648215 0.01868670 0.00349522 0.00190556 0.00360254 0.00178593 0.00403537 0.00670098 0.03379303 0.00524529 0.01423833 0.00200152 0.01172902 0.06160574 0.01740523 0.00391471 
0.00654783 0.01896910 0.00346411 0.00192148 0.00359656 0.00179914 0.00400038 0.00676857 0.03449565 0.00540523 0.01416482 0.00199540 0.01200757 0.06109404 0.01737961 0.00391310 
0.00663165 0.01924850 0.00343649 0.00194008 0.00359588 0.00181251 0.00397124 0.00683398 0.03522714 0.00556748 0.01408899 0.00198812 0.01228262 0.06053756 0.01734447 0.00390602 
0.00673332 0.01952350 0.00341267 0.00196139 0.00360055 0.00182591 0.00394792 0.00689693 0.03598459 0.00573145 0.01401179 0.00197967 0.01255296 0.05993751 0.01729958 0.00389355 
0.00685244 0.01979275 0.00339297 0.00198544 0.00361058 0.00183926 0.00393041 0.00695716 0.03676489 0.00589658 0.01393418 0.00197005 0.01281737 0.05929533 0.01724475 0.00387577 
0.00698852 0.02005495 0.00337763 0.00201223 0.00362597 0.00185246 0.00391864 0.00701441 0.03756479 0.00606229 0.01385714 0.00195929 0.01307465 0.05861267 0.01717984 0.00385278 
0.00714097 0.02030886 0.00336693 0.00204176 0.00364664 0.00186541 0.00391251 0.00706842 0.03838085 0.00622803 0.01378168 0.00194740 0.01332362 0.05789139 0.01710476 0.00382472 
0.00730913 0.02055329 0.00336110 0.00207401 0.00367252 0.00187800 0.00391194 0.00711898 0.03920955 0.00639323 0.01370880 0.00193440 0.01356313 0.05713358 0.01701948 0.00379174 
0.00749222 0.02078717 0.00336034 0.00210895 0.00370345 0.00189017 0.00391677 0.00716587 0.04004723 0.00655738 0.01363953 0.00192032 0.01379207 0.05634155 0.01692404 0.00375403 
0.00768942 0.02100949 0.00336484 0.00214651 0.00373928 0.00190181 0.00392685 0.00720889 0.04089016 0.00671995 0.01357488 0.00190518 0.01400935 0.05551786 0.01681852 0.00371176 
0.00789980 0.02121932 0.00337476 0.00218663 0.00377981 0.00191285 0.00394201 0.00724787 0.04173456 0.00688044 0.01351585 0.00188903 0.01421397 0.05466526 0.01670310 0.00366517 
0.00812237 0.02141585 0.00339022 0.00222923 0.00382480 0.00192322 0.00396205 0.00728265 0.04257663 0.00703838 0.01346344 0.00187190 0.01440495 0.05378677 0.01657802 0.00361449 
0.00835609 0.02159837 0.00341133 0.00227421 0.00387397 0.00193285 0.00398675 0.00731310 0.04341255 0.00719332 0.01341863 0.00185384 0.01458137 0.05288561 0.01644357 0.00355997 
0.00859984 0.02176627 0.00343816 0.00232147 0.00392704 0.00194168 0.00401587 0.00733910 0.04423853 0.00734483 0.01338237 0.00183491 0.01474241 0.05196521 0.01630014 0.00350189 
0.00885246 0.02191908 0.00347074 0.00237086 0.00398369 0.00194966 0.00404916 0.00736056 0.04505085 0.00749250 0.01335558 0.00181515 0.01488728 0.05102926 0.01614819 0.00344053 
0.00911274 0.02205641 0.00350909 0.00242226 0.00404356 0.00195674 0.00408636 0.00737741 0.04584583 0.00763597 0.01333917 0.00179463 0.01501531 0.05008161 0.01598825 0.00337618 
0.00937945 0.02217802 0.00355318 0.00247551 0.00410629 0.00196289 0.00412720 0.00738960 0.04661993 0.00777489 0.01333397 0.00177341 0.01512587 0.04912633 0.01582093 0.00330917 
0.00965130 0.02228378 0.00360296 0.00253043 0.00417149 0.00196808 0.00417137 0.00739712 0.04736973 0.00790895 0.01334080 0.00175157 0.01521846 0.04816769 0.01564690 0.00323982 
0.00992700 0.02237366 0.00365834 0.00258685 0.00423876 0.00197230 0.00421859 0.00739996 0.04809196 0.00803787 0.01336042 0.00172917 0.01529263 0.04721012 0.01546692 0.00316845 
0.01020525 0.02244779 0.00371920 0.00264458 0.00430768 0.00197553 0.00426855 0.00739816 0.04878352 0.00816139 0.01339351 0.00170630 0.01534805 0.04625820 0.01528182 0.00309540 
0.01048472 0.02250640 0.00378538 0.00270341 0.00437783 0.00197777 0.00432093 0.00739176 0.04944153 0.00827929 0.01344072 0.00168304 0.01538448 0.04531667 0.01509248 0.00302103 
0.01076411 0.02254983 0.00385671 0.00276313 0.00444877 0.00197904 0.00437544 0.00738084 0.05006334 0.00839139 0.01350263 0.00165948 0.01540178 0.04439039 0.01489987 0.00294567 
0.01104210 0.02257856 0.00393298 0.00282351 0.00452008 0.00197935 0.00443176 0.00736549 0.05064652 0.00849752 0.01357974 0.00163570 0.01539991 0.04348433 0.01470500 0.00286969 
0.01131742 0.02259315 0.00401394 0.00288433 0.00459131 0.00197873 0.00448956 0.00734583 0.05118892 0.00859754 0.01367248 0.00161181 0.01537891 0.04260354 0.01450895 0.00279342 
0.01158880 0.02259429 0.00409933 0.00294535 0.00466204 0.00197721 0.00454855 0.00732202 0.05168868 0.00869137 0.01378119 0.00158789 0.01533896 0.04175313 0.01431284 0.00271721 
0.01185501 0.02258277 0.00418883 0.00300633 0.00473184 0.00197483 0.00460843 0.00729420 0.05214421 0.00877891 0.01390616 0.00156405 0.01528032 0.04093825 0.01411786 0.00264142 
0.01211487 0.02255947 0.00428214 0.00306702 0.00480030 0.00197165 0.00466889 0.00726258 0.05255426 0.00886013 0.01404757 0.00154038 0.01520334 0.04016409 0.01392521 0.00256638 
0.01236723 0.02252536 0.00437890 0.00312716 0.00486703 0.00196773 0.00472964 0.00722735 0.05291788 0.00893499 0.01420551 0.00151700 0.01510847 0.03943578 0.01373615 0.00249243 
0.01261101 0.02248151 0.00447874 0.00318651 0.00493164 0.00196313 0.00479042 0.00718874 0.05323446 0.00900350 0.01437999 0.00149401 0.01499628 0.03875844 0.01355197 0.00241988 
0.01284519 0.02242902 0.00458128 0.00324481 0.00499377 0.00195791 0.00485095 0.00714700 0.05350371 0.00906567 0.01457093 0.00147151 0.01486741 0.03813713 0.01337395 0.00234906 
0.01306881 0.02236912 0.00468610 0.00330181 0.00505308 0.00195217 0.00491099 0.00710238 0.05372570 0.00912155 0.01477816 0.00144961 0.01472259 0.03757681 0.01320342 0.00228026 
0.01328098 0.02230303 0.00479278 0.00335726 0.00510926 0.00194598 0.00497030 0.00705515 0.05390084 0.00917120 0.01500140 0.00142842 0.01456263 0.03708230 0.01304171 0.00221377 
0.01348089 0.02223208 0.00490087 0.00341090 0.00516201 0.00193942 0.00502866 0.00700561 0.05402987 0.00921469 0.01524028 0.00140804 0.01438844 0.03665829 0.01289014 0.00214987 
0.01366783 0.02215760 0.00500994 0.00346250 0.00521108 0.00193259 0.00508588 0.00695405 0.05411387 0.00925210 0.01549435 0.00138858 0.01420097 0.03630929 0.01275003 0.00208881 
0.01384116 0.02208096 0.00511951 0.00351182 0.00525625 0.00192558 0.00514177 0.00690079 0.05415426 0.00928355 0.01576305 0.00137015 0.01400128 0.03603959 0.01262268 0.00203084 
0.01400033 0.02200355 0.00522912 0.00355863 0.00529732 0.00191849 0.00519617 0.00684613 0.05415278 0.00930915 0.01604572 0.00135284 0.01379046 0.03585325 0.01250937 0.00197618 
0.01414488 0.02192678 0.00533831 0.00360270 0.00533413 0.00191140 0.00524895 0.00679042 0.05411148 0.00932900 0.01634164 0.00133675 0.01356967 0.03575408 0.01241135 0.00192503 
0.01427447 0.02185205 0.00544659 0.00364383 0.00536656 0.00190443 0.00530000 0.00673397 0.05403272 0.00934325 0.01664997 0.00132199 0.01334009 0.03574557 0.01232983 0.00187758 
0.01438884 0.02178074 0.00555350 0.00368181 0.00539453 0.00189766 0.00534921 0.00667713 0.05391913 0.00935203 0.01696978 0.00130864 0.01310299 0.03583094 0.01226598 0.00183398 
0.01448782 0.02171423 0.00565857 0.00371646 0.00541798 0.00189119 0.00539652 0.00662022 0.05377362 0.00935547 0.01730010 0.00129678 0.01285962 0.03601302 0.01222091 0.00179439 
0.01457135 0.02165385 0.00576135 0.00374760 0.00543691 0.00188511 0.00544188 0.00656358 0.05359934 0.00935370 0.01763982 0.00128651 0.01261129 0.03629432 0.01219566 0.00175891 
0.01463948 0.02160093 0.00586137 0.00377507 0.00545134 0.00187952 0.00548526 0.00650755 0.05339969 0.00934687 0.01798781 0.00127790 0.01235932 0.03667694 0.01219123 0.00172766 
0.01469235 0.02155670 0.00595820 0.00379872 0.00546133 0.00187449 0.00552667 0.00645246 0.05317825 0.00933511 0.01834284 0.00127102 0.01210502 0.03716258 0.01220851 0.00170070 
0.01473020 0.02152238 0.00605142 0.00381843 0.00546699 0.00187012 0.00556613 0.00639862 0.05293878 0.00931855 0.01870361 0.00126594 0.01184971 0.03775254 0.01224834 0.00167808 
0.01475335 0.02149909 0.00614062 0.00383408 0.00546844 0.00186647 0.00560368 0.00634634 0.05268521 0.00929733 0.01906879 0.00126270 0.01159472 0.03844765 0.01231145 0.00165984 
0.01476223 0.02148791 0.00622541 0.00384558 0.00546586 0.00186363 0.00563938 0.00629595 0.05242158 0.00927158 0.01943697 0.00126137 0.01134133 0.03924830 0.01239850 0.00164599 
0.01475737 0.02148982 0.00630541 0.00385285 0.00545945 0.00186165 0.00567332 0.00624772 0.05215205 0.00924140 0.01980671 0.00126199 0.01109081 0.04015442 0.01251004 0.00163651 
0.01473935 0.02150573 0.00638029 0.00385583 0.00544944 0.00186060 0.00570561 0.00620194 0.05188083 0.00920693 0.02017652 0.00126458 0.01084442 0.04116547 0.01264651 0.00163136 
0.01470887 0.02153644 0.00644973 0.00385449 0.00543608 0.00186052 0.00573637 0.00615887 0.05161217 0.00916826 0.02054490 0.00126918 0.01060334 0.04228043 0.01280826 0.00163049 
0.01466668 0.02158268 0.00651343 0.00384881 0.00541968 0.00186145 0.00576574 0.00611877 0.05135035 0.00912551 0.02091031 0.00127580 0.01036874 0.04349777 0.01299552 0.00163383 
0.01461361 0.02164505 0.00657113 0.00383878 0.00540053 0.00186344 0.00579388 0.00608187 0.05109960 0.00907876 0.02127120 0.00128444 0.01014170 0.04481551 0.01320841 0.00164128 
0.01455057 0.02172408 0.00662260 0.00382443 0.00537897 0.00186650 0.00582096 0.00604838 0.05086412 0.00902812 0.02162601 0.00129510 0.00992327 0.04623117 0.01344694 0.00165271 
0.01447851 0.02182018 0.00666762 0.00380580 0.00535535 0.00187066 0.00584715 0.00601849 0.05064801 0.00897366 0.02197320 0.00130778 0.00971442 0.04774177 0.01371100 0.00166801 
0.01439843 0.02193364 0.00670604 0.00378295 0.00533003 0.00187591 0.00587266 0.00599238 0.05045527 0.00891546 0.02231122 0.00132244 0.00951605 0.04934388 0.01400036 0.00168702 
0.01431140 0.02206466 0.00673771 0.00375596 0.00530339 0.00188226 0.00589768 0.00597020 0.05028976 0.00885361 0.02263856 0.00133905 0.00932898 0.05103360 0.01431467 0.00170957 
0.01421850 0.02221332 0.00676252 0.00372492 0.00527582 0.00188969 0.00592242 0.00595208 0.05015516 0.00878817 0.02295372 0.00135757 0.00915395 0.05280656 0.01465346 0.00173549 
0.01412086 0.02237960 0.00678041 0.00368996 0.00524770 0.00189819 0.00594710 0.00593813 0.05005497 0.00871922 0.02325525 0.00137795 0.00899163 0.05465796 0.01501615 0.00176457 
0.01401962 0.02256336 0.00679134 0.00365121 0.00521943 0.00190771 0.00597193 0.00592842 0.04999244 0.00864681 0.02354175 0.00140013 0.00884257 0.05658259 0.01540204 0.00179662 
0.01391595 0.02276438 0.00679531 0.00360882 0.00519139 0.00191821 0.00599713 0.00592301 0.04997060 0.00857102 0.02381186 0.00142402 0.00870726 0.05857481 0.01581032 0.00183142 
0.01381102 0.02298230 0.00679235 0.00356296 0.00516399 0.00192965 0.00602290 0.00592194 0.04999220 0.00849191 0.02406430 0.00144955 0.00858607 0.06062862 0.01624006 0.00186874 
0.01370600 0.02321670 0.00678252 0.00351382 0.00513758 0.00194197 0.00604947 0.00592521 0.05005968 0.00840954 0.02429786 0.00147663 0.00847931 0.06273766 0.01669023 0.00190834 
0.01360204 0.02346704 0.00676591 0.00346159 0.00511254 0.00195509 0.00607702 0.00593281 0.05017518 0.00832399 0.02451139 0.00150515 0.00838716 0.06489524 0.01715968 0.00194999 
0.01350030 0.02373271 0.00674267 0.00340649 0.00508922 0.00196894 0.00610577 0.00594469 0.05034053 0.00823533 0.02470385 0.00153501 0.00830972 0.06709438 0.01764719 0.00199344 
0.01340188 0.02401299 0.00671295 0.00334874 0.00506795 0.00198343 0.00613588 0.00596079 0.05055719 0.00814364 0.02487429 0.00156609 0.00824701 0.06932780 0.01815140 0.00203844 
0.01330789 0.02430711 0.00667693 0.00328858 0.00504905 0.00199846 0.00616754 0.00598102 0.05082628 0.00804900 0.02502184 0.00159825 0.00819894 0.07158803 0.01867091 0.00208474 
0.01321937 0.02461422 0.00663484 0.00322626 0.00503280 0.00201395 0.00620090 0.00600526 0.05114852 0.00795150 0.02514576 0.00163138 0.00816533 0.07386736 0.01920420 0.00213208 
0.01313732 0.02493340 0.00658691 0.00316203 0.00501946 0.00202978 0.00623611 0.00603338 0.05152430 0.00785124 0.02524541 0.00166533 0.00814591 0.07615794 0.01974969 0.00218020 
0.01306270 0.02526366 0.00653343 0.00309615 0.00500928 0.00204583 0.00627328 0.00606523 0.05195359 0.00774834 0.02532026 0.00169996 0.00814034 0.07845178 0.02030572 0.00222886 
0.01299639 0.02560400 0.00647467 0.00302890 0.00500245 0.00206200 0.00631253 0.00610062 0.05243601 0.00764291 0.02536991 0.00173511 0.00814818 0.08074081 0.02087057 0.00227781 
0.01293923 0.02595335 0.00641096 0.00296054 0.00499915 0.00207816 0.00635394 0.00613935 0.05297076 0.00753507 0.02539408 0.00177064 0.00816894 0.08301690 0.02144247 0.00232680 
0.01289196 0.02631060 0.00634262 0.00289136 0.00499951 0.00209418 0.00639756 0.00618122 0.05355668 0.00742499 0.02539260 0.00180638 0.00820202 0.08527194 0.02201961 0.00237559 
0.01285528 0.02667464 0.00627001 0.00282162 0.00500364 0.00210994 0.00644345 0.00622598 0.05419223 0.00731280 0.02536545 0.00184218 0.00824679 0.08749780 0.02260011 0.00242395 
0.01282976 0.02704432 0.00619348 0.00275162 0.00501160 0.00212531 0.00649161 0.00627340 0.05487550 0.00719869 0.02531273 0.00187786 0.00830253 0.08968646 0.02318208 0.00247165 
0.01281594 0.02741850 0.00611342 0.00268162 0.00502342 0.00214017 0.00654203 0.00632319 0.05560421 0.00708282 0.02523465 0.00191328 0.00836848 0.09183001 0.02376363 0.00251848 
0.01281424 0.02779604 0.00603021 0.00261190 0.00503910 0.00215437 0.00659469 0.00637509 0.05637574 0.00696541 0.02513157 0.00194826 0.00844383 0.09392068 0.02434281 0.00256423 
0.01282499 0.02817578 0.00594424 0.00254273 0.00505859 0.00216779 0.00664952 0.00642882 0.05718714 0.00684664 0.02500397 0.00198264 0.00852772 0.09595089 0.02491770 0.00260870 
0.01284843 0.02855661 0.00585592 0.00247437 0.00508181 0.00218030 0.00670642 0.00648406 0.05803514 0.00672676 0.02485245 0.00201626 0.00861927 0.09791328 0.02548637 0.00265171 
0.01288471 0.02893743 0.00576565 0.00240709 0.00510864 0.00219179 0.00676531 0.00654053 0.05891617 0.00660600 0.02467772 0.00204897 0.00871754 0.09980079 0.02604691 0.00269308 
0.01293389 0.02931715 0.00567383 0.00234114 0.00513893 0.00220212 0.00682602 0.00659790 0.05982639 0.00648459 0.02448063 0.00208060 0.00882159 0.10160663 0.02659743 0.00273266 
0.01299591 0.02969475 0.00558088 0.00227674 0.00517249 0.00221119 0.00688841 0.00665587 0.06076171 0.00636282 0.02426213 0.00211100 0.00893047 0.10332436 0.02713607 0.00277030 
0.01307064 0.03006924 0.00548719 0.00221415 0.00520910 0.00221888 0.00695228 0.00671412 0.06171781 0.00624095 0.02402327 0.00214004 0.00904322 0.10494790 0.02766102 0.00280587 
0.01315784 0.03043967 0.00539315 0.00215356 0.00524850 0.00222510 0.00701743 0.00677232 0.06269017 0.00611925 0.02376522 0.00216757 0.00915885 0.10647158 0.02817050 0.00283924 
0.01325718 0.03080515 0.00529916 0.00209520 0.00529042 0.00222973 0.00708363 0.00683018 0.06367410 0.00599804 0.02348922 0.00219345 0.00927642 0.10789016 0.02866280 0.00287032 
0.01336824 0.03116486 0.00520560 0.00203926 0.00533456 0.00223270 0.00715062 0.00688737 0.06466476 0.00587761 0.02319661 0.00221757 0.00939497 0.10919885 0.02913627 0.00289901 
0.01349050 0.03151803 0.00511284 0.00198591 0.00538057 0.00223393 0.00721813 0.00694359 0.06565721 0.00575827 0.02288883 0.00223981 0.00951357 0.11039333 0.02958934 0.00292524 
0.01362337 0.03186396 0.00502124 0.00193533 0.00542811 0.00223335 0.00728587 0.00699854 0.06664641 0.00564035 0.02256736 0.00226005 0.00963132 0.11146979 0.03002050 0.00294895 
0.01376617 0.03220202 0.00493115 0.00188765 0.00547680 0.00223089 0.00735354 0.00705194 0.06762730 0.00552415 0.02223375 0.00227821 0.00974735 0.11242494 0.03042835 0.00297010 
0.01391814 0.03253166 0.00484288 0.00184302 0.00552626 0.00222650 0.00742082 0.00710350 0.06859477 0.00541000 0.02188963 0.00229420 0.00986083 0.11325601 0.03081156 0.00298865 
0.01407846 0.03285240 0.00475677 0.00180155 0.00557608 0.00222016 0.00748738 0.00715296 0.06954375 0.00529824 0.02153664 0.00230793 0.00997095 0.11396078 0.03116892 0.00300460 
0.01424622 0.03316383 0.00467311 0.00176334 0.00562586 0.00221182 0.00755288 0.00720007 0.07046921 0.00518918 0.02117647 0.00231935 0.01007699 0.11453759 0.03149931 0.00301793 
0.01442047 0.03346562 0.00459217 0.00172848 0.00567519 0.00220149 0.00761698 0.00724460 0.07136619 0.00508316 0.02081084 0.00232841 0.01017825 0.11498535 0.03180171 0.00302867 
0.01460020 0.03375752 0.00451422 0.00169703 0.00572364 0.00218915 0.00767932 0.00728632 0.07222985 0.00498050 0.02044149 0.00233506 0.01027410 0.11530351 0.03207524 0.00303684 
0.01478434 0.03403934 0.00443950 0.00166905 0.00577079 0.00217482 0.00773955 0.00732504 0.07305550 0.00488152 0.02007015 0.00233927 0.01036397 0.11549210 0.03231910 0.00304247 
0.01497180 0.03431099 0.00436823 0.00164456 0.00581625 0.00215852 0.00779733 0.00736058 0.07383861 0.00478652 0.01969855 0.00234104 0.01044736 0.11555170 0.03253265 0.00304562 
0.01516142 0.03457242 0.00430062 0.00162359 0.00585959 0.00214029 0.00785230 0.00739278 0.07457487 0.00469582 0.01932840 0.00234036 0.01052381 0.11548345 0.03271535 0.00304635 
0.01535206 0.03482366 0.00423685 0.00160614 0.00590044 0.00212018 0.00790413 0.00742151 0.07526017 0.00460971 0.01896140 0.00233725 0.01059298 0.11528906 0.03286677 0.00304474 
0.01554252 0.03506483 0.00417709 0.00159218 0.00593841 0.00209825 0.00795249 0.00744666 0.07589069 0.00452847 0.01859921 0.00233172 0.01065455 0.11497072 0.03298664 0.00304086 
0.01573161 0.03529608 0.00412146 0.00158169 0.00597313 0.00207458 0.00799704 0.00746813 0.07646287 0.00445239 0.01824343 0.00232381 0.01070830 0.11453119 0.03307479 0.00303480 
0.01591813 0.03551762 0.00407011 0.00157462 0.00600428 0.00204926 0.00803750 0.00748587 0.07697346 0.00438171 0.01789563 0.00231358 0.01075409 0.11397370 0.03313117 0.00302668 
0.01610088 0.03572974 0.00402313 0.00157092 0.00603153 0.00202240 0.00807357 0.00749984 0.07741954 0.00431670 0.01755729 0.00230110 0.01079182 0.11330197 0.03315589 0.00301660 
0.01627869 0.03593275 0.00398060 0.00157050 0.00605460 0.00199409 0.00810498 0.00751002 0.07779851 0.00425757 0.01722984 0.00228642 0.01082151 0.11252019 0.03314916 0.00300466 
0.01645039 0.03612702 0.00394260 0.00157327 0.00607322 0.00196448 0.00813149 0.00751644 0.07810817 0.00420455 0.01691461 0.00226965 0.01084320 0.11163295 0.03311130 0.00299100 
0.01661485 0.03631296 0.00390916 0.00157915 0.00608716 0.00193369 0.00815288 0.00751913 0.07834667 0.00415784 0.01661287 0.00225087 0.01085706 0.11064527 0.03304277 0.00297574 
0.01677096 0.03649100 0.00388033 0.00158801 0.00609622 0.00190187 0.00816894 0.00751815 0.07851254 0.00411761 0.01632577 0.00223021 0.01086327 0.10956255 0.03294415 0.00295900 
0.01691768 0.03666161 0.00385611 0.00159974 0.00610025 0.00186918 0.00817951 0.00751361 0.07860472 0.00408403 0.01605436 0.00220777 0.01086212 0.10839052 0.03281611 0.00294092 
0.01705399 0.03682528 0.00383651 0.00161420 0.00609911 0.00183579 0.00818445 0.00750562 0.07862255 0.00405724 0.01579960 0.00218370 0.01085394 0.10713521 0.03265946 0.00292163 
0.01717894 0.03698250 0.00382150 0.00163126 0.00609271 0.00180186 0.00818367 0.00749432 0.07856577 0.00403738 0.01556232 0.00215812 0.01083913 0.10580296 0.03247508 0.00290126 
0.01729166 0.03713380 0.00381106 0.00165077 0.00608102 0.00176757 0.00817708 0.00747988 0.07843454 0.00402454 0.01534323 0.00213119 0.01081816 0.10440033 0.03226398 0.00287996 
0.01739133 0.03727967 0.00380514 0.00167257 0.00606401 0.00173313 0.00816465 0.00746248 0.07822941 0.00401883 0.01514294 0.00210305 0.01079152 0.10293409 0.03202724 0.00285784 
0.01747720 0.03742065 0.00380369 0.00169650 0.00604171 0.00169870 0.00814639 0.00744236 0.07795134 0.00402030 0.01496190 0.00207387 0.01075979 0.10141118 0.03176604 0.00283505 
0.01754862 0.03755722 0.00380663 0.00172241 0.00601419 0.00166450 0.00812232 0.00741972 0.07760171 0.00402901 0.01480047 0.00204382 0.01072356 0.09983868 0.03148165 0.00281171 
0.01760500 0.03768989 0.00381389 0.00175011 0.00598157 0.00163072 0.00809252 0.00739485 0.07718224 0.00404500 0.01465886 0.00201306 0.01068348 0.09822375 0.03117539 0.00278794 
0.01764588 0.03781912 0.00382539 0.00177945 0.00594398 0.00159756 0.00805711 0.00736799 0.07669507 0.00406829 0.01453716 0.00198178 0.01064022 0.09657361 0.03084867 0.00276388 
0.01767084 0.03794536 0.00384101 0.00181025 0.00590162 0.00156523 0.00801623 0.00733946 0.07614269 0.00409886 0.01443531 0.00195014 0.01059449 0.09489551 0.03050295 0.00273963 
0.01767960 0.03806903 0.00386066 0.00184233 0.00585471 0.00153392 0.00797007 0.00730955 0.07552792 0.00413671 0.01435314 0.00191834 0.01054702 0.09319666 0.03013975 0.00271532 
0.01767197 0.03819052 0.00388422 0.00187553 0.00580349 0.00150384 0.00791885 0.00727859 0.07485394 0.00418180 0.01429036 0.00188654 0.01049855 0.09148425 0.02976062 0.00269103 
0.01764783 0.03831016 0.00391157 0.00190967 0.00574828 0.00147518 0.00786285 0.00724691 0.07412421 0.00423410 0.01424654 0.00185494 0.01044985 0.08976534 0.02936716 0.00266688 
0.01760721 0.03842826 0.00394259 0.00194459 0.00568939 0.00144813 0.00780236 0.00721485 0.07334250 0.00429353 0.01422113 0.00182371 0.01040167 0.08804690 0.02896099 0.00264296 
0.01755020 0.03854508 0.00397713 0.00198011 0.00562718 0.00142289 0.00773771 0.00718277 0.07251283 0.00436002 0.01421346 0.00179304 0.01035478 0.08633571 0.02854378 0.00261934 
0.01747702 0.03866082 0.00401508 0.00201607 0.00556204 0.00139964 0.00766927 0.00715103 0.07163947 0.00443349 0.01422277 0.00176309 0.01030995 0.08463838 0.02811717 0.00259612 
0.01738798 0.03877564 0.00405627 0.00205232 0.00549437 0.00137855 0.00759745 0.00711998 0.07072690 0.00451383 0.01424817 0.00173404 0.01026790 0.08296130 0.02768284 0.00257336 
0.01728348 0.03888964 0.00410057 0.00208870 0.00542461 0.00135978 0.00752268 0.00709000 0.06977978 0.00460095 0.01428866 0.00170606 0.01022938 0.08131061 0.02724245 0.00255112 
0.01716405 0.03900286 0.00414782 0.00212506 0.00535321 0.00134350 0.00744541 0.00706145 0.06880294 0.00469473 0.01434319 0.00167931 0.01019508 0.07969214 0.02679765 0.00252947 
0.01703028 0.03911530 0.00419787 0.00216125 0.00528064 0.00132984 0.00736615 0.00703469 0.06780133 0.00479503 0.01441057 0.00165395 0.01016568 0.07811147 0.02635008 0.00250844 
0.01688287 0.03922687 0.00425057 0.00219715 0.00520740 0.00131895 0.00728539 0.00701009 0.06678001 0.00490173 0.01448958 0.00163013 0.01014181 0.07657382 0.02590136 0.00248808 
0.01672261 0.03933744 0.00430575 0.00223262 0.00513397 0.00131094 0.00720368 0.00698798 0.06574410 0.00501467 0.01457889 0.00160798 0.01012409 0.07508408 0.02545306 0.00246841 
0.01655037 0.03944683 0.00436325 0.00226754 0.00506087 0.00130592 0.00712157 0.00696872 0.06469878 0.00513372 0.01467714 0.00158765 0.01011306 0.07364677 0.02500672 0.00244947 
0.01636710 0.03955477 0.00442290 0.00230179 0.00498860 0.00130398 0.00703964 0.00695263 0.06364921 0.00525872 0.01478291 0.00156926 0.01010924 0.07226602 0.02456384 0.00243128 
0.01617383 0.03966097 0.00448454 0.00233527 0.00491767 0.00130520 0.00695847 0.00694003 0.06260057 0.00538950 0.01489474 0.00155292 0.01011307 0.07094559 0.02412586 0.00241384 
0.01597164 0.03976505 0.00454799 0.00236788 0.00484860 0.00130965 0.00687866 0.00693121 0.06155798 0.00552591 0.01501113 0.00153875 0.01012494 0.06968881 0.02369416 0.00239716 
0.01576168 0.03986659 0.00461309 0.00239952 0.00478189 0.00131737 0.00680081 0.00692647 0.06052647 0.00566775 0.01513057 0.00152682 0.01014521 0.06849862 0.02327007 0.00238123 
0.01554518 0.03996512 0.00467965 0.00243012 0.00471803 0.00132839 0.00672553 0.00692606 0.05951100 0.00581487 0.01525155 0.00151724 0.01017412 0.06737752 0.02285483 0.00236606 
0.01532338 0.04006010 0.00474750 0.00245959 0.00465751 0.00134272 0.00665344 0.00693022 0.05851639 0.00596707 0.01537254 0.00151007 0.01021189 0.06632760 0.02244964 0.00235163 
0.01509757 0.04015097 0.00481645 0.00248788 0.00460080 0.00136037 0.00658515 0.00693916 0.05754731 0.00612418 0.01549205 0.00150538 0.01025866 0.06535052 0.02205558 0.00233792 
0.01486910 0.04023710 0.00488633 0.00251491 0.00454836 0.00138130 0.00652126 0.00695308 0.05660826 0.00628598 0.01560860 0.00150321 0.01031447 0.06444752 0.02167368 0.00232492 
0.01463930 0.04031783 0.00495695 0.00254064 0.00450061 0.00140549 0.00646237 0.00697212 0.05570354 0.00645229 0.01572073 0.00150361 0.01037932 0.06361940 0.02130487 0.00231260 
0.01440955 0.04039247 0.00502812 0.00256503 0.00445796 0.00143286 0.00640905 0.00699641 0.05483725 0.00662290 0.01582707 0.00150661 0.01045312 0.06286659 0.02095000 0.00230094 
0.01418122 0.04046028 0.00509965 0.00258804 0.00442080 0.00146336 0.00636189 0.00702606 0.05401324 0.00679759 0.01592625 0.00151222 0.01053572 0.06218907 0.02060984 0.00228991 
0.01395570 0.04052050 0.00517135 0.00260964 0.00438948 0.00149689 0.00632144 0.00706113 0.05323512 0.00697614 0.01601702 0.00152044 0.01062686 0.06158646 0.02028504 0.00227948 
0.01373435 0.04057236 0.00524302 0.00262980 0.00436432 0.00153335 0.00628822 0.00710165 0.05250624 0.00715834 0.01609818 0.00153127 0.01072625 0.06105798 0.01997619 0.00226963 
0.01351853 0.04061505 0.00531447 0.00264851 0.00434562 0.00157260 0.00626273 0.00714760 0.05182966 0.00734393 0.01616861 0.00154469 0.01083350 0.06060250 0.01968376 0.00226032 
0.01330955 0.04064776 0.00538551 0.00266577 0.00433363 0.00161452 0.00624547 0.00719896 0.05120819 0.00753267 0.01622731 0.00156068 0.01094815 0.06021852 0.01940815 0.00225153 
0.01310871 0.04066966 0.00545592 0.00268156 0.00432858 0.00165894 0.00623686 0.00725564 0.05064429 0.00772431 0.01627335 0.00157918 0.01106967 0.05990422 0.01914965 0.00224322 
0.01291727 0.04067993 0.00552553 0.00269589 0.00433064 0.00170571 0.00623734 0.00731751 0.05014017 0.00791858 0.01630596 0.00160015 0.01119747 0.05965750 0.01890846 0.00223538 
0.01273642 0.04067775 0.00559412 0.00270876 0.00433995 0.00175463 0.00624727 0.00738444 0.04969771 0.00811519 0.01632444 0.00162354 0.01133087 0.05947592 0.01868471 0.00222797 
0.01256731 0.04066231 0.00566149 0.00272019 0.00435663 0.00180553 0.00626699 0.00745622 0.04931847 0.00831386 0.01632824 0.00164926 0.01146917 0.05935683 0.01847840 0.00222098 
0.01241103 0.04063280 0.00572745 0.00273019 0.00438074 0.00185818 0.00629681 0.00753263 0.04900373 0.00851428 0.01631695 0.00167725 0.01161157 0.05929732 0.01828949 0.00221440 
0.01226858 0.04058845 0.00579179 0.00273878 0.00441230 0.00191238 0.00633697 0.00761339 0.04875444 0.00871612 0.01629027 0.00170741 0.01175723 0.05929425 0.01811783 0.00220819 
0.01214091 0.04052851 0.00585433 0.00274599 0.00445129 0.00196791 0.00638769 0.00769820 0.04857125 0.00891905 0.01624806 0.00173964 0.01190526 0.05934435 0.01796319 0.00220236 
0.01202887 0.04045226 0.00591486 0.00275183 0.00449765 0.00202452 0.00644914 0.00778673 0.04845453 0.00912272 0.01619032 0.00177385 0.01205474 0.05944414 0.01782527 0.00219689 
0.01193322 0.04035901 0.00597320 0.00275634 0.00455128 0.00208198 0.00652141 0.00787859 0.04840432 0.00932676 0.01611718 0.00180992 0.01220468 0.05959005 0.01770370 0.00219179 
0.01185464 0.04024812 0.00602915 0.00275954 0.00461205 0.00214004 0.00660459 0.00797337 0.04842040 0.00953079 0.01602894 0.00184774 0.01235408 0.05977841 0.01759804 0.00218704 
0.01179371 0.04011900 0.00608254 0.00276148 0.00467977 0.00219846 0.00669869 0.00807063 0.04850227 0.00973440 0.01592604 0.00188717 0.01250189 0.06000546 0.01750778 0.00218267 
0.01175089 0.03997110 0.00613319 0.00276218 0.00475422 0.00225697 0.00680366 0.00816990 0.04864917 0.00993719 0.01580905 0.00192811 0.01264706 0.06026745 0.01743235 0.00217868 
0.01172657 0.03980396 0.00618092 0.00276168 0.00483516 0.00231533 0.00691942 0.00827068 0.04886007 0.01013872 0.01567871 0.00197040 0.01278850 0.06056058 0.01737115 0.00217508 
0.01172102 0.03961714 0.00622557 0.00276001 0.00492228 0.00237328 0.00704583 0.00837243 0.04913370 0.01033853 0.01553587 0.00201392 0.01292514 0.06088109 0.01732351 0.00217189 
0.01173438 0.03941030 0.00626700 0.00275721 0.00501527 0.00243057 0.00718269 0.00847462 0.04946859 0.01053617 0.01538154 0.00205853 0.01305587 0.06122529 0.01728873 0.00216914 
0.01176672 0.03918314 0.00630504 0.00275332 0.00511376 0.00248694 0.00732975 0.00857667 0.04986303 0.01073115 0.01521686 0.00210408 0.01317961 0.06158955 0.01726606 0.00216685 
0.01181797 0.03893548 0.00633958 0.00274838 0.00521736 0.00254214 0.00748673 0.00867799 0.05031513 0.01092297 0.01504310 0.00215043 0.01329529 0.06197036 0.01725475 0.00216505 
0.01188797 0.03866718 0.00637048 0.00274241 0.00532567 0.00259593 0.00765327 0.00877797 0.05082279 0.01111114 0.01486163 0.00219744 0.01340185 0.06236434 0.01725401 0.00216377 
0.01197644 0.03837819 0.00639763 0.00273546 0.00543822 0.00264808 0.00782896 0.00887601 0.05138378 0.01129513 0.01467396 0.00224496 0.01349825 0.06276828 0.01726302 0.00216306 
0.01208299 0.03806857 0.00642094 0.00272757 0.00555457 0.00269835 0.00801337 0.00897148 0.05199570 0.01147440 0.01448169 0.00229285 0.01358349 0.06317915 0.01728098 0.00216294 
0.01220715 0.03773843 0.00644033 0.00271876 0.00567421 0.00274652 0.00820599 0.00906376 0.05265602 0.01164843 0.01428652 0.00234096 0.01365663 0.06359414 0.01730707 0.00216346 
0.01234831 0.03738800 0.00645571 0.00270907 0.00579664 0.00279238 0.00840629 0.00915221 0.05336209 0.01181666 0.01409022 0.00238916 0.01371673 0.06401067 0.01734047 0.00216467 
0.01250580 0.03701760 0.00646704 0.00269853 0.00592134 0.00283572 0.00861367 0.00923621 0.05411116 0.01197854 0.01389466 0.00243729 0.01376293 0.06442638 0.01738038 0.00216660 
0.01267883 0.03662763 0.00647429 0.00268718 0.00604777 0.00287637 0.00882752 0.00931516 0.05490039 0.01213352 0.01370176 0.00248522 0.01379445 0.06483922 0.01742600 0.00216929 
0.01286653 0.03621859 0.00647743 0.00267504 0.00617538 0.00291413 0.00904716 0.00938844 0.05572688 0.01228105 0.01351349 0.00253282 0.01381053 0.06524740 0.01747658 0.00217279 
0.01306794 0.03579109 0.00647647 0.00266215 0.00630362 0.00294886 0.00927190 0.00945548 0.05658767 0.01242058 0.01333185 0.00257995 0.01381052 0.06564942 0.01753136 0.00217715 
0.01328203 0.03534582 0.00647141 0.00264854 0.00643192 0.00298040 0.00950100 0.00951569 0.05747973 0.01255155 0.01315889 0.00262649 0.01379383 0.06604409 0.01758964 0.00218239 
0.01350769 0.03488358 0.00646230 0.00263422 0.00655973 0.00300861 0.00973370 0.00956854 0.05840004 0.01267344 0.01299665 0.00267232 0.01375996 0.06643054 0.01765075 0.00218856 
0.01374374 0.03440526 0.00644919 0.00261923 0.00668649 0.00303338 0.00996921 0.00961352 0.05934553 0.01278571 0.01284718 0.00271731 0.01370850 0.06680820 0.01771405 0.00219570 
0.01398894 0.03391185 0.00643215 0.00260359 0.00681163 0.00305461 0.01020671 0.00965013 0.06031314 0.01288785 0.01271250 0.00276136 0.01363912 0.06717683 0.01777898 0.00220383 
0.01424202 0.03340444 0.00641127 0.00258733 0.00693461 0.00307222 0.01044537 0.00967794 0.06129982 0.01297936 0.01259463 0.00280435 0.01355161 0.06753651 0.01784498 0.00221299 
0.01450164 0.03288420 0.00638667 0.00257047 0.00705488 0.00308613 0.01068434 0.00969653 0.06230251 0.01305978 0.01249552 0.00284618 0.01344584 0.06788764 0.01791160 0.00222320 
0.01476642 0.03235240 0.00635847 0.00255303 0.00717192 0.00309630 0.01092276 0.00970554 0.06331819 0.01312864 0.01241707 0.00288676 0.01332180 0.06823092 0.01797840 0.00223447 
0.01503498 0.03181041 0.00632683 0.00253503 0.00728521 0.00310269 0.01115976 0.00970464 0.06434386 0.01318552 0.01236111 0.00292601 0.01317959 0.06856736 0.01804503 0.00224683 
0.01530589 0.03125967 0.00629190 0.00251651 0.00739424 0.00310529 0.01139446 0.00969358 0.06537657 0.01323003 0.01232940 0.00296383 0.01301939 0.06889826 0.01811120 0.00226027 
0.01557773 0.03070172 0.00625387 0.00249747 0.00749855 0.00310411 0.01162600 0.00967213 0.06641341 0.01326181 0.01232357 0.00300015 0.01284153 0.06922519 0.01817667 0.00227481 
0.01584905 0.03013818 0.00621294 0.00247794 0.00759768 0.00309915 0.01185350 0.00964013 0.06745151 0.01328052 0.01234517 0.00303490 0.01264644 0.06954998 0.01824127 0.00229044 
0.01611842 0.02957073 0.00616933 0.00245795 0.00769118 0.00309047 0.01207611 0.00959747 0.06848804 0.01328589 0.01239562 0.00306803 0.01243465 0.06987471 0.01830491 0.00230714 
0.01638444 0.02900114 0.00612325 0.00243751 0.00777864 0.00307812 0.01229297 0.00954411 0.06952027 0.01327766 0.01247619 0.00309946 0.01220681 0.07020168 0.01836754 0.00232490 
0.01664570 0.02843125 0.00607496 0.00241664 0.00785970 0.00306216 0.01250327 0.00948007 0.07054547 0.01325564 0.01258804 0.00312917 0.01196369 0.07053337 0.01842920 0.00234371 
0.01690082 0.02786296 0.00602471 0.00239538 0.00793399 0.00304268 0.01270618 0.00940542 0.07156102 0.01321967 0.01273213 0.00315709 0.01170616 0.07087245 0.01848999 0.00236351 
0.01714849 0.02729822 0.00597275 0.00237374 0.00800118 0.00301980 0.01290093 0.00932029 0.07256432 0.01316965 0.01290928 0.00318321 0.01143521 0.07122171 0.01855007 0.00238429 
0.01738741 0.02673904 0.00591937 0.00235175 0.00806100 0.00299362 0.01308676 0.00922489 0.07355288 0.01310552 0.01312015 0.00320748 0.01115193 0.07158407 0.01860964 0.00240599 
0.01761634 0.02618750 0.00586484 0.00232943 0.00811317 0.00296428 0.01326295 0.00911949 0.07452422 0.01302728 0.01336520 0.00322990 0.01085749 0.07196253 0.01866900 0.00242857 
0.01783411 0.02564567 0.00580945 0.00230681 0.00815748 0.00293193 0.01342881 0.00900440 0.07547596 0.01293498 0.01364471 0.00325043 0.01055320 0.07236012 0.01872846 0.00245196 
0.01803961 0.02511572 0.00575348 0.00228392 0.00819373 0.00289672 0.01358369 0.00888003 0.07640578 0.01282875 0.01395877 0.00326908 0.01024043 0.07277991 0.01878843 0.00247611 
0.01823178 0.02459978 0.00569724 0.00226079 0.00822176 0.00285883 0.01372700 0.00874682 0.07731140 0.01270873 0.01430727 0.00328583 0.00992065 0.07322493 0.01884932 0.00250095 
0.01840968 0.02410006 0.00564101 0.00223746 0.00824146 0.00281843 0.01385817 0.00860528 0.07819062 0.01257517 0.01468990 0.00330069 0.00959542 0.07369818 0.01891161 0.00252640 
0.01857241 0.02361874 0.00558507 0.00221394 0.00825274 0.00277573 0.01397671 0.00845597 0.07904131 0.01242833 0.01510615 0.00331367 0.00926637 0.07420254 0.01897581 0.00255239 
0.01871918 0.02315804 0.00552973 0.00219028 0.00825556 0.00273091 0.01408214 0.00829952 0.07986139 0.01226856 0.01555533 0.00332478 0.00893518 0.07474079 0.01904247 0.00257884 
0.01884928 0.02272015 0.00547525 0.00216652 0.00824990 0.00268420 0.01417408 0.00813659 0.08064883 0.01209626 0.01603652 0.00333404 0.00860363 0.07531554 0.01911216 0.00260566 
0.01896211 0.02230726 0.00542191 0.00214270 0.00823578 0.00263580 0.01425217 0.00796792 0.08140170 0.01191187 0.01654863 0.00334146 0.00827352 0.07592923 0.01918547 0.00263277 
0.01905716 0.02192154 0.00536997 0.00211884 0.00821326 0.00258593 0.01431612 0.00779425 0.08211809 0.01171592 0.01709035 0.00334708 0.00794671 0.07658404 0.01926301 0.00266007 
0.01913401 0.02156515 0.00531969 0.00209501 0.00818244 0.00253482 0.01436571 0.00761640 0.08279618 0.01150897 0.01766019 0.00335093 0.00762509 0.07728193 0.01934540 0.00268747 
0.01919236 0.02124018 0.00527131 0.00207123 0.00814344 0.00248270 0.01440076 0.00743521 0.08343422 0.01129163 0.01825650 0.00335303 0.00731058 0.07802455 0.01943326 0.00271490 
0.01923201 0.02094870 0.00522505 0.00204756 0.00809643 0.00242980 0.01442118 0.00725156 0.08403052 0.01106458 0.01887742 0.00335342 0.00700513 0.07881324 0.01952720 0.00274225 
0.01925285 0.02069272 0.00518112 0.00202404 0.00804160 0.00237635 0.01442691 0.00706634 0.08458345 0.01082853 0.01952095 0.00335215 0.00671068 0.07964902 0.01962782 0.00276943 
0.01925488 0.02047419 0.00513970 0.00200073 0.00797917 0.00232258 0.01441797 0.00688049 0.08509148 0.01058425 0.02018490 0.00334926 0.00642917 0.08053252 0.01973572 0.00279637 
0.01923823 0.02029498 0.00510099 0.00197767 0.00790941 0.00226872 0.01439444 0.00669495 0.08555313 0.01033255 0.02086697 0.00334479 0.00616254 0.08146401 0.01985146 0.00282297 
0.01920309 0.02015688 0.00506511 0.00195491 0.00783259 0.00221499 0.01435646 0.00651066 0.08596702 0.01007428 0.02156470 0.00333879 0.00591269 0.08244335 0.01997558 0.00284916 
0.01914979 0.02006161 0.00503222 0.00193251 0.00774903 0.00216163 0.01430423 0.00632860 0.08633185 0.00981033 0.02227552 0.00333131 0.00568151 0.08346999 0.02010857 0.00287485 
0.01907873 0.02001077 0.00500240 0.00191053 0.00765907 0.00210884 0.01423801 0.00614972 0.08664643 0.00954161 0.02299674 0.00332239 0.00547084 0.08454294 0.02025089 0.00289998 
0.01899043 0.02000585 0.00497576 0.00188901 0.00756307 0.00205684 0.01415811 0.00597499 0.08690964 0.00926909 0.02372558 0.00331210 0.00528245 0.08566080 0.02040295 0.00292449 
0.01888548 0.02004826 0.00495234 0.00186801 0.00746142 0.00200583 0.01406491 0.00580534 0.08712049 0.00899373 0.02445919 0.00330048 0.00511806 0.08682173 0.02056512 0.00294831 
0.01876458 0.02013923 0.00493219 0.00184759 0.00735453 0.00195601 0.01395884 0.00564172 0.08727808 0.00871654 0.02519463 0.00328758 0.00497931 0.08802343 0.02073768 0.00297138 
0.01862850 0.02027992 0.00491532 0.00182780 0.00724283 0.00190757 0.01384037 0.00548504 0.08738165 0.00843853 0.02592895 0.00327347 0.00486778 0.08926319 0.02092089 0.00299368 
0.01847809 0.02047131 0.00490172 0.00180870 0.00712675 0.00186068 0.01371004 0.00533619 0.08743055 0.00816073 0.02665913 0.00325819 0.00478494 0.09053788 0.02111490 0.00301515 
0.01831429 0.02071424 0.00489135 0.00179034 0.00700678 0.00181552 0.01356841 0.00519601 0.08742428 0.00788417 0.02738217 0.00324180 0.00473214 0.09184394 0.02131984 0.00303577 
0.01813810 0.02100942 0.00488414 0.00177278 0.00688337 0.00177223 0.01341610 0.00506533 0.08736246 0.00760989 0.02809505 0.00322435 0.00471065 0.09317741 0.02153572 0.00305552 
0.01795057 0.02135738 0.00488002 0.00175606 0.00675703 0.00173097 0.01325377 0.00494493 0.08724488 0.00733894 0.02879477 0.00320590 0.00472161 0.09453399 0.02176252 0.00307440 
0.01775282 0.02175849 0.00487888 0.00174024 0.00662825 0.00169185 0.01308210 0.00483555 0.08707148 0.00707235 0.02947839 0.00318649 0.00476603 0.09590897 0.02200010 0.00309239 
0.01754603 0.02221297 0.00488058 0.00172537 0.00649754 0.00165500 0.01290183 0.00473785 0.08684234 0.00681113 0.03014300 0.00316619 0.00484480 0.09729736 0.02224828 0.00310950 
0.01733140 0.02272084 0.00488498 0.00171150 0.00636541 0.00162052 0.01271369 0.00465249 0.08655774 0.00655630 0.03078577 0.00314504 0.00495864 0.09869385 0.02250678 0.00312576 
0.01711019 0.02328197 0.00489190 0.00169866 0.00623238 0.00158850 0.01251847 0.00458002 0.08621813 0.00630883 0.03140397 0.00312310 0.00510816 0.10009288 0.02277526 0.00314118 
0.01688367 0.02389603 0.00490115 0.00168690 0.00609898 0.00155901 0.01231695 0.00452096 0.08582413 0.00606968 0.03199495 0.00310041 0.00529378 0.10148864 0.02305327 0.00315581 
0.01665314 0.02456252 0.00491253 0.00167626 0.00596572 0.00153211 0.01210994 0.00447577 0.08537656 0.00583980 0.03255620 0.00307702 0.00551581 0.10287515 0.02334032 0.00316969 
0.01641991 0.02528076 0.00492581 0.00166678 0.00583314 0.00150784 0.01189827 0.00444482 0.08487641 0.00562006 0.03308532 0.00305299 0.00577434 0.10424629 0.02363584 0.00318286 
0.01618532 0.02604989 0.00494076 0.00165847 0.00570173 0.00148624 0.01168275 0.00442844 0.08432489 0.00541133 0.03358008 0.00302835 0.00606936 0.10559583 0.02393916 0.00319539 
0.01595067 0.02686886 0.00495712 0.00165138 0.00557203 0.00146730 0.01146421 0.00442686 0.08372339 0.00521442 0.03403840 0.00300316 0.00640064 0.10691748 0.02424958 0.00320734 
0.01571730 0.02773644 0.00497463 0.00164552 0.00544452 0.00145104 0.01124348 0.00444027 0.08307350 0.00503010 0.03445837 0.00297745 0.00676782 0.10820494 0.02456632 0.00321879 
0.01548649 0.02865124 0.00499303 0.00164091 0.00531972 0.00143742 0.01102137 0.00446878 0.08237700 0.00485909 0.03483827 0.00295128 0.00717035 0.10945197 0.02488853 0.00322982 
0.01525952 0.02961168 0.00501203 0.00163756 0.00519810 0.00142643 0.01079868 0.00451241 0.08163589 0.00470204 0.03517655 0.00292468 0.00760751 0.11065239 0.02521531 0.00324051 
0.01503765 0.03061602 0.00503137 0.00163549 0.00508013 0.00141801 0.01057621 0.00457113 0.08085233 0.00455957 0.03547188 0.00289770 0.00807843 0.11180018 0.02554573 0.00325096 
0.01482210 0.03166233 0.00505076 0.00163468 0.00496629 0.00141210 0.01035473 0.00464484 0.08002870 0.00443221 0.03572314 0.00287038 0.00858207 0.11288950 0.02587878 0.00326125 
0.01461403 0.03274857 0.00506991 0.00163515 0.00485700 0.00140863 0.01013498 0.00473334 0.07916755 0.00432046 0.03592940 0.00284275 0.00911721 0.11391475 0.02621345 0.00327148 
0.01441456 0.03387250 0.00508856 0.00163688 0.00475270 0.00140750 0.00991769 0.00483641 0.07827159 0.00422472 0.03608997 0.00281486 0.00968249 0.11487060 0.02654867 0.00328176 
0.01422479 0.03503177 0.00510641 0.00163987 0.00465378 0.00140863 0.00970354 0.00495371 0.07734372 0.00414536 0.03620437 0.00278674 0.01027639 0.11575206 0.02688336 0.00329217 
0.01404570 0.03622388 0.00512321 0.00164408 0.00456065 0.00141189 0.00949319 0.00508488 0.07638701 0.00408264 0.03627232 0.00275843 0.01089724 0.11655451 0.02721641 0.00330282 
0.01387826 0.03744621 0.00513869 0.00164949 0.00447365 0.00141717 0.00928726 0.00522947 0.07540464 0.00403679 0.03629381 0.00272998 0.01154324 0.11727375 0.02754671 0.00331381 
0.01372335 0.03869602 0.00515261 0.00165608 0.00439313 0.00142434 0.00908633 0.00538697 0.07439995 0.00400794 0.03626899 0.00270140 0.01221242 0.11790604 0.02787314 0.00332523 
0.01358176 0.03997046 0.00516471 0.00166381 0.00431940 0.00143325 0.00889094 0.00555685 0.07337640 0.00399615 0.03619827 0.00267275 0.01290273 0.11844811 0.02819460 0.00333718 
0.01345423 0.04126662 0.00517479 0.00167264 0.00425275 0.00144375 0.00870159 0.00573847 0.07233756 0.00400144 0.03608226 0.00264406 0.01361196 0.11889723 0.02850998 0.00334973 
0.01334140 0.04258147 0.00518262 0.00168251 0.00419345 0.00145569 0.00851872 0.00593119 0.07128708 0.00402371 0.03592177 0.00261536 0.01433781 0.11925123 0.02881819 0.00336298 
0.01324384 0.04391192 0.00518803 0.00169338 0.00414171 0.00146890 0.00834274 0.00613429 0.07022867 0.00406281 0.03571781 0.00258669 0.01507788 0.11950851 0.02911819 0.00337701 
0.01316202 0.04525486 0.00519082 0.00170520 0.00409776 0.00148323 0.00817401 0.00634703 0.06916613 0.00411854 0.03547159 0.00255809 0.01582966 0.11966806 0.02940895 0.00339187 
0.01309634 0.04660709 0.00519085 0.00171789 0.00406175 0.00149850 0.00801281 0.00656863 0.06810326 0.00419060 0.03518450 0.00252959 0.01659060 0.11972952 0.02968949 0.00340763 
0.01304709 0.04796541 0.00518798 0.00173140 0.00403384 0.00151453 0.00785942 0.00679826 0.06704388 0.00427863 0.03485809 0.00250123 0.01735804 0.11969312 0.02995886 0.00342435 
0.01301448 0.04932662 0.00518210 0.00174565 0.00401412 0.00153115 0.00771404 0.00703509 0.06599183 0.00438220 0.03449408 0.00247306 0.01812930 0.11955976 0.03021619 0.00344207 
0.01299862 0.05068748 0.00517311 0.00176058 0.00400268 0.00154820 0.00757682 0.00727824 0.06495089 0.00450082 0.03409435 0.00244510 0.01890163 0.11933095 0.03046066 0.00346082 
0.01299955 0.05204480 0.00516095 0.00177610 0.00399955 0.00156549 0.00744787 0.00752683 0.06392481 0.00463395 0.03366090 0.00241741 0.01967226 0.11900886 0.03069150 0.00348061 
0.01301719 0.05339540 0.00514558 0.00179213 0.00400476 0.00158285 0.00732724 0.00777995 0.06291726 0.00478097 0.03319586 0.00239001 0.02043841 0.11859628 0.03090802 0.00350147 
0.01305139 0.05473616 0.00512696 0.00180860 0.00401826 0.00160012 0.00721495 0.00803669 0.06193183 0.00494121 0.03270145 0.00236295 0.02119729 0.11809661 0.03110961 0.00352339 
0.01310191 0.05606399 0.00510510 0.00182542 0.00404001 0.00161714 0.00711096 0.00829614 0.06097198 0.00511395 0.03218000 0.00233627 0.02194611 0.11751386 0.03129573 0.00354636 
0.01316841 0.05737590 0.00508002 0.00184250 0.00406991 0.00163374 0.00701518 0.00855737 0.06004104 0.00529842 0.03163392 0.00231002 0.02268212 0.11685260 0.03146592 0.00357034 
0.01325049 0.05866897 0.00505176 0.00185977 0.00410783 0.00164979 0.00692750 0.00881948 0.05914220 0.00549380 0.03106568 0.00228424 0.02340258 0.11611796 0.03161981 0.00359530 
0.01334764 0.05994036 0.00502040 0.00187712 0.00415361 0.00166513 0.00684775 0.00908156 0.05827846 0.00569923 0.03047779 0.00225897 0.02410482 0.11531560 0.03175711 0.00362119 
0.01345930 0.06118735 0.00498603 0.00189449 0.00420705 0.00167963 0.00677574 0.00934272 0.05745263 0.00591382 0.02987279 0.00223425 0.02478622 0.11445162 0.03187763 0.00364794 
0.01358482 0.06240735 0.00494874 0.00191177 0.00426794 0.00169317 0.00671121 0.00960207 0.05666732 0.00613663 0.02925325 0.00221015 0.02544424 0.11353260 0.03198125 0.00367548 
0.01372347 0.06359788 0.00490867 0.00192890 0.00433600 0.00170564 0.00665392 0.00985877 0.05592489 0.00636671 0.02862174 0.00218669 0.02607642 0.11256550 0.03206795 0.00370370 
0.01387449 0.06475659 0.00486597 0.00194579 0.00441094 0.00171694 0.00660354 0.01011199 0.05522748 0.00660307 0.02798080 0.00216393 0.02668040 0.11155762 0.03213781 0.00373252 
0.01403702 0.06588131 0.00482080 0.00196235 0.00449245 0.00172698 0.00655978 0.01036091 0.05457696 0.00684471 0.02733296 0.00214192 0.02725391 0.11051658 0.03219098 0.00376182 
0.01421016 0.06696998 0.00477334 0.00197851 0.00458016 0.00173568 0.00652227 0.01060476 0.05397495 0.00709062 0.02668071 0.00212070 0.02779484 0.10945022 0.03222769 0.00379147 
0.01439297 0.06802074 0.00472378 0.00199421 0.00467370 0.00174298 0.00649065 0.01084281 0.05342277 0.00733977 0.02602649 0.00210032 0.02830116 0.10836659 0.03224829 0.00382135 
0.01458446 0.06903188 0.00467233 0.00200936 0.00477265 0.00174884 0.00646454 0.01107435 0.05292147 0.00759113 0.02537267 0.00208083 0.02877103 0.10727385 0.03225317 0.00385129 
0.01478357 0.07000184 0.00461920 0.00202392 0.00487657 0.00175322 0.00644354 0.01129870 0.05247181 0.00784367 0.02472154 0.00206228 0.02920271 0.10618024 0.03224282 0.00388116 
0.01498926 0.07092927 0.00456463 0.00203781 0.00498502 0.00175611 0.00642726 0.01151525 0.05207424 0.00809637 0.02407531 0.00204471 0.02959466 0.10509402 0.03221779 0.00391078 
0.01520041 0.07181297 0.00450884 0.00205098 0.00509750 0.00175751 0.00641529 0.01172341 0.05172893 0.00834820 0.02343612 0.00202817 0.02994546 0.10402339 0.03217871 0.00394000 
0.01541592 0.07265194 0.00445208 0.00206339 0.00521352 0.00175742 0.00640722 0.01192263 0.05143575 0.00859819 0.02280596 0.00201270 0.03025390 0.10297643 0.03212627 0.00396864 
0.01563465 0.07344533 0.00439459 0.00207500 0.00533255 0.00175588 0.00640264 0.01211242 0.05119425 0.00884533 0.02218676 0.00199835 0.03051892 0.10196108 0.03206122 0.00399652 
0.01585546 0.07419249 0.00433662 0.00208577 0.00545406 0.00175293 0.00640115 0.01229233 0.05100373 0.00908869 0.02158031 0.00198515 0.03073965 0.10098502 0.03198436 0.00402346 
0.01607720 0.07489293 0.00427840 0.00209567 0.00557749 0.00174864 0.00640237 0.01246195 0.05086318 0.00932733 0.02098829 0.00197315 0.03091540 0.10005565 0.03189652 0.00404927 
0.01629874 0.07554634 0.00422019 0.00210467 0.00570228 0.00174307 0.00640592 0.01262093 0.05077133 0.00956037 0.02041227 0.00196238 0.03104568 0.09918003 0.03179860 0.00407378 
0.01651893 0.07615257 0.00416223 0.00211278 0.00582787 0.00173632 0.00641143 0.01276894 0.05072664 0.00978694 0.01985367 0.00195287 0.03113017 0.09836481 0.03169151 0.00409679 
0.01673665 0.07671162 0.00410474 0.00211998 0.00595366 0.00172850 0.00641856 0.01290573 0.05072731 0.01000624 0.01931382 0.00194466 0.03116875 0.09761620 0.03157619 0.00411812 
0.01695082 0.07722368 0.00404797 0.00212627 0.00607909 0.00171971 0.00642699 0.01303108 0.05077133 0.01021749 0.01879390 0.00193777 0.03116150 0.09693990 0.03145360 0.00413759 
0.01716035 0.07768905 0.00399214 0.00213166 0.00620357 0.00171010 0.00643642 0.01314482 0.05085646 0.01041998 0.01829500 0.00193222 0.03110867 0.09634106 0.03132471 0.00415503 
0.01736421 0.07810818 0.00393744 0.00213616 0.00632652 0.00169980 0.00644658 0.01324681 0.05098026 0.01061304 0.01781805 0.00192804 0.03101071 0.09582427 0.03119048 0.00417026 
0.01756139 0.07848167 0.00388409 0.00213981 0.00644736 0.00168897 0.00645722 0.01333697 0.05114011 0.01079604 0.01736392 0.00192525 0.03086826 0.09539347 0.03105188 0.00418313 
0.01775094 0.07881021 0.00383228 0.00214262 0.00656553 0.00167778 0.00646813 0.01341527 0.05133323 0.01096843 0.01693332 0.00192384 0.03068213 0.09505195 0.03090987 0.00419347 
0.01793193 0.07909462 0.00378217 0.00214465 0.00668048 0.00166640 0.00647912 0.01348170 0.05155673 0.01112972 0.01652688 0.00192383 0.03045331 0.09480233 0.03076538 0.00420113 
0.01810350 0.07933581 0.00373393 0.00214593 0.00679166 0.00165501 0.00649006 0.01353632 0.05180757 0.01127946 0.01614513 0.00192522 0.03018296 0.09464651 0.03061932 0.00420598 
0.01826484 0.07953479 0.00368770 0.00214651 0.00689856 0.00164381 0.00650081 0.01357919 0.05208266 0.01141729 0.01578852 0.00192800 0.02987243 0.09458567 0.03047256 0.00420790 
0.01841520 0.07969263 0.00364361 0.00214646 0.00700065 0.00163300 0.00651131 0.01361045 0.05237883 0.01154288 0.01545739 0.00193217 0.02952318 0.09462026 0.03032595 0.00420676 
0.01855388 0.07981049 0.00360178 0.00214584 0.00709748 0.00162276 0.00652150 0.01363024 0.05269289 0.01165599 0.01515204 0.00193771 0.02913687 0.09474998 0.03018026 0.00420247 
0.01868027 0.07988957 0.00356229 0.00214471 0.00718858 0.00161332 0.00653137 0.01363877 0.05302162 0.01175645 0.01487268 0.00194460 0.02871527 0.09497380 0.03003625 0.00419493 
0.01879381 0.07993110 0.00352522 0.00214316 0.00727352 0.00160488 0.00654094 0.01363625 0.05336185 0.01184413 0.01461946 0.00195282 0.02826030 0.09528994 0.02989458 0.00418408 
0.01889400 0.07993636 0.00349063 0.00214126 0.00735191 0.00159764 0.00655028 0.01362295 0.05371043 0.01191898 0.01439250 0.00196234 0.02777400 0.09569589 0.02975589 0.00416986 
0.01898043 0.07990664 0.00345856 0.00213909 0.00742340 0.00159182 0.00655947 0.01359914 0.05406430 0.01198103 0.01419188 0.00197312 0.02725852 0.09618844 0.02962072 0.00415221 
0.01905276 0.07984326 0.00342903 0.00213675 0.00748764 0.00158763 0.00656863 0.01356515 0.05442047 0.01203036 0.01401763 0.00198512 0.02671611 0.09676367 0.02948957 0.00413113 
0.01911070 0.07974750 0.00340204 0.00213432 0.00754437 0.00158525 0.00657792 0.01352132 0.05477610 0.01206710 0.01386979 0.00199829 0.02614913 0.09741701 0.02936284 0.00410659 
0.01915407 0.07962066 0.00337757 0.00213189 0.00759333 0.00158490 0.00658752 0.01346802 0.05512847 0.01209147 0.01374835 0.00201259 0.02556001 0.09814327 0.02924088 0.00407860 
0.01918273 0.07946401 0.00335560 0.00212955 0.00763432 0.00158676 0.00659764 0.01340564 0.05547503 0.01210373 0.01365334 0.00202795 0.02495125 0.09893663 0.02912393 0.00404718 
0.01919664 0.07927879 0.00333608 0.00212742 0.00766719 0.00159102 0.00660851 0.01333459 0.05581344 0.01210421 0.01358475 0.00204433 0.02432540 0.09979074 0.02901220 0.00401238 
0.01919582 0.07906619 0.00331893 0.00212557 0.00769180 0.00159785 0.00662039 0.01325530 0.05614153 0.01209330 0.01354262 0.00206165 0.02368506 0.10069873 0.02890578 0.00397425 
0.01918035 0.07882737 0.00330408 0.00212410 0.00770811 0.00160742 0.00663355 0.01316824 0.05645738 0.01207141 0.01352697 0.00207984 0.02303288 0.10165327 0.02880469 0.00393286 
0.01915041 0.07856344 0.00329144 0.00212311 0.00771608 0.00161988 0.00664830 0.01307388 0.05675930 0.01203906 0.01353789 0.00209885 0.02237151 0.10264664 0.02870889 0.00388830 
0.01910623 0.07827545 0.00328088 0.00212268 0.00771575 0.00163536 0.00666492 0.01297270 0.05704584 0.01199676 0.01357546 0.00211858 0.02170363 0.10367074 0.02861825 0.00384068 
0.01904809 0.07796438 0.00327229 0.00212292 0.00770720 0.00165399 0.00668376 0.01286523 0.05731583 0.01194511 0.01363980 0.00213898 0.02103188 0.10471722 0.02853257 0.00379011 
0.01897637 0.07763116 0.00326554 0.00212390 0.00769054 0.00167589 0.00670512 0.01275196 0.05756835 0.01188472 0.01373108 0.00215995 0.02035893 0.10577746 0.02845158 0.00373672 
0.01889148 0.07727665 0.00326048 0.00212570 0.00766596 0.00170114 0.00672935 0.01263346 0.05780280 0.01181624 0.01384950 0.00218143 0.01968740 0.10684270 0.02837494 0.00368067 
0.01879391 0.07690165 0.00325696 0.00212842 0.00763367 0.00172982 0.00675677 0.01251026 0.05801881 0.01174038 0.01399529 0.00220332 0.01901987 0.10790409 0.02830225 0.00362212 
0.01868417 0.07650686 0.00325481 0.00213211 0.00759395 0.00176199 0.00678771 0.01238293 0.05821633 0.01165786 0.01416873 0.00222556 0.01835889 0.10895273 0.02823304 0.00356124 
0.01856287 0.07609297 0.00325387 0.00213686 0.00754710 0.00179768 0.00682251 0.01225203 0.05839559 0.01156942 0.01437014 0.00224805 0.01770692 0.10997976 0.02816681 0.00349821 
0.01843063 0.07566055 0.00325397 0.00214271 0.00749350 0.00183692 0.00686146 0.01211817 0.05855708 0.01147584 0.01459986 0.00227072 0.01706638 0.11097642 0.02810300 0.00343323 
0.01828811 0.07521014 0.00325493 0.00214974 0.00743354 0.00187969 0.00690488 0.01198192 0.05870158 0.01137791 0.01485829 0.00229350 0.01643960 0.11193413 0.02804100 0.00336650 
0.01813604 0.07474221 0.00325657 0.00215798 0.00736767 0.00192599 0.00695306 0.01184389 0.05883014 0.01127642 0.01514582 0.00231630 0.01582880 0.11284452 0.02798017 0.00329823 
0.01797516 0.07425720 0.00325871 0.00216747 0.00729637 0.00197576 0.00700625 0.01170470 0.05894404 0.01117219 0.01546290 0.00233905 0.01523614 0.11369955 0.02791985 0.00322865 
0.01780625 0.07375546 0.00326118 0.00217827 0.00722016 0.00202893 0.00706471 0.01156495 0.05904483 0.01106603 0.01580997 0.00236168 0.01466364 0.11449152 0.02785935 0.00315798 
0.01763011 0.07323733 0.00326380 0.00219037 0.00713961 0.00208543 0.00712865 0.01142527 0.05913427 0.01095877 0.01618749 0.00238412 0.01411321 0.11521313 0.02779797 0.00308646 
0.01744757 0.07270311 0.00326639 0.00220382 0.00705529 0.00214514 0.00719827 0.01128629 0.05921434 0.01085120 0.01659593 0.00240632 0.01358666 0.11585760 0.02773501 0.00301431 
0.01725947 0.07215307 0.00326880 0.00221860 0.00696782 0.00220794 0.00727373 0.01114864 0.05928719 0.01074414 0.01703573 0.00242820 0.01308565 0.11641864 0.02766976 0.00294179 
0.01706667 0.07158745 0.00327085 0.00223474 0.00687784 0.00227366 0.00735515 0.01101295 0.05935516 0.01063838 0.01750733 0.00244972 0.01261171 0.11689054 0.02760152 0.00286911 
0.01687004 0.07100651 0.00327239 0.00225220 0.00678600 0.00234215 0.00744263 0.01087986 0.05942072 0.01053469 0.01801114 0.00247082 0.01216623 0.11726822 0.02752961 0.00279654 
0.01667046 0.07041048 0.00327328 0.00227099 0.00669299 0.00241320 0.00753622 0.01074999 0.05948646 0.01043384 0.01854752 0.00249147 0.01175047 0.11754727 0.02745338 0.00272431 
0.01646880 0.06979960 0.00327339 0.00229107 0.00659950 0.00248661 0.00763594 0.01062398 0.05955509 0.01033655 0.01911678 0.00251162 0.01136551 0.11772395 0.02737220 0.00265265 
0.01626594 0.06917413 0.00327258 0.00231240 0.00650622 0.00256215 0.00774176 0.01050246 0.05962936 0.01024353 0.01971918 0.00253124 0.01101231 0.11779526 0.02728547 0.00258180 
0.01606275 0.06853436 0.00327074 0.00233495 0.00641385 0.00263956 0.00785363 0.01038605 0.05971208 0.01015546 0.02035491 0.00255031 0.01069167 0.11775895 0.02719267 0.00251200 
0.01586010 0.06788060 0.00326778 0.00235865 0.00632311 0.00271859 0.00797142 0.01027536 0.05980606 0.01007297 0.02102405 0.00256880 0.01040421 0.11761353 0.02709330 0.00244348 
0.01565884 0.06721321 0.00326360 0.00238345 0.00623470 0.00279896 0.00809499 0.01017099 0.05991410 0.00999668 0.02172660 0.00258671 0.01015044 0.11735829 0.02698691 0.00237645 
0.01545983 0.06653261 0.00325814 0.00240929 0.00614930 0.00288037 0.00822414 0.01007354 0.06003897 0.00992714 0.02246245 0.00260402 0.00993066 0.11699331 0.02687314 0.00231113 
0.01526388 0.06583925 0.00325133 0.00243607 0.00606762 0.00296251 0.00835863 0.00998357 0.06018336 0.00986488 0.02323136 0.00262074 0.00974506 0.11651947 0.02675168 0.00224773 
0.01507180 0.06513367 0.00324313 0.00246373 0.00599030 0.00304508 0.00849818 0.00990166 0.06034985 0.00981038 0.02403297 0.00263687 0.00959365 0.11593841 0.02662229 0.00218646 
0.01488440 0.06441647 0.00323351 0.00249216 0.00591801 0.00312773 0.00864246 0.00982834 0.06054092 0.00976406 0.02486676 0.00265242 0.00947629 0.11525256 0.02648482 0.00212750 
0.01470244 0.06368834 0.00322246 0.00252128 0.00585137 0.00321013 0.00879111 0.00976412 0.06075888 0.00972632 0.02573208 0.00266741 0.00939269 0.11446509 0.02633918 0.00207105 
0.01452667 0.06295004 0.00320998 0.00255097 0.00579096 0.00329195 0.00894372 0.00970949 0.06100588 0.00969748 0.02662811 0.00268187 0.00934243 0.11357992 0.02618536 0.00201726 
0.01435782 0.06220242 0.00319610 0.00258113 0.00573737 0.00337283 0.00909985 0.00966493 0.06128386 0.00967782 0.02755384 0.00269581 0.00932492 0.11260165 0.02602345 0.00196631 
0.01419660 0.06144642 0.00318084 0.00261165 0.00569112 0.00345243 0.00925901 0.00963085 0.06159453 0.00966758 0.02850812 0.00270927 0.00933945 0.11153558 0.02585361 0.00191836 
0.01404368 0.06068308 0.00316427 0.00264241 0.00565270 0.00353039 0.00942070 0.00960765 0.06193938 0.00966692 0.02948958 0.00272230 0.00938518 0.11038761 0.02567608 0.00187353 
0.01389972 0.05991354 0.00314643 0.00267328 0.00562256 0.00360637 0.00958435 0.00959569 0.06231963 0.00967597 0.03049669 0.00273492 0.00946111 0.10916425 0.02549119 0.00183197 
0.01376534 0.05913902 0.00312743 0.00270416 0.00560110 0.00368002 0.00974940 0.00959529 0.06273623 0.00969479 0.03152773 0.00274718 0.00956617 0.10787254 0.02529934 0.00179379 
0.01364115 0.05836085 0.00310734 0.00273491 0.00558870 0.00375100 0.00991524 0.00960672 0.06318982 0.00972340 0.03258076 0.00275913 0.00969913 0.10652001 0.02510102 0.00175910 
0.01352773 0.05758045 0.00308628 0.00276540 0.00558565 0.00381898 0.01008124 0.00963019 0.06368078 0.00976176 0.03365367 0.00277081 0.00985867 0.10511462 0.02489680 0.00172799 
0.01342564 0.05679933 0.00306437 0.00279552 0.00559222 0.00388364 0.01024677 0.00966590 0.06420914 0.00980977 0.03474415 0.00278228 0.01004338 0.10366470 0.02468730 0.00170056 
0.01333540 0.05601909 0.00304175 0.00282513 0.00560861 0.00394465 0.01041114 0.00971395 0.06477463 0.00986728 0.03584970 0.00279358 0.01025174 0.10217889 0.02447323 0.00167686 
0.01325751 0.05524143 0.00301855 0.00285411 0.00563498 0.00400173 0.01057370 0.00977441 0.06537667 0.00993409 0.03696765 0.00280476 0.01048216 0.10066608 0.02425535 0.00165696 
0.01319246 0.05446809 0.00299494 0.00288234 0.00567141 0.00405458 0.01073376 0.00984730 0.06601435 0.01000996 0.03809511 0.00281587 0.01073296 0.09913535 0.02403450 0.00164091 
0.01314070 0.05370093 0.00297108 0.00290969 0.00571794 0.00410294 0.01089063 0.00993255 0.06668644 0.01009458 0.03922907 0.00282696 0.01100241 0.09759587 0.02381153 0.00162875 
0.01310267 0.05294185 0.00294714 0.00293606 0.00577456 0.00414656 0.01104362 0.01003005 0.06739139 0.01018761 0.04036630 0.00283808 0.01128872 0.09605688 0.02358737 0.00162049 
0.01307877 0.05219280 0.00292329 0.00296133 0.00584119 0.00418521 0.01119204 0.01013962 0.06812737 0.01028865 0.04150348 0.00284926 0.01159005 0.09452756 0.02336299 0.00161616 
0.01306938 0.05145579 0.00289974 0.00298539 0.00591771 0.00421869 0.01133523 0.01026101 0.06889221 0.01039728 0.04263708 0.00286054 0.01190451 0.09301705 0.02313937 0.00161574 
0.01307487 0.05073288 0.00287666 0.00300814 0.00600391 0.00424680 0.01147250 0.01039390 0.06968349 0.01051301 0.04376351 0.00287197 0.01223020 0.09153429 0.02291752 0.00161924 
0.01309558 0.05002613 0.00285425 0.00302949 0.00609956 0.00426940 0.01160322 0.01053793 0.07049850 0.01063533 0.04487901 0.00288357 0.01256520 0.09008800 0.02269848 0.00162663 
0.01313182 0.04933764 0.00283269 0.00304934 0.00620437 0.00428635 0.01172675 0.01069262 0.07133429 0.01076370 0.04597976 0.00289536 0.01290758 0.08868663 0.02248327 0.00163789 
0.01318388 0.04866950 0.00281220 0.00306762 0.00631798 0.00429754 0.01184249 0.01085747 0.07218765 0.01089752 0.04706186 0.00290738 0.01325540 0.08733827 0.02227293 0.00165296 
0.01325203 0.04802380 0.00279295 0.00308425 0.00643999 0.00430290 0.01194986 0.01103188 0.07305518 0.01103620 0.04812134 0.00291962 0.01360674 0.08605059 0.02206849 0.00167180 
0.01333651 0.04740262 0.00277513 0.00309917 0.00656996 0.00430238 0.01204831 0.01121520 0.07393326 0.01117908 0.04915419 0.00293211 0.01395969 0.08483081 0.02187096 0.00169434 
0.01343753 0.04680800 0.00275895 0.00311233 0.00670739 0.00429596 0.01213733 0.01140671 0.07481814 0.01132551 0.05015639 0.00294483 0.01431240 0.08368563 0.02168130 0.00172053 
0.01355529 0.04624192 0.00274457 0.00312367 0.00685175 0.00428365 0.01221645 0.01160562 0.07570590 0.01147480 0.05112393 0.00295779 0.01466301 0.08262116 0.02150047 0.00175026 
0.01368994 0.04570633 0.00273218 0.00313316 0.00700246 0.00426550 0.01228523 0.01181108 0.07659251 0.01162625 0.05205282 0.00297098 0.01500975 0.08164295 0.02132936 0.00178346 
0.01384162 0.04520310 0.00272193 0.00314078 0.00715892 0.00424157 0.01234329 0.01202218 0.07747384 0.01177916 0.05293911 0.00298437 0.01535088 0.08075585 0.02116884 0.00182003 
0.01401041 0.04473400 0.00271399 0.00314650 0.00732048 0.00421198 0.01239028 0.01223796 0.07834574 0.01193279 0.05377895 0.00299794 0.01568473 0.07996407 0.02101969 0.00185985 
0.01419640 0.04430074 0.00270852 0.00315033 0.00748647 0.00417684 0.01242593 0.01245740 0.07920399 0.01208642 0.05456856 0.00301165 0.01600971 0.07927109 0.02088263 0.00190282 
0.01439962 0.04390488 0.00270563 0.00315226 0.00765619 0.00413634 0.01244999 0.01267944 0.08004438 0.01223933 0.05530431 0.00302546 0.01632428 0.07867967 0.02075834 0.00194881 
0.01462005 0.04354790 0.00270547 0.00315231 0.00782891 0.00409066 0.01246227 0.01290295 0.08086275 0.01239077 0.05598268 0.00303932 0.01662703 0.07819180 0.02064739 0.00199769 
0.01485765 0.04323113 0.00270813 0.00315050 0.00800391 0.00404002 0.01246265 0.01312681 0.08165496 0.01254002 0.05660036 0.00305319 0.01691660 0.07780873 0.02055027 0.00204931 
0.01511235 0.04295576 0.00271372 0.00314688 0.00818042 0.00398467 0.01245107 0.01334981 0.08241701 0.01268636 0.05715420 0.00306699 0.01719174 0.07753096 0.02046740 0.00210354 
0.01538402 0.04272284 0.00272233 0.00314148 0.00835771 0.00392488 0.01242750 0.01357075 0.08314496 0.01282910 0.05764127 0.00308067 0.01745131 0.07735818 0.02039911 0.00216022 
0.01567247 0.04253325 0.00273401 0.00313436 0.00853499 0.00386097 0.01239199 0.01378840 0.08383505 0.01296752 0.05805889 0.00309415 0.01769427 0.07728938 0.02034561 0.00221918 
0.01597750 0.04238769 0.00274883 0.00312559 0.00871150 0.00379324 0.01234465 0.01400151 0.08448367 0.01310098 0.05840461 0.00310735 0.01791969 0.07732275 0.02030703 0.00228026 
0.01629883 0.04228673 0.00276680 0.00311524 0.00888649 0.00372205 0.01228564 0.01420883 0.08508742 0.01322880 0.05867629 0.00312020 0.01812674 0.07745581 0.02028342 0.00234328 
0.01663615 0.04223071 0.00278796 0.00310338 0.00905919 0.00364777 0.01221519 0.01440909 0.08564311 0.01335036 0.05887206 0.00313260 0.01831474 0.07768533 0.02027470 0.00240807 
0.01698908 0.04221980 0.00281229 0.00309013 0.00922888 0.00357077 0.01213357 0.01460105 0.08614779 0.01346507 0.05899035 0.00314448 0.01848309 0.07800744 0.02028071 0.00247443 
0.01735720 0.04225399 0.00283979 0.00307556 0.00939481 0.00349147 0.01204112 0.01478348 0.08659876 0.01357236 0.05902993 0.00315574 0.01863134 0.07841762 0.02030118 0.00254218 
0.01774001 0.04233306 0.00287042 0.00305978 0.00955630 0.00341026 0.01193824 0.01495515 0.08699362 0.01367168 0.05898992 0.00316629 0.01875913 0.07891075 0.02033575 0.00261111 
0.01813698 0.04245661 0.00290412 0.00304292 0.00971264 0.00332759 0.01182538 0.01511487 0.08733024 0.01376254 0.05886977 0.00317605 0.01886625 0.07948118 0.02038397 0.00268102 
0.01854750 0.04262403 0.00294082 0.00302508 0.00986319 0.00324389 0.01170302 0.01526151 0.08760681 0.01384447 0.05866929 0.00318491 0.01895257 0.08012272 0.02044530 0.00275170 
0.01897091 0.04283452 0.00298044 0.00300640 0.01000733 0.00315959 0.01157173 0.01539396 0.08782184 0.01391705 0.05838866 0.00319279 0.01901813 0.08082875 0.02051909 0.00282293 
0.01940650 0.04308708 0.00302288 0.00298699 0.01014445 0.00307515 0.01143210 0.01551116 0.08797417 0.01397991 0.05802843 0.00319961 0.01906304 0.08159225 0.02060464 0.00289451 
0.01985348 0.04338051 0.00306802 0.00296699 0.01027401 0.00299102 0.01128476 0.01561212 0.08806295 0.01403269 0.05758953 0.00320527 0.01908753 0.08240585 0.02070116 0.00296620 
0.02031102 0.04371345 0.00311571 0.00294654 0.01039548 0.00290764 0.01113041 0.01569591 0.08808771 0.01407512 0.05707327 0.00320971 0.01909197 0.08326190 0.02080778 0.00303778 
0.02077822 0.04408432 0.00316582 0.00292577 0.01050839 0.00282546 0.01096976 0.01576168 0.08804828 0.01410695 0.05648132 0.00321283 0.01907679 0.08415255 0.02092358 0.00310902 
0.02125412 0.04449140 0.00321818 0.00290482 0.01061230 0.00274491 0.01080357 0.01580866 0.08794486 0.01412797 0.05581573 0.00321458 0.01904256 0.08506978 0.02104756 0.00317969 
0.02173772 0.04493277 0.00327261 0.00288383 0.01070684 0.00266643 0.01063263 0.01583617 0.08777798 0.01413805 0.05507891 0.00321488 0.01898992 0.08600548 0.02117871 0.00324956 
0.02222796 0.04540636 0.00332893 0.00286293 0.01079165 0.00259044 0.01045774 0.01584361 0.08754849 0.01413707 0.05427363 0.00321369 0.01891960 0.08695152 0.02131594 0.00331840 
0.02272372 0.04590996 0.00338694 0.00284227 0.01086645 0.00251733 0.01027974 0.01583048 0.08725757 0.01412499 0.05340302 0.00321094 0.01883244 0.08789981 0.02145815 0.00338596 
0.02322387 0.04644120 0.00344643 0.00282198 0.01093100 0.00244751 0.01009949 0.01579640 0.08690672 0.01410180 0.05247053 0.00320661 0.01872933 0.08884237 0.02160420 0.00345203 
0.02372719 0.04699759 0.00350719 0.00280219 0.01098511 0.00238134 0.00991785 0.01574108 0.08649774 0.01406757 0.05147994 0.00320066 0.01861123 0.08977136 0.02175294 0.00351635 
0.02423245 0.04757653 0.00356900 0.00278304 0.01102862 0.00231916 0.00973570 0.01566436 0.08603271 0.01402237 0.05043532 0.00319306 0.01847919 0.09067920 0.02190323 0.00357872 
0.02473839 0.04817530 0.00363163 0.00276464 0.01106146 0.00226131 0.00955392 0.01556616 0.08551400 0.01396637 0.04934105 0.00318381 0.01833429 0.09155855 0.02205389 0.00363888 
0.02524371 0.04879110 0.00369484 0.00274713 0.01108358 0.00220809 0.00937339 0.01544656 0.08494420 0.01389974 0.04820175 0.00317290 0.01817767 0.09240246 0.02220380 0.00369663 
0.02574710 0.04942106 0.00375839 0.00273061 0.01109500 0.00215978 0.00919499 0.01530573 0.08432617 0.01382275 0.04702231 0.00316034 0.01801051 0.09320432 0.02235182 0.00375174 
0.02624723 0.05006223 0.00382207 0.00271519 0.01109577 0.00211661 0.00901959 0.01514397 0.08366297 0.01373567 0.04580784 0.00314616 0.01783400 0.09395800 0.02249686 0.00380401 
0.02674276 0.05071163 0.00388562 0.00270098 0.01108600 0.00207881 0.00884804 0.01496170 0.08295784 0.01363883 0.04456363 0.00313038 0.01764939 0.09465782 0.02263786 0.00385321 
0.02723234 0.05136625 0.00394881 0.00268807 0.01106586 0.00204656 0.00868118 0.01475946 0.08221422 0.01353262 0.04329517 0.00311305 0.01745792 0.09529863 0.02277380 0.00389917 
0.02771465 0.05202306 0.00401140 0.00267654 0.01103555 0.00202002 0.00851981 0.01453790 0.08143567 0.01341744 0.04200805 0.00309422 0.01726085 0.09587586 0.02290371 0.00394167 
0.02818836 0.05267903 0.00407318 0.00266649 0.01099531 0.00199931 0.00836473 0.01429780 0.08062588 0.01329377 0.04070804 0.00307396 0.01705943 0.09638550 0.02302669 0.00398056 
0.02865217 0.05333115 0.00413391 0.00265797 0.01094544 0.00198450 0.00821669 0.01404005 0.07978863 0.01316208 0.03940096 0.00305234 0.01685490 0.09682417 0.02314189 0.00401566 
0.02910480 0.05397645 0.00419338 0.00265104 0.01088626 0.00197566 0.00807639 0.01376565 0.07892777 0.01302292 0.03809269 0.00302945 0.01664850 0.09718909 0.02324854 0.00404682 
0.02954501 0.05461201 0.00425137 0.00264577 0.01081815 0.00197279 0.00794452 0.01347572 0.07804722 0.01287685 0.03678916 0.00300538 0.01644144 0.09747817 0.02334593 0.00407389 
0.02997163 0.05523495 0.00430769 0.00264218 0.01074152 0.00197588 0.00782171 0.01317145 0.07715088 0.01272447 0.03549631 0.00298025 0.01623487 0.09768993 0.02343346 0.00409675 
0.03038348 0.05584250 0.00436214 0.00264031 0.01065680 0.00198487 0.00770854 0.01285417 0.07624267 0.01256639 0.03422003 0.00295416 0.01602995 0.09782359 0.02351057 0.00411529 
0.03077951 0.05643197 0.00441454 0.00264019 0.01056446 0.00199968 0.00760554 0.01252526 0.07532648 0.01240328 0.03296616 0.00292725 0.01582776 0.09787897 0.02357682 0.00412942 
0.03115868 0.05700078 0.00446473 0.00264181 0.01046500 0.00202018 0.00751319 0.01218622 0.07440614 0.01223580 0.03174048 0.00289965 0.01562934 0.09785659 0.02363184 0.00413907 
0.03152005 0.05754647 0.00451255 0.00264519 0.01035894 0.00204621 0.00743191 0.01183860 0.07348541 0.01206467 0.03054864 0.00287148 0.01543569 0.09775756 0.02367536 0.00414417 
0.03186276 0.05806671 0.00455785 0.00265032 0.01024682 0.00207759 0.00736206 0.01148404 0.07256796 0.01189059 0.02939616 0.00284291 0.01524772 0.09758361 0.02370720 0.00414469 
0.03218603 0.05855932 0.00460050 0.00265716 0.01012921 0.00211409 0.00730393 0.01112422 0.07165732 0.01171429 0.02828838 0.00281408 0.01506629 0.09733708 0.02372726 0.00414063 
0.03248916 0.05902227 0.00464038 0.00266571 0.01000667 0.00215546 0.00725776 0.01076088 0.07075690 0.01153653 0.02723046 0.00278515 0.01489221 0.09702083 0.02373553 0.00413198 
0.03277157 0.05945369 0.00467740 0.00267591 0.00987980 0.00220143 0.00722372 0.01039583 0.06986995 0.01135806 0.02622736 0.00275626 0.01472617 0.09663827 0.02373209 0.00411877 
0.03303277 0.05985189 0.00471147 0.00268771 0.00974920 0.00225168 0.00720190 0.01003087 0.06899956 0.01117965 0.02528378 0.00272760 0.01456884 0.09619331 0.02371711 0.00410106 
0.03327238 0.06021535 0.00474252 0.00270107 0.00961546 0.00230588 0.00719233 0.00966786 0.06814862 0.01100208 0.02440418 0.00269931 0.01442078 0.09569027 0.02369082 0.00407893 
0.03349011 0.06054275 0.00477048 0.00271590 0.00947918 0.00236369 0.00719498 0.00930865 0.06731982 0.01082612 0.02359273 0.00267156 0.01428248 0.09513389 0.02365355 0.00405247 
0.03368582 0.06083295 0.00479531 0.00273215 0.00934097 0.00242473 0.00720974 0.00895511 0.06651566 0.01065254 0.02285332 0.00264452 0.01415434 0.09452927 0.02360570 0.00402181 
0.03385943 0.06108499 0.00481699 0.00274972 0.00920143 0.00248860 0.00723643 0.00860910 0.06573841 0.01048213 0.02218950 0.00261834 0.01403670 0.09388180 0.02354771 0.00398710 
0.03401103 0.06129814 0.00483551 0.00276852 0.00906113 0.00255489 0.00727481 0.00827247 0.06499011 0.01031565 0.02160453 0.00259317 0.01392982 0.09319713 0.02348012 0.00394851 
0.03414080 0.06147182 0.00485086 0.00278846 0.00892067 0.00262319 0.00732456 0.00794702 0.06427259 0.01015388 0.02110131 0.00256917 0.01383386 0.09248111 0.02340349 0.00390623 
0.03424901 0.06160568 0.00486305 0.00280944 0.00878060 0.00269305 0.00738532 0.00763455 0.06358744 0.00999756 0.02068238 0.00254649 0.01374894 0.09173972 0.02331846 0.00386049 
0.03433609 0.06169956 0.00487211 0.00283134 0.00864148 0.00276404 0.00745663 0.00733680 0.06293600 0.00984745 0.02034996 0.00252527 0.01367508 0.09097903 0.02322569 0.00381153 
0.03440255 0.06175347 0.00487809 0.00285406 0.00850383 0.00283570 0.00753800 0.00705544 0.06231941 0.00970429 0.02010586 0.00250565 0.01361224 0.09020514 0.02312589 0.00375961 
0.03444901 0.06176762 0.00488103 0.00287746 0.00836816 0.00290759 0.00762887 0.00679210 0.06173855 0.00956878 0.01995157 0.00248773 0.01356031 0.08942414 0.02301977 0.00370502 
0.03447619 0.06174242 0.00488098 0.00290144 0.00823495 0.00297926 0.00772862 0.00654833 0.06119409 0.00944164 0.01988817 0.00247166 0.01351912 0.08864203 0.02290810 0.00364808 
0.03448493 0.06167843 0.00487803 0.00292587 0.00810467 0.00305025 0.00783657 0.00632559 0.06068649 0.00932354 0.01991639 0.00245752 0.01348844 0.08786466 0.02279164 0.00358910 
0.03447615 0.06157637 0.00487225 0.00295061 0.00797774 0.00312012 0.00795202 0.00612525 0.06021600 0.00921515 0.02003659 0.00244542 0.01346799 0.08709772 0.02267114 0.00352843 
0.03445085 0.06143716 0.00486372 0.00297555 0.00785456 0.00318843 0.00807419 0.00594861 0.05978264 0.00911712 0.02024876 0.00243543 0.01345745 0.08634667 0.02254739 0.00346644 
0.03441011 0.06126183 0.00485255 0.00300055 0.00773551 0.00325476 0.00820228 0.00579684 0.05938627 0.00903005 0.02055253 0.00242765 0.01345643 0.08561667 0.02242113 0.00340350 
0.03435510 0.06105156 0.00483883 0.00302549 0.00762092 0.00331870 0.00833544 0.00567101 0.05902656 0.00895454 0.02094718 0.00242211 0.01346452 0.08491257 0.02229310 0.00334001 
0.03428703 0.06080769 0.00482266 0.00305023 0.00751109 0.00337983 0.00847282 0.00557207 0.05870303 0.00889116 0.02143165 0.00241887 0.01348129 0.08423885 0.02216402 0.00327636 
0.03420719 0.06053164 0.00480416 0.00307465 0.00740629 0.00343780 0.00861351 0.00550085 0.05841504 0.00884043 0.02200454 0.00241797 0.01350625 0.08359960 0.02203458 0.00321298 
