0.00224508 0.00177910 0.00223106 0.00212368 0.00404938 0.00140943 0.00642746 0.00197233 0.00211633 0.00102474 0.00564598 0.00111923 0.00299969 0.00040865 0.00175704 0.00107901 
0.00244979 0.00182881 0.00219434 0.00209985 0.00431911 0.00145426 0.00652571 0.00198699 0.00222007 0.00102434 0.00584630 0.00111796 0.00300326 0.00039817 0.00172916 0.00108040 
0.00266596 0.00188375 0.00215572 0.00207418 0.00459746 0.00149827 0.00662222 0.00200116 0.00233009 0.00102578 0.00605436 0.00111638 0.00300531 0.00038723 0.00170132 0.00108081 
0.00289319 0.00194406 0.00211530 0.00204675 0.00488397 0.00154123 0.00671676 0.00201489 0.00244611 0.00102914 0.00626944 0.00111455 0.00300589 0.00037589 0.00167363 0.00108020 
0.00313100 0.00200983 0.00207322 0.00201766 0.00517812 0.00158291 0.00680912 0.00202823 0.00256781 0.00103446 0.00649078 0.00111255 0.00300507 0.00036420 0.00164621 0.00107854 
0.00337885 0.00208118 0.00202961 0.00198703 0.00547939 0.00162310 0.00689908 0.00204123 0.00269480 0.00104180 0.00671760 0.00111045 0.00300290 0.00035223 0.00161919 0.00107582 
0.00363613 0.00215815 0.00198461 0.00195499 0.00578721 0.00166159 0.00698643 0.00205394 0.00282666 0.00105119 0.00694906 0.00110831 0.00299945 0.00034005 0.00159268 0.00107203 
0.00390218 0.00224080 0.00193839 0.00192169 0.00610097 0.00169821 0.00707096 0.00206641 0.00296289 0.00106266 0.00718427 0.00110622 0.00299480 0.00032771 0.00156681 0.00106716 
0.00417625 0.00232916 0.00189110 0.00188728 0.00642006 0.00173279 0.00715246 0.00207868 0.00310297 0.00107625 0.00742234 0.00110422 0.00298901 0.00031530 0.00154172 0.00106122 
0.00445758 0.00242324 0.00184291 0.00185193 0.00674381 0.00176518 0.00723075 0.00209079 0.00324632 0.00109196 0.00766234 0.00110239 0.00298217 0.00030289 0.00151753 0.00105421 
0.00474530 0.00252300 0.00179400 0.00181582 0.00707157 0.00179526 0.00730564 0.00210280 0.00339231 0.00110980 0.00790329 0.00110078 0.00297434 0.00029057 0.00149435 0.00104615 
0.00503853 0.00262840 0.00174455 0.00177912 0.00740263 0.00182289 0.00737695 0.00211472 0.00354030 0.00112975 0.00814422 0.00109947 0.00296561 0.00027841 0.00147232 0.00103708 
0.00533632 0.00273937 0.00169474 0.00174203 0.00773630 0.00184800 0.00744453 0.00212661 0.00368957 0.00115182 0.00838414 0.00109849 0.00295607 0.00026651 0.00145154 0.00102701 
0.00563767 0.00285581 0.00164476 0.00170473 0.00807185 0.00187049 0.00750823 0.00213849 0.00383941 0.00117596 0.00862204 0.00109790 0.00294578 0.00025495 0.00143214 0.00101598 
0.00594156 0.00297760 0.00159480 0.00166743 0.00840856 0.00189032 0.00756791 0.00215038 0.00398904 0.00120215 0.00885692 0.00109774 0.00293483 0.00024383 0.00141421 0.00100405 
0.00624691 0.00310458 0.00154507 0.00163030 0.00874569 0.00190743 0.00762345 0.00216232 0.00413770 0.00123034 0.00908776 0.00109807 0.00292331 0.00023323 0.00139786 0.00099127 
0.00655262 0.00323656 0.00149574 0.00159353 0.00908251 0.00192179 0.00767476 0.00217432 0.00428458 0.00126047 0.00931356 0.00109892 0.00291130 0.00022324 0.00138318 0.00097768 
0.00685756 0.00337335 0.00144702 0.00155733 0.00941827 0.00193341 0.00772175 0.00218641 0.00442888 0.00129249 0.00953333 0.00110032 0.00289887 0.00021396 0.00137024 0.00096335 
0.00716059 0.00351470 0.00139911 0.00152186 0.00975224 0.00194227 0.00776437 0.00219859 0.00456977 0.00132631 0.00974611 0.00110231 0.00288610 0.00020547 0.00135912 0.00094835 
0.00746054 0.00366036 0.00135219 0.00148731 0.01008368 0.00194841 0.00780257 0.00221087 0.00470645 0.00136186 0.00995093 0.00110491 0.00287308 0.00019786 0.00134989 0.00093275 
0.00775625 0.00381004 0.00130646 0.00145383 0.01041190 0.00195187 0.00783634 0.00222327 0.00483810 0.00139904 0.01014689 0.00110815 0.00285988 0.00019121 0.00134259 0.00091662 
0.00804654 0.00396342 0.00126211 0.00142160 0.01073616 0.00195268 0.00786570 0.00223577 0.00496393 0.00143776 0.01033309 0.00111204 0.00284657 0.00018562 0.00133726 0.00090004 
0.00833024 0.00412018 0.00121931 0.00139076 0.01105580 0.00195093 0.00789068 0.00224839 0.00508317 0.00147791 0.01050871 0.00111660 0.00283322 0.00018115 0.00133392 0.00088309 
0.00860620 0.00427996 0.00117824 0.00136144 0.01137012 0.00194669 0.00791135 0.00226113 0.00519506 0.00151938 0.01067294 0.00112184 0.00281992 0.00017788 0.00133258 0.00086586 
0.00887329 0.00444237 0.00113909 0.00133378 0.01167850 0.00194005 0.00792780 0.00227396 0.00529891 0.00156205 0.01082504 0.00112776 0.00280671 0.00017589 0.00133325 0.00084842 
0.00913039 0.00460703 0.00110200 0.00130789 0.01198029 0.00193112 0.00794016 0.00228689 0.00539403 0.00160580 0.01096435 0.00113438 0.00279368 0.00017523 0.00133589 0.00083088 
0.00937644 0.00477352 0.00106714 0.00128386 0.01227490 0.00192000 0.00794859 0.00229991 0.00547981 0.00165050 0.01109023 0.00114168 0.00278087 0.00017596 0.00134049 0.00081330 
0.00961038 0.00494140 0.00103466 0.00126180 0.01256177 0.00190684 0.00795327 0.00231300 0.00555568 0.00169601 0.01120215 0.00114968 0.00276835 0.00017814 0.00134698 0.00079577 
0.00983125 0.00511024 0.00100471 0.00124176 0.01284036 0.00189176 0.00795443 0.00232614 0.00562114 0.00174220 0.01129963 0.00115836 0.00275617 0.00018181 0.00135531 0.00077839 
0.01003810 0.00527958 0.00097740 0.00122381 0.01311016 0.00187490 0.00795232 0.00233934 0.00567576 0.00178893 0.01138229 0.00116771 0.00274440 0.00018701 0.00136540 0.00076124 
0.01023005 0.00544897 0.00095286 0.00120800 0.01337070 0.00185641 0.00794724 0.00235256 0.00571918 0.00183608 0.01144980 0.00117773 0.00273307 0.00019377 0.00137715 0.00074439 
0.01040632 0.00561792 0.00093121 0.00119434 0.01362157 0.00183646 0.00793950 0.00236580 0.00575114 0.00188349 0.01150197 0.00118839 0.00272223 0.00020211 0.00139046 0.00072792 
0.01056616 0.00578598 0.00091254 0.00118286 0.01386236 0.00181521 0.00792947 0.00237904 0.00577144 0.00193104 0.01153864 0.00119970 0.00271193 0.00021204 0.00140520 0.00071192 
0.01070893 0.00595266 0.00089695 0.00117356 0.01409273 0.00179282 0.00791755 0.00239226 0.00578000 0.00197858 0.01155980 0.00121162 0.00270222 0.00022356 0.00142123 0.00069646 
0.01083406 0.00611751 0.00088449 0.00116643 0.01431236 0.00176946 0.00790415 0.00240545 0.00577683 0.00202599 0.01156550 0.00122414 0.00269312 0.00023667 0.00143840 0.00068160 
0.01094109 0.00628004 0.00087525 0.00116143 0.01452099 0.00174531 0.00788974 0.00241861 0.00576202 0.00207314 0.01155590 0.00123724 0.00268467 0.00025136 0.00145656 0.00066740 
0.01102963 0.00643981 0.00086927 0.00115852 0.01471839 0.00172054 0.00787482 0.00243170 0.00573581 0.00211991 0.01153128 0.00125091 0.00267692 0.00026759 0.00147551 0.00065394 
0.01109941 0.00659637 0.00086659 0.00115766 0.01490438 0.00169533 0.00785991 0.00244474 0.00569853 0.00216617 0.01149198 0.00126511 0.00266988 0.00028534 0.00149507 0.00064125 
0.01115027 0.00674929 0.00086723 0.00115879 0.01507882 0.00166987 0.00784556 0.00245771 0.00565060 0.00221182 0.01143848 0.00127983 0.00266358 0.00030456 0.00151505 0.00062940 
0.01118214 0.00689814 0.00087121 0.00116181 0.01524162 0.00164431 0.00783236 0.00247060 0.00559260 0.00225676 0.01137134 0.00129504 0.00265806 0.00032519 0.00153524 0.00061842 
0.01119508 0.00704253 0.00087853 0.00116666 0.01539271 0.00161885 0.00782092 0.00248342 0.00552518 0.00230088 0.01129123 0.00131071 0.00265333 0.00034719 0.00155542 0.00060836 
0.01118924 0.00718208 0.00088917 0.00117323 0.01553207 0.00159365 0.00781187 0.00249618 0.00544915 0.00234411 0.01119893 0.00132684 0.00264942 0.00037046 0.00157537 0.00059923 
0.01116491 0.00731645 0.00090311 0.00118142 0.01565975 0.00156888 0.00780587 0.00250886 0.00536541 0.00238636 0.01109529 0.00134338 0.00264635 0.00039494 0.00159486 0.00059107 
0.01112249 0.00744529 0.00092030 0.00119112 0.01577579 0.00154470 0.00780359 0.00252149 0.00527499 0.00242758 0.01098128 0.00136033 0.00264413 0.00042054 0.00161367 0.00058389 
0.01106248 0.00756833 0.00094070 0.00120222 0.01588030 0.00152129 0.00780573 0.00253407 0.00517901 0.00246769 0.01085796 0.00137765 0.00264278 0.00044715 0.00163156 0.00057771 
0.01098551 0.00768528 0.00096424 0.00121459 0.01597342 0.00149879 0.00781298 0.00254663 0.00507872 0.00250667 0.01072645 0.00139531 0.00264232 0.00047469 0.00164829 0.00057252 
0.01089234 0.00779592 0.00099083 0.00122810 0.01605533 0.00147735 0.00782607 0.00255918 0.00497549 0.00254447 0.01058799 0.00141331 0.00264275 0.00050303 0.00166365 0.00056833 
0.01078381 0.00790004 0.00102040 0.00124263 0.01612622 0.00145712 0.00784572 0.00257175 0.00487076 0.00258108 0.01044387 0.00143161 0.00264409 0.00053208 0.00167739 0.00056513 
0.01066089 0.00799749 0.00105284 0.00125803 0.01618633 0.00143824 0.00787264 0.00258437 0.00476610 0.00261648 0.01029548 0.00145019 0.00264636 0.00056170 0.00168929 0.00056290 
0.01052466 0.00808814 0.00108804 0.00127419 0.01623592 0.00142083 0.00790756 0.00259707 0.00466316 0.00265068 0.01014425 0.00146903 0.00264955 0.00059178 0.00169914 0.00056162 
0.01037630 0.00817190 0.00112588 0.00129096 0.01627529 0.00140502 0.00795119 0.00260988 0.00456366 0.00268370 0.00999168 0.00148811 0.00265367 0.00062219 0.00170673 0.00056127 
0.01021709 0.00824873 0.00116622 0.00130821 0.01630473 0.00139091 0.00800423 0.00262286 0.00446942 0.00271555 0.00983931 0.00150741 0.00265874 0.00065282 0.00171186 0.00056181 
0.01004839 0.00831861 0.00120892 0.00132581 0.01632460 0.00137862 0.00806738 0.00263604 0.00438232 0.00274629 0.00968875 0.00152690 0.00266476 0.00068353 0.00171435 0.00056320 
0.00987167 0.00838158 0.00125383 0.00134362 0.01633522 0.00136823 0.00814129 0.00264947 0.00430430 0.00277595 0.00954163 0.00154656 0.00267173 0.00071421 0.00171402 0.00056540 
0.00968846 0.00843771 0.00130080 0.00136153 0.01633698 0.00135984 0.00822662 0.00266320 0.00423736 0.00280461 0.00939960 0.00156638 0.00267965 0.00074472 0.00171073 0.00056836 
0.00950039 0.00848711 0.00134965 0.00137941 0.01633024 0.00135352 0.00832398 0.00267729 0.00418352 0.00283233 0.00926434 0.00158634 0.00268852 0.00077497 0.00170433 0.00057202 
0.00930913 0.00852993 0.00140020 0.00139715 0.01631539 0.00134934 0.00843394 0.00269180 0.00414487 0.00285920 0.00913753 0.00160641 0.00269835 0.00080484 0.00169470 0.00057634 
0.00911641 0.00856637 0.00145229 0.00141463 0.01629283 0.00134735 0.00855705 0.00270679 0.00412346 0.00288531 0.00902086 0.00162657 0.00270914 0.00083422 0.00168176 0.00058125 
0.00892403 0.00859665 0.00150573 0.00143175 0.01626295 0.00134761 0.00869381 0.00272231 0.00412140 0.00291076 0.00891600 0.00164681 0.00272088 0.00086303 0.00166544 0.00058669 
0.00873382 0.00862102 0.00156032 0.00144840 0.01622616 0.00135014 0.00884467 0.00273844 0.00414077 0.00293565 0.00882461 0.00166710 0.00273356 0.00089119 0.00164567 0.00059259 
0.00854762 0.00863979 0.00161587 0.00146451 0.01618284 0.00135498 0.00901001 0.00275524 0.00418363 0.00296011 0.00874830 0.00168743 0.00274719 0.00091862 0.00162245 0.00059889 
0.00836731 0.00865328 0.00167218 0.00147998 0.01613340 0.00136214 0.00919019 0.00277277 0.00425202 0.00298426 0.00868866 0.00170778 0.00276175 0.00094527 0.00159578 0.00060551 
0.00819479 0.00866184 0.00172905 0.00149474 0.01607823 0.00137164 0.00938547 0.00279111 0.00434793 0.00300821 0.00864723 0.00172812 0.00277724 0.00097111 0.00156570 0.00061238 
0.00803193 0.00866587 0.00178629 0.00150873 0.01601770 0.00138346 0.00959608 0.00281032 0.00447330 0.00303212 0.00862548 0.00174844 0.00279364 0.00099611 0.00153226 0.00061944 
0.00788062 0.00866576 0.00184369 0.00152187 0.01595219 0.00139759 0.00982216 0.00283047 0.00462998 0.00305610 0.00862481 0.00176872 0.00281095 0.00102028 0.00149557 0.00062661 
0.00774270 0.00866194 0.00190105 0.00153413 0.01588206 0.00141401 0.01006378 0.00285164 0.00481977 0.00308029 0.00864655 0.00178894 0.00282915 0.00104363 0.00145576 0.00063382 
0.00761999 0.00865486 0.00195817 0.00154545 0.01580764 0.00143269 0.01032094 0.00287388 0.00504435 0.00310484 0.00869194 0.00180907 0.00284823 0.00106622 0.00141298 0.00064100 
0.00751428 0.00864498 0.00201485 0.00155582 0.01572928 0.00145359 0.01059355 0.00289726 0.00530529 0.00312988 0.00876212 0.00182909 0.00286817 0.00108810 0.00136743 0.00064809 
0.00742727 0.00863276 0.00207089 0.00156519 0.01564727 0.00147665 0.01088147 0.00292185 0.00560407 0.00315554 0.00885814 0.00184899 0.00288894 0.00110938 0.00131934 0.00065501 
0.00736063 0.00861870 0.00212611 0.00157355 0.01556193 0.00150181 0.01118444 0.00294771 0.00594200 0.00318195 0.00898090 0.00186875 0.00291054 0.00113019 0.00126896 0.00066171 
0.00731594 0.00860327 0.00218032 0.00158090 0.01547352 0.00152902 0.01150213 0.00297489 0.00632028 0.00320926 0.00913124 0.00188833 0.00293293 0.00115067 0.00121659 0.00066811 
0.00729470 0.00858696 0.00223333 0.00158723 0.01538230 0.00155818 0.01183416 0.00300346 0.00673993 0.00323757 0.00930981 0.00190772 0.00295609 0.00117102 0.00116256 0.00067417 
0.00729830 0.00857024 0.00228496 0.00159255 0.01528851 0.00158921 0.01218000 0.00303347 0.00720182 0.00326701 0.00951718 0.00192690 0.00298001 0.00119146 0.00110721 0.00067983 
0.00732805 0.00855359 0.00233506 0.00159686 0.01519237 0.00162203 0.01253910 0.00306496 0.00770665 0.00329768 0.00975375 0.00194585 0.00300464 0.00121222 0.00105095 0.00068504 
0.00738512 0.00853746 0.00238345 0.00160019 0.01509408 0.00165653 0.01291079 0.00309798 0.00825494 0.00332970 0.01001979 0.00196453 0.00302996 0.00123362 0.00099419 0.00068974 
0.00747059 0.00852232 0.00242998 0.00160256 0.01499381 0.00169261 0.01329432 0.00313257 0.00884700 0.00336315 0.01031542 0.00198293 0.00305594 0.00125596 0.00093738 0.00069391 
0.00758539 0.00850857 0.00247451 0.00160401 0.01489171 0.00173015 0.01368886 0.00316877 0.00948297 0.00339812 0.01064063 0.00200102 0.00308256 0.00127961 0.00088100 0.00069749 
0.00773030 0.00849664 0.00251689 0.00160456 0.01478794 0.00176903 0.01409352 0.00320661 0.01016278 0.00343468 0.01099523 0.00201879 0.00310977 0.00130496 0.00082556 0.00070046 
0.00790600 0.00848691 0.00255701 0.00160426 0.01468261 0.00180912 0.01450731 0.00324611 0.01088615 0.00347289 0.01137889 0.00203620 0.00313754 0.00133246 0.00077159 0.00070279 
0.00811299 0.00847972 0.00259474 0.00160315 0.01457583 0.00185030 0.01492918 0.00328730 0.01165260 0.00351281 0.01179113 0.00205323 0.00316585 0.00136257 0.00071964 0.00070445 
0.00835161 0.00847540 0.00262998 0.00160128 0.01446768 0.00189243 0.01535801 0.00333018 0.01246142 0.00355446 0.01223132 0.00206986 0.00319466 0.00139582 0.00067028 0.00070543 
0.00862207 0.00847424 0.00266264 0.00159869 0.01435823 0.00193538 0.01579262 0.00337478 0.01331172 0.00359787 0.01269868 0.00208606 0.00322393 0.00143274 0.00062411 0.00070572 
0.00892440 0.00847650 0.00269263 0.00159544 0.01424756 0.00197899 0.01623175 0.00342108 0.01420237 0.00364306 0.01319226 0.00210182 0.00325363 0.00147394 0.00058174 0.00070531 
0.00925848 0.00848238 0.00271988 0.00159159 0.01413571 0.00202311 0.01667410 0.00346909 0.01513204 0.00369001 0.01371099 0.00211711 0.00328374 0.00152003 0.00054378 0.00070420 
0.00962401 0.00849207 0.00274434 0.00158717 0.01402272 0.00206761 0.01711834 0.00351880 0.01609919 0.00373871 0.01425365 0.00213190 0.00331421 0.00157168 0.00051089 0.00070238 
0.01002054 0.00850569 0.00276595 0.00158226 0.01390862 0.00211233 0.01756306 0.00357020 0.01710207 0.00378913 0.01481888 0.00214617 0.00334503 0.00162960 0.00048368 0.00069987 
0.01044743 0.00852334 0.00278469 0.00157691 0.01379344 0.00215711 0.01800685 0.00362325 0.01813874 0.00384122 0.01540519 0.00215991 0.00337615 0.00169451 0.00046282 0.00069669 
0.01090391 0.00854506 0.00280053 0.00157117 0.01367721 0.00220180 0.01844824 0.00367794 0.01920706 0.00389492 0.01601097 0.00217308 0.00340757 0.00176718 0.00044894 0.00069284 
0.01138901 0.00857086 0.00281347 0.00156509 0.01355993 0.00224623 0.01888577 0.00373423 0.02030471 0.00395015 0.01663450 0.00218567 0.00343925 0.00184841 0.00044269 0.00068835 
0.01190164 0.00860070 0.00282351 0.00155872 0.01344164 0.00229027 0.01931794 0.00379208 0.02142919 0.00400683 0.01727393 0.00219766 0.00347118 0.00193903 0.00044472 0.00068325 
0.01244053 0.00863448 0.00283067 0.00155212 0.01332234 0.00233374 0.01974324 0.00385144 0.02257782 0.00406486 0.01792733 0.00220903 0.00350333 0.00203990 0.00045564 0.00067758 
0.01300425 0.00867208 0.00283499 0.00154533 0.01320207 0.00237650 0.02016020 0.00391226 0.02374779 0.00412412 0.01859266 0.00221976 0.00353571 0.00215189 0.00047607 0.00067135 
0.01359125 0.00871333 0.00283650 0.00153840 0.01308086 0.00241839 0.02056732 0.00397449 0.02493612 0.00418450 0.01926783 0.00222984 0.00356830 0.00227591 0.00050663 0.00066461 
0.01419983 0.00875802 0.00283526 0.00153138 0.01295874 0.00245926 0.02096313 0.00403805 0.02613971 0.00424584 0.01995066 0.00223923 0.00360110 0.00241288 0.00054787 0.00065741 
0.01482814 0.00880589 0.00283133 0.00152429 0.01283575 0.00249896 0.02134620 0.00410289 0.02735534 0.00430801 0.02063891 0.00224794 0.00363410 0.00256373 0.00060038 0.00064978 
0.01547423 0.00885665 0.00282481 0.00151719 0.01271194 0.00253735 0.02171510 0.00416891 0.02857968 0.00437085 0.02133030 0.00225595 0.00366733 0.00272941 0.00066466 0.00064177 
0.01613602 0.00890998 0.00281578 0.00151010 0.01258739 0.00257428 0.02206848 0.00423606 0.02980931 0.00443420 0.02202252 0.00226323 0.00370078 0.00291089 0.00074123 0.00063343 
0.01681134 0.00896552 0.00280433 0.00150305 0.01246217 0.00260961 0.02240501 0.00430423 0.03104075 0.00449788 0.02271323 0.00226979 0.00373449 0.00310912 0.00083055 0.00062481 
0.01749790 0.00902290 0.00279060 0.00149607 0.01233637 0.00264322 0.02272343 0.00437335 0.03227044 0.00456171 0.02340008 0.00227560 0.00376847 0.00332506 0.00093304 0.00061596 
0.01819335 0.00908168 0.00277468 0.00148919 0.01221008 0.00267497 0.02302255 0.00444331 0.03349481 0.00462551 0.02408074 0.00228066 0.00380276 0.00355967 0.00104909 0.00060693 
0.01889523 0.00914146 0.00275673 0.00148242 0.01208343 0.00270475 0.02330122 0.00451402 0.03471023 0.00468909 0.02475286 0.00228495 0.00383739 0.00381389 0.00117905 0.00059778 
0.01960104 0.00920176 0.00273687 0.00147578 0.01195654 0.00273243 0.02355841 0.00458537 0.03591309 0.00475225 0.02541415 0.00228848 0.00387240 0.00408867 0.00132320 0.00058855 
0.02030824 0.00926213 0.00271526 0.00146929 0.01182956 0.00275792 0.02379315 0.00465726 0.03709979 0.00481481 0.02606234 0.00229123 0.00390786 0.00438491 0.00148181 0.00057929 
0.02101422 0.00932209 0.00269205 0.00146296 0.01170266 0.00278110 0.02400455 0.00472958 0.03826673 0.00487656 0.02669524 0.00229319 0.00394380 0.00470351 0.00165505 0.00057007 
0.02171636 0.00938116 0.00266740 0.00145680 0.01157599 0.00280189 0.02419183 0.00480222 0.03941040 0.00493732 0.02731068 0.00229437 0.00398030 0.00504532 0.00184308 0.00056092 
0.02241203 0.00943886 0.00264147 0.00145082 0.01144976 0.00282020 0.02435430 0.00487505 0.04052731 0.00499687 0.02790662 0.00229476 0.00401742 0.00541117 0.00204596 0.00055190 
0.02309858 0.00949470 0.00261445 0.00144501 0.01132416 0.00283596 0.02449138 0.00494796 0.04161409 0.00505505 0.02848105 0.00229435 0.00405523 0.00580185 0.00226373 0.00054306 
0.02377338 0.00954821 0.00258651 0.00143940 0.01119939 0.00284909 0.02460259 0.00502083 0.04266741 0.00511164 0.02903209 0.00229315 0.00409382 0.00621809 0.00249636 0.00053444 
0.02443383 0.00959893 0.00255782 0.00143396 0.01107569 0.00285954 0.02468757 0.00509352 0.04368412 0.00516648 0.02955798 0.00229116 0.00413326 0.00666058 0.00274373 0.00052608 
0.02507737 0.00964643 0.00252856 0.00142872 0.01095328 0.00286725 0.02474605 0.00516592 0.04466113 0.00521939 0.03005704 0.00228837 0.00417364 0.00712994 0.00300569 0.00051803 
0.02570146 0.00969027 0.00249892 0.00142366 0.01083241 0.00287220 0.02477788 0.00523789 0.04559554 0.00527018 0.03052774 0.00228479 0.00421506 0.00762675 0.00328202 0.00051033 
0.02630366 0.00973006 0.00246909 0.00141879 0.01071331 0.00287435 0.02478304 0.00530930 0.04648458 0.00531870 0.03096868 0.00228042 0.00425760 0.00815150 0.00357243 0.00050300 
0.02688158 0.00976543 0.00243923 0.00141411 0.01059624 0.00287368 0.02476160 0.00538001 0.04732565 0.00536479 0.03137859 0.00227527 0.00430136 0.00870461 0.00387656 0.00049608 
0.02743293 0.00979605 0.00240953 0.00140963 0.01048146 0.00287017 0.02471375 0.00544990 0.04811633 0.00540831 0.03175635 0.00226934 0.00434644 0.00928641 0.00419401 0.00048960 
0.02795549 0.00982162 0.00238017 0.00140533 0.01036920 0.00286385 0.02463980 0.00551882 0.04885440 0.00544912 0.03210101 0.00226264 0.00439294 0.00989718 0.00452428 0.00048359 
0.02844718 0.00984188 0.00235133 0.00140122 0.01025973 0.00285470 0.02454016 0.00558664 0.04953781 0.00548709 0.03241174 0.00225518 0.00444095 0.01053706 0.00486684 0.00047807 
0.02890602 0.00985662 0.00232316 0.00139732 0.01015329 0.00284277 0.02441535 0.00565322 0.05016475 0.00552211 0.03268790 0.00224696 0.00449056 0.01120614 0.00522109 0.00047306 
0.02933017 0.00986569 0.00229584 0.00139362 0.01005012 0.00282807 0.02426598 0.00571842 0.05073360 0.00555408 0.03292900 0.00223800 0.00454188 0.01190437 0.00558635 0.00046857 
0.02971791 0.00986895 0.00226953 0.00139013 0.00995046 0.00281065 0.02409279 0.00578209 0.05124297 0.00558290 0.03313471 0.00222830 0.00459499 0.01263162 0.00596192 0.00046461 
0.03006768 0.00986635 0.00224437 0.00138686 0.00985453 0.00279056 0.02389657 0.00584410 0.05169169 0.00560850 0.03330487 0.00221787 0.00464998 0.01338764 0.00634702 0.00046119 
0.03037808 0.00985788 0.00222051 0.00138383 0.00976253 0.00276787 0.02367825 0.00590431 0.05207883 0.00563081 0.03343948 0.00220674 0.00470692 0.01417208 0.00674081 0.00045833 
0.03064785 0.00984359 0.00219809 0.00138106 0.00967467 0.00274264 0.02343881 0.00596257 0.05240366 0.00564978 0.03353869 0.00219490 0.00476590 0.01498445 0.00714242 0.00045601 
0.03087591 0.00982357 0.00217723 0.00137856 0.00959112 0.00271496 0.02317931 0.00601875 0.05266572 0.00566536 0.03360282 0.00218238 0.00482697 0.01582417 0.00755092 0.00045423 
0.03106135 0.00979799 0.00215804 0.00137635 0.00951204 0.00268492 0.02290090 0.00607269 0.05286475 0.00567753 0.03363236 0.00216920 0.00489020 0.01669051 0.00796533 0.00045300 
0.03120343 0.00976705 0.00214065 0.00137447 0.00943756 0.00265261 0.02260477 0.00612427 0.05300072 0.00568628 0.03362791 0.00215535 0.00495563 0.01758262 0.00838466 0.00045230 
0.03130161 0.00973105 0.00212513 0.00137293 0.00936780 0.00261814 0.02229220 0.00617333 0.05307384 0.00569159 0.03359027 0.00214088 0.00502330 0.01849955 0.00880785 0.00045213 
0.03135552 0.00969029 0.00211157 0.00137178 0.00930286 0.00258162 0.02196449 0.00621974 0.05308454 0.00569348 0.03352032 0.00212578 0.00509324 0.01944019 0.00923382 0.00045246 
0.03136497 0.00964518 0.00210006 0.00137105 0.00924279 0.00254318 0.02162299 0.00626337 0.05303343 0.00569196 0.03341912 0.00211009 0.00516546 0.02040331 0.00966147 0.00045328 
0.03132996 0.00959614 0.00209065 0.00137077 0.00918764 0.00250293 0.02126910 0.00630406 0.05292139 0.00568708 0.03328782 0.00209381 0.00523995 0.02138756 0.01008966 0.00045458 
0.03125069 0.00954367 0.00208338 0.00137099 0.00913741 0.00246103 0.02090424 0.00634170 0.05274944 0.00567886 0.03312773 0.00207698 0.00531672 0.02239147 0.01051726 0.00045633 
0.03112753 0.00948832 0.00207830 0.00137175 0.00909209 0.00241760 0.02052982 0.00637613 0.05251883 0.00566737 0.03294022 0.00205960 0.00539572 0.02341343 0.01094308 0.00045850 
0.03096104 0.00943066 0.00207543 0.00137311 0.00905162 0.00237278 0.02014731 0.00640724 0.05223098 0.00565266 0.03272679 0.00204172 0.00547692 0.02445170 0.01136598 0.00046108 
0.03075196 0.00937133 0.00207478 0.00137510 0.00901592 0.00232673 0.01975815 0.00643488 0.05188749 0.00563480 0.03248901 0.00202334 0.00556025 0.02550443 0.01178476 0.00046403 
0.03050121 0.00931101 0.00207636 0.00137778 0.00898489 0.00227960 0.01936378 0.00645895 0.05149013 0.00561386 0.03222855 0.00200449 0.00564565 0.02656966 0.01219826 0.00046734 
0.03020988 0.00925039 0.00208015 0.00138121 0.00895838 0.00223155 0.01896563 0.00647931 0.05104080 0.00558994 0.03194712 0.00198520 0.00573303 0.02764530 0.01260531 0.00047097 
0.02987923 0.00919022 0.00208613 0.00138543 0.00893623 0.00218272 0.01856511 0.00649584 0.05054156 0.00556313 0.03164652 0.00196550 0.00582227 0.02872916 0.01300475 0.00047488 
0.02951068 0.00913127 0.00209426 0.00139050 0.00891823 0.00213328 0.01816360 0.00650843 0.04999460 0.00553351 0.03132856 0.00194541 0.00591326 0.02981894 0.01339545 0.00047906 
0.02910581 0.00907433 0.00210449 0.00139649 0.00890415 0.00208340 0.01776245 0.00651698 0.04940220 0.00550120 0.03099512 0.00192496 0.00600587 0.03091226 0.01377629 0.00048348 
0.02866634 0.00902020 0.00211678 0.00140344 0.00889374 0.00203322 0.01736296 0.00652137 0.04876678 0.00546629 0.03064808 0.00190417 0.00609995 0.03200662 0.01414618 0.00048809 
0.02819416 0.00896971 0.00213105 0.00141140 0.00888672 0.00198291 0.01696637 0.00652151 0.04809083 0.00542889 0.03028933 0.00188309 0.00619532 0.03309947 0.01450406 0.00049288 
0.02769125 0.00892369 0.00214723 0.00142044 0.00888277 0.00193262 0.01657391 0.00651732 0.04737693 0.00538913 0.02992079 0.00186174 0.00629181 0.03418817 0.01484891 0.00049780 
0.02715973 0.00888297 0.00216523 0.00143060 0.00888157 0.00188252 0.01618670 0.00650871 0.04662772 0.00534710 0.02954434 0.00184015 0.00638924 0.03527001 0.01517976 0.00050285 
0.02660184 0.00884836 0.00218496 0.00144193 0.00888277 0.00183276 0.01580583 0.00649560 0.04584589 0.00530292 0.02916185 0.00181835 0.00648740 0.03634224 0.01549566 0.00050797 
0.02601991 0.00882070 0.00220632 0.00145448 0.00888599 0.00178350 0.01543231 0.00647793 0.04503419 0.00525671 0.02877517 0.00179639 0.00658608 0.03740205 0.01579573 0.00051316 
0.02541637 0.00880078 0.00222921 0.00146830 0.00889084 0.00173487 0.01506706 0.00645564 0.04419537 0.00520859 0.02838610 0.00177429 0.00668506 0.03844661 0.01607915 0.00051838 
0.02479373 0.00878938 0.00225351 0.00148341 0.00889693 0.00168703 0.01471095 0.00642870 0.04333225 0.00515865 0.02799640 0.00175209 0.00678412 0.03947307 0.01634514 0.00052360 
0.02415456 0.00878726 0.00227910 0.00149986 0.00890383 0.00164012 0.01436476 0.00639706 0.04244760 0.00510703 0.02760775 0.00172982 0.00688303 0.04047855 0.01659299 0.00052881 
0.02350149 0.00879513 0.00230587 0.00151768 0.00891112 0.00159427 0.01402917 0.00636070 0.04154424 0.00505382 0.02722179 0.00170753 0.00698154 0.04146019 0.01682205 0.00053398 
0.02283719 0.00881367 0.00233370 0.00153689 0.00891838 0.00154961 0.01370482 0.00631962 0.04062495 0.00499914 0.02684008 0.00168525 0.00707943 0.04241514 0.01703174 0.00053910 
0.02216439 0.00884353 0.00236246 0.00155751 0.00892517 0.00150627 0.01339221 0.00627382 0.03969249 0.00494309 0.02646408 0.00166302 0.00717646 0.04334058 0.01722157 0.00054413 
0.02148580 0.00888530 0.00239203 0.00157956 0.00893106 0.00146437 0.01309180 0.00622332 0.03874962 0.00488577 0.02609517 0.00164088 0.00727238 0.04423373 0.01739108 0.00054907 
0.02080417 0.00893951 0.00242227 0.00160302 0.00893560 0.00142401 0.01280394 0.00616815 0.03779902 0.00482729 0.02573466 0.00161887 0.00736698 0.04509187 0.01753992 0.00055390 
0.02012223 0.00900664 0.00245309 0.00162792 0.00893839 0.00138530 0.01252889 0.00610836 0.03684337 0.00476774 0.02538372 0.00159702 0.00746003 0.04591235 0.01766780 0.00055861 
0.01944269 0.00908710 0.00248434 0.00165422 0.00893899 0.00134835 0.01226685 0.00604402 0.03588527 0.00470721 0.02504345 0.00157539 0.00755132 0.04669260 0.01777452 0.00056319 
0.01876826 0.00918126 0.00251592 0.00168193 0.00893701 0.00131323 0.01201792 0.00597521 0.03492727 0.00464579 0.02471482 0.00155401 0.00764063 0.04743014 0.01785995 0.00056761 
0.01810156 0.00928938 0.00254771 0.00171101 0.00893205 0.00128004 0.01178211 0.00590203 0.03397187 0.00458358 0.02439871 0.00153291 0.00772778 0.04812260 0.01792402 0.00057189 
0.01744521 0.00941168 0.00257960 0.00174142 0.00892374 0.00124884 0.01155936 0.00582460 0.03302150 0.00452064 0.02409587 0.00151215 0.00781259 0.04876775 0.01796678 0.00057600 
0.01680174 0.00954828 0.00261151 0.00177313 0.00891172 0.00121971 0.01134955 0.00574305 0.03207851 0.00445707 0.02380693 0.00149177 0.00789491 0.04936349 0.01798832 0.00057995 
0.01617362 0.00969924 0.00264333 0.00180608 0.00889566 0.00119271 0.01115245 0.00565755 0.03114518 0.00439294 0.02353243 0.00147180 0.00797458 0.04990785 0.01798883 0.00058373 
0.01556320 0.00986452 0.00267498 0.00184022 0.00887526 0.00116788 0.01096779 0.00556825 0.03022372 0.00432832 0.02327277 0.00145228 0.00805149 0.05039905 0.01796858 0.00058734 
0.01497280 0.01004403 0.00270637 0.00187547 0.00885023 0.00114527 0.01079522 0.00547536 0.02931626 0.00426329 0.02302824 0.00143326 0.00812554 0.05083545 0.01792788 0.00059077 
0.01440457 0.01023756 0.00273745 0.00191176 0.00882033 0.00112492 0.01063434 0.00537908 0.02842483 0.00419790 0.02279903 0.00141478 0.00819664 0.05121562 0.01786716 0.00059403 
0.01386058 0.01044485 0.00276816 0.00194901 0.00878534 0.00110685 0.01048468 0.00527965 0.02755141 0.00413224 0.02258520 0.00139687 0.00826476 0.05153831 0.01778688 0.00059712 
0.01334279 0.01066553 0.00279844 0.00198712 0.00874508 0.00109108 0.01034572 0.00517730 0.02669786 0.00406636 0.02238672 0.00137958 0.00832985 0.05180248 0.01768761 0.00060005 
0.01285301 0.01089916 0.00282827 0.00202599 0.00869940 0.00107763 0.01021691 0.00507231 0.02586598 0.00400032 0.02220343 0.00136293 0.00839193 0.05200727 0.01756995 0.00060280 
0.01239291 0.01114522 0.00285760 0.00206551 0.00864818 0.00106649 0.01009762 0.00496495 0.02505746 0.00393419 0.02203508 0.00134697 0.00845101 0.05215208 0.01743458 0.00060539 
0.01196403 0.01140312 0.00288643 0.00210556 0.00859137 0.00105767 0.00998723 0.00485553 0.02427393 0.00386803 0.02188132 0.00133174 0.00850716 0.05223649 0.01728224 0.00060782 
0.01156776 0.01167217 0.00291475 0.00214604 0.00852891 0.00105116 0.00988505 0.00474436 0.02351690 0.00380190 0.02174171 0.00131726 0.00856045 0.05226035 0.01711371 0.00061010 
0.01120533 0.01195163 0.00294257 0.00218679 0.00846082 0.00104694 0.00979037 0.00463177 0.02278782 0.00373586 0.02161571 0.00130357 0.00861100 0.05222370 0.01692984 0.00061222 
0.01087780 0.01224068 0.00296991 0.00222770 0.00838714 0.00104499 0.00970249 0.00451810 0.02208802 0.00366996 0.02150271 0.00129070 0.00865894 0.05212684 0.01673151 0.00061419 
0.01058610 0.01253841 0.00299678 0.00226862 0.00830797 0.00104527 0.00962064 0.00440371 0.02141877 0.00360427 0.02140201 0.00127868 0.00870444 0.05197029 0.01651966 0.00061602 
0.01033095 0.01284389 0.00302324 0.00230941 0.00822341 0.00104775 0.00954410 0.00428896 0.02078123 0.00353884 0.02131284 0.00126753 0.00874769 0.05175482 0.01629525 0.00061771 
0.01011295 0.01315610 0.00304933 0.00234992 0.00813365 0.00105239 0.00947210 0.00417424 0.02017647 0.00347375 0.02123438 0.00125728 0.00878890 0.05148141 0.01605929 0.00061927 
0.00993248 0.01347398 0.00307510 0.00239000 0.00803888 0.00105914 0.00940389 0.00405993 0.01960548 0.00340904 0.02116572 0.00124794 0.00882831 0.05115130 0.01581280 0.00062068 
0.00978979 0.01379642 0.00310063 0.00242950 0.00793936 0.00106795 0.00933872 0.00394641 0.01906915 0.00334479 0.02110593 0.00123955 0.00886619 0.05076592 0.01555683 0.00062197 
0.00968493 0.01412227 0.00312600 0.00246827 0.00783535 0.00107876 0.00927585 0.00383410 0.01856826 0.00328105 0.02105402 0.00123211 0.00890282 0.05032695 0.01529245 0.00062312 
0.00961780 0.01445032 0.00315127 0.00250614 0.00772719 0.00109150 0.00921457 0.00372339 0.01810352 0.00321789 0.02100896 0.00122564 0.00893849 0.04983626 0.01502074 0.00062413 
0.00958813 0.01477938 0.00317655 0.00254298 0.00761521 0.00110612 0.00915416 0.00361467 0.01767554 0.00315538 0.02096969 0.00122015 0.00897352 0.04929596 0.01474278 0.00062501 
0.00959546 0.01510819 0.00320193 0.00257861 0.00749982 0.00112253 0.00909394 0.00350836 0.01728483 0.00309358 0.02093514 0.00121565 0.00900824 0.04870833 0.01445966 0.00062576 
0.00963920 0.01543550 0.00322751 0.00261290 0.00738142 0.00114067 0.00903327 0.00340483 0.01693178 0.00303256 0.02090420 0.00121214 0.00904299 0.04807585 0.01417247 0.00062637 
0.00971857 0.01576004 0.00325339 0.00264568 0.00726046 0.00116045 0.00897153 0.00330450 0.01661671 0.00297239 0.02087576 0.00120962 0.00907811 0.04740116 0.01388227 0.00062683 
0.00983264 0.01608055 0.00327969 0.00267683 0.00713740 0.00118180 0.00890813 0.00320774 0.01633983 0.00291313 0.02084871 0.00120809 0.00911396 0.04668707 0.01359012 0.00062714 
0.00998035 0.01639575 0.00330651 0.00270619 0.00701276 0.00120463 0.00884252 0.00311492 0.01610125 0.00285487 0.02082195 0.00120755 0.00915090 0.04593656 0.01329706 0.00062730 
0.01016048 0.01670441 0.00333396 0.00273363 0.00688704 0.00122886 0.00877420 0.00302640 0.01590095 0.00279767 0.02079437 0.00120798 0.00918926 0.04515273 0.01300410 0.00062730 
0.01037165 0.01700528 0.00336215 0.00275902 0.00676078 0.00125438 0.00870271 0.00294253 0.01573883 0.00274160 0.02076488 0.00120938 0.00922940 0.04433879 0.01271223 0.00062712 
0.01061238 0.01729717 0.00339120 0.00278223 0.00663453 0.00128113 0.00862762 0.00286365 0.01561468 0.00268673 0.02073244 0.00121172 0.00927166 0.04349808 0.01242239 0.00062676 
0.01088106 0.01757890 0.00342119 0.00280316 0.00650885 0.00130900 0.00854858 0.00279006 0.01552817 0.00263313 0.02069600 0.00121499 0.00931636 0.04263402 0.01213550 0.00062621 
0.01117593 0.01784934 0.00345224 0.00282169 0.00638433 0.00133790 0.00846526 0.00272205 0.01547886 0.00258086 0.02065456 0.00121916 0.00936381 0.04175009 0.01185243 0.00062545 
0.01149517 0.01810741 0.00348444 0.00283773 0.00626153 0.00136773 0.00837740 0.00265989 0.01546620 0.00253001 0.02060715 0.00122420 0.00941431 0.04084984 0.01157399 0.00062448 
0.01183681 0.01835206 0.00351787 0.00285118 0.00614105 0.00139841 0.00828478 0.00260382 0.01548954 0.00248062 0.02055287 0.00123009 0.00946813 0.03993686 0.01130097 0.00062328 
0.01219883 0.01858234 0.00355263 0.00286197 0.00602346 0.00142983 0.00818723 0.00255406 0.01554809 0.00243277 0.02049084 0.00123679 0.00952551 0.03901475 0.01103408 0.00062183 
0.01257910 0.01879733 0.00358877 0.00287003 0.00590934 0.00146190 0.00808463 0.00251079 0.01564097 0.00238652 0.02042024 0.00124425 0.00958668 0.03808711 0.01077400 0.00062014 
0.01297544 0.01899620 0.00362636 0.00287531 0.00579927 0.00149452 0.00797693 0.00247417 0.01576716 0.00234191 0.02034030 0.00125245 0.00965182 0.03715755 0.01052132 0.00061818 
0.01338559 0.01917817 0.00366546 0.00287775 0.00569381 0.00152761 0.00786412 0.00244433 0.01592556 0.00229902 0.02025031 0.00126132 0.00972108 0.03622962 0.01027660 0.00061593 
0.01380724 0.01934256 0.00370609 0.00287732 0.00559350 0.00156106 0.00774623 0.00242135 0.01611492 0.00225789 0.02014963 0.00127083 0.00979459 0.03530684 0.01004032 0.00061340 
0.01423805 0.01948876 0.00374830 0.00287401 0.00549889 0.00159478 0.00762336 0.00240529 0.01633391 0.00221855 0.02003769 0.00128092 0.00987242 0.03439263 0.00981292 0.00061055 
0.01467566 0.01961627 0.00379210 0.00286781 0.00541048 0.00162868 0.00749564 0.00239619 0.01658107 0.00218107 0.01991396 0.00129154 0.00995462 0.03349037 0.00959475 0.00060740 
0.01511765 0.01972464 0.00383748 0.00285872 0.00532877 0.00166266 0.00736325 0.00239401 0.01685484 0.00214546 0.01977800 0.00130262 0.01004117 0.03260331 0.00938612 0.00060391 
0.01556165 0.01981354 0.00388444 0.00284675 0.00525422 0.00169664 0.00722643 0.00239872 0.01715356 0.00211177 0.01962943 0.00131412 0.01013204 0.03173460 0.00918724 0.00060009 
0.01600524 0.01988272 0.00393294 0.00283195 0.00518727 0.00173053 0.00708544 0.00241023 0.01747546 0.00208001 0.01946795 0.00132596 0.01022714 0.03088724 0.00899830 0.00059593 
0.01644605 0.01993202 0.00398295 0.00281434 0.00512833 0.00176424 0.00694060 0.00242842 0.01781869 0.00205021 0.01929332 0.00133808 0.01032632 0.03006411 0.00881940 0.00059142 
0.01688172 0.01996139 0.00403441 0.00279400 0.00507777 0.00179768 0.00679226 0.00245313 0.01818129 0.00202238 0.01910538 0.00135042 0.01042941 0.02926791 0.00865059 0.00058655 
0.01730993 0.01997085 0.00408725 0.00277099 0.00503594 0.00183078 0.00664079 0.00248416 0.01856123 0.00199652 0.01890405 0.00136291 0.01053617 0.02850118 0.00849184 0.00058134 
0.01772841 0.01996053 0.00414137 0.00274538 0.00500312 0.00186344 0.00648662 0.00252129 0.01895640 0.00197264 0.01868929 0.00137547 0.01064634 0.02776629 0.00834308 0.00057576 
0.01813494 0.01993064 0.00419669 0.00271728 0.00497960 0.00189561 0.00633018 0.00256426 0.01936460 0.00195073 0.01846117 0.00138804 0.01075958 0.02706539 0.00820418 0.00056983 
0.01852739 0.01988148 0.00425308 0.00268680 0.00496558 0.00192719 0.00617196 0.00261276 0.01978360 0.00193077 0.01821981 0.00140054 0.01087554 0.02640044 0.00807494 0.00056356 
0.01890367 0.01981344 0.00431042 0.00265404 0.00496125 0.00195811 0.00601244 0.00266648 0.02021108 0.00191274 0.01796540 0.00141290 0.01099380 0.02577322 0.00795514 0.00055695 
0.01926180 0.01972700 0.00436857 0.00261914 0.00496675 0.00198832 0.00585213 0.00272505 0.02064470 0.00189661 0.01769819 0.00142506 0.01111391 0.02518525 0.00784446 0.00055001 
0.01959992 0.01962270 0.00442737 0.00258225 0.00498217 0.00201773 0.00569157 0.00278808 0.02108206 0.00188236 0.01741852 0.00143693 0.01123539 0.02463786 0.00774259 0.00054275 
0.01991622 0.01950117 0.00448666 0.00254350 0.00500755 0.00204629 0.00553130 0.00285516 0.02152076 0.00186993 0.01712678 0.00144844 0.01135770 0.02413213 0.00764914 0.00053520 
0.02020906 0.01936311 0.00454626 0.00250306 0.00504290 0.00207393 0.00537186 0.00292586 0.02195836 0.00185929 0.01682341 0.00145953 0.01148028 0.02366893 0.00756369 0.00052737 
0.02047689 0.01920927 0.00460599 0.00246110 0.00508817 0.00210060 0.00521382 0.00299972 0.02239243 0.00185037 0.01650893 0.00147013 0.01160253 0.02324889 0.00748580 0.00051928 
0.02071828 0.01904048 0.00466566 0.00241779 0.00514327 0.00212625 0.00505773 0.00307625 0.02282053 0.00184311 0.01618391 0.00148016 0.01172383 0.02287242 0.00741496 0.00051097 
0.02093198 0.01885762 0.00472508 0.00237332 0.00520806 0.00215082 0.00490415 0.00315496 0.02324025 0.00183746 0.01584897 0.00148955 0.01184353 0.02253968 0.00735068 0.00050246 
0.02111683 0.01866160 0.00478402 0.00232788 0.00528237 0.00217427 0.00475363 0.00323535 0.02364920 0.00183334 0.01550479 0.00149825 0.01196095 0.02225062 0.00729241 0.00049378 
0.02127185 0.01845339 0.00484229 0.00228166 0.00536596 0.00219655 0.00460672 0.00331690 0.02404505 0.00183067 0.01515210 0.00150619 0.01207541 0.02200497 0.00723961 0.00048498 
0.02139620 0.01823399 0.00489968 0.00223487 0.00545856 0.00221763 0.00446396 0.00339907 0.02442549 0.00182938 0.01479167 0.00151332 0.01218621 0.02180220 0.00719170 0.00047608 
0.02148920 0.01800443 0.00495597 0.00218771 0.00555987 0.00223747 0.00432586 0.00348133 0.02478830 0.00182939 0.01442432 0.00151957 0.01229264 0.02164162 0.00714811 0.00046713 
0.02155032 0.01776575 0.00501095 0.00214039 0.00566951 0.00225604 0.00419292 0.00356316 0.02513134 0.00183059 0.01405091 0.00152489 0.01239397 0.02152230 0.00710825 0.00045818 
0.02157920 0.01751902 0.00506441 0.00209311 0.00578711 0.00227330 0.00406564 0.00364402 0.02545253 0.00183291 0.01367233 0.00152923 0.01248950 0.02144311 0.00707154 0.00044927 
0.02157565 0.01726531 0.00511614 0.00204609 0.00591222 0.00228924 0.00394446 0.00372338 0.02574991 0.00183626 0.01328951 0.00153255 0.01257852 0.02140274 0.00703740 0.00044044 
0.02153962 0.01700569 0.00516595 0.00199954 0.00604437 0.00230383 0.00382983 0.00380074 0.02602163 0.00184053 0.01290341 0.00153481 0.01266033 0.02139971 0.00700526 0.00043177 
0.02147125 0.01674123 0.00521363 0.00195367 0.00618307 0.00231706 0.00372216 0.00387557 0.02626597 0.00184563 0.01251502 0.00153597 0.01273425 0.02143234 0.00697454 0.00042328 
0.02137081 0.01647297 0.00525900 0.00190868 0.00632776 0.00232891 0.00362181 0.00394739 0.02648131 0.00185148 0.01212536 0.00153599 0.01279961 0.02149883 0.00694471 0.00041505 
0.02123878 0.01620196 0.00530188 0.00186478 0.00647789 0.00233937 0.00352914 0.00401573 0.02666621 0.00185797 0.01173547 0.00153486 0.01285578 0.02159721 0.00691523 0.00040712 
0.02107575 0.01592920 0.00534210 0.00182218 0.00663287 0.00234843 0.00344446 0.00408014 0.02681936 0.00186501 0.01134638 0.00153254 0.01290216 0.02172540 0.00688561 0.00039956 
0.02088249 0.01565567 0.00537950 0.00178107 0.00679206 0.00235609 0.00336804 0.00414018 0.02693960 0.00187251 0.01095918 0.00152903 0.01293817 0.02188118 0.00685535 0.00039242 
0.02065992 0.01538231 0.00541395 0.00174163 0.00695484 0.00236234 0.00330012 0.00419546 0.02702596 0.00188037 0.01057495 0.00152431 0.01296328 0.02206225 0.00682403 0.00038576 
0.02040910 0.01511002 0.00544531 0.00170405 0.00712055 0.00236720 0.00324089 0.00424561 0.02707763 0.00188852 0.01019476 0.00151837 0.01297700 0.02226623 0.00679120 0.00037963 
0.02013125 0.01483965 0.00547347 0.00166851 0.00728850 0.00237067 0.00319052 0.00429027 0.02709398 0.00189685 0.00981972 0.00151122 0.01297890 0.02249064 0.00675651 0.00037410 
0.01982770 0.01457201 0.00549834 0.00163518 0.00745802 0.00237275 0.00314913 0.00432916 0.02707456 0.00190530 0.00945092 0.00150285 0.01296859 0.02273297 0.00671960 0.00036922 
0.01949992 0.01430784 0.00551982 0.00160421 0.00762840 0.00237345 0.00311679 0.00436200 0.02701911 0.00191379 0.00908945 0.00149329 0.01294574 0.02299068 0.00668018 0.00036504 
0.01914950 0.01404784 0.00553787 0.00157574 0.00779894 0.00237280 0.00309354 0.00438856 0.02692756 0.00192224 0.00873640 0.00148255 0.01291008 0.02326120 0.00663797 0.00036163 
0.01877813 0.01379263 0.00555242 0.00154992 0.00796893 0.00237079 0.00307936 0.00440865 0.02680005 0.00193058 0.00839286 0.00147065 0.01286140 0.02354194 0.00659278 0.00035902 
0.01838763 0.01354279 0.00556346 0.00152687 0.00813767 0.00236746 0.00307421 0.00442212 0.02663688 0.00193877 0.00805989 0.00145762 0.01279955 0.02383034 0.00654441 0.00035727 
0.01797988 0.01329881 0.00557098 0.00150669 0.00830445 0.00236283 0.00307800 0.00442887 0.02643856 0.00194673 0.00773856 0.00144350 0.01272448 0.02412388 0.00649276 0.00035644 
0.01755686 0.01306113 0.00557498 0.00148950 0.00846857 0.00235690 0.00309058 0.00442882 0.02620580 0.00195442 0.00742989 0.00142832 0.01263616 0.02442007 0.00643773 0.00035655 
0.01712064 0.01283013 0.00557549 0.00147537 0.00862934 0.00234972 0.00311178 0.00442196 0.02593948 0.00196180 0.00713492 0.00141213 0.01253468 0.02471646 0.00637930 0.00035764 
0.01667330 0.01260611 0.00557256 0.00146437 0.00878608 0.00234130 0.00314139 0.00440832 0.02564066 0.00196883 0.00685463 0.00139499 0.01242016 0.02501072 0.00631749 0.00035977 
0.01621703 0.01238931 0.00556625 0.00145656 0.00893814 0.00233167 0.00317914 0.00438797 0.02531062 0.00197548 0.00658999 0.00137694 0.01229282 0.02530058 0.00625235 0.00036295 
0.01575401 0.01217989 0.00555665 0.00145198 0.00908485 0.00232086 0.00322475 0.00436101 0.02495075 0.00198174 0.00634195 0.00135805 0.01215295 0.02558388 0.00618399 0.00036721 
0.01528647 0.01197797 0.00554384 0.00145066 0.00922561 0.00230890 0.00327786 0.00432761 0.02456266 0.00198758 0.00611141 0.00133839 0.01200091 0.02585858 0.00611258 0.00037257 
0.01481666 0.01178360 0.00552795 0.00145261 0.00935981 0.00229582 0.00333811 0.00428797 0.02414810 0.00199300 0.00589924 0.00131802 0.01183712 0.02612277 0.00603830 0.00037906 
0.01434681 0.01159675 0.00550910 0.00145781 0.00948687 0.00228165 0.00340511 0.00424234 0.02370895 0.00199799 0.00570628 0.00129702 0.01166210 0.02637467 0.00596141 0.00038668 
0.01387915 0.01141737 0.00548743 0.00146626 0.00960626 0.00226642 0.00347840 0.00419098 0.02324725 0.00200257 0.00553331 0.00127547 0.01147641 0.02661267 0.00588217 0.00039543 
0.01341591 0.01124534 0.00546310 0.00147791 0.00971745 0.00225017 0.00355751 0.00413424 0.02276516 0.00200675 0.00538110 0.00125345 0.01128070 0.02683531 0.00580093 0.00040533 
0.01295925 0.01108047 0.00543628 0.00149271 0.00981997 0.00223293 0.00364196 0.00407246 0.02226497 0.00201055 0.00525033 0.00123105 0.01107566 0.02704130 0.00571802 0.00041636 
0.01251129 0.01092254 0.00540714 0.00151060 0.00991337 0.00221473 0.00373122 0.00400604 0.02174905 0.00201400 0.00514167 0.00120836 0.01086206 0.02722953 0.00563385 0.00042851 
0.01207413 0.01077131 0.00537586 0.00153148 0.00999724 0.00219560 0.00382473 0.00393542 0.02121987 0.00201712 0.00505571 0.00118546 0.01064072 0.02739908 0.00554885 0.00044177 
0.01164975 0.01062646 0.00534265 0.00155526 0.01007121 0.00217558 0.00392194 0.00386104 0.02067998 0.00201996 0.00499300 0.00116245 0.01041252 0.02754920 0.00546346 0.00045610 
0.01124008 0.01048768 0.00530770 0.00158183 0.01013496 0.00215471 0.00402224 0.00378341 0.02013198 0.00202256 0.00495402 0.00113943 0.01017838 0.02767934 0.00537817 0.00047149 
0.01084696 0.01035459 0.00527122 0.00161107 0.01018820 0.00213302 0.00412504 0.00370302 0.01957854 0.00202498 0.00493922 0.00111650 0.00993926 0.02778917 0.00529348 0.00048790 
0.01047211 0.01022682 0.00523341 0.00164282 0.01023069 0.00211055 0.00422972 0.00362042 0.01902234 0.00202726 0.00494894 0.00109374 0.00969619 0.02787851 0.00520991 0.00050529 
0.01011717 0.01010397 0.00519448 0.00167694 0.01026224 0.00208732 0.00433565 0.00353615 0.01846609 0.00202947 0.00498351 0.00107127 0.00945018 0.02794742 0.00512800 0.00052360 
0.00978364 0.00998562 0.00515465 0.00171327 0.01028268 0.00206338 0.00444219 0.00345078 0.01791249 0.00203167 0.00504315 0.00104919 0.00920231 0.02799613 0.00504830 0.00054280 
0.00947290 0.00987136 0.00511412 0.00175163 0.01029192 0.00203875 0.00454871 0.00336489 0.01736423 0.00203393 0.00512803 0.00102758 0.00895367 0.02802506 0.00497138 0.00056282 
0.00918620 0.00976075 0.00507310 0.00179182 0.01028990 0.00201349 0.00465457 0.00327908 0.01682398 0.00203632 0.00523826 0.00100656 0.00870536 0.02803483 0.00489780 0.00058361 
0.00892464 0.00965338 0.00503179 0.00183366 0.01027660 0.00198761 0.00475913 0.00319392 0.01629435 0.00203891 0.00537387 0.00098621 0.00845849 0.02802626 0.00482812 0.00060510 
0.00868919 0.00954884 0.00499038 0.00187694 0.01025206 0.00196116 0.00486175 0.00311002 0.01577790 0.00204177 0.00553480 0.00096664 0.00821416 0.02800030 0.00476291 0.00062721 
0.00848067 0.00944670 0.00494906 0.00192144 0.01021636 0.00193418 0.00496181 0.00302797 0.01527710 0.00204499 0.00572094 0.00094794 0.00797350 0.02795813 0.00470273 0.00064988 
0.00829972 0.00934660 0.00490801 0.00196695 0.01016964 0.00190670 0.00505870 0.00294835 0.01479436 0.00204862 0.00593210 0.00093021 0.00773758 0.02790104 0.00464813 0.00067303 
0.00814686 0.00924816 0.00486741 0.00201324 0.01011208 0.00187876 0.00515182 0.00287173 0.01433195 0.00205277 0.00616800 0.00091353 0.00750749 0.02783052 0.00459965 0.00069659 
0.00802243 0.00915103 0.00482742 0.00206008 0.01004388 0.00185039 0.00524059 0.00279868 0.01389206 0.00205749 0.00642830 0.00089799 0.00728426 0.02774817 0.00455782 0.00072047 
0.00792661 0.00905489 0.00478817 0.00210724 0.00996533 0.00182164 0.00532446 0.00272974 0.01347672 0.00206287 0.00671258 0.00088367 0.00706893 0.02765573 0.00452315 0.00074460 
0.00785942 0.00895946 0.00474982 0.00215449 0.00987673 0.00179254 0.00540287 0.00266544 0.01308784 0.00206897 0.00702032 0.00087066 0.00686246 0.02755508 0.00449610 0.00076888 
0.00782072 0.00886448 0.00471248 0.00220159 0.00977844 0.00176314 0.00547534 0.00260627 0.01272717 0.00207588 0.00735096 0.00085902 0.00666579 0.02744818 0.00447715 0.00079324 
0.00781023 0.00876974 0.00467626 0.00224831 0.00967086 0.00173348 0.00554137 0.00255271 0.01239629 0.00208366 0.00770383 0.00084884 0.00647979 0.02733712 0.00446673 0.00081760 
0.00782748 0.00867504 0.00464127 0.00229441 0.00955441 0.00170360 0.00560052 0.00250520 0.01209663 0.00209237 0.00807820 0.00084017 0.00630528 0.02722403 0.00446524 0.00084186 
0.00787188 0.00858024 0.00460757 0.00233966 0.00942958 0.00167353 0.00565238 0.00246416 0.01182943 0.00210209 0.00847327 0.00083308 0.00614303 0.02711114 0.00447304 0.00086597 
0.00794268 0.00848524 0.00457525 0.00238384 0.00929688 0.00164334 0.00569657 0.00242995 0.01159574 0.00211287 0.00888814 0.00082762 0.00599372 0.02700073 0.00449048 0.00088983 
0.00803898 0.00838999 0.00454434 0.00242673 0.00915684 0.00161306 0.00573276 0.00240292 0.01139642 0.00212477 0.00932187 0.00082384 0.00585797 0.02689511 0.00451786 0.00091337 
0.00815976 0.00829444 0.00451489 0.00246812 0.00901006 0.00158274 0.00576065 0.00238336 0.01123215 0.00213783 0.00977342 0.00082179 0.00573632 0.02679661 0.00455544 0.00093652 
0.00830386 0.00819863 0.00448691 0.00250780 0.00885713 0.00155243 0.00577999 0.00237154 0.01110338 0.00215211 0.01024171 0.00082149 0.00562923 0.02670758 0.00460345 0.00095922 
0.00847000 0.00810262 0.00446042 0.00254558 0.00869869 0.00152218 0.00579058 0.00236764 0.01101040 0.00216764 0.01072556 0.00082299 0.00553706 0.02663036 0.00466207 0.00098139 
0.00865678 0.00800650 0.00443540 0.00258127 0.00853540 0.00149203 0.00579226 0.00237186 0.01095326 0.00218446 0.01122375 0.00082630 0.00546011 0.02656728 0.00473145 0.00100299 
0.00886270 0.00791041 0.00441184 0.00261469 0.00836795 0.00146205 0.00578492 0.00238430 0.01093182 0.00220259 0.01173500 0.00083144 0.00539856 0.02652061 0.00481169 0.00102396 
0.00908618 0.00781452 0.00438969 0.00264569 0.00819702 0.00143229 0.00576849 0.00240503 0.01094575 0.00222206 0.01225796 0.00083842 0.00535253 0.02649259 0.00490286 0.00104427 
0.00932553 0.00771906 0.00436891 0.00267411 0.00802335 0.00140279 0.00574296 0.00243409 0.01099452 0.00224289 0.01279123 0.00084724 0.00532203 0.02648540 0.00500498 0.00106385 
0.00957900 0.00762425 0.00434945 0.00269982 0.00784766 0.00137362 0.00570838 0.00247144 0.01107738 0.00226508 0.01333337 0.00085789 0.00530698 0.02650113 0.00511802 0.00108270 
0.00984476 0.00753037 0.00433123 0.00272271 0.00767070 0.00134484 0.00566482 0.00251701 0.01119343 0.00228863 0.01388288 0.00087037 0.00530720 0.02654179 0.00524194 0.00110078 
0.01012095 0.00743771 0.00431416 0.00274266 0.00749321 0.00131649 0.00561244 0.00257069 0.01134157 0.00231354 0.01443825 0.00088464 0.00532244 0.02660928 0.00537663 0.00111808 
0.01040566 0.00734660 0.00429816 0.00275960 0.00731595 0.00128865 0.00555142 0.00263230 0.01152050 0.00233980 0.01499789 0.00090069 0.00535233 0.02670540 0.00552194 0.00113459 
0.01069694 0.00725739 0.00428313 0.00277345 0.00713967 0.00126137 0.00548201 0.00270162 0.01172881 0.00236739 0.01556021 0.00091848 0.00539645 0.02683182 0.00567772 0.00115031 
0.01099282 0.00717042 0.00426896 0.00278415 0.00696513 0.00123471 0.00540449 0.00277839 0.01196487 0.00239628 0.01612360 0.00093796 0.00545425 0.02699007 0.00584374 0.00116525 
0.01129135 0.00708607 0.00425555 0.00279169 0.00679308 0.00120873 0.00531920 0.00286232 0.01222695 0.00242644 0.01668642 0.00095909 0.00552515 0.02718155 0.00601975 0.00117942 
0.01159056 0.00700472 0.00424276 0.00279603 0.00662425 0.00118349 0.00522654 0.00295304 0.01251316 0.00245782 0.01724701 0.00098181 0.00560845 0.02740749 0.00620549 0.00119286 
0.01188851 0.00692677 0.00423050 0.00279719 0.00645938 0.00115906 0.00512693 0.00305017 0.01282149 0.00249039 0.01780371 0.00100605 0.00570340 0.02766898 0.00640063 0.00120560 
0.01218328 0.00685259 0.00421862 0.00279517 0.00629917 0.00113549 0.00502085 0.00315327 0.01314982 0.00252407 0.01835488 0.00103174 0.00580918 0.02796695 0.00660483 0.00121767 
0.01247299 0.00678257 0.00420700 0.00279003 0.00614433 0.00111284 0.00490883 0.00326189 0.01349594 0.00255882 0.01889885 0.00105881 0.00592490 0.02830214 0.00681774 0.00122914 
0.01275582 0.00671710 0.00419553 0.00278183 0.00599553 0.00109118 0.00479141 0.00337552 0.01385753 0.00259456 0.01943399 0.00108717 0.00604962 0.02867514 0.00703896 0.00124005 
0.01303001 0.00665654 0.00418408 0.00277063 0.00585342 0.00107056 0.00466921 0.00349363 0.01423223 0.00263122 0.01995868 0.00111673 0.00618236 0.02908633 0.00726806 0.00125047 
0.01329387 0.00660126 0.00417252 0.00275653 0.00571863 0.00105104 0.00454284 0.00361566 0.01461761 0.00266872 0.02047132 0.00114739 0.00632209 0.02953595 0.00750464 0.00126048 
0.01354580 0.00655159 0.00416074 0.00273964 0.00559175 0.00103268 0.00441298 0.00374102 0.01501120 0.00270696 0.02097035 0.00117906 0.00646773 0.03002403 0.00774822 0.00127015 
0.01378426 0.00650786 0.00414863 0.00272009 0.00547335 0.00101552 0.00428031 0.00386912 0.01541051 0.00274586 0.02145426 0.00121163 0.00661821 0.03055044 0.00799834 0.00127957 
0.01400786 0.00647037 0.00413607 0.00269804 0.00536395 0.00099963 0.00414555 0.00399932 0.01581302 0.00278532 0.02192155 0.00124499 0.00677242 0.03111486 0.00825453 0.00128882 
0.01421528 0.00643940 0.00412296 0.00267362 0.00526405 0.00098504 0.00400944 0.00413099 0.01621623 0.00282523 0.02237081 0.00127902 0.00692922 0.03171679 0.00851630 0.00129800 
0.01440533 0.00641518 0.00410922 0.00264703 0.00517410 0.00097181 0.00387274 0.00426348 0.01661768 0.00286549 0.02280068 0.00131360 0.00708751 0.03235556 0.00878315 0.00130721 
0.01457694 0.00639795 0.00409474 0.00261845 0.00509451 0.00095998 0.00373622 0.00439612 0.01701490 0.00290598 0.02320983 0.00134862 0.00724617 0.03303032 0.00905459 0.00131655 
0.01472918 0.00638788 0.00407945 0.00258808 0.00502566 0.00094959 0.00360067 0.00452826 0.01740549 0.00294658 0.02359705 0.00138393 0.00740409 0.03374007 0.00933010 0.00132611 
0.01486123 0.00638514 0.00406328 0.00255613 0.00496785 0.00094068 0.00346686 0.00465923 0.01778713 0.00298717 0.02396118 0.00141943 0.00756021 0.03448364 0.00960919 0.00133600 
0.01497244 0.00638984 0.00404618 0.00252283 0.00492138 0.00093327 0.00333559 0.00478837 0.01815754 0.00302764 0.02430113 0.00145498 0.00771347 0.03525968 0.00989136 0.00134632 
0.01506227 0.00640206 0.00402808 0.00248841 0.00488646 0.00092740 0.00320765 0.00491503 0.01851457 0.00306785 0.02461591 0.00149044 0.00786287 0.03606672 0.01017610 0.00135716 
0.01513036 0.00642185 0.00400895 0.00245311 0.00486329 0.00092310 0.00308382 0.00503858 0.01885613 0.00310768 0.02490463 0.00152568 0.00800746 0.03690315 0.01046292 0.00136864 
0.01517645 0.00644924 0.00398875 0.00241717 0.00485197 0.00092037 0.00296487 0.00515837 0.01918027 0.00314700 0.02516647 0.00156058 0.00814632 0.03776719 0.01075134 0.00138084 
0.01520049 0.00648419 0.00396748 0.00238085 0.00485260 0.00091925 0.00285157 0.00527382 0.01948516 0.00318567 0.02540072 0.00159500 0.00827861 0.03865696 0.01104088 0.00139385 
0.01520251 0.00652666 0.00394511 0.00234439 0.00486520 0.00091973 0.00274465 0.00538431 0.01976909 0.00322357 0.02560677 0.00162881 0.00840358 0.03957046 0.01133108 0.00140776 
0.01518275 0.00657655 0.00392165 0.00230806 0.00488974 0.00092182 0.00264482 0.00548931 0.02003051 0.00326056 0.02578412 0.00166188 0.00852051 0.04050557 0.01162147 0.00142265 
0.01514155 0.00663373 0.00389712 0.00227211 0.00492615 0.00092553 0.00255277 0.00558825 0.02026801 0.00329652 0.02593236 0.00169408 0.00862880 0.04146008 0.01191162 0.00143858 
0.01507943 0.00669807 0.00387154 0.00223680 0.00497429 0.00093084 0.00246917 0.00568065 0.02048035 0.00333132 0.02605121 0.00172529 0.00872793 0.04243167 0.01220109 0.00145562 
0.01499701 0.00676937 0.00384493 0.00220238 0.00503398 0.00093775 0.00239464 0.00576603 0.02066642 0.00336483 0.02614048 0.00175538 0.00881744 0.04341797 0.01248948 0.00147383 
0.01489509 0.00684742 0.00381734 0.00216909 0.00510499 0.00094623 0.00232976 0.00584394 0.02082533 0.00339692 0.02620010 0.00178423 0.00889702 0.04441650 0.01277637 0.00149324 
0.01477457 0.00693200 0.00378883 0.00213718 0.00518704 0.00095627 0.00227507 0.00591400 0.02095631 0.00342748 0.02623011 0.00181173 0.00896642 0.04542475 0.01306138 0.00151389 
0.01463649 0.00702284 0.00375944 0.00210688 0.00527978 0.00096784 0.00223109 0.00597584 0.02105880 0.00345638 0.02623066 0.00183777 0.00902551 0.04644014 0.01334414 0.00153580 
0.01448201 0.00711967 0.00372925 0.00207842 0.00538285 0.00098091 0.00219824 0.00602915 0.02113240 0.00348352 0.02620200 0.00186224 0.00907426 0.04746005 0.01362428 0.00155897 
0.01431240 0.00722220 0.00369834 0.00205201 0.00549580 0.00099544 0.00217695 0.00607364 0.02117690 0.00350879 0.02614451 0.00188505 0.00911275 0.04848184 0.01390148 0.00158340 
0.01412902 0.00733013 0.00366678 0.00202786 0.00561818 0.00101137 0.00216754 0.00610910 0.02119225 0.00353208 0.02605864 0.00190609 0.00914116 0.04950282 0.01417538 0.00160907 
0.01393336 0.00744313 0.00363465 0.00200616 0.00574946 0.00102868 0.00217032 0.00613533 0.02117857 0.00355331 0.02594499 0.00192529 0.00915979 0.05052031 0.01444568 0.00163595 
0.01372697 0.00756089 0.00360206 0.00198708 0.00588908 0.00104729 0.00218551 0.00615220 0.02113618 0.00357237 0.02580423 0.00194256 0.00916904 0.05153163 0.01471208 0.00166400 
0.01351148 0.00768308 0.00356910 0.00197078 0.00603645 0.00106715 0.00221330 0.00615962 0.02106554 0.00358920 0.02563714 0.00195784 0.00916942 0.05253408 0.01497427 0.00169314 
0.01328861 0.00780936 0.00353586 0.00195742 0.00619093 0.00108819 0.00225378 0.00615754 0.02096727 0.00360371 0.02544458 0.00197104 0.00916153 0.05352499 0.01523198 0.00172332 
0.01306010 0.00793943 0.00350245 0.00194710 0.00635185 0.00111035 0.00230701 0.00614598 0.02084217 0.00361584 0.02522752 0.00198213 0.00914608 0.05450171 0.01548493 0.00175443 
0.01282778 0.00807295 0.00346897 0.00193995 0.00651853 0.00113355 0.00237298 0.00612498 0.02069116 0.00362553 0.02498701 0.00199105 0.00912389 0.05546162 0.01573286 0.00178638 
0.01259348 0.00820963 0.00343552 0.00193605 0.00669022 0.00115772 0.00245160 0.00609464 0.02051534 0.00363275 0.02472418 0.00199776 0.00909583 0.05640214 0.01597551 0.00181906 
0.01235907 0.00834915 0.00340221 0.00193548 0.00686619 0.00118278 0.00254275 0.00605511 0.02031589 0.00363744 0.02444023 0.00200223 0.00906291 0.05732072 0.01621264 0.00185233 
0.01212644 0.00849123 0.00336913 0.00193827 0.00704564 0.00120863 0.00264621 0.00600658 0.02009416 0.00363959 0.02413644 0.00200444 0.00902618 0.05821489 0.01644399 0.00188606 
0.01189747 0.00863561 0.00333638 0.00194447 0.00722780 0.00123519 0.00276173 0.00594928 0.01985160 0.00363918 0.02381415 0.00200438 0.00898677 0.05908223 0.01666932 0.00192010 
0.01167402 0.00878203 0.00330407 0.00195408 0.00741184 0.00126237 0.00288896 0.00588348 0.01958974 0.00363620 0.02347477 0.00200205 0.00894591 0.05992036 0.01688840 0.00195429 
0.01145796 0.00893027 0.00327228 0.00196708 0.00759696 0.00129009 0.00302754 0.00580951 0.01931023 0.00363066 0.02311974 0.00199746 0.00890484 0.06072702 0.01710098 0.00198847 
0.01125111 0.00908012 0.00324111 0.00198343 0.00778231 0.00131823 0.00317699 0.00572772 0.01901480 0.00362258 0.02275057 0.00199061 0.00886488 0.06149999 0.01730684 0.00202246 
0.01105522 0.00923140 0.00321062 0.00200310 0.00796706 0.00134670 0.00333684 0.00563851 0.01870524 0.00361198 0.02236880 0.00198154 0.00882739 0.06223716 0.01750573 0.00205608 
0.01087204 0.00938394 0.00318092 0.00202599 0.00815038 0.00137542 0.00350651 0.00554229 0.01838339 0.00359891 0.02197600 0.00197029 0.00879376 0.06293649 0.01769741 0.00208915 
0.01070319 0.00953763 0.00315205 0.00205201 0.00833143 0.00140426 0.00368539 0.00543953 0.01805114 0.00358341 0.02157378 0.00195690 0.00876541 0.06359604 0.01788165 0.00212148 
0.01055027 0.00969235 0.00312409 0.00208105 0.00850938 0.00143315 0.00387283 0.00533072 0.01771043 0.00356555 0.02116375 0.00194142 0.00874377 0.06421399 0.01805819 0.00215290 
0.01041476 0.00984802 0.00309709 0.00211296 0.00868341 0.00146197 0.00406812 0.00521637 0.01736319 0.00354540 0.02074756 0.00192393 0.00873027 0.06478859 0.01822680 0.00218321 
0.01029805 0.01000458 0.00307111 0.00214760 0.00885272 0.00149063 0.00427052 0.00509702 0.01701138 0.00352305 0.02032684 0.00190448 0.00872635 0.06531823 0.01838722 0.00221224 
0.01020143 0.01016202 0.00304617 0.00218479 0.00901650 0.00151902 0.00447923 0.00497324 0.01665695 0.00349860 0.01990324 0.00188317 0.00873342 0.06580139 0.01853920 0.00223982 
0.01012607 0.01032032 0.00302232 0.00222434 0.00917400 0.00154705 0.00469344 0.00484560 0.01630184 0.00347216 0.01947840 0.00186009 0.00875288 0.06623669 0.01868248 0.00226578 
0.01007303 0.01047950 0.00299956 0.00226605 0.00932446 0.00157462 0.00491230 0.00471470 0.01594794 0.00344384 0.01905393 0.00183533 0.00878608 0.06662284 0.01881680 0.00228997 
0.01004322 0.01063960 0.00297792 0.00230969 0.00946715 0.00160164 0.00513492 0.00458115 0.01559714 0.00341376 0.01863144 0.00180900 0.00883434 0.06695869 0.01894190 0.00231225 
0.01003743 0.01080068 0.00295740 0.00235503 0.00960139 0.00162801 0.00536041 0.00444555 0.01525125 0.00338208 0.01821251 0.00178121 0.00889893 0.06724322 0.01905751 0.00233250 
0.01005632 0.01096281 0.00293800 0.00240183 0.00972652 0.00165365 0.00558784 0.00430854 0.01491203 0.00334894 0.01779868 0.00175208 0.00898105 0.06747553 0.01916335 0.00235060 
0.01010039 0.01112608 0.00291969 0.00244983 0.00984191 0.00167846 0.00581630 0.00417073 0.01458117 0.00331449 0.01739148 0.00172173 0.00908182 0.06765486 0.01925918 0.00236647 
0.01016999 0.01129057 0.00290246 0.00249877 0.00994698 0.00170236 0.00604485 0.00403276 0.01426029 0.00327889 0.01699235 0.00169030 0.00920230 0.06778058 0.01934471 0.00238005 
0.01026533 0.01145641 0.00288627 0.00254837 0.01004118 0.00172527 0.00627254 0.00389524 0.01395092 0.00324232 0.01660272 0.00165793 0.00934346 0.06785220 0.01941968 0.00239130 
0.01038644 0.01162370 0.00287108 0.00259836 0.01012400 0.00174711 0.00649843 0.00375878 0.01365449 0.00320496 0.01622396 0.00162474 0.00950616 0.06786937 0.01948383 0.00240020 
0.01053323 0.01179254 0.00285684 0.00264844 0.01019500 0.00176781 0.00672161 0.00362400 0.01337235 0.00316698 0.01585736 0.00159088 0.00969117 0.06783188 0.01953690 0.00240677 
0.01070543 0.01196304 0.00284349 0.00269834 0.01025377 0.00178729 0.00694114 0.00349148 0.01310573 0.00312859 0.01550418 0.00155651 0.00989917 0.06773966 0.01957864 0.00241105 
0.01090263 0.01213530 0.00283096 0.00274777 0.01029994 0.00180551 0.00715613 0.00336181 0.01285574 0.00308996 0.01516558 0.00152176 0.01013069 0.06759280 0.01960882 0.00241313 
0.01112425 0.01230941 0.00281920 0.00279644 0.01033322 0.00182238 0.00736571 0.00323555 0.01262340 0.00305130 0.01484267 0.00148678 0.01038617 0.06739152 0.01962721 0.00241312 
0.01136958 0.01248543 0.00280810 0.00284406 0.01035334 0.00183787 0.00756901 0.00311324 0.01240960 0.00301281 0.01453647 0.00145174 0.01066592 0.06713620 0.01963359 0.00241115 
0.01163773 0.01266342 0.00279760 0.00289036 0.01036012 0.00185192 0.00776522 0.00299540 0.01221511 0.00297468 0.01424795 0.00141676 0.01097014 0.06682738 0.01962776 0.00240743 
0.01192771 0.01284341 0.00278759 0.00293506 0.01035342 0.00186448 0.00795354 0.00288252 0.01204057 0.00293712 0.01397795 0.00138201 0.01129888 0.06646573 0.01960956 0.00240217 
0.01223835 0.01302538 0.00277799 0.00297788 0.01033313 0.00187552 0.00813324 0.00277507 0.01188651 0.00290032 0.01372726 0.00134763 0.01165207 0.06605209 0.01957882 0.00239562 
0.01256837 0.01320932 0.00276869 0.00301858 0.01029925 0.00188500 0.00830360 0.00267350 0.01175333 0.00286450 0.01349658 0.00131376 0.01202951 0.06558746 0.01953540 0.00238810 
0.01291636 0.01339515 0.00275960 0.00305689 0.01025180 0.00189289 0.00846397 0.00257821 0.01164132 0.00282984 0.01328651 0.00128055 0.01243089 0.06507298 0.01947922 0.00237994 
0.01328080 0.01358277 0.00275061 0.00309258 0.01019087 0.00189917 0.00861374 0.00248958 0.01155064 0.00279654 0.01309757 0.00124814 0.01285574 0.06450996 0.01941019 0.00237151 
0.01366004 0.01377204 0.00274161 0.00312543 0.01011660 0.00190382 0.00875236 0.00240795 0.01148134 0.00276479 0.01293017 0.00121664 0.01330348 0.06389985 0.01932828 0.00236323 
0.01405234 0.01396275 0.00273250 0.00315522 0.01002922 0.00190684 0.00887932 0.00233364 0.01143335 0.00273478 0.01278464 0.00118620 0.01377340 0.06324427 0.01923347 0.00235555 
0.01445586 0.01415469 0.00272317 0.00318176 0.00992897 0.00190821 0.00899419 0.00226692 0.01140650 0.00270669 0.01266121 0.00115693 0.01426469 0.06254500 0.01912581 0.00234897 
0.01486871 0.01434755 0.00271352 0.00320487 0.00981619 0.00190793 0.00909659 0.00220803 0.01140049 0.00268069 0.01256002 0.00112895 0.01477638 0.06180396 0.01900537 0.00234401 
0.01528887 0.01454101 0.00270344 0.00322438 0.00969125 0.00190601 0.00918620 0.00215717 0.01141496 0.00265695 0.01248111 0.00110237 0.01530743 0.06102323 0.01887225 0.00234123 
0.01571432 0.01473467 0.00269284 0.00324015 0.00955460 0.00190246 0.00926277 0.00211450 0.01144944 0.00263564 0.01242442 0.00107728 0.01585667 0.06020506 0.01872664 0.00234123 
0.01614295 0.01492810 0.00268161 0.00325206 0.00940672 0.00189729 0.00932610 0.00208015 0.01150335 0.00261689 0.01238981 0.00105377 0.01642283 0.05935183 0.01856874 0.00234462 
0.01657262 0.01512080 0.00266967 0.00326000 0.00924815 0.00189053 0.00937608 0.00205421 0.01157607 0.00260086 0.01237704 0.00103193 0.01700456 0.05846607 0.01839880 0.00235206 
0.01700117 0.01531223 0.00265693 0.00326389 0.00907951 0.00188220 0.00941264 0.00203672 0.01166688 0.00258768 0.01238576 0.00101183 0.01760040 0.05755046 0.01821714 0.00236423 
0.01742643 0.01550179 0.00264331 0.00326367 0.00890143 0.00187234 0.00943580 0.00202770 0.01177500 0.00257746 0.01241555 0.00099352 0.01820883 0.05660784 0.01802413 0.00238180 
0.01784622 0.01568884 0.00262874 0.00325929 0.00871460 0.00186097 0.00944562 0.00202711 0.01189960 0.00257033 0.01246591 0.00097708 0.01882826 0.05564116 0.01782018 0.00240552 
0.01825838 0.01587269 0.00261315 0.00325074 0.00851979 0.00184815 0.00944224 0.00203491 0.01203979 0.00256637 0.01253622 0.00096253 0.01945702 0.05465352 0.01760576 0.00243609 
0.01866075 0.01605260 0.00259649 0.00323802 0.00831776 0.00183392 0.00942586 0.00205098 0.01219465 0.00256569 0.01262580 0.00094990 0.02009340 0.05364815 0.01738141 0.00247425 
0.01905123 0.01622778 0.00257871 0.00322114 0.00810935 0.00181833 0.00939673 0.00207520 0.01236323 0.00256835 0.01273389 0.00093923 0.02073564 0.05262838 0.01714769 0.00252076 
0.01942775 0.01639742 0.00255977 0.00320017 0.00789543 0.00180144 0.00935519 0.00210739 0.01254454 0.00257442 0.01285964 0.00093052 0.02138196 0.05159767 0.01690526 0.00257635 
0.01978831 0.01656066 0.00253965 0.00317516 0.00767690 0.00178330 0.00930160 0.00214735 0.01273758 0.00258395 0.01300213 0.00092376 0.02203053 0.05055961 0.01665480 0.00264178 
0.02013096 0.01671663 0.00251832 0.00314621 0.00745470 0.00176399 0.00923640 0.00219484 0.01294134 0.00259699 0.01316038 0.00091895 0.02267951 0.04951784 0.01639706 0.00271776 
0.02045387 0.01686442 0.00249580 0.00311342 0.00722980 0.00174356 0.00916006 0.00224961 0.01315483 0.00261356 0.01333333 0.00091607 0.02332708 0.04847612 0.01613284 0.00280503 
0.02075525 0.01700310 0.00247208 0.00307693 0.00700319 0.00172210 0.00907313 0.00231136 0.01337703 0.00263368 0.01351987 0.00091508 0.02397140 0.04743829 0.01586298 0.00290429 
0.02103344 0.01713174 0.00244719 0.00303687 0.00677588 0.00169968 0.00897617 0.00237976 0.01360697 0.00265734 0.01371882 0.00091594 0.02461063 0.04640825 0.01558838 0.00301622 
0.02128689 0.01724939 0.00242115 0.00299342 0.00654893 0.00167638 0.00886980 0.00245448 0.01384367 0.00268455 0.01392895 0.00091860 0.02524299 0.04538996 0.01530997 0.00314147 
0.02151417 0.01735512 0.00239402 0.00294677 0.00632337 0.00165227 0.00875468 0.00253513 0.01408620 0.00271527 0.01414899 0.00092299 0.02586670 0.04438740 0.01502875 0.00328066 
0.02171396 0.01744800 0.00236586 0.00289711 0.00610028 0.00162746 0.00863150 0.00262133 0.01433366 0.00274949 0.01437764 0.00092905 0.02648003 0.04340462 0.01474574 0.00343437 
0.02188510 0.01752710 0.00233672 0.00284466 0.00588073 0.00160202 0.00850098 0.00271267 0.01458517 0.00278714 0.01461353 0.00093670 0.02708130 0.04244566 0.01446198 0.00360314 
0.02202655 0.01759155 0.00230671 0.00278966 0.00566580 0.00157605 0.00836387 0.00280871 0.01483993 0.00282818 0.01485529 0.00094584 0.02766889 0.04151456 0.01417857 0.00378745 
0.02213743 0.01764047 0.00227591 0.00273234 0.00545656 0.00154965 0.00822092 0.00290901 0.01509716 0.00287253 0.01510152 0.00095638 0.02824124 0.04061535 0.01389663 0.00398774 
0.02221702 0.01767306 0.00224443 0.00267296 0.00525408 0.00152290 0.00807293 0.00301312 0.01535613 0.00292013 0.01535080 0.00096823 0.02879685 0.03975203 0.01361729 0.00420439 
0.02226473 0.01768855 0.00221240 0.00261180 0.00505944 0.00149591 0.00792069 0.00312055 0.01561618 0.00297088 0.01560169 0.00098127 0.02933431 0.03892854 0.01334169 0.00443770 
0.02228017 0.01768621 0.00217995 0.00254912 0.00487368 0.00146878 0.00776500 0.00323085 0.01587671 0.00302468 0.01585276 0.00099538 0.02985229 0.03814877 0.01307100 0.00468792 
0.02226308 0.01766542 0.00214722 0.00248521 0.00469783 0.00144161 0.00760668 0.00334351 0.01613717 0.00308142 0.01610258 0.00101046 0.03034954 0.03741649 0.01280638 0.00495524 
0.02221339 0.01762558 0.00211438 0.00242035 0.00453291 0.00141450 0.00744653 0.00345805 0.01639706 0.00314100 0.01634971 0.00102638 0.03082492 0.03673540 0.01254900 0.00523974 
0.02213117 0.01756622 0.00208158 0.00235485 0.00437989 0.00138756 0.00728536 0.00357399 0.01665598 0.00320328 0.01659276 0.00104301 0.03127736 0.03610907 0.01230001 0.00554145 
0.02201670 0.01748691 0.00204900 0.00228900 0.00423973 0.00136089 0.00712396 0.00369083 0.01691355 0.00326813 0.01683033 0.00106023 0.03170592 0.03554091 0.01206054 0.00586031 
0.02187037 0.01738735 0.00201683 0.00222311 0.00411334 0.00133459 0.00696311 0.00380808 0.01716947 0.00333541 0.01706105 0.00107791 0.03210975 0.03503417 0.01183172 0.00619619 
0.02169278 0.01726733 0.00198525 0.00215746 0.00400159 0.00130878 0.00680359 0.00392526 0.01742351 0.00340497 0.01728362 0.00109592 0.03248809 0.03459194 0.01161463 0.00654884 
0.02148467 0.01712675 0.00195448 0.00209235 0.00390532 0.00128355 0.00664613 0.00404191 0.01767547 0.00347667 0.01749674 0.00111414 0.03284030 0.03421709 0.01141033 0.00691797 
0.02124694 0.01696561 0.00192471 0.00202809 0.00382529 0.00125901 0.00649145 0.00415754 0.01792523 0.00355033 0.01769918 0.00113243 0.03316585 0.03391225 0.01121983 0.00730315 
0.02098064 0.01678405 0.00189615 0.00196496 0.00376224 0.00123527 0.00634026 0.00427172 0.01817272 0.00362579 0.01788976 0.00115068 0.03346430 0.03367985 0.01104408 0.00770391 
0.02068697 0.01658231 0.00186902 0.00190325 0.00371683 0.00121242 0.00619322 0.00438400 0.01841791 0.00370288 0.01806736 0.00116877 0.03373534 0.03352203 0.01088399 0.00811966 
0.02036728 0.01636079 0.00184354 0.00184324 0.00368966 0.00119058 0.00605095 0.00449395 0.01866082 0.00378143 0.01823093 0.00118656 0.03397875 0.03344066 0.01074041 0.00854974 
0.02002304 0.01611998 0.00181993 0.00178519 0.00368126 0.00116983 0.00591406 0.00460118 0.01890152 0.00386125 0.01837948 0.00120397 0.03419440 0.03343734 0.01061410 0.00899337 
0.01965586 0.01586052 0.00179840 0.00172938 0.00369211 0.00115027 0.00578311 0.00470530 0.01914010 0.00394216 0.01851212 0.00122087 0.03438229 0.03351332 0.01050577 0.00944973 
0.01926745 0.01558319 0.00177917 0.00167603 0.00372260 0.00113200 0.00565860 0.00480594 0.01937670 0.00402398 0.01862801 0.00123716 0.03454250 0.03366954 0.01041603 0.00991789 
0.01885966 0.01528890 0.00176247 0.00162540 0.00377304 0.00111511 0.00554103 0.00490275 0.01961148 0.00410650 0.01872643 0.00125276 0.03467520 0.03390663 0.01034541 0.01039682 
0.01843441 0.01497868 0.00174851 0.00157771 0.00384366 0.00109969 0.00543082 0.00499543 0.01984463 0.00418955 0.01880672 0.00126757 0.03478065 0.03422482 0.01029435 0.01088546 
0.01799372 0.01465372 0.00173749 0.00153316 0.00393462 0.00108583 0.00532836 0.00508368 0.02007634 0.00427292 0.01886834 0.00128152 0.03485923 0.03462401 0.01026319 0.01138262 
0.01753970 0.01431530 0.00172962 0.00149196 0.00404598 0.00107360 0.00523399 0.00516724 0.02030683 0.00435642 0.01891084 0.00129454 0.03491136 0.03510371 0.01025217 0.01188709 
0.01707452 0.01396486 0.00172509 0.00145428 0.00417773 0.00106308 0.00514802 0.00524587 0.02053633 0.00443984 0.01893386 0.00130656 0.03493755 0.03566306 0.01026143 0.01239757 
0.01660039 0.01360395 0.00172411 0.00142029 0.00432976 0.00105434 0.00507070 0.00531937 0.02076504 0.00452299 0.01893716 0.00131754 0.03493840 0.03630082 0.01029099 0.01291268 
0.01611960 0.01323425 0.00172683 0.00139013 0.00450186 0.00104745 0.00500222 0.00538755 0.02099321 0.00460567 0.01892060 0.00132742 0.03491456 0.03701533 0.01034078 0.01343102 
0.01563445 0.01285753 0.00173344 0.00136393 0.00469375 0.00104247 0.00494274 0.00545028 0.02122103 0.00468767 0.01888413 0.00133619 0.03486675 0.03780457 0.01041061 0.01395112 
0.01514726 0.01247568 0.00174409 0.00134180 0.00490505 0.00103947 0.00489239 0.00550743 0.02144870 0.00476879 0.01882785 0.00134381 0.03479575 0.03866611 0.01050016 0.01447147 
0.01466036 0.01209068 0.00175892 0.00132383 0.00513529 0.00103847 0.00485121 0.00555893 0.02167642 0.00484883 0.01875192 0.00135028 0.03470237 0.03959714 0.01060903 0.01499053 
0.01417611 0.01170461 0.00177807 0.00131010 0.00538389 0.00103954 0.00481924 0.00560472 0.02190434 0.00492760 0.01865663 0.00135558 0.03458749 0.04059445 0.01073667 0.01550671 
0.01369680 0.01131963 0.00180164 0.00130066 0.00565022 0.00104271 0.00479646 0.00564478 0.02213260 0.00500488 0.01854239 0.00135973 0.03445202 0.04165446 0.01088245 0.01601843 
0.01322473 0.01093795 0.00182973 0.00129554 0.00593351 0.00104801 0.00478279 0.00567912 0.02236132 0.00508048 0.01840970 0.00136275 0.03429691 0.04277323 0.01104561 0.01652407 
0.01276215 0.01056187 0.00186244 0.00129476 0.00623296 0.00105545 0.00477813 0.00570779 0.02259056 0.00515420 0.01825916 0.00136465 0.03412313 0.04394645 0.01122529 0.01702200 
0.01231126 0.01019370 0.00189981 0.00129832 0.00654763 0.00106507 0.00478234 0.00573086 0.02282038 0.00522585 0.01809148 0.00136549 0.03393169 0.04516947 0.01142052 0.01751061 
0.01187420 0.00983582 0.00194189 0.00130620 0.00687654 0.00107686 0.00479524 0.00574843 0.02305078 0.00529523 0.01790748 0.00136529 0.03372360 0.04643732 0.01163025 0.01798827 
0.01145303 0.00949061 0.00198871 0.00131835 0.00721862 0.00109083 0.00481661 0.00576064 0.02328174 0.00536215 0.01770805 0.00136411 0.03349990 0.04774473 0.01185330 0.01845340 
0.01104974 0.00916048 0.00204028 0.00133473 0.00757271 0.00110696 0.00484620 0.00576763 0.02351320 0.00542642 0.01749419 0.00136202 0.03326163 0.04908612 0.01208843 0.01890440 
0.01066622 0.00884782 0.00209658 0.00135524 0.00793759 0.00112525 0.00488374 0.00576961 0.02374506 0.00548786 0.01726699 0.00135907 0.03300983 0.05045567 0.01233431 0.01933975 
0.01030425 0.00855501 0.00215758 0.00137981 0.00831199 0.00114567 0.00492890 0.00576677 0.02397718 0.00554628 0.01702760 0.00135536 0.03274555 0.05184732 0.01258953 0.01975791 
0.00996550 0.00828440 0.00222321 0.00140833 0.00869455 0.00116819 0.00498136 0.00575937 0.02420937 0.00560151 0.01677726 0.00135094 0.03246984 0.05325480 0.01285260 0.02015744 
0.00965154 0.00803829 0.00229341 0.00144066 0.00908388 0.00119278 0.00504075 0.00574764 0.02444144 0.00565339 0.01651730 0.00134592 0.03218372 0.05467166 0.01312199 0.02053691 
0.00936378 0.00781892 0.00236807 0.00147667 0.00947854 0.00121937 0.00510671 0.00573188 0.02467312 0.00570174 0.01624907 0.00134038 0.03188823 0.05609131 0.01339611 0.02089497 
0.00910352 0.00762848 0.00244707 0.00151621 0.00987702 0.00124792 0.00517882 0.00571237 0.02490414 0.00574640 0.01597401 0.00133441 0.03158438 0.05750705 0.01367332 0.02123032 
0.00887191 0.00746904 0.00253028 0.00155911 0.01027781 0.00127837 0.00525667 0.00568943 0.02513420 0.00578723 0.01569361 0.00132811 0.03127315 0.05891210 0.01395196 0.02154175 
0.00866995 0.00734258 0.00261753 0.00160518 0.01067936 0.00131065 0.00533983 0.00566339 0.02536294 0.00582409 0.01540939 0.00132159 0.03095552 0.06029962 0.01423034 0.02182811 
0.00849851 0.00725098 0.00270864 0.00165424 0.01108008 0.00134467 0.00542787 0.00563459 0.02559002 0.00585683 0.01512291 0.00131493 0.03063244 0.06166280 0.01450675 0.02208832 
0.00835829 0.00719597 0.00280340 0.00170608 0.01147839 0.00138035 0.00552033 0.00560337 0.02581503 0.00588533 0.01483576 0.00130824 0.03030484 0.06299484 0.01477950 0.02232141 
0.00824982 0.00717916 0.00290161 0.00176050 0.01187270 0.00141760 0.00561675 0.00557010 0.02603760 0.00590948 0.01454956 0.00130162 0.02997361 0.06428902 0.01504689 0.02252649 
0.00817350 0.00720200 0.00300302 0.00181727 0.01226141 0.00145633 0.00571669 0.00553513 0.02625729 0.00592918 0.01426592 0.00129517 0.02963963 0.06553873 0.01530724 0.02270275 
0.00812955 0.00726577 0.00310737 0.00187616 0.01264295 0.00149641 0.00581966 0.00549883 0.02647369 0.00594433 0.01398648 0.00128899 0.02930374 0.06673750 0.01555892 0.02284949 
0.00811803 0.00737158 0.00321438 0.00193694 0.01301575 0.00153775 0.00592522 0.00546157 0.02668637 0.00595486 0.01371285 0.00128316 0.02896674 0.06787908 0.01580032 0.02296610 
0.00813886 0.00752037 0.00332378 0.00199937 0.01337828 0.00158023 0.00603289 0.00542370 0.02689489 0.00596070 0.01344664 0.00127778 0.02862944 0.06895741 0.01602991 0.02305206 
0.00819178 0.00771287 0.00343525 0.00206321 0.01372905 0.00162373 0.00614223 0.00538560 0.02709885 0.00596180 0.01318946 0.00127293 0.02829256 0.06996673 0.01624619 0.02310697 
0.00827639 0.00794961 0.00354849 0.00212819 0.01406659 0.00166811 0.00625278 0.00534760 0.02729781 0.00595813 0.01294286 0.00126870 0.02795684 0.07090156 0.01644776 0.02313053 
0.00839213 0.00823093 0.00366315 0.00219409 0.01438950 0.00171325 0.00636409 0.00531006 0.02749139 0.00594967 0.01270837 0.00126516 0.02762296 0.07175678 0.01663330 0.02312251 
0.00853828 0.00855692 0.00377889 0.00226064 0.01469645 0.00175902 0.00647573 0.00527330 0.02767918 0.00593642 0.01248747 0.00126237 0.02729158 0.07252761 0.01680157 0.02308282 
0.00871400 0.00892750 0.00389538 0.00232759 0.01498615 0.00180527 0.00658727 0.00523765 0.02786084 0.00591841 0.01228160 0.00126040 0.02696331 0.07320972 0.01695145 0.02301144 
0.00891829 0.00934233 0.00401225 0.00239470 0.01525740 0.00185188 0.00669830 0.00520341 0.02803601 0.00589566 0.01209214 0.00125930 0.02663876 0.07379919 0.01708192 0.02290847 
0.00915003 0.00980087 0.00412914 0.00246170 0.01550908 0.00189869 0.00680842 0.00517087 0.02820439 0.00586823 0.01192040 0.00125912 0.02631848 0.07429257 0.01719208 0.02277408 
0.00940798 0.01030233 0.00424567 0.00252837 0.01574016 0.00194558 0.00691722 0.00514028 0.02836569 0.00583621 0.01176762 0.00125990 0.02600300 0.07468690 0.01728117 0.02260856 
0.00969076 0.01084571 0.00436149 0.00259446 0.01594970 0.00199239 0.00702435 0.00511191 0.02851968 0.00579970 0.01163497 0.00126166 0.02569284 0.07497974 0.01734854 0.02241227 
0.00999689 0.01142980 0.00447621 0.00265972 0.01613687 0.00203898 0.00712943 0.00508597 0.02866614 0.00575881 0.01152353 0.00126443 0.02538847 0.07516919 0.01739369 0.02218568 
0.01032481 0.01205315 0.00458946 0.00272394 0.01630094 0.00208522 0.00723212 0.00506266 0.02880492 0.00571370 0.01143430 0.00126822 0.02509032 0.07525389 0.01741626 0.02192931 
0.01067282 0.01271409 0.00470088 0.00278688 0.01644128 0.00213096 0.00733208 0.00504217 0.02893587 0.00566451 0.01136818 0.00127302 0.02479884 0.07523307 0.01741604 0.02164379 
0.01103919 0.01341075 0.00481010 0.00284834 0.01655739 0.00217607 0.00742902 0.00502463 0.02905893 0.00561146 0.01132598 0.00127885 0.02451441 0.07510652 0.01739297 0.02132981 
0.01142207 0.01414106 0.00491676 0.00290809 0.01664888 0.00222041 0.00752261 0.00501018 0.02917404 0.00555475 0.01130840 0.00128568 0.02423741 0.07487462 0.01734713 0.02098814 
0.01181957 0.01490275 0.00502050 0.00296595 0.01671548 0.00226385 0.00761260 0.00499891 0.02928122 0.00549461 0.01131606 0.00129349 0.02396819 0.07453835 0.01727876 0.02061962 
0.01222975 0.01569335 0.00512098 0.00302172 0.01675705 0.00230627 0.00769870 0.00499088 0.02938050 0.00543131 0.01134944 0.00130225 0.02370708 0.07409928 0.01718824 0.02022514 
0.01265060 0.01651022 0.00521788 0.00307523 0.01677358 0.00234754 0.00778068 0.00498614 0.02947200 0.00536513 0.01140895 0.00131191 0.02345439 0.07355957 0.01707612 0.01980566 
0.01308011 0.01735057 0.00531086 0.00312630 0.01676515 0.00238755 0.00785830 0.00498471 0.02955583 0.00529636 0.01149484 0.00132245 0.02321040 0.07292196 0.01694307 0.01936220 
0.01351624 0.01821144 0.00539962 0.00317479 0.01673202 0.00242619 0.00793135 0.00498656 0.02963217 0.00522535 0.01160730 0.00133379 0.02297538 0.07218976 0.01678992 0.01889581 
0.01395691 0.01908974 0.00548388 0.00322054 0.01667453 0.00246335 0.00799962 0.00499165 0.02970124 0.00515242 0.01174638 0.00134587 0.02274960 0.07136684 0.01661763 0.01840760 
0.01440007 0.01998225 0.00556335 0.00326343 0.01659316 0.00249893 0.00806295 0.00499991 0.02976328 0.00507796 0.01191203 0.00135864 0.02253329 0.07045762 0.01642732 0.01789873 
0.01484367 0.02088564 0.00563779 0.00330333 0.01648850 0.00253284 0.00812115 0.00501125 0.02981859 0.00500235 0.01210407 0.00137202 0.02232666 0.06946703 0.01622019 0.01737039 
0.01528568 0.02179649 0.00570695 0.00334014 0.01636128 0.00256500 0.00817409 0.00502555 0.02986748 0.00492599 0.01232223 0.00138593 0.02212993 0.06840050 0.01599760 0.01682379 
0.01572410 0.02271131 0.00577062 0.00337377 0.01621232 0.00259533 0.00822163 0.00504266 0.02991028 0.00484929 0.01256612 0.00140028 0.02194329 0.06726392 0.01576100 0.01626019 
0.01615695 0.02362655 0.00582861 0.00340413 0.01604257 0.00262377 0.00826365 0.00506241 0.02994737 0.00477271 0.01283525 0.00141500 0.02176692 0.06606364 0.01551195 0.01568089 
0.01658233 0.02453860 0.00588074 0.00343116 0.01585305 0.00265025 0.00830005 0.00508462 0.02997913 0.00469668 0.01312902 0.00142999 0.02160098 0.06480638 0.01525210 0.01508719 
0.01699838 0.02544387 0.00592687 0.00345481 0.01564492 0.00267473 0.00833073 0.00510907 0.03000596 0.00462167 0.01344672 0.00144515 0.02144563 0.06349927 0.01498319 0.01448042 
0.01740330 0.02633872 0.00596687 0.00347504 0.01541941 0.00269716 0.00835563 0.00513554 0.03002828 0.00454814 0.01378757 0.00146041 0.02130101 0.06214974 0.01470703 0.01386195 
0.01779538 0.02721956 0.00600066 0.00349182 0.01517782 0.00271751 0.00837469 0.00516379 0.03004650 0.00447657 0.01415067 0.00147565 0.02116724 0.06076552 0.01442547 0.01323315 
0.01817298 0.02808281 0.00602814 0.00350514 0.01492156 0.00273576 0.00838785 0.00519355 0.03006104 0.00440744 0.01453502 0.00149079 0.02104445 0.05935457 0.01414044 0.01259541 
0.01853454 0.02892496 0.00604929 0.00351500 0.01465208 0.00275189 0.00839510 0.00522457 0.03007231 0.00434124 0.01493957 0.00150573 0.02093273 0.05792507 0.01385388 0.01195015 
0.01887862 0.02974257 0.00606407 0.00352141 0.01437090 0.00276589 0.00839640 0.00525657 0.03008074 0.00427844 0.01536317 0.00152038 0.02083219 0.05648536 0.01356776 0.01129880 
0.01920386 0.03053229 0.00607250 0.00352441 0.01407960 0.00277776 0.00839176 0.00528926 0.03008671 0.00421952 0.01580457 0.00153465 0.02074289 0.05504387 0.01328407 0.01064279 
0.01950900 0.03129086 0.00607460 0.00352402 0.01377978 0.00278752 0.00838119 0.00532235 0.03009061 0.00416496 0.01626250 0.00154845 0.02066490 0.05360911 0.01300479 0.00998360 
0.01979292 0.03201518 0.00607043 0.00352030 0.01347308 0.00279518 0.00836469 0.00535554 0.03009279 0.00411523 0.01673558 0.00156169 0.02059827 0.05218957 0.01273188 0.00932269 
0.02005457 0.03270225 0.00606007 0.00351331 0.01316118 0.00280076 0.00834232 0.00538855 0.03009359 0.00407078 0.01722240 0.00157430 0.02054303 0.05079374 0.01246727 0.00866157 
0.02029305 0.03334926 0.00604364 0.00350313 0.01284575 0.00280431 0.00831411 0.00542109 0.03009331 0.00403204 0.01772148 0.00158619 0.02049920 0.04943002 0.01221286 0.00800173 
0.02050757 0.03395357 0.00602126 0.00348983 0.01252846 0.00280586 0.00828012 0.00545287 0.03009223 0.00399945 0.01823129 0.00159729 0.02046679 0.04810665 0.01197049 0.00734471 
0.02069745 0.03451270 0.00599309 0.00347352 0.01221099 0.00280546 0.00824042 0.00548360 0.03009058 0.00397339 0.01875028 0.00160755 0.02044576 0.04683172 0.01174193 0.00669204 
0.02086215 0.03502442 0.00595930 0.00345429 0.01189497 0.00280316 0.00819510 0.00551303 0.03008857 0.00395426 0.01927684 0.00161689 0.02043609 0.04561309 0.01152888 0.00604529 
0.02100123 0.03548666 0.00592010 0.00343226 0.01158204 0.00279902 0.00814424 0.00554089 0.03008634 0.00394241 0.01980935 0.00162527 0.02043771 0.04445833 0.01133295 0.00540603 
0.02111440 0.03589760 0.00587571 0.00340754 0.01127377 0.00279311 0.00808797 0.00556693 0.03008401 0.00393816 0.02034616 0.00163264 0.02045053 0.04337471 0.01115565 0.00477586 
0.02120145 0.03625566 0.00582637 0.00338026 0.01097168 0.00278549 0.00802638 0.00559093 0.03008165 0.00394180 0.02088562 0.00163895 0.02047444 0.04236916 0.01099838 0.00415639 
0.02126233 0.03655948 0.00577233 0.00335056 0.01067727 0.00277624 0.00795961 0.00561268 0.03007929 0.00395360 0.02142604 0.00164417 0.02050932 0.04144818 0.01086242 0.00354925 
0.02129708 0.03680797 0.00571387 0.00331858 0.01039192 0.00276544 0.00788780 0.00563197 0.03007689 0.00397379 0.02196575 0.00164829 0.02055500 0.04061786 0.01074893 0.00295610 
0.02130587 0.03700028 0.00565128 0.00328446 0.01011698 0.00275317 0.00781109 0.00564864 0.03007439 0.00400254 0.02250309 0.00165127 0.02061128 0.03988383 0.01065892 0.00237860 
0.02128896 0.03713583 0.00558487 0.00324835 0.00985369 0.00273951 0.00772966 0.00566254 0.03007168 0.00404000 0.02303637 0.00165311 0.02067794 0.03925122 0.01059328 0.00181844 
0.02124673 0.03721427 0.00551494 0.00321041 0.00960321 0.00272454 0.00764365 0.00567353 0.03006858 0.00408628 0.02356397 0.00165381 0.02075472 0.03872462 0.01055275 0.00127731 
0.02117967 0.03723556 0.00544182 0.00317079 0.00936659 0.00270836 0.00755327 0.00568152 0.03006489 0.00414145 0.02408425 0.00165337 0.02084133 0.03830808 0.01053790 0.00075694 
0.02108836 0.03719989 0.00536585 0.00312965 0.00914479 0.00269105 0.00745868 0.00568643 0.03006036 0.00420550 0.02459560 0.00165180 0.02093745 0.03800509 0.01054917 0.00025904 
0.02097346 0.03710772 0.00528737 0.00308716 0.00893867 0.00267269 0.00736010 0.00568820 0.03005471 0.00427841 0.02509646 0.00164912 0.02104270 0.03781852 0.01058683 0.00021464 
0.02083574 0.03695976 0.00520672 0.00304348 0.00874894 0.00265338 0.00725773 0.00568681 0.03004760 0.00436011 0.02558528 0.00164535 0.02115669 0.03775065 0.01065099 0.00066238 
0.02067603 0.03675699 0.00512425 0.00299877 0.00857623 0.00263320 0.00715178 0.00568226 0.03003867 0.00445046 0.02606059 0.00164053 0.02127897 0.03780314 0.01074160 0.00108243 
0.02049525 0.03650061 0.00504031 0.00295319 0.00842103 0.00261224 0.00704247 0.00567459 0.03002753 0.00454928 0.02652091 0.00163470 0.02140907 0.03797704 0.01085847 0.00147304 
0.02029437 0.03619209 0.00495525 0.00290690 0.00828371 0.00259058 0.00693004 0.00566384 0.03001375 0.00465636 0.02696487 0.00162790 0.02154645 0.03827274 0.01100121 0.00183250 
0.02007445 0.03583311 0.00486941 0.00286007 0.00816451 0.00256830 0.00681472 0.00565010 0.02999690 0.00477141 0.02739110 0.00162018 0.02169055 0.03869001 0.01116932 0.00215908 
0.01983659 0.03542559 0.00478314 0.00281285 0.00806357 0.00254549 0.00669676 0.00563347 0.02997652 0.00489413 0.02779832 0.00161160 0.02184078 0.03922801 0.01136213 0.00245109 
0.01958193 0.03497163 0.00469676 0.00276539 0.00798086 0.00252221 0.00657640 0.00561410 0.02995212 0.00502413 0.02818530 0.00160221 0.02199647 0.03988525 0.01157881 0.00270685 
0.01931167 0.03447357 0.00461061 0.00271786 0.00791628 0.00249853 0.00645389 0.00559212 0.02992324 0.00516101 0.02855087 0.00159208 0.02215694 0.04065964 0.01181841 0.00292473 
0.01902703 0.03393391 0.00452501 0.00267038 0.00786956 0.00247454 0.00632951 0.00556774 0.02988938 0.00530431 0.02889393 0.00158128 0.02232147 0.04154850 0.01207984 0.00310313 
0.01872927 0.03335532 0.00444026 0.00262311 0.00784033 0.00245029 0.00620350 0.00554114 0.02985006 0.00545352 0.02921345 0.00156987 0.02248928 0.04254855 0.01236186 0.00324052 
0.01841967 0.03274065 0.00435666 0.00257617 0.00782812 0.00242585 0.00607615 0.00551256 0.02980481 0.00560811 0.02950847 0.00155794 0.02265958 0.04365596 0.01266313 0.00333540 
0.01809953 0.03209286 0.00427449 0.00252971 0.00783233 0.00240126 0.00594771 0.00548223 0.02975317 0.00576748 0.02977808 0.00154555 0.02283150 0.04486636 0.01298221 0.00338635 
0.01777015 0.03141506 0.00419400 0.00248384 0.00785224 0.00237659 0.00581846 0.00545040 0.02969469 0.00593104 0.03002149 0.00153279 0.02300419 0.04617486 0.01331752 0.00339205 
0.01743283 0.03071047 0.00411547 0.00243868 0.00788707 0.00235188 0.00568867 0.00541737 0.02962897 0.00609812 0.03023795 0.00151973 0.02317673 0.04757607 0.01366742 0.00335124 
0.01708888 0.02998240 0.00403910 0.00239434 0.00793590 0.00232717 0.00555862 0.00538340 0.02955561 0.00626805 0.03042679 0.00150645 0.02334818 0.04906417 0.01403018 0.00326277 
0.01673960 0.02923421 0.00396513 0.00235093 0.00799776 0.00230251 0.00542858 0.00534881 0.02947427 0.00644013 0.03058744 0.00149303 0.02351758 0.05063290 0.01440398 0.00312561 
0.01638627 0.02846935 0.00389374 0.00230854 0.00807158 0.00227793 0.00529882 0.00531389 0.02938463 0.00661362 0.03071937 0.00147954 0.02368393 0.05227561 0.01478697 0.00293883 
0.01603016 0.02769131 0.00382512 0.00226725 0.00815623 0.00225346 0.00516963 0.00527896 0.02928643 0.00678778 0.03082216 0.00146608 0.02384624 0.05398530 0.01517723 0.00270164 
0.01567251 0.02690357 0.00375941 0.00222716 0.00825049 0.00222912 0.00504127 0.00524433 0.02917946 0.00696186 0.03089546 0.00145270 0.02400347 0.05575466 0.01557280 0.00241340 
0.01531452 0.02610963 0.00369675 0.00218832 0.00835313 0.00220494 0.00491401 0.00521033 0.02906355 0.00713507 0.03093900 0.00143949 0.02415459 0.05757609 0.01597170 0.00207362 
0.01495738 0.02531300 0.00363725 0.00215079 0.00846283 0.00218093 0.00478813 0.00517727 0.02893861 0.00730664 0.03095258 0.00142651 0.02429857 0.05944177 0.01637196 0.00168196 
0.01460222 0.02451713 0.00358102 0.00211464 0.00857827 0.00215712 0.00466387 0.00514546 0.02880458 0.00747580 0.03093608 0.00141384 0.02443435 0.06134368 0.01677157 0.00123827 
0.01425017 0.02372543 0.00352811 0.00207991 0.00869808 0.00213351 0.00454151 0.00511521 0.02866150 0.00764176 0.03088946 0.00140154 0.02456090 0.06327364 0.01716855 0.00074257 
0.01390226 0.02294124 0.00347859 0.00204664 0.00882087 0.00211011 0.00442130 0.00508684 0.02850944 0.00780375 0.03081277 0.00138967 0.02467717 0.06522337 0.01756094 0.00019507 
0.01355952 0.02216784 0.00343249 0.00201484 0.00894528 0.00208692 0.00430348 0.00506061 0.02834857 0.00796103 0.03070611 0.00137829 0.02478216 0.06718451 0.01794682 0.00040382 
0.01322291 0.02140839 0.00338981 0.00198455 0.00906991 0.00206396 0.00418831 0.00503683 0.02817911 0.00811283 0.03056968 0.00136746 0.02487487 0.06914869 0.01832431 0.00105346 
0.01289334 0.02066594 0.00335055 0.00195577 0.00919339 0.00204121 0.00407601 0.00501574 0.02800136 0.00825845 0.03040374 0.00135722 0.02495431 0.07110753 0.01869156 0.00175303 
0.01257168 0.01994344 0.00331469 0.00192850 0.00931438 0.00201869 0.00396683 0.00499759 0.02781568 0.00839719 0.03020863 0.00134763 0.02501954 0.07305272 0.01904683 0.00250147 
0.01225873 0.01924369 0.00328218 0.00190275 0.00943156 0.00199638 0.00386098 0.00498262 0.02762252 0.00852838 0.02998475 0.00133872 0.02506965 0.07497606 0.01938843 0.00329751 
0.01195524 0.01856931 0.00325296 0.00187850 0.00954366 0.00197429 0.00375867 0.00497103 0.02742236 0.00865139 0.02973259 0.00133054 0.02510378 0.07686946 0.01971475 0.00413964 
0.01166190 0.01792281 0.00322696 0.00185572 0.00964943 0.00195240 0.00366013 0.00496301 0.02721579 0.00876562 0.02945271 0.00132310 0.02512111 0.07872501 0.02002427 0.00502612 
0.01137936 0.01730649 0.00320408 0.00183439 0.00974772 0.00193072 0.00356553 0.00495871 0.02700345 0.00887052 0.02914572 0.00131645 0.02512087 0.08053501 0.02031560 0.00595499 
0.01110819 0.01672248 0.00318423 0.00181448 0.00983741 0.00190924 0.00347509 0.00495829 0.02678602 0.00896559 0.02881230 0.00131060 0.02510236 0.08229202 0.02058743 0.00692404 
0.01084891 0.01617273 0.00316728 0.00179594 0.00991747 0.00188795 0.00338896 0.00496185 0.02656427 0.00905036 0.02845323 0.00130557 0.02506494 0.08398886 0.02083856 0.00793085 
0.01060200 0.01565897 0.00315311 0.00177873 0.00998695 0.00186685 0.00330733 0.00496947 0.02633900 0.00912443 0.02806931 0.00130138 0.02500805 0.08561865 0.02106793 0.00897277 
0.01036784 0.01518275 0.00314159 0.00176280 0.01004496 0.00184594 0.00323035 0.00498122 0.02611107 0.00918745 0.02766143 0.00129803 0.02493117 0.08717487 0.02127460 0.01004690 
0.01014681 0.01474540 0.00313257 0.00174809 0.01009072 0.00182521 0.00315818 0.00499711 0.02588139 0.00923912 0.02723054 0.00129553 0.02483392 0.08865137 0.02145775 0.01115017 
0.00993918 0.01434804 0.00312590 0.00173455 0.01012354 0.00180466 0.00309094 0.00501717 0.02565090 0.00927921 0.02677765 0.00129387 0.02471595 0.09004236 0.02161669 0.01227926 
0.00974521 0.01399158 0.00312143 0.00172209 0.01014283 0.00178429 0.00302877 0.00504134 0.02542057 0.00930755 0.02630384 0.00129306 0.02457702 0.09134249 0.02175089 0.01343067 
0.00956508 0.01367670 0.00311900 0.00171066 0.01014810 0.00176411 0.00297178 0.00506959 0.02519140 0.00932403 0.02581022 0.00129308 0.02441701 0.09254683 0.02185991 0.01460070 
0.00939892 0.01340388 0.00311844 0.00170019 0.01013895 0.00174411 0.00292008 0.00510182 0.02496440 0.00932861 0.02529799 0.00129391 0.02423585 0.09365092 0.02194349 0.01578548 
0.00924682 0.01317337 0.00311959 0.00169059 0.01011510 0.00172430 0.00287376 0.00513793 0.02474060 0.00932130 0.02476839 0.00129555 0.02403361 0.09465076 0.02200148 0.01698099 
0.00910882 0.01298522 0.00312230 0.00168180 0.01007638 0.00170469 0.00283289 0.00517777 0.02452103 0.00930221 0.02422273 0.00129798 0.02381044 0.09554282 0.02203388 0.01818302 
0.00898490 0.01283926 0.00312640 0.00167373 0.01002270 0.00168528 0.00279754 0.00522118 0.02430672 0.00927147 0.02366234 0.00130116 0.02356660 0.09632407 0.02204082 0.01938727 
0.00887501 0.01273511 0.00313173 0.00166632 0.00995412 0.00166608 0.00276777 0.00526797 0.02409868 0.00922933 0.02308865 0.00130507 0.02330247 0.09699199 0.02202256 0.02058929 
0.00877904 0.01267219 0.00313816 0.00165948 0.00987075 0.00164712 0.00274362 0.00531792 0.02389791 0.00917605 0.02250309 0.00130969 0.02301852 0.09754456 0.02197949 0.02178457 
0.00869685 0.01264974 0.00314552 0.00165313 0.00977285 0.00162840 0.00272512 0.00537081 0.02370536 0.00911200 0.02190719 0.00131497 0.02271533 0.09798028 0.02191211 0.02296848 
0.00862826 0.01266679 0.00315368 0.00164719 0.00966074 0.00160993 0.00271228 0.00542637 0.02352198 0.00903760 0.02130248 0.00132089 0.02239362 0.09829814 0.02182108 0.02413639 
0.00857305 0.01272219 0.00316252 0.00164161 0.00953488 0.00159175 0.00270511 0.00548434 0.02334864 0.00895331 0.02069056 0.00132741 0.02205417 0.09849766 0.02170712 0.02528358 
0.00853097 0.01281464 0.00317190 0.00163629 0.00939578 0.00157386 0.00270359 0.00554442 0.02318618 0.00885968 0.02007308 0.00133448 0.02169791 0.09857887 0.02157111 0.02640536 
0.00850172 0.01294266 0.00318171 0.00163117 0.00924406 0.00155629 0.00270770 0.00560630 0.02303536 0.00875729 0.01945170 0.00134208 0.02132585 0.09854230 0.02141400 0.02749705 
0.00848499 0.01310462 0.00319186 0.00162618 0.00908042 0.00153906 0.00271741 0.00566968 0.02289691 0.00864681 0.01882815 0.00135015 0.02093911 0.09838897 0.02123686 0.02855399 
0.00848042 0.01329875 0.00320223 0.00162125 0.00890564 0.00152220 0.00273266 0.00573422 0.02277144 0.00852892 0.01820418 0.00135866 0.02053893 0.09812040 0.02104082 0.02957160 
0.00848764 0.01352316 0.00321276 0.00161634 0.00872055 0.00150573 0.00275339 0.00579959 0.02265952 0.00840438 0.01758156 0.00136756 0.02012660 0.09773857 0.02082713 0.03054540 
0.00850624 0.01377583 0.00322338 0.00161138 0.00852608 0.00148968 0.00277953 0.00586544 0.02256162 0.00827397 0.01696211 0.00137681 0.01970356 0.09724595 0.02059708 0.03147099 
0.00853581 0.01405464 0.00323401 0.00160631 0.00832318 0.00147407 0.00281097 0.00593145 0.02247812 0.00813853 0.01634766 0.00138636 0.01927129 0.09664542 0.02035204 0.03234414 
0.00857590 0.01435740 0.00324462 0.00160110 0.00811288 0.00145894 0.00284763 0.00599726 0.02240929 0.00799893 0.01574008 0.00139617 0.01883139 0.09594033 0.02009346 0.03316078 
0.00862605 0.01468182 0.00325516 0.00159569 0.00789623 0.00144430 0.00288938 0.00606254 0.02235533 0.00785606 0.01514123 0.00140619 0.01838550 0.09513444 0.01982280 0.03391703 
0.00868577 0.01502557 0.00326561 0.00159006 0.00767434 0.00143019 0.00293609 0.00612695 0.02231632 0.00771085 0.01455300 0.00141639 0.01793536 0.09423189 0.01954160 0.03460922 
0.00875458 0.01538624 0.00327597 0.00158418 0.00744832 0.00141664 0.00298762 0.00619016 0.02229224 0.00756425 0.01397728 0.00142672 0.01748276 0.09323722 0.01925140 0.03523393 
0.00883196 0.01576142 0.00328621 0.00157801 0.00721932 0.00140367 0.00304382 0.00625187 0.02228297 0.00741722 0.01341597 0.00143713 0.01702954 0.09215530 0.01895379 0.03578799 
0.00891741 0.01614868 0.00329635 0.00157153 0.00698849 0.00139130 0.00310453 0.00631176 0.02228827 0.00727073 0.01287097 0.00144759 0.01657761 0.09099137 0.01865037 0.03626853 
0.00901040 0.01654556 0.00330640 0.00156475 0.00675700 0.00137956 0.00316956 0.00636955 0.02230780 0.00712578 0.01234415 0.00145805 0.01612888 0.08975096 0.01834275 0.03667296 
0.00911041 0.01694963 0.00331640 0.00155763 0.00652599 0.00136848 0.00323872 0.00642497 0.02234113 0.00698334 0.01183739 0.00146847 0.01568534 0.08843990 0.01803253 0.03699905 
0.00921689 0.01735849 0.00332636 0.00155020 0.00629662 0.00135807 0.00331181 0.00647775 0.02238769 0.00684439 0.01135253 0.00147883 0.01524895 0.08706426 0.01772132 0.03724489 
0.00932931 0.01776978 0.00333634 0.00154244 0.00607001 0.00134835 0.00338863 0.00652767 0.02244683 0.00670991 0.01089139 0.00148908 0.01482172 0.08563037 0.01741071 0.03740893 
0.00944714 0.01818117 0.00334638 0.00153437 0.00584726 0.00133935 0.00346895 0.00657452 0.02251782 0.00658085 0.01045577 0.00149919 0.01440564 0.08414479 0.01710225 0.03749000 
0.00956984 0.01859043 0.00335652 0.00152601 0.00562944 0.00133108 0.00355253 0.00661811 0.02259980 0.00645815 0.01004739 0.00150913 0.01400270 0.08261422 0.01679748 0.03748733 
0.00969688 0.01899539 0.00336684 0.00151738 0.00541758 0.00132356 0.00363915 0.00665828 0.02269183 0.00634272 0.00966797 0.00151887 0.01361486 0.08104557 0.01649791 0.03740053 
0.00982774 0.01939397 0.00337739 0.00150850 0.00521266 0.00131678 0.00372855 0.00669490 0.02279291 0.00623544 0.00931913 0.00152838 0.01324408 0.07944585 0.01620499 0.03722962 
0.00996189 0.01978421 0.00338824 0.00149940 0.00501562 0.00131077 0.00382048 0.00672786 0.02290194 0.00613717 0.00900245 0.00153764 0.01289225 0.07782220 0.01592013 0.03697504 
0.01009883 0.02016426 0.00339944 0.00149013 0.00482734 0.00130553 0.00391467 0.00675708 0.02301776 0.00604870 0.00871943 0.00154663 0.01256122 0.07618183 0.01564468 0.03663766 
0.01023805 0.02053238 0.00341108 0.00148072 0.00464864 0.00130106 0.00401086 0.00678252 0.02313914 0.00597080 0.00847149 0.00155531 0.01225279 0.07453199 0.01537995 0.03621874 
0.01037906 0.02088698 0.00342321 0.00147122 0.00448026 0.00129736 0.00410876 0.00680415 0.02326481 0.00590419 0.00825996 0.00156369 0.01196867 0.07287998 0.01512717 0.03572000 
0.01052138 0.02122663 0.00343590 0.00146168 0.00432290 0.00129444 0.00420811 0.00682199 0.02339344 0.00584953 0.00808609 0.00157173 0.01171051 0.07123308 0.01488749 0.03514355 
0.01066456 0.02155002 0.00344922 0.00145215 0.00417717 0.00129228 0.00430862 0.00683608 0.02352367 0.00580743 0.00795099 0.00157944 0.01147987 0.06959857 0.01466201 0.03449191 
0.01080815 0.02185603 0.00346322 0.00144270 0.00404361 0.00129088 0.00441001 0.00684649 0.02365414 0.00577843 0.00785570 0.00158679 0.01127819 0.06798363 0.01445176 0.03376803 
0.01095170 0.02214367 0.00347797 0.00143337 0.00392269 0.00129023 0.00451199 0.00685331 0.02378345 0.00576302 0.00780112 0.00159379 0.01110682 0.06639540 0.01425766 0.03297523 
0.01109482 0.02241216 0.00349352 0.00142424 0.00381478 0.00129031 0.00461427 0.00685667 0.02391020 0.00576161 0.00778802 0.00160041 0.01096700 0.06484090 0.01408058 0.03211723 
0.01123710 0.02266087 0.00350992 0.00141536 0.00372020 0.00129111 0.00471658 0.00685673 0.02403300 0.00577455 0.00781704 0.00160668 0.01085983 0.06332701 0.01392128 0.03119809 
0.01137817 0.02288935 0.00352720 0.00140681 0.00363918 0.00129261 0.00481862 0.00685366 0.02415050 0.00580213 0.00788870 0.00161257 0.01078629 0.06186046 0.01378046 0.03022225 
0.01151768 0.02309734 0.00354542 0.00139864 0.00357186 0.00129479 0.00492011 0.00684766 0.02426134 0.00584454 0.00800335 0.00161810 0.01074721 0.06044779 0.01365873 0.02919447 
0.01165530 0.02328473 0.00356459 0.00139093 0.00351832 0.00129763 0.00502079 0.00683897 0.02436425 0.00590191 0.00816118 0.00162327 0.01074328 0.05909536 0.01355659 0.02811981 
0.01179071 0.02345162 0.00358474 0.00138375 0.00347855 0.00130110 0.00512037 0.00682783 0.02445797 0.00597430 0.00836226 0.00162808 0.01077505 0.05780927 0.01347447 0.02700361 
0.01192363 0.02359827 0.00360589 0.00137716 0.00345248 0.00130518 0.00521859 0.00681450 0.02454133 0.00606169 0.00860647 0.00163255 0.01084290 0.05659538 0.01341271 0.02585148 
0.01205379 0.02372512 0.00362805 0.00137122 0.00343995 0.00130983 0.00531519 0.00679927 0.02461322 0.00616398 0.00889353 0.00163668 0.01094706 0.05545929 0.01337157 0.02466926 
0.01218096 0.02383276 0.00365121 0.00136601 0.00344073 0.00131503 0.00540993 0.00678244 0.02467264 0.00628098 0.00922299 0.00164048 0.01108759 0.05440630 0.01335122 0.02346297 
0.01230492 0.02392198 0.00367538 0.00136159 0.00345455 0.00132074 0.00550256 0.00676432 0.02471865 0.00641244 0.00959424 0.00164397 0.01126439 0.05344138 0.01335172 0.02223883 
0.01242547 0.02399368 0.00370053 0.00135802 0.00348103 0.00132693 0.00559284 0.00674523 0.02475044 0.00655805 0.01000649 0.00164717 0.01147720 0.05256920 0.01337309 0.02100316 
0.01254247 0.02404896 0.00372665 0.00135536 0.00351978 0.00133357 0.00568057 0.00672550 0.02476730 0.00671738 0.01045875 0.00165009 0.01172557 0.05179406 0.01341522 0.01976240 
0.01265575 0.02408901 0.00375370 0.00135367 0.00357032 0.00134062 0.00576554 0.00670545 0.02476865 0.00688996 0.01094991 0.00165274 0.01200890 0.05111990 0.01347796 0.01852307 
0.01276520 0.02411519 0.00378166 0.00135300 0.00363212 0.00134805 0.00584754 0.00668544 0.02475403 0.00707523 0.01147864 0.00165516 0.01232644 0.05055029 0.01356106 0.01729170 
0.01287074 0.02412896 0.00381048 0.00135340 0.00370463 0.00135582 0.00592641 0.00666580 0.02472312 0.00727259 0.01204345 0.00165734 0.01267724 0.05008841 0.01366420 0.01607483 
0.01297230 0.02413189 0.00384012 0.00135492 0.00378722 0.00136390 0.00600198 0.00664686 0.02467574 0.00748133 0.01264269 0.00165933 0.01306022 0.04973700 0.01378698 0.01487893 
0.01306982 0.02412567 0.00387052 0.00135759 0.00387926 0.00137225 0.00607409 0.00662896 0.02461185 0.00770070 0.01327454 0.00166112 0.01347412 0.04949844 0.01392893 0.01371043 
0.01316330 0.02411204 0.00390162 0.00136147 0.00398007 0.00138084 0.00614262 0.00661240 0.02453157 0.00792990 0.01393701 0.00166276 0.01391755 0.04937462 0.01408953 0.01257563 
0.01325272 0.02409284 0.00393336 0.00136657 0.00408892 0.00138962 0.00620744 0.00659752 0.02443515 0.00816804 0.01462797 0.00166425 0.01438894 0.04936706 0.01426818 0.01148066 
0.01333813 0.02406994 0.00396568 0.00137293 0.00420511 0.00139857 0.00626846 0.00658461 0.02432303 0.00841421 0.01534513 0.00166562 0.01488662 0.04947679 0.01446422 0.01043148 
0.01341955 0.02404528 0.00399851 0.00138057 0.00432787 0.00140766 0.00632560 0.00657394 0.02419576 0.00866741 0.01608605 0.00166688 0.01540876 0.04970441 0.01467694 0.00943383 
0.01349706 0.02402080 0.00403177 0.00138951 0.00445646 0.00141684 0.00637879 0.00656581 0.02405408 0.00892663 0.01684818 0.00166806 0.01595341 0.05005008 0.01490557 0.00849319 
0.01357075 0.02399846 0.00406539 0.00139975 0.00459011 0.00142610 0.00642798 0.00656044 0.02389885 0.00919081 0.01762883 0.00166917 0.01651852 0.05051349 0.01514930 0.00761473 
0.01364071 0.02398023 0.00409930 0.00141130 0.00472805 0.00143539 0.00647314 0.00655808 0.02373110 0.00945885 0.01842518 0.00167023 0.01710190 0.05109391 0.01540727 0.00680331 
0.01370707 0.02396805 0.00413342 0.00142417 0.00486952 0.00144470 0.00651426 0.00655893 0.02355201 0.00972960 0.01923434 0.00167126 0.01770129 0.05179012 0.01567858 0.00606346 
0.01376998 0.02396381 0.00416768 0.00143834 0.00501376 0.00145399 0.00655134 0.00656318 0.02336287 0.01000192 0.02005330 0.00167228 0.01831434 0.05260048 0.01596229 0.00539929 
0.01382957 0.02396937 0.00420199 0.00145380 0.00516003 0.00146324 0.00658441 0.00657098 0.02316513 0.01027461 0.02087899 0.00167328 0.01893862 0.05352289 0.01625743 0.00481453 
0.01388603 0.02398652 0.00423629 0.00147053 0.00530759 0.00147242 0.00661350 0.00658246 0.02296035 0.01054650 0.02170827 0.00167430 0.01957164 0.05455483 0.01656299 0.00431247 
0.01393954 0.02401696 0.00427050 0.00148851 0.00545574 0.00148151 0.00663866 0.00659774 0.02275022 0.01081636 0.02253794 0.00167533 0.02021085 0.05569334 0.01687796 0.00389594 
0.01399028 0.02406231 0.00430455 0.00150771 0.00560379 0.00149050 0.00665997 0.00661688 0.02253653 0.01108300 0.02336476 0.00167639 0.02085369 0.05693505 0.01720129 0.00356730 
0.01403845 0.02412405 0.00433837 0.00152808 0.00575107 0.00149935 0.00667751 0.00663994 0.02232117 0.01134520 0.02418548 0.00167748 0.02149753 0.05827616 0.01753191 0.00332842 
0.01408428 0.02420358 0.00437189 0.00154958 0.00589695 0.00150806 0.00669136 0.00666693 0.02210611 0.01160176 0.02499683 0.00167861 0.02213977 0.05971252 0.01786876 0.00318069 
0.01412798 0.02430214 0.00440505 0.00157217 0.00604084 0.00151660 0.00670165 0.00669784 0.02189341 0.01185150 0.02579555 0.00167978 0.02277778 0.06123955 0.01821074 0.00312495 
0.01416977 0.02442081 0.00443778 0.00159580 0.00618215 0.00152496 0.00670848 0.00673264 0.02168518 0.01209325 0.02657841 0.00168098 0.02340896 0.06285233 0.01855678 0.00316154 
0.01420989 0.02456055 0.00447004 0.00162039 0.00632037 0.00153313 0.00671200 0.00677127 0.02148357 0.01232586 0.02734222 0.00168223 0.02403073 0.06454560 0.01890578 0.00329027 
0.01424856 0.02472212 0.00450175 0.00164588 0.00645499 0.00154110 0.00671234 0.00681362 0.02129077 0.01254822 0.02808383 0.00168350 0.02464056 0.06631375 0.01925665 0.00351043 
0.01428602 0.02490612 0.00453287 0.00167221 0.00658555 0.00154885 0.00670965 0.00685957 0.02110901 0.01275927 0.02880018 0.00168481 0.02523596 0.06815089 0.01960832 0.00382076 
0.01432251 0.02511297 0.00456335 0.00169930 0.00671163 0.00155637 0.00670409 0.00690898 0.02094050 0.01295796 0.02948828 0.00168613 0.02581451 0.07005082 0.01995972 0.00421949 
0.01435827 0.02534290 0.00459314 0.00172707 0.00683286 0.00156366 0.00669581 0.00696168 0.02078744 0.01314332 0.03014526 0.00168747 0.02637387 0.07200708 0.02030978 0.00470436 
0.01439351 0.02559593 0.00462219 0.00175542 0.00694889 0.00157071 0.00668498 0.00701747 0.02065200 0.01331441 0.03076835 0.00168880 0.02691178 0.07401300 0.02065747 0.00527258 
0.01442849 0.02587192 0.00465045 0.00178429 0.00705942 0.00157751 0.00667176 0.00707614 0.02053633 0.01347036 0.03135492 0.00169012 0.02742609 0.07606165 0.02100178 0.00592089 
0.01446342 0.02617049 0.00467790 0.00181356 0.00716419 0.00158405 0.00665633 0.00713744 0.02044250 0.01361037 0.03190249 0.00169140 0.02791476 0.07814596 0.02134169 0.00664553 
0.01449852 0.02649109 0.00470447 0.00184315 0.00726297 0.00159032 0.00663885 0.00720114 0.02037251 0.01373370 0.03240874 0.00169264 0.02837587 0.08025867 0.02167625 0.00744233 
0.01453401 0.02683297 0.00473014 0.00187296 0.00735559 0.00159633 0.00661950 0.00726695 0.02032827 0.01383967 0.03287151 0.00169382 0.02880763 0.08239239 0.02200451 0.00830667 
0.01457010 0.02719518 0.00475486 0.00190289 0.00744188 0.00160206 0.00659844 0.00733459 0.02031159 0.01392770 0.03328885 0.00169492 0.02920839 0.08453965 0.02232555 0.00923355 
0.01460699 0.02757658 0.00477859 0.00193283 0.00752174 0.00160751 0.00657582 0.00740378 0.02032416 0.01399729 0.03365897 0.00169591 0.02957666 0.08669289 0.02263851 0.01021757 
0.01464488 0.02797584 0.00480129 0.00196268 0.00759507 0.00161268 0.00655182 0.00747420 0.02036752 0.01404801 0.03398032 0.00169678 0.02991109 0.08884452 0.02294253 0.01125301 
0.01468394 0.02839147 0.00482292 0.00199233 0.00766184 0.00161755 0.00652657 0.00754555 0.02044308 0.01407953 0.03425155 0.00169752 0.03021049 0.09098693 0.02323682 0.01233386 
0.01472437 0.02882179 0.00484343 0.00202167 0.00772202 0.00162212 0.00650024 0.00761752 0.02055210 0.01409160 0.03447153 0.00169809 0.03047387 0.09311253 0.02352062 0.01345381 
0.01476633 0.02926496 0.00486278 0.00205060 0.00777562 0.00162638 0.00647294 0.00768978 0.02069563 0.01408407 0.03463937 0.00169848 0.03070036 0.09521379 0.02379320 0.01460633 
0.01480998 0.02971902 0.00488091 0.00207901 0.00782267 0.00163034 0.00644482 0.00776204 0.02087457 0.01405689 0.03475441 0.00169866 0.03088932 0.09728326 0.02405388 0.01578471 
0.01485546 0.03018184 0.00489777 0.00210680 0.00786324 0.00163397 0.00641600 0.00783397 0.02108961 0.01401011 0.03481623 0.00169863 0.03104025 0.09931362 0.02430205 0.01698208 
0.01490293 0.03065119 0.00491332 0.00213385 0.00789739 0.00163727 0.00638658 0.00790527 0.02134126 0.01394386 0.03482465 0.00169836 0.03115285 0.10129768 0.02453710 0.01819145 
0.01495251 0.03112473 0.00492749 0.00216005 0.00792523 0.00164024 0.00635667 0.00797565 0.02162978 0.01385838 0.03477974 0.00169783 0.03122700 0.10322843 0.02475852 0.01940577 
0.01500433 0.03160000 0.00494021 0.00218532 0.00794687 0.00164285 0.00632636 0.00804483 0.02195524 0.01375402 0.03468183 0.00169703 0.03126275 0.10509907 0.02496581 0.02061799 
0.01505850 0.03207450 0.00495143 0.00220954 0.00796245 0.00164511 0.00629573 0.00811252 0.02231750 0.01363120 0.03453147 0.00169595 0.03126035 0.10690307 0.02515854 0.02182106 
0.01511515 0.03254565 0.00496107 0.00223262 0.00797211 0.00164701 0.00626484 0.00817848 0.02271617 0.01349046 0.03432945 0.00169457 0.03122020 0.10863412 0.02533633 0.02300799 
0.01517436 0.03301084 0.00496905 0.00225446 0.00797601 0.00164852 0.00623377 0.00824246 0.02315065 0.01333242 0.03407683 0.00169289 0.03114291 0.11028625 0.02549885 0.02417191 
0.01523625 0.03346743 0.00497531 0.00227498 0.00797431 0.00164964 0.00620255 0.00830425 0.02362009 0.01315783 0.03377488 0.00169089 0.03102924 0.11185380 0.02564581 0.02530610 
0.01530089 0.03391278 0.00497976 0.00229408 0.00796718 0.00165036 0.00617123 0.00836364 0.02412344 0.01296747 0.03342510 0.00168858 0.03088011 0.11333146 0.02577699 0.02640405 
0.01536838 0.03434425 0.00498232 0.00231169 0.00795481 0.00165067 0.00613983 0.00842044 0.02465940 0.01276227 0.03302922 0.00168594 0.03069661 0.11471432 0.02589223 0.02745946 
0.01543880 0.03475925 0.00498289 0.00232772 0.00793737 0.00165054 0.00610838 0.00847451 0.02522647 0.01254320 0.03258917 0.00168299 0.03047999 0.11599786 0.02599140 0.02846633 
0.01551222 0.03515524 0.00498140 0.00234211 0.00791505 0.00164998 0.00607688 0.00852572 0.02582292 0.01231134 0.03210708 0.00167973 0.03023162 0.11717798 0.02607444 0.02941897 
0.01558874 0.03552975 0.00497774 0.00235480 0.00788804 0.00164897 0.00604534 0.00857394 0.02644682 0.01206782 0.03158530 0.00167615 0.02995305 0.11825103 0.02614133 0.03031204 
0.01566842 0.03588039 0.00497184 0.00236572 0.00785653 0.00164750 0.00601376 0.00861911 0.02709603 0.01181385 0.03102632 0.00167229 0.02964592 0.11921384 0.02619213 0.03114059 
0.01575135 0.03620490 0.00496360 0.00237482 0.00782070 0.00164555 0.00598212 0.00866116 0.02776822 0.01155073 0.03043281 0.00166814 0.02931201 0.12006372 0.02622691 0.03190008 
0.01583759 0.03650112 0.00495293 0.00238206 0.00778074 0.00164312 0.00595042 0.00870005 0.02846090 0.01127977 0.02980762 0.00166372 0.02895319 0.12079847 0.02624583 0.03258644 
0.01592722 0.03676704 0.00493973 0.00238741 0.00773684 0.00164020 0.00591863 0.00873580 0.02917137 0.01100237 0.02915369 0.00165906 0.02857145 0.12141640 0.02624908 0.03319605 
0.01602033 0.03700082 0.00492394 0.00239084 0.00768917 0.00163677 0.00588673 0.00876841 0.02989683 0.01071996 0.02847411 0.00165419 0.02816886 0.12191636 0.02623690 0.03372582 
0.01611700 0.03720078 0.00490547 0.00239233 0.00763791 0.00163284 0.00585471 0.00879792 0.03063430 0.01043402 0.02777208 0.00164912 0.02774756 0.12229771 0.02620960 0.03417315 
0.01621730 0.03736543 0.00488423 0.00239186 0.00758324 0.00162840 0.00582253 0.00882441 0.03138071 0.01014604 0.02705087 0.00164389 0.02730975 0.12256036 0.02616751 0.03453599 
0.01632133 0.03749346 0.00486017 0.00238945 0.00752533 0.00162344 0.00579017 0.00884797 0.03213286 0.00985755 0.02631385 0.00163853 0.02685770 0.12270475 0.02611101 0.03481284 
0.01642917 0.03758381 0.00483322 0.00238510 0.00746434 0.00161797 0.00575762 0.00886872 0.03288748 0.00957008 0.02556441 0.00163308 0.02639370 0.12273186 0.02604053 0.03500278 
0.01654091 0.03763561 0.00480333 0.00237882 0.00740045 0.00161199 0.00572485 0.00888677 0.03364122 0.00928518 0.02480601 0.00162759 0.02592007 0.12264320 0.02595656 0.03510542 
0.01665665 0.03764823 0.00477047 0.00237065 0.00733381 0.00160550 0.00569185 0.00890229 0.03439071 0.00900439 0.02404211 0.00162208 0.02543916 0.12244084 0.02585959 0.03512097 
0.01677649 0.03762125 0.00473459 0.00236062 0.00726458 0.00159851 0.00565861 0.00891545 0.03513254 0.00872923 0.02327618 0.00161661 0.02495330 0.12212732 0.02575018 0.03505020 
0.01690052 0.03755453 0.00469569 0.00234879 0.00719292 0.00159103 0.00562513 0.00892643 0.03586327 0.00846122 0.02251167 0.00161122 0.02446483 0.12170575 0.02562891 0.03489444 
0.01702883 0.03744815 0.00465376 0.00233521 0.00711898 0.00158307 0.00559142 0.00893542 0.03657952 0.00820184 0.02175201 0.00160597 0.02397606 0.12117968 0.02549640 0.03465557 
0.01716154 0.03730244 0.00460881 0.00231995 0.00704291 0.00157465 0.00555749 0.00894265 0.03727792 0.00795252 0.02100056 0.00160090 0.02348926 0.12055319 0.02535330 0.03433604 
0.01729874 0.03711797 0.00456087 0.00230310 0.00696486 0.00156580 0.00552337 0.00894832 0.03795517 0.00771467 0.02026062 0.00159606 0.02300666 0.11983078 0.02520029 0.03393881 
0.01744051 0.03689557 0.00451000 0.00228474 0.00688499 0.00155654 0.00548908 0.00895266 0.03860805 0.00748963 0.01953541 0.00159151 0.02253045 0.11901741 0.02503806 0.03346733 
0.01758696 0.03663630 0.00445625 0.00226497 0.00680344 0.00154690 0.00545467 0.00895590 0.03923343 0.00727867 0.01882805 0.00158731 0.02206272 0.11811845 0.02486733 0.03292556 
0.01773817 0.03634145 0.00439971 0.00224390 0.00672036 0.00153690 0.00542019 0.00895828 0.03982833 0.00708302 0.01814154 0.00158349 0.02160550 0.11713964 0.02468886 0.03231792 
0.01789420 0.03601256 0.00434048 0.00222166 0.00663591 0.00152660 0.00538571 0.00896002 0.04038990 0.00690381 0.01747876 0.00158012 0.02116076 0.11608711 0.02450338 0.03164923 
0.01805514 0.03565138 0.00427868 0.00219836 0.00655023 0.00151602 0.00535132 0.00896135 0.04091543 0.00674208 0.01684244 0.00157726 0.02073033 0.11496726 0.02431167 0.03092475 
0.01822104 0.03525987 0.00421447 0.00217415 0.00646348 0.00150522 0.00531709 0.00896250 0.04140244 0.00659879 0.01623515 0.00157495 0.02031596 0.11378682 0.02411451 0.03015005 
0.01839193 0.03484020 0.00414800 0.00214918 0.00637581 0.00149424 0.00528313 0.00896368 0.04184860 0.00647481 0.01565930 0.00157324 0.01991929 0.11255276 0.02391267 0.02933108 
0.01856785 0.03439472 0.00407946 0.00212359 0.00628737 0.00148313 0.00524956 0.00896510 0.04225183 0.00637089 0.01511712 0.00157219 0.01954184 0.11127226 0.02370693 0.02847403 
0.01874878 0.03392596 0.00400906 0.00209755 0.00619834 0.00147196 0.00521650 0.00896695 0.04261026 0.00628768 0.01461065 0.00157184 0.01918500 0.10995266 0.02349808 0.02758536 
0.01893473 0.03343660 0.00393702 0.00207122 0.00610887 0.00146079 0.00518408 0.00896942 0.04292230 0.00622573 0.01414172 0.00157223 0.01885004 0.10860146 0.02328688 0.02667172 
0.01912564 0.03292949 0.00386360 0.00204479 0.00601912 0.00144967 0.00515246 0.00897267 0.04318657 0.00618545 0.01371199 0.00157342 0.01853809 0.10722622 0.02307410 0.02573990 
0.01932144 0.03240757 0.00378906 0.00201842 0.00592927 0.00143867 0.00512179 0.00897685 0.04340199 0.00616715 0.01332287 0.00157543 0.01825015 0.10583458 0.02286049 0.02479684 
0.01952203 0.03187392 0.00371368 0.00199231 0.00583947 0.00142788 0.00509224 0.00898208 0.04356775 0.00617101 0.01297557 0.00157831 0.01798706 0.10443414 0.02264677 0.02384950 
0.01972728 0.03133169 0.00363778 0.00196664 0.00574992 0.00141735 0.00506398 0.00898849 0.04368334 0.00619708 0.01267108 0.00158209 0.01774955 0.10303251 0.02243367 0.02290488 
0.01993702 0.03078409 0.00356167 0.00194160 0.00566076 0.00140717 0.00503719 0.00899615 0.04374852 0.00624531 0.01241016 0.00158679 0.01753818 0.10163717 0.02222186 0.02196995 
0.02015104 0.03023441 0.00348568 0.00191738 0.00557220 0.00139741 0.00501206 0.00900513 0.04376335 0.00631549 0.01219334 0.00159245 0.01735337 0.10025551 0.02201201 0.02105160 
0.02036909 0.02968594 0.00341017 0.00189419 0.00548439 0.00138815 0.00498879 0.00901548 0.04372819 0.00640732 0.01202095 0.00159907 0.01719539 0.09889473 0.02180475 0.02015658 
0.02059088 0.02914199 0.00333549 0.00187220 0.00539753 0.00137948 0.00496755 0.00902720 0.04364371 0.00652036 0.01189307 0.00160668 0.01706439 0.09756182 0.02160068 0.01929150 
0.02081607 0.02860585 0.00326202 0.00185161 0.00531178 0.00137147 0.00494856 0.00904030 0.04351086 0.00665405 0.01180955 0.00161528 0.01696036 0.09626353 0.02140036 0.01846273 
0.02104429 0.02808079 0.00319013 0.00183261 0.00522733 0.00136421 0.00493201 0.00905474 0.04333087 0.00680771 0.01177004 0.00162487 0.01688316 0.09500630 0.02120431 0.01767640 
0.02127510 0.02757000 0.00312020 0.00181539 0.00514435 0.00135777 0.00491808 0.00907047 0.04310529 0.00698056 0.01177398 0.00163547 0.01683249 0.09379627 0.02101300 0.01693834 
0.02150803 0.02707661 0.00305263 0.00180013 0.00506302 0.00135225 0.00490698 0.00908741 0.04283590 0.00717168 0.01182056 0.00164705 0.01680794 0.09263920 0.02082690 0.01625405 
0.02174255 0.02660365 0.00298781 0.00178700 0.00498351 0.00134772 0.00489889 0.00910546 0.04252479 0.00738008 0.01190880 0.00165961 0.01680898 0.09154046 0.02064637 0.01562865 
0.02197809 0.02615405 0.00292611 0.00177617 0.00490598 0.00134426 0.00489398 0.00912447 0.04217428 0.00760466 0.01203753 0.00167312 0.01683494 0.09050499 0.02047178 0.01506686 
0.02221402 0.02573057 0.00286791 0.00176781 0.00483062 0.00134194 0.00489244 0.00914432 0.04178693 0.00784420 0.01220535 0.00168757 0.01688503 0.08953729 0.02030343 0.01457296 
0.02244965 0.02533585 0.00281361 0.00176206 0.00475757 0.00134084 0.00489441 0.00916483 0.04136553 0.00809744 0.01241073 0.00170292 0.01695836 0.08864138 0.02014157 0.01415076 
0.02268428 0.02497235 0.00276355 0.00175907 0.00468700 0.00134103 0.00490005 0.00918580 0.04091309 0.00836299 0.01265193 0.00171913 0.01705394 0.08782079 0.01998639 0.01380360 
0.02291714 0.02464235 0.00271810 0.00175895 0.00461904 0.00134257 0.00490950 0.00920703 0.04043278 0.00863943 0.01292708 0.00173617 0.01717066 0.08707852 0.01983807 0.01353429 
0.02314740 0.02434790 0.00267759 0.00176184 0.00455384 0.00134554 0.00492287 0.00922829 0.03992797 0.00892525 0.01323415 0.00175399 0.01730733 0.08641706 0.01969670 0.01334511 
0.02337421 0.02409089 0.00264235 0.00176783 0.00449154 0.00134998 0.00494026 0.00924933 0.03940216 0.00921891 0.01357098 0.00177252 0.01746269 0.08583835 0.01956234 0.01323782 
0.02359669 0.02387294 0.00261267 0.00177701 0.00443225 0.00135594 0.00496177 0.00926992 0.03885898 0.00951880 0.01393529 0.00179172 0.01763540 0.08534381 0.01943500 0.01321360 
0.02381388 0.02369545 0.00258883 0.00178945 0.00437610 0.00136348 0.00498746 0.00928977 0.03830216 0.00982329 0.01432468 0.00181151 0.01782403 0.08493429 0.01931465 0.01327309 
0.02402485 0.02355958 0.00257108 0.00180522 0.00432319 0.00137263 0.00501737 0.00930861 0.03773552 0.01013071 0.01473667 0.00183183 0.01802712 0.08461010 0.01920122 0.01341635 
0.02422858 0.02346622 0.00255965 0.00182433 0.00427360 0.00138343 0.00505153 0.00932616 0.03716292 0.01043939 0.01516870 0.00185260 0.01824314 0.08437102 0.01909457 0.01364291 
0.02442407 0.02341602 0.00255473 0.00184683 0.00422744 0.00139589 0.00508994 0.00934213 0.03658826 0.01074764 0.01561814 0.00187375 0.01847054 0.08421629 0.01899456 0.01395170 
0.02461028 0.02340936 0.00255648 0.00187270 0.00418475 0.00141004 0.00513257 0.00935623 0.03601542 0.01105376 0.01608230 0.00189517 0.01870771 0.08414464 0.01890097 0.01434114 
