0.06214718 0.03350475 0.00835876 0.00332126 0.00048031 0.00137930 0.01150725 0.00187292 0.03638275 0.00209328 0.00232879 0.04147366 0.00571830 0.00530784 0.00338182 0.00121966 
0.06072408 0.03416550 0.00832921 0.00335949 0.00047368 0.00136933 0.01148433 0.00183137 0.03543214 0.00211826 0.00232963 0.04209964 0.00595870 0.00533632 0.00337172 0.00122426 
0.05927158 0.03480081 0.00831359 0.00339470 0.00046806 0.00136089 0.01145774 0.00179414 0.03448027 0.00214429 0.00233100 0.04274154 0.00620361 0.00536138 0.00336524 0.00122914 
0.05779512 0.03540915 0.00831143 0.00342672 0.00046351 0.00135405 0.01142779 0.00176153 0.03353237 0.00217132 0.00233301 0.04339732 0.00645200 0.00538300 0.00336256 0.00123429 
0.05630021 0.03598917 0.00832219 0.00345539 0.00046008 0.00134884 0.01139481 0.00173382 0.03259368 0.00219933 0.00233574 0.04406479 0.00670278 0.00540116 0.00336387 0.00123967 
0.05479237 0.03653979 0.00834528 0.00348056 0.00045782 0.00134533 0.01135909 0.00171127 0.03166936 0.00222825 0.00233927 0.04474168 0.00695486 0.00541586 0.00336930 0.00124527 
0.05327715 0.03706010 0.00838007 0.00350210 0.00045677 0.00134354 0.01132092 0.00169416 0.03076449 0.00225804 0.00234366 0.04542559 0.00720711 0.00542709 0.00337898 0.00125106 
0.05176008 0.03754944 0.00842587 0.00351991 0.00045697 0.00134351 0.01128057 0.00168271 0.02988402 0.00228864 0.00234899 0.04611406 0.00745840 0.00543487 0.00339302 0.00125702 
0.05024665 0.03800735 0.00848196 0.00353388 0.00045845 0.00134525 0.01123829 0.00167714 0.02903274 0.00231998 0.00235529 0.04680455 0.00770758 0.00543920 0.00341148 0.00126311 
0.04874226 0.03843362 0.00854758 0.00354396 0.00046124 0.00134879 0.01119432 0.00167767 0.02821528 0.00235199 0.00236262 0.04749442 0.00795351 0.00544012 0.00343443 0.00126930 
0.04725226 0.03882822 0.00862192 0.00355007 0.00046537 0.00135413 0.01114887 0.00168447 0.02743604 0.00238460 0.00237099 0.04818102 0.00819506 0.00543766 0.00346190 0.00127558 
0.04578185 0.03919136 0.00870418 0.00355219 0.00047084 0.00136127 0.01110214 0.00169772 0.02669920 0.00241772 0.00238043 0.04886162 0.00843110 0.00543184 0.00349388 0.00128190 
0.04433610 0.03952342 0.00879349 0.00355030 0.00047766 0.00137021 0.01105429 0.00171755 0.02600865 0.00245128 0.00239095 0.04953347 0.00866052 0.00542271 0.00353035 0.00128825 
0.04291993 0.03982501 0.00888899 0.00354442 0.00048584 0.00138092 0.01100547 0.00174407 0.02536802 0.00248518 0.00240254 0.05019380 0.00888226 0.00541032 0.00357126 0.00129460 
0.04153804 0.04009691 0.00898979 0.00353455 0.00049538 0.00139338 0.01095582 0.00177738 0.02478063 0.00251933 0.00241519 0.05083984 0.00909527 0.00539470 0.00361654 0.00130091 
0.04019496 0.04034007 0.00909501 0.00352076 0.00050627 0.00140757 0.01090543 0.00181755 0.02424944 0.00255365 0.00242888 0.05146882 0.00929854 0.00537592 0.00366607 0.00130715 
0.03889496 0.04055562 0.00920375 0.00350310 0.00051849 0.00142344 0.01085438 0.00186461 0.02377710 0.00258803 0.00244356 0.05207796 0.00949112 0.00535404 0.00371973 0.00131331 
0.03764206 0.04074483 0.00931510 0.00348165 0.00053202 0.00144093 0.01080273 0.00191857 0.02336588 0.00262238 0.00245919 0.05266456 0.00967211 0.00532912 0.00377737 0.00131935 
0.03644004 0.04090912 0.00942815 0.00345654 0.00054684 0.00146001 0.01075053 0.00197942 0.02301767 0.00265660 0.00247572 0.05322593 0.00984065 0.00530121 0.00383881 0.00132525 
0.03529235 0.04105001 0.00954203 0.00342787 0.00056292 0.00148060 0.01069777 0.00204711 0.02273397 0.00269059 0.00249308 0.05375945 0.00999596 0.00527040 0.00390383 0.00133098 
0.03420216 0.04116915 0.00965583 0.00339578 0.00058023 0.00150264 0.01064446 0.00212157 0.02251588 0.00272426 0.00251119 0.05426255 0.01013731 0.00523675 0.00397223 0.00133651 
0.03317232 0.04126828 0.00976870 0.00336044 0.00059871 0.00152604 0.01059056 0.00220268 0.02236412 0.00275750 0.00252997 0.05473277 0.01026407 0.00520034 0.00404375 0.00134183 
0.03220533 0.04134921 0.00987977 0.00332201 0.00061834 0.00155074 0.01053603 0.00229030 0.02227898 0.00279022 0.00254933 0.05516772 0.01037566 0.00516125 0.00411814 0.00134691 
0.03130338 0.04141379 0.00998823 0.00328068 0.00063905 0.00157662 0.01048080 0.00238428 0.02226034 0.00282233 0.00256917 0.05556515 0.01047158 0.00511957 0.00419509 0.00135174 
0.03046826 0.04146394 0.01009325 0.00323666 0.00066080 0.00160361 0.01042480 0.00248441 0.02230770 0.00285372 0.00258938 0.05592288 0.01055143 0.00507539 0.00427433 0.00135628 
0.02970144 0.04150158 0.01019408 0.00319016 0.00068352 0.00163160 0.01036791 0.00259047 0.02242011 0.00288432 0.00260985 0.05623891 0.01061488 0.00502878 0.00435554 0.00136053 
0.02900399 0.04152866 0.01028996 0.00314141 0.00070716 0.00166049 0.01031004 0.00270219 0.02259628 0.00291402 0.00263046 0.05651137 0.01066170 0.00497986 0.00443839 0.00136447 
0.02837662 0.04154708 0.01038018 0.00309063 0.00073166 0.00169016 0.01025105 0.00281930 0.02283450 0.00294274 0.00265109 0.05673852 0.01069172 0.00492873 0.00452255 0.00136808 
0.02781965 0.04155876 0.01046407 0.00303809 0.00075694 0.00172051 0.01019080 0.00294146 0.02313269 0.00297040 0.00267161 0.05691881 0.01070490 0.00487548 0.00460768 0.00137135 
0.02733304 0.04156551 0.01054099 0.00298402 0.00078293 0.00175142 0.01012915 0.00306835 0.02348842 0.00299692 0.00269189 0.05705087 0.01070125 0.00482024 0.00469343 0.00137428 
0.02691637 0.04156915 0.01061037 0.00292868 0.00080957 0.00178276 0.01006594 0.00319959 0.02389892 0.00302222 0.00271179 0.05713350 0.01068090 0.00476311 0.00477945 0.00137684 
0.02656883 0.04157135 0.01067165 0.00287234 0.00083679 0.00181442 0.01000101 0.00333479 0.02436107 0.00304623 0.00273119 0.05716570 0.01064405 0.00470422 0.00486540 0.00137904 
0.02628927 0.04157375 0.01072435 0.00281527 0.00086449 0.00184628 0.00993419 0.00347352 0.02487147 0.00306889 0.00274994 0.05714669 0.01059099 0.00464369 0.00495092 0.00138087 
0.02607616 0.04157784 0.01076800 0.00275772 0.00089262 0.00187822 0.00986530 0.00361535 0.02542644 0.00309013 0.00276792 0.05707589 0.01052210 0.00458167 0.00503566 0.00138233 
0.02592763 0.04158500 0.01080222 0.00269997 0.00092109 0.00191010 0.00979418 0.00375980 0.02602204 0.00310989 0.00278498 0.05695293 0.01043783 0.00451829 0.00511928 0.00138342 
0.02584146 0.04159650 0.01082667 0.00264227 0.00094983 0.00194180 0.00972065 0.00390640 0.02665409 0.00312813 0.00280100 0.05677769 0.01033873 0.00445369 0.00520146 0.00138413 
0.02581511 0.04161344 0.01084105 0.00258489 0.00097876 0.00197321 0.00964454 0.00405465 0.02731821 0.00314479 0.00281584 0.05655027 0.01022541 0.00438803 0.00528187 0.00138447 
0.02584573 0.04163677 0.01084512 0.00252809 0.00100780 0.00200421 0.00956567 0.00420402 0.02800987 0.00315983 0.00282937 0.05627102 0.01009855 0.00432147 0.00536019 0.00138444 
0.02593019 0.04166731 0.01083872 0.00247210 0.00103688 0.00203466 0.00948388 0.00435398 0.02872437 0.00317322 0.00284148 0.05594051 0.00995889 0.00425418 0.00543613 0.00138406 
0.02606505 0.04170569 0.01082171 0.00241717 0.00106592 0.00206447 0.00939901 0.00450400 0.02945689 0.00318492 0.00285204 0.05555959 0.00980726 0.00418632 0.00550942 0.00138332 
0.02624665 0.04175238 0.01079403 0.00236354 0.00109485 0.00209351 0.00931092 0.00465353 0.03020256 0.00319491 0.00286094 0.05512934 0.00964453 0.00411809 0.00557977 0.00138225 
0.02647108 0.04180766 0.01075566 0.00231142 0.00112359 0.00212168 0.00921944 0.00480201 0.03095643 0.00320316 0.00286808 0.05465111 0.00947160 0.00404966 0.00564696 0.00138084 
0.02673423 0.04187167 0.01070666 0.00226103 0.00115208 0.00214887 0.00912447 0.00494887 0.03171356 0.00320967 0.00287335 0.05412647 0.00928944 0.00398122 0.00571076 0.00137912 
0.02703179 0.04194434 0.01064713 0.00221255 0.00118024 0.00217498 0.00902586 0.00509355 0.03246898 0.00321443 0.00287666 0.05355728 0.00909906 0.00391299 0.00577096 0.00137709 
0.02735931 0.04202544 0.01057723 0.00216618 0.00120801 0.00219993 0.00892352 0.00523550 0.03321781 0.00321742 0.00287793 0.05294564 0.00890149 0.00384515 0.00582738 0.00137478 
0.02771220 0.04211459 0.01049716 0.00212208 0.00123533 0.00222361 0.00881735 0.00537416 0.03395521 0.00321866 0.00287708 0.05229389 0.00869779 0.00377793 0.00587988 0.00137220 
0.02808576 0.04221121 0.01040720 0.00208039 0.00126213 0.00224596 0.00870728 0.00550897 0.03467647 0.00321814 0.00287404 0.05160464 0.00848902 0.00371154 0.00592831 0.00136937 
0.02847523 0.04231460 0.01030767 0.00204126 0.00128836 0.00226688 0.00859324 0.00563940 0.03537701 0.00321589 0.00286876 0.05088072 0.00827628 0.00364620 0.00597257 0.00136631 
0.02887578 0.04242387 0.01019893 0.00200481 0.00131396 0.00228632 0.00847520 0.00576492 0.03605241 0.00321191 0.00286118 0.05012521 0.00806065 0.00358214 0.00601259 0.00136304 
0.02928260 0.04253803 0.01008141 0.00197113 0.00133887 0.00230422 0.00835314 0.00588500 0.03669845 0.00320624 0.00285128 0.04934143 0.00784323 0.00351958 0.00604831 0.00135958 
0.02969087 0.04265592 0.00995557 0.00194030 0.00136306 0.00232051 0.00822705 0.00599917 0.03731111 0.00319891 0.00283903 0.04853291 0.00762509 0.00345875 0.00607971 0.00135595 
0.03009583 0.04277630 0.00982193 0.00191239 0.00138648 0.00233515 0.00809695 0.00610693 0.03788663 0.00318994 0.00282441 0.04770340 0.00740729 0.00339990 0.00610678 0.00135218 
0.03049277 0.04289779 0.00968104 0.00188745 0.00140908 0.00234811 0.00796288 0.00620784 0.03842151 0.00317937 0.00280743 0.04685685 0.00719086 0.00334324 0.00612956 0.00134829 
0.03087711 0.04301894 0.00953349 0.00186549 0.00143082 0.00235935 0.00782493 0.00630147 0.03891253 0.00316726 0.00278808 0.04599741 0.00697681 0.00328903 0.00614810 0.00134429 
0.03124441 0.04313822 0.00937992 0.00184654 0.00145168 0.00236885 0.00768316 0.00638741 0.03935679 0.00315364 0.00276639 0.04512942 0.00676612 0.00323749 0.00616248 0.00134023 
0.03159039 0.04325403 0.00922099 0.00183057 0.00147161 0.00237660 0.00753771 0.00646530 0.03975169 0.00313858 0.00274239 0.04425737 0.00655970 0.00318885 0.00617281 0.00133610 
0.03191095 0.04336474 0.00905741 0.00181756 0.00149060 0.00238259 0.00738871 0.00653480 0.04009498 0.00312212 0.00271614 0.04338593 0.00635845 0.00314336 0.00617922 0.00133195 
0.03220223 0.04346869 0.00888989 0.00180746 0.00150861 0.00238683 0.00723634 0.00659560 0.04038476 0.00310434 0.00268768 0.04251987 0.00616319 0.00310123 0.00618186 0.00132780 
0.03246062 0.04356419 0.00871919 0.00180021 0.00152563 0.00238931 0.00708079 0.00664744 0.04061949 0.00308529 0.00265708 0.04166413 0.00597469 0.00306269 0.00618092 0.00132366 
0.03268277 0.04364958 0.00854607 0.00179573 0.00154164 0.00239006 0.00692229 0.00669008 0.04079798 0.00306505 0.00262443 0.04082370 0.00579365 0.00302796 0.00617660 0.00131955 
0.03286565 0.04372322 0.00837132 0.00179393 0.00155663 0.00238912 0.00676108 0.00672333 0.04091941 0.00304370 0.00258982 0.04000371 0.00562073 0.00299725 0.00616912 0.00131551 
0.03300655 0.04378350 0.00819574 0.00179469 0.00157057 0.00238649 0.00659746 0.00674704 0.04098337 0.00302131 0.00255336 0.03920931 0.00545650 0.00297077 0.00615874 0.00131155 
0.03310308 0.04382887 0.00802014 0.00179789 0.00158348 0.00238224 0.00643173 0.00676110 0.04098978 0.00299797 0.00251516 0.03844573 0.00530147 0.00294870 0.00614572 0.00130769 
0.03315325 0.04385787 0.00784532 0.00180339 0.00159533 0.00237641 0.00626422 0.00676544 0.04093894 0.00297375 0.00247535 0.03771820 0.00515605 0.00293125 0.00613034 0.00130395 
0.03315542 0.04386912 0.00767210 0.00181104 0.00160613 0.00236904 0.00609532 0.00676005 0.04083154 0.00294875 0.00243407 0.03703196 0.00502061 0.00291858 0.00611291 0.00130035 
0.03310838 0.04386134 0.00750128 0.00182070 0.00161587 0.00236021 0.00592542 0.00674494 0.04066861 0.00292306 0.00239148 0.03639223 0.00489542 0.00291086 0.00609374 0.00129690 
0.03301129 0.04383338 0.00733367 0.00183218 0.00162457 0.00234997 0.00575494 0.00672018 0.04045152 0.00289678 0.00234772 0.03580420 0.00478069 0.00290824 0.00607317 0.00129362 
0.03286377 0.04378422 0.00717004 0.00184531 0.00163222 0.00233841 0.00558433 0.00668588 0.04018199 0.00286999 0.00230297 0.03527297 0.00467652 0.00291086 0.00605155 0.00129053 
0.03266585 0.04371299 0.00701116 0.00185992 0.00163884 0.00232559 0.00541408 0.00664218 0.03986208 0.00284280 0.00225742 0.03480356 0.00458298 0.00291886 0.00602924 0.00128764 
0.03241800 0.04361896 0.00685778 0.00187581 0.00164442 0.00231160 0.00524470 0.00658930 0.03949412 0.00281530 0.00221124 0.03440088 0.00450003 0.00293234 0.00600661 0.00128496 
0.03212113 0.04350158 0.00671061 0.00189279 0.00164899 0.00229652 0.00507673 0.00652747 0.03908076 0.00278761 0.00216464 0.03406969 0.00442757 0.00295140 0.00598404 0.00128251 
0.03177660 0.04336048 0.00657036 0.00191068 0.00165255 0.00228046 0.00491071 0.00645698 0.03862491 0.00275981 0.00211782 0.03381461 0.00436541 0.00297612 0.00596192 0.00128028 
0.03138620 0.04319546 0.00643766 0.00192927 0.00165512 0.00226349 0.00474724 0.00637814 0.03812973 0.00273202 0.00207099 0.03364004 0.00431332 0.00300656 0.00594065 0.00127829 
0.03095216 0.04300650 0.00631313 0.00194837 0.00165671 0.00224572 0.00458692 0.00629133 0.03759860 0.00270434 0.00202436 0.03355021 0.00427098 0.00304278 0.00592063 0.00127655 
0.03047715 0.04279380 0.00619736 0.00196780 0.00165734 0.00222724 0.00443038 0.00619696 0.03703510 0.00267687 0.00197816 0.03354907 0.00423801 0.00308481 0.00590227 0.00127506 
0.02996424 0.04255771 0.00609087 0.00198736 0.00165704 0.00220816 0.00427825 0.00609546 0.03644301 0.00264971 0.00193261 0.03364037 0.00421397 0.00313265 0.00588599 0.00127383 
0.02941693 0.04229881 0.00599414 0.00200688 0.00165581 0.00218858 0.00413122 0.00598730 0.03582623 0.00262297 0.00188795 0.03382753 0.00419839 0.00318632 0.00587219 0.00127285 
0.02883910 0.04201783 0.00590759 0.00202617 0.00165368 0.00216860 0.00398994 0.00587300 0.03518881 0.00259675 0.00184440 0.03411370 0.00419072 0.00324578 0.00586130 0.00127213 
0.02823502 0.04171574 0.00583160 0.00204507 0.00165067 0.00214833 0.00385512 0.00575311 0.03453487 0.00257115 0.00180219 0.03450172 0.00419037 0.00331100 0.00585372 0.00127166 
0.02760931 0.04139364 0.00576649 0.00206343 0.00164680 0.00212786 0.00372745 0.00562818 0.03386861 0.00254626 0.00176158 0.03499408 0.00419673 0.00338193 0.00584988 0.00127145 
0.02696691 0.04105284 0.00571250 0.00208108 0.00164209 0.00210731 0.00360764 0.00549882 0.03319428 0.00252219 0.00172278 0.03559291 0.00420913 0.00345849 0.00585017 0.00127149 
0.02631310 0.04069482 0.00566983 0.00209789 0.00163657 0.00208677 0.00349640 0.00536563 0.03251613 0.00249903 0.00168603 0.03629997 0.00422689 0.00354059 0.00585502 0.00127177 
0.02565343 0.04032120 0.00563862 0.00211374 0.00163027 0.00206635 0.00339443 0.00522927 0.03183840 0.00247685 0.00165156 0.03711666 0.00424929 0.00362814 0.00586483 0.00127230 
0.02499370 0.03993376 0.00561892 0.00212852 0.00162320 0.00204614 0.00330246 0.00509038 0.03116527 0.00245576 0.00161960 0.03804396 0.00427562 0.00372100 0.00587998 0.00127306 
0.02433993 0.03953442 0.00561074 0.00214211 0.00161539 0.00202623 0.00322118 0.00494963 0.03050087 0.00243583 0.00159038 0.03908244 0.00430513 0.00381904 0.00590087 0.00127404 
0.02369835 0.03912522 0.00561401 0.00215444 0.00160687 0.00200673 0.00315129 0.00480771 0.02984921 0.00241714 0.00156411 0.04023226 0.00433708 0.00392212 0.00592789 0.00127524 
0.02307533 0.03870832 0.00562860 0.00216544 0.00159767 0.00198772 0.00309347 0.00466530 0.02921420 0.00239975 0.00154100 0.04149316 0.00437074 0.00403006 0.00596140 0.00127665 
0.02247736 0.03828597 0.00565430 0.00217505 0.00158781 0.00196928 0.00304839 0.00452310 0.02859959 0.00238375 0.00152127 0.04286442 0.00440537 0.00414268 0.00600177 0.00127825 
0.02191102 0.03786049 0.00569085 0.00218324 0.00157732 0.00195151 0.00301668 0.00438180 0.02800896 0.00236918 0.00150509 0.04434492 0.00444025 0.00425980 0.00604935 0.00128003 
0.02138294 0.03743429 0.00573794 0.00218998 0.00156623 0.00193447 0.00299898 0.00424209 0.02744569 0.00235610 0.00149267 0.04593308 0.00447468 0.00438122 0.00610448 0.00128198 
0.02089973 0.03700981 0.00579516 0.00219527 0.00155457 0.00191823 0.00299586 0.00410467 0.02691296 0.00234456 0.00148417 0.04762689 0.00450798 0.00450671 0.00616748 0.00128409 
0.02046798 0.03658951 0.00586207 0.00219911 0.00154238 0.00190288 0.00300790 0.00397020 0.02641372 0.00233460 0.00147977 0.04942392 0.00453951 0.00463605 0.00623865 0.00128634 
0.02009419 0.03617588 0.00593816 0.00220154 0.00152967 0.00188847 0.00303560 0.00383936 0.02595065 0.00232625 0.00147961 0.05132128 0.00456865 0.00476901 0.00631830 0.00128872 
0.01978477 0.03577141 0.00602287 0.00220260 0.00151650 0.00187505 0.00307945 0.00371281 0.02552618 0.00231954 0.00148383 0.05331569 0.00459482 0.00490535 0.00640669 0.00129122 
0.01954592 0.03537853 0.00611559 0.00220235 0.00150288 0.00186268 0.00313988 0.00359116 0.02514247 0.00231448 0.00149256 0.05540345 0.00461750 0.00504482 0.00650409 0.00129382 
0.01938368 0.03499967 0.00621566 0.00220087 0.00148886 0.00185141 0.00321729 0.00347504 0.02480137 0.00231109 0.00150590 0.05758046 0.00463619 0.00518717 0.00661073 0.00129650 
0.01930381 0.03463719 0.00632237 0.00219824 0.00147448 0.00184128 0.00331199 0.00336502 0.02450445 0.00230937 0.00152395 0.05984222 0.00465047 0.00533213 0.00672683 0.00129925 
0.01931182 0.03429336 0.00643498 0.00219457 0.00145977 0.00183232 0.00342428 0.00326169 0.02425298 0.00230931 0.00154678 0.06218389 0.00465996 0.00547945 0.00685257 0.00130206 
0.01941288 0.03397038 0.00655271 0.00218997 0.00144477 0.00182456 0.00355436 0.00316555 0.02404789 0.00231089 0.00157445 0.06460024 0.00466432 0.00562884 0.00698813 0.00130490 
0.01961177 0.03367034 0.00667476 0.00218459 0.00142953 0.00181802 0.00370239 0.00307712 0.02388982 0.00231410 0.00160700 0.06708575 0.00466329 0.00578006 0.00713366 0.00130778 
0.01991291 0.03339519 0.00680029 0.00217855 0.00141408 0.00181273 0.00386845 0.00299685 0.02377909 0.00231889 0.00164445 0.06963456 0.00465667 0.00593281 0.00728926 0.00131066 
0.02032027 0.03314677 0.00692846 0.00217201 0.00139847 0.00180869 0.00405255 0.00292518 0.02371571 0.00232524 0.00168681 0.07224053 0.00464432 0.00608684 0.00745504 0.00131354 
0.02083733 0.03292677 0.00705840 0.00216514 0.00138276 0.00180590 0.00425466 0.00286248 0.02369937 0.00233308 0.00173405 0.07489726 0.00462615 0.00624186 0.00763106 0.00131641 
0.02146709 0.03273671 0.00718924 0.00215810 0.00136698 0.00180437 0.00447462 0.00280910 0.02372948 0.00234236 0.00178614 0.07759812 0.00460214 0.00639762 0.00781734 0.00131925 
0.02221202 0.03257794 0.00732012 0.00215107 0.00135119 0.00180409 0.00471223 0.00276535 0.02380511 0.00235302 0.00184301 0.08033627 0.00457233 0.00655384 0.00801389 0.00132204 
0.02307401 0.03245165 0.00745016 0.00214424 0.00133543 0.00180505 0.00496721 0.00273148 0.02392508 0.00236499 0.00190459 0.08310470 0.00453685 0.00671025 0.00822069 0.00132478 
0.02405438 0.03235884 0.00757851 0.00213780 0.00131977 0.00180723 0.00523919 0.00270769 0.02408791 0.00237817 0.00197077 0.08589622 0.00449584 0.00686659 0.00843765 0.00132746 
0.02515384 0.03230030 0.00770433 0.00213192 0.00130426 0.00181061 0.00552772 0.00269417 0.02429187 0.00239248 0.00204144 0.08870358 0.00444954 0.00702261 0.00866470 0.00133006 
0.02637250 0.03227664 0.00782682 0.00212682 0.00128894 0.00181517 0.00583228 0.00269101 0.02453497 0.00240783 0.00211645 0.09151939 0.00439824 0.00717805 0.00890170 0.00133257 
0.02770979 0.03228827 0.00794518 0.00212267 0.00127389 0.00182087 0.00615226 0.00269828 0.02481499 0.00242411 0.00219563 0.09433624 0.00434226 0.00733265 0.00914847 0.00133499 
0.02916453 0.03233540 0.00805866 0.00211967 0.00125917 0.00182767 0.00648696 0.00271600 0.02512947 0.00244121 0.00227881 0.09714670 0.00428202 0.00748619 0.00940482 0.00133730 
0.03073486 0.03241802 0.00816656 0.00211801 0.00124482 0.00183555 0.00683562 0.00274414 0.02547580 0.00245902 0.00236577 0.09994335 0.00421795 0.00763840 0.00967050 0.00133950 
0.03241827 0.03253593 0.00826821 0.00211787 0.00123092 0.00184444 0.00719740 0.00278262 0.02585112 0.00247742 0.00245630 0.10271881 0.00415054 0.00778907 0.00994524 0.00134159 
0.03421157 0.03268873 0.00836300 0.00211943 0.00121753 0.00185432 0.00757135 0.00283129 0.02625248 0.00249628 0.00255014 0.10546580 0.00408031 0.00793797 0.01022872 0.00134355 
0.03611093 0.03287581 0.00845037 0.00212285 0.00120471 0.00186513 0.00795650 0.00288997 0.02667673 0.00251549 0.00264704 0.10817714 0.00400786 0.00808488 0.01052059 0.00134538 
0.03811186 0.03309640 0.00852983 0.00212831 0.00119253 0.00187681 0.00835177 0.00295845 0.02712063 0.00253489 0.00274672 0.11084579 0.00393376 0.00822958 0.01082045 0.00134708 
0.04020922 0.03334950 0.00860093 0.00213595 0.00118105 0.00188932 0.00875601 0.00303642 0.02758085 0.00255437 0.00284887 0.11346489 0.00385867 0.00837187 0.01112787 0.00134864 
0.04239726 0.03363397 0.00866333 0.00214592 0.00117034 0.00190259 0.00916804 0.00312358 0.02805398 0.00257377 0.00295320 0.11602780 0.00378323 0.00851156 0.01144238 0.00135007 
0.04466961 0.03394846 0.00871671 0.00215833 0.00116046 0.00191658 0.00958658 0.00321955 0.02853653 0.00259298 0.00305937 0.11852810 0.00370813 0.00864844 0.01176349 0.00135135 
0.04701931 0.03429148 0.00876087 0.00217331 0.00115149 0.00193122 0.01001033 0.00332391 0.02902503 0.00261184 0.00316703 0.12095964 0.00363405 0.00878233 0.01209065 0.00135249 
0.04943885 0.03466139 0.00879565 0.00219096 0.00114348 0.00194646 0.01043791 0.00343621 0.02951597 0.00263022 0.00327584 0.12331656 0.00356171 0.00891306 0.01242328 0.00135348 
0.05192020 0.03505639 0.00882099 0.00221136 0.00113650 0.00196223 0.01086791 0.00355595 0.03000586 0.00264799 0.00338543 0.12559331 0.00349180 0.00904046 0.01276077 0.00135434 
0.05445481 0.03547457 0.00883690 0.00223458 0.00113061 0.00197847 0.01129888 0.00368260 0.03049125 0.00266500 0.00349543 0.12778469 0.00342503 0.00916437 0.01310248 0.00135505 
0.05703368 0.03591388 0.00884346 0.00226066 0.00112588 0.00199514 0.01172934 0.00381558 0.03096875 0.00268113 0.00360546 0.12988582 0.00336209 0.00928462 0.01344774 0.00135562 
0.05964740 0.03637218 0.00884086 0.00228965 0.00112236 0.00201217 0.01215779 0.00395431 0.03143504 0.00269625 0.00371512 0.13189225 0.00330369 0.00940107 0.01379584 0.00135605 
0.06228618 0.03684723 0.00882932 0.00232156 0.00112012 0.00202950 0.01258269 0.00409814 0.03188691 0.00271022 0.00382402 0.13379989 0.00325048 0.00951358 0.01414604 0.00135635 
0.06493989 0.03733672 0.00880918 0.00235637 0.00111921 0.00204708 0.01300250 0.00424642 0.03232127 0.00272294 0.00393178 0.13560506 0.00320311 0.00962201 0.01449760 0.00135652 
0.06759812 0.03783825 0.00878083 0.00239408 0.00111967 0.00206485 0.01341568 0.00439846 0.03273515 0.00273428 0.00403798 0.13730452 0.00316221 0.00972623 0.01484971 0.00135656 
0.07025024 0.03834940 0.00874474 0.00243464 0.00112157 0.00208278 0.01382070 0.00455357 0.03312572 0.00274414 0.00414223 0.13889542 0.00312836 0.00982613 0.01520159 0.00135648 
0.07288544 0.03886768 0.00870144 0.00247798 0.00112495 0.00210080 0.01421602 0.00471102 0.03349036 0.00275241 0.00424414 0.14037539 0.00310211 0.00992158 0.01555241 0.00135627 
0.07549278 0.03939061 0.00865155 0.00252402 0.00112984 0.00211887 0.01460013 0.00487008 0.03382659 0.00275901 0.00434332 0.14174248 0.00308399 0.01001248 0.01590133 0.00135595 
0.07806124 0.03991567 0.00859573 0.00257267 0.00113630 0.00213696 0.01497155 0.00503001 0.03413213 0.00276384 0.00443938 0.14299519 0.00307446 0.01009872 0.01624750 0.00135553 
0.08057981 0.04044035 0.00853469 0.00262380 0.00114434 0.00215502 0.01532882 0.00519005 0.03440492 0.00276684 0.00453194 0.14413245 0.00307393 0.01018021 0.01659006 0.00135499 
0.08303752 0.04096216 0.00846923 0.00267728 0.00115401 0.00217302 0.01567054 0.00534945 0.03464311 0.00276793 0.00462065 0.14515364 0.00308279 0.01025686 0.01692814 0.00135436 
0.08542351 0.04147866 0.00840015 0.00273295 0.00116532 0.00219092 0.01599534 0.00550747 0.03484506 0.00276705 0.00470514 0.14605858 0.00310134 0.01032859 0.01726088 0.00135362 
0.08772706 0.04198740 0.00832833 0.00279065 0.00117829 0.00220870 0.01630193 0.00566335 0.03500937 0.00276416 0.00478507 0.14684750 0.00312984 0.01039531 0.01758740 0.00135280 
0.08993770 0.04248604 0.00825465 0.00285018 0.00119294 0.00222633 0.01658906 0.00581635 0.03513488 0.00275922 0.00486012 0.14752108 0.00316849 0.01045695 0.01790684 0.00135190 
0.09204522 0.04297226 0.00818005 0.00291135 0.00120926 0.00224380 0.01685556 0.00596575 0.03522065 0.00275222 0.00492998 0.14808037 0.00321742 0.01051345 0.01821834 0.00135092 
0.09403975 0.04344385 0.00810547 0.00297393 0.00122726 0.00226108 0.01710034 0.00611085 0.03526601 0.00274312 0.00499435 0.14852682 0.00327672 0.01056475 0.01852105 0.00134986 
0.09591182 0.04389865 0.00803187 0.00303771 0.00124693 0.00227816 0.01732239 0.00625094 0.03527051 0.00273194 0.00505298 0.14886227 0.00334638 0.01061079 0.01881414 0.00134873 
0.09765238 0.04433463 0.00796022 0.00310242 0.00126826 0.00229504 0.01752078 0.00638536 0.03523394 0.00271869 0.00510560 0.14908889 0.00342635 0.01065153 0.01909680 0.00134754 
0.09925289 0.04474984 0.00789150 0.00316784 0.00129122 0.00231171 0.01769470 0.00651347 0.03515634 0.00270337 0.00515200 0.14920921 0.00351651 0.01068692 0.01936822 0.00134629 
0.10070534 0.04514246 0.00782665 0.00323369 0.00131578 0.00232817 0.01784341 0.00663467 0.03503799 0.00268604 0.00519198 0.14922606 0.00361667 0.01071693 0.01962766 0.00134498 
0.10200234 0.04551076 0.00776664 0.00329972 0.00134191 0.00234442 0.01796628 0.00674837 0.03487939 0.00266673 0.00522535 0.14914256 0.00372659 0.01074152 0.01987435 0.00134362 
0.10313709 0.04585316 0.00771239 0.00336563 0.00136956 0.00236046 0.01806281 0.00685405 0.03468127 0.00264550 0.00525198 0.14896210 0.00384595 0.01076069 0.02010761 0.00134222 
0.10410348 0.04616821 0.00766478 0.00343117 0.00139868 0.00237632 0.01813258 0.00695119 0.03444458 0.00262242 0.00527174 0.14868832 0.00397438 0.01077441 0.02032675 0.00134077 
0.10489611 0.04645458 0.00762470 0.00349605 0.00142920 0.00239200 0.01817530 0.00703935 0.03417047 0.00259758 0.00528454 0.14832506 0.00411144 0.01078267 0.02053114 0.00133928 
0.10551031 0.04671109 0.00759295 0.00355998 0.00146107 0.00240751 0.01819079 0.00711811 0.03386031 0.00257105 0.00529032 0.14787637 0.00425663 0.01078548 0.02072019 0.00133775 
0.10594220 0.04693670 0.00757030 0.00362269 0.00149419 0.00242287 0.01817899 0.00718712 0.03351564 0.00254295 0.00528904 0.14734642 0.00440942 0.01078283 0.02089335 0.00133619 
0.10618866 0.04713052 0.00755748 0.00368390 0.00152849 0.00243811 0.01813995 0.00724605 0.03313817 0.00251338 0.00528071 0.14673957 0.00456921 0.01077475 0.02105013 0.00133460 
0.10624741 0.04729179 0.00755514 0.00374333 0.00156387 0.00245324 0.01807384 0.00729465 0.03272981 0.00248247 0.00526535 0.14606025 0.00473534 0.01076125 0.02119006 0.00133298 
0.10611698 0.04741992 0.00756386 0.00380072 0.00160023 0.00246829 0.01798094 0.00733272 0.03229260 0.00245035 0.00524301 0.14531298 0.00490713 0.01074237 0.02131276 0.00133133 
0.10579675 0.04751445 0.00758417 0.00385580 0.00163746 0.00248328 0.01786167 0.00736008 0.03182870 0.00241715 0.00521379 0.14450233 0.00508384 0.01071814 0.02141787 0.00132966 
0.10528692 0.04757508 0.00761652 0.00390832 0.00167545 0.00249824 0.01771654 0.00737666 0.03134044 0.00238302 0.00517779 0.14363291 0.00526471 0.01068862 0.02150511 0.00132796 
0.10458855 0.04760165 0.00766126 0.00395803 0.00171408 0.00251319 0.01754617 0.00738241 0.03083023 0.00234812 0.00513518 0.14270932 0.00544894 0.01065385 0.02157424 0.00132624 
0.10370356 0.04759415 0.00771869 0.00400470 0.00175321 0.00252816 0.01735130 0.00737735 0.03030057 0.00231260 0.00508611 0.14173614 0.00563571 0.01061392 0.02162509 0.00132450 
0.10263468 0.04755269 0.00778900 0.00404812 0.00179271 0.00254318 0.01713277 0.00736155 0.02975406 0.00227663 0.00503080 0.14071791 0.00582417 0.01056890 0.02165755 0.00132275 
0.10138545 0.04747756 0.00787230 0.00408808 0.00183244 0.00255826 0.01689152 0.00733514 0.02919336 0.00224038 0.00496947 0.13965911 0.00601347 0.01051887 0.02167155 0.00132097 
0.09996024 0.04736916 0.00796862 0.00412438 0.00187225 0.00257344 0.01662859 0.00729832 0.02862116 0.00220401 0.00490237 0.13856412 0.00620271 0.01046393 0.02166711 0.00131918 
0.09836418 0.04722802 0.00807791 0.00415687 0.00191198 0.00258872 0.01634509 0.00725132 0.02804021 0.00216771 0.00482980 0.13743720 0.00639105 0.01040421 0.02164429 0.00131738 
0.09660317 0.04705481 0.00820000 0.00418538 0.00195149 0.00260414 0.01604224 0.00719444 0.02745326 0.00213165 0.00475204 0.13628253 0.00657758 0.01033981 0.02160323 0.00131556 
0.09468380 0.04685032 0.00833466 0.00420977 0.00199060 0.00261971 0.01572133 0.00712805 0.02686307 0.00209601 0.00466942 0.13510412 0.00676146 0.01027087 0.02154411 0.00131372 
0.09261340 0.04661547 0.00848156 0.00422994 0.00202917 0.00263544 0.01538371 0.00705253 0.02627239 0.00206095 0.00458228 0.13390583 0.00694181 0.01019754 0.02146719 0.00131187 
0.09039991 0.04635127 0.00864030 0.00424578 0.00206701 0.00265134 0.01503080 0.00696836 0.02568394 0.00202666 0.00449100 0.13269137 0.00711781 0.01011998 0.02137278 0.00131001 
0.08805188 0.04605886 0.00881038 0.00425722 0.00210396 0.00266743 0.01466410 0.00687602 0.02510041 0.00199331 0.00439594 0.13146425 0.00728863 0.01003836 0.02126126 0.00130814 
0.08557846 0.04573948 0.00899123 0.00426420 0.00213985 0.00268369 0.01428512 0.00677606 0.02452442 0.00196106 0.00429750 0.13022784 0.00745348 0.00995287 0.02113304 0.00130626 
0.08298927 0.04539447 0.00918220 0.00426670 0.00217452 0.00270014 0.01389545 0.00666909 0.02395854 0.00193008 0.00419609 0.12898527 0.00761161 0.00986370 0.02098863 0.00130438 
0.08029442 0.04502523 0.00938259 0.00426470 0.00220779 0.00271676 0.01349670 0.00655571 0.02340525 0.00190052 0.00409212 0.12773953 0.00776231 0.00977107 0.02082856 0.00130248 
0.07750444 0.04463330 0.00959160 0.00425822 0.00223949 0.00273355 0.01309049 0.00643660 0.02286694 0.00187255 0.00398602 0.12649337 0.00790489 0.00967521 0.02065342 0.00130058 
0.07463020 0.04422026 0.00980840 0.00424729 0.00226947 0.00275049 0.01267849 0.00631244 0.02234591 0.00184629 0.00387821 0.12524939 0.00803874 0.00957635 0.02046388 0.00129868 
0.07168287 0.04378777 0.01003208 0.00423197 0.00229756 0.00276756 0.01226236 0.00618397 0.02184435 0.00182189 0.00376915 0.12400995 0.00816329 0.00947475 0.02026061 0.00129678 
0.06867388 0.04333756 0.01026172 0.00421233 0.00232360 0.00278474 0.01184377 0.00605194 0.02136431 0.00179948 0.00365925 0.12277725 0.00827801 0.00937068 0.02004437 0.00129488 
0.06561484 0.04287144 0.01049632 0.00418847 0.00234743 0.00280199 0.01142439 0.00591710 0.02090773 0.00177916 0.00354897 0.12155330 0.00838244 0.00926441 0.01981594 0.00129299 
0.06251748 0.04239123 0.01073486 0.00416053 0.00236892 0.00281927 0.01100586 0.00578025 0.02047642 0.00176105 0.00343874 0.12033992 0.00847620 0.00915623 0.01957617 0.00129110 
0.05939360 0.04189884 0.01097630 0.00412863 0.00238792 0.00283655 0.01058983 0.00564217 0.02007202 0.00174525 0.00332899 0.11913875 0.00855896 0.00904647 0.01932590 0.00128922 
0.05625501 0.04139621 0.01121957 0.00409294 0.00240430 0.00285378 0.01017789 0.00550367 0.01969605 0.00173182 0.00322016 0.11795128 0.00863045 0.00893543 0.01906606 0.00128735 
0.05311346 0.04088530 0.01146360 0.00405364 0.00241793 0.00287091 0.00977162 0.00536556 0.01934986 0.00172086 0.00311264 0.11677883 0.00869048 0.00882344 0.01879758 0.00128551 
0.04998060 0.04036812 0.01170731 0.00401092 0.00242870 0.00288788 0.00937255 0.00522863 0.01903466 0.00171240 0.00300687 0.11562258 0.00873893 0.00871085 0.01852143 0.00128368 
0.04686793 0.03984669 0.01194962 0.00396501 0.00243650 0.00290463 0.00898216 0.00509369 0.01875149 0.00170651 0.00290322 0.11448358 0.00877575 0.00859800 0.01823861 0.00128188 
0.04378669 0.03932305 0.01218947 0.00391613 0.00244124 0.00292110 0.00860187 0.00496151 0.01850122 0.00170320 0.00280209 0.11336272 0.00880097 0.00848527 0.01795013 0.00128010 
0.04074788 0.03879927 0.01242581 0.00386454 0.00244284 0.00293720 0.00823307 0.00483286 0.01828459 0.00170250 0.00270384 0.11226081 0.00881469 0.00837301 0.01765703 0.00127836 
0.03776218 0.03827740 0.01265763 0.00381048 0.00244123 0.00295287 0.00787705 0.00470849 0.01810213 0.00170441 0.00260882 0.11117855 0.00881708 0.00826161 0.01736038 0.00127666 
0.03483986 0.03775951 0.01288394 0.00375423 0.00243634 0.00296803 0.00753504 0.00458912 0.01795426 0.00170892 0.00251737 0.11011654 0.00880837 0.00815145 0.01706124 0.00127500 
0.03199081 0.03724764 0.01310380 0.00369608 0.00242814 0.00298260 0.00720822 0.00447544 0.01784120 0.00171600 0.00242979 0.10907530 0.00878888 0.00804292 0.01676068 0.00127339 
0.02922444 0.03674386 0.01331631 0.00363631 0.00241660 0.00299649 0.00689765 0.00436811 0.01776304 0.00172561 0.00234638 0.10805527 0.00875899 0.00793642 0.01645979 0.00127183 
0.02654966 0.03625018 0.01352065 0.00357523 0.00240169 0.00300961 0.00660435 0.00426775 0.01771968 0.00173770 0.00226740 0.10705686 0.00871914 0.00783232 0.01615966 0.00127033 
0.02397484 0.03576861 0.01371602 0.00351314 0.00238343 0.00302188 0.00632922 0.00417494 0.01771091 0.00175221 0.00219311 0.10608040 0.00866985 0.00773104 0.01586137 0.00126889 
0.02150779 0.03530113 0.01390173 0.00345035 0.00236182 0.00303321 0.00607310 0.00409021 0.01773635 0.00176905 0.00212372 0.10512620 0.00861168 0.00763297 0.01556600 0.00126752 
0.01915570 0.03484970 0.01407712 0.00338718 0.00233689 0.00304350 0.00583672 0.00401405 0.01779548 0.00178814 0.00205942 0.10419453 0.00854525 0.00753849 0.01527462 0.00126622 
0.01692515 0.03441620 0.01424163 0.00332395 0.00230870 0.00305267 0.00562072 0.00394688 0.01788764 0.00180936 0.00200039 0.10328563 0.00847125 0.00744799 0.01498827 0.00126500 
0.01482206 0.03400252 0.01439478 0.00326096 0.00227730 0.00306062 0.00542568 0.00388908 0.01801206 0.00183260 0.00194678 0.10239974 0.00839039 0.00736186 0.01470801 0.00126386 
0.01285169 0.03361046 0.01453616 0.00319854 0.00224277 0.00306726 0.00525203 0.00384098 0.01816782 0.00185772 0.00189870 0.10153708 0.00830345 0.00728046 0.01443484 0.00126281 
0.01101861 0.03324178 0.01466546 0.00313700 0.00220521 0.00307250 0.00510015 0.00380284 0.01835389 0.00188460 0.00185624 0.10069786 0.00821122 0.00720415 0.01416976 0.00126185 
0.00932670 0.03289818 0.01478243 0.00307663 0.00216471 0.00307626 0.00497032 0.00377484 0.01856914 0.00191309 0.00181947 0.09988228 0.00811455 0.00713329 0.01391373 0.00126099 
0.00777914 0.03258130 0.01488695 0.00301775 0.00212142 0.00307846 0.00486272 0.00375712 0.01881234 0.00194301 0.00178842 0.09909057 0.00801431 0.00706820 0.01366769 0.00126023 
0.00637842 0.03229270 0.01497895 0.00296065 0.00207546 0.00307900 0.00477742 0.00374977 0.01908215 0.00197421 0.00176311 0.09832293 0.00791137 0.00700921 0.01343253 0.00125957 
0.00512631 0.03203385 0.01505847 0.00290561 0.00202698 0.00307783 0.00471445 0.00375276 0.01937716 0.00200651 0.00174353 0.09757957 0.00780665 0.00695660 0.01320911 0.00125903 
0.00402390 0.03180617 0.01512563 0.00285289 0.00197617 0.00307486 0.00467369 0.00376606 0.01969586 0.00203974 0.00172964 0.09686072 0.00770106 0.00691066 0.01299824 0.00125859 
0.00307159 0.03161097 0.01518064 0.00280278 0.00192319 0.00307002 0.00465498 0.00378952 0.02003669 0.00207370 0.00172137 0.09616657 0.00759551 0.00687164 0.01280069 0.00125828 
0.00226908 0.03144947 0.01522379 0.00275550 0.00186825 0.00306327 0.00465806 0.00382296 0.02039802 0.00210821 0.00171863 0.09549734 0.00749091 0.00683978 0.01261719 0.00125808 
0.00161545 0.03132280 0.01525546 0.00271129 0.00181154 0.00305454 0.00468260 0.00386611 0.02077817 0.00214307 0.00172131 0.09485323 0.00738818 0.00681526 0.01244840 0.00125800 
0.00110911 0.03123197 0.01527610 0.00267038 0.00175329 0.00304379 0.00472816 0.00391864 0.02117540 0.00217809 0.00172928 0.09423443 0.00728820 0.00679827 0.01229492 0.00125804 
0.00074785 0.03117791 0.01528622 0.00263296 0.00169373 0.00303097 0.00479427 0.00398018 0.02158797 0.00221307 0.00174238 0.09364113 0.00719185 0.00678894 0.01215731 0.00125821 
0.00052888 0.03116140 0.01528643 0.00259921 0.00163308 0.00301606 0.00488035 0.00405027 0.02201406 0.00224780 0.00176044 0.09307345 0.00709997 0.00678740 0.01203606 0.00125851 
0.00044881 0.03118313 0.01527737 0.00256929 0.00157161 0.00299903 0.00498579 0.00412841 0.02245186 0.00228211 0.00178325 0.09253154 0.00701337 0.00679371 0.01193160 0.00125893 
0.00050375 0.03124365 0.01525977 0.00254336 0.00150955 0.00297987 0.00510990 0.00421404 0.02289954 0.00231578 0.00181061 0.09201549 0.00693283 0.00680793 0.01184428 0.00125948 
0.00068927 0.03134340 0.01523439 0.00252154 0.00144718 0.00295856 0.00525192 0.00430653 0.02335527 0.00234864 0.00184229 0.09152533 0.00685909 0.00683005 0.01177440 0.00126015 
0.00100047 0.03148267 0.01520203 0.00250392 0.00138475 0.00293512 0.00541106 0.00440522 0.02381719 0.00238048 0.00187804 0.09106108 0.00679283 0.00686005 0.01172217 0.00126095 
0.00143201 0.03166163 0.01516355 0.00249059 0.00132254 0.00290956 0.00558647 0.00450941 0.02428347 0.00241114 0.00191759 0.09062267 0.00673468 0.00689787 0.01168774 0.00126188 
0.00197814 0.03188030 0.01511983 0.00248161 0.00126082 0.00288191 0.00577725 0.00461834 0.02475231 0.00244044 0.00196069 0.09021000 0.00668523 0.00694340 0.01167119 0.00126293 
0.00263275 0.03213856 0.01507175 0.00247702 0.00119986 0.00285218 0.00598248 0.00473121 0.02522189 0.00246821 0.00200704 0.08982287 0.00664500 0.00699649 0.01167250 0.00126409 
0.00338940 0.03243615 0.01502025 0.00247684 0.00113993 0.00282044 0.00620118 0.00484721 0.02569044 0.00249429 0.00205636 0.08946105 0.00661444 0.00705696 0.01169162 0.00126538 
0.00424136 0.03277266 0.01496624 0.00248105 0.00108132 0.00278672 0.00643237 0.00496549 0.02615620 0.00251853 0.00210834 0.08912419 0.00659395 0.00712460 0.01172836 0.00126678 
0.00518165 0.03314753 0.01491063 0.00248963 0.00102428 0.00275111 0.00667502 0.00508516 0.02661748 0.00254079 0.00216269 0.08881187 0.00658384 0.00719914 0.01178251 0.00126829 
0.00620306 0.03356007 0.01485436 0.00250252 0.00096909 0.00271366 0.00692808 0.00520534 0.02707258 0.00256095 0.00221908 0.08852360 0.00658437 0.00728029 0.01185376 0.00126991 
0.00729824 0.03400942 0.01479830 0.00251967 0.00091601 0.00267447 0.00719052 0.00532513 0.02751990 0.00257888 0.00227722 0.08825878 0.00659571 0.00736771 0.01194171 0.00127163 
0.00845970 0.03449457 0.01474333 0.00254096 0.00086530 0.00263363 0.00746125 0.00544361 0.02795783 0.00259449 0.00233678 0.08801672 0.00661797 0.00746104 0.01204590 0.00127345 
0.00967984 0.03501438 0.01469029 0.00256629 0.00081720 0.00259125 0.00773920 0.00555988 0.02838486 0.00260769 0.00239745 0.08779663 0.00665119 0.00755988 0.01216580 0.00127536 
0.01095104 0.03556755 0.01463998 0.00259553 0.00077196 0.00254744 0.00802331 0.00567304 0.02879950 0.00261841 0.00245892 0.08759766 0.00669532 0.00766379 0.01230078 0.00127735 
0.01226563 0.03615265 0.01459315 0.00262851 0.00072980 0.00250232 0.00831250 0.00578219 0.02920034 0.00262657 0.00252088 0.08741882 0.00675024 0.00777231 0.01245017 0.00127943 
0.01361599 0.03676808 0.01455049 0.00266507 0.00069094 0.00245602 0.00860570 0.00588646 0.02958602 0.00263214 0.00258303 0.08725905 0.00681576 0.00788493 0.01261322 0.00128158 
0.01499454 0.03741216 0.01451266 0.00270501 0.00065560 0.00240869 0.00890188 0.00598501 0.02995525 0.00263509 0.00264508 0.08711722 0.00689163 0.00800115 0.01278909 0.00128379 
0.01639379 0.03808302 0.01448021 0.00274813 0.00062396 0.00236048 0.00919997 0.00607701 0.03030678 0.00263541 0.00270673 0.08699208 0.00697752 0.00812041 0.01297690 0.00128607 
0.01780640 0.03877870 0.01445366 0.00279421 0.00059620 0.00231154 0.00949898 0.00616169 0.03063947 0.00263309 0.00276770 0.08688233 0.00707301 0.00824216 0.01317571 0.00128840 
0.01922515 0.03949711 0.01443343 0.00284300 0.00057249 0.00226203 0.00979790 0.00623831 0.03095220 0.00262817 0.00282774 0.08678658 0.00717767 0.00836580 0.01338452 0.00129078 
0.02064302 0.04023607 0.01441986 0.00289425 0.00055297 0.00221213 0.01009576 0.00630617 0.03124396 0.00262066 0.00288657 0.08670339 0.00729095 0.00849074 0.01360226 0.00129319 
0.02205320 0.04099326 0.01441322 0.00294771 0.00053777 0.00216202 0.01039162 0.00636464 0.03151379 0.00261064 0.00294397 0.08663126 0.00741229 0.00861638 0.01382783 0.00129563 
0.02344913 0.04176630 0.01441369 0.00300310 0.00052702 0.00211186 0.01068456 0.00641314 0.03176081 0.00259816 0.00299969 0.08656863 0.00754105 0.00874209 0.01406007 0.00129810 
0.02482449 0.04255271 0.01442136 0.00306014 0.00052079 0.00206186 0.01097372 0.00645116 0.03198419 0.00258332 0.00305352 0.08651393 0.00767654 0.00886725 0.01429781 0.00130057 
0.02617325 0.04334994 0.01443622 0.00311853 0.00051916 0.00201219 0.01125825 0.00647824 0.03218322 0.00256621 0.00310527 0.08646556 0.00781803 0.00899125 0.01453982 0.00130306 
0.02748967 0.04415537 0.01445819 0.00317798 0.00052219 0.00196305 0.01153735 0.00649402 0.03235723 0.00254696 0.00315475 0.08642189 0.00796476 0.00911346 0.01478484 0.00130554 
0.02876835 0.04496635 0.01448708 0.00323819 0.00052992 0.00191464 0.01181025 0.00649820 0.03250563 0.00252570 0.00320181 0.08638133 0.00811593 0.00923327 0.01503161 0.00130801 
0.03000420 0.04578017 0.01452261 0.00329886 0.00054235 0.00186714 0.01207625 0.00649055 0.03262791 0.00250257 0.00324628 0.08634227 0.00827071 0.00935008 0.01527884 0.00131047 
0.03119248 0.04659410 0.01456444 0.00335968 0.00055948 0.00182077 0.01233467 0.00647096 0.03272365 0.00247774 0.00328806 0.08630316 0.00842824 0.00946330 0.01552523 0.00131290 
0.03232882 0.04740540 0.01461211 0.00342034 0.00058129 0.00177570 0.01258488 0.00643937 0.03279249 0.00245139 0.00332702 0.08626247 0.00858764 0.00957238 0.01576948 0.00131529 
0.03340919 0.04821132 0.01466509 0.00348053 0.00060771 0.00173215 0.01282631 0.00639583 0.03283416 0.00242370 0.00336308 0.08621876 0.00874804 0.00967675 0.01601030 0.00131764 
0.03442994 0.04900914 0.01472278 0.00353997 0.00063869 0.00169030 0.01305841 0.00634046 0.03284846 0.00239488 0.00339618 0.08617065 0.00890855 0.00977591 0.01624640 0.00131995 
0.03538780 0.04979614 0.01478450 0.00359835 0.00067414 0.00165033 0.01328070 0.00627350 0.03283529 0.00236514 0.00342627 0.08611684 0.00906827 0.00986937 0.01647651 0.00132219 
0.03627986 0.05056967 0.01484948 0.00365538 0.00071394 0.00161245 0.01349275 0.00619525 0.03279461 0.00233470 0.00345331 0.08605617 0.00922632 0.00995666 0.01669939 0.00132437 
0.03710360 0.05132710 0.01491691 0.00371078 0.00075795 0.00157683 0.01369417 0.00610613 0.03272647 0.00230380 0.00347730 0.08598756 0.00938182 0.01003738 0.01691384 0.00132649 
0.03785687 0.05206590 0.01498592 0.00376427 0.00080604 0.00154364 0.01388462 0.00600665 0.03263101 0.00227267 0.00349825 0.08591009 0.00953391 0.01011114 0.01711867 0.00132852 
0.03853788 0.05278360 0.01505558 0.00381560 0.00085803 0.00151307 0.01406381 0.00589737 0.03250846 0.00224155 0.00351620 0.08582299 0.00968177 0.01017760 0.01731276 0.00133047 
0.03914522 0.05347783 0.01512493 0.00386451 0.00091374 0.00148526 0.01423150 0.00577900 0.03235911 0.00221072 0.00353119 0.08572564 0.00982457 0.01023648 0.01749503 0.00133234 
0.03967784 0.05414631 0.01519294 0.00391076 0.00097295 0.00146038 0.01438750 0.00565230 0.03218336 0.00218041 0.00354329 0.08561759 0.00996155 0.01028753 0.01766446 0.00133410 
0.04013502 0.05478690 0.01525860 0.00395414 0.00103544 0.00143858 0.01453166 0.00551810 0.03198170 0.00215089 0.00355260 0.08549858 0.01009195 0.01033055 0.01782010 0.00133577 
0.04051642 0.05539758 0.01532085 0.00399442 0.00110098 0.00141999 0.01466389 0.00537735 0.03175470 0.00212242 0.00355921 0.08536855 0.01021509 0.01036542 0.01796106 0.00133734 
0.04082199 0.05597646 0.01537863 0.00403142 0.00116932 0.00140474 0.01478414 0.00523105 0.03150302 0.00209526 0.00356325 0.08522762 0.01033030 0.01039203 0.01808653 0.00133879 
0.04105204 0.05652180 0.01543086 0.00406497 0.00124018 0.00139294 0.01489239 0.00508028 0.03122742 0.00206967 0.00356485 0.08507615 0.01043697 0.01041036 0.01819579 0.00134013 
0.04120715 0.05703203 0.01547650 0.00409490 0.00131329 0.00138471 0.01498870 0.00492618 0.03092874 0.00204592 0.00356418 0.08491468 0.01053456 0.01042042 0.01828819 0.00134136 
0.04128822 0.05750573 0.01551450 0.00412108 0.00138835 0.00138013 0.01507313 0.00476995 0.03060793 0.00202425 0.00356138 0.08474398 0.01062256 0.01042230 0.01836318 0.00134246 
0.04129642 0.05794167 0.01554386 0.00414339 0.00146506 0.00137929 0.01514581 0.00461286 0.03026602 0.00200491 0.00355666 0.08456506 0.01070053 0.01041613 0.01842030 0.00134344 
0.04123321 0.05833880 0.01556358 0.00416173 0.00154312 0.00138225 0.01520690 0.00445620 0.02990415 0.00198815 0.00355018 0.08437913 0.01076808 0.01040211 0.01845920 0.00134430 
0.04110026 0.05869622 0.01557274 0.00417602 0.00162221 0.00138907 0.01525661 0.00430134 0.02952356 0.00197420 0.00354216 0.08418761 0.01082488 0.01038046 0.01847961 0.00134504 
0.04089952 0.05901327 0.01557045 0.00418621 0.00170199 0.00139979 0.01529516 0.00414963 0.02912555 0.00196328 0.00353281 0.08399216 0.01087068 0.01035151 0.01848137 0.00134564 
0.04063313 0.05928945 0.01555590 0.00419225 0.00178216 0.00141444 0.01532285 0.00400249 0.02871157 0.00195561 0.00352234 0.08379464 0.01090528 0.01031560 0.01846445 0.00134612 
0.04030346 0.05952446 0.01552832 0.00419414 0.00186237 0.00143302 0.01533996 0.00386135 0.02828312 0.00195138 0.00351099 0.08359712 0.01092852 0.01027313 0.01842888 0.00134647 
0.03991305 0.05971819 0.01548706 0.00419186 0.00194230 0.00145554 0.01534684 0.00372762 0.02784181 0.00195079 0.00349897 0.08340185 0.01094034 0.01022456 0.01837485 0.00134670 
0.03946462 0.05987075 0.01543151 0.00418546 0.00202160 0.00148197 0.01534387 0.00360274 0.02738937 0.00195400 0.00348653 0.08321129 0.01094072 0.01017040 0.01830262 0.00134679 
0.03896107 0.05998240 0.01536117 0.00417498 0.00209997 0.00151228 0.01533143 0.00348813 0.02692758 0.00196118 0.00347390 0.08302806 0.01092971 0.01011118 0.01821257 0.00134676 
0.03840541 0.06005363 0.01527565 0.00416048 0.00217706 0.00154642 0.01530995 0.00338519 0.02645834 0.00197245 0.00346132 0.08285494 0.01090741 0.01004751 0.01810519 0.00134661 
0.03780081 0.06008509 0.01517465 0.00414204 0.00225257 0.00158433 0.01527988 0.00329529 0.02598363 0.00198795 0.00344902 0.08269485 0.01087398 0.00998000 0.01798106 0.00134634 
0.03715055 0.06007763 0.01505797 0.00411978 0.00232616 0.00162592 0.01524169 0.00321977 0.02550550 0.00200778 0.00343724 0.08255085 0.01082963 0.00990932 0.01784089 0.00134595 
0.03645800 0.06003226 0.01492553 0.00409382 0.00239755 0.00167111 0.01519588 0.00315991 0.02502611 0.00203200 0.00342621 0.08242610 0.01077464 0.00983616 0.01768545 0.00134544 
0.03572663 0.05995017 0.01477736 0.00406429 0.00246643 0.00171978 0.01514295 0.00311697 0.02454767 0.00206070 0.00341615 0.08232383 0.01070932 0.00976124 0.01751565 0.00134482 
0.03495998 0.05983269 0.01461362 0.00403137 0.00253253 0.00177182 0.01508342 0.00309209 0.02407246 0.00209390 0.00340729 0.08224738 0.01063404 0.00968530 0.01733246 0.00134409 
0.03416166 0.05968134 0.01443457 0.00399521 0.00259555 0.00182707 0.01501785 0.00308640 0.02360286 0.00213163 0.00339983 0.08220008 0.01054920 0.00960910 0.01713694 0.00134326 
0.03333533 0.05949774 0.01424059 0.00395601 0.00265526 0.00188539 0.01494677 0.00310090 0.02314127 0.00217387 0.00339398 0.08218531 0.01045525 0.00953342 0.01693025 0.00134233 
0.03248469 0.05928367 0.01403219 0.00391397 0.00271141 0.00194662 0.01487077 0.00313652 0.02269015 0.00222061 0.00338994 0.08220645 0.01035268 0.00945904 0.01671361 0.00134131 
0.03161348 0.05904101 0.01380999 0.00386930 0.00276376 0.00201058 0.01479040 0.00319410 0.02225202 0.00227179 0.00338788 0.08226683 0.01024200 0.00938674 0.01648830 0.00134020 
0.03072545 0.05877176 0.01357473 0.00382224 0.00281211 0.00207707 0.01470626 0.00327437 0.02182941 0.00232733 0.00338797 0.08236973 0.01012376 0.00931732 0.01625569 0.00133900 
0.02982437 0.05847801 0.01332726 0.00377302 0.00285628 0.00214589 0.01461891 0.00337795 0.02142489 0.00238714 0.00339037 0.08251833 0.00999852 0.00925156 0.01601719 0.00133773 
0.02891400 0.05816194 0.01306853 0.00372189 0.00289608 0.00221684 0.01452894 0.00350533 0.02104105 0.00245110 0.00339522 0.08271574 0.00986686 0.00919022 0.01577426 0.00133639 
0.02799813 0.05782580 0.01279960 0.00366910 0.00293137 0.00228968 0.01443694 0.00365690 0.02068046 0.00251906 0.00340264 0.08296488 0.00972941 0.00913406 0.01552839 0.00133499 
0.02708050 0.05747187 0.01252163 0.00361490 0.00296202 0.00236419 0.01434349 0.00383290 0.02034571 0.00259086 0.00341275 0.08326855 0.00958676 0.00908382 0.01528112 0.00133352 
0.02616485 0.05710250 0.01223587 0.00355957 0.00298792 0.00244012 0.01424916 0.00403347 0.02003935 0.00266631 0.00342562 0.08362933 0.00943955 0.00904020 0.01503400 0.00133201 
0.02525490 0.05672006 0.01194365 0.00350337 0.00300899 0.00251723 0.01415452 0.00425858 0.01976391 0.00274520 0.00344135 0.08404959 0.00928841 0.00900388 0.01478860 0.00133046 
0.02435434 0.05632694 0.01164639 0.00344657 0.00302517 0.00259526 0.01406013 0.00450809 0.01952185 0.00282729 0.00345997 0.08453148 0.00913395 0.00897552 0.01454648 0.00132887 
0.02346681 0.05592550 0.01134556 0.00338943 0.00303641 0.00267395 0.01396654 0.00478169 0.01931559 0.00291235 0.00348154 0.08507686 0.00897682 0.00895571 0.01430923 0.00132725 
0.02259591 0.05551813 0.01104269 0.00333224 0.00304270 0.00275304 0.01387428 0.00507896 0.01914749 0.00300009 0.00350607 0.08568731 0.00881763 0.00894502 0.01407838 0.00132562 
0.02174522 0.05510715 0.01073939 0.00327525 0.00304406 0.00283224 0.01378388 0.00539931 0.01901978 0.00309024 0.00353354 0.08636411 0.00865698 0.00894397 0.01385549 0.00132396 
0.02091825 0.05469486 0.01043727 0.00321873 0.00304051 0.00291131 0.01369582 0.00574204 0.01893462 0.00318248 0.00356395 0.08710819 0.00849548 0.00895302 0.01364205 0.00132231 
0.02011844 0.05428351 0.01013797 0.00316293 0.00303211 0.00298994 0.01361059 0.00610628 0.01889403 0.00327650 0.00359726 0.08792017 0.00833370 0.00897259 0.01343953 0.00132066 
0.01934921 0.05387527 0.00984319 0.00310810 0.00301894 0.00306789 0.01352865 0.00649105 0.01889991 0.00337196 0.00363339 0.08880026 0.00817220 0.00900304 0.01324933 0.00131901 
0.01861387 0.05347223 0.00955458 0.00305449 0.00300109 0.00314486 0.01345043 0.00689520 0.01895402 0.00346852 0.00367228 0.08974835 0.00801152 0.00904465 0.01307283 0.00131739 
0.01791570 0.05307640 0.00927382 0.00300234 0.00297870 0.00322059 0.01337634 0.00731749 0.01905792 0.00356583 0.00371381 0.09076389 0.00785219 0.00909767 0.01291130 0.00131579 
0.01725790 0.05268967 0.00900257 0.00295185 0.00295191 0.00329481 0.01330676 0.00775652 0.01921303 0.00366351 0.00375788 0.09184598 0.00769468 0.00916226 0.01276596 0.00131422 
0.01664356 0.05231384 0.00874244 0.00290326 0.00292088 0.00336726 0.01324203 0.00821079 0.01942057 0.00376118 0.00380433 0.09299327 0.00753947 0.00923854 0.01263797 0.00131269 
0.01607574 0.05195056 0.00849502 0.00285675 0.00288580 0.00343766 0.01318248 0.00867868 0.01968153 0.00385848 0.00385303 0.09420404 0.00738698 0.00932652 0.01252835 0.00131121 
0.01555738 0.05160138 0.00826184 0.00281251 0.00284688 0.00350578 0.01312838 0.00915847 0.01999672 0.00395502 0.00390380 0.09547615 0.00723763 0.00942619 0.01243807 0.00130978 
0.01509133 0.05126769 0.00804437 0.00277071 0.00280435 0.00357136 0.01307999 0.00964832 0.02036669 0.00405041 0.00395644 0.09680705 0.00709179 0.00953744 0.01236799 0.00130842 
0.01468035 0.05095073 0.00784400 0.00273152 0.00275843 0.00363416 0.01303751 0.01014632 0.02079176 0.00414426 0.00401076 0.09819379 0.00694980 0.00966010 0.01231884 0.00130711 
0.01432711 0.05065161 0.00766203 0.00269507 0.00270940 0.00369395 0.01300113 0.01065048 0.02127199 0.00423620 0.00406652 0.09963301 0.00681198 0.00979393 0.01229126 0.00130588 
0.01403416 0.05037125 0.00749969 0.00266148 0.00265752 0.00375051 0.01297097 0.01115873 0.02180720 0.00432583 0.00412351 0.10112100 0.00667860 0.00993862 0.01228577 0.00130473 
0.01380392 0.05011043 0.00735807 0.00263086 0.00260307 0.00380364 0.01294714 0.01166894 0.02239690 0.00441279 0.00418146 0.10265364 0.00654991 0.01009381 0.01230278 0.00130367 
0.01363871 0.04986977 0.00723817 0.00260330 0.00254635 0.00385313 0.01292968 0.01217894 0.02304037 0.00449670 0.00424013 0.10422647 0.00642614 0.01025904 0.01234256 0.00130269 
0.01354072 0.04964970 0.00714087 0.00257888 0.00248768 0.00389880 0.01291862 0.01268651 0.02373658 0.00457721 0.00429925 0.10583469 0.00630746 0.01043381 0.01240526 0.00130180 
0.01351200 0.04945049 0.00706689 0.00255764 0.00242736 0.00394048 0.01291393 0.01318941 0.02448421 0.00465396 0.00435852 0.10747319 0.00619403 0.01061755 0.01249091 0.00130101 
0.01355446 0.04927224 0.00701686 0.00253962 0.00236571 0.00397802 0.01291554 0.01368538 0.02528167 0.00472663 0.00441768 0.10913656 0.00608598 0.01080964 0.01259942 0.00130032 
0.01366986 0.04911488 0.00699123 0.00252483 0.00230307 0.00401127 0.01292334 0.01417217 0.02612708 0.00479489 0.00447642 0.11081911 0.00598340 0.01100940 0.01273055 0.00129973 
0.01385979 0.04897817 0.00699032 0.00251327 0.00223976 0.00404010 0.01293717 0.01464753 0.02701824 0.00485844 0.00453445 0.11251494 0.00588637 0.01121609 0.01288396 0.00129925 
0.01412570 0.04886169 0.00701428 0.00250493 0.00217613 0.00406441 0.01295686 0.01510924 0.02795271 0.00491699 0.00459146 0.11421792 0.00579493 0.01142891 0.01305917 0.00129888 
0.01446882 0.04876488 0.00706314 0.00249976 0.00211249 0.00408411 0.01298216 0.01555512 0.02892773 0.00497027 0.00464716 0.11592176 0.00570909 0.01164706 0.01325559 0.00129863 
0.01489025 0.04868700 0.00713674 0.00249770 0.00204920 0.00409911 0.01301281 0.01598301 0.02994029 0.00501804 0.00470122 0.11762001 0.00562885 0.01186964 0.01347248 0.00129848 
0.01539085 0.04862717 0.00723478 0.00249867 0.00198657 0.00410936 0.01304849 0.01639085 0.03098710 0.00506008 0.00475335 0.11930615 0.00555419 0.01209575 0.01370904 0.00129844 
0.01597130 0.04858436 0.00735679 0.00250260 0.00192494 0.00411481 0.01308887 0.01677662 0.03206461 0.00509618 0.00480325 0.12097357 0.00548506 0.01232446 0.01396431 0.00129852 
0.01663207 0.04855739 0.00750216 0.00250936 0.00186461 0.00411545 0.01313356 0.01713840 0.03316903 0.00512617 0.00485061 0.12261563 0.00542138 0.01255479 0.01423725 0.00129871 
0.01737340 0.04854495 0.00767012 0.00251884 0.00180591 0.00411127 0.01318216 0.01747437 0.03429634 0.00514990 0.00489514 0.12422573 0.00536307 0.01278577 0.01452672 0.00129901 
0.01819531 0.04854560 0.00785974 0.00253089 0.00174914 0.00410228 0.01323420 0.01778280 0.03544230 0.00516725 0.00493655 0.12579731 0.00531005 0.01301638 0.01483147 0.00129942 
0.01909758 0.04855780 0.00806994 0.00254537 0.00169459 0.00408851 0.01328923 0.01806209 0.03660245 0.00517811 0.00497457 0.12732389 0.00526218 0.01324561 0.01515018 0.00129994 
0.02007974 0.04857988 0.00829954 0.00256210 0.00164254 0.00407001 0.01334675 0.01831075 0.03777218 0.00518242 0.00500892 0.12879916 0.00521934 0.01347244 0.01548147 0.00130056 
0.02114108 0.04861011 0.00854716 0.00258091 0.00159325 0.00404685 0.01340623 0.01852744 0.03894668 0.00518014 0.00503934 0.13021696 0.00518140 0.01369586 0.01582384 0.00130128 
0.02228062 0.04864663 0.00881135 0.00260160 0.00154699 0.00401911 0.01346712 0.01871096 0.04012104 0.00517126 0.00506559 0.13157137 0.00514820 0.01391486 0.01617579 0.00130210 
0.02349712 0.04868755 0.00909051 0.00262399 0.00150397 0.00398690 0.01352888 0.01886025 0.04129020 0.00515578 0.00508744 0.13285671 0.00511959 0.01412844 0.01653571 0.00130301 
0.02478907 0.04873088 0.00938295 0.00264785 0.00146443 0.00395032 0.01359091 0.01897442 0.04244901 0.00513377 0.00510467 0.13406761 0.00509540 0.01433563 0.01690199 0.00130401 
0.02615466 0.04877463 0.00968685 0.00267297 0.00142857 0.00390953 0.01365264 0.01905274 0.04359226 0.00510528 0.00511707 0.13519904 0.00507546 0.01453546 0.01727297 0.00130510 
0.02759185 0.04881674 0.01000033 0.00269914 0.00139656 0.00386467 0.01371347 0.01909463 0.04471468 0.00507042 0.00512447 0.13624632 0.00505960 0.01472702 0.01764698 0.00130626 
0.02909827 0.04885514 0.01032141 0.00272612 0.00136858 0.00381589 0.01377279 0.01909971 0.04581100 0.00502932 0.00512670 0.13720519 0.00504764 0.01490942 0.01802230 0.00130749 
0.03067130 0.04888775 0.01064808 0.00275369 0.00134475 0.00376340 0.01383002 0.01906775 0.04687596 0.00498213 0.00512362 0.13807184 0.00503939 0.01508181 0.01839725 0.00130879 
0.03230800 0.04891251 0.01097823 0.00278160 0.00132522 0.00370737 0.01388454 0.01899870 0.04790432 0.00492905 0.00511511 0.13884289 0.00503467 0.01524340 0.01877014 0.00131014 
0.03400519 0.04892738 0.01130974 0.00280963 0.00131007 0.00364802 0.01393576 0.01889270 0.04889092 0.00487026 0.00510107 0.13951550 0.00503330 0.01539343 0.01913930 0.00131154 
0.03575936 0.04893035 0.01164045 0.00283754 0.00129938 0.00358557 0.01398310 0.01875005 0.04983070 0.00480601 0.00508141 0.14008730 0.00503508 0.01553122 0.01950307 0.00131298 
0.03756677 0.04891946 0.01196819 0.00286511 0.00129322 0.00352025 0.01402600 0.01857124 0.05071871 0.00473656 0.00505610 0.14055651 0.00503984 0.01565612 0.01985984 0.00131446 
0.03942338 0.04889283 0.01229081 0.00289210 0.00129161 0.00345230 0.01406388 0.01835690 0.05155016 0.00466217 0.00502509 0.14092186 0.00504737 0.01576758 0.02020806 0.00131597 
0.04132488 0.04884863 0.01260613 0.00291829 0.00129457 0.00338197 0.01409624 0.01810788 0.05232045 0.00458315 0.00498838 0.14118268 0.00505750 0.01586510 0.02054620 0.00131749 
0.04326672 0.04878516 0.01291204 0.00294346 0.00130210 0.00330952 0.01412254 0.01782515 0.05302517 0.00449982 0.00494600 0.14133888 0.00507004 0.01594825 0.02087283 0.00131902 
0.04524408 0.04870081 0.01320645 0.00296740 0.00131415 0.00323523 0.01414231 0.01750986 0.05366016 0.00441251 0.00489799 0.14139095 0.00508481 0.01601666 0.02118657 0.00132055 
0.04725193 0.04859409 0.01348734 0.00298992 0.00133068 0.00315935 0.01415511 0.01716331 0.05422152 0.00432158 0.00484443 0.14133997 0.00510161 0.01607008 0.02148611 0.00132208 
0.04928500 0.04846364 0.01375273 0.00301082 0.00135162 0.00308219 0.01416049 0.01678696 0.05470562 0.00422739 0.00478542 0.14118764 0.00512028 0.01610830 0.02177026 0.00132359 
0.05133781 0.04830826 0.01400076 0.00302993 0.00137688 0.00300401 0.01415809 0.01638238 0.05510916 0.00413033 0.00472108 0.14093622 0.00514062 0.01613121 0.02203789 0.00132507 
0.05340469 0.04812689 0.01422963 0.00304707 0.00140633 0.00292510 0.01414756 0.01595129 0.05542917 0.00403079 0.00465157 0.14058857 0.00516246 0.01613878 0.02228800 0.00132653 
0.05547980 0.04791865 0.01443767 0.00306210 0.00143985 0.00284576 0.01412860 0.01549553 0.05566301 0.00392916 0.00457706 0.14014810 0.00518561 0.01613105 0.02251966 0.00132794 
0.05755713 0.04768284 0.01462331 0.00307487 0.00147728 0.00276628 0.01410094 0.01501705 0.05580846 0.00382587 0.00449776 0.13961878 0.00520989 0.01610815 0.02273207 0.00132930 
0.05963056 0.04741894 0.01478513 0.00308527 0.00151847 0.00268693 0.01406438 0.01451790 0.05586363 0.00372132 0.00441390 0.13900513 0.00523514 0.01607030 0.02292455 0.00133061 
0.06169384 0.04712664 0.01492181 0.00309318 0.00156322 0.00260803 0.01401874 0.01400022 0.05582710 0.00361593 0.00432573 0.13831216 0.00526116 0.01601781 0.02309653 0.00133186 
0.06374063 0.04680582 0.01503221 0.00309852 0.00161133 0.00252984 0.01396392 0.01346623 0.05569781 0.00351014 0.00423353 0.13754536 0.00528779 0.01595104 0.02324754 0.00133304 
0.06576453 0.04645657 0.01511533 0.00310122 0.00166260 0.00245266 0.01389984 0.01291821 0.05547518 0.00340435 0.00413761 0.13671071 0.00531484 0.01587044 0.02337726 0.00133414 
0.06775911 0.04607921 0.01517034 0.00310122 0.00171679 0.00237676 0.01382650 0.01235850 0.05515904 0.00329900 0.00403828 0.13581456 0.00534214 0.01577657 0.02348547 0.00133516 
0.06971790 0.04567427 0.01519655 0.00309849 0.00177367 0.00230242 0.01374393 0.01178948 0.05474968 0.00319450 0.00393590 0.13486367 0.00536951 0.01567001 0.02357209 0.00133610 
0.07163448 0.04524250 0.01519348 0.00309303 0.00183299 0.00222990 0.01365223 0.01121357 0.05424784 0.00309127 0.00383083 0.13386515 0.00539677 0.01555145 0.02363715 0.00133695 
0.07350245 0.04478488 0.01516079 0.00308483 0.00189449 0.00215946 0.01355154 0.01063319 0.05365471 0.00298971 0.00372346 0.13282640 0.00542375 0.01542164 0.02368079 0.00133770 
0.07531548 0.04430261 0.01509834 0.00307392 0.00195789 0.00209135 0.01344207 0.01005078 0.05297195 0.00289022 0.00361418 0.13175507 0.00545028 0.01528137 0.02370328 0.00133836 
0.07706737 0.04379712 0.01500617 0.00306035 0.00202293 0.00202582 0.01332406 0.00946876 0.05220165 0.00279319 0.00350342 0.13065904 0.00547617 0.01513152 0.02370501 0.00133891 
0.07875201 0.04327005 0.01488448 0.00304419 0.00208933 0.00196309 0.01319783 0.00888954 0.05134637 0.00269900 0.00339160 0.12954634 0.00550125 0.01497300 0.02368648 0.00133937 
0.08036347 0.04272327 0.01473367 0.00302552 0.00215680 0.00190340 0.01306374 0.00831549 0.05040908 0.00260802 0.00327919 0.12842512 0.00552535 0.01480679 0.02364827 0.00133972 
0.08189600 0.04215885 0.01455430 0.00300445 0.00222507 0.00184693 0.01292220 0.00774894 0.04939321 0.00252060 0.00316663 0.12730360 0.00554829 0.01463389 0.02359109 0.00133996 
0.08334409 0.04157907 0.01434711 0.00298111 0.00229383 0.00179390 0.01277366 0.00719217 0.04830258 0.00243707 0.00305438 0.12619001 0.00556991 0.01445534 0.02351574 0.00134011 
0.08470243 0.04098641 0.01411302 0.00295564 0.00236280 0.00174448 0.01261863 0.00664739 0.04714144 0.00235775 0.00294294 0.12509252 0.00559004 0.01427224 0.02342310 0.00134015 
0.08596600 0.04038352 0.01385309 0.00292822 0.00243170 0.00169884 0.01245768 0.00611672 0.04591441 0.00228295 0.00283276 0.12401925 0.00560851 0.01408568 0.02331415 0.00134010 
0.08713009 0.03977324 0.01356855 0.00289901 0.00250024 0.00165715 0.01229139 0.00560222 0.04462646 0.00221294 0.00272435 0.12297814 0.00562515 0.01389679 0.02318993 0.00133994 
0.08819030 0.03915858 0.01326079 0.00286822 0.00256814 0.00161952 0.01212040 0.00510583 0.04328294 0.00214800 0.00261818 0.12197696 0.00563982 0.01370670 0.02305155 0.00133969 
0.08914256 0.03854268 0.01293131 0.00283608 0.00263512 0.00158610 0.01194540 0.00462940 0.04188949 0.00208837 0.00251473 0.12102324 0.00565236 0.01351655 0.02290020 0.00133935 
0.08998317 0.03792883 0.01258178 0.00280279 0.00270092 0.00155699 0.01176709 0.00417466 0.04045206 0.00203426 0.00241450 0.12012420 0.00566263 0.01332748 0.02273711 0.00133893 
0.09070884 0.03732043 0.01221397 0.00276862 0.00276527 0.00153228 0.01158623 0.00374323 0.03897686 0.00198589 0.00231795 0.11928675 0.00567048 0.01314062 0.02256355 0.00133842 
0.09131666 0.03672098 0.01182975 0.00273383 0.00282792 0.00151205 0.01140359 0.00333658 0.03747036 0.00194341 0.00222555 0.11851740 0.00567579 0.01295708 0.02238082 0.00133784 
0.09180413 0.03613408 0.01143111 0.00269867 0.00288862 0.00149635 0.01121996 0.00295608 0.03593921 0.00190700 0.00213776 0.11782224 0.00567843 0.01277796 0.02219028 0.00133719 
0.09216922 0.03556337 0.01102012 0.00266344 0.00294714 0.00148524 0.01103618 0.00260294 0.03439025 0.00187678 0.00205504 0.11720691 0.00567829 0.01260433 0.02199328 0.00133648 
0.09241031 0.03501256 0.01059890 0.00262842 0.00300325 0.00147872 0.01085308 0.00227822 0.03283047 0.00185286 0.00197781 0.11667652 0.00567527 0.01243722 0.02179119 0.00133572 
0.09252625 0.03448535 0.01016968 0.00259391 0.00305673 0.00147682 0.01067152 0.00198287 0.03126697 0.00183532 0.00190648 0.11623568 0.00566928 0.01227761 0.02158538 0.00133490 
0.09251636 0.03398546 0.00973467 0.00256021 0.00310740 0.00147952 0.01049238 0.00171766 0.02970691 0.00182423 0.00184147 0.11588842 0.00566024 0.01212645 0.02137722 0.00133405 
0.09238040 0.03351661 0.00929618 0.00252764 0.00315506 0.00148680 0.01031651 0.00148321 0.02815751 0.00181961 0.00178315 0.11563817 0.00564808 0.01198463 0.02116805 0.00133318 
0.09211863 0.03308243 0.00885648 0.00249650 0.00319954 0.00149862 0.01014479 0.00128001 0.02662596 0.00182148 0.00173187 0.11548775 0.00563277 0.01185300 0.02095920 0.00133227 
0.09173175 0.03268653 0.00841787 0.00246711 0.00324068 0.00151491 0.00997810 0.00110839 0.02511946 0.00182983 0.00168797 0.11543935 0.00561425 0.01173231 0.02075197 0.00133136 
0.09122095 0.03233242 0.00798265 0.00243979 0.00327834 0.00153560 0.00981731 0.00096853 0.02364511 0.00184462 0.00165176 0.11549451 0.00559253 0.01162327 0.02054763 0.00133045 
0.09058786 0.03202348 0.00755307 0.00241484 0.00331239 0.00156060 0.00966326 0.00086045 0.02220991 0.00186579 0.00162351 0.11565410 0.00556759 0.01152651 0.02034737 0.00132954 
0.08983456 0.03176297 0.00713136 0.00239257 0.00334271 0.00158980 0.00951680 0.00078403 0.02082071 0.00189326 0.00160347 0.11591833 0.00553945 0.01144260 0.02015237 0.00132865 
0.08896358 0.03155402 0.00671968 0.00237330 0.00336922 0.00162308 0.00937874 0.00073902 0.01948420 0.00192692 0.00159186 0.11628672 0.00550816 0.01137199 0.01996373 0.00132778 
0.08797787 0.03139954 0.00632014 0.00235730 0.00339182 0.00166030 0.00924988 0.00072500 0.01820683 0.00196665 0.00158886 0.11675813 0.00547375 0.01131510 0.01978248 0.00132694 
0.08688079 0.03130228 0.00593477 0.00234487 0.00341046 0.00170131 0.00913099 0.00074145 0.01699482 0.00201230 0.00159464 0.11733074 0.00543631 0.01127222 0.01960959 0.00132615 
0.08567608 0.03126476 0.00556548 0.00233630 0.00342508 0.00174594 0.00902280 0.00078769 0.01585409 0.00206369 0.00160929 0.11800210 0.00539593 0.01124357 0.01944597 0.00132540 
0.08436787 0.03128927 0.00521412 0.00233184 0.00343565 0.00179401 0.00892601 0.00086293 0.01479026 0.00212064 0.00163291 0.11876909 0.00535271 0.01122930 0.01929241 0.00132472 
0.08296063 0.03137784 0.00488240 0.00233175 0.00344217 0.00184533 0.00884127 0.00096624 0.01380861 0.00218294 0.00166553 0.11962795 0.00530680 0.01122943 0.01914967 0.00132410 
0.08145916 0.03153223 0.00457191 0.00233627 0.00344462 0.00189970 0.00876920 0.00109661 0.01291402 0.00225035 0.00170717 0.12057435 0.00525833 0.01124393 0.01901837 0.00132356 
0.07986855 0.03175392 0.00428411 0.00234561 0.00344303 0.00195690 0.00871036 0.00125289 0.01211099 0.00232264 0.00175779 0.12160333 0.00520748 0.01127266 0.01889908 0.00132309 
0.07819417 0.03204409 0.00402031 0.00236000 0.00343742 0.00201671 0.00866527 0.00143385 0.01140357 0.00239954 0.00181732 0.12270940 0.00515443 0.01131538 0.01879227 0.00132272 
0.07644163 0.03240361 0.00378168 0.00237960 0.00342786 0.00207889 0.00863438 0.00163816 0.01079539 0.00248077 0.00188566 0.12388655 0.00509938 0.01137178 0.01869831 0.00132243 
0.07461675 0.03283302 0.00356922 0.00240459 0.00341439 0.00214320 0.00861809 0.00186441 0.01028959 0.00256604 0.00196265 0.12512827 0.00504257 0.01144147 0.01861747 0.00132225 
0.07272555 0.03333254 0.00338379 0.00243510 0.00339710 0.00220939 0.00861673 0.00211113 0.00988880 0.00265503 0.00204811 0.12642758 0.00498422 0.01152394 0.01854995 0.00132216 
0.07077419 0.03390204 0.00322607 0.00247128 0.00337607 0.00227719 0.00863060 0.00237676 0.00959518 0.00274744 0.00214182 0.12777712 0.00492458 0.01161863 0.01849583 0.00132218 
0.06876894 0.03454106 0.00309656 0.00251320 0.00335143 0.00234635 0.00865989 0.00265970 0.00941034 0.00284292 0.00224351 0.12916912 0.00486393 0.01172489 0.01845511 0.00132231 
0.06671617 0.03524878 0.00299561 0.00256095 0.00332328 0.00241659 0.00870474 0.00295828 0.00933538 0.00294113 0.00235290 0.13059552 0.00480255 0.01184199 0.01842769 0.00132256 
0.06462230 0.03602404 0.00292339 0.00261458 0.00329176 0.00248764 0.00876523 0.00327082 0.00937083 0.00304173 0.00246964 0.13204793 0.00474071 0.01196914 0.01841340 0.00132291 
0.06249378 0.03686533 0.00287988 0.00267410 0.00325701 0.00255923 0.00884136 0.00359559 0.00951669 0.00314435 0.00259338 0.13351778 0.00467873 0.01210547 0.01841194 0.00132338 
0.06033705 0.03777079 0.00286491 0.00273953 0.00321919 0.00263107 0.00893305 0.00393085 0.00977243 0.00324863 0.00272371 0.13499627 0.00461691 0.01225005 0.01842297 0.00132396 
0.05815852 0.03873823 0.00287813 0.00281082 0.00317847 0.00270289 0.00904016 0.00427482 0.01013694 0.00335420 0.00286020 0.13647449 0.00455557 0.01240191 0.01844604 0.00132465 
0.05596450 0.03976511 0.00291902 0.00288794 0.00313503 0.00277441 0.00916247 0.00462577 0.01060858 0.00346068 0.00300239 0.13794343 0.00449502 0.01255999 0.01848062 0.00132546 
0.05376124 0.04084859 0.00298691 0.00297078 0.00308905 0.00284536 0.00929969 0.00498191 0.01118517 0.00356769 0.00314979 0.13939405 0.00443558 0.01272322 0.01852611 0.00132637 
0.05155484 0.04198550 0.00308097 0.00305926 0.00304073 0.00291544 0.00945144 0.00534151 0.01186400 0.00367487 0.00330190 0.14081734 0.00437759 0.01289049 0.01858183 0.00132738 
0.04935126 0.04317236 0.00320020 0.00315322 0.00299028 0.00298440 0.00961729 0.00570286 0.01264184 0.00378182 0.00345816 0.14220433 0.00432136 0.01306062 0.01864706 0.00132850 
0.04715627 0.04440542 0.00334348 0.00325252 0.00293790 0.00305197 0.00979672 0.00606424 0.01351497 0.00388818 0.00361802 0.14354619 0.00426722 0.01323244 0.01872098 0.00132971 
0.04497546 0.04568065 0.00350954 0.00335697 0.00288383 0.00311788 0.00998914 0.00642401 0.01447917 0.00399357 0.00378091 0.14483426 0.00421546 0.01340475 0.01880273 0.00133102 
0.04281417 0.04699378 0.00369701 0.00346634 0.00282827 0.00318188 0.01019390 0.00678055 0.01552977 0.00409762 0.00394622 0.14606008 0.00416642 0.01357633 0.01889140 0.00133241 
0.04067753 0.04834028 0.00390436 0.00358041 0.00277146 0.00324372 0.01041027 0.00713231 0.01666164 0.00419998 0.00411335 0.14721548 0.00412037 0.01374595 0.01898603 0.00133387 
0.03857038 0.04971544 0.00412998 0.00369892 0.00271364 0.00330316 0.01063747 0.00747777 0.01786925 0.00430028 0.00428168 0.14829258 0.00407762 0.01391240 0.01908562 0.00133541 
0.03649730 0.05111435 0.00437218 0.00382158 0.00265504 0.00335997 0.01087464 0.00781549 0.01914668 0.00439819 0.00445059 0.14928387 0.00403842 0.01407445 0.01918913 0.00133701 
0.03446260 0.05253191 0.00462915 0.00394809 0.00259590 0.00341393 0.01112086 0.00814412 0.02048766 0.00449336 0.00461942 0.15018223 0.00400305 0.01423091 0.01929550 0.00133867 
0.03247027 0.05396290 0.00489904 0.00407811 0.00253645 0.00346483 0.01137517 0.00846234 0.02188558 0.00458548 0.00478756 0.15098099 0.00397175 0.01438059 0.01940364 0.00134037 
0.03052399 0.05540199 0.00517993 0.00421132 0.00247695 0.00351248 0.01163655 0.00876894 0.02333355 0.00467423 0.00495437 0.15167395 0.00394473 0.01452234 0.01951245 0.00134211 
0.02862714 0.05684374 0.00546984 0.00434733 0.00241762 0.00355669 0.01190391 0.00906279 0.02482444 0.00475932 0.00511921 0.15225543 0.00392222 0.01465505 0.01962080 0.00134388 
0.02678279 0.05828267 0.00576679 0.00448579 0.00235870 0.00359730 0.01217614 0.00934283 0.02635087 0.00484046 0.00528145 0.15272029 0.00390438 0.01477763 0.01972759 0.00134566 
0.02499369 0.05971323 0.00606875 0.00462628 0.00230043 0.00363414 0.01245208 0.00960810 0.02790532 0.00491740 0.00544049 0.15306397 0.00389138 0.01488905 0.01983169 0.00134746 
0.02326225 0.06112991 0.00637370 0.00476840 0.00224304 0.00366708 0.01273053 0.00985775 0.02948011 0.00498988 0.00559571 0.15328252 0.00388335 0.01498833 0.01993198 0.00134925 
0.02159060 0.06252717 0.00667962 0.00491174 0.00218676 0.00369600 0.01301028 0.01009100 0.03106746 0.00505767 0.00574653 0.15337262 0.00388042 0.01507456 0.02002739 0.00135103 
0.01998054 0.06389956 0.00698451 0.00505586 0.00213180 0.00372078 0.01329006 0.01030717 0.03265957 0.00512057 0.00589237 0.15333157 0.00388265 0.01514688 0.02011682 0.00135280 
0.01843359 0.06524169 0.00728642 0.00520033 0.00207839 0.00374134 0.01356862 0.01050567 0.03424858 0.00517838 0.00603269 0.15315738 0.00389011 0.01520449 0.02019923 0.00135453 
0.01695094 0.06654826 0.00758343 0.00534471 0.00202673 0.00375760 0.01384466 0.01068604 0.03582669 0.00523094 0.00616695 0.15284871 0.00390283 0.01524668 0.02027361 0.00135622 
0.01553354 0.06781413 0.00787367 0.00548855 0.00197702 0.00376950 0.01411689 0.01084789 0.03738617 0.00527811 0.00629465 0.15240491 0.00392081 0.01527281 0.02033897 0.00135787 
0.01418205 0.06903429 0.00815537 0.00563140 0.00192946 0.00377702 0.01438402 0.01099092 0.03891939 0.00531975 0.00641531 0.15182604 0.00394402 0.01528233 0.02039438 0.00135946 
0.01289689 0.07020395 0.00842681 0.00577283 0.00188421 0.00378011 0.01464476 0.01111496 0.04041888 0.00535578 0.00652850 0.15111285 0.00397241 0.01527476 0.02043894 0.00136098 
0.01167822 0.07131849 0.00868638 0.00591237 0.00184146 0.00377879 0.01489782 0.01121989 0.04187738 0.00538610 0.00663380 0.15026679 0.00400589 0.01524971 0.02047183 0.00136242 
0.01052599 0.07237354 0.00893259 0.00604960 0.00180137 0.00377307 0.01514194 0.01130572 0.04328784 0.00541067 0.00673083 0.14929002 0.00404434 0.01520689 0.02049225 0.00136378 
0.00943996 0.07336499 0.00916401 0.00618408 0.00176407 0.00376298 0.01537589 0.01137254 0.04464350 0.00542946 0.00681924 0.14818535 0.00408763 0.01514608 0.02049950 0.00136505 
0.00841967 0.07428901 0.00937940 0.00631539 0.00172971 0.00374857 0.01559845 0.01142052 0.04593789 0.00544245 0.00689874 0.14695629 0.00413558 0.01506718 0.02049293 0.00136623 
0.00746452 0.07514206 0.00957758 0.00644310 0.00169841 0.00372992 0.01580845 0.01144992 0.04716490 0.00544967 0.00696905 0.14560702 0.00418800 0.01497016 0.02047194 0.00136730 
0.00657376 0.07592091 0.00975757 0.00656683 0.00167026 0.00370711 0.01600475 0.01146108 0.04831878 0.00545116 0.00702994 0.14414234 0.00424467 0.01485509 0.02043605 0.00136826 
0.00574650 0.07662267 0.00991849 0.00668617 0.00164538 0.00368025 0.01618627 0.01145443 0.04939421 0.00544698 0.00708124 0.14256766 0.00430533 0.01472215 0.02038480 0.00136910 
0.00498176 0.07724482 0.01005961 0.00680076 0.00162383 0.00364945 0.01635198 0.01143045 0.05038627 0.00543721 0.00712278 0.14088902 0.00436971 0.01457157 0.02031786 0.00136983 
0.00427844 0.07778517 0.01018038 0.00691025 0.00160567 0.00361486 0.01650090 0.01138972 0.05129052 0.00542197 0.00715448 0.13911300 0.00443753 0.01440373 0.02023495 0.00137043 
0.00363541 0.07824191 0.01028037 0.00701430 0.00159096 0.00357662 0.01663213 0.01133286 0.05210300 0.00540137 0.00717627 0.13724670 0.00450846 0.01421904 0.02013589 0.00137091 
0.00305147 0.07861364 0.01035934 0.00711260 0.00157972 0.00353491 0.01674484 0.01126056 0.05282024 0.00537558 0.00718812 0.13529776 0.00458216 0.01401805 0.02002057 0.00137126 
0.00252539 0.07889933 0.01041718 0.00720486 0.00157197 0.00348991 0.01683826 0.01117357 0.05343930 0.00534477 0.00719006 0.13327425 0.00465830 0.01380136 0.01988898 0.00137148 
0.00205591 0.07909834 0.01045396 0.00729081 0.00156771 0.00344182 0.01691173 0.01107268 0.05395776 0.00530911 0.00718216 0.13118467 0.00473650 0.01356966 0.01974119 0.00137157 
0.00164181 0.07921046 0.01046988 0.00737021 0.00156692 0.00339084 0.01696463 0.01095874 0.05437375 0.00526882 0.00716451 0.12903791 0.00481637 0.01332373 0.01957736 0.00137152 
0.00128185 0.07923586 0.01046533 0.00744285 0.00156956 0.00333719 0.01699648 0.01083262 0.05468595 0.00522411 0.00713726 0.12684318 0.00489753 0.01306441 0.01939774 0.00137135 
0.00097484 0.07917513 0.01044083 0.00750854 0.00157559 0.00328111 0.01700686 0.01069526 0.05489359 0.00517524 0.00710060 0.12461000 0.00497956 0.01279263 0.01920265 0.00137105 
0.00071963 0.07902923 0.01039706 0.00756712 0.00158493 0.00322284 0.01699546 0.01054759 0.05499644 0.00512244 0.00705475 0.12234813 0.00506208 0.01250935 0.01899253 0.00137062 
0.00051512 0.07879957 0.01033481 0.00761847 0.00159752 0.00316263 0.01696206 0.01039060 0.05499486 0.00506599 0.00699996 0.12006752 0.00514464 0.01221563 0.01876787 0.00137007 
0.00036027 0.07848789 0.01025506 0.00766248 0.00161324 0.00310074 0.01690655 0.01022526 0.05488971 0.00500616 0.00693652 0.11777825 0.00522685 0.01191256 0.01852926 0.00136939 
0.00025412 0.07809636 0.01015889 0.00769909 0.00163199 0.00303743 0.01682892 0.01005259 0.05468241 0.00494322 0.00686477 0.11549053 0.00530828 0.01160129 0.01827738 0.00136860 
0.00019580 0.07762750 0.01004749 0.00772826 0.00165365 0.00297298 0.01672926 0.00987361 0.05437492 0.00487749 0.00678505 0.11321459 0.00538852 0.01128302 0.01801296 0.00136770 
0.00018448 0.07708418 0.00992219 0.00774998 0.00167807 0.00290765 0.01660778 0.00968933 0.05396967 0.00480925 0.00669776 0.11096064 0.00546715 0.01095897 0.01773684 0.00136669 
0.00021945 0.07646962 0.00978442 0.00776427 0.00170510 0.00284173 0.01646478 0.00950077 0.05346962 0.00473881 0.00660330 0.10873887 0.00554378 0.01063041 0.01744990 0.00136558 
0.00030007 0.07578739 0.00963570 0.00777119 0.00173457 0.00277550 0.01630068 0.00930895 0.05287816 0.00466647 0.00650211 0.10655930 0.00561800 0.01029863 0.01715311 0.00136437 
0.00042579 0.07504133 0.00947763 0.00777083 0.00176632 0.00270923 0.01611599 0.00911488 0.05219918 0.00459255 0.00639465 0.10443183 0.00568944 0.00996493 0.01684749 0.00136307 
0.00059613 0.07423561 0.00931190 0.00776329 0.00180014 0.00264321 0.01591134 0.00891953 0.05143693 0.00451735 0.00628141 0.10236614 0.00575771 0.00963063 0.01653414 0.00136168 
0.00081069 0.07337464 0.00914024 0.00774872 0.00183585 0.00257772 0.01568746 0.00872388 0.05059610 0.00444119 0.00616287 0.10037162 0.00582248 0.00929706 0.01621420 0.00136023 
0.00106914 0.07246309 0.00896444 0.00772729 0.00187324 0.00251303 0.01544517 0.00852889 0.04968172 0.00436435 0.00603954 0.09845738 0.00588341 0.00896555 0.01588886 0.00135870 
0.00137120 0.07150585 0.00878634 0.00769921 0.00191210 0.00244941 0.01518540 0.00833546 0.04869916 0.00428715 0.00591196 0.09663214 0.00594016 0.00863742 0.01555936 0.00135711 
0.00171665 0.07050802 0.00860780 0.00766470 0.00195220 0.00238712 0.01490916 0.00814449 0.04765406 0.00420987 0.00578065 0.09490424 0.00599247 0.00831396 0.01522698 0.00135547 
0.00210532 0.06947485 0.00843067 0.00762401 0.00199333 0.00232643 0.01461756 0.00795685 0.04655236 0.00413280 0.00564616 0.09328157 0.00604004 0.00799648 0.01489304 0.00135378 
0.00253704 0.06841175 0.00825683 0.00757742 0.00203525 0.00226758 0.01431180 0.00777335 0.04540020 0.00405622 0.00550902 0.09177151 0.00608264 0.00768622 0.01455887 0.00135205 
0.00301168 0.06732425 0.00808813 0.00752522 0.00207773 0.00221083 0.01399315 0.00759478 0.04420390 0.00398038 0.00536978 0.09038094 0.00612004 0.00738442 0.01422583 0.00135029 
0.00352911 0.06621796 0.00792642 0.00746775 0.00212054 0.00215639 0.01366295 0.00742187 0.04296994 0.00390555 0.00522899 0.08911616 0.00615206 0.00709226 0.01389532 0.00134851 
0.00408917 0.06509856 0.00777347 0.00740534 0.00216346 0.00210450 0.01332263 0.00725534 0.04170491 0.00383197 0.00508718 0.08798289 0.00617853 0.00681090 0.01356871 0.00134672 
0.00469168 0.06397174 0.00763104 0.00733835 0.00220623 0.00205536 0.01297367 0.00709583 0.04041548 0.00375985 0.00494490 0.08698622 0.00619933 0.00654142 0.01324740 0.00134492 
0.00533641 0.06284323 0.00750080 0.00726715 0.00224863 0.00200917 0.01261761 0.00694394 0.03910832 0.00368943 0.00480267 0.08613058 0.00621434 0.00628488 0.01293278 0.00134311 
0.00602309 0.06171869 0.00738438 0.00719214 0.00229045 0.00196611 0.01225603 0.00680025 0.03779013 0.00362088 0.00466101 0.08541976 0.00622350 0.00604226 0.01262622 0.00134131 
0.00675134 0.06060374 0.00728329 0.00711372 0.00233144 0.00192635 0.01189057 0.00666525 0.03646755 0.00355441 0.00452042 0.08485681 0.00622678 0.00581447 0.01232910 0.00133952 
0.00752073 0.05950394 0.00719896 0.00703231 0.00237140 0.00189005 0.01152290 0.00653940 0.03514713 0.00349016 0.00438139 0.08444412 0.00622417 0.00560236 0.01204274 0.00133775 
0.00833067 0.05842468 0.00713273 0.00694832 0.00241011 0.00185734 0.01115469 0.00642311 0.03383532 0.00342830 0.00424439 0.08418333 0.00621570 0.00540673 0.01176846 0.00133601 
0.00918049 0.05737126 0.00708581 0.00686218 0.00244737 0.00182835 0.01078767 0.00631674 0.03253841 0.00336895 0.00410988 0.08407537 0.00620143 0.00522826 0.01150754 0.00133429 
0.01006937 0.05634878 0.00705929 0.00677433 0.00248299 0.00180319 0.01042355 0.00622059 0.03126251 0.00331222 0.00397830 0.08412042 0.00618146 0.00506759 0.01126121 0.00133261 
0.01099634 0.05536214 0.00705413 0.00668521 0.00251679 0.00178193 0.01006405 0.00613491 0.03001352 0.00325822 0.00385005 0.08431794 0.00615591 0.00492526 0.01103064 0.00133097 
0.01196025 0.05441605 0.00707116 0.00659524 0.00254859 0.00176466 0.00971089 0.00605991 0.02879707 0.00320701 0.00372553 0.08466668 0.00612496 0.00480173 0.01081699 0.00132937 
0.01295982 0.05351493 0.00711107 0.00650486 0.00257823 0.00175143 0.00936576 0.00599572 0.02761854 0.00315867 0.00360510 0.08516465 0.00608878 0.00469737 0.01062131 0.00132781 
0.01399354 0.05266297 0.00717439 0.00641451 0.00260556 0.00174226 0.00903033 0.00594246 0.02648300 0.00311323 0.00348910 0.08580915 0.00604760 0.00461247 0.01044462 0.00132630 
0.01505974 0.05186405 0.00726151 0.00632460 0.00263045 0.00173719 0.00870626 0.00590018 0.02539520 0.00307072 0.00337785 0.08659680 0.00600167 0.00454723 0.01028785 0.00132484 
0.01615656 0.05112173 0.00737265 0.00623555 0.00265279 0.00173621 0.00839512 0.00586888 0.02435954 0.00303115 0.00327164 0.08752354 0.00595126 0.00450176 0.01015188 0.00132344 
0.01728191 0.05043925 0.00750791 0.00614777 0.00267245 0.00173930 0.00809847 0.00584851 0.02338008 0.00299451 0.00317071 0.08858466 0.00589670 0.00447607 0.01003748 0.00132208 
0.01843353 0.04981952 0.00766718 0.00606164 0.00268937 0.00174642 0.00781780 0.00583898 0.02246046 0.00296079 0.00307532 0.08977484 0.00583830 0.00447010 0.00994535 0.00132078 
0.01960894 0.04926506 0.00785024 0.00597755 0.00270345 0.00175753 0.00755453 0.00584017 0.02160396 0.00292994 0.00298564 0.09108814 0.00577643 0.00448370 0.00987611 0.00131954 
0.02080546 0.04877804 0.00805668 0.00589586 0.00271465 0.00177255 0.00730999 0.00585189 0.02081344 0.00290192 0.00290187 0.09251809 0.00571146 0.00451661 0.00983030 0.00131834 
0.02202023 0.04836023 0.00828595 0.00581690 0.00272291 0.00179140 0.00708546 0.00587394 0.02009136 0.00287665 0.00282414 0.09405768 0.00564378 0.00456851 0.00980832 0.00131720 
0.02325018 0.04801301 0.00853734 0.00574101 0.00272823 0.00181397 0.00688211 0.00590605 0.01943975 0.00285406 0.00275257 0.09569942 0.00557382 0.00463899 0.00981054 0.00131610 
0.02449207 0.04773736 0.00881000 0.00566850 0.00273058 0.00184014 0.00670101 0.00594793 0.01886021 0.00283407 0.00268723 0.09743538 0.00550200 0.00472756 0.00983717 0.00131505 
0.02574250 0.04753387 0.00910292 0.00559963 0.00272997 0.00186977 0.00654314 0.00599926 0.01835393 0.00281656 0.00262820 0.09925722 0.00542877 0.00483363 0.00988837 0.00131405 
0.02699789 0.04740269 0.00941498 0.00553467 0.00272643 0.00190273 0.00640936 0.00605967 0.01792168 0.00280144 0.00257550 0.10115627 0.00535459 0.00495657 0.00996416 0.00131309 
0.02825454 0.04734360 0.00974489 0.00547385 0.00271999 0.00193883 0.00630042 0.00612878 0.01756379 0.00278858 0.00252912 0.10312353 0.00527992 0.00509566 0.01006448 0.00131217 
0.02950860 0.04735594 0.01009127 0.00541737 0.00271073 0.00197792 0.00621695 0.00620616 0.01728020 0.00277785 0.00248904 0.10514978 0.00520522 0.00525011 0.01018918 0.00131128 
0.03075614 0.04743868 0.01045259 0.00536542 0.00269869 0.00201979 0.00615946 0.00629137 0.01707044 0.00276913 0.00245522 0.10722557 0.00513098 0.00541907 0.01033797 0.00131042 
0.03199313 0.04759036 0.01082725 0.00531814 0.00268397 0.00206425 0.00612833 0.00638395 0.01693364 0.00276226 0.00242756 0.10934133 0.00505768 0.00560163 0.01051051 0.00130958 
0.03321548 0.04780917 0.01121351 0.00527566 0.00266668 0.00211109 0.00612381 0.00648338 0.01686855 0.00275711 0.00240596 0.11148736 0.00498578 0.00579683 0.01070631 0.00130877 
0.03441906 0.04809290 0.01160957 0.00523807 0.00264692 0.00216008 0.00614602 0.00658918 0.01687356 0.00275353 0.00239030 0.11365395 0.00491576 0.00600365 0.01092481 0.00130797 
0.03559971 0.04843899 0.01201355 0.00520542 0.00262481 0.00221099 0.00619494 0.00670080 0.01694670 0.00275136 0.00238042 0.11583139 0.00484808 0.00622105 0.01116536 0.00130719 
0.03675332 0.04884452 0.01242348 0.00517776 0.00260051 0.00226360 0.00627043 0.00681771 0.01708568 0.00275045 0.00237615 0.11801004 0.00478319 0.00644792 0.01142719 0.00130641 
0.03787578 0.04930625 0.01283736 0.00515509 0.00257416 0.00231765 0.00637219 0.00693934 0.01728787 0.00275065 0.00237730 0.12018039 0.00472156 0.00668314 0.01170948 0.00130563 
0.03896306 0.04982062 0.01325313 0.00513737 0.00254591 0.00237289 0.00649981 0.00706513 0.01755039 0.00275180 0.00238366 0.12233309 0.00466359 0.00692555 0.01201129 0.00130484 
0.04001124 0.05038379 0.01366870 0.00512456 0.00251594 0.00242908 0.00665274 0.00719450 0.01787004 0.00275374 0.00239498 0.12445902 0.00460972 0.00717398 0.01233161 0.00130405 
0.04101651 0.05099163 0.01408198 0.00511657 0.00248444 0.00248595 0.00683030 0.00732688 0.01824341 0.00275633 0.00241103 0.12654933 0.00456033 0.00742723 0.01266935 0.00130323 
0.04197521 0.05163980 0.01449083 0.00511328 0.00245157 0.00254324 0.00703167 0.00746167 0.01866685 0.00275940 0.00243154 0.12859553 0.00451580 0.00768411 0.01302336 0.00130241 
0.04288387 0.05232369 0.01489317 0.00511455 0.00241754 0.00260070 0.00725592 0.00759829 0.01913650 0.00276282 0.00245623 0.13058945 0.00447649 0.00794342 0.01339241 0.00130155 
0.04373922 0.05303854 0.01528689 0.00512022 0.00238255 0.00265806 0.00750200 0.00773615 0.01964833 0.00276643 0.00248482 0.13252338 0.00444272 0.00820394 0.01377520 0.00130067 
0.04453825 0.05377941 0.01566993 0.00513009 0.00234679 0.00271507 0.00776874 0.00787467 0.02019818 0.00277010 0.00251699 0.13439006 0.00441479 0.00846449 0.01417040 0.00129975 
0.04527819 0.05454122 0.01604027 0.00514394 0.00231047 0.00277147 0.00805486 0.00801327 0.02078173 0.00277369 0.00255243 0.13618270 0.00439298 0.00872388 0.01457661 0.00129880 
0.04595657 0.05531878 0.01639595 0.00516153 0.00227380 0.00282700 0.00835899 0.00815138 0.02139459 0.00277707 0.00259084 0.13789508 0.00437754 0.00898098 0.01499239 0.00129780 
0.04657122 0.05610682 0.01673506 0.00518260 0.00223698 0.00288142 0.00867964 0.00828843 0.02203229 0.00278012 0.00263188 0.13952154 0.00436867 0.00923463 0.01541628 0.00129676 
0.04712033 0.05690006 0.01705578 0.00520687 0.00220023 0.00293449 0.00901527 0.00842387 0.02269029 0.00278272 0.00267521 0.14105702 0.00436656 0.00948374 0.01584677 0.00129568 
0.04760241 0.05769315 0.01735636 0.00523404 0.00216375 0.00298597 0.00936423 0.00855716 0.02336406 0.00278476 0.00272051 0.14249708 0.00437135 0.00972726 0.01628233 0.00129455 
0.04801638 0.05848081 0.01763518 0.00526379 0.00212775 0.00303563 0.00972480 0.00868778 0.02404905 0.00278613 0.00276744 0.14383792 0.00438316 0.00996415 0.01672143 0.00129337 
0.04836152 0.05925778 0.01789069 0.00529579 0.00209243 0.00308325 0.01009523 0.00881521 0.02474075 0.00278674 0.00281565 0.14507643 0.00440206 0.01019344 0.01716252 0.00129213 
0.04863752 0.06001890 0.01812147 0.00532970 0.00205798 0.00312863 0.01047368 0.00893896 0.02543470 0.00278650 0.00286481 0.14621017 0.00442811 0.01041421 0.01760406 0.00129085 
0.04884449 0.06075910 0.01832623 0.00536517 0.00202460 0.00317157 0.01085830 0.00905858 0.02612650 0.00278533 0.00291459 0.14723739 0.00446130 0.01062560 0.01804451 0.00128952 
0.04898295 0.06147348 0.01850380 0.00540185 0.00199247 0.00321188 0.01124720 0.00917359 0.02681186 0.00278316 0.00296466 0.14815704 0.00450161 0.01082679 0.01848234 0.00128813 
0.04905384 0.06215730 0.01865315 0.00543936 0.00196178 0.00324938 0.01163846 0.00928358 0.02748660 0.00277992 0.00301468 0.14896878 0.00454897 0.01101703 0.01891605 0.00128670 
0.04905855 0.06280602 0.01877340 0.00547734 0.00193269 0.00328392 0.01203016 0.00938814 0.02814668 0.00277556 0.00306433 0.14967296 0.00460329 0.01119565 0.01934416 0.00128522 
0.04899886 0.06341535 0.01886381 0.00551542 0.00190537 0.00331535 0.01242038 0.00948690 0.02878823 0.00277002 0.00311332 0.15027064 0.00466444 0.01136203 0.01976525 0.00128370 
0.04887701 0.06398125 0.01892381 0.00555325 0.00187997 0.00334353 0.01280723 0.00957951 0.02940754 0.00276328 0.00316132 0.15076353 0.00473224 0.01151564 0.02017790 0.00128213 
0.04869561 0.06449996 0.01895296 0.00559046 0.00185663 0.00336836 0.01318883 0.00966565 0.03000109 0.00275530 0.00320806 0.15115406 0.00480649 0.01165600 0.02058078 0.00128054 
0.04845770 0.06496804 0.01895100 0.00562670 0.00183550 0.00338973 0.01356332 0.00974502 0.03056558 0.00274606 0.00325325 0.15144525 0.00488696 0.01178271 0.02097260 0.00127891 
0.04816671 0.06538238 0.01891782 0.00566163 0.00181668 0.00340755 0.01392892 0.00981736 0.03109792 0.00273555 0.00329663 0.15164080 0.00497339 0.01189547 0.02135211 0.00127725 
0.04782643 0.06574020 0.01885347 0.00569492 0.00180030 0.00342177 0.01428388 0.00988244 0.03159528 0.00272375 0.00333793 0.15174497 0.00506548 0.01199403 0.02171817 0.00127558 
0.04744100 0.06603913 0.01875815 0.00572625 0.00178645 0.00343232 0.01462654 0.00994007 0.03205506 0.00271069 0.00337693 0.15176262 0.00516291 0.01207822 0.02206967 0.00127390 
0.04701489 0.06627717 0.01863225 0.00575532 0.00177521 0.00343918 0.01495530 0.00999008 0.03247491 0.00269636 0.00341339 0.15169912 0.00526533 0.01214796 0.02240560 0.00127221 
0.04655287 0.06645270 0.01847628 0.00578184 0.00176666 0.00344232 0.01526866 0.01003235 0.03285277 0.00268079 0.00344712 0.15156036 0.00537237 0.01220322 0.02272502 0.00127052 
0.04605999 0.06656456 0.01829093 0.00580556 0.00176087 0.00344176 0.01556520 0.01006676 0.03318684 0.00266400 0.00347792 0.15135266 0.00548362 0.01224406 0.02302707 0.00126885 
0.04554153 0.06661197 0.01807702 0.00582623 0.00175787 0.00343751 0.01584362 0.01009326 0.03347562 0.00264603 0.00350564 0.15108279 0.00559869 0.01227063 0.02331100 0.00126721 
0.04500301 0.06659460 0.01783552 0.00584364 0.00175771 0.00342960 0.01610274 0.01011183 0.03371786 0.00262692 0.00353010 0.15075784 0.00571712 0.01228312 0.02357612 0.00126559 
0.04445009 0.06651256 0.01756754 0.00585759 0.00176040 0.00341810 0.01634146 0.01012247 0.03391265 0.00260673 0.00355120 0.15038526 0.00583847 0.01228180 0.02382184 0.00126401 
0.04388858 0.06636639 0.01727432 0.00586792 0.00176595 0.00340307 0.01655886 0.01012522 0.03405933 0.00258551 0.00356881 0.14997274 0.00596228 0.01226701 0.02404767 0.00126249 
0.04332440 0.06615706 0.01695722 0.00587449 0.00177436 0.00338459 0.01675411 0.01012016 0.03415756 0.00256331 0.00358284 0.14952819 0.00608806 0.01223916 0.02425322 0.00126104 
0.04276351 0.06588599 0.01661772 0.00587718 0.00178561 0.00336278 0.01692654 0.01010741 0.03420728 0.00254022 0.00359323 0.14905967 0.00621532 0.01219870 0.02443818 0.00125966 
0.04221192 0.06555499 0.01625742 0.00587592 0.00179966 0.00333776 0.01707561 0.01008709 0.03420872 0.00251630 0.00359993 0.14857536 0.00634359 0.01214616 0.02460234 0.00125836 
0.04167559 0.06516633 0.01587800 0.00587066 0.00181648 0.00330965 0.01720093 0.01005940 0.03416241 0.00249164 0.00360291 0.14808346 0.00647235 0.01208211 0.02474557 0.00125717 
0.04116043 0.06472265 0.01548123 0.00586136 0.00183601 0.00327860 0.01730226 0.01002455 0.03406913 0.00246633 0.00360217 0.14759218 0.00660111 0.01200716 0.02486787 0.00125609 
0.04067224 0.06422700 0.01506897 0.00584804 0.00185817 0.00324479 0.01737950 0.00998276 0.03392998 0.00244044 0.00359771 0.14710964 0.00672937 0.01192197 0.02496928 0.00125513 
0.04021668 0.06368281 0.01464313 0.00583074 0.00188289 0.00320838 0.01743269 0.00993433 0.03374630 0.00241409 0.00358958 0.14664384 0.00685664 0.01182725 0.02504996 0.00125430 
0.03979923 0.06309385 0.01420571 0.00580952 0.00191008 0.00316957 0.01746203 0.00987955 0.03351969 0.00238737 0.00357784 0.14620262 0.00698242 0.01172375 0.02511015 0.00125363 
0.03942512 0.06246422 0.01375872 0.00578446 0.00193962 0.00312854 0.01746788 0.00981875 0.03325202 0.00236038 0.00356255 0.14579353 0.00710625 0.01161222 0.02515017 0.00125311 
0.03909935 0.06179835 0.01330422 0.00575571 0.00197142 0.00308552 0.01745070 0.00975229 0.03294537 0.00233322 0.00354381 0.14542388 0.00722763 0.01149345 0.02517042 0.00125276 
0.03882658 0.06110095 0.01284429 0.00572340 0.00200534 0.00304071 0.01741114 0.00968054 0.03260207 0.00230602 0.00352173 0.14510059 0.00734612 0.01136827 0.02517137 0.00125260 
0.03861117 0.06037697 0.01238104 0.00568770 0.00204125 0.00299435 0.01734996 0.00960392 0.03222465 0.00227887 0.00349646 0.14483021 0.00746127 0.01123751 0.02515355 0.00125263 
0.03845708 0.05963161 0.01191655 0.00564882 0.00207902 0.00294667 0.01726804 0.00952285 0.03181586 0.00225189 0.00346812 0.14461883 0.00757266 0.01110200 0.02511758 0.00125286 
0.03836789 0.05887025 0.01145291 0.00560698 0.00211848 0.00289790 0.01716640 0.00943776 0.03137862 0.00222520 0.00343690 0.14447206 0.00767987 0.01096258 0.02506411 0.00125331 
0.03834672 0.05809845 0.01099218 0.00556241 0.00215949 0.00284829 0.01704618 0.00934914 0.03091601 0.00219891 0.00340297 0.14439496 0.00778253 0.01082011 0.02499386 0.00125397 
0.03839628 0.05732188 0.01053638 0.00551537 0.00220187 0.00279808 0.01690863 0.00925744 0.03043127 0.00217313 0.00336652 0.14439203 0.00788025 0.01067543 0.02490761 0.00125487 
0.03851876 0.05654634 0.01008749 0.00546615 0.00224546 0.00274752 0.01675508 0.00916316 0.02992779 0.00214798 0.00332776 0.14446717 0.00797271 0.01052937 0.02480615 0.00125600 
0.03871588 0.05577767 0.00964744 0.00541503 0.00229008 0.00269687 0.01658698 0.00906680 0.02940905 0.00212358 0.00328691 0.14462363 0.00805958 0.01038275 0.02469034 0.00125738 
0.03898883 0.05502173 0.00921808 0.00536232 0.00233555 0.00264636 0.01640585 0.00896887 0.02887865 0.00210003 0.00324420 0.14486400 0.00814057 0.01023638 0.02456106 0.00125901 
0.03933828 0.05428438 0.00880121 0.00530831 0.00238168 0.00259624 0.01621329 0.00886987 0.02834025 0.00207745 0.00319986 0.14519017 0.00821543 0.01009104 0.02441919 0.00126089 
0.03976436 0.05357145 0.00839852 0.00525335 0.00242829 0.00254676 0.01601094 0.00877032 0.02779758 0.00205593 0.00315414 0.14560335 0.00828391 0.00994748 0.02426567 0.00126302 
0.04026668 0.05288865 0.00801162 0.00519773 0.00247518 0.00249815 0.01580052 0.00867073 0.02725440 0.00203560 0.00310728 0.14610399 0.00834581 0.00980643 0.02410142 0.00126542 
0.04084427 0.05224161 0.00764201 0.00514180 0.00252217 0.00245065 0.01558377 0.00857162 0.02671449 0.00201655 0.00305955 0.14669185 0.00840095 0.00966859 0.02392739 0.00126807 
0.04149566 0.05163578 0.00729108 0.00508588 0.00256905 0.00240447 0.01536247 0.00847348 0.02618163 0.00199887 0.00301119 0.14736594 0.00844920 0.00953463 0.02374452 0.00127098 
0.04221881 0.05107644 0.00696013 0.00503029 0.00261564 0.00235985 0.01513841 0.00837681 0.02565958 0.00198266 0.00296248 0.14812454 0.00849042 0.00940516 0.02355374 0.00127415 
0.04301119 0.05056863 0.00665030 0.00497533 0.00266175 0.00231699 0.01491337 0.00828209 0.02515202 0.00196800 0.00291366 0.14896522 0.00852454 0.00928077 0.02335600 0.00127757 
0.04386974 0.05011716 0.00636262 0.00492133 0.00270717 0.00227607 0.01468916 0.00818981 0.02466262 0.00195498 0.00286500 0.14988482 0.00855150 0.00916200 0.02315220 0.00128123 
0.04479090 0.04972654 0.00609801 0.00486858 0.00275174 0.00223731 0.01446753 0.00810040 0.02419491 0.00194368 0.00281674 0.15087951 0.00857128 0.00904934 0.02294324 0.00128513 
0.04577064 0.04940098 0.00585722 0.00481735 0.00279526 0.00220085 0.01425022 0.00801430 0.02375235 0.00193416 0.00276914 0.15194475 0.00858387 0.00894326 0.02273000 0.00128925 
0.04680449 0.04914433 0.00564088 0.00476793 0.00283755 0.00216688 0.01403892 0.00793194 0.02333827 0.00192648 0.00272244 0.15307538 0.00858931 0.00884415 0.02251333 0.00129360 
0.04788754 0.04896009 0.00544949 0.00472056 0.00287844 0.00213554 0.01383527 0.00785369 0.02295582 0.00192069 0.00267687 0.15426563 0.00858766 0.00875238 0.02229405 0.00129815 
0.04901451 0.04885138 0.00528338 0.00467547 0.00291775 0.00210695 0.01364085 0.00777992 0.02260802 0.00191686 0.00263267 0.15550912 0.00857901 0.00866825 0.02207296 0.00130289 
0.05017973 0.04882088 0.00514277 0.00463288 0.00295534 0.00208124 0.01345714 0.00771096 0.02229770 0.00191501 0.00259003 0.15679896 0.00856347 0.00859203 0.02185079 0.00130781 
0.05137722 0.04887087 0.00502773 0.00459298 0.00299104 0.00205851 0.01328558 0.00764713 0.02202749 0.00191517 0.00254918 0.15812773 0.00854118 0.00852394 0.02162827 0.00131289 
0.05260071 0.04900319 0.00493817 0.00455593 0.00302471 0.00203885 0.01312747 0.00758868 0.02179978 0.00191738 0.00251029 0.15948758 0.00851230 0.00846415 0.02140608 0.00131810 
0.05384368 0.04921920 0.00487390 0.00452188 0.00305621 0.00202232 0.01298403 0.00753587 0.02161677 0.00192163 0.00247355 0.16087027 0.00847701 0.00841279 0.02118484 0.00132343 
0.05509939 0.04951981 0.00483455 0.00449094 0.00308542 0.00200898 0.01285636 0.00748888 0.02148037 0.00192795 0.00243912 0.16226718 0.00843552 0.00836993 0.02096516 0.00132885 
0.05636097 0.04990545 0.00481967 0.00446321 0.00311222 0.00199887 0.01274546 0.00744789 0.02139227 0.00193631 0.00240714 0.16366942 0.00838805 0.00833562 0.02074758 0.00133434 
0.05762138 0.05037607 0.00482865 0.00443874 0.00313651 0.00199199 0.01265218 0.00741303 0.02135385 0.00194672 0.00237775 0.16506787 0.00833484 0.00830985 0.02053261 0.00133988 
0.05887354 0.05093116 0.00486076 0.00441758 0.00315818 0.00198835 0.01257726 0.00738438 0.02136625 0.00195914 0.00235105 0.16645323 0.00827615 0.00829258 0.02032073 0.00134543 
0.06011032 0.05156970 0.00491517 0.00439973 0.00317717 0.00198793 0.01252130 0.00736200 0.02143028 0.00197355 0.00232714 0.16781607 0.00821225 0.00828373 0.02011235 0.00135096 
0.06132461 0.05229021 0.00499094 0.00438518 0.00319340 0.00199069 0.01248476 0.00734589 0.02154649 0.00198991 0.00230611 0.16914695 0.00814343 0.00828320 0.01990787 0.00135645 
0.06250937 0.05309074 0.00508701 0.00437389 0.00320681 0.00199659 0.01246796 0.00733602 0.02171509 0.00200817 0.00228800 0.17043640 0.00806998 0.00829082 0.01970763 0.00136187 
0.06365766 0.05396890 0.00520225 0.00436579 0.00321738 0.00200556 0.01247108 0.00733232 0.02193601 0.00202828 0.00227286 0.17167506 0.00799220 0.00830644 0.01951194 0.00136718 
0.06476267 0.05492181 0.00533543 0.00436079 0.00322506 0.00201750 0.01249416 0.00733468 0.02220884 0.00205015 0.00226071 0.17285369 0.00791041 0.00832985 0.01932108 0.00137235 
0.06581781 0.05594621 0.00548523 0.00435877 0.00322985 0.00203233 0.01253710 0.00734294 0.02253290 0.00207374 0.00225155 0.17396326 0.00782492 0.00836083 0.01913529 0.00137734 
0.06681673 0.05703839 0.00565030 0.00435960 0.00323174 0.00204992 0.01259964 0.00735691 0.02290716 0.00209894 0.00224537 0.17499500 0.00773605 0.00839913 0.01895478 0.00138212 
0.06775332 0.05819426 0.00582920 0.00436311 0.00323076 0.00207014 0.01268140 0.00737637 0.02333031 0.00212568 0.00224213 0.17594046 0.00764414 0.00844449 0.01877973 0.00138665 
0.06862182 0.05940937 0.00602043 0.00436914 0.00322692 0.00209285 0.01278185 0.00740104 0.02380072 0.00215386 0.00224179 0.17679156 0.00754949 0.00849663 0.01861032 0.00139091 
0.06941683 0.06067890 0.00622249 0.00437750 0.00322028 0.00211789 0.01290035 0.00743062 0.02431647 0.00218338 0.00224427 0.17754067 0.00745245 0.00855527 0.01844666 0.00139484 
0.07013330 0.06199773 0.00643381 0.00438796 0.00321089 0.00214510 0.01303612 0.00746478 0.02487534 0.00221413 0.00224950 0.17818064 0.00735333 0.00862011 0.01828889 0.00139843 
0.07076664 0.06336045 0.00665281 0.00440033 0.00319882 0.00217428 0.01318825 0.00750313 0.02547485 0.00224599 0.00225736 0.17870483 0.00725245 0.00869084 0.01813710 0.00140162 
0.07131270 0.06476138 0.00687792 0.00441435 0.00318416 0.00220526 0.01335573 0.00754529 0.02611225 0.00227886 0.00226776 0.17910722 0.00715013 0.00876716 0.01799139 0.00140439 
0.07176778 0.06619462 0.00710754 0.00442981 0.00316700 0.00223784 0.01353744 0.00759081 0.02678452 0.00231261 0.00228057 0.17938237 0.00704668 0.00884876 0.01785183 0.00140671 
0.07212872 0.06765406 0.00734010 0.00444645 0.00314745 0.00227179 0.01373217 0.00763925 0.02748841 0.00234712 0.00229564 0.17952555 0.00694241 0.00893535 0.01771850 0.00140854 
0.07239287 0.06913344 0.00757402 0.00446404 0.00312565 0.00230692 0.01393859 0.00769011 0.02822046 0.00238225 0.00231283 0.17953267 0.00683760 0.00902662 0.01759147 0.00140984 
0.07255810 0.07062637 0.00780778 0.00448231 0.00310171 0.00234301 0.01415534 0.00774290 0.02897698 0.00241788 0.00233197 0.17940039 0.00673256 0.00912228 0.01747080 0.00141059 
0.07262287 0.07212637 0.00803987 0.00450103 0.00307579 0.00237982 0.01438095 0.00779710 0.02975413 0.00245389 0.00235292 0.17912612 0.00662756 0.00922205 0.01735657 0.00141076 
0.07258617 0.07362690 0.00826884 0.00451995 0.00304803 0.00241714 0.01461390 0.00785216 0.03054788 0.00249013 0.00237548 0.17870802 0.00652287 0.00932566 0.01724884 0.00141032 
0.07244757 0.07512140 0.00849328 0.00453884 0.00301861 0.00245473 0.01485263 0.00790754 0.03135406 0.00252647 0.00239948 0.17814506 0.00641876 0.00943285 0.01714770 0.00140925 
0.07220724 0.07660333 0.00871185 0.00455748 0.00298769 0.00249237 0.01509555 0.00796268 0.03216840 0.00256280 0.00242473 0.17743697 0.00631548 0.00954338 0.01705322 0.00140752 
0.07186588 0.07806619 0.00892328 0.00457564 0.00295544 0.00252982 0.01534103 0.00801702 0.03298653 0.00259897 0.00245107 0.17658430 0.00621327 0.00965700 0.01696552 0.00140511 
0.07142481 0.07950357 0.00912635 0.00459313 0.00292206 0.00256688 0.01558743 0.00806998 0.03380400 0.00263487 0.00247829 0.17558838 0.00611236 0.00977353 0.01688468 0.00140201 
0.07088588 0.08090918 0.00931995 0.00460976 0.00288774 0.00260330 0.01583312 0.00812099 0.03461634 0.00267036 0.00250622 0.17445136 0.00601298 0.00989275 0.01681082 0.00139820 
0.07025152 0.08227690 0.00950304 0.00462535 0.00285265 0.00263888 0.01607646 0.00816950 0.03541905 0.00270534 0.00253467 0.17317614 0.00591533 0.01001449 0.01674408 0.00139368 
0.06952467 0.08360078 0.00967468 0.00463976 0.00281700 0.00267340 0.01631585 0.00821494 0.03620764 0.00273969 0.00256346 0.17176641 0.00581962 0.01013858 0.01668459 0.00138842 
0.06870884 0.08487507 0.00983400 0.00465285 0.00278099 0.00270665 0.01654972 0.00825676 0.03697768 0.00277329 0.00259243 0.17022662 0.00572604 0.01026489 0.01663251 0.00138243 
0.06780799 0.08609430 0.00998026 0.00466450 0.00274481 0.00273845 0.01677654 0.00829444 0.03772478 0.00280605 0.00262141 0.16856191 0.00563477 0.01039328 0.01658799 0.00137571 
0.06682662 0.08725326 0.01011280 0.00467464 0.00270865 0.00276861 0.01699486 0.00832744 0.03844466 0.00283787 0.00265024 0.16677815 0.00554598 0.01052366 0.01655122 0.00136826 
0.06576965 0.08834703 0.01023107 0.00468319 0.00267271 0.00279694 0.01720325 0.00835529 0.03913318 0.00286866 0.00267878 0.16488187 0.00545984 0.01065591 0.01652238 0.00136009 
0.06464243 0.08937103 0.01033462 0.00469010 0.00263717 0.00282328 0.01740041 0.00837749 0.03978631 0.00289833 0.00270689 0.16288023 0.00537649 0.01078997 0.01650166 0.00135120 
0.06345074 0.09032102 0.01042311 0.00469536 0.00260222 0.00284749 0.01758509 0.00839361 0.04040024 0.00292682 0.00273444 0.16078097 0.00529610 0.01092577 0.01648926 0.00134161 
0.06220068 0.09119312 0.01049631 0.00469898 0.00256804 0.00286941 0.01775616 0.00840321 0.04097133 0.00295406 0.00276133 0.15859240 0.00521878 0.01106325 0.01648539 0.00133135 
0.06089874 0.09198385 0.01055407 0.00470098 0.00253480 0.00288893 0.01791257 0.00840592 0.04149617 0.00298000 0.00278746 0.15632330 0.00514468 0.01120238 0.01649025 0.00132042 
0.05955164 0.09269012 0.01059637 0.00470141 0.00250266 0.00290592 0.01805341 0.00840138 0.04197162 0.00300458 0.00281274 0.15398294 0.00507391 0.01134311 0.01650404 0.00130887 
0.05816642 0.09330925 0.01062328 0.00470035 0.00247176 0.00292030 0.01817787 0.00838927 0.04239480 0.00302776 0.00283712 0.15158096 0.00500659 0.01148543 0.01652698 0.00129673 
0.05675030 0.09383900 0.01063497 0.00469789 0.00244226 0.00293199 0.01828528 0.00836930 0.04276313 0.00304954 0.00286054 0.14912737 0.00494285 0.01162930 0.01655926 0.00128402 
0.05531068 0.09427752 0.01063170 0.00469416 0.00241429 0.00294091 0.01837508 0.00834124 0.04307433 0.00306987 0.00288298 0.14663248 0.00488276 0.01177472 0.01660107 0.00127079 
0.05385510 0.09462346 0.01061382 0.00468930 0.00238796 0.00294702 0.01844686 0.00830490 0.04332647 0.00308876 0.00290440 0.14410680 0.00482645 0.01192165 0.01665258 0.00125708 
0.05239122 0.09487586 0.01058177 0.00468346 0.00236337 0.00295029 0.01850035 0.00826012 0.04351797 0.00310622 0.00292482 0.14156107 0.00477400 0.01207009 0.01671395 0.00124295 
0.05092672 0.09503421 0.01053609 0.00467681 0.00234063 0.00295070 0.01853541 0.00820680 0.04364760 0.00312224 0.00294426 0.13900612 0.00472550 0.01222000 0.01678532 0.00122844 
0.04946929 0.09509847 0.01047735 0.00466956 0.00231980 0.00294825 0.01855205 0.00814486 0.04371451 0.00313686 0.00296275 0.13645284 0.00468104 0.01237136 0.01686681 0.00121360 
0.04802660 0.09506901 0.01040625 0.00466191 0.00230095 0.00294297 0.01855041 0.00807431 0.04371824 0.00315011 0.00298034 0.13391216 0.00464069 0.01252412 0.01695851 0.00119851 
0.04660625 0.09494662 0.01032350 0.00465407 0.00228412 0.00293488 0.01853078 0.00799517 0.04365872 0.00316204 0.00299710 0.13139493 0.00460453 0.01267823 0.01706047 0.00118321 
0.04521570 0.09473255 0.01022990 0.00464628 0.00226935 0.00292405 0.01849359 0.00790753 0.04353627 0.00317268 0.00301312 0.12891189 0.00457263 0.01283363 0.01717272 0.00116777 
0.04386228 0.09442842 0.01012630 0.00463876 0.00225665 0.00291053 0.01843940 0.00781152 0.04335163 0.00318211 0.00302849 0.12647364 0.00454505 0.01299024 0.01729525 0.00115227 
0.04255309 0.09403627 0.01001358 0.00463177 0.00224603 0.00289441 0.01836891 0.00770731 0.04310592 0.00319040 0.00304334 0.12409053 0.00452187 0.01314796 0.01742800 0.00113678 
0.04129501 0.09355853 0.00989268 0.00462554 0.00223745 0.00287580 0.01828294 0.00759514 0.04280069 0.00319762 0.00305779 0.12177267 0.00450313 0.01330667 0.01757089 0.00112135 
0.04009465 0.09299800 0.00976454 0.00462033 0.00223090 0.00285480 0.01818243 0.00747529 0.04243784 0.00320385 0.00307197 0.11952982 0.00448888 0.01346623 0.01772376 0.00110608 
0.03895830 0.09235781 0.00963016 0.00461637 0.00222633 0.00283154 0.01806844 0.00734806 0.04201971 0.00320919 0.00308605 0.11737139 0.00447917 0.01362649 0.01788644 0.00109104 
0.03789190 0.09164143 0.00949052 0.00461391 0.00222367 0.00280616 0.01794214 0.00721383 0.04154898 0.00321374 0.00310017 0.11530637 0.00447405 0.01378725 0.01805867 0.00107630 
0.03690101 0.09085267 0.00934664 0.00461319 0.00222284 0.00277882 0.01780480 0.00707301 0.04102871 0.00321760 0.00311452 0.11334328 0.00447353 0.01394830 0.01824018 0.00106194 
0.03599081 0.08999559 0.00919952 0.00461442 0.00222376 0.00274968 0.01765778 0.00692605 0.04046230 0.00322089 0.00312927 0.11149015 0.00447766 0.01410940 0.01843062 0.00104804 
0.03516601 0.08907454 0.00905017 0.00461783 0.00222632 0.00271892 0.01750251 0.00677344 0.03985352 0.00322370 0.00314459 0.10975449 0.00448645 0.01427030 0.01862958 0.00103467 
0.03443088 0.08809410 0.00889958 0.00462362 0.00223040 0.00268672 0.01734050 0.00661571 0.03920640 0.00322617 0.00316067 0.10814321 0.00449991 0.01443069 0.01883662 0.00102193 
0.03378918 0.08705910 0.00874873 0.00463198 0.00223588 0.00265328 0.01717332 0.00645342 0.03852531 0.00322841 0.00317770 0.10666266 0.00451804 0.01459025 0.01905123 0.00100987 
0.03324420 0.08597451 0.00859858 0.00464309 0.00224262 0.00261879 0.01700260 0.00628717 0.03781487 0.00323054 0.00319587 0.10531853 0.00454084 0.01474863 0.01927285 0.00099858 
0.03279867 0.08484553 0.00845004 0.00465709 0.00225047 0.00258347 0.01682998 0.00611759 0.03707993 0.00323269 0.00321536 0.10411590 0.00456830 0.01490546 0.01950088 0.00098813 
0.03245481 0.08367744 0.00830402 0.00467412 0.00225927 0.00254753 0.01665715 0.00594533 0.03632558 0.00323497 0.00323636 0.10305916 0.00460038 0.01506033 0.01973464 0.00097860 
0.03221427 0.08247569 0.00816135 0.00469430 0.00226887 0.00251118 0.01648581 0.00577107 0.03555709 0.00323750 0.00325903 0.10215204 0.00463706 0.01521281 0.01997342 0.00097004 
0.03207816 0.08124579 0.00802284 0.00471772 0.00227909 0.00247464 0.01631765 0.00559551 0.03477986 0.00324041 0.00328355 0.10139757 0.00467828 0.01536245 0.02021647 0.00096253 
0.03204701 0.07999330 0.00788926 0.00474445 0.00228977 0.00243815 0.01615436 0.00541936 0.03399944 0.00324381 0.00331009 0.10079809 0.00472398 0.01550877 0.02046299 0.00095613 
0.03212077 0.07872386 0.00776130 0.00477452 0.00230072 0.00240191 0.01599761 0.00524335 0.03322147 0.00324780 0.00333878 0.10035524 0.00477410 0.01565126 0.02071213 0.00095089 
0.03229886 0.07744308 0.00763963 0.00480797 0.00231177 0.00236615 0.01584902 0.00506823 0.03245161 0.00325251 0.00336978 0.10006996 0.00482854 0.01578942 0.02096301 0.00094687 
0.03258010 0.07615657 0.00752482 0.00484478 0.00232274 0.00233109 0.01571017 0.00489473 0.03169558 0.00325802 0.00340320 0.09994252 0.00488720 0.01592270 0.02121473 0.00094411 
0.03296277 0.07486989 0.00741741 0.00488493 0.00233345 0.00229695 0.01558260 0.00472360 0.03095905 0.00326444 0.00343916 0.09997248 0.00494998 0.01605055 0.02146635 0.00094267 
0.03344457 0.07358856 0.00731789 0.00492835 0.00234374 0.00226393 0.01546777 0.00455559 0.03024765 0.00327185 0.00347774 0.10015874 0.00501675 0.01617242 0.02171692 0.00094257 
0.03402271 0.07231798 0.00722664 0.00497496 0.00235344 0.00223225 0.01536704 0.00439145 0.02956693 0.00328034 0.00351903 0.10049955 0.00508736 0.01628773 0.02196545 0.00094385 
0.03469383 0.07106345 0.00714402 0.00502466 0.00236237 0.00220211 0.01528172 0.00423190 0.02892229 0.00328996 0.00356307 0.10099250 0.00516166 0.01639591 0.02221098 0.00094653 
0.03545409 0.06983015 0.00707031 0.00507731 0.00237039 0.00217369 0.01521300 0.00407766 0.02831897 0.00330079 0.00360992 0.10163458 0.00523947 0.01649638 0.02245250 0.00095064 
0.03629917 0.06862308 0.00700572 0.00513277 0.00237734 0.00214718 0.01516196 0.00392944 0.02776204 0.00331287 0.00365957 0.10242220 0.00532061 0.01658858 0.02268904 0.00095619 
0.03722426 0.06744708 0.00695042 0.00519084 0.00238310 0.00212275 0.01512958 0.00378792 0.02725630 0.00332625 0.00371203 0.10335116 0.00540487 0.01667193 0.02291961 0.00096318 
0.03822414 0.06630678 0.00690448 0.00525133 0.00238752 0.00210057 0.01511671 0.00365376 0.02680630 0.00334096 0.00376726 0.10441677 0.00549204 0.01674587 0.02314327 0.00097161 
0.03929318 0.06520662 0.00686796 0.00531403 0.00239049 0.00208080 0.01512408 0.00352759 0.02641630 0.00335701 0.00382521 0.10561380 0.00558188 0.01680987 0.02335907 0.00098148 
0.04042535 0.06415079 0.00684081 0.00537868 0.00239191 0.00206356 0.01515227 0.00341001 0.02609022 0.00337440 0.00388580 0.10693657 0.00567415 0.01686340 0.02356610 0.00099276 
0.04161430 0.06314324 0.00682297 0.00544505 0.00239169 0.00204899 0.01520175 0.00330159 0.02583162 0.00339314 0.00394894 0.10837894 0.00576858 0.01690595 0.02376349 0.00100544 
0.04285335 0.06218767 0.00681430 0.00551285 0.00238975 0.00203721 0.01527282 0.00320286 0.02564369 0.00341320 0.00401450 0.10993437 0.00586490 0.01693705 0.02395040 0.00101949 
0.04413555 0.06128750 0.00681462 0.00558180 0.00238604 0.00202830 0.01536566 0.00311431 0.02552920 0.00343455 0.00408233 0.11159596 0.00596282 0.01695626 0.02412606 0.00103486 
0.04545373 0.06044585 0.00682370 0.00565162 0.00238050 0.00202236 0.01548030 0.00303639 0.02549049 0.00345714 0.00415226 0.11335649 0.00606204 0.01696316 0.02428973 0.00105153 
0.04680049 0.05966558 0.00684128 0.00572198 0.00237311 0.00201946 0.01561661 0.00296951 0.02552944 0.00348092 0.00422410 0.11520843 0.00616225 0.01695739 0.02444074 0.00106942 
0.04816828 0.05894923 0.00686704 0.00579259 0.00236385 0.00201965 0.01577435 0.00291402 0.02564748 0.00350582 0.00429764 0.11714401 0.00626311 0.01693861 0.02457849 0.00108849 
0.04954944 0.05829903 0.00690065 0.00586311 0.00235274 0.00202297 0.01595310 0.00287023 0.02584554 0.00353176 0.00437263 0.11915525 0.00636430 0.01690653 0.02470245 0.00110868 
0.05093623 0.05771689 0.00694174 0.00593325 0.00233979 0.00202944 0.01615232 0.00283839 0.02612407 0.00355864 0.00444883 0.12123399 0.00646547 0.01686093 0.02481215 0.00112991 
0.05232087 0.05720443 0.00698990 0.00600266 0.00232505 0.00203907 0.01637133 0.00281871 0.02648300 0.00358635 0.00452595 0.12337194 0.00656626 0.01680162 0.02490723 0.00115210 
0.05369558 0.05676291 0.00704473 0.00607104 0.00230856 0.00205185 0.01660932 0.00281134 0.02692177 0.00361477 0.00460370 0.12556070 0.00666633 0.01672848 0.02498738 0.00117518 
0.05505264 0.05639331 0.00710578 0.00613807 0.00229040 0.00206775 0.01686533 0.00281638 0.02743929 0.00364379 0.00468177 0.12779185 0.00676529 0.01664144 0.02505239 0.00119906 
0.05638441 0.05609625 0.00717262 0.00620343 0.00227066 0.00208674 0.01713832 0.00283386 0.02803398 0.00367325 0.00475984 0.13005690 0.00686279 0.01654048 0.02510214 0.00122364 
0.05768339 0.05587207 0.00724478 0.00626683 0.00224944 0.00210876 0.01742709 0.00286376 0.02870374 0.00370301 0.00483757 0.13234742 0.00695844 0.01642567 0.02513661 0.00124883 
0.05894223 0.05572075 0.00732181 0.00632797 0.00222686 0.00213373 0.01773037 0.00290602 0.02944598 0.00373292 0.00491461 0.13465498 0.00705186 0.01629713 0.02515584 0.00127452 
0.06015382 0.05564201 0.00740325 0.00638657 0.00220306 0.00216156 0.01804676 0.00296051 0.03025762 0.00376281 0.00499060 0.13697128 0.00714269 0.01615504 0.02516000 0.00130063 
0.06131128 0.05563523 0.00748865 0.00644238 0.00217818 0.00219217 0.01837480 0.00302704 0.03113510 0.00379251 0.00506518 0.13928809 0.00723055 0.01599965 0.02514932 0.00132703 
0.06240802 0.05569952 0.00757757 0.00649512 0.00215237 0.00222542 0.01871292 0.00310537 0.03207442 0.00382184 0.00513798 0.14159737 0.00731505 0.01583129 0.02512414 0.00135362 
0.06343777 0.05583368 0.00766956 0.00654458 0.00212582 0.00226119 0.01905951 0.00319522 0.03307112 0.00385062 0.00520863 0.14389120 0.00739582 0.01565033 0.02508488 0.00138030 
0.06439461 0.05603625 0.00776422 0.00659053 0.00209869 0.00229934 0.01941286 0.00329622 0.03412034 0.00387867 0.00527675 0.14616189 0.00747251 0.01545725 0.02503205 0.00140694 
0.06527301 0.05630549 0.00786114 0.00663279 0.00207118 0.00233971 0.01977125 0.00340800 0.03521684 0.00390579 0.00534196 0.14840197 0.00754474 0.01525255 0.02496624 0.00143344 
0.06606787 0.05663944 0.00795994 0.00667116 0.00204349 0.00238214 0.02013289 0.00353010 0.03635500 0.00393180 0.00540391 0.15060421 0.00761217 0.01503683 0.02488812 0.00145969 
0.06677451 0.05703586 0.00806028 0.00670551 0.00201581 0.00242645 0.02049598 0.00366202 0.03752889 0.00395651 0.00546223 0.15276165 0.00767445 0.01481074 0.02479845 0.00148557 
0.06738872 0.05749233 0.00816182 0.00673570 0.00198836 0.00247246 0.02085870 0.00380324 0.03873227 0.00397974 0.00551657 0.15486760 0.00773126 0.01457500 0.02469803 0.00151098 
0.06790679 0.05800618 0.00826427 0.00676163 0.00196134 0.00251997 0.02121923 0.00395316 0.03995864 0.00400129 0.00556659 0.15691570 0.00778227 0.01433037 0.02458776 0.00153581 
0.06832551 0.05857457 0.00836734 0.00678320 0.00193497 0.00256878 0.02157573 0.00411117 0.04120129 0.00402098 0.00561196 0.15889988 0.00782717 0.01407769 0.02446857 0.00155995 
0.06864220 0.05919450 0.00847080 0.00680038 0.00190947 0.00261869 0.02192641 0.00427661 0.04245331 0.00403864 0.00565237 0.16081440 0.00786569 0.01381786 0.02434147 0.00158331 
0.06885471 0.05986278 0.00857444 0.00681311 0.00188503 0.00266947 0.02226950 0.00444879 0.04370765 0.00405410 0.00568752 0.16265389 0.00789754 0.01355180 0.02420749 0.00160578 
0.06896143 0.06057611 0.00867808 0.00682141 0.00186189 0.00272090 0.02260325 0.00462699 0.04495715 0.00406719 0.00571715 0.16441329 0.00792248 0.01328050 0.02406772 0.00162728 
0.06896134 0.06133105 0.00878156 0.00682527 0.00184023 0.00277278 0.02292599 0.00481045 0.04619461 0.00407777 0.00574099 0.16608794 0.00794027 0.01300500 0.02392327 0.00164771 
0.06885394 0.06212407 0.00888478 0.00682475 0.00182025 0.00282487 0.02323609 0.00499841 0.04741279 0.00408568 0.00575883 0.16767349 0.00795069 0.01272636 0.02377528 0.00166699 
0.06863931 0.06295155 0.00898765 0.00681991 0.00180216 0.00287696 0.02353200 0.00519007 0.04860448 0.00409080 0.00577046 0.16916601 0.00795357 0.01244569 0.02362490 0.00168504 
0.06831808 0.06380981 0.00909011 0.00681083 0.00178614 0.00292880 0.02381224 0.00538463 0.04976254 0.00409301 0.00577572 0.17056189 0.00794873 0.01216411 0.02347328 0.00170180 
0.06789145 0.06469512 0.00919213 0.00679764 0.00177236 0.00298019 0.02407542 0.00558127 0.05087994 0.00409220 0.00577444 0.17185794 0.00793604 0.01188279 0.02332160 0.00171719 
0.06736115 0.06560375 0.00929371 0.00678045 0.00176098 0.00303091 0.02432025 0.00577917 0.05194981 0.00408828 0.00576654 0.17305129 0.00791538 0.01160291 0.02317099 0.00173117 
0.06672944 0.06653191 0.00939488 0.00675944 0.00175216 0.00308073 0.02454556 0.00597749 0.05296547 0.00408118 0.00575191 0.17413947 0.00788667 0.01132565 0.02302260 0.00174367 
0.06599910 0.06747588 0.00949569 0.00673476 0.00174603 0.00312944 0.02475026 0.00617540 0.05392050 0.00407083 0.00573053 0.17512035 0.00784985 0.01105221 0.02287753 0.00175466 
0.06517344 0.06843192 0.00959620 0.00670661 0.00174272 0.00317685 0.02493340 0.00637209 0.05480872 0.00405719 0.00570236 0.17599218 0.00780489 0.01078380 0.02273687 0.00176411 
0.06425622 0.06939636 0.00969649 0.00667521 0.00174234 0.00322275 0.02509414 0.00656673 0.05562430 0.00404025 0.00566745 0.17675355 0.00775180 0.01052162 0.02260164 0.00177198 
0.06325168 0.07036558 0.00979668 0.00664076 0.00174499 0.00326695 0.02523177 0.00675852 0.05636175 0.00402000 0.00562584 0.17740339 0.00769061 0.01026686 0.02247285 0.00177826 
0.06216448 0.07133605 0.00989687 0.00660351 0.00175073 0.00330927 0.02534572 0.00694668 0.05701598 0.00399645 0.00557763 0.17794097 0.00762139 0.01002069 0.02235142 0.00178294 
0.06099969 0.07230433 0.00999719 0.00656372 0.00175964 0.00334955 0.02543554 0.00713044 0.05758230 0.00396964 0.00552295 0.17836591 0.00754423 0.00978427 0.02223824 0.00178600 
0.05976279 0.07326706 0.01009778 0.00652163 0.00177174 0.00338763 0.02550091 0.00730906 0.05805650 0.00393962 0.00546197 0.17867813 0.00745927 0.00955872 0.02213411 0.00178747 
0.05845955 0.07422103 0.01019876 0.00647751 0.00178707 0.00342335 0.02554168 0.00748183 0.05843483 0.00390646 0.00539489 0.17887786 0.00736667 0.00934516 0.02203978 0.00178735 
0.05709612 0.07516315 0.01030029 0.00643164 0.00180563 0.00345659 0.02555780 0.00764807 0.05871406 0.00387027 0.00532195 0.17896564 0.00726663 0.00914464 0.02195590 0.00178566 
0.05567887 0.07609046 0.01040248 0.00638430 0.00182741 0.00348723 0.02554937 0.00780713 0.05889148 0.00383116 0.00524343 0.17894228 0.00715938 0.00895818 0.02188307 0.00178244 
0.05421446 0.07700017 0.01050548 0.00633576 0.00185239 0.00351516 0.02551664 0.00795840 0.05896492 0.00378927 0.00515962 0.17880890 0.00704518 0.00878674 0.02182177 0.00177771 
0.05270971 0.07788962 0.01060940 0.00628631 0.00188049 0.00354029 0.02545996 0.00810132 0.05893280 0.00374474 0.00507088 0.17856686 0.00692432 0.00863126 0.02177243 0.00177153 
0.05117166 0.07875635 0.01071436 0.00623623 0.00191168 0.00356256 0.02537986 0.00823536 0.05879408 0.00369776 0.00497757 0.17821776 0.00679714 0.00849258 0.02173535 0.00176394 
0.04960743 0.07959804 0.01082045 0.00618580 0.00194585 0.00358189 0.02527694 0.00836004 0.05854835 0.00364853 0.00488010 0.17776348 0.00666400 0.00837152 0.02171077 0.00175500 
0.04802426 0.08041257 0.01092776 0.00613528 0.00198291 0.00359826 0.02515195 0.00847494 0.05819574 0.00359725 0.00477889 0.17720611 0.00652528 0.00826880 0.02169882 0.00174478 
0.04642942 0.08119799 0.01103634 0.00608494 0.00202273 0.00361164 0.02500578 0.00857969 0.05773701 0.00354415 0.00467440 0.17654793 0.00638141 0.00818509 0.02169955 0.00173334 
0.04483019 0.08195253 0.01114625 0.00603504 0.00206519 0.00362202 0.02483938 0.00867395 0.05717351 0.00348949 0.00456712 0.17579147 0.00623284 0.00812097 0.02171290 0.00172076 
0.04323383 0.08267461 0.01125750 0.00598582 0.00211014 0.00362942 0.02465385 0.00875746 0.05650718 0.00343353 0.00445755 0.17493941 0.00608005 0.00807695 0.02173873 0.00170712 
0.04164752 0.08336282 0.01137009 0.00593751 0.00215740 0.00363385 0.02445035 0.00882999 0.05574052 0.00337655 0.00434621 0.17399464 0.00592354 0.00805348 0.02177680 0.00169250 
