0.01022222 0.00801618 0.00077235 0.00158954 0.00299488 0.00123689 0.00896073 0.00288184 0.01173356 0.00283575 0.00946262 0.00157914 0.00363853 0.00949072 0.00293154 0.00030297 
0.01040555 0.00830304 0.00084555 0.00160317 0.00298185 0.00125523 0.00902834 0.00286835 0.01156355 0.00276088 0.00957110 0.00157336 0.00357267 0.01014925 0.00314848 0.00029638 
0.01058697 0.00860182 0.00092320 0.00161749 0.00296758 0.00127479 0.00908661 0.00285583 0.01138990 0.00268755 0.00969934 0.00156670 0.00350308 0.01081429 0.00337276 0.00029060 
0.01076569 0.00891162 0.00100510 0.00163243 0.00295227 0.00129557 0.00913516 0.00284417 0.01121374 0.00261604 0.00984699 0.00155920 0.00342998 0.01148393 0.00360386 0.00028562 
0.01094094 0.00923147 0.00109107 0.00164793 0.00293616 0.00131752 0.00917368 0.00283326 0.01103617 0.00254660 0.01001362 0.00155092 0.00335358 0.01215624 0.00384124 0.00028145 
0.01111196 0.00956035 0.00118089 0.00166391 0.00291948 0.00134061 0.00920191 0.00282299 0.01085832 0.00247952 0.01019867 0.00154189 0.00327415 0.01282925 0.00408429 0.00027806 
0.01127802 0.00989723 0.00127435 0.00168030 0.00290244 0.00136478 0.00921965 0.00281325 0.01068128 0.00241502 0.01040154 0.00153218 0.00319196 0.01350098 0.00433241 0.00027546 
0.01143840 0.01024099 0.00137123 0.00169702 0.00288527 0.00138999 0.00922674 0.00280394 0.01050618 0.00235335 0.01062149 0.00152184 0.00310732 0.01416945 0.00458496 0.00027362 
0.01159242 0.01059051 0.00147127 0.00171401 0.00286820 0.00141616 0.00922310 0.00279496 0.01033409 0.00229472 0.01085773 0.00151095 0.00302053 0.01483270 0.00484128 0.00027254 
0.01173943 0.01094462 0.00157423 0.00173118 0.00285143 0.00144322 0.00920869 0.00278619 0.01016609 0.00223934 0.01110936 0.00149956 0.00293195 0.01548878 0.00510067 0.00027221 
0.01187881 0.01130214 0.00167987 0.00174846 0.00283518 0.00147107 0.00918352 0.00277755 0.01000320 0.00218740 0.01137543 0.00148776 0.00284193 0.01613577 0.00536245 0.00027260 
0.01201000 0.01166186 0.00178790 0.00176577 0.00281964 0.00149962 0.00914769 0.00276894 0.00984643 0.00213907 0.01165490 0.00147561 0.00275083 0.01677178 0.00562590 0.00027371 
0.01213245 0.01202254 0.00189805 0.00178304 0.00280500 0.00152877 0.00910133 0.00276027 0.00969676 0.00209449 0.01194666 0.00146318 0.00265907 0.01739499 0.00589030 0.00027552 
0.01224569 0.01238296 0.00201005 0.00180020 0.00279144 0.00155840 0.00904463 0.00275147 0.00955509 0.00205380 0.01224956 0.00145057 0.00256702 0.01800364 0.00615492 0.00027802 
0.01234927 0.01274189 0.00212362 0.00181718 0.00277912 0.00158840 0.00897783 0.00274247 0.00942231 0.00201711 0.01256235 0.00143784 0.00247512 0.01859603 0.00641905 0.00028118 
0.01244280 0.01309808 0.00223846 0.00183390 0.00276817 0.00161863 0.00890123 0.00273320 0.00929923 0.00198451 0.01288379 0.00142508 0.00238378 0.01917055 0.00668196 0.00028499 
0.01252595 0.01345033 0.00235427 0.00185031 0.00275875 0.00164895 0.00881518 0.00272361 0.00918662 0.00195608 0.01321253 0.00141236 0.00229343 0.01972567 0.00694293 0.00028944 
0.01259844 0.01379742 0.00247077 0.00186633 0.00275094 0.00167924 0.00872007 0.00271365 0.00908518 0.00193185 0.01354724 0.00139978 0.00220451 0.02025995 0.00720126 0.00029451 
0.01266004 0.01413817 0.00258766 0.00188192 0.00274487 0.00170933 0.00861635 0.00270329 0.00899553 0.00191187 0.01388653 0.00138739 0.00211747 0.02077208 0.00745625 0.00030017 
0.01271059 0.01447145 0.00270463 0.00189702 0.00274059 0.00173909 0.00850448 0.00269251 0.00891826 0.00189614 0.01422898 0.00137529 0.00203272 0.02126085 0.00770723 0.00030642 
0.01274997 0.01479612 0.00282139 0.00191158 0.00273816 0.00176836 0.00838500 0.00268129 0.00885386 0.00188464 0.01457317 0.00136355 0.00195072 0.02172515 0.00795354 0.00031323 
0.01277814 0.01511112 0.00293765 0.00192554 0.00273763 0.00179698 0.00825844 0.00266963 0.00880274 0.00187734 0.01491766 0.00135224 0.00187190 0.02216400 0.00819454 0.00032058 
0.01279509 0.01541544 0.00305311 0.00193888 0.00273901 0.00182480 0.00812539 0.00265753 0.00876525 0.00187418 0.01526101 0.00134143 0.00179667 0.02257657 0.00842964 0.00032846 
0.01280091 0.01570811 0.00316748 0.00195155 0.00274229 0.00185166 0.00798646 0.00264502 0.00874166 0.00187509 0.01560178 0.00133119 0.00172546 0.02296213 0.00865824 0.00033684 
0.01279570 0.01598821 0.00328049 0.00196351 0.00274746 0.00187739 0.00784229 0.00263211 0.00873217 0.00187998 0.01593854 0.00132159 0.00165867 0.02332010 0.00887981 0.00034571 
0.01277965 0.01625493 0.00339185 0.00197476 0.00275447 0.00190185 0.00769352 0.00261886 0.00873688 0.00188872 0.01626989 0.00131267 0.00159668 0.02365002 0.00909383 0.00035505 
0.01275300 0.01650749 0.00350130 0.00198525 0.00276326 0.00192488 0.00754081 0.00260530 0.00875582 0.00190119 0.01659443 0.00130450 0.00153987 0.02395157 0.00929983 0.00036483 
0.01271604 0.01674521 0.00360857 0.00199498 0.00277375 0.00194633 0.00738485 0.00259149 0.00878894 0.00191724 0.01691081 0.00129712 0.00148858 0.02422458 0.00949735 0.00037504 
0.01266911 0.01696749 0.00371342 0.00200394 0.00278584 0.00196605 0.00722631 0.00257750 0.00883611 0.00193669 0.01721771 0.00129058 0.00144315 0.02446898 0.00968600 0.00038565 
0.01261262 0.01717380 0.00381561 0.00201211 0.00279942 0.00198391 0.00706588 0.00256341 0.00889712 0.00195938 0.01751384 0.00128492 0.00140387 0.02468487 0.00986542 0.00039665 
0.01254700 0.01736372 0.00391492 0.00201950 0.00281435 0.00199977 0.00690422 0.00254929 0.00897169 0.00198509 0.01779798 0.00128016 0.00137104 0.02487245 0.01003527 0.00040801 
0.01247275 0.01753692 0.00401112 0.00202610 0.00283048 0.00201351 0.00674203 0.00253524 0.00905945 0.00201364 0.01806894 0.00127634 0.00134489 0.02503204 0.01019529 0.00041970 
0.01239039 0.01769315 0.00410403 0.00203193 0.00284767 0.00202501 0.00657995 0.00252135 0.00915997 0.00204478 0.01832562 0.00127348 0.00132564 0.02516410 0.01034522 0.00043171 
0.01230051 0.01783227 0.00419346 0.00203699 0.00286574 0.00203416 0.00641863 0.00250773 0.00927274 0.00207830 0.01856695 0.00127159 0.00131349 0.02526920 0.01048487 0.00044401 
0.01220372 0.01795424 0.00427924 0.00204130 0.00288451 0.00204088 0.00625871 0.00249448 0.00939718 0.00211395 0.01879195 0.00127067 0.00130858 0.02534800 0.01061409 0.00045657 
0.01210066 0.01805911 0.00436123 0.00204489 0.00290379 0.00204506 0.00610078 0.00248171 0.00953266 0.00215149 0.01899970 0.00127073 0.00131102 0.02540127 0.01073274 0.00046937 
0.01199200 0.01814703 0.00443929 0.00204777 0.00292339 0.00204665 0.00594543 0.00246954 0.00967847 0.00219065 0.01918937 0.00127177 0.00132091 0.02542989 0.01084075 0.00048238 
0.01187846 0.01821826 0.00451332 0.00204997 0.00294310 0.00204559 0.00579322 0.00245807 0.00983385 0.00223119 0.01936021 0.00127376 0.00133827 0.02543479 0.01093808 0.00049557 
0.01176074 0.01827315 0.00458321 0.00205152 0.00296273 0.00204182 0.00564466 0.00244744 0.00999799 0.00227284 0.01951152 0.00127670 0.00136312 0.02541700 0.01102472 0.00050892 
0.01163960 0.01831213 0.00464890 0.00205245 0.00298207 0.00203533 0.00550024 0.00243775 0.01017003 0.00231533 0.01964274 0.00128056 0.00139541 0.02537761 0.01110071 0.00052239 
0.01151579 0.01833574 0.00471033 0.00205279 0.00300091 0.00202608 0.00536041 0.00242913 0.01034907 0.00235840 0.01975335 0.00128531 0.00143507 0.02531777 0.01116611 0.00053596 
0.01139008 0.01834461 0.00476746 0.00205259 0.00301907 0.00201409 0.00522559 0.00242168 0.01053415 0.00240179 0.01984295 0.00129091 0.00148199 0.02523867 0.01122101 0.00054959 
0.01126323 0.01833946 0.00482028 0.00205188 0.00303634 0.00199936 0.00509616 0.00241551 0.01072431 0.00244524 0.01991122 0.00129731 0.00153600 0.02514155 0.01126555 0.00056325 
0.01113603 0.01832106 0.00486879 0.00205070 0.00305254 0.00198193 0.00497244 0.00241075 0.01091854 0.00248848 0.01995792 0.00130449 0.00159691 0.02502767 0.01129987 0.00057691 
0.01100925 0.01829028 0.00491303 0.00204909 0.00306748 0.00196184 0.00485473 0.00240749 0.01111582 0.00253127 0.01998292 0.00131237 0.00166449 0.02489830 0.01132414 0.00059053 
0.01088364 0.01824807 0.00495304 0.00204709 0.00308101 0.00193916 0.00474327 0.00240582 0.01131510 0.00257336 0.01998618 0.00132091 0.00173846 0.02475474 0.01133858 0.00060408 
0.01075997 0.01819541 0.00498887 0.00204475 0.00309297 0.00191397 0.00463828 0.00240585 0.01151532 0.00261451 0.01996774 0.00133004 0.00181851 0.02459828 0.01134340 0.00061752 
0.01063898 0.01813337 0.00502063 0.00204210 0.00310322 0.00188635 0.00453992 0.00240765 0.01171545 0.00265450 0.01992775 0.00133970 0.00190429 0.02443019 0.01133884 0.00063082 
0.01052138 0.01806304 0.00504839 0.00203919 0.00311162 0.00185641 0.00444830 0.00241131 0.01191441 0.00269310 0.01986643 0.00134982 0.00199543 0.02425173 0.01132515 0.00064393 
0.01040788 0.01798557 0.00507230 0.00203606 0.00311808 0.00182429 0.00436351 0.00241689 0.01211117 0.00273011 0.01978411 0.00136034 0.00209151 0.02406415 0.01130261 0.00065683 
0.01029915 0.01790215 0.00509247 0.00203274 0.00312251 0.00179011 0.00428558 0.00242446 0.01230470 0.00276533 0.01968119 0.00137117 0.00219208 0.02386864 0.01127148 0.00066947 
0.01019584 0.01781396 0.00510906 0.00202929 0.00312483 0.00175404 0.00421450 0.00243406 0.01249397 0.00279858 0.01955815 0.00138224 0.00229668 0.02366636 0.01123206 0.00068181 
0.01009855 0.01772222 0.00512224 0.00202573 0.00312499 0.00171622 0.00415023 0.00244574 0.01267802 0.00282969 0.01941558 0.00139348 0.00240481 0.02345843 0.01118464 0.00069382 
0.01000786 0.01762817 0.00513218 0.00202210 0.00312298 0.00167685 0.00409270 0.00245953 0.01285588 0.00285851 0.01925411 0.00140480 0.00251594 0.02324591 0.01112952 0.00070545 
0.00992431 0.01753303 0.00513907 0.00201845 0.00311878 0.00163612 0.00404177 0.00247544 0.01302664 0.00288490 0.01907447 0.00141613 0.00262953 0.02302979 0.01106700 0.00071668 
0.00984839 0.01743801 0.00514312 0.00201480 0.00311240 0.00159421 0.00399730 0.00249348 0.01318942 0.00290875 0.01887746 0.00142739 0.00274503 0.02281104 0.01099739 0.00072745 
0.00978056 0.01734430 0.00514452 0.00201118 0.00310390 0.00155134 0.00395911 0.00251366 0.01334341 0.00292993 0.01866394 0.00143850 0.00286185 0.02259051 0.01092098 0.00073774 
0.00972122 0.01725306 0.00514351 0.00200763 0.00309333 0.00150772 0.00392698 0.00253595 0.01348783 0.00294837 0.01843483 0.00144938 0.00297943 0.02236902 0.01083808 0.00074751 
0.00967074 0.01716542 0.00514029 0.00200417 0.00308077 0.00146359 0.00390067 0.00256033 0.01362197 0.00296400 0.01819113 0.00145995 0.00309716 0.02214732 0.01074900 0.00075671 
0.00962942 0.01708246 0.00513509 0.00200083 0.00306635 0.00141916 0.00387992 0.00258677 0.01374517 0.00297675 0.01793385 0.00147015 0.00321444 0.02192607 0.01065402 0.00076532 
0.00959752 0.01700519 0.00512814 0.00199763 0.00305018 0.00137468 0.00386444 0.00261522 0.01385685 0.00298660 0.01766410 0.00147989 0.00333070 0.02170589 0.01055345 0.00077331 
0.00957524 0.01693459 0.00511967 0.00199460 0.00303242 0.00133037 0.00385392 0.00264561 0.01395650 0.00299353 0.01738300 0.00148911 0.00344532 0.02148731 0.01044758 0.00078063 
0.00956276 0.01687155 0.00510991 0.00199175 0.00301324 0.00128649 0.00384804 0.00267787 0.01404365 0.00299753 0.01709172 0.00149774 0.00355772 0.02127081 0.01033670 0.00078726 
0.00956016 0.01681686 0.00509908 0.00198911 0.00299284 0.00124327 0.00384648 0.00271194 0.01411796 0.00299862 0.01679147 0.00150572 0.00366734 0.02105680 0.01022109 0.00079316 
0.00956750 0.01677126 0.00508739 0.00198668 0.00297142 0.00120094 0.00384887 0.00274771 0.01417911 0.00299684 0.01648346 0.00151299 0.00377359 0.02084563 0.01010105 0.00079832 
0.00958478 0.01673538 0.00507507 0.00198448 0.00294921 0.00115975 0.00385487 0.00278509 0.01422691 0.00299223 0.01616895 0.00151949 0.00387595 0.02063761 0.00997684 0.00080271 
0.00961193 0.01670977 0.00506232 0.00198252 0.00292646 0.00111993 0.00386413 0.00282396 0.01426121 0.00298486 0.01584921 0.00152518 0.00397389 0.02043299 0.00984877 0.00080630 
0.00964885 0.01669486 0.00504932 0.00198081 0.00290342 0.00108170 0.00387628 0.00286422 0.01428196 0.00297481 0.01552551 0.00152999 0.00406690 0.02023198 0.00971710 0.00080907 
0.00969538 0.01669098 0.00503627 0.00197936 0.00288036 0.00104529 0.00389096 0.00290574 0.01428919 0.00296218 0.01519914 0.00153390 0.00415452 0.02003476 0.00958214 0.00081101 
0.00975132 0.01669836 0.00502334 0.00197817 0.00285755 0.00101091 0.00390782 0.00294838 0.01428301 0.00294707 0.01487138 0.00153687 0.00423631 0.01984146 0.00944415 0.00081210 
0.00981640 0.01671710 0.00501069 0.00197725 0.00283528 0.00097876 0.00392651 0.00299200 0.01426361 0.00292963 0.01454351 0.00153886 0.00431185 0.01965221 0.00930345 0.00081233 
0.00989032 0.01674721 0.00499846 0.00197661 0.00281385 0.00094904 0.00394669 0.00303647 0.01423125 0.00290997 0.01421679 0.00153986 0.00438077 0.01946712 0.00916033 0.00081170 
0.00997272 0.01678857 0.00498677 0.00197623 0.00279355 0.00092192 0.00396803 0.00308164 0.01418628 0.00288825 0.01389247 0.00153983 0.00444275 0.01928627 0.00901510 0.00081019 
0.01006323 0.01684095 0.00497574 0.00197613 0.00277467 0.00089758 0.00399021 0.00312735 0.01412912 0.00286463 0.01357178 0.00153876 0.00449749 0.01910978 0.00886807 0.00080780 
0.01016140 0.01690401 0.00496547 0.00197630 0.00275751 0.00087617 0.00401292 0.00317346 0.01406026 0.00283929 0.01325590 0.00153665 0.00454475 0.01893773 0.00871959 0.00080454 
0.01026676 0.01697729 0.00495601 0.00197674 0.00274236 0.00085783 0.00403589 0.00321979 0.01398026 0.00281239 0.01294602 0.00153350 0.00458432 0.01877025 0.00856998 0.00080040 
0.01037881 0.01706022 0.00494743 0.00197744 0.00272950 0.00084268 0.00405884 0.00326620 0.01388974 0.00278413 0.01264325 0.00152930 0.00461604 0.01860748 0.00841961 0.00079541 
0.01049700 0.01715214 0.00493977 0.00197841 0.00271921 0.00083083 0.00408153 0.00331253 0.01378939 0.00275469 0.01234869 0.00152405 0.00463981 0.01844958 0.00826885 0.00078956 
0.01062076 0.01725227 0.00493303 0.00197964 0.00271176 0.00082237 0.00410373 0.00335861 0.01367994 0.00272429 0.01206336 0.00151779 0.00465557 0.01829675 0.00811810 0.00078288 
0.01074950 0.01735975 0.00492722 0.00198112 0.00270741 0.00081738 0.00412523 0.00340430 0.01356220 0.00269312 0.01178827 0.00151051 0.00466330 0.01814922 0.00796777 0.00077539 
0.01088260 0.01747360 0.00492230 0.00198286 0.00270638 0.00081590 0.00414585 0.00344943 0.01343700 0.00266138 0.01152435 0.00150226 0.00466306 0.01800728 0.00781828 0.00076709 
0.01101940 0.01759279 0.00491825 0.00198483 0.00270890 0.00081798 0.00416543 0.00349386 0.01330522 0.00262929 0.01127246 0.00149304 0.00465491 0.01787127 0.00767008 0.00075803 
0.01115926 0.01771618 0.00491499 0.00198705 0.00271517 0.00082362 0.00418384 0.00353743 0.01316776 0.00259705 0.01103343 0.00148290 0.00463902 0.01774156 0.00752365 0.00074823 
0.01130149 0.01784260 0.00491245 0.00198950 0.00272538 0.00083282 0.00420097 0.00358001 0.01302558 0.00256488 0.01080799 0.00147188 0.00461555 0.01761859 0.00737948 0.00073772 
0.01144542 0.01797077 0.00491053 0.00199217 0.00273968 0.00084557 0.00421672 0.00362144 0.01287962 0.00253297 0.01059684 0.00146001 0.00458475 0.01750286 0.00723808 0.00072654 
0.01159035 0.01809939 0.00490911 0.00199507 0.00275822 0.00086183 0.00423105 0.00366161 0.01273088 0.00250154 0.01040058 0.00144734 0.00454690 0.01739494 0.00709999 0.00071473 
0.01173558 0.01822712 0.00490806 0.00199819 0.00278110 0.00088152 0.00424392 0.00370037 0.01258033 0.00247079 0.01021973 0.00143392 0.00450233 0.01729542 0.00696575 0.00070233 
0.01188043 0.01835256 0.00490725 0.00200151 0.00280840 0.00090458 0.00425530 0.00373762 0.01242896 0.00244090 0.01005477 0.00141980 0.00445139 0.01720498 0.00683594 0.00068937 
0.01202419 0.01847431 0.00490651 0.00200504 0.00284018 0.00093090 0.00426522 0.00377322 0.01227776 0.00241207 0.00990606 0.00140503 0.00439451 0.01712435 0.00671114 0.00067592 
0.01216618 0.01859094 0.00490568 0.00200878 0.00287648 0.00096038 0.00427370 0.00380708 0.01212769 0.00238448 0.00977391 0.00138967 0.00433212 0.01705431 0.00659196 0.00066201 
0.01230573 0.01870104 0.00490457 0.00201270 0.00291729 0.00099288 0.00428080 0.00383910 0.01197970 0.00235830 0.00965854 0.00137379 0.00426471 0.01699567 0.00647901 0.00064770 
0.01244216 0.01880319 0.00490301 0.00201682 0.00296258 0.00102826 0.00428660 0.00386918 0.01183473 0.00233370 0.00956009 0.00135743 0.00419280 0.01694933 0.00637291 0.00063304 
0.01257483 0.01889599 0.00490080 0.00202113 0.00301230 0.00106636 0.00429118 0.00389724 0.01169367 0.00231083 0.00947860 0.00134066 0.00411692 0.01691617 0.00627429 0.00061809 
0.01270312 0.01897809 0.00489774 0.00202561 0.00306636 0.00110700 0.00429468 0.00392321 0.01155736 0.00228983 0.00941407 0.00132354 0.00403765 0.01689715 0.00618379 0.00060291 
0.01282640 0.01904814 0.00489364 0.00203028 0.00312464 0.00115000 0.00429720 0.00394701 0.01142664 0.00227083 0.00936637 0.00130614 0.00395558 0.01689323 0.00610205 0.00058754 
0.01294411 0.01910490 0.00488829 0.00203511 0.00318701 0.00119515 0.00429891 0.00396858 0.01130225 0.00225396 0.00933533 0.00128852 0.00387131 0.01690538 0.00602968 0.00057205 
0.01305569 0.01914713 0.00488149 0.00204012 0.00325330 0.00124225 0.00429996 0.00398788 0.01118492 0.00223932 0.00932066 0.00127074 0.00378547 0.01693458 0.00596732 0.00055650 
0.01316061 0.01917370 0.00487305 0.00204530 0.00332330 0.00129107 0.00430053 0.00400486 0.01107528 0.00222700 0.00932201 0.00125286 0.00369868 0.01698182 0.00591556 0.00054095 
0.01325838 0.01918355 0.00486277 0.00205063 0.00339681 0.00134140 0.00430079 0.00401949 0.01097392 0.00221708 0.00933897 0.00123494 0.00361160 0.01704806 0.00587500 0.00052545 
0.01334855 0.01917570 0.00485048 0.00205613 0.00347358 0.00139300 0.00430094 0.00403173 0.01088135 0.00220963 0.00937102 0.00121704 0.00352485 0.01713424 0.00584621 0.00051006 
0.01343070 0.01914929 0.00483599 0.00206178 0.00355334 0.00144562 0.00430118 0.00404157 0.01079802 0.00220469 0.00941758 0.00119922 0.00343907 0.01724126 0.00582972 0.00049485 
0.01350445 0.01910354 0.00481915 0.00206758 0.00363582 0.00149904 0.00430172 0.00404899 0.01072430 0.00220231 0.00947800 0.00118153 0.00335490 0.01736999 0.00582604 0.00047988 
0.01356947 0.01903779 0.00479979 0.00207353 0.00372071 0.00155300 0.00430275 0.00405399 0.01066047 0.00220249 0.00955157 0.00116402 0.00327295 0.01752121 0.00583564 0.00046518 
0.01362545 0.01895151 0.00477779 0.00207963 0.00380770 0.00160726 0.00430451 0.00405657 0.01060673 0.00220525 0.00963749 0.00114675 0.00319384 0.01769565 0.00585894 0.00045084 
0.01367215 0.01884427 0.00475301 0.00208586 0.00389645 0.00166158 0.00430718 0.00405672 0.01056323 0.00221057 0.00973492 0.00112976 0.00311813 0.01789396 0.00589633 0.00043689 
0.01370937 0.01871580 0.00472536 0.00209224 0.00398663 0.00171572 0.00431098 0.00405447 0.01052998 0.00221843 0.00984296 0.00111309 0.00304640 0.01811670 0.00594812 0.00042339 
0.01373695 0.01856594 0.00469475 0.00209875 0.00407788 0.00176944 0.00431612 0.00404982 0.01050696 0.00222879 0.00996064 0.00109678 0.00297919 0.01836432 0.00601459 0.00041038 
0.01375479 0.01839466 0.00466110 0.00210538 0.00416986 0.00182251 0.00432279 0.00404281 0.01049404 0.00224160 0.01008695 0.00108088 0.00291699 0.01863715 0.00609595 0.00039793 
0.01376281 0.01820207 0.00462438 0.00211215 0.00426221 0.00187470 0.00433119 0.00403345 0.01049101 0.00225678 0.01022084 0.00106540 0.00286027 0.01893541 0.00619232 0.00038606 
0.01376102 0.01798844 0.00458455 0.00211903 0.00435456 0.00192581 0.00434149 0.00402177 0.01049759 0.00227427 0.01036122 0.00105038 0.00280949 0.01925920 0.00630379 0.00037483 
0.01374946 0.01775416 0.00454161 0.00212604 0.00444656 0.00197561 0.00435387 0.00400781 0.01051339 0.00229396 0.01050696 0.00103584 0.00276502 0.01960847 0.00643034 0.00036427 
0.01372820 0.01749974 0.00449560 0.00213315 0.00453785 0.00202392 0.00436849 0.00399161 0.01053798 0.00231575 0.01065690 0.00102180 0.00272722 0.01998301 0.00657190 0.00035441 
0.01369739 0.01722584 0.00444653 0.00214037 0.00462811 0.00207054 0.00438549 0.00397320 0.01057084 0.00233953 0.01080985 0.00100828 0.00269640 0.02038249 0.00672830 0.00034530 
0.01365723 0.01693327 0.00439449 0.00214769 0.00471697 0.00211531 0.00440500 0.00395262 0.01061138 0.00236516 0.01096462 0.00099529 0.00267281 0.02080642 0.00689930 0.00033696 
0.01360793 0.01662295 0.00433956 0.00215512 0.00480414 0.00215806 0.00442715 0.00392992 0.01065893 0.00239250 0.01111999 0.00098283 0.00265668 0.02125413 0.00708459 0.00032941 
0.01354980 0.01629590 0.00428185 0.00216263 0.00488929 0.00219864 0.00445202 0.00390514 0.01071279 0.00242142 0.01127475 0.00097091 0.00264817 0.02172483 0.00728375 0.00032268 
0.01348316 0.01595330 0.00422151 0.00217022 0.00497214 0.00223693 0.00447969 0.00387833 0.01077217 0.00245175 0.01142768 0.00095953 0.00264738 0.02221753 0.00749628 0.00031678 
0.01340839 0.01559642 0.00415867 0.00217790 0.00505240 0.00227281 0.00451022 0.00384954 0.01083625 0.00248334 0.01157757 0.00094868 0.00265437 0.02273111 0.00772161 0.00031173 
0.01332590 0.01522662 0.00409353 0.00218565 0.00512984 0.00230617 0.00454365 0.00381882 0.01090417 0.00251601 0.01172322 0.00093835 0.00266916 0.02326429 0.00795909 0.00030753 
0.01323618 0.01484539 0.00402627 0.00219347 0.00520421 0.00233694 0.00458000 0.00378622 0.01097500 0.00254960 0.01186345 0.00092853 0.00269170 0.02381563 0.00820796 0.00030420 
0.01313971 0.01445427 0.00395713 0.00220134 0.00527531 0.00236505 0.00461926 0.00375179 0.01104781 0.00258392 0.01199711 0.00091921 0.00272189 0.02438355 0.00846740 0.00030174 
0.01303705 0.01405490 0.00388632 0.00220927 0.00534295 0.00239044 0.00466140 0.00371559 0.01112162 0.00261880 0.01212307 0.00091036 0.00275959 0.02496634 0.00873652 0.00030014 
0.01292878 0.01364898 0.00381411 0.00221724 0.00540699 0.00241308 0.00470637 0.00367766 0.01119546 0.00265405 0.01224025 0.00090196 0.00280460 0.02556213 0.00901434 0.00029940 
0.01281550 0.01323827 0.00374075 0.00222525 0.00546730 0.00243295 0.00475410 0.00363807 0.01126831 0.00268949 0.01234761 0.00089399 0.00285668 0.02616896 0.00929983 0.00029951 
0.01269788 0.01282458 0.00366653 0.00223329 0.00552376 0.00245005 0.00480450 0.00359687 0.01133918 0.00272494 0.01244416 0.00088641 0.00291554 0.02678474 0.00959187 0.00030045 
0.01257658 0.01240975 0.00359173 0.00224135 0.00557631 0.00246439 0.00485743 0.00355412 0.01140706 0.00276022 0.01252895 0.00087921 0.00298083 0.02740728 0.00988930 0.00030221 
0.01245231 0.01199563 0.00351666 0.00224942 0.00562491 0.00247601 0.00491276 0.00350988 0.01147097 0.00279515 0.01260111 0.00087235 0.00305219 0.02803432 0.01019091 0.00030477 
0.01232578 0.01158410 0.00344162 0.00225750 0.00566953 0.00248495 0.00497033 0.00346421 0.01152992 0.00282954 0.01265983 0.00086578 0.00312920 0.02866352 0.01049542 0.00030810 
0.01219776 0.01117704 0.00336692 0.00226556 0.00571020 0.00249126 0.00502995 0.00341716 0.01158298 0.00286324 0.01270436 0.00085949 0.00321140 0.02929247 0.01080154 0.00031218 
0.01206899 0.01077631 0.00329288 0.00227361 0.00574694 0.00249502 0.00509140 0.00336882 0.01162922 0.00289608 0.01273405 0.00085343 0.00329830 0.02991873 0.01110793 0.00031698 
0.01194024 0.01038374 0.00321982 0.00228163 0.00577982 0.00249632 0.00515447 0.00331924 0.01166778 0.00292788 0.01274829 0.00084757 0.00338941 0.03053983 0.01141321 0.00032246 
0.01181232 0.01000114 0.00314804 0.00228962 0.00580894 0.00249525 0.00521890 0.00326849 0.01169780 0.00295851 0.01274660 0.00084186 0.00348416 0.03115331 0.01171603 0.00032859 
0.01168599 0.00963025 0.00307786 0.00229755 0.00583440 0.00249191 0.00528443 0.00321666 0.01171853 0.00298781 0.01272854 0.00083628 0.00358200 0.03175670 0.01201499 0.00033532 
0.01156205 0.00927279 0.00300958 0.00230541 0.00585636 0.00248643 0.00535077 0.00316380 0.01172924 0.00301565 0.01269378 0.00083079 0.00368235 0.03234755 0.01230869 0.00034263 
0.01144129 0.00893037 0.00294350 0.00231320 0.00587496 0.00247894 0.00541762 0.00311002 0.01172926 0.00304190 0.01264209 0.00082535 0.00378462 0.03292348 0.01259578 0.00035046 
0.01132449 0.00860453 0.00287991 0.00232090 0.00589039 0.00246956 0.00548468 0.00305538 0.01171802 0.00306644 0.01257333 0.00081992 0.00388819 0.03348214 0.01287489 0.00035878 
0.01121243 0.00829674 0.00281909 0.00232849 0.00590284 0.00245843 0.00555162 0.00299999 0.01169500 0.00308917 0.01248744 0.00081448 0.00399245 0.03402130 0.01314468 0.00036753 
0.01110586 0.00800835 0.00276129 0.00233595 0.00591252 0.00244571 0.00561809 0.00294393 0.01165978 0.00310997 0.01238446 0.00080900 0.00409681 0.03453878 0.01340387 0.00037667 
0.01100552 0.00774061 0.00270676 0.00234328 0.00591967 0.00243154 0.00568375 0.00288729 0.01161199 0.00312878 0.01226454 0.00080343 0.00420064 0.03503254 0.01365119 0.00038616 
0.01091214 0.00749465 0.00265574 0.00235045 0.00592452 0.00241607 0.00574826 0.00283020 0.01155138 0.00314551 0.01212793 0.00079776 0.00430335 0.03550066 0.01388546 0.00039593 
0.01082641 0.00727148 0.00260842 0.00235745 0.00592730 0.00239946 0.00581124 0.00277274 0.01147777 0.00316010 0.01197495 0.00079196 0.00440435 0.03594137 0.01410553 0.00040596 
0.01074900 0.00707197 0.00256501 0.00236426 0.00592828 0.00238186 0.00587234 0.00271504 0.01139110 0.00317249 0.01180604 0.00078601 0.00450306 0.03635303 0.01431033 0.00041618 
0.01068055 0.00689687 0.00252566 0.00237085 0.00592772 0.00236342 0.00593119 0.00265721 0.01129136 0.00318264 0.01162171 0.00077989 0.00459893 0.03673420 0.01449887 0.00042655 
0.01062164 0.00674678 0.00249051 0.00237720 0.00592585 0.00234430 0.00598744 0.00259938 0.01117866 0.00319053 0.01142260 0.00077357 0.00469143 0.03708360 0.01467024 0.00043701 
0.01057285 0.00662216 0.00245970 0.00238331 0.00592295 0.00232465 0.00604073 0.00254168 0.01105323 0.00319613 0.01120940 0.00076706 0.00478006 0.03740014 0.01482361 0.00044753 
0.01053468 0.00652332 0.00243332 0.00238913 0.00591927 0.00230460 0.00609069 0.00248425 0.01091534 0.00319943 0.01098291 0.00076034 0.00486434 0.03768293 0.01495827 0.00045805 
0.01050762 0.00645042 0.00241143 0.00239465 0.00591504 0.00228430 0.00613700 0.00242721 0.01076540 0.00320045 0.01074400 0.00075341 0.00494384 0.03793130 0.01507358 0.00046853 
0.01049208 0.00640347 0.00239407 0.00239984 0.00591050 0.00226388 0.00617930 0.00237073 0.01060391 0.00319918 0.01049363 0.00074625 0.00501814 0.03814475 0.01516903 0.00047893 
0.01048844 0.00638233 0.00238128 0.00240469 0.00590589 0.00224347 0.00621729 0.00231494 0.01043143 0.00319566 0.01023281 0.00073888 0.00508689 0.03832304 0.01524419 0.00048920 
0.01049702 0.00638673 0.00237302 0.00240916 0.00590141 0.00222318 0.00625065 0.00226000 0.01024865 0.00318992 0.00996265 0.00073130 0.00514977 0.03846610 0.01529878 0.00049929 
0.01051807 0.00641621 0.00236927 0.00241323 0.00589726 0.00220312 0.00627908 0.00220607 0.01005633 0.00318199 0.00968431 0.00072351 0.00520649 0.03857411 0.01533260 0.00050918 
0.01055182 0.00647022 0.00236997 0.00241687 0.00589363 0.00218340 0.00630233 0.00215331 0.00985530 0.00317193 0.00939900 0.00071553 0.00525682 0.03864745 0.01534558 0.00051882 
0.01059840 0.00654802 0.00237503 0.00242005 0.00589068 0.00216410 0.00632013 0.00210189 0.00964648 0.00315979 0.00910799 0.00070738 0.00530057 0.03868670 0.01533776 0.00052818 
0.01065790 0.00664877 0.00238433 0.00242276 0.00588855 0.00214531 0.00633226 0.00205196 0.00943088 0.00314564 0.00881261 0.00069907 0.00533760 0.03869265 0.01530931 0.00053722 
0.01073035 0.00677149 0.00239774 0.00242497 0.00588736 0.00212710 0.00633851 0.00200371 0.00920956 0.00312955 0.00851419 0.00069063 0.00536782 0.03866630 0.01526049 0.00054592 
0.01081570 0.00691508 0.00241509 0.00242664 0.00588723 0.00210952 0.00633871 0.00195728 0.00898365 0.00311160 0.00821414 0.00068209 0.00539118 0.03860883 0.01519170 0.00055425 
0.01091387 0.00707831 0.00243621 0.00242775 0.00588822 0.00209263 0.00633269 0.00191287 0.00875433 0.00309186 0.00791385 0.00067347 0.00540768 0.03852158 0.01510342 0.00056219 
0.01102468 0.00725987 0.00246088 0.00242828 0.00589040 0.00207647 0.00632035 0.00187062 0.00852284 0.00307042 0.00761475 0.00066480 0.00541738 0.03840610 0.01499626 0.00056970 
0.01114792 0.00745833 0.00248889 0.00242820 0.00589379 0.00206106 0.00630158 0.00183070 0.00829047 0.00304737 0.00731829 0.00065613 0.00542038 0.03826404 0.01487091 0.00057678 
0.01128329 0.00767217 0.00251998 0.00242750 0.00589840 0.00204641 0.00627633 0.00179329 0.00805854 0.00302281 0.00702590 0.00064748 0.00541681 0.03809723 0.01472819 0.00058341 
0.01143045 0.00789982 0.00255391 0.00242613 0.00590421 0.00203254 0.00624457 0.00175854 0.00782839 0.00299682 0.00673901 0.00063890 0.00540686 0.03790762 0.01456898 0.00058957 
0.01158899 0.00813961 0.00259041 0.00242410 0.00591119 0.00201944 0.00620630 0.00172659 0.00760141 0.00296950 0.00645904 0.00063043 0.00539077 0.03769725 0.01439425 0.00059525 
0.01175845 0.00838984 0.00262917 0.00242137 0.00591928 0.00200710 0.00616157 0.00169761 0.00737897 0.00294094 0.00618740 0.00062211 0.00536880 0.03746827 0.01420507 0.00060045 
0.01193829 0.00864873 0.00266991 0.00241793 0.00592838 0.00199549 0.00611043 0.00167173 0.00716247 0.00291125 0.00592545 0.00061399 0.00534125 0.03722289 0.01400254 0.00060516 
0.01212796 0.00891450 0.00271233 0.00241376 0.00593839 0.00198458 0.00605300 0.00164909 0.00695331 0.00288051 0.00567453 0.00060611 0.00530848 0.03696337 0.01378786 0.00060937 
0.01232682 0.00918535 0.00275611 0.00240885 0.00594919 0.00197434 0.00598942 0.00162981 0.00675288 0.00284883 0.00543593 0.00059853 0.00527085 0.03669203 0.01356227 0.00061309 
0.01253420 0.00945943 0.00280093 0.00240318 0.00596063 0.00196471 0.00591985 0.00161400 0.00656253 0.00281629 0.00521089 0.00059127 0.00522878 0.03641118 0.01332704 0.00061632 
0.01274937 0.00973493 0.00284648 0.00239674 0.00597256 0.00195565 0.00584451 0.00160179 0.00638362 0.00278299 0.00500059 0.00058440 0.00518268 0.03612314 0.01308351 0.00061907 
0.01297159 0.01001005 0.00289244 0.00238954 0.00598479 0.00194709 0.00576363 0.00159324 0.00621745 0.00274901 0.00480616 0.00057796 0.00513301 0.03583021 0.01283301 0.00062133 
0.01320005 0.01028300 0.00293849 0.00238156 0.00599714 0.00193897 0.00567749 0.00158846 0.00606530 0.00271445 0.00462865 0.00057198 0.00508026 0.03553463 0.01257691 0.00062313 
0.01343393 0.01055204 0.00298433 0.00237280 0.00600940 0.00193121 0.00558637 0.00158750 0.00592838 0.00267938 0.00446902 0.00056653 0.00502489 0.03523862 0.01231658 0.00062446 
0.01367237 0.01081547 0.00302963 0.00236326 0.00602138 0.00192376 0.00549061 0.00159041 0.00580786 0.00264390 0.00432818 0.00056163 0.00496741 0.03494427 0.01205339 0.00062535 
0.01391448 0.01107166 0.00307411 0.00235294 0.00603285 0.00191653 0.00539057 0.00159725 0.00570485 0.00260807 0.00420692 0.00055733 0.00490833 0.03465362 0.01178869 0.00062581 
0.01415937 0.01131904 0.00311748 0.00234186 0.00604359 0.00190945 0.00528663 0.00160802 0.00562038 0.00257198 0.00410597 0.00055367 0.00484815 0.03436859 0.01152383 0.00062584 
0.01440612 0.01155613 0.00315947 0.00233002 0.00605338 0.00190243 0.00517920 0.00162275 0.00555540 0.00253571 0.00402594 0.00055068 0.00478740 0.03409096 0.01126012 0.00062548 
0.01465381 0.01178154 0.00319980 0.00231744 0.00606201 0.00189542 0.00506870 0.00164141 0.00551081 0.00249931 0.00396735 0.00054840 0.00472657 0.03382237 0.01099882 0.00062474 
0.01490150 0.01199397 0.00323824 0.00230412 0.00606925 0.00188832 0.00495558 0.00166398 0.00548738 0.00246287 0.00393062 0.00054686 0.00466616 0.03356434 0.01074116 0.00062363 
0.01514828 0.01219222 0.00327456 0.00229010 0.00607490 0.00188108 0.00484032 0.00169042 0.00548583 0.00242644 0.00391606 0.00054608 0.00460668 0.03331818 0.01048831 0.00062218 
0.01539323 0.01237524 0.00330855 0.00227539 0.00607874 0.00187361 0.00472340 0.00172067 0.00550674 0.00239010 0.00392389 0.00054608 0.00454859 0.03308507 0.01024137 0.00062041 
0.01563543 0.01254205 0.00334002 0.00226002 0.00608060 0.00186585 0.00460531 0.00175465 0.00555063 0.00235391 0.00395420 0.00054689 0.00449236 0.03286599 0.01000139 0.00061833 
0.01587400 0.01269184 0.00336880 0.00224401 0.00608028 0.00185775 0.00448656 0.00179226 0.00561789 0.00231794 0.00400697 0.00054852 0.00443842 0.03266173 0.00976933 0.00061596 
0.01610806 0.01282390 0.00339475 0.00222740 0.00607762 0.00184924 0.00436767 0.00183340 0.00570881 0.00228224 0.00408210 0.00055097 0.00438720 0.03247288 0.00954608 0.00061334 
0.01633678 0.01293768 0.00341775 0.00221022 0.00607248 0.00184027 0.00424917 0.00187793 0.00582357 0.00224688 0.00417935 0.00055427 0.00433909 0.03229986 0.00933242 0.00061047 
0.01655934 0.01303274 0.00343769 0.00219251 0.00606473 0.00183080 0.00413158 0.00192571 0.00596224 0.00221192 0.00429838 0.00055840 0.00429445 0.03214288 0.00912909 0.00060738 
0.01677497 0.01310882 0.00345451 0.00217430 0.00605425 0.00182078 0.00401543 0.00197658 0.00612477 0.00217742 0.00443876 0.00056337 0.00425362 0.03200195 0.00893667 0.00060409 
0.01698293 0.01316576 0.00346815 0.00215564 0.00604097 0.00181020 0.00390124 0.00203035 0.00631101 0.00214346 0.00459994 0.00056916 0.00421691 0.03187689 0.00875571 0.00060061 
0.01718254 0.01320356 0.00347860 0.00213656 0.00602482 0.00179902 0.00378953 0.00208685 0.00652068 0.00211010 0.00478126 0.00057577 0.00418458 0.03176732 0.00858661 0.00059698 
0.01737316 0.01322236 0.00348586 0.00211713 0.00600576 0.00178724 0.00368082 0.00214585 0.00675340 0.00207741 0.00498198 0.00058318 0.00415688 0.03167271 0.00842970 0.00059319 
0.01755419 0.01322244 0.00348995 0.00209737 0.00598380 0.00177483 0.00357561 0.00220716 0.00700867 0.00204545 0.00520126 0.00059136 0.00413400 0.03159231 0.00828521 0.00058928 
0.01772510 0.01320422 0.00349092 0.00207734 0.00595893 0.00176180 0.00347440 0.00227053 0.00728588 0.00201432 0.00543816 0.00060030 0.00411613 0.03152523 0.00815325 0.00058525 
0.01788542 0.01316823 0.00348886 0.00205710 0.00593121 0.00174817 0.00337765 0.00233572 0.00758431 0.00198408 0.00569168 0.00060995 0.00410339 0.03147042 0.00803384 0.00058112 
0.01803473 0.01311515 0.00348386 0.00203668 0.00590072 0.00173394 0.00328583 0.00240249 0.00790314 0.00195481 0.00596070 0.00062029 0.00409588 0.03142668 0.00792693 0.00057692 
0.01817267 0.01304578 0.00347606 0.00201614 0.00586754 0.00171915 0.00319938 0.00247058 0.00824144 0.00192662 0.00624406 0.00063128 0.00409366 0.03139267 0.00783234 0.00057264 
0.01829895 0.01296102 0.00346558 0.00199554 0.00583181 0.00170381 0.00311871 0.00253972 0.00859818 0.00189957 0.00654052 0.00064288 0.00409677 0.03136695 0.00774981 0.00056831 
0.01841335 0.01286190 0.00345260 0.00197492 0.00579369 0.00168798 0.00304423 0.00260965 0.00897225 0.00187378 0.00684876 0.00065503 0.00410519 0.03134797 0.00767901 0.00056393 
0.01851570 0.01274953 0.00343731 0.00195434 0.00575336 0.00167169 0.00297629 0.00268008 0.00936243 0.00184935 0.00716744 0.00066769 0.00411889 0.03133410 0.00761951 0.00055952 
0.01860591 0.01262514 0.00341990 0.00193385 0.00571102 0.00165501 0.00291525 0.00275075 0.00976743 0.00182636 0.00749515 0.00068081 0.00413781 0.03132363 0.00757082 0.00055508 
0.01868393 0.01249002 0.00340061 0.00191349 0.00566691 0.00163799 0.00286141 0.00282137 0.01018588 0.00180495 0.00783043 0.00069433 0.00416184 0.03131482 0.00753235 0.00055063 
0.01874981 0.01234554 0.00337966 0.00189333 0.00562129 0.00162069 0.00281505 0.00289168 0.01061633 0.00178521 0.00817180 0.00070819 0.00419087 0.03130588 0.00750349 0.00054617 
0.01880363 0.01219314 0.00335730 0.00187340 0.00557444 0.00160319 0.00277643 0.00296138 0.01105727 0.00176727 0.00851776 0.00072234 0.00422474 0.03129501 0.00748354 0.00054171 
0.01884555 0.01203431 0.00333378 0.00185376 0.00552665 0.00158555 0.00274575 0.00303023 0.01150713 0.00175125 0.00886678 0.00073672 0.00426328 0.03128045 0.00747176 0.00053726 
0.01887577 0.01187060 0.00330939 0.00183446 0.00547824 0.00156786 0.00272322 0.00309794 0.01196429 0.00173727 0.00921733 0.00075126 0.00430630 0.03126041 0.00746736 0.00053282 
0.01889458 0.01170356 0.00328440 0.00181553 0.00542953 0.00155020 0.00270896 0.00316426 0.01242707 0.00172546 0.00956786 0.00076590 0.00435360 0.03123319 0.00746954 0.00052840 
0.01890228 0.01153481 0.00325908 0.00179703 0.00538089 0.00153265 0.00270310 0.00322895 0.01289378 0.00171595 0.00991684 0.00078058 0.00440493 0.03119713 0.00747745 0.00052401 
0.01889926 0.01136593 0.00323372 0.00177898 0.00533266 0.00151529 0.00270571 0.00329176 0.01336267 0.00170886 0.01026276 0.00079524 0.00446007 0.03115066 0.00749022 0.00051965 
0.01888592 0.01119853 0.00320860 0.00176144 0.00528520 0.00149822 0.00271683 0.00335246 0.01383199 0.00170433 0.01060412 0.00080981 0.00451876 0.03109232 0.00750699 0.00051532 
0.01886274 0.01103422 0.00318402 0.00174443 0.00523889 0.00148150 0.00273647 0.00341083 0.01429998 0.00170248 0.01093944 0.00082424 0.00458076 0.03102074 0.00752690 0.00051103 
0.01883021 0.01087457 0.00316024 0.00172799 0.00519410 0.00146524 0.00276459 0.00346669 0.01476485 0.00170345 0.01126731 0.00083847 0.00464580 0.03093470 0.00754906 0.00050679 
0.01878886 0.01072112 0.00313755 0.00171216 0.00515120 0.00144950 0.00280113 0.00351983 0.01522483 0.00170737 0.01158633 0.00085244 0.00471361 0.03083313 0.00757264 0.00050259 
0.01873927 0.01057537 0.00311621 0.00169694 0.00511057 0.00143438 0.00284599 0.00357009 0.01567817 0.00171434 0.01189515 0.00086609 0.00478395 0.03071511 0.00759680 0.00049846 
0.01868202 0.01043878 0.00309648 0.00168238 0.00507255 0.00141994 0.00289903 0.00361731 0.01612312 0.00172450 0.01219252 0.00087938 0.00485654 0.03057989 0.00762076 0.00049438 
0.01861773 0.01031274 0.00307860 0.00166850 0.00503752 0.00140626 0.00296008 0.00366135 0.01655798 0.00173796 0.01247719 0.00089225 0.00493115 0.03042692 0.00764376 0.00049037 
0.01854702 0.01019857 0.00306281 0.00165530 0.00500580 0.00139341 0.00302893 0.00370211 0.01698105 0.00175481 0.01274804 0.00090467 0.00500752 0.03025582 0.00766508 0.00048644 
0.01847054 0.01009752 0.00304933 0.00164281 0.00497773 0.00138146 0.00310537 0.00373948 0.01739071 0.00177516 0.01300398 0.00091659 0.00508542 0.03006642 0.00768406 0.00048260 
0.01838893 0.01001075 0.00303835 0.00163104 0.00495361 0.00137045 0.00318911 0.00377337 0.01778537 0.00179910 0.01324403 0.00092798 0.00516463 0.02985878 0.00770012 0.00047884 
0.01830284 0.00993934 0.00303006 0.00161999 0.00493373 0.00136044 0.00327987 0.00380374 0.01816350 0.00182670 0.01346728 0.00093881 0.00524494 0.02963313 0.00771270 0.00047519 
0.01821292 0.00988425 0.00302462 0.00160967 0.00491836 0.00135147 0.00337732 0.00383055 0.01852364 0.00185803 0.01367291 0.00094904 0.00532616 0.02938995 0.00772134 0.00047164 
0.01811982 0.00984636 0.00302216 0.00160009 0.00490774 0.00134358 0.00348113 0.00385377 0.01886441 0.00189313 0.01386018 0.00095866 0.00540812 0.02912991 0.00772564 0.00046823 
0.01802415 0.00982643 0.00302281 0.00159123 0.00490208 0.00133680 0.00359093 0.00387342 0.01918449 0.00193206 0.01402848 0.00096766 0.00549065 0.02885391 0.00772530 0.00046494 
0.01792654 0.00982512 0.00302666 0.00158311 0.00490156 0.00133114 0.00370633 0.00388950 0.01948265 0.00197483 0.01417727 0.00097601 0.00557362 0.02856305 0.00772008 0.00046181 
0.01782758 0.00984295 0.00303377 0.00157570 0.00490632 0.00132663 0.00382691 0.00390208 0.01975776 0.00202144 0.01430611 0.00098373 0.00565691 0.02825865 0.00770982 0.00045885 
0.01772785 0.00988035 0.00304419 0.00156900 0.00491649 0.00132326 0.00395225 0.00391120 0.02000878 0.00207190 0.01441468 0.00099080 0.00574041 0.02794222 0.00769446 0.00045606 
0.01762789 0.00993763 0.00305793 0.00156300 0.00493215 0.00132102 0.00408192 0.00391696 0.02023476 0.00212616 0.01450274 0.00099724 0.00582405 0.02761548 0.00767402 0.00045347 
0.01752823 0.01001496 0.00307498 0.00155767 0.00495333 0.00131992 0.00421546 0.00391944 0.02043487 0.00218419 0.01457016 0.00100306 0.00590776 0.02728030 0.00764862 0.00045110 
0.01742936 0.01011242 0.00309531 0.00155300 0.00498005 0.00131991 0.00435239 0.00391878 0.02060837 0.00224592 0.01461692 0.00100827 0.00599150 0.02693876 0.00761843 0.00044897 
0.01733172 0.01022996 0.00311886 0.00154897 0.00501227 0.00132097 0.00449226 0.00391510 0.02075465 0.00231126 0.01464310 0.00101291 0.00607524 0.02659308 0.00758376 0.00044709 
0.01723574 0.01036740 0.00314553 0.00154556 0.00504992 0.00132306 0.00463458 0.00390856 0.02087320 0.00238011 0.01464888 0.00101699 0.00615898 0.02624564 0.00754496 0.00044549 
0.01714181 0.01052448 0.00317520 0.00154273 0.00509289 0.00132614 0.00477887 0.00389932 0.02096364 0.00245234 0.01463452 0.00102056 0.00624273 0.02589894 0.00750247 0.00044419 
0.01705027 0.01070081 0.00320775 0.00154046 0.00514103 0.00133014 0.00492465 0.00388756 0.02102570 0.00252781 0.01460039 0.00102364 0.00632650 0.02555559 0.00745684 0.00044322 
0.01696141 0.01089590 0.00324299 0.00153872 0.00519416 0.00133501 0.00507143 0.00387348 0.02105922 0.00260634 0.01454697 0.00102630 0.00641035 0.02521832 0.00740866 0.00044260 
0.01687551 0.01110915 0.00328075 0.00153747 0.00525205 0.00134066 0.00521873 0.00385726 0.02106417 0.00268776 0.01447480 0.00102856 0.00649430 0.02488992 0.00735861 0.00044235 
0.01679279 0.01133989 0.00332080 0.00153670 0.00531443 0.00134703 0.00536609 0.00383913 0.02104064 0.00277185 0.01438452 0.00103050 0.00657843 0.02457324 0.00730742 0.00044250 
0.01671344 0.01158734 0.00336291 0.00153635 0.00538101 0.00135404 0.00551302 0.00381931 0.02098885 0.00285839 0.01427685 0.00103215 0.00666280 0.02427117 0.00725590 0.00044308 
0.01663760 0.01185064 0.00340683 0.00153639 0.00545145 0.00136158 0.00565908 0.00379802 0.02090911 0.00294714 0.01415258 0.00103359 0.00674748 0.02398664 0.00720490 0.00044411 
0.01656536 0.01212887 0.00345228 0.00153680 0.00552540 0.00136957 0.00580383 0.00377549 0.02080186 0.00303784 0.01401259 0.00103486 0.00683255 0.02372256 0.00715532 0.00044563 
0.01649681 0.01242103 0.00349898 0.00153753 0.00560244 0.00137792 0.00594681 0.00375197 0.02066766 0.00313020 0.01385781 0.00103604 0.00691809 0.02348181 0.00710811 0.00044765 
0.01643197 0.01272606 0.00354662 0.00153854 0.00568217 0.00138651 0.00608763 0.00372768 0.02050718 0.00322394 0.01368924 0.00103720 0.00700416 0.02326723 0.00706425 0.00045021 
0.01637084 0.01304285 0.00359487 0.00153980 0.00576413 0.00139524 0.00622588 0.00370287 0.02032118 0.00331875 0.01350792 0.00103839 0.00709085 0.02308162 0.00702474 0.00045333 
0.01631337 0.01337025 0.00364342 0.00154127 0.00584784 0.00140401 0.00636117 0.00367778 0.02011055 0.00341431 0.01331496 0.00103968 0.00717822 0.02292766 0.00699061 0.00045704 
0.01625951 0.01370707 0.00369192 0.00154292 0.00593282 0.00141271 0.00649315 0.00365264 0.01987626 0.00351030 0.01311149 0.00104115 0.00726633 0.02280795 0.00696287 0.00046137 
0.01620914 0.01405209 0.00374004 0.00154471 0.00601854 0.00142123 0.00662147 0.00362768 0.01961939 0.00360637 0.01289871 0.00104285 0.00735524 0.02272494 0.00694257 0.00046634 
0.01616215 0.01440408 0.00378741 0.00154660 0.00610450 0.00142946 0.00674581 0.00360314 0.01934109 0.00370218 0.01267782 0.00104486 0.00744498 0.02268096 0.00693074 0.00047197 
0.01611838 0.01476179 0.00383369 0.00154856 0.00619014 0.00143729 0.00686588 0.00357922 0.01904261 0.00379738 0.01245005 0.00104724 0.00753558 0.02267815 0.00692838 0.00047830 
0.01607767 0.01512398 0.00387853 0.00155056 0.00627492 0.00144462 0.00698140 0.00355615 0.01872528 0.00389161 0.01221665 0.00105005 0.00762704 0.02271848 0.00693647 0.00048534 
0.01603982 0.01548939 0.00392159 0.00155256 0.00635831 0.00145135 0.00709213 0.00353412 0.01839049 0.00398454 0.01197889 0.00105335 0.00771937 0.02280372 0.00695598 0.00049311 
0.01600463 0.01585681 0.00396253 0.00155454 0.00643974 0.00145737 0.00719784 0.00351334 0.01803970 0.00407580 0.01173802 0.00105720 0.00781253 0.02293543 0.00698782 0.00050164 
0.01597188 0.01622502 0.00400100 0.00155646 0.00651868 0.00146260 0.00729834 0.00349397 0.01767444 0.00416505 0.01149532 0.00106165 0.00790648 0.02311493 0.00703284 0.00051095 
0.01594135 0.01659284 0.00403670 0.00155831 0.00659458 0.00146694 0.00739345 0.00347620 0.01729628 0.00425194 0.01125203 0.00106674 0.00800116 0.02334332 0.00709185 0.00052104 
0.01591278 0.01695913 0.00406931 0.00156004 0.00666692 0.00147031 0.00748303 0.00346018 0.01690684 0.00433615 0.01100940 0.00107252 0.00809647 0.02362143 0.00716561 0.00053193 
0.01588595 0.01732278 0.00409854 0.00156165 0.00673518 0.00147263 0.00756696 0.00344605 0.01650777 0.00441735 0.01076863 0.00107904 0.00819230 0.02394982 0.00725476 0.00054364 
0.01586060 0.01768273 0.00412411 0.00156312 0.00679886 0.00147384 0.00764515 0.00343395 0.01610077 0.00449523 0.01053093 0.00108631 0.00828853 0.02432881 0.00735992 0.00055617 
0.01583650 0.01803798 0.00414577 0.00156441 0.00685749 0.00147386 0.00771752 0.00342398 0.01568753 0.00456951 0.01029745 0.00109438 0.00838500 0.02475841 0.00748158 0.00056954 
0.01581340 0.01838758 0.00416328 0.00156553 0.00691062 0.00147264 0.00778404 0.00341624 0.01526979 0.00463989 0.01006931 0.00110325 0.00848154 0.02523838 0.00762016 0.00058374 
0.01579106 0.01873065 0.00417643 0.00156645 0.00695782 0.00147015 0.00784469 0.00341082 0.01484927 0.00470613 0.00984760 0.00111295 0.00857793 0.02576817 0.00777598 0.00059878 
0.01576926 0.01906635 0.00418504 0.00156717 0.00699870 0.00146633 0.00789947 0.00340778 0.01442772 0.00476800 0.00963335 0.00112348 0.00867397 0.02634696 0.00794927 0.00061466 
0.01574778 0.01939394 0.00418894 0.00156768 0.00703289 0.00146116 0.00794841 0.00340716 0.01400685 0.00482527 0.00942753 0.00113484 0.00876942 0.02697366 0.00814013 0.00063138 
0.01572641 0.01971273 0.00418802 0.00156798 0.00706008 0.00145464 0.00799155 0.00340902 0.01358837 0.00487776 0.00923108 0.00114703 0.00886401 0.02764686 0.00834858 0.00064892 
0.01570495 0.02002212 0.00418217 0.00156806 0.00707996 0.00144674 0.00802898 0.00341336 0.01317399 0.00492531 0.00904486 0.00116004 0.00895748 0.02836491 0.00857452 0.00066728 
0.01568323 0.02032156 0.00417132 0.00156793 0.00709230 0.00143747 0.00806078 0.00342018 0.01276536 0.00496779 0.00886968 0.00117384 0.00904952 0.02912589 0.00881773 0.00068644 
0.01566107 0.02061060 0.00415543 0.00156759 0.00709689 0.00142684 0.00808706 0.00342947 0.01236412 0.00500508 0.00870628 0.00118840 0.00913984 0.02992760 0.00907790 0.00070639 
0.01563833 0.02088884 0.00413451 0.00156705 0.00709357 0.00141489 0.00810795 0.00344120 0.01197184 0.00503712 0.00855533 0.00120370 0.00922813 0.03076761 0.00935458 0.00072711 
0.01561487 0.02115597 0.00410859 0.00156631 0.00708222 0.00140163 0.00812359 0.00345532 0.01159007 0.00506387 0.00841744 0.00121969 0.00931405 0.03164323 0.00964723 0.00074858 
0.01559058 0.02141175 0.00407772 0.00156540 0.00706277 0.00138712 0.00813415 0.00347179 0.01122030 0.00508530 0.00829313 0.00123632 0.00939729 0.03255157 0.00995518 0.00077076 
0.01556536 0.02165601 0.00404201 0.00156433 0.00703521 0.00137141 0.00813979 0.00349053 0.01086396 0.00510143 0.00818288 0.00125355 0.00947751 0.03348952 0.01027768 0.00079364 
0.01553913 0.02188863 0.00400159 0.00156311 0.00699955 0.00135456 0.00814070 0.00351145 0.01052241 0.00511232 0.00808707 0.00127130 0.00955438 0.03445377 0.01061383 0.00081719 
0.01551183 0.02210959 0.00395663 0.00156176 0.00695588 0.00133666 0.00813709 0.00353446 0.01019695 0.00511805 0.00800600 0.00128953 0.00962757 0.03544085 0.01096268 0.00084135 
0.01548341 0.02231890 0.00390732 0.00156032 0.00690432 0.00131777 0.00812915 0.00355945 0.00988881 0.00511872 0.00793992 0.00130814 0.00969677 0.03644712 0.01132315 0.00086611 
0.01545386 0.02251665 0.00385389 0.00155881 0.00684504 0.00129800 0.00811710 0.00358631 0.00959913 0.00511449 0.00788900 0.00132708 0.00976165 0.03746883 0.01169408 0.00089142 
0.01542316 0.02270298 0.00379661 0.00155726 0.00677825 0.00127745 0.00810116 0.00361491 0.00932897 0.00510551 0.00785332 0.00134626 0.00982193 0.03850210 0.01207421 0.00091723 
0.01539131 0.02287806 0.00373576 0.00155569 0.00670422 0.00125622 0.00808156 0.00364513 0.00907933 0.00509201 0.00783290 0.00136560 0.00987731 0.03954295 0.01246223 0.00094350 
0.01535834 0.02304212 0.00367167 0.00155414 0.00662326 0.00123443 0.00805854 0.00367682 0.00885110 0.00507419 0.00782770 0.00138500 0.00992754 0.04058735 0.01285672 0.00097019 
0.01532427 0.02319545 0.00360468 0.00155265 0.00653572 0.00121221 0.00803233 0.00370984 0.00864509 0.00505232 0.00783758 0.00140440 0.00997239 0.04163122 0.01325624 0.00099724 
0.01528916 0.02333833 0.00353516 0.00155125 0.00644201 0.00118968 0.00800317 0.00374404 0.00846201 0.00502668 0.00786236 0.00142368 0.01001163 0.04267046 0.01365925 0.00102460 
0.01525305 0.02347110 0.00346351 0.00154998 0.00634254 0.00116698 0.00797129 0.00377928 0.00830248 0.00499757 0.00790178 0.00144277 0.01004508 0.04370098 0.01406420 0.00105223 
0.01521602 0.02359412 0.00339015 0.00154888 0.00623780 0.00114424 0.00793694 0.00381540 0.00816703 0.00496530 0.00795553 0.00146156 0.01007261 0.04471871 0.01446948 0.00108006 
0.01517814 0.02370775 0.00331550 0.00154799 0.00612828 0.00112161 0.00790035 0.00385224 0.00805610 0.00493022 0.00802322 0.00147997 0.01009408 0.04571964 0.01487345 0.00110804 
0.01513947 0.02381238 0.00324002 0.00154736 0.00601454 0.00109923 0.00786176 0.00388966 0.00797002 0.00489269 0.00810441 0.00149790 0.01010943 0.04669984 0.01527449 0.00113612 
0.01510011 0.02390839 0.00316417 0.00154702 0.00589713 0.00107726 0.00782140 0.00392751 0.00790904 0.00485307 0.00819862 0.00151527 0.01011861 0.04765546 0.01567092 0.00116424 
0.01506014 0.02399617 0.00308842 0.00154702 0.00577666 0.00105583 0.00777950 0.00396563 0.00787329 0.00481175 0.00830530 0.00153199 0.01012164 0.04858281 0.01606110 0.00119234 
0.01501964 0.02407611 0.00301326 0.00154741 0.00565373 0.00103510 0.00773629 0.00400389 0.00786284 0.00476912 0.00842385 0.00154797 0.01011857 0.04947832 0.01644339 0.00122037 
0.01497869 0.02414857 0.00293917 0.00154823 0.00552898 0.00101522 0.00769198 0.00404215 0.00787762 0.00472557 0.00855365 0.00156313 0.01010949 0.05033859 0.01681618 0.00124827 
0.01493738 0.02421391 0.00286664 0.00154951 0.00540306 0.00099632 0.00764679 0.00408028 0.00791752 0.00468150 0.00869401 0.00157739 0.01009454 0.05116042 0.01717788 0.00127598 
0.01489578 0.02427245 0.00279615 0.00155132 0.00527665 0.00097856 0.00760093 0.00411814 0.00798229 0.00463731 0.00884422 0.00159068 0.01007393 0.05194081 0.01752696 0.00130346 
0.01485396 0.02432451 0.00272820 0.00155369 0.00515040 0.00096208 0.00755458 0.00415564 0.00807162 0.00459340 0.00900354 0.00160294 0.01004788 0.05267700 0.01786194 0.00133064 
0.01481198 0.02437036 0.00266325 0.00155666 0.00502499 0.00094700 0.00750796 0.00419264 0.00818510 0.00455016 0.00917118 0.00161410 0.01001670 0.05336644 0.01818140 0.00135747 
0.01476989 0.02441024 0.00260178 0.00156027 0.00490111 0.00093346 0.00746123 0.00422906 0.00832224 0.00450798 0.00934636 0.00162410 0.00998072 0.05400688 0.01848400 0.00138392 
0.01472775 0.02444435 0.00254423 0.00156458 0.00477942 0.00092158 0.00741458 0.00426481 0.00848246 0.00446724 0.00952824 0.00163291 0.00994033 0.05459630 0.01876849 0.00140992 
0.01468557 0.02447286 0.00249103 0.00156961 0.00466058 0.00091149 0.00736819 0.00429981 0.00866511 0.00442829 0.00971600 0.00164048 0.00989596 0.05513299 0.01903369 0.00143543 
0.01464338 0.02449588 0.00244262 0.00157540 0.00454527 0.00090328 0.00732220 0.00433399 0.00886946 0.00439149 0.00990878 0.00164677 0.00984811 0.05561553 0.01927853 0.00146042 
0.01460118 0.02451350 0.00239938 0.00158200 0.00443411 0.00089705 0.00727677 0.00436729 0.00909470 0.00435717 0.01010572 0.00165176 0.00979728 0.05604278 0.01950205 0.00148483 
0.01455897 0.02452573 0.00236169 0.00158943 0.00432773 0.00089290 0.00723205 0.00439967 0.00933995 0.00432564 0.01030597 0.00165543 0.00974406 0.05641394 0.01970340 0.00150863 
0.01451671 0.02453256 0.00232988 0.00159773 0.00422673 0.00089091 0.00718817 0.00443110 0.00960428 0.00429720 0.01050865 0.00165778 0.00968905 0.05672848 0.01988185 0.00153180 
0.01447438 0.02453392 0.00230428 0.00160693 0.00413169 0.00089115 0.00714526 0.00446155 0.00988668 0.00427212 0.01071292 0.00165880 0.00963289 0.05698620 0.02003679 0.00155429 
0.01443192 0.02452969 0.00228517 0.00161705 0.00404315 0.00089367 0.00710345 0.00449101 0.01018609 0.00425065 0.01091791 0.00165851 0.00957626 0.05718724 0.02016774 0.00157609 
0.01438927 0.02451970 0.00227279 0.00162812 0.00396164 0.00089851 0.00706283 0.00451949 0.01050138 0.00423300 0.01112279 0.00165691 0.00951988 0.05733199 0.02027436 0.00159716 
0.01434633 0.02450375 0.00226737 0.00164017 0.00388762 0.00090573 0.00702352 0.00454699 0.01083139 0.00421937 0.01132672 0.00165404 0.00946448 0.05742120 0.02035642 0.00161748 
0.01430301 0.02448159 0.00226907 0.00165321 0.00382156 0.00091532 0.00698562 0.00457354 0.01117492 0.00420993 0.01152890 0.00164992 0.00941080 0.05745589 0.02041386 0.00163705 
0.01425921 0.02445291 0.00227804 0.00166725 0.00376385 0.00092731 0.00694920 0.00459918 0.01153070 0.00420482 0.01172853 0.00164461 0.00935963 0.05743737 0.02044674 0.00165584 
0.01421479 0.02441739 0.00229437 0.00168232 0.00371487 0.00094168 0.00691435 0.00462394 0.01189745 0.00420415 0.01192485 0.00163814 0.00931175 0.05736724 0.02045524 0.00167385 
0.01416962 0.02437465 0.00231813 0.00169842 0.00367492 0.00095842 0.00688114 0.00464789 0.01227385 0.00420801 0.01211711 0.00163058 0.00926794 0.05724738 0.02043969 0.00169107 
0.01412355 0.02432430 0.00234933 0.00171555 0.00364430 0.00097750 0.00684964 0.00467108 0.01265855 0.00421644 0.01230461 0.00162199 0.00922902 0.05707990 0.02040057 0.00170749 
0.01407642 0.02426590 0.00238795 0.00173372 0.00362322 0.00099887 0.00681991 0.00469358 0.01305019 0.00422948 0.01248666 0.00161244 0.00919575 0.05686717 0.02033847 0.00172312 
0.01402806 0.02419902 0.00243392 0.00175293 0.00361186 0.00102247 0.00679199 0.00471547 0.01344738 0.00424712 0.01266261 0.00160201 0.00916893 0.05661178 0.02025409 0.00173796 
0.01397831 0.02412317 0.00248713 0.00177317 0.00361037 0.00104822 0.00676594 0.00473684 0.01384872 0.00426933 0.01283186 0.00159077 0.00914932 0.05631651 0.02014830 0.00175202 
0.01392697 0.02403790 0.00254743 0.00179444 0.00361883 0.00107605 0.00674179 0.00475776 0.01425282 0.00429606 0.01299383 0.00157883 0.00913766 0.05598435 0.02002203 0.00176529 
0.01387387 0.02394273 0.00261463 0.00181672 0.00363726 0.00110585 0.00671957 0.00477834 0.01465828 0.00432721 0.01314797 0.00156626 0.00913467 0.05561844 0.01987637 0.00177780 
0.01381883 0.02383716 0.00268850 0.00184000 0.00366564 0.00113752 0.00669931 0.00479868 0.01506371 0.00436270 0.01329380 0.00155317 0.00914104 0.05522207 0.01971247 0.00178955 
0.01376165 0.02372075 0.00276876 0.00186425 0.00370392 0.00117093 0.00668102 0.00481886 0.01546771 0.00440237 0.01343085 0.00153965 0.00915741 0.05479866 0.01953161 0.00180056 
0.01370216 0.02359303 0.00285512 0.00188946 0.00375198 0.00120594 0.00666472 0.00483899 0.01586893 0.00444609 0.01355871 0.00152581 0.00918439 0.05435172 0.01933514 0.00181084 
0.01364018 0.02345357 0.00294723 0.00191560 0.00380964 0.00124243 0.00665041 0.00485918 0.01626602 0.00449368 0.01367700 0.00151175 0.00922253 0.05388484 0.01912448 0.00182041 
0.01357554 0.02330198 0.00304470 0.00194263 0.00387669 0.00128022 0.00663810 0.00487951 0.01665765 0.00454495 0.01378540 0.00149758 0.00927233 0.05340167 0.01890114 0.00182928 
0.01350807 0.02313789 0.00314714 0.00197053 0.00395288 0.00131917 0.00662777 0.00490010 0.01704255 0.00459968 0.01388362 0.00148338 0.00933424 0.05290588 0.01866666 0.00183748 
0.01343763 0.02296098 0.00325409 0.00199925 0.00403790 0.00135909 0.00661941 0.00492102 0.01741946 0.00465767 0.01397140 0.00146928 0.00940862 0.05240115 0.01842265 0.00184501 
0.01336408 0.02277099 0.00336510 0.00202875 0.00413140 0.00139982 0.00661300 0.00494239 0.01778718 0.00471866 0.01404855 0.00145538 0.00949580 0.05189114 0.01817076 0.00185190 
0.01328730 0.02256770 0.00347967 0.00205900 0.00423298 0.00144116 0.00660851 0.00496427 0.01814454 0.00478242 0.01411491 0.00144176 0.00959600 0.05137949 0.01791264 0.00185815 
0.01320719 0.02235097 0.00359728 0.00208994 0.00434222 0.00148292 0.00660591 0.00498676 0.01849046 0.00484868 0.01417034 0.00142853 0.00970939 0.05086974 0.01764998 0.00186378 
0.01312366 0.02212073 0.00371741 0.00212152 0.00445865 0.00152493 0.00660516 0.00500992 0.01882387 0.00491719 0.01421477 0.00141579 0.00983606 0.05036537 0.01738448 0.00186881 
0.01303665 0.02187697 0.00383951 0.00215370 0.00458176 0.00156696 0.00660622 0.00503382 0.01914379 0.00498768 0.01424816 0.00140362 0.00997600 0.04986977 0.01711780 0.00187325 
0.01294614 0.02161979 0.00396302 0.00218640 0.00471101 0.00160884 0.00660901 0.00505853 0.01944931 0.00505987 0.01427050 0.00139210 0.01012914 0.04938615 0.01685161 0.00187709 
0.01285210 0.02134935 0.00408736 0.00221958 0.00484584 0.00165035 0.00661350 0.00508409 0.01973959 0.00513349 0.01428183 0.00138132 0.01029530 0.04891764 0.01658756 0.00188036 
0.01275456 0.02106592 0.00421197 0.00225317 0.00498565 0.00169131 0.00661960 0.00511054 0.02001386 0.00520828 0.01428220 0.00137135 0.01047423 0.04846716 0.01632724 0.00188305 
0.01265357 0.02076988 0.00433625 0.00228712 0.00512983 0.00173150 0.00662723 0.00513792 0.02027142 0.00528395 0.01427173 0.00136226 0.01066561 0.04803748 0.01607219 0.00188517 
0.01254920 0.02046167 0.00445964 0.00232134 0.00527774 0.00177073 0.00663632 0.00516623 0.02051168 0.00536025 0.01425055 0.00135410 0.01086899 0.04763114 0.01582392 0.00188670 
0.01244156 0.02014188 0.00458157 0.00235579 0.00542872 0.00180882 0.00664678 0.00519551 0.02073412 0.00543691 0.01421882 0.00134693 0.01108387 0.04725052 0.01558385 0.00188766 
0.01233080 0.01981118 0.00470146 0.00239038 0.00558210 0.00184558 0.00665849 0.00522573 0.02093832 0.00551368 0.01417673 0.00134079 0.01130965 0.04689774 0.01535333 0.00188803 
0.01221709 0.01947036 0.00481876 0.00242505 0.00573720 0.00188082 0.00667136 0.00525690 0.02112394 0.00559031 0.01412450 0.00133571 0.01154565 0.04657471 0.01513362 0.00188779 
0.01210065 0.01912030 0.00493294 0.00245973 0.00589332 0.00191437 0.00668527 0.00528899 0.02129074 0.00566657 0.01406239 0.00133174 0.01179112 0.04628310 0.01492591 0.00188694 
0.01198172 0.01876203 0.00504347 0.00249434 0.00604977 0.00194608 0.00670009 0.00532197 0.02143860 0.00574224 0.01399066 0.00132887 0.01204522 0.04602432 0.01473126 0.00188546 
0.01186057 0.01839664 0.00514985 0.00252880 0.00620585 0.00197577 0.00671570 0.00535579 0.02156746 0.00581710 0.01390960 0.00132713 0.01230704 0.04579954 0.01455065 0.00188332 
0.01173753 0.01802536 0.00525160 0.00256305 0.00636087 0.00200331 0.00673194 0.00539040 0.02167739 0.00589094 0.01381953 0.00132653 0.01257561 0.04560968 0.01438495 0.00188051 
0.01161294 0.01764953 0.00534827 0.00259702 0.00651413 0.00202857 0.00674868 0.00542574 0.02176857 0.00596359 0.01372077 0.00132704 0.01284988 0.04545541 0.01423490 0.00187701 
0.01148718 0.01727057 0.00543945 0.00263061 0.00666496 0.00205141 0.00676576 0.00546173 0.02184124 0.00603486 0.01361368 0.00132866 0.01312875 0.04533712 0.01410115 0.00187278 
0.01136066 0.01689000 0.00552473 0.00266377 0.00681267 0.00207174 0.00678301 0.00549830 0.02189579 0.00610459 0.01349862 0.00133136 0.01341108 0.04525496 0.01398420 0.00186780 
0.01123382 0.01650947 0.00560377 0.00269641 0.00695661 0.00208946 0.00680026 0.00553535 0.02193268 0.00617263 0.01337597 0.00133512 0.01369566 0.04520885 0.01388445 0.00186203 
0.01110714 0.01613067 0.00567625 0.00272846 0.00709614 0.00210449 0.00681734 0.00557279 0.02195249 0.00623885 0.01324612 0.00133989 0.01398125 0.04519844 0.01380216 0.00185546 
0.01098111 0.01575541 0.00574188 0.00275985 0.00723065 0.00211676 0.00683405 0.00561051 0.02195589 0.00630314 0.01310948 0.00134563 0.01426659 0.04522316 0.01373749 0.00184804 
0.01085625 0.01538556 0.00580042 0.00279050 0.00735952 0.00212623 0.00685021 0.00564841 0.02194364 0.00636537 0.01296645 0.00135229 0.01455039 0.04528219 0.01369046 0.00183974 
0.01073311 0.01502305 0.00585168 0.00282035 0.00748219 0.00213286 0.00686562 0.00568637 0.02191662 0.00642546 0.01281747 0.00135980 0.01483132 0.04537453 0.01366098 0.00183054 
0.01061225 0.01466989 0.00589549 0.00284933 0.00759811 0.00213663 0.00688006 0.00572427 0.02187578 0.00648333 0.01266297 0.00136810 0.01510807 0.04549895 0.01364883 0.00182041 
0.01049425 0.01432811 0.00593173 0.00287736 0.00770677 0.00213755 0.00689334 0.00576201 0.02182217 0.00653892 0.01250338 0.00137712 0.01537931 0.04565403 0.01365369 0.00180932 
0.01037971 0.01399982 0.00596034 0.00290438 0.00780769 0.00213562 0.00690523 0.00579945 0.02175692 0.00659216 0.01233915 0.00138677 0.01564375 0.04583818 0.01367511 0.00179723 
0.01026922 0.01368713 0.00598129 0.00293032 0.00790042 0.00213089 0.00691552 0.00583647 0.02168126 0.00664301 0.01217075 0.00139699 0.01590006 0.04604963 0.01371256 0.00178414 
0.01016339 0.01339218 0.00599459 0.00295513 0.00798455 0.00212340 0.00692398 0.00587296 0.02159646 0.00669144 0.01199861 0.00140768 0.01614700 0.04628650 0.01376540 0.00177002 
0.01006284 0.01311710 0.00600030 0.00297874 0.00805971 0.00211321 0.00693040 0.00590880 0.02150390 0.00673743 0.01182322 0.00141875 0.01638331 0.04654674 0.01383289 0.00175485 
0.00996818 0.01286404 0.00599852 0.00300111 0.00812557 0.00210042 0.00693453 0.00594387 0.02140501 0.00678096 0.01164504 0.00143013 0.01660779 0.04682822 0.01391420 0.00173864 
0.00988000 0.01263513 0.00598940 0.00302216 0.00818184 0.00208512 0.00693616 0.00597806 0.02130128 0.00682203 0.01146454 0.00144170 0.01681931 0.04712869 0.01400844 0.00172136 
0.00979891 0.01243245 0.00597312 0.00304186 0.00822828 0.00206741 0.00693506 0.00601126 0.02119426 0.00686065 0.01128220 0.00145339 0.01701676 0.04744586 0.01411463 0.00170302 
0.00972549 0.01225806 0.00594991 0.00306016 0.00826468 0.00204744 0.00693100 0.00604339 0.02108555 0.00689681 0.01109850 0.00146510 0.01719913 0.04777735 0.01423173 0.00168363 
0.00966030 0.01211395 0.00592004 0.00307701 0.00829090 0.00202533 0.00692375 0.00607434 0.02097677 0.00693055 0.01091394 0.00147673 0.01736546 0.04812078 0.01435865 0.00166321 
0.00960388 0.01200206 0.00588380 0.00309237 0.00830681 0.00200125 0.00691309 0.00610404 0.02086962 0.00696188 0.01072899 0.00148819 0.01751488 0.04847373 0.01449426 0.00164177 
0.00955676 0.01192424 0.00584153 0.00310621 0.00831236 0.00197536 0.00689882 0.00613240 0.02076577 0.00699084 0.01054415 0.00149939 0.01764659 0.04883378 0.01463737 0.00161934 
0.00951940 0.01188223 0.00579359 0.00311848 0.00830754 0.00194784 0.00688071 0.00615937 0.02066696 0.00701744 0.01035992 0.00151025 0.01775991 0.04919857 0.01478680 0.00159596 
0.00949227 0.01187770 0.00574039 0.00312918 0.00829238 0.00191888 0.00685857 0.00618488 0.02057491 0.00704174 0.01017679 0.00152068 0.01785423 0.04956573 0.01494131 0.00157168 
0.00947578 0.01191219 0.00568236 0.00313826 0.00826696 0.00188868 0.00683219 0.00620891 0.02049134 0.00706377 0.00999527 0.00153060 0.01792905 0.04993300 0.01509970 0.00154655 
0.00947030 0.01198710 0.00561993 0.00314571 0.00823142 0.00185744 0.00680140 0.00623142 0.02041800 0.00708357 0.00981586 0.00153993 0.01798399 0.05029814 0.01526072 0.00152063 
0.00947616 0.01210370 0.00555358 0.00315152 0.00818592 0.00182537 0.00676602 0.00625239 0.02035659 0.00710119 0.00963906 0.00154860 0.01801876 0.05065906 0.01542317 0.00149401 
0.00949363 0.01226311 0.00548381 0.00315567 0.00813070 0.00179270 0.00672588 0.00627181 0.02030881 0.00711667 0.00946539 0.00155654 0.01803319 0.05101375 0.01558585 0.00146675 
0.00952294 0.01246630 0.00541112 0.00315815 0.00806603 0.00175965 0.00668085 0.00628969 0.02027631 0.00713006 0.00929535 0.00156370 0.01802723 0.05136031 0.01574761 0.00143895 
0.00956426 0.01271404 0.00533603 0.00315897 0.00799223 0.00172644 0.00663079 0.00630606 0.02026072 0.00714141 0.00912946 0.00157002 0.01800092 0.05169701 0.01590730 0.00141071 
0.00961770 0.01300697 0.00525907 0.00315813 0.00790965 0.00169329 0.00657558 0.00632094 0.02026362 0.00715077 0.00896821 0.00157545 0.01795446 0.05202224 0.01606385 0.00138214 
0.00968333 0.01334551 0.00518077 0.00315563 0.00781872 0.00166044 0.00651513 0.00633439 0.02028651 0.00715818 0.00881212 0.00157994 0.01788811 0.05233456 0.01621622 0.00135336 
0.00976113 0.01372990 0.00510167 0.00315148 0.00771987 0.00162811 0.00644937 0.00634645 0.02033087 0.00716371 0.00866170 0.00158347 0.01780231 0.05263270 0.01636345 0.00132449 
0.00985104 0.01416018 0.00502231 0.00314571 0.00761360 0.00159653 0.00637824 0.00635719 0.02039806 0.00716739 0.00851743 0.00158601 0.01769755 0.05291556 0.01650464 0.00129567 
0.00995293 0.01463619 0.00494322 0.00313833 0.00750045 0.00156591 0.00630172 0.00636671 0.02048940 0.00716929 0.00837983 0.00158754 0.01757446 0.05318221 0.01663895 0.00126704 
0.01006660 0.01515758 0.00486492 0.00312937 0.00738097 0.00153646 0.00621979 0.00637508 0.02060609 0.00716944 0.00824939 0.00158805 0.01743379 0.05343194 0.01676562 0.00123874 
0.01019179 0.01572378 0.00478794 0.00311886 0.00725578 0.00150839 0.00613247 0.00638242 0.02074925 0.00716790 0.00812658 0.00158752 0.01727636 0.05366419 0.01688399 0.00121094 
0.01032818 0.01633401 0.00471278 0.00310684 0.00712551 0.00148191 0.00603982 0.00638882 0.02091989 0.00716472 0.00801189 0.00158598 0.01710312 0.05387860 0.01699348 0.00118379 
0.01047539 0.01698728 0.00463991 0.00309334 0.00699083 0.00145719 0.00594191 0.00639441 0.02111892 0.00715994 0.00790577 0.00158342 0.01691508 0.05407502 0.01709357 0.00115747 
0.01063298 0.01768240 0.00456982 0.00307840 0.00685244 0.00143442 0.00583884 0.00639931 0.02134711 0.00715363 0.00780868 0.00157986 0.01671337 0.05425346 0.01718388 0.00113213 
0.01080042 0.01841797 0.00450294 0.00306208 0.00671105 0.00141376 0.00573075 0.00640366 0.02160513 0.00714582 0.00772106 0.00157534 0.01649918 0.05441412 0.01726408 0.00110795 
0.01097717 0.01919241 0.00443969 0.00304442 0.00656742 0.00139536 0.00561781 0.00640757 0.02189352 0.00713656 0.00764332 0.00156987 0.01627378 0.05455736 0.01733395 0.00108511 
0.01116260 0.02000391 0.00438047 0.00302549 0.00642231 0.00137937 0.00550020 0.00641121 0.02221265 0.00712591 0.00757586 0.00156351 0.01603850 0.05468375 0.01739337 0.00106378 
0.01135604 0.02085048 0.00432564 0.00300533 0.00627649 0.00136591 0.00537818 0.00641469 0.02256279 0.00711390 0.00751907 0.00155630 0.01579473 0.05479397 0.01744230 0.00104414 
0.01155676 0.02172997 0.00427553 0.00298401 0.00613077 0.00135509 0.00525199 0.00641817 0.02294405 0.00710060 0.00747329 0.00154828 0.01554391 0.05488887 0.01748079 0.00102636 
0.01176401 0.02264002 0.00423046 0.00296160 0.00598595 0.00134699 0.00512194 0.00642177 0.02335638 0.00708603 0.00743885 0.00153952 0.01528751 0.05496945 0.01750899 0.00101062 
0.01197697 0.02357813 0.00419067 0.00293816 0.00584284 0.00134170 0.00498836 0.00642564 0.02379959 0.00707026 0.00741606 0.00153007 0.01502706 0.05503680 0.01752712 0.00099708 
0.01219481 0.02454161 0.00415640 0.00291376 0.00570226 0.00133928 0.00485162 0.00642991 0.02427334 0.00705331 0.00740518 0.00152001 0.01476407 0.05509215 0.01753548 0.00098592 
0.01241665 0.02552767 0.00412784 0.00288847 0.00556501 0.00133975 0.00471211 0.00643470 0.02477712 0.00703525 0.00740644 0.00150940 0.01450010 0.05513681 0.01753446 0.00097729 
0.01264158 0.02653336 0.00410514 0.00286238 0.00543191 0.00134315 0.00457028 0.00644014 0.02531027 0.00701610 0.00742005 0.00149832 0.01423668 0.05517216 0.01752451 0.00097135 
0.01286868 0.02755560 0.00408843 0.00283554 0.00530376 0.00134948 0.00442658 0.00644632 0.02587197 0.00699591 0.00744615 0.00148684 0.01397537 0.05519965 0.01750613 0.00096824 
0.01309702 0.02859121 0.00407778 0.00280805 0.00518134 0.00135872 0.00428152 0.00645336 0.02646122 0.00697472 0.00748488 0.00147505 0.01371767 0.05522078 0.01747990 0.00096810 
0.01332565 0.02963694 0.00407322 0.00277998 0.00506543 0.00137083 0.00413562 0.00646134 0.02707690 0.00695256 0.00753629 0.00146303 0.01346510 0.05523705 0.01744644 0.00097105 
0.01355361 0.03068943 0.00407475 0.00275140 0.00495679 0.00138577 0.00398944 0.00647034 0.02771771 0.00692946 0.00760043 0.00145086 0.01321910 0.05524999 0.01740642 0.00097722 
0.01377997 0.03174527 0.00408233 0.00272241 0.00485614 0.00140347 0.00384358 0.00648043 0.02838219 0.00690546 0.00767726 0.00143863 0.01298111 0.05526110 0.01736053 0.00098671 
0.01400376 0.03280100 0.00409588 0.00269306 0.00476419 0.00142384 0.00369864 0.00649164 0.02906875 0.00688059 0.00776673 0.00142642 0.01275249 0.05527185 0.01730949 0.00099960 
0.01422408 0.03385314 0.00411528 0.00266346 0.00468160 0.00144677 0.00355526 0.00650403 0.02977563 0.00685486 0.00786871 0.00141432 0.01253455 0.05528369 0.01725406 0.00101599 
0.01444001 0.03489817 0.00414038 0.00263366 0.00460903 0.00147215 0.00341411 0.00651760 0.03050093 0.00682829 0.00798304 0.00140241 0.01232852 0.05529795 0.01719499 0.00103592 
0.01465066 0.03593261 0.00417099 0.00260376 0.00454707 0.00149983 0.00327588 0.00653237 0.03124265 0.00680091 0.00810948 0.00139078 0.01213557 0.05531593 0.01713304 0.00105945 
0.01485521 0.03695295 0.00420689 0.00257382 0.00449628 0.00152967 0.00314124 0.00654830 0.03199860 0.00677271 0.00824776 0.00137949 0.01195678 0.05533879 0.01706895 0.00108661 
0.01505282 0.03795576 0.00424781 0.00254393 0.00445719 0.00156151 0.00301094 0.00656537 0.03276652 0.00674371 0.00839755 0.00136864 0.01179315 0.05536760 0.01700347 0.00111741 
0.01524273 0.03893763 0.00429348 0.00251415 0.00443025 0.00159515 0.00288568 0.00658353 0.03354401 0.00671391 0.00855845 0.00135829 0.01164557 0.05540328 0.01693732 0.00115186 
0.01542423 0.03989522 0.00434357 0.00248455 0.00441589 0.00163043 0.00276622 0.00660271 0.03432857 0.00668328 0.00873002 0.00134853 0.01151485 0.05544662 0.01687117 0.00118994 
0.01559664 0.04082530 0.00439775 0.00245521 0.00441448 0.00166713 0.00265328 0.00662283 0.03511761 0.00665183 0.00891176 0.00133941 0.01140168 0.05549824 0.01680569 0.00123160 
0.01575935 0.04172469 0.00445565 0.00242618 0.00442633 0.00170505 0.00254761 0.00664377 0.03590844 0.00661954 0.00910312 0.00133100 0.01130666 0.05555862 0.01674146 0.00127680 
0.01591182 0.04259038 0.00451689 0.00239754 0.00445170 0.00174397 0.00244996 0.00666541 0.03669832 0.00658636 0.00930347 0.00132336 0.01123027 0.05562804 0.01667906 0.00132545 
0.01605356 0.04341943 0.00458105 0.00236934 0.00449080 0.00178367 0.00236107 0.00668763 0.03748444 0.00655228 0.00951217 0.00131654 0.01117288 0.05570661 0.01661897 0.00137748 
0.01618416 0.04420908 0.00464772 0.00234164 0.00454375 0.00182392 0.00228165 0.00671026 0.03826394 0.00651725 0.00972849 0.00131059 0.01113475 0.05579426 0.01656164 0.00143277 
0.01630326 0.04495671 0.00471646 0.00231449 0.00461065 0.00186450 0.00221242 0.00673314 0.03903392 0.00648122 0.00995168 0.00130556 0.01111601 0.05589072 0.01650743 0.00149120 
0.01641059 0.04565986 0.00478682 0.00228794 0.00469150 0.00190516 0.00215408 0.00675608 0.03979147 0.00644414 0.01018093 0.00130148 0.01111672 0.05599553 0.01645665 0.00155262 
0.01650596 0.04631625 0.00485834 0.00226204 0.00478626 0.00194568 0.00210729 0.00677888 0.04053369 0.00640595 0.01041537 0.00129838 0.01113677 0.05610804 0.01640951 0.00161687 
0.01658925 0.04692379 0.00493056 0.00223684 0.00489483 0.00198583 0.00207272 0.00680135 0.04125766 0.00636658 0.01065413 0.00129629 0.01117599 0.05622742 0.01636617 0.00168379 
0.01666040 0.04748057 0.00500302 0.00221236 0.00501703 0.00202537 0.00205097 0.00682326 0.04196050 0.00632595 0.01089625 0.00129522 0.01123406 0.05635265 0.01632671 0.00175317 
0.01671944 0.04798491 0.00507525 0.00218864 0.00515263 0.00206408 0.00204262 0.00684439 0.04263938 0.00628400 0.01114078 0.00129519 0.01131060 0.05648253 0.01629110 0.00182481 
0.01676648 0.04843531 0.00514679 0.00216572 0.00530134 0.00210174 0.00204822 0.00686450 0.04329151 0.00624063 0.01138671 0.00129620 0.01140508 0.05661571 0.01625927 0.00189850 
0.01680170 0.04883050 0.00521718 0.00214362 0.00546280 0.00213814 0.00206827 0.00688336 0.04391419 0.00619576 0.01163303 0.00129826 0.01151690 0.05675066 0.01623105 0.00197400 
0.01682535 0.04916944 0.00528598 0.00212237 0.00563660 0.00217308 0.00210322 0.00690073 0.04450481 0.00614929 0.01187867 0.00130134 0.01164537 0.05688572 0.01620620 0.00205107 
0.01683774 0.04945129 0.00535274 0.00210198 0.00582227 0.00220635 0.00215347 0.00691635 0.04506086 0.00610113 0.01212259 0.00130545 0.01178969 0.05701908 0.01618440 0.00212945 
0.01683927 0.04967547 0.00541704 0.00208248 0.00601929 0.00223778 0.00221937 0.00692999 0.04557995 0.00605119 0.01236370 0.00131056 0.01194901 0.05714883 0.01616526 0.00220888 
0.01683039 0.04984159 0.00547847 0.00206386 0.00622708 0.00226720 0.00230119 0.00694141 0.04605983 0.00599936 0.01260092 0.00131664 0.01212238 0.05727297 0.01614833 0.00228909 
0.01681162 0.04994951 0.00553663 0.00204614 0.00644501 0.00229445 0.00239918 0.00695037 0.04649841 0.00594555 0.01283316 0.00132366 0.01230880 0.05738939 0.01613309 0.00236980 
0.01678352 0.04999932 0.00559116 0.00202933 0.00667240 0.00231938 0.00251349 0.00695664 0.04689377 0.00588965 0.01305934 0.00133158 0.01250719 0.05749594 0.01611897 0.00245072 
0.01674672 0.04999131 0.00564170 0.00201342 0.00690854 0.00234187 0.00264421 0.00695999 0.04724416 0.00583159 0.01327839 0.00134036 0.01271642 0.05759042 0.01610533 0.00253157 
0.01670188 0.04992602 0.00568793 0.00199842 0.00715267 0.00236180 0.00279137 0.00696021 0.04754803 0.00577126 0.01348926 0.00134995 0.01293534 0.05767062 0.01609151 0.00261205 
0.01664972 0.04980418 0.00572954 0.00198431 0.00740399 0.00237909 0.00295491 0.00695710 0.04780405 0.00570858 0.01369090 0.00136030 0.01316272 0.05773432 0.01607679 0.00269187 
0.01659098 0.04962676 0.00576624 0.00197110 0.00766168 0.00239364 0.00313471 0.00695047 0.04801109 0.00564347 0.01388231 0.00137134 0.01339734 0.05777934 0.01606044 0.00277075 
0.01652644 0.04939490 0.00579781 0.00195876 0.00792488 0.00240542 0.00333058 0.00694013 0.04816827 0.00557586 0.01406251 0.00138302 0.01363794 0.05780354 0.01604170 0.00284838 
0.01645689 0.04910996 0.00582400 0.00194730 0.00819271 0.00241436 0.00354222 0.00692594 0.04827494 0.00550568 0.01423057 0.00139527 0.01388323 0.05780485 0.01601978 0.00292449 
0.01638316 0.04877349 0.00584463 0.00193668 0.00846426 0.00242046 0.00376929 0.00690775 0.04833069 0.00543289 0.01438558 0.00140802 0.01413195 0.05778130 0.01599391 0.00299879 
0.01630607 0.04838720 0.00585955 0.00192690 0.00873863 0.00242370 0.00401135 0.00688544 0.04833537 0.00535744 0.01452671 0.00142120 0.01438280 0.05773103 0.01596331 0.00307101 
0.01622646 0.04795298 0.00586861 0.00191794 0.00901488 0.00242411 0.00426789 0.00685891 0.04828910 0.00527930 0.01465316 0.00143473 0.01463454 0.05765233 0.01592721 0.00314087 
0.01614515 0.04747288 0.00587172 0.00190977 0.00929208 0.00242171 0.00453832 0.00682807 0.04819223 0.00519846 0.01476420 0.00144854 0.01488590 0.05754366 0.01588488 0.00320812 
0.01606298 0.04694909 0.00586881 0.00190237 0.00956929 0.00241656 0.00482197 0.00679287 0.04804542 0.00511492 0.01485918 0.00146254 0.01513567 0.05740363 0.01583560 0.00327250 
0.01598076 0.04638395 0.00585985 0.00189573 0.00984558 0.00240873 0.00511811 0.00675327 0.04784955 0.00502870 0.01493748 0.00147666 0.01538264 0.05723108 0.01577870 0.00333378 
0.01589927 0.04577991 0.00584482 0.00188981 0.01012002 0.00239831 0.00542591 0.00670926 0.04760578 0.00493984 0.01499860 0.00149081 0.01562567 0.05702506 0.01571355 0.00339174 
0.01581927 0.04513951 0.00582374 0.00188459 0.01039170 0.00238540 0.00574449 0.00666085 0.04731554 0.00484839 0.01504208 0.00150492 0.01586365 0.05678486 0.01563958 0.00344615 
0.01574151 0.04446543 0.00579668 0.00188004 0.01065971 0.00237012 0.00607289 0.00660808 0.04698050 0.00475442 0.01506757 0.00151891 0.01609551 0.05651002 0.01555630 0.00349682 
0.01566667 0.04376040 0.00576372 0.00187615 0.01092318 0.00235262 0.00641011 0.00655100 0.04660256 0.00465804 0.01507479 0.00153269 0.01632026 0.05620036 0.01546325 0.00354357 
0.01559541 0.04302722 0.00572496 0.00187288 0.01118124 0.00233304 0.00675506 0.00648971 0.04618389 0.00455936 0.01506355 0.00154618 0.01653695 0.05585594 0.01536010 0.00358623 
0.01552834 0.04226875 0.00568054 0.00187020 0.01143307 0.00231154 0.00710660 0.00642431 0.04572688 0.00445851 0.01503375 0.00155932 0.01674470 0.05547715 0.01524657 0.00362465 
0.01546601 0.04148790 0.00563062 0.00186810 0.01167787 0.00228831 0.00746354 0.00635493 0.04523410 0.00435567 0.01498539 0.00157202 0.01694270 0.05506465 0.01512248 0.00365870 
0.01540891 0.04068760 0.00557539 0.00186655 0.01191487 0.00226353 0.00782465 0.00628173 0.04470837 0.00425102 0.01491856 0.00158422 0.01713023 0.05461940 0.01498775 0.00368828 
0.01535750 0.03987079 0.00551507 0.00186552 0.01214335 0.00223740 0.00818865 0.00620489 0.04415265 0.00414477 0.01483343 0.00159584 0.01730661 0.05414266 0.01484240 0.00371327 
0.01531215 0.03904040 0.00544988 0.00186498 0.01236261 0.00221013 0.00855422 0.00612461 0.04357010 0.00403714 0.01473029 0.00160682 0.01747127 0.05363600 0.01468654 0.00373362 
0.01527319 0.03819937 0.00538008 0.00186492 0.01257202 0.00218194 0.00892002 0.00604112 0.04296402 0.00392840 0.01460952 0.00161710 0.01762369 0.05310130 0.01452039 0.00374926 
0.01524085 0.03735060 0.00530593 0.00186532 0.01277097 0.00215304 0.00928467 0.00595464 0.04233782 0.00381882 0.01447157 0.00162662 0.01776345 0.05254070 0.01434430 0.00376016 
0.01521532 0.03649695 0.00522772 0.00186614 0.01295891 0.00212366 0.00964679 0.00586545 0.04169504 0.00370870 0.01431701 0.00163532 0.01789021 0.05195665 0.01415870 0.00376630 
0.01519673 0.03564124 0.00514576 0.00186737 0.01313534 0.00209402 0.01000498 0.00577382 0.04103929 0.00359836 0.01414650 0.00164316 0.01800370 0.05135188 0.01396415 0.00376768 
0.01518513 0.03478619 0.00506034 0.00186900 0.01329980 0.00206436 0.01035782 0.00568004 0.04037426 0.00348815 0.01396077 0.00165009 0.01810372 0.05072939 0.01376130 0.00376433 
0.01518048 0.03393450 0.00497181 0.00187099 0.01345188 0.00203491 0.01070391 0.00558443 0.03970365 0.00337843 0.01376067 0.00165608 0.01819017 0.05009240 0.01355091 0.00375629 
0.01518271 0.03308875 0.00488049 0.00187334 0.01359123 0.00200589 0.01104185 0.00548729 0.03903121 0.00326958 0.01354710 0.00166109 0.01826302 0.04944440 0.01333385 0.00374362 
0.01519167 0.03225144 0.00478672 0.00187603 0.01371755 0.00197752 0.01137027 0.00538897 0.03836065 0.00316199 0.01332106 0.00166510 0.01832230 0.04878907 0.01311109 0.00372639 
0.01520713 0.03142496 0.00469084 0.00187905 0.01383060 0.00195004 0.01168781 0.00528979 0.03769566 0.00305610 0.01308362 0.00166808 0.01836813 0.04813031 0.01288368 0.00370472 
0.01522884 0.03061160 0.00459322 0.00188237 0.01393016 0.00192364 0.01199313 0.00519012 0.03703985 0.00295232 0.01283591 0.00167001 0.01840069 0.04747216 0.01265278 0.00367870 
0.01525644 0.02981351 0.00449418 0.00188599 0.01401610 0.00189855 0.01228494 0.00509031 0.03639677 0.00285110 0.01257915 0.00167089 0.01842021 0.04681882 0.01241960 0.00364848 
0.01528956 0.02903274 0.00439409 0.00188990 0.01408832 0.00187495 0.01256199 0.00499070 0.03576984 0.00275289 0.01231461 0.00167072 0.01842701 0.04617462 0.01218547 0.00361419 
0.01532775 0.02827120 0.00429329 0.00189409 0.01414676 0.00185304 0.01282309 0.00489167 0.03516235 0.00265816 0.01204361 0.00166949 0.01842146 0.04554395 0.01195174 0.00357601 
0.01537051 0.02753066 0.00419213 0.00189854 0.01419143 0.00183300 0.01306707 0.00479357 0.03457744 0.00256737 0.01176750 0.00166722 0.01840396 0.04493131 0.01171985 0.00353410 
0.01541733 0.02681276 0.00409094 0.00190326 0.01422237 0.00181498 0.01329287 0.00469677 0.03401806 0.00248101 0.01148772 0.00166391 0.01837498 0.04434119 0.01149128 0.00348867 
0.01546762 0.02611898 0.00399006 0.00190822 0.01423967 0.00179914 0.01349946 0.00460161 0.03348697 0.00239953 0.01120570 0.00165958 0.01833504 0.04377809 0.01126756 0.00343991 
0.01552079 0.02545069 0.00388982 0.00191344 0.01424346 0.00178563 0.01368590 0.00450845 0.03298671 0.00232343 0.01092290 0.00165428 0.01828469 0.04324648 0.01105022 0.00338805 
0.01557620 0.02480907 0.00379052 0.00191889 0.01423392 0.00177456 0.01385133 0.00441765 0.03251956 0.00225318 0.01064084 0.00164801 0.01822450 0.04275078 0.01084085 0.00333330 
0.01563319 0.02419519 0.00369248 0.00192459 0.01421126 0.00176603 0.01399496 0.00432952 0.03208758 0.00218923 0.01036100 0.00164082 0.01815511 0.04229529 0.01064101 0.00327591 
0.01569109 0.02360995 0.00359599 0.00193051 0.01417572 0.00176016 0.01411609 0.00424440 0.03169254 0.00213206 0.01008489 0.00163275 0.01807714 0.04188420 0.01045228 0.00321612 
0.01574920 0.02305412 0.00350133 0.00193667 0.01412759 0.00175700 0.01421413 0.00416261 0.03133593 0.00208211 0.00981402 0.00162384 0.01799125 0.04152152 0.01027621 0.00315419 
0.01580685 0.02252831 0.00340878 0.00194305 0.01406717 0.00175661 0.01428855 0.00408444 0.03101895 0.00203982 0.00954987 0.00161415 0.01789814 0.04121108 0.01011434 0.00309038 
0.01586332 0.02203302 0.00331858 0.00194967 0.01399481 0.00175904 0.01433896 0.00401020 0.03074250 0.00200560 0.00929392 0.00160373 0.01779848 0.04095648 0.00996817 0.00302496 
0.01591793 0.02156857 0.00323099 0.00195650 0.01391087 0.00176431 0.01436502 0.00394014 0.03050717 0.00197986 0.00904761 0.00159264 0.01769297 0.04076107 0.00983912 0.00295821 
0.01596999 0.02113517 0.00314623 0.00196356 0.01381575 0.00177242 0.01436653 0.00387454 0.03031324 0.00196298 0.00881235 0.00158093 0.01758232 0.04062791 0.00972858 0.00289039 
0.01601885 0.02073292 0.00306451 0.00197084 0.01370985 0.00178337 0.01434338 0.00381362 0.03016069 0.00195531 0.00858949 0.00156867 0.01746722 0.04055975 0.00963787 0.00282180 
0.01606383 0.02036175 0.00298603 0.00197834 0.01359361 0.00179712 0.01429556 0.00375762 0.03004916 0.00195718 0.00838035 0.00155594 0.01734836 0.04055900 0.00956820 0.00275272 
0.01610434 0.02002151 0.00291097 0.00198607 0.01346748 0.00181362 0.01422318 0.00370673 0.02997802 0.00196890 0.00818618 0.00154279 0.01722642 0.04062773 0.00952071 0.00268343 
0.01613976 0.01971193 0.00283950 0.00199401 0.01333191 0.00183282 0.01412642 0.00366114 0.02994631 0.00199073 0.00800817 0.00152931 0.01710209 0.04076759 0.00949642 0.00261422 
0.01616953 0.01943262 0.00277178 0.00200218 0.01318738 0.00185463 0.01400560 0.00362101 0.02995280 0.00202290 0.00784742 0.00151555 0.01697601 0.04097986 0.00949626 0.00254538 
0.01619314 0.01918311 0.00270794 0.00201057 0.01303437 0.00187896 0.01386112 0.00358649 0.02999596 0.00206563 0.00770498 0.00150160 0.01684884 0.04126538 0.00952101 0.00247720 
0.01621009 0.01896284 0.00264810 0.00201917 0.01287338 0.00190571 0.01369349 0.00355768 0.03007399 0.00211907 0.00758179 0.00148753 0.01672117 0.04162456 0.00957135 0.00240996 
0.01621995 0.01877114 0.00259237 0.00202800 0.01270491 0.00193475 0.01350330 0.00353470 0.03018486 0.00218334 0.00747870 0.00147341 0.01659362 0.04205736 0.00964778 0.00234395 
0.01622232 0.01860729 0.00254084 0.00203704 0.01252946 0.00196594 0.01329127 0.00351762 0.03032628 0.00225854 0.00739647 0.00145932 0.01646676 0.04256329 0.00975071 0.00227944 
0.01621686 0.01847050 0.00249360 0.00204630 0.01234754 0.00199914 0.01305818 0.00350649 0.03049576 0.00234470 0.00733577 0.00144533 0.01634112 0.04314139 0.00988037 0.00221671 
0.01620328 0.01835993 0.00245071 0.00205578 0.01215966 0.00203419 0.01280490 0.00350134 0.03069060 0.00244182 0.00729713 0.00143150 0.01621722 0.04379022 0.01003683 0.00215605 
0.01618134 0.01827465 0.00241223 0.00206547 0.01196634 0.00207092 0.01253240 0.00350219 0.03090795 0.00254986 0.00728101 0.00141792 0.01609556 0.04450790 0.01022002 0.00209770 
0.01615086 0.01821374 0.00237819 0.00207538 0.01176808 0.00210916 0.01224173 0.00350902 0.03114479 0.00266872 0.00728772 0.00140464 0.01597659 0.04529205 0.01042972 0.00204194 
0.01611171 0.01817621 0.00234864 0.00208549 0.01156541 0.00214872 0.01193400 0.00352180 0.03139798 0.00279827 0.00731749 0.00139173 0.01586074 0.04613985 0.01066551 0.00198902 
0.01606383 0.01816105 0.00232358 0.00209581 0.01135884 0.00218941 0.01161039 0.00354049 0.03166432 0.00293832 0.00737039 0.00137926 0.01574840 0.04704802 0.01092685 0.00193919 
0.01600718 0.01816725 0.00230303 0.00210634 0.01114887 0.00223105 0.01127215 0.00356499 0.03194050 0.00308865 0.00744641 0.00136728 0.01563995 0.04801285 0.01121302 0.00189270 
0.01594182 0.01819375 0.00228698 0.00211707 0.01093603 0.00227342 0.01092060 0.00359523 0.03222319 0.00324898 0.00754539 0.00135585 0.01553570 0.04903017 0.01152314 0.00184977 
0.01586785 0.01823953 0.00227543 0.00212800 0.01072082 0.00231634 0.01055710 0.00363109 0.03250907 0.00341899 0.00766706 0.00134501 0.01543597 0.05009545 0.01185617 0.00181064 
0.01578540 0.01830354 0.00226835 0.00213911 0.01050374 0.00235959 0.01018305 0.00367243 0.03279481 0.00359831 0.00781104 0.00133482 0.01534103 0.05120373 0.01221093 0.00177551 
0.01569469 0.01838476 0.00226572 0.00215042 0.01028531 0.00240298 0.00979991 0.00371911 0.03307715 0.00378654 0.00797681 0.00132532 0.01525111 0.05234970 0.01258608 0.00174461 
0.01559597 0.01848218 0.00226751 0.00216191 0.01006604 0.00244631 0.00940914 0.00377096 0.03335291 0.00398323 0.00816374 0.00131655 0.01516644 0.05352772 0.01298016 0.00171812 
0.01548954 0.01859481 0.00227366 0.00217357 0.00984642 0.00248937 0.00901227 0.00382780 0.03361902 0.00418787 0.00837110 0.00130853 0.01508719 0.05473183 0.01339153 0.00169623 
0.01537576 0.01872169 0.00228413 0.00218540 0.00962696 0.00253198 0.00861082 0.00388943 0.03387252 0.00439994 0.00859801 0.00130131 0.01501352 0.05595580 0.01381848 0.00167912 
0.01525500 0.01886188 0.00229887 0.00219739 0.00940818 0.00257395 0.00820634 0.00395564 0.03411066 0.00461885 0.00884352 0.00129490 0.01494555 0.05719314 0.01425913 0.00166695 
0.01512772 0.01901450 0.00231782 0.00220954 0.00919056 0.00261509 0.00780037 0.00402620 0.03433083 0.00484402 0.00910654 0.00128932 0.01488339 0.05843717 0.01471153 0.00165988 
0.01499438 0.01917869 0.00234089 0.00222183 0.00897461 0.00265522 0.00739446 0.00410089 0.03453068 0.00507478 0.00938592 0.00128458 0.01482712 0.05968103 0.01517361 0.00165804 
0.01485548 0.01935365 0.00236803 0.00223426 0.00876085 0.00269418 0.00699017 0.00417944 0.03470807 0.00531047 0.00968037 0.00128070 0.01477678 0.06091772 0.01564323 0.00166156 
0.01471157 0.01953861 0.00239916 0.00224680 0.00854977 0.00273180 0.00658901 0.00426161 0.03486112 0.00555039 0.00998855 0.00127767 0.01473241 0.06214017 0.01611815 0.00167055 
0.01456320 0.01973287 0.00243418 0.00225946 0.00834188 0.00276794 0.00619251 0.00434713 0.03498822 0.00579380 0.01030900 0.00127549 0.01469401 0.06334125 0.01659609 0.00168512 
0.01441098 0.01993575 0.00247301 0.00227222 0.00813768 0.00280245 0.00580216 0.00443573 0.03508808 0.00603995 0.01064021 0.00127416 0.01466157 0.06451383 0.01707471 0.00170534 
0.01425551 0.02014666 0.00251557 0.00228507 0.00793769 0.00283520 0.00541940 0.00452713 0.03515970 0.00628808 0.01098061 0.00127367 0.01463505 0.06565082 0.01755165 0.00173129 
0.01409741 0.02036503 0.00256174 0.00229799 0.00774240 0.00286607 0.00504567 0.00462105 0.03520240 0.00653740 0.01132852 0.00127399 0.01461441 0.06674520 0.01802452 0.00176302 
0.01393733 0.02059036 0.00261143 0.00231097 0.00755233 0.00289495 0.00468234 0.00471720 0.03521583 0.00678709 0.01168227 0.00127510 0.01459957 0.06779011 0.01849091 0.00180056 
0.01377592 0.02082219 0.00266453 0.00232400 0.00736798 0.00292174 0.00433075 0.00481529 0.03519998 0.00703636 0.01204010 0.00127699 0.01459044 0.06877883 0.01894843 0.00184394 
0.01361382 0.02106013 0.00272093 0.00233704 0.00718986 0.00294637 0.00399217 0.00491503 0.03515517 0.00728439 0.01240023 0.00127961 0.01458692 0.06970488 0.01939471 0.00189316 
0.01345171 0.02130383 0.00278051 0.00235010 0.00701847 0.00296875 0.00366783 0.00501614 0.03508209 0.00753035 0.01276086 0.00128295 0.01458889 0.07056204 0.01982743 0.00194821 
0.01329022 0.02155298 0.00284315 0.00236315 0.00685430 0.00298882 0.00335889 0.00511832 0.03498175 0.00777343 0.01312016 0.00128695 0.01459622 0.07134440 0.02024431 0.00200905 
0.01313002 0.02180732 0.00290872 0.00237617 0.00669786 0.00300654 0.00306644 0.00522129 0.03485548 0.00801282 0.01347629 0.00129158 0.01460876 0.07204638 0.02064312 0.00207563 
0.01297175 0.02206663 0.00297710 0.00238913 0.00654963 0.00302187 0.00279151 0.00532477 0.03470497 0.00824770 0.01382744 0.00129680 0.01462635 0.07266280 0.02102174 0.00214789 
0.01281604 0.02233074 0.00304813 0.00240203 0.00641009 0.00303478 0.00253505 0.00542847 0.03453222 0.00847730 0.01417177 0.00130256 0.01464882 0.07318890 0.02137812 0.00222574 
0.01266350 0.02259952 0.00312169 0.00241483 0.00627972 0.00304526 0.00229794 0.00553213 0.03433952 0.00870082 0.01450750 0.00130881 0.01467598 0.07362039 0.02171034 0.00230908 
0.01251474 0.02287284 0.00319763 0.00242751 0.00615897 0.00305330 0.00208099 0.00563548 0.03412947 0.00891751 0.01483285 0.00131551 0.01470765 0.07395347 0.02201657 0.00239777 
0.01237035 0.02315063 0.00327578 0.00244006 0.00604830 0.00305892 0.00188489 0.00573826 0.03390494 0.00912664 0.01514609 0.00132259 0.01474362 0.07418486 0.02229515 0.00249167 
0.01223087 0.02343284 0.00335600 0.00245244 0.00594813 0.00306214 0.00171030 0.00584022 0.03366905 0.00932750 0.01544556 0.00133002 0.01478368 0.07431185 0.02254451 0.00259062 
0.01209685 0.02371942 0.00343812 0.00246463 0.00585887 0.00306297 0.00155776 0.00594113 0.03342514 0.00951941 0.01572963 0.00133774 0.01482760 0.07433229 0.02276329 0.00269444 
0.01196880 0.02401035 0.00352196 0.00247661 0.00578092 0.00306146 0.00142773 0.00604076 0.03317679 0.00970172 0.01599675 0.00134570 0.01487516 0.07424466 0.02295026 0.00280292 
0.01184720 0.02430562 0.00360737 0.00248834 0.00571466 0.00305766 0.00132059 0.00613887 0.03292772 0.00987383 0.01624545 0.00135384 0.01492612 0.07404803 0.02310437 0.00291585 
0.01173251 0.02460522 0.00369414 0.00249981 0.00566041 0.00305162 0.00123663 0.00623528 0.03268182 0.01003515 0.01647435 0.00136212 0.01498024 0.07374213 0.02322475 0.00303298 
0.01162515 0.02490914 0.00378211 0.00251098 0.00561850 0.00304340 0.00117604 0.00632978 0.03244311 0.01018516 0.01668215 0.00137048 0.01503727 0.07332732 0.02331071 0.00315405 
0.01152551 0.02521737 0.00387107 0.00252183 0.00558920 0.00303307 0.00113895 0.00642219 0.03221569 0.01032337 0.01686766 0.00137888 0.01509696 0.07280463 0.02336176 0.00327879 
0.01143397 0.02552988 0.00396082 0.00253234 0.00557278 0.00302070 0.00112536 0.00651234 0.03200373 0.01044933 0.01702979 0.00138726 0.01515906 0.07217573 0.02337761 0.00340691 
0.01135084 0.02584663 0.00405118 0.00254248 0.00556942 0.00300638 0.00113523 0.00660009 0.03181142 0.01056265 0.01716759 0.00139560 0.01522329 0.07144296 0.02335816 0.00353810 
0.01127642 0.02616758 0.00414193 0.00255221 0.00557931 0.00299020 0.00116839 0.00668527 0.03164295 0.01066298 0.01728020 0.00140384 0.01528941 0.07060931 0.02330350 0.00367202 
0.01121098 0.02649264 0.00423286 0.00256153 0.00560257 0.00297224 0.00122463 0.00676779 0.03150245 0.01075004 0.01736692 0.00141194 0.01535714 0.06967839 0.02321396 0.00380835 
0.01115475 0.02682171 0.00432376 0.00257040 0.00563929 0.00295259 0.00130361 0.00684751 0.03139402 0.01082357 0.01742714 0.00141988 0.01542622 0.06865447 0.02309003 0.00394671 
0.01110793 0.02715466 0.00441440 0.00257880 0.00568949 0.00293136 0.00140495 0.00692434 0.03132162 0.01088338 0.01746044 0.00142761 0.01549639 0.06754241 0.02293241 0.00408676 
0.01107067 0.02749130 0.00450456 0.00258670 0.00575316 0.00290864 0.00152815 0.00699821 0.03128908 0.01092934 0.01746649 0.00143512 0.01556739 0.06634767 0.02274203 0.00422810 
0.01104312 0.02783145 0.00459403 0.00259410 0.00583023 0.00288453 0.00167268 0.00706904 0.03130006 0.01096137 0.01744515 0.00144238 0.01563895 0.06507626 0.02251996 0.00437035 
0.01102536 0.02817485 0.00468257 0.00260097 0.00592057 0.00285914 0.00183791 0.00713678 0.03135804 0.01097944 0.01739639 0.00144937 0.01571081 0.06373474 0.02226749 0.00451310 
0.01101748 0.02852122 0.00476996 0.00260729 0.00602401 0.00283257 0.00202312 0.00720140 0.03146623 0.01098357 0.01732035 0.00145607 0.01578273 0.06233016 0.02198609 0.00465595 
0.01101951 0.02887023 0.00485596 0.00261305 0.00614030 0.00280492 0.00222757 0.00726286 0.03162762 0.01097386 0.01721732 0.00146249 0.01585446 0.06087004 0.02167738 0.00479848 
0.01103147 0.02922150 0.00494034 0.00261823 0.00626915 0.00277630 0.00245041 0.00732118 0.03184489 0.01095043 0.01708771 0.00146860 0.01592574 0.05936233 0.02134318 0.00494028 
0.01105334 0.02957461 0.00502288 0.00262283 0.00641021 0.00274680 0.00269075 0.00737634 0.03212042 0.01091347 0.01693213 0.00147442 0.01599636 0.05781535 0.02098542 0.00508092 
0.01108507 0.02992911 0.00510335 0.00262684 0.00656305 0.00271653 0.00294765 0.00742837 0.03245627 0.01086324 0.01675129 0.00147995 0.01606608 0.05623777 0.02060622 0.00521998 
0.01112660 0.03028446 0.00518151 0.00263026 0.00672720 0.00268560 0.00322010 0.00747731 0.03285413 0.01080001 0.01654607 0.00148520 0.01613469 0.05463855 0.02020778 0.00535703 
0.01117784 0.03064012 0.00525714 0.00263307 0.00690213 0.00265409 0.00350705 0.00752319 0.03331532 0.01072414 0.01631749 0.00149019 0.01620197 0.05302689 0.01979247 0.00549166 
0.01123867 0.03099549 0.00533003 0.00263529 0.00708724 0.00262212 0.00380739 0.00756609 0.03384080 0.01063601 0.01606670 0.00149493 0.01626773 0.05141216 0.01936273 0.00562344 
0.01130895 0.03134993 0.00539994 0.00263691 0.00728187 0.00258976 0.00412000 0.00760606 0.03443110 0.01053606 0.01579501 0.00149946 0.01633179 0.04980388 0.01892111 0.00575196 
0.01138853 0.03170273 0.00546668 0.00263794 0.00748532 0.00255712 0.00444370 0.00764319 0.03508636 0.01042477 0.01550382 0.00150380 0.01639396 0.04821166 0.01847023 0.00587683 
0.01147724 0.03205320 0.00553003 0.00263840 0.00769682 0.00252429 0.00477728 0.00767759 0.03580632 0.01030267 0.01519469 0.00150799 0.01645410 0.04664510 0.01801277 0.00599764 
0.01157488 0.03240056 0.00558979 0.00263830 0.00791556 0.00249136 0.00511950 0.00770934 0.03659027 0.01017031 0.01486927 0.00151206 0.01651205 0.04511381 0.01755147 0.00611401 
0.01168125 0.03274404 0.00564577 0.00263766 0.00814066 0.00245840 0.00546911 0.00773856 0.03743710 0.01002829 0.01452935 0.00151608 0.01656768 0.04362727 0.01708908 0.00622558 
0.01179612 0.03308281 0.00569778 0.00263649 0.00837121 0.00242551 0.00582483 0.00776539 0.03834529 0.00987726 0.01417679 0.00152007 0.01662086 0.04219486 0.01662839 0.00633199 
0.01191926 0.03341604 0.00574564 0.00263482 0.00860626 0.00239277 0.00618537 0.00778995 0.03931290 0.00971787 0.01381356 0.00152411 0.01667149 0.04082572 0.01617217 0.00643290 
0.01205041 0.03374287 0.00578920 0.00263268 0.00884481 0.00236026 0.00654943 0.00781238 0.04033758 0.00955081 0.01344172 0.00152823 0.01671948 0.03952876 0.01572320 0.00652800 
0.01218933 0.03406244 0.00582828 0.00263010 0.00908582 0.00232804 0.00691571 0.00783283 0.04141660 0.00937681 0.01306339 0.00153251 0.01676475 0.03831257 0.01528419 0.00661699 
0.01233573 0.03437387 0.00586275 0.00262712 0.00932823 0.00229620 0.00728292 0.00785146 0.04254684 0.00919660 0.01268078 0.00153701 0.01680723 0.03718540 0.01485784 0.00669960 
0.01248934 0.03467629 0.00589247 0.00262376 0.00957095 0.00226480 0.00764974 0.00786842 0.04372483 0.00901095 0.01229612 0.00154178 0.01684688 0.03615506 0.01444677 0.00677557 
0.01264987 0.03496882 0.00591732 0.00262008 0.00981287 0.00223391 0.00801490 0.00788389 0.04494674 0.00882062 0.01191171 0.00154691 0.01688366 0.03522895 0.01405353 0.00684468 
0.01281702 0.03525061 0.00593719 0.00261611 0.01005285 0.00220360 0.00837713 0.00789804 0.04620843 0.00862641 0.01152988 0.00155245 0.01691753 0.03441393 0.01368056 0.00690673 
0.01299050 0.03552081 0.00595199 0.00261189 0.01028976 0.00217393 0.00873516 0.00791104 0.04750546 0.00842910 0.01115296 0.00155848 0.01694850 0.03371634 0.01333022 0.00696155 
0.01316998 0.03577860 0.00596163 0.00260748 0.01052246 0.00214496 0.00908777 0.00792307 0.04883310 0.00822951 0.01078332 0.00156508 0.01697655 0.03314193 0.01300475 0.00700899 
0.01335516 0.03602321 0.00596605 0.00260293 0.01074980 0.00211675 0.00943375 0.00793433 0.05018641 0.00802843 0.01042330 0.00157230 0.01700170 0.03269584 0.01270624 0.00704896 
0.01354571 0.03625388 0.00596519 0.00259828 0.01097064 0.00208934 0.00977194 0.00794498 0.05156020 0.00782666 0.01007524 0.00158023 0.01702396 0.03238257 0.01243665 0.00708136 
0.01374131 0.03646990 0.00595902 0.00259358 0.01118387 0.00206280 0.01010119 0.00795523 0.05294910 0.00762501 0.00974146 0.00158895 0.01704337 0.03220594 0.01219779 0.00710615 
0.01394162 0.03667062 0.00594752 0.00258890 0.01138839 0.00203718 0.01042041 0.00796525 0.05434762 0.00742425 0.00942422 0.00159850 0.01705997 0.03216908 0.01199130 0.00712331 
0.01414630 0.03685545 0.00593069 0.00258429 0.01158310 0.00201251 0.01072855 0.00797525 0.05575010 0.00722517 0.00912575 0.00160898 0.01707379 0.03227440 0.01181866 0.00713286 
0.01435501 0.03702386 0.00590853 0.00257979 0.01176698 0.00198885 0.01102459 0.00798540 0.05715084 0.00702853 0.00884819 0.00162044 0.01708488 0.03252357 0.01168117 0.00713484 
0.01456740 0.03717538 0.00588107 0.00257547 0.01193900 0.00196624 0.01130758 0.00799591 0.05854407 0.00683508 0.00859365 0.00163296 0.01709331 0.03291754 0.01157993 0.00712933 
0.01478312 0.03730963 0.00584836 0.00257137 0.01209821 0.00194471 0.01157662 0.00800695 0.05992401 0.00664553 0.00836410 0.00164658 0.01709912 0.03345649 0.01151585 0.00711646 
0.01500179 0.03742630 0.00581046 0.00256756 0.01224369 0.00192430 0.01183085 0.00801871 0.06128490 0.00646059 0.00816146 0.00166138 0.01710238 0.03413988 0.01148967 0.00709635 
0.01522306 0.03752518 0.00576744 0.00256409 0.01237458 0.00190505 0.01206948 0.00803138 0.06262102 0.00628093 0.00798751 0.00167740 0.01710315 0.03496638 0.01150190 0.00706920 
0.01544655 0.03760613 0.00571940 0.00256100 0.01249008 0.00188698 0.01229179 0.00804514 0.06392677 0.00610720 0.00784394 0.00169470 0.01710148 0.03593398 0.01155288 0.00703521 
0.01567187 0.03766913 0.00566645 0.00255835 0.01258946 0.00187012 0.01249711 0.00806017 0.06519665 0.00594002 0.00773228 0.00171333 0.01709745 0.03703990 0.01164271 0.00699462 
0.01589865 0.03771425 0.00560871 0.00255618 0.01267205 0.00185450 0.01268483 0.00807663 0.06642533 0.00577996 0.00765395 0.00173331 0.01709110 0.03828066 0.01177132 0.00694770 
0.01612648 0.03774165 0.00554633 0.00255453 0.01273726 0.00184013 0.01285442 0.00809470 0.06760766 0.00562756 0.00761021 0.00175469 0.01708249 0.03965210 0.01193843 0.00689474 
0.01635496 0.03775161 0.00547945 0.00255346 0.01278459 0.00182703 0.01300541 0.00811453 0.06873872 0.00548334 0.00760218 0.00177750 0.01707168 0.04114938 0.01214356 0.00683606 
0.01658367 0.03774452 0.00540826 0.00255300 0.01281361 0.00181522 0.01313741 0.00813630 0.06981383 0.00534776 0.00763080 0.00180176 0.01705871 0.04276704 0.01238603 0.00677202 
0.01681220 0.03772086 0.00533295 0.00255318 0.01282398 0.00180469 0.01325009 0.00816014 0.07082857 0.00522125 0.00769686 0.00182748 0.01704363 0.04449901 0.01266499 0.00670299 
0.01704011 0.03768123 0.00525370 0.00255403 0.01281544 0.00179546 0.01334319 0.00818619 0.07177885 0.00510419 0.00780097 0.00185467 0.01702646 0.04633864 0.01297938 0.00662936 
0.01726697 0.03762635 0.00517074 0.00255559 0.01278783 0.00178753 0.01341653 0.00821460 0.07266088 0.00499692 0.00794356 0.00188333 0.01700724 0.04827876 0.01332798 0.00655155 
0.01749233 0.03755703 0.00508430 0.00255787 0.01274108 0.00178089 0.01347000 0.00824548 0.07347121 0.00489973 0.00812489 0.00191345 0.01698599 0.05031171 0.01370940 0.00646998 
0.01771573 0.03747419 0.00499461 0.00256090 0.01267522 0.00177554 0.01350355 0.00827895 0.07420678 0.00481288 0.00834503 0.00194503 0.01696272 0.05242939 0.01412209 0.00638511 
0.01793670 0.03737887 0.00490193 0.00256469 0.01259038 0.00177146 0.01351722 0.00831511 0.07486486 0.00473656 0.00860385 0.00197803 0.01693745 0.05462328 0.01456433 0.00629740 
0.01815477 0.03727219 0.00480653 0.00256924 0.01248675 0.00176863 0.01351111 0.00835406 0.07544314 0.00467094 0.00890106 0.00201242 0.01691018 0.05688455 0.01503428 0.00620731 
0.01836946 0.03715538 0.00470867 0.00257457 0.01236467 0.00176704 0.01348538 0.00839588 0.07593970 0.00461613 0.00923615 0.00204817 0.01688090 0.05920405 0.01552996 0.00611534 
0.01858027 0.03702976 0.00460864 0.00258067 0.01222452 0.00176666 0.01344029 0.00844063 0.07635301 0.00457218 0.00960846 0.00208523 0.01684960 0.06157237 0.01604928 0.00602197 
0.01878671 0.03689675 0.00450674 0.00258754 0.01206681 0.00176745 0.01337613 0.00848838 0.07668198 0.00453912 0.01001711 0.00212354 0.01681627 0.06397995 0.01659003 0.00592769 
0.01898826 0.03675781 0.00440326 0.00259516 0.01189213 0.00176939 0.01329328 0.00853915 0.07692590 0.00451692 0.01046105 0.00216303 0.01678087 0.06641704 0.01714991 0.00583299 
0.01918443 0.03661454 0.00429852 0.00260353 0.01170116 0.00177242 0.01319217 0.00859299 0.07708447 0.00450552 0.01093907 0.00220363 0.01674339 0.06887386 0.01772654 0.00573838 
0.01937469 0.03646855 0.00419283 0.00261261 0.01149465 0.00177652 0.01307331 0.00864989 0.07715780 0.00450479 0.01144976 0.00224527 0.01670380 0.07134056 0.01831748 0.00564433 
0.01955852 0.03632153 0.00408650 0.00262239 0.01127346 0.00178162 0.01293726 0.00870985 0.07714641 0.00451459 0.01199156 0.00228785 0.01666205 0.07380734 0.01892023 0.00555133 
0.01973541 0.03617523 0.00397988 0.00263284 0.01103850 0.00178768 0.01278463 0.00877286 0.07705118 0.00453470 0.01256274 0.00233127 0.01661813 0.07626446 0.01953223 0.00545986 
0.01990483 0.03603143 0.00387327 0.00264392 0.01079079 0.00179464 0.01261609 0.00883886 0.07687338 0.00456491 0.01316142 0.00237543 0.01657199 0.07870234 0.02015093 0.00537037 
0.02006627 0.03589195 0.00376702 0.00265559 0.01053137 0.00180244 0.01243237 0.00890780 0.07661464 0.00460493 0.01378557 0.00242021 0.01652359 0.08111154 0.02077373 0.00528332 
0.02021921 0.03575862 0.00366145 0.00266782 0.01026139 0.00181101 0.01223424 0.00897960 0.07627691 0.00465446 0.01443303 0.00246550 0.01647292 0.08348290 0.02139806 0.00519913 
0.02036315 0.03563328 0.00355689 0.00268055 0.00998204 0.00182029 0.01202253 0.00905417 0.07586250 0.00471315 0.01510152 0.00251118 0.01641994 0.08580751 0.02202135 0.00511822 
0.02049757 0.03551779 0.00345368 0.00269373 0.00969456 0.00183021 0.01179810 0.00913139 0.07537398 0.00478064 0.01578864 0.00255710 0.01636463 0.08807680 0.02264104 0.00504099 
0.02062199 0.03541396 0.00335214 0.00270732 0.00940023 0.00184069 0.01156185 0.00921114 0.07481423 0.00485652 0.01649188 0.00260314 0.01630698 0.09028255 0.02325465 0.00496781 
0.02073593 0.03532362 0.00325260 0.00272126 0.00910038 0.00185165 0.01131472 0.00929325 0.07418637 0.00494037 0.01720864 0.00264915 0.01624698 0.09241696 0.02385971 0.00489902 
0.02083892 0.03524853 0.00315538 0.00273549 0.00879638 0.00186303 0.01105769 0.00937755 0.07349376 0.00503174 0.01793627 0.00269499 0.01618463 0.09447269 0.02445385 0.00483494 
0.02093053 0.03519041 0.00306079 0.00274994 0.00848962 0.00187473 0.01079176 0.00946385 0.07273994 0.00513015 0.01867202 0.00274051 0.01611994 0.09644286 0.02503474 0.00477586 
0.02101033 0.03515093 0.00296915 0.00276457 0.00818150 0.00188669 0.01051796 0.00955195 0.07192864 0.00523514 0.01941312 0.00278554 0.01605295 0.09832111 0.02560016 0.00472205 
0.02107792 0.03513168 0.00288076 0.00277931 0.00787343 0.00189881 0.01023734 0.00964160 0.07106374 0.00534618 0.02015673 0.00282995 0.01598370 0.10010160 0.02614799 0.00467374 
0.02113292 0.03513417 0.00279589 0.00279409 0.00756684 0.00191102 0.00995097 0.00973256 0.07014923 0.00546278 0.02090003 0.00287357 0.01591224 0.10177906 0.02667619 0.00463112 
0.02117500 0.03515981 0.00271485 0.00280885 0.00726316 0.00192323 0.00965995 0.00982456 0.06918919 0.00558441 0.02164016 0.00291624 0.01583866 0.10334882 0.02718286 0.00459436 
0.02120384 0.03520991 0.00263790 0.00282352 0.00696378 0.00193537 0.00936535 0.00991732 0.06818775 0.00571054 0.02237429 0.00295781 0.01576303 0.10480676 0.02766620 0.00456359 
0.02121917 0.03528565 0.00256529 0.00283805 0.00667011 0.00194735 0.00906829 0.01001054 0.06714910 0.00584065 0.02309960 0.00299812 0.01568548 0.10614939 0.02812456 0.00453891 
0.02122075 0.03538810 0.00249728 0.00285237 0.00638350 0.00195909 0.00876987 0.01010389 0.06607742 0.00597421 0.02381333 0.00303701 0.01560613 0.10737385 0.02855641 0.00452038 
0.02120839 0.03551818 0.00243410 0.00286642 0.00610529 0.00197053 0.00847121 0.01019705 0.06497685 0.00611070 0.02451276 0.00307433 0.01552514 0.10847785 0.02896036 0.00450803 
0.02118194 0.03567667 0.00237595 0.00288014 0.00583678 0.00198158 0.00817339 0.01028968 0.06385153 0.00624959 0.02519522 0.00310994 0.01544268 0.10945975 0.02933516 0.00450183 
0.02114130 0.03586419 0.00232305 0.00289348 0.00557921 0.00199217 0.00787752 0.01038140 0.06270548 0.00639038 0.02585817 0.00314368 0.01535895 0.11031850 0.02967972 0.00450176 
0.02108641 0.03608119 0.00227556 0.00290637 0.00533379 0.00200224 0.00758467 0.01047187 0.06154266 0.00653257 0.02649914 0.00317542 0.01527416 0.11105367 0.02999310 0.00450772 
0.02101728 0.03632797 0.00223367 0.00291877 0.00510164 0.00201171 0.00729592 0.01056069 0.06036691 0.00667568 0.02711576 0.00320502 0.01518856 0.11166540 0.03027450 0.00451961 
0.02093395 0.03660464 0.00219750 0.00293062 0.00488386 0.00202054 0.00701230 0.01064749 0.05918193 0.00681924 0.02770581 0.00323235 0.01510240 0.11215441 0.03052326 0.00453726 
0.02083654 0.03691113 0.00216719 0.00294187 0.00468144 0.00202866 0.00673485 0.01073187 0.05799128 0.00696282 0.02826720 0.00325730 0.01501598 0.11252197 0.03073891 0.00456051 
0.02072521 0.03724719 0.00214284 0.00295249 0.00449532 0.00203602 0.00646456 0.01081343 0.05679834 0.00710597 0.02879798 0.00327973 0.01492960 0.11276989 0.03092108 0.00458913 
0.02060018 0.03761238 0.00212454 0.00296243 0.00432634 0.00204258 0.00620240 0.01089179 0.05560634 0.00724831 0.02929638 0.00329956 0.01484358 0.11290047 0.03106960 0.00462289 
0.02046174 0.03800607 0.00211234 0.00297166 0.00417527 0.00204829 0.00594932 0.01096655 0.05441830 0.00738945 0.02976078 0.00331669 0.01475828 0.11291651 0.03118439 0.00466150 
0.02031025 0.03842744 0.00210628 0.00298014 0.00404281 0.00205312 0.00570620 0.01103730 0.05323706 0.00752904 0.03018977 0.00333103 0.01467405 0.11282125 0.03126556 0.00470467 
0.02014609 0.03887547 0.00210639 0.00298784 0.00392953 0.00205703 0.00547392 0.01110366 0.05206525 0.00766677 0.03058210 0.00334250 0.01459129 0.11261833 0.03131334 0.00475206 
0.01996975 0.03934897 0.00211265 0.00299474 0.00383593 0.00206001 0.00525329 0.01116525 0.05090530 0.00780234 0.03093672 0.00335104 0.01451039 0.11231179 0.03132808 0.00480333 
0.01978176 0.03984656 0.00212503 0.00300081 0.00376242 0.00206202 0.00504510 0.01122168 0.04975943 0.00793549 0.03125281 0.00335660 0.01443177 0.11190600 0.03131026 0.00485810 
0.01958270 0.04036667 0.00214349 0.00300604 0.00370930 0.00206306 0.00485007 0.01127260 0.04862967 0.00806600 0.03152973 0.00335914 0.01435584 0.11140566 0.03126050 0.00491599 
0.01937322 0.04090754 0.00216794 0.00301040 0.00367677 0.00206313 0.00466889 0.01131765 0.04751785 0.00819365 0.03176707 0.00335862 0.01428306 0.11081572 0.03117952 0.00497657 
0.01915403 0.04146728 0.00219828 0.00301389 0.00366494 0.00206220 0.00450218 0.01135650 0.04642558 0.00831829 0.03196463 0.00335503 0.01421386 0.11014137 0.03106815 0.00503942 
0.01892590 0.04204380 0.00223439 0.00301650 0.00367382 0.00206030 0.00435053 0.01138881 0.04535432 0.00843978 0.03212242 0.00334838 0.01414869 0.10938798 0.03092733 0.00510410 
0.01868964 0.04263487 0.00227612 0.00301822 0.00370331 0.00205743 0.00421446 0.01141430 0.04430535 0.00855803 0.03224069 0.00333865 0.01408801 0.10856109 0.03075806 0.00517017 
0.01844612 0.04323811 0.00232330 0.00301906 0.00375323 0.00205360 0.00409443 0.01143269 0.04327976 0.00867295 0.03231987 0.00332589 0.01403227 0.10766635 0.03056148 0.00523717 
0.01819625 0.04385101 0.00237574 0.00301900 0.00382328 0.00204883 0.00399086 0.01144371 0.04227853 0.00878452 0.03236065 0.00331012 0.01398193 0.10670947 0.03033876 0.00530463 
0.01794099 0.04447094 0.00243322 0.00301805 0.00391308 0.00204315 0.00390409 0.01144715 0.04130247 0.00889272 0.03236390 0.00329139 0.01393742 0.10569623 0.03009116 0.00537209 
0.01768135 0.04509513 0.00249552 0.00301623 0.00402216 0.00203658 0.00383440 0.01144279 0.04035229 0.00899758 0.03233070 0.00326976 0.01389919 0.10463237 0.02982001 0.00543909 
0.01741835 0.04572075 0.00256236 0.00301352 0.00414995 0.00202916 0.00378204 0.01143045 0.03942861 0.00909915 0.03226234 0.00324530 0.01386766 0.10352365 0.02952667 0.00550516 
0.01715307 0.04634486 0.00263349 0.00300995 0.00429581 0.00202093 0.00374716 0.01141001 0.03853193 0.00919750 0.03216031 0.00321810 0.01384325 0.10237571 0.02921257 0.00556984 
0.01688659 0.04696446 0.00270860 0.00300552 0.00445899 0.00201192 0.00372986 0.01138134 0.03766273 0.00929273 0.03202626 0.00318826 0.01382635 0.10119413 0.02887918 0.00563270 
0.01662003 0.04757649 0.00278739 0.00300024 0.00463870 0.00200219 0.00373019 0.01134437 0.03682141 0.00938498 0.03186205 0.00315588 0.01381733 0.09998435 0.02852797 0.00569328 
0.01635451 0.04817786 0.00286952 0.00299412 0.00483404 0.00199178 0.00374812 0.01129905 0.03600837 0.00947439 0.03166968 0.00312108 0.01381653 0.09875167 0.02816047 0.00575117 
0.01609118 0.04876544 0.00295466 0.00298718 0.00504406 0.00198074 0.00378357 0.01124536 0.03522398 0.00956113 0.03145131 0.00308400 0.01382429 0.09750118 0.02777822 0.00580595 
0.01583116 0.04933610 0.00304246 0.00297942 0.00526775 0.00196912 0.00383638 0.01118335 0.03446862 0.00964539 0.03120924 0.00304476 0.01384089 0.09623779 0.02738274 0.00585723 
0.01557561 0.04988672 0.00313254 0.00297087 0.00550404 0.00195697 0.00390636 0.01111306 0.03374273 0.00972738 0.03094591 0.00300352 0.01386659 0.09496619 0.02697559 0.00590463 
0.01532563 0.05041421 0.00322454 0.00296152 0.00575180 0.00194437 0.00399323 0.01103461 0.03304676 0.00980729 0.03066387 0.00296044 0.01390160 0.09369083 0.02655832 0.00594781 
0.01508234 0.05091551 0.00331806 0.00295141 0.00600986 0.00193135 0.00409666 0.01094812 0.03238124 0.00988537 0.03036575 0.00291567 0.01394611 0.09241590 0.02613245 0.00598644 
0.01484683 0.05138763 0.00341273 0.00294053 0.00627702 0.00191798 0.00421626 0.01085376 0.03174676 0.00996185 0.03005430 0.00286940 0.01400025 0.09114532 0.02569952 0.00602021 
0.01462014 0.05182764 0.00350814 0.00292889 0.00655203 0.00190432 0.00435159 0.01075176 0.03114402 0.01003697 0.02973229 0.00282180 0.01406413 0.08988274 0.02526103 0.00604884 
0.01440331 0.05223272 0.00360390 0.00291652 0.00683364 0.00189042 0.00450214 0.01064236 0.03057380 0.01011098 0.02940258 0.00277304 0.01413778 0.08863154 0.02481847 0.00607210 
0.01419729 0.05260013 0.00369960 0.00290341 0.00712054 0.00187635 0.00466737 0.01052583 0.03003699 0.01018412 0.02906804 0.00272333 0.01422121 0.08739477 0.02437327 0.00608975 
0.01400303 0.05292728 0.00379486 0.00288959 0.00741146 0.00186216 0.00484666 0.01040251 0.02953460 0.01025664 0.02873158 0.00267285 0.01431436 0.08617524 0.02392688 0.00610163 
0.01382138 0.05321169 0.00388928 0.00287505 0.00770508 0.00184790 0.00503936 0.01027273 0.02906777 0.01032877 0.02839608 0.00262179 0.01441713 0.08497544 0.02348068 0.00610757 
0.01365317 0.05345104 0.00398247 0.00285980 0.00800010 0.00183363 0.00524476 0.01013690 0.02863774 0.01040077 0.02806442 0.00257035 0.01452937 0.08379758 0.02303602 0.00610746 
0.01349912 0.05364319 0.00407404 0.00284386 0.00829524 0.00181941 0.00546213 0.00999542 0.02824590 0.01047284 0.02773944 0.00251873 0.01465085 0.08264359 0.02259422 0.00610120 
0.01335990 0.05378613 0.00416363 0.00282723 0.00858921 0.00180528 0.00569065 0.00984875 0.02789373 0.01054521 0.02742393 0.00246712 0.01478132 0.08151512 0.02215654 0.00608874 
0.01323611 0.05387809 0.00425088 0.00280991 0.00888075 0.00179130 0.00592952 0.00969736 0.02758285 0.01061809 0.02712060 0.00241572 0.01492045 0.08041355 0.02172422 0.00607007 
0.01312825 0.05391746 0.00433543 0.00279192 0.00916864 0.00177751 0.00617785 0.00954176 0.02731498 0.01069165 0.02683209 0.00236473 0.01506786 0.07934001 0.02129842 0.00604521 
0.01303675 0.05390286 0.00441696 0.00277326 0.00945168 0.00176396 0.00643476 0.00938248 0.02709195 0.01076608 0.02656092 0.00231432 0.01522313 0.07829537 0.02088027 0.00601420 
0.01296193 0.05383310 0.00449514 0.00275394 0.00972871 0.00175068 0.00669931 0.00922006 0.02691565 0.01084153 0.02630950 0.00226470 0.01538576 0.07728030 0.02047087 0.00597713 
0.01290402 0.05370723 0.00456968 0.00273397 0.00999862 0.00173772 0.00697054 0.00905508 0.02678807 0.01091812 0.02608012 0.00221605 0.01555521 0.07629521 0.02007123 0.00593412 
0.01286319 0.05352453 0.00464030 0.00271336 0.01026034 0.00172511 0.00724747 0.00888814 0.02671125 0.01099597 0.02587491 0.00216854 0.01573090 0.07534032 0.01968233 0.00588533 
0.01283946 0.05328452 0.00470675 0.00269211 0.01051287 0.00171289 0.00752911 0.00871983 0.02668726 0.01107517 0.02569585 0.00212235 0.01591219 0.07441568 0.01930511 0.00583093 
0.01283279 0.05298694 0.00476880 0.00267025 0.01075525 0.00170108 0.00781444 0.00855077 0.02671820 0.01115579 0.02554475 0.00207764 0.01609838 0.07352114 0.01894043 0.00577115 
0.01284301 0.05263179 0.00482622 0.00264778 0.01098661 0.00168972 0.00810242 0.00838160 0.02680614 0.01123787 0.02542323 0.00203458 0.01628875 0.07265642 0.01858910 0.00570624 
0.01286989 0.05221931 0.00487886 0.00262473 0.01120612 0.00167884 0.00839202 0.00821295 0.02695315 0.01132142 0.02533274 0.00199331 0.01648253 0.07182109 0.01825191 0.00563646 
0.01291308 0.05174997 0.00492654 0.00260110 0.01141303 0.00166845 0.00868220 0.00804545 0.02716122 0.01140643 0.02527451 0.00195399 0.01667889 0.07101461 0.01792955 0.00556214 
0.01297212 0.05122451 0.00496914 0.00257694 0.01160668 0.00165857 0.00897191 0.00787976 0.02743229 0.01149287 0.02524959 0.00191673 0.01687699 0.07023631 0.01762269 0.00548359 
0.01304647 0.05064389 0.00500656 0.00255226 0.01178646 0.00164922 0.00926011 0.00771652 0.02776817 0.01158067 0.02525880 0.00188167 0.01707596 0.06948547 0.01733193 0.00540118 
0.01313551 0.05000933 0.00503873 0.00252709 0.01195185 0.00164043 0.00954576 0.00755635 0.02817052 0.01166975 0.02530276 0.00184893 0.01727489 0.06876128 0.01705781 0.00531528 
0.01323852 0.04932226 0.00506562 0.00250148 0.01210241 0.00163219 0.00982783 0.00739989 0.02864088 0.01176000 0.02538186 0.00181861 0.01747285 0.06806287 0.01680084 0.00522629 
0.01335469 0.04858437 0.00508721 0.00247545 0.01223779 0.00162453 0.01010531 0.00724776 0.02918056 0.01185128 0.02549629 0.00179079 0.01766891 0.06738937 0.01656144 0.00513464 
0.01348314 0.04779755 0.00510352 0.00244906 0.01235769 0.00161746 0.01037720 0.00710057 0.02979067 0.01194342 0.02564600 0.00176558 0.01786210 0.06673984 0.01634001 0.00504076 
0.01362292 0.04696394 0.00511461 0.00242235 0.01246193 0.00161097 0.01064253 0.00695889 0.03047207 0.01203624 0.02583075 0.00174303 0.01805146 0.06611336 0.01613688 0.00494511 
0.01377301 0.04608585 0.00512054 0.00239538 0.01255039 0.00160509 0.01090034 0.00682331 0.03122533 0.01212954 0.02605008 0.00172321 0.01823602 0.06550902 0.01595232 0.00484813 
0.01393231 0.04516583 0.00512144 0.00236820 0.01262302 0.00159982 0.01114971 0.00669437 0.03205076 0.01222309 0.02630330 0.00170617 0.01841484 0.06492591 0.01578657 0.00475032 
0.01409971 0.04420661 0.00511743 0.00234089 0.01267988 0.00159515 0.01138974 0.00657260 0.03294831 0.01231665 0.02658954 0.00169195 0.01858694 0.06436317 0.01563978 0.00465216 
0.01427401 0.04321109 0.00510869 0.00231352 0.01272108 0.00159111 0.01161958 0.00645849 0.03391761 0.01240995 0.02690773 0.00168057 0.01875140 0.06381996 0.01551207 0.00455412 
0.01445399 0.04218235 0.00509541 0.00228616 0.01274681 0.00158769 0.01183841 0.00635251 0.03495792 0.01250271 0.02725662 0.00167206 0.01890730 0.06329551 0.01540351 0.00445671 
0.01463841 0.04112365 0.00507779 0.00225889 0.01275735 0.00158489 0.01204543 0.00625510 0.03606812 0.01259464 0.02763476 0.00166641 0.01905374 0.06278910 0.01531411 0.00436042 
0.01482599 0.04003837 0.00505610 0.00223181 0.01275303 0.00158273 0.01223993 0.00616664 0.03724671 0.01268544 0.02804056 0.00166361 0.01918987 0.06230008 0.01524382 0.00426574 
0.01501545 0.03893003 0.00503058 0.00220500 0.01273425 0.00158120 0.01242119 0.00608752 0.03849176 0.01277479 0.02847225 0.00166366 0.01931486 0.06182788 0.01519255 0.00417316 
0.01520550 0.03780230 0.00500153 0.00217858 0.01270147 0.00158032 0.01258859 0.00601805 0.03980093 0.01286237 0.02892795 0.00166653 0.01942793 0.06137198 0.01516015 0.00408316 
0.01539485 0.03665892 0.00496925 0.00215263 0.01265524 0.00158008 0.01274153 0.00595853 0.04117146 0.01294786 0.02940561 0.00167217 0.01952835 0.06093200 0.01514642 0.00399621 
0.01558223 0.03550374 0.00493407 0.00212728 0.01259612 0.00158049 0.01287947 0.00590918 0.04260018 0.01303092 0.02990309 0.00168053 0.01961544 0.06050759 0.01515111 0.00391279 
0.01576641 0.03434071 0.00489632 0.00210263 0.01252474 0.00158156 0.01300193 0.00587022 0.04408348 0.01311123 0.03041817 0.00169156 0.01968857 0.06009853 0.01517393 0.00383334 
0.01594615 0.03317383 0.00485636 0.00207881 0.01244179 0.00158330 0.01310848 0.00584179 0.04561733 0.01318846 0.03094849 0.00170518 0.01974716 0.05970468 0.01521452 0.00375830 
0.01612030 0.03200713 0.00481454 0.00205592 0.01234798 0.00158572 0.01319875 0.00582402 0.04719730 0.01326228 0.03149168 0.00172133 0.01979074 0.05932599 0.01527250 0.00368809 
0.01628771 0.03084471 0.00477125 0.00203410 0.01224406 0.00158882 0.01327245 0.00581696 0.04881853 0.01333237 0.03204529 0.00173992 0.01981885 0.05896250 0.01534741 0.00362311 
0.01644733 0.02969068 0.00472685 0.00201347 0.01213083 0.00159262 0.01332932 0.00582062 0.05047581 0.01339843 0.03260682 0.00176085 0.01983114 0.05861437 0.01543877 0.00356375 
0.01659815 0.02854916 0.00468174 0.00199416 0.01200909 0.00159712 0.01336918 0.00583499 0.05216354 0.01346014 0.03317379 0.00178402 0.01982733 0.05828182 0.01554605 0.00351036 
0.01673923 0.02742425 0.00463628 0.00197630 0.01187967 0.00160234 0.01339191 0.00585999 0.05387578 0.01351723 0.03374367 0.00180932 0.01980721 0.05796519 0.01566867 0.00346328 
0.01686972 0.02632003 0.00459088 0.00196000 0.01174342 0.00160830 0.01339746 0.00589548 0.05560626 0.01356942 0.03431399 0.00183664 0.01977065 0.05766487 0.01580603 0.00342281 
0.01698886 0.02524055 0.00454589 0.00194541 0.01160120 0.00161500 0.01338584 0.00594131 0.05734843 0.01361646 0.03488227 0.00186587 0.01971759 0.05738137 0.01595746 0.00338925 
0.01709595 0.02418980 0.00450171 0.00193265 0.01145388 0.00162246 0.01335711 0.00599725 0.05909547 0.01365809 0.03544610 0.00189686 0.01964806 0.05711526 0.01612229 0.00336284 
0.01719042 0.02317170 0.00445868 0.00192183 0.01130231 0.00163070 0.01331142 0.00606304 0.06084033 0.01369411 0.03600311 0.00192950 0.01956220 0.05686720 0.01629978 0.00334380 
0.01727179 0.02219010 0.00441718 0.00191308 0.01114735 0.00163973 0.01324896 0.00613839 0.06257578 0.01372432 0.03655101 0.00196366 0.01946018 0.05663791 0.01648918 0.00333235 
0.01733967 0.02124875 0.00437752 0.00190652 0.01098985 0.00164956 0.01317000 0.00622294 0.06429441 0.01374854 0.03708760 0.00199918 0.01934228 0.05642818 0.01668971 0.00332862 
0.01739378 0.02035127 0.00434004 0.00190224 0.01083066 0.00166020 0.01307487 0.00631631 0.06598873 0.01376662 0.03761078 0.00203593 0.01920887 0.05623886 0.01690056 0.00333276 
0.01743396 0.01950118 0.00430505 0.00190037 0.01067057 0.00167168 0.01296395 0.00641808 0.06765117 0.01377844 0.03811856 0.00207378 0.01906038 0.05607085 0.01712089 0.00334486 
0.01746016 0.01870185 0.00427282 0.00190099 0.01051040 0.00168400 0.01283769 0.00652778 0.06927414 0.01378388 0.03860906 0.00211257 0.01889733 0.05592509 0.01734986 0.00336499 
0.01747243 0.01795651 0.00424363 0.00190419 0.01035090 0.00169718 0.01269659 0.00664491 0.07085005 0.01378289 0.03908054 0.00215215 0.01872030 0.05580259 0.01758658 0.00339317 
0.01747092 0.01726822 0.00421770 0.00191005 0.01019281 0.00171123 0.01254123 0.00676896 0.07237140 0.01377541 0.03953140 0.00219240 0.01852996 0.05570436 0.01783018 0.00342940 
0.01745591 0.01663986 0.00419527 0.00191864 0.01003683 0.00172616 0.01237221 0.00689936 0.07383079 0.01376142 0.03996018 0.00223314 0.01832704 0.05563146 0.01807976 0.00347364 
