0.05700111 0.02898360 0.00964406 0.00212401 0.00151672 0.00228944 0.01399280 0.00261166 0.02099699 0.00316331 0.00835788 0.00080975 0.00365893 0.00075046 0.00140888 0.00130719 
0.05726039 0.02952411 0.00976085 0.00215177 0.00151731 0.00232258 0.01422438 0.00262762 0.02147883 0.00316877 0.00837354 0.00081034 0.00373575 0.00072937 0.00141832 0.00130316 
0.05756318 0.03004244 0.00987305 0.00217927 0.00151685 0.00235404 0.01444744 0.00264371 0.02193924 0.00317033 0.00837898 0.00081320 0.00381048 0.00070981 0.00143199 0.00129932 
0.05791009 0.03053648 0.00998013 0.00220639 0.00151537 0.00238381 0.01466120 0.00266020 0.02237682 0.00316819 0.00837422 0.00081839 0.00388284 0.00069194 0.00144996 0.00129570 
0.05830129 0.03100418 0.01008159 0.00223301 0.00151293 0.00241185 0.01486488 0.00267740 0.02279032 0.00316257 0.00835930 0.00082598 0.00395255 0.00067596 0.00147232 0.00129232 
0.05873661 0.03144357 0.01017692 0.00225899 0.00150958 0.00243814 0.01505773 0.00269558 0.02317866 0.00315368 0.00833432 0.00083600 0.00401934 0.00066204 0.00149910 0.00128917 
0.05921548 0.03185282 0.01026565 0.00228420 0.00150537 0.00246264 0.01523900 0.00271507 0.02354093 0.00314176 0.00829938 0.00084849 0.00408293 0.00065035 0.00153033 0.00128628 
0.05973690 0.03223017 0.01034728 0.00230851 0.00150035 0.00248535 0.01540797 0.00273618 0.02387641 0.00312706 0.00825463 0.00086346 0.00414310 0.00064109 0.00156604 0.00128365 
0.06029948 0.03257401 0.01042139 0.00233180 0.00149457 0.00250625 0.01556394 0.00275923 0.02418456 0.00310981 0.00820024 0.00088091 0.00419959 0.00063442 0.00160622 0.00128130 
0.06090145 0.03288284 0.01048754 0.00235392 0.00148808 0.00252532 0.01570626 0.00278453 0.02446501 0.00309026 0.00813643 0.00090082 0.00425220 0.00063052 0.00165086 0.00127922 
0.06154059 0.03315531 0.01054532 0.00237476 0.00148093 0.00254257 0.01583430 0.00281242 0.02471760 0.00306868 0.00806343 0.00092316 0.00430072 0.00062954 0.00169990 0.00127742 
0.06221434 0.03339018 0.01059438 0.00239420 0.00147317 0.00255798 0.01594747 0.00284319 0.02494237 0.00304531 0.00798149 0.00094789 0.00434498 0.00063166 0.00175330 0.00127589 
0.06291972 0.03358640 0.01063437 0.00241210 0.00146486 0.00257156 0.01604525 0.00287718 0.02513950 0.00302041 0.00789091 0.00097494 0.00438481 0.00063701 0.00181097 0.00127465 
0.06365340 0.03374305 0.01066500 0.00242836 0.00145603 0.00258331 0.01612716 0.00291468 0.02530941 0.00299422 0.00779201 0.00100424 0.00442007 0.00064573 0.00187282 0.00127368 
0.06441169 0.03385936 0.01068599 0.00244287 0.00144674 0.00259325 0.01619277 0.00295599 0.02545267 0.00296699 0.00768511 0.00103567 0.00445067 0.00065795 0.00193873 0.00127298 
0.06519057 0.03393474 0.01069713 0.00245551 0.00143704 0.00260139 0.01624173 0.00300139 0.02557003 0.00293896 0.00757058 0.00106914 0.00447649 0.00067377 0.00200857 0.00127255 
0.06598570 0.03396876 0.01069824 0.00246620 0.00142695 0.00260776 0.01627375 0.00305115 0.02566240 0.00291037 0.00744880 0.00110449 0.00449749 0.00069329 0.00208217 0.00127236 
0.06679246 0.03396115 0.01068920 0.00247484 0.00141654 0.00261237 0.01628859 0.00310550 0.02573088 0.00288142 0.00732018 0.00114159 0.00451362 0.00071659 0.00215937 0.00127242 
0.06760598 0.03391184 0.01066991 0.00248135 0.00140583 0.00261527 0.01628611 0.00316469 0.02577669 0.00285233 0.00718513 0.00118028 0.00452488 0.00074372 0.00223997 0.00127270 
0.06842114 0.03382091 0.01064036 0.00248566 0.00139487 0.00261649 0.01626625 0.00322891 0.02580122 0.00282332 0.00704409 0.00122036 0.00453128 0.00077471 0.00232376 0.00127320 
0.06923265 0.03368862 0.01060056 0.00248769 0.00138370 0.00261607 0.01622900 0.00329834 0.02580596 0.00279455 0.00689751 0.00126164 0.00453287 0.00080960 0.00241051 0.00127389 
0.07003502 0.03351540 0.01055059 0.00248740 0.00137234 0.00261406 0.01617446 0.00337315 0.02579255 0.00276622 0.00674586 0.00130392 0.00452973 0.00084837 0.00249998 0.00127476 
0.07082265 0.03330188 0.01049059 0.00248474 0.00136084 0.00261053 0.01610279 0.00345344 0.02576271 0.00273849 0.00658961 0.00134697 0.00452195 0.00089100 0.00259190 0.00127578 
0.07158987 0.03304882 0.01042073 0.00247966 0.00134921 0.00260552 0.01601426 0.00353932 0.02571825 0.00271150 0.00642926 0.00139055 0.00450966 0.00093744 0.00268600 0.00127694 
0.07233091 0.03275719 0.01034126 0.00247216 0.00133750 0.00259911 0.01590920 0.00363084 0.02566109 0.00268539 0.00626530 0.00143441 0.00449303 0.00098762 0.00278199 0.00127822 
0.07304002 0.03242810 0.01025249 0.00246220 0.00132573 0.00259136 0.01578804 0.00372804 0.02559317 0.00266028 0.00609822 0.00147832 0.00447223 0.00104143 0.00287956 0.00127959 
0.07371145 0.03206284 0.01015476 0.00244980 0.00131392 0.00258236 0.01565129 0.00383089 0.02551649 0.00263628 0.00592855 0.00152198 0.00444748 0.00109875 0.00297840 0.00128103 
0.07433953 0.03166285 0.01004849 0.00243495 0.00130210 0.00257219 0.01549953 0.00393937 0.02543309 0.00261348 0.00575680 0.00156515 0.00441901 0.00115945 0.00307817 0.00128252 
0.07491868 0.03122973 0.00993414 0.00241768 0.00129028 0.00256094 0.01533345 0.00405338 0.02534501 0.00259195 0.00558346 0.00160754 0.00438707 0.00122334 0.00317856 0.00128403 
0.07544346 0.03076522 0.00981224 0.00239801 0.00127849 0.00254869 0.01515380 0.00417281 0.02525428 0.00257176 0.00540907 0.00164887 0.00435194 0.00129024 0.00327921 0.00128554 
0.07590861 0.03027119 0.00968335 0.00237599 0.00126675 0.00253555 0.01496140 0.00429750 0.02516294 0.00255294 0.00523414 0.00168887 0.00431393 0.00135991 0.00337978 0.00128702 
0.07630909 0.02974967 0.00954808 0.00235168 0.00125507 0.00252161 0.01475714 0.00442725 0.02507296 0.00253555 0.00505917 0.00172726 0.00427335 0.00143214 0.00347991 0.00128845 
0.07664011 0.02920279 0.00940711 0.00232512 0.00124346 0.00250699 0.01454200 0.00456182 0.02498627 0.00251958 0.00488467 0.00176376 0.00423054 0.00150664 0.00357926 0.00128982 
0.07689716 0.02863279 0.00926114 0.00229640 0.00123194 0.00249178 0.01431701 0.00470095 0.02490473 0.00250505 0.00471113 0.00179810 0.00418584 0.00158313 0.00367745 0.00129109 
0.07707606 0.02804204 0.00911092 0.00226560 0.00122052 0.00247610 0.01408325 0.00484432 0.02483014 0.00249196 0.00453906 0.00183001 0.00413961 0.00166131 0.00377414 0.00129224 
0.07717297 0.02743298 0.00895723 0.00223281 0.00120922 0.00246006 0.01384186 0.00499158 0.02476417 0.00248027 0.00436893 0.00185925 0.00409223 0.00174087 0.00386898 0.00129327 
0.07718444 0.02680814 0.00880089 0.00219815 0.00119803 0.00244378 0.01359403 0.00514236 0.02470840 0.00246996 0.00420121 0.00188557 0.00404407 0.00182144 0.00396161 0.00129414 
0.07710741 0.02617012 0.00864275 0.00216171 0.00118696 0.00242736 0.01334098 0.00529624 0.02466429 0.00246099 0.00403637 0.00190874 0.00399552 0.00190269 0.00405169 0.00129485 
0.07693927 0.02552160 0.00848366 0.00212363 0.00117604 0.00241092 0.01308396 0.00545276 0.02463314 0.00245331 0.00387484 0.00192854 0.00394695 0.00198423 0.00413889 0.00129537 
0.07667783 0.02486528 0.00832453 0.00208402 0.00116525 0.00239458 0.01282427 0.00561145 0.02461614 0.00244686 0.00371707 0.00194478 0.00389876 0.00206569 0.00422288 0.00129569 
0.07632141 0.02420391 0.00816624 0.00204303 0.00115461 0.00237845 0.01256320 0.00577181 0.02461430 0.00244157 0.00356347 0.00195727 0.00385132 0.00214668 0.00430334 0.00129581 
0.07586877 0.02354026 0.00800971 0.00200081 0.00114412 0.00236263 0.01230207 0.00593329 0.02462848 0.00243736 0.00341443 0.00196587 0.00380500 0.00222680 0.00437998 0.00129571 
0.07531920 0.02287711 0.00785585 0.00195749 0.00113378 0.00234724 0.01204217 0.00609533 0.02465938 0.00243416 0.00327034 0.00197043 0.00376017 0.00230564 0.00445250 0.00129539 
0.07467247 0.02221724 0.00770558 0.00191324 0.00112360 0.00233239 0.01178483 0.00625737 0.02470750 0.00243188 0.00313156 0.00197086 0.00371718 0.00238279 0.00452063 0.00129484 
0.07392887 0.02156341 0.00755978 0.00186821 0.00111358 0.00231816 0.01153133 0.00641880 0.02477319 0.00243042 0.00299842 0.00196705 0.00367637 0.00245784 0.00458413 0.00129407 
0.07308920 0.02091836 0.00741937 0.00182257 0.00110373 0.00230467 0.01128296 0.00657900 0.02485660 0.00242970 0.00287125 0.00195896 0.00363805 0.00253040 0.00464275 0.00129307 
0.07215478 0.02028478 0.00728519 0.00177648 0.00109404 0.00229199 0.01104094 0.00673736 0.02495770 0.00242962 0.00275034 0.00194657 0.00360254 0.00260005 0.00469627 0.00129184 
0.07112741 0.01966531 0.00715810 0.00173011 0.00108452 0.00228023 0.01080649 0.00689324 0.02507629 0.00243009 0.00263596 0.00192987 0.00357010 0.00266640 0.00474451 0.00129041 
0.07000940 0.01906252 0.00703892 0.00168363 0.00107517 0.00226944 0.01058077 0.00704600 0.02521197 0.00243100 0.00252837 0.00190890 0.00354099 0.00272907 0.00478729 0.00128876 
0.06880356 0.01847891 0.00692843 0.00163722 0.00106599 0.00225972 0.01036488 0.00719499 0.02536420 0.00243226 0.00242779 0.00188373 0.00351544 0.00278767 0.00482445 0.00128692 
0.06751314 0.01791687 0.00682735 0.00159104 0.00105699 0.00225111 0.01015989 0.00733959 0.02553222 0.00243377 0.00233442 0.00185445 0.00349364 0.00284184 0.00485588 0.00128490 
0.06614188 0.01737871 0.00673640 0.00154526 0.00104816 0.00224368 0.00996677 0.00747916 0.02571513 0.00243545 0.00224843 0.00182119 0.00347577 0.00289125 0.00488146 0.00128272 
0.06469394 0.01686662 0.00665620 0.00150006 0.00103952 0.00223747 0.00978644 0.00761307 0.02591188 0.00243719 0.00216997 0.00178412 0.00346195 0.00293556 0.00490113 0.00128040 
0.06317386 0.01638266 0.00658735 0.00145559 0.00103106 0.00223253 0.00961974 0.00774071 0.02612126 0.00243891 0.00209915 0.00174344 0.00345230 0.00297447 0.00491482 0.00127796 
0.06158662 0.01592876 0.00653037 0.00141202 0.00102278 0.00222887 0.00946742 0.00786148 0.02634191 0.00244054 0.00203608 0.00169937 0.00344687 0.00300770 0.00492252 0.00127542 
0.05993751 0.01550672 0.00648572 0.00136951 0.00101469 0.00222653 0.00933015 0.00797481 0.02657235 0.00244198 0.00198082 0.00165217 0.00344570 0.00303500 0.00492421 0.00127282 
0.05823218 0.01511817 0.00645381 0.00132822 0.00100679 0.00222550 0.00920851 0.00808014 0.02681099 0.00244317 0.00193340 0.00160214 0.00344879 0.00305612 0.00491993 0.00127019 
0.05647655 0.01476460 0.00643496 0.00128828 0.00099909 0.00222580 0.00910298 0.00817695 0.02705612 0.00244403 0.00189384 0.00154959 0.00345609 0.00307088 0.00490971 0.00126754 
0.05467682 0.01444732 0.00642942 0.00124985 0.00099158 0.00222740 0.00901395 0.00826474 0.02730596 0.00244451 0.00186213 0.00149486 0.00346753 0.00307910 0.00489364 0.00126493 
0.05283940 0.01416747 0.00643736 0.00121306 0.00098428 0.00223028 0.00894169 0.00834305 0.02755862 0.00244455 0.00183821 0.00143835 0.00348300 0.00308066 0.00487180 0.00126238 
0.05097090 0.01392604 0.00645889 0.00117803 0.00097719 0.00223443 0.00888641 0.00841144 0.02781218 0.00244409 0.00182202 0.00138044 0.00350234 0.00307543 0.00484432 0.00125992 
0.04907807 0.01372380 0.00649401 0.00114490 0.00097032 0.00223978 0.00884817 0.00846952 0.02806467 0.00244309 0.00181347 0.00132156 0.00352538 0.00306337 0.00481133 0.00125761 
0.04716778 0.01356136 0.00654268 0.00111377 0.00096366 0.00224630 0.00882697 0.00851695 0.02831407 0.00244152 0.00181242 0.00126216 0.00355188 0.00304443 0.00477301 0.00125547 
0.04524697 0.01343915 0.00660475 0.00108475 0.00095722 0.00225393 0.00882268 0.00855342 0.02855837 0.00243934 0.00181874 0.00120269 0.00358161 0.00301862 0.00472952 0.00125354 
0.04332261 0.01335740 0.00667998 0.00105792 0.00095102 0.00226258 0.00883509 0.00857867 0.02879555 0.00243653 0.00183224 0.00114363 0.00361428 0.00298599 0.00468109 0.00125187 
0.04140167 0.01331615 0.00676808 0.00103339 0.00094506 0.00227219 0.00886386 0.00859248 0.02902360 0.00243307 0.00185273 0.00108548 0.00364958 0.00294660 0.00462792 0.00125049 
0.03949108 0.01331527 0.00686867 0.00101121 0.00093934 0.00228267 0.00890860 0.00859469 0.02924056 0.00242896 0.00187998 0.00102873 0.00368717 0.00290058 0.00457026 0.00124944 
0.03759768 0.01335443 0.00698127 0.00099146 0.00093387 0.00229391 0.00896879 0.00858518 0.02944451 0.00242417 0.00191375 0.00097390 0.00372669 0.00284807 0.00450835 0.00124876 
0.03572818 0.01343313 0.00710535 0.00097420 0.00092867 0.00230583 0.00904383 0.00856390 0.02963360 0.00241872 0.00195377 0.00092149 0.00376774 0.00278928 0.00444247 0.00124849 
0.03388914 0.01355067 0.00724030 0.00095946 0.00092373 0.00231830 0.00913305 0.00853082 0.02980605 0.00241261 0.00199975 0.00087201 0.00380994 0.00272443 0.00437288 0.00124867 
0.03208695 0.01370620 0.00738544 0.00094728 0.00091907 0.00233121 0.00923569 0.00848598 0.02996017 0.00240585 0.00205139 0.00082598 0.00385285 0.00265377 0.00429989 0.00124932 
0.03032773 0.01389870 0.00754000 0.00093768 0.00091469 0.00234444 0.00935090 0.00842948 0.03009439 0.00239845 0.00210834 0.00078389 0.00389604 0.00257762 0.00422379 0.00125049 
0.02861736 0.01412696 0.00770317 0.00093068 0.00091061 0.00235787 0.00947779 0.00836146 0.03020725 0.00239044 0.00217028 0.00074624 0.00393907 0.00249629 0.00414487 0.00125220 
0.02696145 0.01438966 0.00787408 0.00092628 0.00090683 0.00237135 0.00961538 0.00828212 0.03029742 0.00238184 0.00223683 0.00071351 0.00398149 0.00241015 0.00406346 0.00125448 
0.02536526 0.01468529 0.00805180 0.00092446 0.00090337 0.00238477 0.00976266 0.00819169 0.03036370 0.00237268 0.00230761 0.00068615 0.00402284 0.00231960 0.00397987 0.00125736 
0.02383372 0.01501224 0.00823534 0.00092521 0.00090023 0.00239798 0.00991855 0.00809047 0.03040505 0.00236298 0.00238224 0.00066460 0.00406267 0.00222505 0.00389441 0.00126086 
0.02237138 0.01536874 0.00842367 0.00092850 0.00089742 0.00241084 0.01008193 0.00797881 0.03042058 0.00235278 0.00246031 0.00064928 0.00410053 0.00212696 0.00380740 0.00126500 
0.02098242 0.01575292 0.00861573 0.00093428 0.00089495 0.00242323 0.01025166 0.00785708 0.03040955 0.00234212 0.00254140 0.00064058 0.00413598 0.00202580 0.00371916 0.00126981 
0.01967059 0.01616281 0.00881042 0.00094252 0.00089284 0.00243499 0.01042655 0.00772573 0.03037140 0.00233103 0.00262509 0.00063886 0.00416859 0.00192206 0.00363000 0.00127528 
0.01843923 0.01659634 0.00900661 0.00095314 0.00089109 0.00244599 0.01060540 0.00758522 0.03030574 0.00231955 0.00271096 0.00064443 0.00419794 0.00181627 0.00354023 0.00128143 
0.01729121 0.01705134 0.00920313 0.00096609 0.00088971 0.00245610 0.01078701 0.00743607 0.03021234 0.00230771 0.00279855 0.00065759 0.00422364 0.00170894 0.00345015 0.00128826 
0.01622899 0.01752561 0.00939884 0.00098128 0.00088872 0.00246519 0.01097014 0.00727882 0.03009116 0.00229556 0.00288743 0.00067858 0.00424532 0.00160063 0.00336006 0.00129578 
0.01525454 0.01801685 0.00959254 0.00099863 0.00088812 0.00247312 0.01115359 0.00711406 0.02994231 0.00228314 0.00297716 0.00070762 0.00426262 0.00149189 0.00327026 0.00130398 
0.01436936 0.01852275 0.00978306 0.00101805 0.00088792 0.00247978 0.01133614 0.00694239 0.02976610 0.00227047 0.00306727 0.00074485 0.00427523 0.00138330 0.00318101 0.00131286 
0.01357452 0.01904097 0.00996923 0.00103943 0.00088814 0.00248504 0.01151661 0.00676447 0.02956298 0.00225760 0.00315734 0.00079040 0.00428286 0.00127542 0.00309259 0.00132239 
0.01287058 0.01956912 0.01014986 0.00106268 0.00088877 0.00248880 0.01169382 0.00658094 0.02933358 0.00224457 0.00324691 0.00084433 0.00428525 0.00116882 0.00300525 0.00133256 
0.01225766 0.02010486 0.01032382 0.00108767 0.00088984 0.00249094 0.01186662 0.00639251 0.02907868 0.00223140 0.00333555 0.00090667 0.00428219 0.00106409 0.00291924 0.00134335 
0.01173542 0.02064583 0.01048997 0.00111429 0.00089136 0.00249137 0.01203392 0.00619985 0.02879920 0.00221812 0.00342282 0.00097738 0.00427349 0.00096179 0.00283479 0.00135474 
0.01130305 0.02118970 0.01064720 0.00114242 0.00089331 0.00249000 0.01219466 0.00600369 0.02849624 0.00220477 0.00350829 0.00105638 0.00425902 0.00086247 0.00275211 0.00136668 
0.01095931 0.02173420 0.01079447 0.00117192 0.00089573 0.00248675 0.01234780 0.00580475 0.02817098 0.00219138 0.00359155 0.00114354 0.00423869 0.00076671 0.00267141 0.00137915 
0.01070254 0.02227709 0.01093073 0.00120268 0.00089861 0.00248155 0.01249239 0.00560375 0.02782478 0.00217795 0.00367219 0.00123867 0.00421243 0.00067502 0.00259288 0.00139210 
0.01053067 0.02281621 0.01105501 0.00123454 0.00090196 0.00247433 0.01262752 0.00540142 0.02745906 0.00216453 0.00374981 0.00134155 0.00418026 0.00058795 0.00251667 0.00140549 
0.01044121 0.02334948 0.01116638 0.00126738 0.00090578 0.00246505 0.01275233 0.00519848 0.02707538 0.00215112 0.00382404 0.00145189 0.00414220 0.00050599 0.00244296 0.00141927 
0.01043131 0.02387492 0.01126397 0.00130106 0.00091009 0.00245366 0.01286605 0.00499565 0.02667537 0.00213774 0.00389451 0.00156935 0.00409834 0.00042962 0.00237186 0.00143339 
0.01049778 0.02439064 0.01134695 0.00133544 0.00091487 0.00244013 0.01296794 0.00479364 0.02626074 0.00212440 0.00396088 0.00169356 0.00404882 0.00035930 0.00230352 0.00144779 
0.01063708 0.02489487 0.01141459 0.00137038 0.00092015 0.00242444 0.01305738 0.00459315 0.02583328 0.00211112 0.00402280 0.00182410 0.00399381 0.00029546 0.00223802 0.00146240 
0.01084537 0.02538598 0.01146621 0.00140574 0.00092590 0.00240659 0.01313378 0.00439485 0.02539479 0.00209789 0.00407998 0.00196049 0.00393353 0.00023850 0.00217547 0.00147717 
0.01111852 0.02586247 0.01150119 0.00144138 0.00093215 0.00238657 0.01319664 0.00419939 0.02494716 0.00208473 0.00413212 0.00210224 0.00386826 0.00018879 0.00211592 0.00149203 
0.01145218 0.02632296 0.01151901 0.00147716 0.00093888 0.00236441 0.01324553 0.00400741 0.02449225 0.00207163 0.00417896 0.00224880 0.00379831 0.00014667 0.00205944 0.00150691 
0.01184173 0.02676626 0.01151922 0.00151295 0.00094609 0.00234012 0.01328011 0.00381952 0.02403198 0.00205860 0.00422025 0.00239959 0.00372403 0.00011242 0.00200607 0.00152173 
0.01228240 0.02719132 0.01150145 0.00154862 0.00095379 0.00231375 0.01330010 0.00363630 0.02356821 0.00204563 0.00425577 0.00255402 0.00364581 0.00008631 0.00195582 0.00153644 
0.01276923 0.02759726 0.01146541 0.00158404 0.00096195 0.00228535 0.01330530 0.00345829 0.02310284 0.00203272 0.00428534 0.00271146 0.00356408 0.00006856 0.00190872 0.00155094 
0.01329712 0.02798336 0.01141089 0.00161908 0.00097057 0.00225496 0.01329559 0.00328600 0.02263771 0.00201987 0.00430878 0.00287125 0.00347930 0.00005934 0.00186474 0.00156518 
0.01386090 0.02834909 0.01133779 0.00165362 0.00097964 0.00222266 0.01327092 0.00311991 0.02217460 0.00200706 0.00432595 0.00303273 0.00339196 0.00005879 0.00182389 0.00157906 
0.01445529 0.02869408 0.01124607 0.00168755 0.00098916 0.00218854 0.01323132 0.00296045 0.02171528 0.00199429 0.00433674 0.00319524 0.00330259 0.00006700 0.00178612 0.00159252 
0.01507500 0.02901815 0.01113579 0.00172075 0.00099910 0.00215267 0.01317687 0.00280803 0.02126142 0.00198155 0.00434107 0.00335808 0.00321174 0.00008402 0.00175139 0.00160548 
0.01571472 0.02932130 0.01100709 0.00175311 0.00100945 0.00211515 0.01310775 0.00266300 0.02081463 0.00196883 0.00433888 0.00352058 0.00311998 0.00010986 0.00171964 0.00161787 
0.01636915 0.02960370 0.01086021 0.00178455 0.00102018 0.00207610 0.01302417 0.00252568 0.02037643 0.00195613 0.00433013 0.00368206 0.00302788 0.00014446 0.00169081 0.00162961 
0.01703306 0.02986568 0.01069546 0.00181496 0.00103129 0.00203562 0.01292644 0.00239634 0.01994824 0.00194343 0.00431484 0.00384187 0.00293605 0.00018774 0.00166482 0.00164064 
0.01770130 0.03010777 0.01051324 0.00184426 0.00104274 0.00199384 0.01281489 0.00227520 0.01953140 0.00193074 0.00429302 0.00399936 0.00284510 0.00023958 0.00164158 0.00165088 
0.01836881 0.03033065 0.01031405 0.00187236 0.00105452 0.00195088 0.01268995 0.00216246 0.01912713 0.00191803 0.00426475 0.00415391 0.00275564 0.00029981 0.00162100 0.00166027 
0.01903069 0.03053516 0.01009844 0.00189920 0.00106658 0.00190687 0.01255206 0.00205826 0.01873652 0.00190531 0.00423011 0.00430492 0.00266828 0.00036819 0.00160298 0.00166874 
0.01968220 0.03072229 0.00986706 0.00192470 0.00107891 0.00186196 0.01240175 0.00196269 0.01836056 0.00189258 0.00418921 0.00445184 0.00258364 0.00044448 0.00158741 0.00167624 
0.02031876 0.03089318 0.00962062 0.00194881 0.00109147 0.00181629 0.01223956 0.00187581 0.01800011 0.00187982 0.00414219 0.00459416 0.00250232 0.00052838 0.00157418 0.00168271 
0.02093606 0.03104911 0.00935994 0.00197147 0.00110422 0.00177001 0.01206609 0.00179764 0.01765591 0.00186705 0.00408923 0.00473140 0.00242490 0.00061955 0.00156316 0.00168810 
0.02152996 0.03119147 0.00908586 0.00199264 0.00111713 0.00172326 0.01188199 0.00172814 0.01732857 0.00185427 0.00403053 0.00486314 0.00235197 0.00071762 0.00155423 0.00169237 
0.02209664 0.03132177 0.00879931 0.00201228 0.00113016 0.00167620 0.01168792 0.00166727 0.01701858 0.00184147 0.00396631 0.00498904 0.00228407 0.00082218 0.00154727 0.00169547 
0.02263250 0.03144164 0.00850130 0.00203036 0.00114327 0.00162898 0.01148458 0.00161490 0.01672629 0.00182868 0.00389681 0.00510878 0.00222174 0.00093278 0.00154215 0.00169736 
0.02313427 0.03155276 0.00819288 0.00204686 0.00115641 0.00158176 0.01127270 0.00157090 0.01645193 0.00181589 0.00382230 0.00522215 0.00216548 0.00104896 0.00153874 0.00169803 
0.02359897 0.03165691 0.00787515 0.00206175 0.00116955 0.00153468 0.01105303 0.00153510 0.01619560 0.00180312 0.00374309 0.00532897 0.00211575 0.00117022 0.00153690 0.00169744 
0.02402395 0.03175593 0.00754926 0.00207502 0.00118262 0.00148791 0.01082634 0.00150728 0.01595731 0.00179039 0.00365949 0.00542916 0.00207300 0.00129603 0.00153651 0.00169558 
0.02440690 0.03185169 0.00721644 0.00208668 0.00119560 0.00144158 0.01059341 0.00148721 0.01573692 0.00177772 0.00357182 0.00552273 0.00203761 0.00142586 0.00153745 0.00169243 
0.02474583 0.03194610 0.00687791 0.00209671 0.00120842 0.00139586 0.01035505 0.00147463 0.01553420 0.00176512 0.00348045 0.00560974 0.00200994 0.00155913 0.00153957 0.00168800 
0.02503914 0.03204107 0.00653497 0.00210514 0.00122105 0.00135088 0.01011205 0.00146922 0.01534880 0.00175262 0.00338575 0.00569036 0.00199030 0.00169527 0.00154277 0.00168228 
0.02528553 0.03213852 0.00618892 0.00211196 0.00123342 0.00130679 0.00986524 0.00147069 0.01518029 0.00174024 0.00328809 0.00576484 0.00197896 0.00183369 0.00154691 0.00167527 
0.02548412 0.03224035 0.00584111 0.00211720 0.00124549 0.00126371 0.00961542 0.00147870 0.01502813 0.00172802 0.00318789 0.00583351 0.00197613 0.00197379 0.00155188 0.00166701 
0.02563435 0.03234841 0.00549291 0.00212089 0.00125720 0.00122180 0.00936341 0.00149288 0.01489172 0.00171599 0.00308555 0.00589680 0.00198196 0.00211498 0.00155757 0.00165750 
0.02573604 0.03246450 0.00514569 0.00212304 0.00126851 0.00118116 0.00911003 0.00151286 0.01477036 0.00170417 0.00298149 0.00595522 0.00199659 0.00225664 0.00156386 0.00164677 
0.02578935 0.03259037 0.00480084 0.00212368 0.00127936 0.00114192 0.00885607 0.00153826 0.01466330 0.00169261 0.00287613 0.00600938 0.00202006 0.00239818 0.00157067 0.00163487 
0.02579482 0.03272765 0.00445976 0.00212286 0.00128971 0.00110420 0.00860234 0.00156868 0.01456974 0.00168133 0.00276992 0.00605996 0.00205238 0.00253900 0.00157789 0.00162182 
0.02575332 0.03287791 0.00412386 0.00212061 0.00129950 0.00106809 0.00834963 0.00160372 0.01448881 0.00167038 0.00266330 0.00610776 0.00209351 0.00267851 0.00158544 0.00160768 
0.02566604 0.03304258 0.00379452 0.00211697 0.00130869 0.00103371 0.00809872 0.00164297 0.01441960 0.00165978 0.00255669 0.00615364 0.00214335 0.00281616 0.00159322 0.00159250 
0.02553452 0.03322296 0.00347314 0.00211198 0.00131723 0.00100113 0.00785037 0.00168600 0.01436119 0.00164959 0.00245055 0.00619853 0.00220173 0.00295137 0.00160118 0.00157633 
0.02536062 0.03342021 0.00316108 0.00210569 0.00132507 0.00097044 0.00760533 0.00173242 0.01431264 0.00163982 0.00234531 0.00624346 0.00226847 0.00308362 0.00160924 0.00155923 
0.02514647 0.03363534 0.00285970 0.00209815 0.00133218 0.00094171 0.00736435 0.00178179 0.01427296 0.00163054 0.00224140 0.00628954 0.00234330 0.00321240 0.00161735 0.00154129 
0.02489450 0.03386921 0.00257033 0.00208939 0.00133851 0.00091502 0.00712812 0.00183373 0.01424120 0.00162176 0.00213926 0.00633792 0.00242591 0.00333722 0.00162546 0.00152256 
0.02460740 0.03412246 0.00229428 0.00207948 0.00134404 0.00089041 0.00689737 0.00188781 0.01421639 0.00161353 0.00203929 0.00638983 0.00251595 0.00345762 0.00163352 0.00150312 
0.02428813 0.03439558 0.00203279 0.00206845 0.00134871 0.00086794 0.00667276 0.00194365 0.01419759 0.00160588 0.00194193 0.00644656 0.00261303 0.00357318 0.00164152 0.00148305 
0.02393984 0.03468885 0.00178711 0.00205636 0.00135252 0.00084764 0.00645495 0.00200085 0.01418387 0.00159884 0.00184755 0.00650944 0.00271670 0.00368352 0.00164941 0.00146243 
0.02356591 0.03500237 0.00155841 0.00204327 0.00135542 0.00082954 0.00624458 0.00205905 0.01417433 0.00159244 0.00175655 0.00657985 0.00282648 0.00378829 0.00165721 0.00144136 
0.02316988 0.03533599 0.00134784 0.00202921 0.00135740 0.00081367 0.00604227 0.00211788 0.01416811 0.00158671 0.00166930 0.00665921 0.00294186 0.00388717 0.00166489 0.00141991 
0.02275548 0.03568941 0.00115648 0.00201424 0.00135844 0.00080004 0.00584860 0.00217699 0.01416439 0.00158167 0.00158615 0.00674895 0.00306227 0.00397989 0.00167247 0.00139817 
0.02232654 0.03606206 0.00098534 0.00199841 0.00135853 0.00078865 0.00566416 0.00223606 0.01416241 0.00157736 0.00150742 0.00685052 0.00318714 0.00406622 0.00167996 0.00137624 
0.02188701 0.03645320 0.00083541 0.00198176 0.00135767 0.00077950 0.00548948 0.00229476 0.01416145 0.00157378 0.00143345 0.00696539 0.00331586 0.00414598 0.00168739 0.00135421 
0.02144092 0.03686185 0.00070758 0.00196435 0.00135584 0.00077258 0.00532509 0.00235279 0.01416086 0.00157095 0.00136451 0.00709502 0.00344781 0.00421904 0.00169480 0.00133216 
0.02099237 0.03728684 0.00060268 0.00194621 0.00135305 0.00076786 0.00517147 0.00240988 0.01416003 0.00156888 0.00130087 0.00724086 0.00358231 0.00428530 0.00170223 0.00131019 
0.02054547 0.03772679 0.00052148 0.00192740 0.00134931 0.00076532 0.00502911 0.00246577 0.01415846 0.00156758 0.00124278 0.00740434 0.00371873 0.00434472 0.00170973 0.00128839 
0.02010434 0.03818009 0.00046466 0.00190795 0.00134464 0.00076492 0.00489843 0.00252021 0.01415567 0.00156705 0.00119046 0.00758685 0.00385637 0.00439730 0.00171736 0.00126684 
0.01967306 0.03864499 0.00043283 0.00188791 0.00133905 0.00076662 0.00477987 0.00257298 0.01415129 0.00156729 0.00114410 0.00778974 0.00399456 0.00444307 0.00172520 0.00124563 
0.01925569 0.03911951 0.00042652 0.00186733 0.00133256 0.00077036 0.00467381 0.00262388 0.01414501 0.00156830 0.00110387 0.00801431 0.00413262 0.00448215 0.00173332 0.00122485 
0.01885618 0.03960151 0.00044616 0.00184623 0.00132521 0.00077610 0.00458061 0.00267273 0.01413658 0.00157006 0.00106990 0.00826180 0.00426987 0.00451467 0.00174181 0.00120457 
0.01847840 0.04008868 0.00049211 0.00182467 0.00131704 0.00078377 0.00450059 0.00271936 0.01412585 0.00157256 0.00104231 0.00853335 0.00440563 0.00454080 0.00175077 0.00118488 
0.01812607 0.04057858 0.00056465 0.00180268 0.00130807 0.00079330 0.00443407 0.00276364 0.01411272 0.00157579 0.00102117 0.00883006 0.00453924 0.00456078 0.00176029 0.00116585 
0.01780277 0.04106860 0.00066394 0.00178031 0.00129837 0.00080462 0.00438131 0.00280544 0.01409717 0.00157971 0.00100654 0.00915289 0.00467005 0.00457487 0.00177049 0.00114755 
0.01751191 0.04155603 0.00079006 0.00175758 0.00128797 0.00081765 0.00434255 0.00284465 0.01407927 0.00158431 0.00099844 0.00950271 0.00479744 0.00458338 0.00178148 0.00113005 
0.01725668 0.04203804 0.00094302 0.00173455 0.00127694 0.00083231 0.00431800 0.00288120 0.01405912 0.00158956 0.00099686 0.00988030 0.00492079 0.00458665 0.00179338 0.00111341 
0.01704008 0.04251173 0.00112269 0.00171125 0.00126534 0.00084851 0.00430782 0.00291500 0.01403692 0.00159541 0.00100177 0.01028628 0.00503953 0.00458506 0.00180632 0.00109769 
0.01686484 0.04297409 0.00132888 0.00168771 0.00125323 0.00086617 0.00431216 0.00294601 0.01401291 0.00160183 0.00101310 0.01072116 0.00515310 0.00457902 0.00182043 0.00108294 
0.01673346 0.04342210 0.00156130 0.00166399 0.00124067 0.00088518 0.00433112 0.00297420 0.01398740 0.00160878 0.00103076 0.01118531 0.00526098 0.00456896 0.00183584 0.00106921 
0.01664815 0.04385269 0.00181954 0.00164012 0.00122775 0.00090546 0.00436476 0.00299953 0.01396074 0.00161622 0.00105463 0.01167894 0.00536269 0.00455534 0.00185269 0.00105653 
0.01661083 0.04426276 0.00210313 0.00161614 0.00121453 0.00092690 0.00441311 0.00302202 0.01393335 0.00162410 0.00108456 0.01220214 0.00545778 0.00453866 0.00187113 0.00104495 
0.01662312 0.04464925 0.00241147 0.00159211 0.00120110 0.00094941 0.00447615 0.00304166 0.01390568 0.00163236 0.00112037 0.01275480 0.00554584 0.00451942 0.00189129 0.00103449 
0.01668635 0.04500910 0.00274389 0.00156806 0.00118754 0.00097289 0.00455384 0.00305848 0.01387822 0.00164097 0.00116188 0.01333667 0.00562650 0.00449814 0.00191332 0.00102519 
0.01680150 0.04533930 0.00309962 0.00154405 0.00117392 0.00099723 0.00464608 0.00307251 0.01385150 0.00164986 0.00120885 0.01394735 0.00569944 0.00447534 0.00193737 0.00101705 
0.01696923 0.04563694 0.00347779 0.00152012 0.00116032 0.00102233 0.00475272 0.00308380 0.01382606 0.00165898 0.00126103 0.01458625 0.00576438 0.00445158 0.00196359 0.00101010 
0.01718988 0.04589916 0.00387745 0.00149634 0.00114685 0.00104808 0.00487360 0.00309238 0.01380248 0.00166828 0.00131816 0.01525261 0.00582110 0.00442739 0.00199211 0.00100433 
0.01746344 0.04612324 0.00429757 0.00147276 0.00113357 0.00107439 0.00500848 0.00309834 0.01378136 0.00167770 0.00137995 0.01594552 0.00586939 0.00440333 0.00202309 0.00099975 
0.01778956 0.04630658 0.00473702 0.00144944 0.00112057 0.00110115 0.00515709 0.00310174 0.01376329 0.00168719 0.00144609 0.01666387 0.00590913 0.00437993 0.00205667 0.00099636 
0.01816757 0.04644672 0.00519459 0.00142644 0.00110793 0.00112826 0.00531912 0.00310265 0.01374888 0.00169669 0.00151626 0.01740642 0.00594021 0.00435772 0.00209298 0.00099415 
0.01859647 0.04654140 0.00566901 0.00140384 0.00109574 0.00115562 0.00549421 0.00310116 0.01373873 0.00170615 0.00159011 0.01817173 0.00596260 0.00433724 0.00213217 0.00099310 
0.01907492 0.04658851 0.00615893 0.00138171 0.00108407 0.00118313 0.00568193 0.00309736 0.01373342 0.00171551 0.00166729 0.01895823 0.00597630 0.00431899 0.00217437 0.00099319 
0.01960128 0.04658617 0.00666292 0.00136011 0.00107300 0.00121069 0.00588183 0.00309134 0.01373355 0.00172472 0.00174743 0.01976418 0.00598134 0.00430346 0.00221970 0.00099441 
0.02017359 0.04653272 0.00717949 0.00133914 0.00106260 0.00123821 0.00609341 0.00308321 0.01373966 0.00173374 0.00183015 0.02058768 0.00597781 0.00429114 0.00226830 0.00099671 
0.02078962 0.04642672 0.00770709 0.00131888 0.00105295 0.00126560 0.00631611 0.00307306 0.01375230 0.00174251 0.00191506 0.02142672 0.00596586 0.00428246 0.00232027 0.00100006 
0.02144683 0.04626700 0.00824413 0.00129941 0.00104411 0.00129276 0.00654933 0.00306101 0.01377196 0.00175099 0.00200178 0.02227913 0.00594564 0.00427784 0.00237572 0.00100443 
0.02214246 0.04605262 0.00878896 0.00128083 0.00103613 0.00131961 0.00679242 0.00304715 0.01379912 0.00175913 0.00208989 0.02314263 0.00591738 0.00427768 0.00243476 0.00100978 
0.02287346 0.04578296 0.00933988 0.00126324 0.00102908 0.00134607 0.00704469 0.00303159 0.01383420 0.00176691 0.00217901 0.02401481 0.00588131 0.00428234 0.00249749 0.00101605 
0.02363660 0.04545763 0.00989515 0.00124673 0.00102300 0.00137205 0.00730539 0.00301446 0.01387759 0.00177428 0.00226873 0.02489320 0.00583772 0.00429213 0.00256399 0.00102321 
0.02442841 0.04507656 0.01045303 0.00123141 0.00101795 0.00139748 0.00757374 0.00299585 0.01392962 0.00178121 0.00235864 0.02577519 0.00578693 0.00430736 0.00263433 0.00103119 
0.02524528 0.04463998 0.01101173 0.00121739 0.00101395 0.00142228 0.00784892 0.00297589 0.01399058 0.00178767 0.00244834 0.02665814 0.00572927 0.00432826 0.00270859 0.00103995 
0.02608342 0.04414839 0.01156944 0.00120477 0.00101103 0.00144639 0.00813005 0.00295469 0.01406070 0.00179363 0.00253745 0.02753932 0.00566512 0.00435504 0.00278683 0.00104943 
0.02693892 0.04360262 0.01212435 0.00119368 0.00100923 0.00146974 0.00841624 0.00293235 0.01414014 0.00179909 0.00262557 0.02841597 0.00559487 0.00438788 0.00286908 0.00105957 
0.02780778 0.04300379 0.01267465 0.00118423 0.00100857 0.00149226 0.00870654 0.00290901 0.01422901 0.00180401 0.00271231 0.02928529 0.00551893 0.00442690 0.00295538 0.00107031 
0.02868590 0.04235332 0.01321853 0.00117653 0.00100904 0.00151391 0.00899997 0.00288476 0.01432737 0.00180839 0.00279732 0.03014447 0.00543773 0.00447218 0.00304577 0.00108158 
0.02956917 0.04165293 0.01375418 0.00117071 0.00101065 0.00153463 0.00929554 0.00285972 0.01443520 0.00181222 0.00288023 0.03099069 0.00535172 0.00452377 0.00314025 0.00109333 
0.03045343 0.04090463 0.01427983 0.00116688 0.00101341 0.00155437 0.00959221 0.00283402 0.01455242 0.00181550 0.00296069 0.03182117 0.00526134 0.00458166 0.00323882 0.00110550 
0.03133457 0.04011071 0.01479371 0.00116517 0.00101730 0.00157309 0.00988892 0.00280776 0.01467889 0.00181822 0.00303837 0.03263313 0.00516707 0.00464581 0.00334147 0.00111801 
0.03220848 0.03927376 0.01529411 0.00116570 0.00102229 0.00159075 0.01018460 0.00278105 0.01481440 0.00182040 0.00311296 0.03342388 0.00506937 0.00471613 0.00344817 0.00113081 
0.03307116 0.03839660 0.01577935 0.00116859 0.00102837 0.00160732 0.01047815 0.00275401 0.01495867 0.00182204 0.00318415 0.03419076 0.00496870 0.00479250 0.00355889 0.00114383 
0.03391868 0.03748232 0.01624778 0.00117395 0.00103550 0.00162276 0.01076849 0.00272676 0.01511137 0.00182316 0.00325167 0.03493121 0.00486554 0.00487475 0.00367358 0.00115702 
0.03474725 0.03653427 0.01669782 0.00118191 0.00104364 0.00163706 0.01105449 0.00269940 0.01527211 0.00182376 0.00331525 0.03564278 0.00476035 0.00496267 0.00379216 0.00117030 
0.03555325 0.03555598 0.01712797 0.00119257 0.00105275 0.00165019 0.01133506 0.00267206 0.01544042 0.00182388 0.00337465 0.03632311 0.00465359 0.00505603 0.00391456 0.00118362 
0.03633322 0.03455123 0.01753676 0.00120604 0.00106276 0.00166213 0.01160908 0.00264484 0.01561580 0.00182354 0.00342966 0.03696997 0.00454569 0.00515455 0.00404069 0.00119691 
0.03708392 0.03352395 0.01792282 0.00122243 0.00107363 0.00167289 0.01187545 0.00261785 0.01579767 0.00182276 0.00348008 0.03758130 0.00443711 0.00525792 0.00417044 0.00121013 
0.03780234 0.03247827 0.01828484 0.00124184 0.00108529 0.00168245 0.01213309 0.00259121 0.01598541 0.00182158 0.00352573 0.03815517 0.00432825 0.00536581 0.00430369 0.00122322 
0.03848572 0.03141843 0.01862163 0.00126436 0.00109767 0.00169081 0.01238094 0.00256504 0.01617836 0.00182003 0.00356646 0.03868982 0.00421952 0.00547784 0.00444031 0.00123611 
0.03913158 0.03034882 0.01893206 0.00129007 0.00111070 0.00169797 0.01261794 0.00253944 0.01637581 0.00181815 0.00360215 0.03918368 0.00411130 0.00559363 0.00458015 0.00124877 
0.03973774 0.02927393 0.01921511 0.00131905 0.00112429 0.00170395 0.01284310 0.00251452 0.01657701 0.00181597 0.00363270 0.03963537 0.00400397 0.00571278 0.00472305 0.00126113 
0.04030232 0.02819832 0.01946986 0.00135138 0.00113838 0.00170875 0.01305542 0.00249040 0.01678116 0.00181355 0.00365802 0.04004371 0.00389787 0.00583483 0.00486882 0.00127315 
0.04082378 0.02712658 0.01969549 0.00138710 0.00115286 0.00171240 0.01325399 0.00246719 0.01698747 0.00181091 0.00367807 0.04040771 0.00379332 0.00595936 0.00501730 0.00128480 
0.04130092 0.02606336 0.01989129 0.00142628 0.00116765 0.00171490 0.01343789 0.00244500 0.01719508 0.00180810 0.00369283 0.04072662 0.00369062 0.00608590 0.00516826 0.00129602 
0.04173288 0.02501329 0.02005668 0.00146894 0.00118268 0.00171630 0.01360630 0.00242393 0.01740314 0.00180517 0.00370227 0.04099990 0.00359003 0.00621399 0.00532151 0.00130677 
0.04211917 0.02398097 0.02019118 0.00151511 0.00119783 0.00171660 0.01375843 0.00240409 0.01761078 0.00180217 0.00370644 0.04122722 0.00349182 0.00634313 0.00547680 0.00131703 
0.04245968 0.02297096 0.02029442 0.00156481 0.00121303 0.00171586 0.01389355 0.00238558 0.01781712 0.00179914 0.00370537 0.04140850 0.00339620 0.00647287 0.00563391 0.00132675 
0.04275463 0.02198773 0.02036617 0.00161803 0.00122818 0.00171409 0.01401102 0.00236852 0.01802128 0.00179613 0.00369913 0.04154387 0.00330337 0.00660272 0.00579258 0.00133591 
0.04300465 0.02103564 0.02040631 0.00167477 0.00124320 0.00171134 0.01411023 0.00235299 0.01822237 0.00179319 0.00368781 0.04163369 0.00321351 0.00673220 0.00595254 0.00134448 
0.04321071 0.02011894 0.02041485 0.00173499 0.00125798 0.00170766 0.01419068 0.00233910 0.01841954 0.00179036 0.00367153 0.04167854 0.00312675 0.00686085 0.00611353 0.00135243 
0.04337415 0.01924170 0.02039191 0.00179865 0.00127245 0.00170307 0.01425192 0.00232695 0.01861192 0.00178768 0.00365043 0.04167924 0.00304323 0.00698820 0.00627525 0.00135975 
0.04349668 0.01840783 0.02033774 0.00186570 0.00128651 0.00169764 0.01429361 0.00231662 0.01879868 0.00178521 0.00362465 0.04163679 0.00296303 0.00711380 0.00643742 0.00136641 
0.04358034 0.01762102 0.02025271 0.00193607 0.00130009 0.00169140 0.01431548 0.00230820 0.01897901 0.00178298 0.00359438 0.04155244 0.00288625 0.00723723 0.00659973 0.00137240 
0.04362749 0.01688475 0.02013731 0.00200965 0.00131310 0.00168442 0.01431733 0.00230177 0.01915215 0.00178104 0.00355981 0.04142761 0.00281291 0.00735805 0.00676187 0.00137771 
0.04364084 0.01620224 0.01999214 0.00208636 0.00132546 0.00167673 0.01429907 0.00229741 0.01931734 0.00177942 0.00352116 0.04126393 0.00274307 0.00747588 0.00692351 0.00138232 
0.04362337 0.01557646 0.01981793 0.00216606 0.00133711 0.00166840 0.01426069 0.00229520 0.01947391 0.00177816 0.00347864 0.04106320 0.00267673 0.00759034 0.00708432 0.00138624 
0.04357836 0.01501008 0.01961551 0.00224862 0.00134798 0.00165947 0.01420229 0.00229519 0.01962118 0.00177730 0.00343252 0.04082738 0.00261387 0.00770107 0.00724398 0.00138945 
0.04350933 0.01450549 0.01938582 0.00233389 0.00135801 0.00165001 0.01412403 0.00229744 0.01975858 0.00177688 0.00338304 0.04055863 0.00255449 0.00780775 0.00740214 0.00139196 
0.04342004 0.01406474 0.01912990 0.00242170 0.00136713 0.00164007 0.01402619 0.00230202 0.01988556 0.00177690 0.00333047 0.04025919 0.00249853 0.00791006 0.00755846 0.00139377 
0.04331446 0.01368958 0.01884890 0.00251187 0.00137529 0.00162971 0.01390912 0.00230895 0.02000162 0.00177742 0.00327510 0.03993148 0.00244594 0.00800775 0.00771258 0.00139488 
0.04319673 0.01338140 0.01854407 0.00260420 0.00138246 0.00161897 0.01377328 0.00231829 0.02010636 0.00177844 0.00321722 0.03957800 0.00239666 0.00810057 0.00786416 0.00139530 
0.04307115 0.01314125 0.01821672 0.00269848 0.00138859 0.00160793 0.01361921 0.00233005 0.02019941 0.00177998 0.00315712 0.03920135 0.00235061 0.00818830 0.00801285 0.00139504 
0.04294213 0.01296984 0.01786828 0.00279447 0.00139364 0.00159663 0.01344754 0.00234425 0.02028048 0.00178207 0.00309512 0.03880423 0.00230769 0.00827075 0.00815828 0.00139411 
0.04281417 0.01286751 0.01750022 0.00289194 0.00139759 0.00158513 0.01325897 0.00236091 0.02034936 0.00178472 0.00303152 0.03838937 0.00226783 0.00834778 0.00830012 0.00139252 
0.04269180 0.01283423 0.01711412 0.00299063 0.00140042 0.00157348 0.01305430 0.00238002 0.02040590 0.00178793 0.00296665 0.03795957 0.00223091 0.00841927 0.00843800 0.00139030 
0.04257961 0.01286963 0.01671160 0.00309029 0.00140212 0.00156173 0.01283440 0.00240156 0.02045002 0.00179170 0.00290081 0.03751762 0.00219684 0.00848513 0.00857159 0.00138745 
0.04248213 0.01297298 0.01629433 0.00319063 0.00140267 0.00154995 0.01260022 0.00242553 0.02048171 0.00179605 0.00283433 0.03706636 0.00216552 0.00854529 0.00870054 0.00138401 
0.04240388 0.01314318 0.01586405 0.00329138 0.00140207 0.00153816 0.01235276 0.00245189 0.02050106 0.00180096 0.00276752 0.03660858 0.00213682 0.00859974 0.00882451 0.00137999 
0.04234925 0.01337881 0.01542253 0.00339223 0.00140033 0.00152643 0.01209310 0.00248059 0.02050818 0.00180642 0.00270070 0.03614706 0.00211066 0.00864847 0.00894319 0.00137542 
0.04232254 0.01367808 0.01497158 0.00349289 0.00139746 0.00151480 0.01182238 0.00251158 0.02050331 0.00181244 0.00263417 0.03568453 0.00208692 0.00869152 0.00905625 0.00137032 
0.04232790 0.01403889 0.01451304 0.00359305 0.00139347 0.00150331 0.01154177 0.00254480 0.02048672 0.00181899 0.00256825 0.03522365 0.00206551 0.00872894 0.00916338 0.00136473 
0.04236927 0.01445885 0.01404875 0.00369240 0.00138839 0.00149200 0.01125252 0.00258016 0.02045876 0.00182606 0.00250323 0.03476702 0.00204632 0.00876083 0.00926430 0.00135867 
0.04245038 0.01493523 0.01358057 0.00379063 0.00138224 0.00148091 0.01095590 0.00261759 0.02041985 0.00183362 0.00243941 0.03431711 0.00202928 0.00878730 0.00935872 0.00135218 
0.04257471 0.01546505 0.01311038 0.00388741 0.00137504 0.00147008 0.01065320 0.00265698 0.02037046 0.00184164 0.00237705 0.03387631 0.00201430 0.00880847 0.00944639 0.00134528 
0.04274547 0.01604505 0.01264004 0.00398244 0.00136685 0.00145953 0.01034576 0.00269822 0.02031113 0.00185010 0.00231644 0.03344687 0.00200129 0.00882452 0.00952704 0.00133801 
0.04296554 0.01667174 0.01217139 0.00407540 0.00135769 0.00144931 0.01003493 0.00274120 0.02024245 0.00185897 0.00225784 0.03303091 0.00199020 0.00883563 0.00960046 0.00133042 
0.04323749 0.01734140 0.01170626 0.00416597 0.00134761 0.00143943 0.00972206 0.00278579 0.02016507 0.00186820 0.00220147 0.03263040 0.00198096 0.00884198 0.00966644 0.00132252 
0.04356351 0.01805014 0.01124646 0.00425385 0.00133666 0.00142991 0.00940851 0.00283184 0.02007968 0.00187777 0.00214759 0.03224714 0.00197352 0.00884379 0.00972480 0.00131437 
0.04394543 0.01879385 0.01079374 0.00433874 0.00132488 0.00142079 0.00909565 0.00287921 0.01998701 0.00188762 0.00209640 0.03188277 0.00196785 0.00884130 0.00977536 0.00130599 
0.04438467 0.01956833 0.01034982 0.00442033 0.00131233 0.00141208 0.00878482 0.00292775 0.01988784 0.00189771 0.00204810 0.03153876 0.00196390 0.00883475 0.00981800 0.00129744 
0.04488224 0.02036922 0.00991639 0.00449836 0.00129906 0.00140380 0.00847734 0.00297728 0.01978297 0.00190800 0.00200287 0.03121638 0.00196165 0.00882439 0.00985260 0.00128875 
0.04543872 0.02119209 0.00949505 0.00457253 0.00128512 0.00139595 0.00817452 0.00302763 0.01967324 0.00191844 0.00196088 0.03091673 0.00196110 0.00881048 0.00987908 0.00127995 
0.04605424 0.02203245 0.00908735 0.00464259 0.00127058 0.00138856 0.00787762 0.00307863 0.01955949 0.00192897 0.00192228 0.03064071 0.00196223 0.00879330 0.00989738 0.00127110 
0.04672851 0.02288575 0.00869478 0.00470829 0.00125549 0.00138162 0.00758788 0.00313010 0.01944260 0.00193955 0.00188719 0.03038901 0.00196505 0.00877311 0.00990748 0.00126223 
0.04746077 0.02374747 0.00831875 0.00476940 0.00123990 0.00137514 0.00730646 0.00318183 0.01932345 0.00195011 0.00185572 0.03016217 0.00196956 0.00875018 0.00990938 0.00125339 
0.04824981 0.02461308 0.00796058 0.00482569 0.00122387 0.00136913 0.00703450 0.00323364 0.01920292 0.00196060 0.00182796 0.02996049 0.00197580 0.00872480 0.00990312 0.00124461 
0.04909396 0.02547811 0.00762152 0.00487697 0.00120747 0.00136359 0.00677305 0.00328533 0.01908189 0.00197097 0.00180398 0.02978410 0.00198377 0.00869724 0.00988876 0.00123594 
0.04999112 0.02633818 0.00730272 0.00492305 0.00119074 0.00135851 0.00652313 0.00333670 0.01896124 0.00198116 0.00178382 0.02963294 0.00199351 0.00866776 0.00986641 0.00122743 
0.05093875 0.02718900 0.00700525 0.00496378 0.00117374 0.00135389 0.00628566 0.00338755 0.01884182 0.00199110 0.00176751 0.02950676 0.00200507 0.00863664 0.00983619 0.00121910 
0.05193387 0.02802642 0.00673005 0.00499901 0.00115652 0.00134973 0.00606149 0.00343768 0.01872448 0.00200074 0.00175507 0.02940516 0.00201846 0.00860412 0.00979827 0.00121101 
0.05297310 0.02884644 0.00647800 0.00502862 0.00113913 0.00134602 0.00585139 0.00348690 0.01861004 0.00201002 0.00174646 0.02932753 0.00203374 0.00857047 0.00975284 0.00120319 
0.05405265 0.02964524 0.00624985 0.00505251 0.00112162 0.00134276 0.00565607 0.00353499 0.01849928 0.00201889 0.00174167 0.02927314 0.00205095 0.00853591 0.00970014 0.00119569 
0.05516837 0.03041922 0.00604626 0.00507062 0.00110404 0.00133993 0.00547611 0.00358178 0.01839295 0.00202728 0.00174064 0.02924107 0.00207014 0.00850067 0.00964043 0.00118853 
0.05631575 0.03116498 0.00586776 0.00508288 0.00108644 0.00133753 0.00531203 0.00362706 0.01829175 0.00203513 0.00174331 0.02923029 0.00209134 0.00846496 0.00957399 0.00118177 
0.05748994 0.03187937 0.00571479 0.00508928 0.00106884 0.00133554 0.00516425 0.00367066 0.01819636 0.00204240 0.00174957 0.02923964 0.00211459 0.00842900 0.00950115 0.00117544 
0.05868581 0.03255952 0.00558768 0.00508981 0.00105130 0.00133396 0.00503310 0.00371240 0.01810737 0.00204903 0.00175932 0.02926781 0.00213995 0.00839296 0.00942226 0.00116956 
0.05989795 0.03320282 0.00548664 0.00508449 0.00103385 0.00133277 0.00491880 0.00375209 0.01802535 0.00205496 0.00177244 0.02931343 0.00216743 0.00835701 0.00933770 0.00116418 
0.06112071 0.03380694 0.00541178 0.00507337 0.00101652 0.00133197 0.00482151 0.00378959 0.01795080 0.00206014 0.00178878 0.02937502 0.00219707 0.00832130 0.00924788 0.00115933 
0.06234824 0.03436987 0.00536309 0.00505651 0.00099934 0.00133153 0.00474124 0.00382474 0.01788414 0.00206453 0.00180819 0.02945101 0.00222890 0.00828598 0.00915322 0.00115504 
0.06357452 0.03488991 0.00534045 0.00503402 0.00098234 0.00133145 0.00467796 0.00385739 0.01782575 0.00206808 0.00183050 0.02953979 0.00226292 0.00825116 0.00905419 0.00115133 
0.06479340 0.03536567 0.00534365 0.00500600 0.00096554 0.00133172 0.00463151 0.00388741 0.01777592 0.00207073 0.00185552 0.02963969 0.00229915 0.00821694 0.00895124 0.00114823 
0.06599862 0.03579610 0.00537235 0.00497260 0.00094898 0.00133232 0.00460166 0.00391468 0.01773489 0.00207246 0.00188306 0.02974901 0.00233758 0.00818341 0.00884489 0.00114577 
0.06718390 0.03618045 0.00542613 0.00493397 0.00093266 0.00133325 0.00458808 0.00393909 0.01770281 0.00207322 0.00191290 0.02986602 0.00237820 0.00815064 0.00873563 0.00114396 
0.06834290 0.03651832 0.00550446 0.00489030 0.00091660 0.00133449 0.00459036 0.00396055 0.01767975 0.00207298 0.00194483 0.02998901 0.00242098 0.00811868 0.00862399 0.00114283 
0.06946934 0.03680962 0.00560670 0.00484180 0.00090083 0.00133604 0.00460800 0.00397898 0.01766572 0.00207169 0.00197862 0.03011624 0.00246590 0.00808755 0.00851050 0.00114239 
0.07055698 0.03705457 0.00573214 0.00478867 0.00088536 0.00133788 0.00464043 0.00399431 0.01766066 0.00206934 0.00201403 0.03024603 0.00251291 0.00805728 0.00839571 0.00114266 
0.07159971 0.03725373 0.00587997 0.00473117 0.00087019 0.00134001 0.00468700 0.00400649 0.01766440 0.00206590 0.00205083 0.03037671 0.00256194 0.00802787 0.00828016 0.00114364 
0.07259152 0.03740793 0.00604928 0.00466955 0.00085534 0.00134242 0.00474701 0.00401549 0.01767672 0.00206134 0.00208877 0.03050666 0.00261292 0.00799931 0.00816441 0.00114534 
0.07352661 0.03751832 0.00623911 0.00460408 0.00084082 0.00134510 0.00481966 0.00402127 0.01769732 0.00205565 0.00212760 0.03063433 0.00266577 0.00797156 0.00804901 0.00114777 
0.07439940 0.03758631 0.00644840 0.00453504 0.00082664 0.00134804 0.00490412 0.00402384 0.01772583 0.00204882 0.00216707 0.03075823 0.00272038 0.00794459 0.00793449 0.00115092 
0.07520455 0.03761358 0.00667602 0.00446273 0.00081281 0.00135125 0.00499951 0.00402321 0.01776180 0.00204082 0.00220693 0.03087695 0.00277664 0.00791834 0.00782141 0.00115480 
0.07593700 0.03760204 0.00692080 0.00438747 0.00079933 0.00135471 0.00510488 0.00401941 0.01780470 0.00203166 0.00224693 0.03098918 0.00283443 0.00789276 0.00771028 0.00115940 
0.07659202 0.03755386 0.00718147 0.00430956 0.00078621 0.00135842 0.00521926 0.00401247 0.01785396 0.00202134 0.00228682 0.03109369 0.00289361 0.00786776 0.00760164 0.00116471 
0.07716522 0.03747139 0.00745674 0.00422934 0.00077347 0.00136238 0.00534164 0.00400246 0.01790892 0.00200985 0.00232636 0.03118937 0.00295401 0.00784327 0.00749597 0.00117072 
0.07765262 0.03735716 0.00774525 0.00414713 0.00076111 0.00136658 0.00547099 0.00398944 0.01796887 0.00199721 0.00236531 0.03127521 0.00301548 0.00781919 0.00739376 0.00117741 
0.07805059 0.03721389 0.00804562 0.00406327 0.00074913 0.00137102 0.00560625 0.00397351 0.01803305 0.00198342 0.00240344 0.03135034 0.00307784 0.00779543 0.00729547 0.00118476 
0.07835597 0.03704442 0.00835642 0.00397810 0.00073756 0.00137570 0.00574635 0.00395477 0.01810064 0.00196850 0.00244052 0.03141397 0.00314089 0.00777190 0.00720153 0.00119276 
0.07856602 0.03685171 0.00867619 0.00389195 0.00072639 0.00138061 0.00589022 0.00393333 0.01817077 0.00195247 0.00247633 0.03146548 0.00320443 0.00774848 0.00711235 0.00120138 
0.07867849 0.03663879 0.00900346 0.00380517 0.00071565 0.00138575 0.00603679 0.00390933 0.01824254 0.00193536 0.00251068 0.03150435 0.00326827 0.00772507 0.00702831 0.00121058 
0.07869158 0.03640879 0.00933673 0.00371808 0.00070535 0.00139113 0.00618500 0.00388290 0.01831501 0.00191720 0.00254337 0.03153020 0.00333216 0.00770157 0.00694975 0.00122034 
0.07860401 0.03616485 0.00967451 0.00363102 0.00069550 0.00139673 0.00633378 0.00385420 0.01838721 0.00189801 0.00257421 0.03154278 0.00339589 0.00767787 0.00687698 0.00123063 
0.07841497 0.03591013 0.01001528 0.00354431 0.00068612 0.00140256 0.00648211 0.00382339 0.01845814 0.00187784 0.00260304 0.03154195 0.00345923 0.00765387 0.00681026 0.00124141 
0.07812418 0.03564777 0.01035755 0.00345826 0.00067723 0.00140861 0.00662898 0.00379065 0.01852680 0.00185674 0.00262971 0.03152772 0.00352193 0.00762947 0.00674985 0.00125263 
0.07773185 0.03538088 0.01069983 0.00337320 0.00066884 0.00141488 0.00677342 0.00375616 0.01859215 0.00183474 0.00265407 0.03150021 0.00358375 0.00760458 0.00669592 0.00126426 
0.07723870 0.03511250 0.01104064 0.00328940 0.00066099 0.00142136 0.00691450 0.00372011 0.01865317 0.00181191 0.00267600 0.03145968 0.00364444 0.00757911 0.00664864 0.00127626 
0.07664595 0.03484559 0.01137853 0.00320717 0.00065369 0.00142805 0.00705132 0.00368269 0.01870884 0.00178829 0.00269539 0.03140649 0.00370375 0.00755298 0.00660811 0.00128857 
0.07595532 0.03458299 0.01171208 0.00312677 0.00064697 0.00143493 0.00718303 0.00364412 0.01875816 0.00176394 0.00271216 0.03134111 0.00376144 0.00752611 0.00657440 0.00130116 
0.07516901 0.03432742 0.01203990 0.00304846 0.00064085 0.00144202 0.00730885 0.00360461 0.01880012 0.00173894 0.00272624 0.03126413 0.00381724 0.00749845 0.00654754 0.00131396 
0.07428968 0.03408144 0.01236065 0.00297248 0.00063537 0.00144928 0.00742804 0.00356435 0.01883375 0.00171335 0.00273756 0.03117623 0.00387093 0.00746993 0.00652750 0.00132694 
0.07332046 0.03384744 0.01267302 0.00289907 0.00063055 0.00145673 0.00753993 0.00352357 0.01885812 0.00168725 0.00274609 0.03107820 0.00392226 0.00744052 0.00651422 0.00134004 
0.07226489 0.03362762 0.01297576 0.00282843 0.00062642 0.00146434 0.00764390 0.00348247 0.01887233 0.00166070 0.00275181 0.03097090 0.00397098 0.00741018 0.00650760 0.00135321 
0.07112695 0.03342399 0.01326768 0.00276077 0.00062302 0.00147211 0.00773940 0.00344128 0.01887553 0.00163379 0.00275472 0.03085528 0.00401688 0.00737890 0.00650747 0.00136639 
0.06991099 0.03323833 0.01354765 0.00269625 0.00062036 0.00148002 0.00782596 0.00340020 0.01886690 0.00160659 0.00275485 0.03073236 0.00405972 0.00734666 0.00651366 0.00137954 
0.06862172 0.03307219 0.01381459 0.00263502 0.00061849 0.00148805 0.00790317 0.00335944 0.01884572 0.00157921 0.00275221 0.03060323 0.00409930 0.00731348 0.00652593 0.00139260 
0.06726420 0.03292690 0.01406750 0.00257724 0.00061743 0.00149620 0.00797070 0.00331921 0.01881129 0.00155172 0.00274688 0.03046902 0.00413542 0.00727937 0.00654401 0.00140552 
0.06584377 0.03280352 0.01430545 0.00252302 0.00061722 0.00150445 0.00802828 0.00327971 0.01876301 0.00152421 0.00273891 0.03033092 0.00416788 0.00724435 0.00656759 0.00141824 
0.06436605 0.03270289 0.01452759 0.00247245 0.00061788 0.00151277 0.00807572 0.00324113 0.01870035 0.00149678 0.00272839 0.03019016 0.00419652 0.00720848 0.00659633 0.00143073 
0.06283691 0.03262558 0.01473313 0.00242561 0.00061944 0.00152114 0.00811290 0.00320365 0.01862285 0.00146953 0.00271543 0.03004800 0.00422116 0.00717180 0.00662984 0.00144292 
0.06126239 0.03257189 0.01492138 0.00238258 0.00062192 0.00152956 0.00813978 0.00316745 0.01853015 0.00144254 0.00270014 0.02990572 0.00424167 0.00713440 0.00666773 0.00145478 
0.05964873 0.03254191 0.01509173 0.00234338 0.00062535 0.00153799 0.00815638 0.00313271 0.01842196 0.00141593 0.00268266 0.02976462 0.00425793 0.00709633 0.00670956 0.00146624 
0.05800228 0.03253544 0.01524363 0.00230804 0.00062976 0.00154641 0.00816279 0.00309956 0.01829810 0.00138977 0.00266314 0.02962600 0.00426981 0.00705771 0.00675486 0.00147728 
0.05632949 0.03255206 0.01537666 0.00227656 0.00063515 0.00155480 0.00815919 0.00306817 0.01815849 0.00136419 0.00264172 0.02949116 0.00427722 0.00701861 0.00680316 0.00148785 
0.05463687 0.03259111 0.01549043 0.00224894 0.00064155 0.00156314 0.00814579 0.00303866 0.01800312 0.00133927 0.00261859 0.02936141 0.00428011 0.00697917 0.00685396 0.00149791 
0.05293093 0.03265172 0.01558468 0.00222513 0.00064896 0.00157139 0.00812289 0.00301115 0.01783212 0.00131512 0.00259392 0.02923803 0.00427840 0.00693948 0.00690673 0.00150742 
0.05121820 0.03273277 0.01565921 0.00220509 0.00065740 0.00157954 0.00809084 0.00298574 0.01764571 0.00129183 0.00256791 0.02912227 0.00427208 0.00689969 0.00696095 0.00151635 
0.04950512 0.03283299 0.01571393 0.00218875 0.00066686 0.00158755 0.00805005 0.00296253 0.01744418 0.00126950 0.00254075 0.02901536 0.00426113 0.00685992 0.00701608 0.00152467 
0.04779807 0.03295088 0.01574881 0.00217604 0.00067734 0.00159540 0.00800097 0.00294160 0.01722798 0.00124823 0.00251266 0.02891851 0.00424556 0.00682030 0.00707158 0.00153235 
0.04610328 0.03308481 0.01576390 0.00216686 0.00068884 0.00160307 0.00794412 0.00292300 0.01699762 0.00122812 0.00248384 0.02883288 0.00422540 0.00678099 0.00712691 0.00153937 
0.04442685 0.03323297 0.01575936 0.00216110 0.00070135 0.00161052 0.00788005 0.00290678 0.01675374 0.00120925 0.00245451 0.02875957 0.00420071 0.00674212 0.00718152 0.00154570 
0.04277470 0.03339345 0.01573540 0.00215865 0.00071485 0.00161773 0.00780935 0.00289296 0.01649706 0.00119171 0.00242489 0.02869967 0.00417157 0.00670384 0.00723487 0.00155132 
0.04115249 0.03356420 0.01569233 0.00215937 0.00072931 0.00162468 0.00773267 0.00288157 0.01622842 0.00117560 0.00239521 0.02865417 0.00413808 0.00666629 0.00728644 0.00155624 
0.03956569 0.03374310 0.01563051 0.00216312 0.00074471 0.00163134 0.00765065 0.00287261 0.01594875 0.00116100 0.00236568 0.02862405 0.00410035 0.00662962 0.00733572 0.00156042 
0.03801947 0.03392797 0.01555038 0.00216976 0.00076101 0.00163768 0.00756400 0.00286604 0.01565907 0.00114798 0.00233653 0.02861020 0.00405852 0.00659396 0.00738220 0.00156387 
0.03651870 0.03411658 0.01545247 0.00217912 0.00077817 0.00164369 0.00747341 0.00286184 0.01536049 0.00113662 0.00230797 0.02861345 0.00401277 0.00655946 0.00742541 0.00156659 
0.03506797 0.03430666 0.01533733 0.00219103 0.00079615 0.00164934 0.00737963 0.00285996 0.01505422 0.00112699 0.00228023 0.02863457 0.00396326 0.00652625 0.00746488 0.00156857 
0.03367149 0.03449597 0.01520561 0.00220534 0.00081489 0.00165461 0.00728339 0.00286034 0.01474154 0.00111915 0.00225351 0.02867428 0.00391021 0.00649444 0.00750019 0.00156982 
0.03233316 0.03468228 0.01505798 0.00222185 0.00083433 0.00165948 0.00718544 0.00286289 0.01442381 0.00111317 0.00222802 0.02873320 0.00385383 0.00646416 0.00753093 0.00157035 
0.03105650 0.03486341 0.01489519 0.00224040 0.00085441 0.00166394 0.00708652 0.00286753 0.01410246 0.00110910 0.00220395 0.02881190 0.00379436 0.00643550 0.00755672 0.00157016 
0.02984465 0.03503724 0.01471803 0.00226080 0.00087507 0.00166797 0.00698739 0.00287414 0.01377900 0.00110698 0.00218149 0.02891087 0.00373207 0.00640857 0.00757724 0.00156928 
0.02870036 0.03520174 0.01452732 0.00228286 0.00089622 0.00167156 0.00688879 0.00288262 0.01345497 0.00110685 0.00216083 0.02903054 0.00366722 0.00638345 0.00759217 0.00156771 
0.02762601 0.03535501 0.01432392 0.00230642 0.00091778 0.00167471 0.00679145 0.00289283 0.01313199 0.00110874 0.00214212 0.02917124 0.00360010 0.00636021 0.00760124 0.00156549 
0.02662356 0.03549525 0.01410874 0.00233127 0.00093967 0.00167739 0.00669607 0.00290463 0.01281172 0.00111269 0.00212553 0.02933325 0.00353102 0.00633890 0.00760424 0.00156263 
0.02569460 0.03562082 0.01388268 0.00235724 0.00096181 0.00167962 0.00660335 0.00291787 0.01249585 0.00111871 0.00211119 0.02951678 0.00346029 0.00631958 0.00760096 0.00155916 
0.02484031 0.03573024 0.01364670 0.00238415 0.00098410 0.00168138 0.00651396 0.00293239 0.01218611 0.00112681 0.00209924 0.02972195 0.00338824 0.00630226 0.00759126 0.00155510 
0.02406149 0.03582221 0.01340175 0.00241183 0.00100643 0.00168268 0.00642853 0.00294802 0.01188425 0.00113698 0.00208979 0.02994881 0.00331521 0.00628696 0.00757505 0.00155050 
0.02335854 0.03589562 0.01314882 0.00244011 0.00102873 0.00168352 0.00634767 0.00296459 0.01159202 0.00114924 0.00208293 0.03019734 0.00324155 0.00627368 0.00755225 0.00154538 
0.02273150 0.03594956 0.01288887 0.00246882 0.00105087 0.00168391 0.00627196 0.00298193 0.01131122 0.00116355 0.00207876 0.03046744 0.00316760 0.00626240 0.00752285 0.00153977 
0.02218006 0.03598332 0.01262290 0.00249779 0.00107277 0.00168385 0.00620192 0.00299984 0.01104360 0.00117990 0.00207733 0.03075896 0.00309374 0.00625308 0.00748688 0.00153372 
0.02170353 0.03599645 0.01235187 0.00252688 0.00109431 0.00168337 0.00613805 0.00301814 0.01079094 0.00119825 0.00207870 0.03107164 0.00302032 0.00624567 0.00744440 0.00152725 
0.02130090 0.03598867 0.01207677 0.00255594 0.00111539 0.00168248 0.00608079 0.00303665 0.01055497 0.00121857 0.00208289 0.03140518 0.00294772 0.00624012 0.00739553 0.00152042 
0.02097086 0.03595997 0.01179855 0.00258482 0.00113591 0.00168119 0.00603054 0.00305516 0.01033742 0.00124080 0.00208992 0.03175919 0.00287630 0.00623633 0.00734042 0.00151325 
0.02071177 0.03591055 0.01151815 0.00261341 0.00115577 0.00167953 0.00598766 0.00307350 0.01013998 0.00126489 0.00209979 0.03213322 0.00280643 0.00623420 0.00727927 0.00150579 
0.02052174 0.03584085 0.01123650 0.00264156 0.00117485 0.00167753 0.00595243 0.00309148 0.00996429 0.00129077 0.00211246 0.03252674 0.00273848 0.00623364 0.00721230 0.00149808 
0.02039860 0.03575154 0.01095449 0.00266917 0.00119307 0.00167520 0.00592512 0.00310891 0.00981194 0.00131836 0.00212791 0.03293916 0.00267282 0.00623451 0.00713980 0.00149016 
0.02033995 0.03564349 0.01067301 0.00269613 0.00121033 0.00167258 0.00590592 0.00312562 0.00968448 0.00134758 0.00214608 0.03336981 0.00260981 0.00623667 0.00706206 0.00148207 
0.02034319 0.03551782 0.01039289 0.00272234 0.00122653 0.00166970 0.00589498 0.00314143 0.00958338 0.00137835 0.00216688 0.03381796 0.00254979 0.00623999 0.00697944 0.00147385 
0.02040553 0.03537583 0.01011494 0.00274772 0.00124159 0.00166660 0.00589237 0.00315616 0.00951003 0.00141055 0.00219022 0.03428280 0.00249312 0.00624430 0.00689230 0.00146553 
0.02052401 0.03521901 0.00983993 0.00277218 0.00125542 0.00166331 0.00589815 0.00316967 0.00946576 0.00144409 0.00221600 0.03476347 0.00244012 0.00624943 0.00680105 0.00145717 
0.02069552 0.03504907 0.00956860 0.00279564 0.00126796 0.00165986 0.00591228 0.00318180 0.00945179 0.00147885 0.00224409 0.03525903 0.00239113 0.00625520 0.00670612 0.00144878 
0.02091687 0.03486785 0.00930162 0.00281806 0.00127911 0.00165631 0.00593470 0.00319241 0.00946926 0.00151471 0.00227435 0.03576847 0.00234644 0.00626145 0.00660797 0.00144042 
0.02118476 0.03467735 0.00903966 0.00283937 0.00128884 0.00165268 0.00596528 0.00320137 0.00951920 0.00155155 0.00230661 0.03629073 0.00230637 0.00626797 0.00650707 0.00143211 
0.02149581 0.03447973 0.00878332 0.00285954 0.00129707 0.00164903 0.00600385 0.00320855 0.00960254 0.00158923 0.00234072 0.03682468 0.00227118 0.00627459 0.00640391 0.00142389 
0.02184665 0.03427725 0.00853314 0.00287851 0.00130376 0.00164538 0.00605017 0.00321385 0.00972010 0.00162761 0.00237648 0.03736912 0.00224115 0.00628111 0.00629901 0.00141578 
0.02223385 0.03407224 0.00828965 0.00289627 0.00130887 0.00164179 0.00610398 0.00321718 0.00987257 0.00166655 0.00241371 0.03792280 0.00221651 0.00628733 0.00619289 0.00140783 
0.02265400 0.03386715 0.00805331 0.00291279 0.00131238 0.00163829 0.00616495 0.00321845 0.01006051 0.00170591 0.00245218 0.03848440 0.00219750 0.00629307 0.00608607 0.00140004 
0.02310372 0.03366446 0.00782453 0.00292806 0.00131426 0.00163493 0.00623272 0.00321760 0.01028438 0.00174554 0.00249169 0.03905256 0.00218432 0.00629814 0.00597910 0.00139246 
0.02357970 0.03346667 0.00760367 0.00294208 0.00131450 0.00163175 0.00630687 0.00321456 0.01054447 0.00178528 0.00253202 0.03962584 0.00217715 0.00630236 0.00587251 0.00138509 
0.02407867 0.03327631 0.00739107 0.00295483 0.00131311 0.00162879 0.00638695 0.00320931 0.01084096 0.00182497 0.00257291 0.04020277 0.00217615 0.00630556 0.00576685 0.00137797 
0.02459747 0.03309588 0.00718699 0.00296634 0.00131009 0.00162608 0.00647249 0.00320181 0.01117388 0.00186447 0.00261415 0.04078182 0.00218146 0.00630755 0.00566264 0.00137111 
0.02513303 0.03292784 0.00699166 0.00297660 0.00130546 0.00162366 0.00656295 0.00319206 0.01154312 0.00190362 0.00265548 0.04136141 0.00219319 0.00630820 0.00556042 0.00136452 
0.02568243 0.03277459 0.00680527 0.00298564 0.00129926 0.00162156 0.00665779 0.00318007 0.01194841 0.00194225 0.00269666 0.04193992 0.00221143 0.00630734 0.00546069 0.00135822 
0.02624285 0.03263844 0.00662795 0.00299348 0.00129153 0.00161983 0.00675644 0.00316585 0.01238937 0.00198022 0.00273743 0.04251568 0.00223622 0.00630485 0.00536397 0.00135221 
0.02681165 0.03252159 0.00645980 0.00300014 0.00128232 0.00161847 0.00685827 0.00314944 0.01286542 0.00201736 0.00277755 0.04308700 0.00226762 0.00630060 0.00527075 0.00134651 
0.02738634 0.03242610 0.00630088 0.00300566 0.00127169 0.00161753 0.00696268 0.00313090 0.01337586 0.00205353 0.00281676 0.04365216 0.00230562 0.00629448 0.00518148 0.00134111 
0.02796459 0.03235391 0.00615120 0.00301006 0.00125972 0.00161701 0.00706903 0.00311028 0.01391985 0.00208858 0.00285482 0.04420938 0.00235020 0.00628641 0.00509663 0.00133603 
0.02854426 0.03230674 0.00601076 0.00301338 0.00124649 0.00161695 0.00717664 0.00308766 0.01449638 0.00212236 0.00289150 0.04475690 0.00240131 0.00627630 0.00501661 0.00133127 
0.02912339 0.03228616 0.00587950 0.00301566 0.00123208 0.00161735 0.00728487 0.00306314 0.01510430 0.00215473 0.00292654 0.04529292 0.00245887 0.00626411 0.00494183 0.00132681 
0.02970021 0.03229350 0.00575733 0.00301693 0.00121661 0.00161821 0.00739304 0.00303682 0.01574232 0.00218556 0.00295972 0.04581563 0.00252278 0.00624979 0.00487266 0.00132266 
0.03027312 0.03232988 0.00564415 0.00301725 0.00120018 0.00161955 0.00750047 0.00300881 0.01640900 0.00221472 0.00299081 0.04632321 0.00259290 0.00623332 0.00480943 0.00131881 
0.03084075 0.03239618 0.00553982 0.00301665 0.00118292 0.00162136 0.00760650 0.00297925 0.01710276 0.00224209 0.00301961 0.04681387 0.00266908 0.00621470 0.00475247 0.00131526 
0.03140187 0.03249302 0.00544417 0.00301518 0.00116493 0.00162364 0.00771045 0.00294827 0.01782188 0.00226755 0.00304592 0.04728580 0.00275113 0.00619395 0.00470204 0.00131198 
0.03195548 0.03262076 0.00535703 0.00301287 0.00114637 0.00162637 0.00781167 0.00291602 0.01856451 0.00229101 0.00306953 0.04773722 0.00283882 0.00617112 0.00465839 0.00130898 
0.03250075 0.03277949 0.00527820 0.00300977 0.00112735 0.00162955 0.00790952 0.00288265 0.01932869 0.00231236 0.00309029 0.04816636 0.00293193 0.00614625 0.00462174 0.00130624 
0.03303702 0.03296904 0.00520745 0.00300593 0.00110804 0.00163313 0.00800336 0.00284833 0.02011230 0.00233152 0.00310803 0.04857150 0.00303018 0.00611943 0.00459225 0.00130374 
0.03356381 0.03318892 0.00514456 0.00300139 0.00108858 0.00163711 0.00809258 0.00281324 0.02091314 0.00234842 0.00312259 0.04895094 0.00313328 0.00609075 0.00457006 0.00130148 
0.03408080 0.03343839 0.00508929 0.00299618 0.00106911 0.00164144 0.00817659 0.00277754 0.02172888 0.00236299 0.00313387 0.04930306 0.00324094 0.00606033 0.00455528 0.00129942 
0.03458784 0.03371641 0.00504139 0.00299035 0.00104979 0.00164609 0.00825483 0.00274141 0.02255711 0.00237518 0.00314174 0.04962625 0.00335280 0.00602831 0.00454796 0.00129756 
0.03508491 0.03402166 0.00500061 0.00298394 0.00103078 0.00165101 0.00832677 0.00270504 0.02339531 0.00238494 0.00314612 0.04991900 0.00346851 0.00599483 0.00454815 0.00129588 
0.03557213 0.03435257 0.00496670 0.00297699 0.00101223 0.00165615 0.00839189 0.00266861 0.02424087 0.00239225 0.00314694 0.05017985 0.00358771 0.00596006 0.00455582 0.00129435 
0.03604975 0.03470725 0.00493939 0.00296953 0.00099430 0.00166147 0.00844973 0.00263232 0.02509112 0.00239710 0.00314414 0.05040746 0.00370999 0.00592420 0.00457095 0.00129297 
0.03651812 0.03508361 0.00491843 0.00296159 0.00097715 0.00166689 0.00849985 0.00259634 0.02594333 0.00239947 0.00313770 0.05060054 0.00383495 0.00588743 0.00459345 0.00129170 
0.03697770 0.03547927 0.00490358 0.00295321 0.00096092 0.00167236 0.00854187 0.00256085 0.02679469 0.00239938 0.00312761 0.05075791 0.00396217 0.00584997 0.00462322 0.00129054 
0.03742903 0.03589164 0.00489458 0.00294442 0.00094577 0.00167782 0.00857541 0.00252604 0.02764238 0.00239685 0.00311387 0.05087850 0.00409121 0.00581205 0.00466011 0.00128946 
0.03787271 0.03631790 0.00489121 0.00293525 0.00093185 0.00168318 0.00860016 0.00249209 0.02848351 0.00239192 0.00309653 0.05096138 0.00422163 0.00577389 0.00470394 0.00128844 
0.03830943 0.03675504 0.00489321 0.00292573 0.00091929 0.00168838 0.00861586 0.00245917 0.02931521 0.00238463 0.00307564 0.05100570 0.00435297 0.00573575 0.00475453 0.00128747 
0.03873989 0.03719986 0.00490039 0.00291589 0.00090822 0.00169333 0.00862227 0.00242744 0.03013455 0.00237505 0.00305128 0.05101077 0.00448477 0.00569788 0.00481163 0.00128653 
0.03916484 0.03764901 0.00491252 0.00290574 0.00089879 0.00169796 0.00861921 0.00239705 0.03093866 0.00236325 0.00302354 0.05097604 0.00461656 0.00566053 0.00487500 0.00128560 
0.03958504 0.03809900 0.00492940 0.00289531 0.00089110 0.00170219 0.00860654 0.00236817 0.03172463 0.00234931 0.00299256 0.05090110 0.00474789 0.00562396 0.00494435 0.00128466 
0.04000125 0.03854624 0.00495086 0.00288463 0.00088527 0.00170593 0.00858417 0.00234092 0.03248963 0.00233335 0.00295846 0.05078569 0.00487827 0.00558846 0.00501938 0.00128371 
0.04041423 0.03898703 0.00497671 0.00287371 0.00088140 0.00170909 0.00855205 0.00231545 0.03323083 0.00231547 0.00292141 0.05062971 0.00500724 0.00555427 0.00509978 0.00128273 
0.04082470 0.03941763 0.00500679 0.00286258 0.00087959 0.00171161 0.00851019 0.00229186 0.03394548 0.00229578 0.00288159 0.05043323 0.00513435 0.00552166 0.00518519 0.00128171 
0.04123337 0.03983426 0.00504095 0.00285125 0.00087991 0.00171338 0.00845862 0.00227027 0.03463087 0.00227444 0.00283919 0.05019648 0.00525914 0.00549091 0.00527527 0.00128063 
0.04164089 0.04023313 0.00507906 0.00283974 0.00088244 0.00171433 0.00839745 0.00225076 0.03528438 0.00225157 0.00279444 0.04991987 0.00538116 0.00546226 0.00536965 0.00127949 
0.04204783 0.04061047 0.00512098 0.00282806 0.00088723 0.00171437 0.00832680 0.00223342 0.03590350 0.00222734 0.00274757 0.04960399 0.00549997 0.00543598 0.00546794 0.00127827 
0.04245473 0.04096258 0.00516661 0.00281624 0.00089433 0.00171344 0.00824685 0.00221832 0.03648580 0.00220191 0.00269881 0.04924958 0.00561516 0.00541230 0.00556976 0.00127698 
0.04286203 0.04128582 0.00521583 0.00280428 0.00090378 0.00171145 0.00815782 0.00220551 0.03702896 0.00217543 0.00264843 0.04885759 0.00572632 0.00539146 0.00567472 0.00127560 
0.04327009 0.04157666 0.00526855 0.00279221 0.00091558 0.00170833 0.00805997 0.00219503 0.03753080 0.00214811 0.00259671 0.04842914 0.00583305 0.00537369 0.00578242 0.00127414 
0.04367917 0.04183170 0.00532468 0.00278003 0.00092976 0.00170401 0.00795360 0.00218690 0.03798928 0.00212011 0.00254392 0.04796552 0.00593500 0.00535920 0.00589244 0.00127259 
0.04408944 0.04204773 0.00538414 0.00276776 0.00094630 0.00169843 0.00783905 0.00218112 0.03840248 0.00209162 0.00249036 0.04746820 0.00603181 0.00534818 0.00600440 0.00127095 
0.04450097 0.04222169 0.00544685 0.00275542 0.00096518 0.00169154 0.00771668 0.00217770 0.03876867 0.00206285 0.00243632 0.04693883 0.00612316 0.00534083 0.00611789 0.00126922 
0.04491368 0.04235075 0.00551273 0.00274302 0.00098637 0.00168328 0.00758690 0.00217662 0.03908626 0.00203398 0.00238212 0.04637922 0.00620874 0.00533731 0.00623252 0.00126741 
0.04532743 0.04243232 0.00558171 0.00273058 0.00100981 0.00167362 0.00745014 0.00217782 0.03935385 0.00200521 0.00232806 0.04579134 0.00628829 0.00533776 0.00634789 0.00126552 
0.04574193 0.04246405 0.00565372 0.00271811 0.00103545 0.00166250 0.00730686 0.00218127 0.03957021 0.00197675 0.00227445 0.04517735 0.00636155 0.00534231 0.00646362 0.00126355 
0.04615678 0.04244391 0.00572867 0.00270561 0.00106322 0.00164991 0.00715754 0.00218690 0.03973431 0.00194879 0.00222160 0.04453951 0.00642832 0.00535108 0.00657934 0.00126151 
0.04657145 0.04237012 0.00580649 0.00269312 0.00109302 0.00163583 0.00700271 0.00219464 0.03984530 0.00192153 0.00216983 0.04388026 0.00648841 0.00536415 0.00669469 0.00125941 
0.04698532 0.04224125 0.00588708 0.00268064 0.00112475 0.00162024 0.00684289 0.00220438 0.03990253 0.00189516 0.00211943 0.04320216 0.00654165 0.00538159 0.00680931 0.00125726 
0.04739763 0.04205619 0.00597036 0.00266819 0.00115831 0.00160314 0.00667862 0.00221603 0.03990558 0.00186989 0.00207071 0.04250789 0.00658794 0.00540343 0.00692288 0.00125507 
0.04780752 0.04181418 0.00605620 0.00265579 0.00119356 0.00158454 0.00651047 0.00222947 0.03985419 0.00184589 0.00202395 0.04180025 0.00662718 0.00542970 0.00703505 0.00125285 
0.04821401 0.04151481 0.00614449 0.00264344 0.00123037 0.00156445 0.00633902 0.00224458 0.03974833 0.00182334 0.00197945 0.04108213 0.00665932 0.00546040 0.00714554 0.00125060 
0.04861602 0.04115804 0.00623509 0.00263117 0.00126860 0.00154291 0.00616486 0.00226121 0.03958820 0.00180243 0.00193748 0.04035650 0.00668434 0.00549549 0.00725404 0.00124836 
0.04901237 0.04074420 0.00632785 0.00261898 0.00130809 0.00151994 0.00598857 0.00227923 0.03937417 0.00178332 0.00189828 0.03962641 0.00670225 0.00553494 0.00736028 0.00124611 
0.04940179 0.04027398 0.00642260 0.00260690 0.00134868 0.00149559 0.00581075 0.00229847 0.03910684 0.00176616 0.00186212 0.03889495 0.00671310 0.00557865 0.00746402 0.00124389 
0.04978292 0.03974848 0.00651915 0.00259493 0.00139020 0.00146992 0.00563201 0.00231879 0.03878701 0.00175110 0.00182922 0.03816527 0.00671696 0.00562653 0.00756501 0.00124171 
0.05015434 0.03916915 0.00661728 0.00258310 0.00143246 0.00144300 0.00545295 0.00234000 0.03841568 0.00173829 0.00179978 0.03744053 0.00671397 0.00567847 0.00766303 0.00123957 
0.05051453 0.03853781 0.00671676 0.00257142 0.00147529 0.00141490 0.00527415 0.00236196 0.03799405 0.00172783 0.00177401 0.03672389 0.00670425 0.00573431 0.00775789 0.00123750 
0.05086194 0.03785666 0.00681733 0.00255989 0.00151849 0.00138570 0.00509622 0.00238447 0.03752350 0.00171985 0.00175207 0.03601851 0.00668800 0.00579389 0.00784940 0.00123551 
0.05119496 0.03712825 0.00691870 0.00254854 0.00156188 0.00135551 0.00491973 0.00240737 0.03700562 0.00171445 0.00173412 0.03532753 0.00666543 0.00585702 0.00793741 0.00123360 
0.05151195 0.03635547 0.00702058 0.00253736 0.00160525 0.00132442 0.00474527 0.00243048 0.03644216 0.00171170 0.00172027 0.03465401 0.00663678 0.00592348 0.00802177 0.00123181 
0.05181123 0.03554155 0.00712263 0.00252638 0.00164840 0.00129254 0.00457339 0.00245362 0.03583504 0.00171168 0.00171065 0.03400099 0.00660232 0.00599306 0.00810236 0.00123013 
0.05209112 0.03469004 0.00722448 0.00251560 0.00169114 0.00125999 0.00440465 0.00247662 0.03518636 0.00171444 0.00170533 0.03337141 0.00656236 0.00606549 0.00817907 0.00122859 
0.05234992 0.03380477 0.00732575 0.00250504 0.00173328 0.00122691 0.00423957 0.00249932 0.03449836 0.00172001 0.00170436 0.03276809 0.00651721 0.00614053 0.00825182 0.00122719 
0.05258597 0.03288988 0.00742603 0.00249469 0.00177460 0.00119341 0.00407868 0.00252154 0.03377342 0.00172843 0.00170778 0.03219377 0.00646722 0.00621788 0.00832054 0.00122595 
0.05279761 0.03194973 0.00752489 0.00248456 0.00181492 0.00115965 0.00392248 0.00254313 0.03301405 0.00173968 0.00171559 0.03165105 0.00641278 0.00629724 0.00838518 0.00122488 
0.05298320 0.03098895 0.00762187 0.00247465 0.00185404 0.00112577 0.00377144 0.00256393 0.03222291 0.00175377 0.00172778 0.03114238 0.00635427 0.00637833 0.00844569 0.00122399 
0.05314119 0.03001234 0.00771650 0.00246498 0.00189178 0.00109190 0.00362601 0.00258379 0.03140274 0.00177066 0.00174430 0.03067005 0.00629211 0.00646080 0.00850207 0.00122328 
0.05327005 0.02902492 0.00780826 0.00245554 0.00192796 0.00105822 0.00348664 0.00260259 0.03055638 0.00179031 0.00176508 0.03023617 0.00622672 0.00654434 0.00855430 0.00122277 
0.05336834 0.02803182 0.00789664 0.00244632 0.00196240 0.00102486 0.00335373 0.00262019 0.02968675 0.00181266 0.00179002 0.02984268 0.00615855 0.00662860 0.00860239 0.00122247 
0.05343471 0.02703833 0.00798112 0.00243733 0.00199493 0.00099199 0.00322767 0.00263648 0.02879687 0.00183762 0.00181902 0.02949131 0.00608805 0.00671325 0.00864637 0.00122237 
0.05346788 0.02604981 0.00806113 0.00242857 0.00202539 0.00095976 0.00310882 0.00265136 0.02788979 0.00186510 0.00185191 0.02918357 0.00601568 0.00679794 0.00868627 0.00122249 
0.05346672 0.02507168 0.00813611 0.00242001 0.00205364 0.00092834 0.00299751 0.00266473 0.02696862 0.00189500 0.00188855 0.02892077 0.00594192 0.00688233 0.00872213 0.00122283 
0.05343018 0.02410939 0.00820551 0.00241167 0.00207953 0.00089787 0.00289404 0.00267651 0.02603649 0.00192719 0.00192875 0.02870400 0.00586724 0.00696605 0.00875402 0.00122339 
0.05335735 0.02316839 0.00826874 0.00240353 0.00210293 0.00086850 0.00279870 0.00268664 0.02509656 0.00196152 0.00197230 0.02853409 0.00579212 0.00704878 0.00878201 0.00122417 
0.05324746 0.02225410 0.00832524 0.00239558 0.00212372 0.00084040 0.00271173 0.00269507 0.02415199 0.00199785 0.00201897 0.02841166 0.00571703 0.00713017 0.00880616 0.00122517 
0.05309991 0.02137184 0.00837442 0.00238780 0.00214180 0.00081371 0.00263336 0.00270176 0.02320594 0.00203600 0.00206852 0.02833708 0.00564244 0.00720989 0.00882658 0.00122639 
0.05291421 0.02052686 0.00841572 0.00238019 0.00215707 0.00078856 0.00256378 0.00270669 0.02226155 0.00207580 0.00212070 0.02831048 0.00556882 0.00728761 0.00884334 0.00122783 
0.05269007 0.01972426 0.00844858 0.00237273 0.00216945 0.00076509 0.00250315 0.00270986 0.02132193 0.00211706 0.00217522 0.02833174 0.00549663 0.00736301 0.00885656 0.00122948 
0.05242736 0.01896897 0.00847246 0.00236540 0.00217888 0.00074344 0.00245161 0.00271126 0.02039013 0.00215958 0.00223182 0.02840053 0.00542630 0.00743578 0.00886634 0.00123134 
0.05212612 0.01826572 0.00848684 0.00235820 0.00218528 0.00072372 0.00240926 0.00271092 0.01946916 0.00220315 0.00229018 0.02851625 0.00535828 0.00750565 0.00887280 0.00123340 
0.05178657 0.01761903 0.00849120 0.00235110 0.00218863 0.00070605 0.00237619 0.00270887 0.01856197 0.00224755 0.00235001 0.02867810 0.00529298 0.00757234 0.00887606 0.00123566 
0.05140914 0.01703314 0.00848508 0.00234409 0.00218890 0.00069052 0.00235243 0.00270517 0.01767141 0.00229256 0.00241100 0.02888503 0.00523080 0.00763558 0.00887623 0.00123811 
0.05099441 0.01651203 0.00846802 0.00233715 0.00218606 0.00067724 0.00233802 0.00269987 0.01680027 0.00233794 0.00247283 0.02913579 0.00517210 0.00769514 0.00887346 0.00124073 
0.05054318 0.01605935 0.00843962 0.00233026 0.00218013 0.00066629 0.00233295 0.00269306 0.01595122 0.00238348 0.00253517 0.02942894 0.00511726 0.00775080 0.00886787 0.00124353 
0.05005640 0.01567842 0.00839950 0.00232341 0.00217111 0.00065773 0.00233717 0.00268481 0.01512683 0.00242892 0.00259773 0.02976281 0.00506658 0.00780236 0.00885961 0.00124648 
0.04953526 0.01537222 0.00834735 0.00231658 0.00215903 0.00065163 0.00235064 0.00267523 0.01432958 0.00247403 0.00266016 0.03013560 0.00502038 0.00784964 0.00884880 0.00124958 
0.04898108 0.01514334 0.00828286 0.00230977 0.00214393 0.00064804 0.00237326 0.00266443 0.01356178 0.00251857 0.00272217 0.03054530 0.00497893 0.00789250 0.00883560 0.00125281 
0.04839541 0.01499397 0.00820583 0.00230294 0.00212587 0.00064700 0.00240491 0.00265253 0.01282566 0.00256231 0.00278345 0.03098976 0.00494248 0.00793081 0.00882015 0.00125616 
0.04777996 0.01492590 0.00811607 0.00229610 0.00210490 0.00064851 0.00244546 0.00263966 0.01212328 0.00260502 0.00284369 0.03146673 0.00491122 0.00796446 0.00880261 0.00125962 
0.04713659 0.01494050 0.00801347 0.00228922 0.00208111 0.00065261 0.00249475 0.00262594 0.01145658 0.00264645 0.00290261 0.03197380 0.00488534 0.00799338 0.00878311 0.00126317 
0.04646737 0.01503869 0.00789797 0.00228231 0.00205458 0.00065928 0.00255259 0.00261152 0.01082734 0.00268640 0.00295993 0.03250848 0.00486499 0.00801751 0.00876182 0.00126680 
0.04577450 0.01522097 0.00776958 0.00227534 0.00202542 0.00066851 0.00261877 0.00259656 0.01023720 0.00272464 0.00301538 0.03306821 0.00485026 0.00803684 0.00873888 0.00127050 
0.04506032 0.01548736 0.00762839 0.00226833 0.00199373 0.00068027 0.00269305 0.00258120 0.00968763 0.00276096 0.00306871 0.03365035 0.00484124 0.00805136 0.00871447 0.00127425 
0.04432735 0.01583746 0.00747453 0.00226126 0.00195964 0.00069452 0.00277519 0.00256559 0.00917995 0.00279516 0.00311969 0.03425225 0.00483797 0.00806110 0.00868872 0.00127803 
0.04357819 0.01627039 0.00730822 0.00225413 0.00192328 0.00071121 0.00286491 0.00254990 0.00871533 0.00282705 0.00316811 0.03487122 0.00484043 0.00806611 0.00866182 0.00128184 
0.04281558 0.01678485 0.00712976 0.00224695 0.00188478 0.00073026 0.00296192 0.00253428 0.00829477 0.00285646 0.00321377 0.03550456 0.00484859 0.00806647 0.00863391 0.00128565 
0.04204237 0.01737907 0.00693950 0.00223971 0.00184428 0.00075162 0.00306593 0.00251890 0.00791909 0.00288322 0.00325649 0.03614962 0.00486238 0.00806229 0.00860517 0.00128947 
0.04126148 0.01805084 0.00673788 0.00223243 0.00180195 0.00077518 0.00317659 0.00250389 0.00758896 0.00290718 0.00329613 0.03680378 0.00488168 0.00805370 0.00857576 0.00129326 
0.04047592 0.01879755 0.00652540 0.00222512 0.00175794 0.00080085 0.00329357 0.00248943 0.00730490 0.00292819 0.00333254 0.03746447 0.00490635 0.00804084 0.00854585 0.00129702 
0.03968876 0.01961615 0.00630266 0.00221778 0.00171240 0.00082852 0.00341653 0.00247565 0.00706724 0.00294615 0.00336563 0.03812921 0.00493622 0.00802389 0.00851561 0.00130073 
0.03890309 0.02050320 0.00607030 0.00221044 0.00166552 0.00085807 0.00354509 0.00246270 0.00687617 0.00296093 0.00339530 0.03879562 0.00497105 0.00800304 0.00848521 0.00130439 
0.03812206 0.02145488 0.00582906 0.00220311 0.00161746 0.00088937 0.00367888 0.00245072 0.00673169 0.00297247 0.00342151 0.03946142 0.00501060 0.00797851 0.00845483 0.00130798 
0.03734881 0.02246702 0.00557972 0.00219581 0.00156839 0.00092230 0.00381752 0.00243984 0.00663366 0.00298067 0.00344421 0.04012448 0.00505459 0.00795052 0.00842465 0.00131149 
0.03658646 0.02353509 0.00532315 0.00218857 0.00151849 0.00095672 0.00396061 0.00243019 0.00658179 0.00298550 0.00346340 0.04078280 0.00510271 0.00791934 0.00839483 0.00131492 
0.03583815 0.02465426 0.00506028 0.00218141 0.00146794 0.00099247 0.00410776 0.00242187 0.00657561 0.00298691 0.00347909 0.04143456 0.00515462 0.00788522 0.00836556 0.00131824 
0.03510693 0.02581942 0.00479209 0.00217436 0.00141692 0.00102940 0.00425856 0.00241500 0.00661454 0.00298489 0.00349131 0.04207810 0.00520994 0.00784844 0.00833703 0.00132146 
0.03439581 0.02702519 0.00451964 0.00216746 0.00136559 0.00106736 0.00441262 0.00240967 0.00669780 0.00297944 0.00350014 0.04271193 0.00526829 0.00780929 0.00830941 0.00132457 
0.03370773 0.02826596 0.00424401 0.00216074 0.00131415 0.00110620 0.00456951 0.00240596 0.00682451 0.00297058 0.00350564 0.04333479 0.00532925 0.00776808 0.00828289 0.00132756 
0.03304553 0.02953596 0.00396635 0.00215422 0.00126275 0.00114574 0.00472885 0.00240395 0.00699364 0.00295835 0.00350794 0.04394559 0.00539240 0.00772512 0.00825766 0.00133042 
0.03241193 0.03082920 0.00368786 0.00214796 0.00121157 0.00118584 0.00489022 0.00240369 0.00720401 0.00294281 0.00350716 0.04454346 0.00545726 0.00768071 0.00823390 0.00133315 
0.03180953 0.03213961 0.00340976 0.00214198 0.00116078 0.00122633 0.00505322 0.00240525 0.00745434 0.00292402 0.00350344 0.04512774 0.00552339 0.00763519 0.00821180 0.00133574 
0.03124080 0.03346101 0.00313332 0.00213632 0.00111055 0.00126705 0.00521747 0.00240866 0.00774322 0.00290208 0.00349695 0.04569798 0.00559030 0.00758887 0.00819154 0.00133820 
0.03070801 0.03478716 0.00285981 0.00213104 0.00106103 0.00130784 0.00538257 0.00241394 0.00806910 0.00287710 0.00348788 0.04625395 0.00565750 0.00754209 0.00817333 0.00134052 
0.03021330 0.03611180 0.00259055 0.00212616 0.00101238 0.00134855 0.00554814 0.00242111 0.00843036 0.00284920 0.00347643 0.04679564 0.00572451 0.00749517 0.00815734 0.00134270 
0.02975860 0.03742869 0.00232686 0.00212174 0.00096474 0.00138903 0.00571383 0.00243017 0.00882523 0.00281852 0.00346281 0.04732324 0.00579081 0.00744843 0.00814376 0.00134474 
0.02934564 0.03873164 0.00207006 0.00211780 0.00091827 0.00142912 0.00587927 0.00244111 0.00925190 0.00278522 0.00344725 0.04783716 0.00585592 0.00740218 0.00813279 0.00134664 
0.02897595 0.04001455 0.00182148 0.00211440 0.00087310 0.00146869 0.00604412 0.00245391 0.00970841 0.00274947 0.00342999 0.04833798 0.00591934 0.00735675 0.00812460 0.00134840 
0.02865082 0.04127144 0.00158244 0.00211157 0.00082936 0.00150761 0.00620806 0.00246854 0.01019277 0.00271144 0.00341128 0.04882651 0.00598058 0.00731244 0.00811938 0.00135003 
0.02837132 0.04249651 0.00135424 0.00210935 0.00078717 0.00154574 0.00637078 0.00248496 0.01070289 0.00267133 0.00339137 0.04930372 0.00603917 0.00726954 0.00811732 0.00135152 
0.02813828 0.04368412 0.00113815 0.00210778 0.00074666 0.00158297 0.00653199 0.00250310 0.01123661 0.00262934 0.00337051 0.04977075 0.00609463 0.00722834 0.00811860 0.00135289 
0.02795228 0.04482888 0.00093543 0.00210689 0.00070793 0.00161917 0.00669140 0.00252291 0.01179172 0.00258568 0.00334899 0.05022891 0.00614651 0.00718911 0.00812339 0.00135413 
0.02781364 0.04592567 0.00074730 0.00210673 0.00067109 0.00165426 0.00684878 0.00254432 0.01236596 0.00254057 0.00332706 0.05067963 0.00619438 0.00715211 0.00813186 0.00135526 
0.02772243 0.04696964 0.00057490 0.00210732 0.00063622 0.00168812 0.00700388 0.00256724 0.01295702 0.00249424 0.00330498 0.05112448 0.00623782 0.00711759 0.00814419 0.00135627 
0.02767847 0.04795628 0.00041937 0.00210869 0.00060343 0.00172067 0.00715650 0.00259158 0.01356257 0.00244692 0.00328303 0.05156516 0.00627644 0.00708578 0.00816054 0.00135718 
0.02768131 0.04888141 0.00028175 0.00211088 0.00057279 0.00175184 0.00730645 0.00261726 0.01418025 0.00239884 0.00326146 0.05200342 0.00630988 0.00705688 0.00818106 0.00135799 
0.02773025 0.04974123 0.00016303 0.00211390 0.00054437 0.00178156 0.00745356 0.00264415 0.01480767 0.00235025 0.00324052 0.05244112 0.00633779 0.00703110 0.00820590 0.00135871 
0.02782431 0.05053234 0.00006413 0.00211777 0.00051824 0.00180977 0.00759769 0.00267217 0.01544244 0.00230137 0.00322046 0.05288016 0.00635987 0.00700861 0.00823522 0.00135934 
0.02796228 0.05125175 0.00001412 0.00212252 0.00049445 0.00183642 0.00773873 0.00270119 0.01608219 0.00225246 0.00320151 0.05332247 0.00637584 0.00698956 0.00826914 0.00135990 
0.02814271 0.05189692 0.00007097 0.00212816 0.00047306 0.00186147 0.00787658 0.00273110 0.01672453 0.00220375 0.00318391 0.05376999 0.00638546 0.00697409 0.00830779 0.00136038 
0.02836388 0.05246573 0.00010575 0.00213470 0.00045411 0.00188489 0.00801117 0.00276179 0.01736710 0.00215547 0.00316786 0.05422468 0.00638853 0.00696232 0.00835128 0.00136081 
0.02862387 0.05295655 0.00011792 0.00214214 0.00043763 0.00190666 0.00814245 0.00279312 0.01800759 0.00210785 0.00315357 0.05468844 0.00638487 0.00695434 0.00839974 0.00136118 
0.02892052 0.05336821 0.00010700 0.00215048 0.00042365 0.00192677 0.00827041 0.00282498 0.01864368 0.00206112 0.00314121 0.05516314 0.00637435 0.00695023 0.00845323 0.00136151 
0.02925146 0.05370003 0.00007264 0.00215974 0.00041220 0.00194522 0.00839504 0.00285725 0.01927315 0.00201550 0.00313096 0.05565057 0.00635688 0.00695002 0.00851186 0.00136181 
0.02961412 0.05395182 0.00001460 0.00216989 0.00040328 0.00196201 0.00851637 0.00288981 0.01989379 0.00197119 0.00312296 0.05615244 0.00633241 0.00695375 0.00857568 0.00136207 
0.03000577 0.05412385 0.00006726 0.00218095 0.00039690 0.00197716 0.00863443 0.00292253 0.02050347 0.00192840 0.00311734 0.05667034 0.00630092 0.00696144 0.00864476 0.00136232 
0.03042349 0.05421690 0.00017296 0.00219288 0.00039307 0.00199068 0.00874928 0.00295530 0.02110014 0.00188731 0.00311423 0.05720573 0.00626245 0.00697305 0.00871912 0.00136255 
0.03086422 0.05423223 0.00030239 0.00220567 0.00039178 0.00200260 0.00886101 0.00298801 0.02168181 0.00184812 0.00311370 0.05775995 0.00621705 0.00698856 0.00879880 0.00136277 
0.03132476 0.05417156 0.00045533 0.00221931 0.00039302 0.00201296 0.00896972 0.00302054 0.02224660 0.00181098 0.00311584 0.05833414 0.00616484 0.00700791 0.00888379 0.00136299 
0.03180180 0.05403708 0.00063145 0.00223377 0.00039676 0.00202179 0.00907551 0.00305278 0.02279270 0.00177604 0.00312069 0.05892928 0.00610597 0.00703101 0.00897409 0.00136322 
0.03229193 0.05383144 0.00083029 0.00224902 0.00040300 0.00202914 0.00917852 0.00308463 0.02331841 0.00174346 0.00312829 0.05954615 0.00604061 0.00705777 0.00906966 0.00136346 
0.03279167 0.05355770 0.00105127 0.00226504 0.00041169 0.00203505 0.00927888 0.00311601 0.02382217 0.00171335 0.00313864 0.06018533 0.00596899 0.00708807 0.00917045 0.00136372 
0.03329750 0.05321936 0.00129370 0.00228179 0.00042281 0.00203959 0.00937673 0.00314681 0.02430248 0.00168583 0.00315173 0.06084718 0.00589137 0.00712176 0.00927638 0.00136400 
0.03380585 0.05282030 0.00155676 0.00229924 0.00043631 0.00204279 0.00947224 0.00317695 0.02475801 0.00166100 0.00316753 0.06153180 0.00580803 0.00715869 0.00938737 0.00136431 
0.03431314 0.05236478 0.00183954 0.00231734 0.00045215 0.00204473 0.00956556 0.00320635 0.02518753 0.00163892 0.00318599 0.06223909 0.00571931 0.00719869 0.00950330 0.00136464 
0.03481581 0.05185740 0.00214100 0.00233606 0.00047028 0.00204546 0.00965686 0.00323496 0.02558996 0.00161968 0.00320704 0.06296868 0.00562557 0.00724156 0.00962402 0.00136501 
0.03531034 0.05130308 0.00245999 0.00235536 0.00049065 0.00204505 0.00974629 0.00326269 0.02596434 0.00160331 0.00323058 0.06371996 0.00552717 0.00728709 0.00974938 0.00136541 
0.03579324 0.05070703 0.00279529 0.00237518 0.00051319 0.00204355 0.00983403 0.00328951 0.02630985 0.00158984 0.00325649 0.06449205 0.00542453 0.00733506 0.00987919 0.00136585 
0.03626114 0.05007470 0.00314555 0.00239550 0.00053784 0.00204103 0.00992023 0.00331535 0.02662585 0.00157930 0.00328467 0.06528382 0.00531809 0.00738523 0.01001323 0.00136632 
0.03671073 0.04941179 0.00350936 0.00241626 0.00056453 0.00203754 0.01000505 0.00334019 0.02691179 0.00157168 0.00331495 0.06609389 0.00520830 0.00743735 0.01015128 0.00136683 
0.03713884 0.04872415 0.00388520 0.00243741 0.00059319 0.00203316 0.01008861 0.00336399 0.02716731 0.00156697 0.00334717 0.06692062 0.00509564 0.00749117 0.01029307 0.00136738 
0.03754245 0.04801782 0.00427150 0.00245891 0.00062375 0.00202795 0.01017106 0.00338672 0.02739220 0.00156513 0.00338117 0.06776210 0.00498058 0.00754640 0.01043831 0.00136797 
0.03791868 0.04729893 0.00466661 0.00248072 0.00065611 0.00202195 0.01025251 0.00340838 0.02758637 0.00156611 0.00341675 0.06861621 0.00486363 0.00760277 0.01058669 0.00136859 
0.03826485 0.04657370 0.00506883 0.00250278 0.00069020 0.00201524 0.01033306 0.00342896 0.02774990 0.00156986 0.00345370 0.06948057 0.00474530 0.00766000 0.01073789 0.00136924 
0.03857848 0.04584838 0.00547639 0.00252506 0.00072592 0.00200786 0.01041280 0.00344845 0.02788302 0.00157630 0.00349182 0.07035258 0.00462611 0.00771779 0.01089153 0.00136992 
0.03885728 0.04512922 0.00588750 0.00254750 0.00076319 0.00199988 0.01049178 0.00346686 0.02798610 0.00158534 0.00353087 0.07122941 0.00450656 0.00777584 0.01104723 0.00137062 
0.03909922 0.04442243 0.00630034 0.00257007 0.00080190 0.00199133 0.01057004 0.00348422 0.02805965 0.00159687 0.00357064 0.07210805 0.00438720 0.00783386 0.01120459 0.00137135 
0.03930250 0.04373415 0.00671305 0.00259272 0.00084195 0.00198227 0.01064760 0.00350054 0.02810433 0.00161079 0.00361088 0.07298529 0.00426852 0.00789155 0.01136317 0.00137210 
0.03946559 0.04307041 0.00712378 0.00261541 0.00088325 0.00197275 0.01072445 0.00351585 0.02812094 0.00162698 0.00365134 0.07385774 0.00415104 0.00794861 0.01152253 0.00137285 
0.03958722 0.04243708 0.00753068 0.00263811 0.00092567 0.00196281 0.01080056 0.00353019 0.02811038 0.00164528 0.00369179 0.07472187 0.00403525 0.00800473 0.01168219 0.00137362 
0.03966640 0.04183983 0.00793190 0.00266077 0.00096911 0.00195250 0.01087586 0.00354359 0.02807370 0.00166558 0.00373197 0.07557401 0.00392166 0.00805964 0.01184166 0.00137438 
0.03970243 0.04128414 0.00832561 0.00268338 0.00101346 0.00194184 0.01095025 0.00355612 0.02801207 0.00168770 0.00377162 0.07641036 0.00381073 0.00811304 0.01200043 0.00137515 
0.03969491 0.04077519 0.00871003 0.00270588 0.00105859 0.00193088 0.01102362 0.00356781 0.02792676 0.00171150 0.00381051 0.07722706 0.00370293 0.00816465 0.01215798 0.00137590 
0.03964374 0.04031790 0.00908341 0.00272826 0.00110439 0.00191964 0.01109582 0.00357872 0.02781913 0.00173681 0.00384838 0.07802015 0.00359868 0.00821421 0.01231376 0.00137664 
0.03954911 0.03991688 0.00944406 0.00275049 0.00115073 0.00190818 0.01116666 0.00358893 0.02769066 0.00176347 0.00388499 0.07878563 0.00349840 0.00826146 0.01246724 0.00137735 
0.03941152 0.03957636 0.00979036 0.00277254 0.00119749 0.00189650 0.01123594 0.00359848 0.02754288 0.00179130 0.00392010 0.07951949 0.00340248 0.00830614 0.01261785 0.00137803 
0.03923178 0.03930022 0.01012076 0.00279439 0.00124454 0.00188465 0.01130343 0.00360746 0.02737743 0.00182012 0.00395347 0.08021769 0.00331130 0.00834804 0.01276503 0.00137868 
0.03901098 0.03909193 0.01043380 0.00281602 0.00129174 0.00187265 0.01136885 0.00361593 0.02719598 0.00184977 0.00398489 0.08087625 0.00322517 0.00838693 0.01290821 0.00137929 
0.03875052 0.03895457 0.01072811 0.00283741 0.00133897 0.00186052 0.01143192 0.00362397 0.02700028 0.00188007 0.00401413 0.08149122 0.00314441 0.00842261 0.01304682 0.00137985 
0.03845208 0.03889073 0.01100244 0.00285855 0.00138608 0.00184830 0.01149234 0.00363164 0.02679209 0.00191083 0.00404100 0.08205874 0.00306928 0.00845491 0.01318028 0.00138036 
0.03811761 0.03890260 0.01125563 0.00287942 0.00143295 0.00183600 0.01154976 0.00363904 0.02657323 0.00194190 0.00406529 0.08257503 0.00300004 0.00848367 0.01330805 0.00138080 
0.03774936 0.03899188 0.01148667 0.00290001 0.00147944 0.00182366 0.01160384 0.00364623 0.02634552 0.00197310 0.00408683 0.08303645 0.00293687 0.00850875 0.01342955 0.00138118 
0.03734981 0.03915979 0.01169466 0.00292032 0.00152541 0.00181130 0.01165420 0.00365329 0.02611079 0.00200426 0.00410546 0.08343952 0.00287996 0.00853004 0.01354425 0.00138149 
0.03692168 0.03940709 0.01187885 0.00294032 0.00157072 0.00179895 0.01170046 0.00366030 0.02587086 0.00203522 0.00412101 0.08378091 0.00282944 0.00854745 0.01365162 0.00138173 
0.03646794 0.03973403 0.01203863 0.00296001 0.00161524 0.00178662 0.01174223 0.00366735 0.02562753 0.00206583 0.00413335 0.08405751 0.00278540 0.00856092 0.01375115 0.00138189 
0.03599175 0.04014039 0.01217354 0.00297938 0.00165882 0.00177436 0.01177911 0.00367450 0.02538259 0.00209594 0.00414237 0.08426641 0.00274790 0.00857040 0.01384235 0.00138196 
0.03549649 0.04062546 0.01228327 0.00299843 0.00170133 0.00176218 0.01181069 0.00368183 0.02513776 0.00212540 0.00414797 0.08440496 0.00271697 0.00857589 0.01392475 0.00138195 
0.03498568 0.04118806 0.01236767 0.00301714 0.00174263 0.00175013 0.01183658 0.00368940 0.02489474 0.00215410 0.00415005 0.08447075 0.00269260 0.00857741 0.01399792 0.00138184 
0.03446302 0.04182653 0.01242676 0.00303550 0.00178259 0.00173822 0.01185637 0.00369731 0.02465514 0.00218189 0.00414855 0.08446167 0.00267474 0.00857501 0.01406145 0.00138165 
0.03393234 0.04253877 0.01246070 0.00305351 0.00182108 0.00172650 0.01186969 0.00370560 0.02442051 0.00220866 0.00414344 0.08437590 0.00266330 0.00856875 0.01411498 0.00138136 
0.03339757 0.04332222 0.01246983 0.00307116 0.00185796 0.00171500 0.01187615 0.00371434 0.02419231 0.00223432 0.00413467 0.08421192 0.00265818 0.00855874 0.01415818 0.00138098 
0.03286274 0.04417392 0.01245466 0.00308843 0.00189312 0.00170376 0.01187540 0.00372359 0.02397193 0.00225876 0.00412225 0.08396855 0.00265922 0.00854512 0.01419076 0.00138051 
0.03233191 0.04509049 0.01241584 0.00310530 0.00192641 0.00169282 0.01186711 0.00373341 0.02376062 0.00228190 0.00410619 0.08364496 0.00266623 0.00852805 0.01421247 0.00137995 
0.03180923 0.04606817 0.01235420 0.00312176 0.00195774 0.00168221 0.01185098 0.00374386 0.02355957 0.00230367 0.00408652 0.08324066 0.00267901 0.00850771 0.01422313 0.00137929 
0.03129883 0.04710285 0.01227071 0.00313780 0.00198697 0.00167199 0.01182674 0.00375496 0.02336981 0.00232400 0.00406331 0.08275551 0.00269731 0.00848434 0.01422258 0.00137854 
0.03080484 0.04819011 0.01216651 0.00315338 0.00201401 0.00166220 0.01179414 0.00376678 0.02319230 0.00234285 0.00403661 0.08218976 0.00272086 0.00845816 0.01421073 0.00137770 
0.03033134 0.04932522 0.01204288 0.00316849 0.00203874 0.00165288 0.01175301 0.00377934 0.02302782 0.00236017 0.00400654 0.08154402 0.00274938 0.00842946 0.01418755 0.00137678 
0.02988237 0.05050319 0.01190122 0.00318309 0.00206107 0.00164408 0.01170318 0.00379267 0.02287706 0.00237594 0.00397320 0.08081928 0.00278253 0.00839852 0.01415306 0.00137578 
0.02946189 0.05171880 0.01174311 0.00319716 0.00208089 0.00163585 0.01164457 0.00380680 0.02274056 0.00239014 0.00393672 0.08001690 0.00281999 0.00836568 0.01410733 0.00137471 
0.02907372 0.05296665 0.01157020 0.00321065 0.00209814 0.00162825 0.01157713 0.00382175 0.02261874 0.00240276 0.00389727 0.07913862 0.00286140 0.00833127 0.01405049 0.00137356 
0.02872158 0.05424117 0.01138431 0.00322353 0.00211272 0.00162131 0.01150086 0.00383753 0.02251187 0.00241380 0.00385501 0.07818657 0.00290637 0.00829566 0.01398274 0.00137235 
0.02840903 0.05553667 0.01118732 0.00323576 0.00212457 0.00161510 0.01141586 0.00385414 0.02242010 0.00242328 0.00381013 0.07716323 0.00295453 0.00825922 0.01390435 0.00137108 
0.02813944 0.05684741 0.01098123 0.00324728 0.00213362 0.00160967 0.01132224 0.00387158 0.02234344 0.00243123 0.00376285 0.07607145 0.00300546 0.00822236 0.01381562 0.00136976 
0.02791600 0.05816757 0.01076812 0.00325806 0.00213982 0.00160506 0.01122022 0.00388984 0.02228175 0.00243768 0.00371337 0.07491443 0.00305877 0.00818549 0.01371694 0.00136839 
0.02774167 0.05949135 0.01055015 0.00326802 0.00214312 0.00160132 0.01111006 0.00390891 0.02223479 0.00244267 0.00366194 0.07369571 0.00311403 0.00814902 0.01360875 0.00136699 
0.02761919 0.06081299 0.01032952 0.00327713 0.00214349 0.00159851 0.01099210 0.00392877 0.02220219 0.00244625 0.00360881 0.07241919 0.00317083 0.00811340 0.01349154 0.00136556 
0.02755104 0.06212680 0.01010849 0.00328530 0.00214090 0.00159667 0.01086675 0.00394937 0.02218344 0.00244849 0.00355425 0.07108904 0.00322874 0.00807905 0.01336587 0.00136410 
0.02753942 0.06342722 0.00988934 0.00329250 0.00213533 0.00159585 0.01073448 0.00397070 0.02217794 0.00244944 0.00349852 0.06970978 0.00328733 0.00804643 0.01323235 0.00136263 
0.02758628 0.06470881 0.00967437 0.00329863 0.00212677 0.00159608 0.01059586 0.00399269 0.02218498 0.00244918 0.00344192 0.06828617 0.00334620 0.00801597 0.01309165 0.00136116 
0.02769325 0.06596635 0.00946590 0.00330365 0.00211523 0.00159740 0.01045149 0.00401530 0.02220373 0.00244780 0.00338474 0.06682325 0.00340492 0.00798811 0.01294448 0.00135969 
0.02786168 0.06719483 0.00926622 0.00330747 0.00210073 0.00159986 0.01030207 0.00403847 0.02223331 0.00244537 0.00332728 0.06532633 0.00346310 0.00796329 0.01279162 0.00135824 
0.02809257 0.06838951 0.00907759 0.00331003 0.00208328 0.00160348 0.01014835 0.00406213 0.02227271 0.00244198 0.00326986 0.06380090 0.00352033 0.00794192 0.01263387 0.00135680 
0.02838663 0.06954591 0.00890223 0.00331126 0.00206292 0.00160829 0.00999116 0.00408621 0.02232088 0.00243773 0.00321277 0.06225268 0.00357625 0.00792443 0.01247208 0.00135539 
0.02874424 0.07065991 0.00874232 0.00331108 0.00203971 0.00161431 0.00983137 0.00411062 0.02237671 0.00243271 0.00315635 0.06068756 0.00363047 0.00791121 0.01230715 0.00135403 
0.02916544 0.07172770 0.00859995 0.00330943 0.00201369 0.00162155 0.00966993 0.00413528 0.02243902 0.00242701 0.00310091 0.05911156 0.00368266 0.00790264 0.01214000 0.00135270 
0.02964995 0.07274585 0.00847714 0.00330623 0.00198493 0.00163004 0.00950784 0.00416010 0.02250660 0.00242074 0.00304676 0.05753085 0.00373248 0.00789907 0.01197158 0.00135143 
0.03019716 0.07371131 0.00837578 0.00330142 0.00195352 0.00163977 0.00934614 0.00418497 0.02257820 0.00241399 0.00299421 0.05595170 0.00377961 0.00790085 0.01180286 0.00135022 
0.03080611 0.07462147 0.00829769 0.00329493 0.00191955 0.00165074 0.00918591 0.00420979 0.02265257 0.00240686 0.00294359 0.05438043 0.00382378 0.00790827 0.01163485 0.00134908 
0.03147554 0.07547411 0.00824452 0.00328671 0.00188312 0.00166294 0.00902830 0.00423443 0.02272843 0.00239945 0.00289519 0.05282342 0.00386472 0.00792162 0.01146856 0.00134801 
0.03220386 0.07626747 0.00821782 0.00327669 0.00184433 0.00167637 0.00887446 0.00425880 0.02280452 0.00239185 0.00284930 0.05128706 0.00390219 0.00794114 0.01130499 0.00134702 
0.03298916 0.07700023 0.00821897 0.00326483 0.00180332 0.00169099 0.00872558 0.00428275 0.02287958 0.00238416 0.00280623 0.04977774 0.00393596 0.00796704 0.01114518 0.00134612 
0.03382924 0.07767151 0.00824919 0.00325108 0.00176022 0.00170678 0.00858286 0.00430617 0.02295239 0.00237647 0.00276624 0.04830181 0.00396587 0.00799949 0.01099013 0.00134530 
0.03472160 0.07828092 0.00830954 0.00323541 0.00171516 0.00172371 0.00844754 0.00432891 0.02302175 0.00236887 0.00272960 0.04686553 0.00399175 0.00803863 0.01084085 0.00134457 
0.03566347 0.07882850 0.00840087 0.00321778 0.00166831 0.00174173 0.00832083 0.00435085 0.02308651 0.00236144 0.00269656 0.04547511 0.00401347 0.00808455 0.01069835 0.00134394 
0.03665180 0.07931475 0.00852389 0.00319817 0.00161982 0.00176079 0.00820396 0.00437185 0.02314558 0.00235425 0.00266736 0.04413660 0.00403093 0.00813731 0.01056359 0.00134341 
0.03768329 0.07974061 0.00867909 0.00317657 0.00156986 0.00178084 0.00809812 0.00439175 0.02319792 0.00234738 0.00264222 0.04285593 0.00404406 0.00819692 0.01043751 0.00134298 
0.03875441 0.08010747 0.00886674 0.00315299 0.00151861 0.00180181 0.00800452 0.00441043 0.02324257 0.00234091 0.00262133 0.04163886 0.00405282 0.00826334 0.01032104 0.00134265 
0.03986142 0.08041712 0.00908696 0.00312742 0.00146626 0.00182363 0.00792431 0.00442773 0.02327865 0.00233489 0.00260488 0.04049092 0.00405720 0.00833650 0.01021506 0.00134241 
0.04100036 0.08067176 0.00933961 0.00309989 0.00141301 0.00184622 0.00785861 0.00444351 0.02330535 0.00232937 0.00259302 0.03941746 0.00405721 0.00841628 0.01012039 0.00134228 
0.04216711 0.08087400 0.00962438 0.00307042 0.00135904 0.00186951 0.00780850 0.00445762 0.02332196 0.00232442 0.00258589 0.03842357 0.00405292 0.00850252 0.01003783 0.00134224 
0.04335738 0.08102678 0.00994073 0.00303906 0.00130458 0.00189340 0.00777500 0.00446991 0.02332788 0.00232007 0.00258361 0.03751407 0.00404438 0.00859500 0.00996811 0.00134229 
0.04456675 0.08113339 0.01028791 0.00300587 0.00124983 0.00191781 0.00775908 0.00448025 0.02332259 0.00231636 0.00258627 0.03669351 0.00403171 0.00869348 0.00991192 0.00134244 
0.04579069 0.08119744 0.01066499 0.00297091 0.00119502 0.00194262 0.00776163 0.00448849 0.02330567 0.00231332 0.00259393 0.03596612 0.00401504 0.00879767 0.00986985 0.00134267 
0.04702454 0.08122280 0.01107080 0.00293426 0.00114035 0.00196775 0.00778345 0.00449450 0.02327681 0.00231098 0.00260662 0.03533581 0.00399453 0.00890723 0.00984247 0.00134298 
0.04826363 0.08121360 0.01150401 0.00289602 0.00108606 0.00199308 0.00782527 0.00449814 0.02323583 0.00230935 0.00262437 0.03480615 0.00397035 0.00902180 0.00983025 0.00134337 
0.04950318 0.08117419 0.01196306 0.00285629 0.00103238 0.00201851 0.00788773 0.00449929 0.02318262 0.00230846 0.00264715 0.03438037 0.00394271 0.00914098 0.00983361 0.00134382 
0.05073844 0.08110909 0.01244624 0.00281519 0.00097953 0.00204392 0.00797137 0.00449782 0.02311719 0.00230829 0.00267493 0.03406131 0.00391184 0.00926433 0.00985286 0.00134434 
0.05196462 0.08102295 0.01295165 0.00277284 0.00092774 0.00206920 0.00807661 0.00449361 0.02303967 0.00230886 0.00270763 0.03385145 0.00387800 0.00939138 0.00988826 0.00134491 
0.05317697 0.08092055 0.01347722 0.00272940 0.00087724 0.00209423 0.00820378 0.00448657 0.02295027 0.00231016 0.00274517 0.03375286 0.00384143 0.00952165 0.00993998 0.00134552 
0.05437078 0.08080672 0.01402073 0.00268501 0.00082827 0.00211889 0.00835307 0.00447660 0.02284931 0.00231217 0.00278742 0.03376722 0.00380244 0.00965461 0.01000811 0.00134618 
0.05554140 0.08068633 0.01457981 0.00263985 0.00078105 0.00214308 0.00852458 0.00446360 0.02273721 0.00231489 0.00283423 0.03389580 0.00376131 0.00978973 0.01009265 0.00134685 
0.05668428 0.08056422 0.01515196 0.00259408 0.00073581 0.00216668 0.00871825 0.00444751 0.02261447 0.00231828 0.00288543 0.03413948 0.00371836 0.00992646 0.01019352 0.00134755 
0.05779498 0.08044520 0.01573458 0.00254789 0.00069277 0.00218957 0.00893393 0.00442825 0.02248169 0.00232232 0.00294082 0.03449868 0.00367392 0.01006422 0.01031055 0.00134825 
0.05886918 0.08033397 0.01632493 0.00250147 0.00065215 0.00221164 0.00917133 0.00440578 0.02233953 0.00232699 0.00300017 0.03497346 0.00362830 0.01020246 0.01044350 0.00134896 
0.05990271 0.08023512 0.01692022 0.00245502 0.00061416 0.00223279 0.00943001 0.00438006 0.02218875 0.00233226 0.00306324 0.03556341 0.00358186 0.01034059 0.01059201 0.00134965 
0.06089159 0.08015307 0.01751757 0.00240875 0.00057901 0.00225291 0.00970942 0.00435106 0.02203014 0.00233808 0.00312976 0.03626774 0.00353493 0.01047804 0.01075569 0.00135031 
0.06183201 0.08009205 0.01811404 0.00236287 0.00054689 0.00227191 0.01000889 0.00431879 0.02186458 0.00234443 0.00319943 0.03708523 0.00348787 0.01061424 0.01093403 0.00135095 
0.06272036 0.08005605 0.01870665 0.00231759 0.00051801 0.00228968 0.01032760 0.00428325 0.02169298 0.00235126 0.00327195 0.03801427 0.00344100 0.01074863 0.01112645 0.00135154 
0.06355325 0.08004878 0.01929242 0.00227314 0.00049254 0.00230614 0.01066461 0.00424446 0.02151632 0.00235854 0.00334698 0.03905284 0.00339468 0.01088066 0.01133229 0.00135208 
0.06432755 0.08007369 0.01986833 0.00222973 0.00047065 0.00232120 0.01101888 0.00420248 0.02133557 0.00236621 0.00342419 0.04019854 0.00334925 0.01100980 0.01155084 0.00135256 
0.06504035 0.08013388 0.02043140 0.00218758 0.00045252 0.00233480 0.01138921 0.00415736 0.02115175 0.00237425 0.00350321 0.04144857 0.00330504 0.01113555 0.01178129 0.00135297 
0.06568901 0.08023212 0.02097868 0.00214691 0.00043829 0.00234686 0.01177431 0.00410919 0.02096591 0.00238262 0.00358367 0.04279978 0.00326236 0.01125742 0.01202277 0.00135330 
0.06627114 0.08037079 0.02150723 0.00210793 0.00042810 0.00235733 0.01217280 0.00405807 0.02077908 0.00239126 0.00366518 0.04424866 0.00322154 0.01137499 0.01227437 0.00135355 
0.06678467 0.08055190 0.02201423 0.00207085 0.00042208 0.00236614 0.01258317 0.00400413 0.02059230 0.00240016 0.00374735 0.04579137 0.00318286 0.01148782 0.01253511 0.00135370 
0.06722779 0.08077704 0.02249688 0.00203587 0.00042035 0.00237327 0.01300381 0.00394751 0.02040661 0.00240926 0.00382978 0.04742372 0.00314662 0.01159555 0.01280394 0.00135374 
0.06759896 0.08104739 0.02295253 0.00200319 0.00042299 0.00237867 0.01343305 0.00388836 0.02022301 0.00241853 0.00391208 0.04914125 0.00311309 0.01169785 0.01307980 0.00135368 
0.06789699 0.08136369 0.02337861 0.00197300 0.00043011 0.00238232 0.01386914 0.00382689 0.02004249 0.00242795 0.00399382 0.05093918 0.00308250 0.01179443 0.01336156 0.00135351 
0.06812094 0.08172625 0.02377269 0.00194546 0.00044175 0.00238421 0.01431023 0.00376328 0.01986599 0.00243748 0.00407461 0.05281249 0.00305509 0.01188505 0.01364808 0.00135322 
0.06827020 0.08213494 0.02413246 0.00192075 0.00045798 0.00238433 0.01475445 0.00369777 0.01969444 0.00244710 0.00415404 0.05475590 0.00303108 0.01196953 0.01393816 0.00135281 
0.06834444 0.08258918 0.02445580 0.00189900 0.00047884 0.00238269 0.01519986 0.00363060 0.01952870 0.00245678 0.00423172 0.05676392 0.00301063 0.01204772 0.01423060 0.00135228 
0.06834365 0.08308795 0.02474073 0.00188036 0.00050433 0.00237930 0.01564449 0.00356204 0.01936956 0.00246652 0.00430724 0.05883084 0.00299391 0.01211955 0.01452419 0.00135162 
0.06826810 0.08362982 0.02498546 0.00186494 0.00053446 0.00237419 0.01608634 0.00349237 0.01921777 0.00247629 0.00438023 0.06095080 0.00298107 0.01218500 0.01481769 0.00135083 
0.06811836 0.08421291 0.02518839 0.00185285 0.00056921 0.00236739 0.01652339 0.00342190 0.01907403 0.00248608 0.00445032 0.06311778 0.00297219 0.01224408 0.01510988 0.00134992 
0.06789528 0.08483496 0.02534810 0.00184417 0.00060855 0.00235894 0.01695364 0.00335095 0.01893893 0.00249589 0.00451713 0.06532562 0.00296738 0.01229690 0.01539953 0.00134889 
0.06759997 0.08549329 0.02546341 0.00183896 0.00065242 0.00234891 0.01737509 0.00327985 0.01881302 0.00250572 0.00458034 0.06756808 0.00296667 0.01234359 0.01568542 0.00134773 
0.06723384 0.08618487 0.02553332 0.00183727 0.00070075 0.00233734 0.01778575 0.00320896 0.01869675 0.00251556 0.00463962 0.06983885 0.00297011 0.01238436 0.01596636 0.00134646 
0.06679853 0.08690632 0.02555707 0.00183912 0.00075345 0.00232433 0.01818367 0.00313865 0.01859051 0.00252543 0.00469465 0.07213156 0.00297767 0.01241945 0.01624117 0.00134507 
0.06629594 0.08765393 0.02553413 0.00184452 0.00081041 0.00230993 0.01856696 0.00306930 0.01849459 0.00253533 0.00474516 0.07443983 0.00298935 0.01244919 0.01650871 0.00134357 
0.06572820 0.08842369 0.02546417 0.00185345 0.00087149 0.00229425 0.01893377 0.00300131 0.01840921 0.00254528 0.00479088 0.07675729 0.00300506 0.01247394 0.01676787 0.00134197 
0.06509766 0.08921133 0.02534712 0.00186588 0.00093655 0.00227737 0.01928234 0.00293506 0.01833451 0.00255530 0.00483158 0.07907759 0.00302474 0.01249410 0.01701760 0.00134027 
0.06440687 0.09001236 0.02518311 0.00188174 0.00100544 0.00225940 0.01961098 0.00287099 0.01827053 0.00256540 0.00486704 0.08139445 0.00304827 0.01251013 0.01725688 0.00133848 
0.06365858 0.09082208 0.02497251 0.00190096 0.00107795 0.00224045 0.01991810 0.00280950 0.01821724 0.00257562 0.00489708 0.08370170 0.00307550 0.01252255 0.01748475 0.00133661 
0.06285570 0.09163563 0.02471593 0.00192343 0.00115390 0.00222062 0.02020220 0.00275101 0.01817454 0.00258597 0.00492154 0.08599324 0.00310626 0.01253189 0.01770031 0.00133467 
0.06200131 0.09244802 0.02441419 0.00194904 0.00123307 0.00220005 0.02046192 0.00269595 0.01814222 0.00259650 0.00494030 0.08826313 0.00314038 0.01253874 0.01790273 0.00133267 
0.06109861 0.09325421 0.02406831 0.00197765 0.00131522 0.00217885 0.02069599 0.00264475 0.01812003 0.00260722 0.00495325 0.09050559 0.00317763 0.01254372 0.01809124 0.00133061 
0.06015095 0.09404906 0.02367956 0.00200909 0.00140012 0.00215715 0.02090330 0.00259783 0.01810763 0.00261817 0.00496034 0.09271503 0.00321777 0.01254745 0.01826515 0.00132852 
0.05916174 0.09482749 0.02324938 0.00204319 0.00148748 0.00213507 0.02108288 0.00255560 0.01810462 0.00262940 0.00496153 0.09488606 0.00326056 0.01255061 0.01842385 0.00132639 
0.05813452 0.09558440 0.02277943 0.00207977 0.00157705 0.00211275 0.02123389 0.00251848 0.01811052 0.00264092 0.00495681 0.09701351 0.00330570 0.01255389 0.01856680 0.00132425 
0.05707286 0.09631480 0.02227153 0.00211861 0.00166852 0.00209032 0.02135566 0.00248686 0.01812483 0.00265278 0.00494621 0.09909248 0.00335291 0.01255797 0.01869354 0.00132209 
0.05598040 0.09701382 0.02172771 0.00215948 0.00176160 0.00206791 0.02144766 0.00246114 0.01814695 0.00266502 0.00492978 0.10111832 0.00340187 0.01256356 0.01880372 0.00131994 
0.05486079 0.09767672 0.02115013 0.00220217 0.00185598 0.00204566 0.02150956 0.00244169 0.01817626 0.00267766 0.00490763 0.10308666 0.00345226 0.01257137 0.01889704 0.00131781 
0.05371771 0.09829899 0.02054112 0.00224642 0.00195134 0.00202369 0.02154116 0.00242887 0.01821211 0.00269074 0.00487986 0.10499345 0.00350375 0.01258209 0.01897332 0.00131571 
0.05255482 0.09887632 0.01990315 0.00229198 0.00204734 0.00200213 0.02154245 0.00242302 0.01825379 0.00270429 0.00484662 0.10683494 0.00355599 0.01259642 0.01903246 0.00131364 
0.05137574 0.09940469 0.01923881 0.00233858 0.00214365 0.00198111 0.02151359 0.00242445 0.01830056 0.00271834 0.00480809 0.10860770 0.00360864 0.01261503 0.01907444 0.00131162 
0.05018409 0.09988037 0.01855080 0.00238597 0.00223993 0.00196076 0.02145490 0.00243347 0.01835170 0.00273291 0.00476447 0.11030866 0.00366132 0.01263857 0.01909933 0.00130966 
0.04898338 0.10029997 0.01784192 0.00243388 0.00233584 0.00194118 0.02136690 0.00245034 0.01840642 0.00274803 0.00471599 0.11193508 0.00371369 0.01266767 0.01910731 0.00130777 
0.04777709 0.10066045 0.01711505 0.00248202 0.00243101 0.00192250 0.02125024 0.00247529 0.01846395 0.00276372 0.00466291 0.11348457 0.00376539 0.01270292 0.01909861 0.00130596 
0.04656860 0.10095916 0.01637312 0.00253014 0.00252511 0.00190482 0.02110576 0.00250853 0.01852353 0.00277998 0.00460550 0.11495512 0.00381605 0.01274488 0.01907358 0.00130424 
0.04536116 0.10119387 0.01561913 0.00257796 0.00261779 0.00188823 0.02093447 0.00255025 0.01858438 0.00279684 0.00454407 0.11634507 0.00386533 0.01279405 0.01903264 0.00130261 
0.04415796 0.10136277 0.01485610 0.00262522 0.00270869 0.00187285 0.02073752 0.00260057 0.01864573 0.00281430 0.00447893 0.11765313 0.00391289 0.01285090 0.01897627 0.00130108 
0.04296200 0.10146450 0.01408707 0.00267167 0.00279747 0.00185874 0.02051621 0.00265960 0.01870685 0.00283236 0.00441042 0.11887837 0.00395839 0.01291583 0.01890506 0.00129967 
0.04177621 0.10149816 0.01331507 0.00271707 0.00288379 0.00184600 0.02027199 0.00272741 0.01876701 0.00285101 0.00433888 0.12002024 0.00400151 0.01298921 0.01881965 0.00129837 
0.04060332 0.10146331 0.01254313 0.00276116 0.00296732 0.00183469 0.02000645 0.00280401 0.01882552 0.00287024 0.00426469 0.12107855 0.00404194 0.01307131 0.01872075 0.00129718 
0.03944595 0.10135999 0.01177424 0.00280373 0.00304773 0.00182488 0.01972130 0.00288940 0.01888173 0.00289004 0.00418823 0.12205345 0.00407938 0.01316237 0.01860916 0.00129612 
0.03830652 0.10118873 0.01101135 0.00284458 0.00312471 0.00181662 0.01941838 0.00298352 0.01893500 0.00291038 0.00410987 0.12294545 0.00411356 0.01326254 0.01848571 0.00129519 
0.03718731 0.10095051 0.01025733 0.00288350 0.00319795 0.00180995 0.01909961 0.00308626 0.01898475 0.00293123 0.00403002 0.12375542 0.00414424 0.01337192 0.01835130 0.00129438 
0.03609044 0.10064681 0.00951500 0.00292032 0.00326717 0.00180492 0.01876703 0.00319747 0.01903046 0.00295257 0.00394907 0.12448455 0.00417118 0.01349050 0.01820687 0.00129369 
0.03501782 0.10027954 0.00878708 0.00295489 0.00333207 0.00180153 0.01842276 0.00331698 0.01907163 0.00297435 0.00386742 0.12513435 0.00419416 0.01361825 0.01805340 0.00129313 
0.03397123 0.09985108 0.00807616 0.00298707 0.00339241 0.00179982 0.01806897 0.00344454 0.01910783 0.00299653 0.00378548 0.12570664 0.00421302 0.01375502 0.01789194 0.00129269 
0.03295224 0.09936423 0.00738477 0.00301675 0.00344794 0.00179978 0.01770790 0.00357987 0.01913868 0.00301904 0.00370363 0.12620356 0.00422759 0.01390060 0.01772352 0.00129237 
0.03196228 0.09882220 0.00671526 0.00304383 0.00349843 0.00180142 0.01734186 0.00372266 0.01916386 0.00304184 0.00362228 0.12662750 0.00423775 0.01405472 0.01754925 0.00129216 
0.03100257 0.09822859 0.00606987 0.00306825 0.00354366 0.00180471 0.01697314 0.00387254 0.01918311 0.00306486 0.00354181 0.12698114 0.00424339 0.01421701 0.01737021 0.00129206 
0.03007419 0.09758737 0.00545070 0.00308996 0.00358347 0.00180964 0.01660408 0.00402910 0.01919620 0.00308804 0.00346260 0.12726741 0.00424446 0.01438705 0.01718752 0.00129206 
0.02917806 0.09690283 0.00485967 0.00310896 0.00361767 0.00181618 0.01623701 0.00419190 0.01920300 0.00311129 0.00338501 0.12748946 0.00424091 0.01456432 0.01700232 0.00129216 
0.02831491 0.09617957 0.00429855 0.00312524 0.00364613 0.00182429 0.01587426 0.00436044 0.01920340 0.00313454 0.00330941 0.12765069 0.00423274 0.01474827 0.01681571 0.00129235 
0.02748535 0.09542242 0.00376894 0.00313884 0.00366872 0.00183391 0.01551811 0.00453420 0.01919739 0.00315771 0.00323613 0.12775466 0.00421996 0.01493824 0.01662881 0.00129261 
0.02668982 0.09463649 0.00327227 0.00314981 0.00368536 0.00184499 0.01517083 0.00471261 0.01918498 0.00318071 0.00316549 0.12780514 0.00420265 0.01513355 0.01644274 0.00129294 
0.02592865 0.09382705 0.00280977 0.00315825 0.00369597 0.00185747 0.01483460 0.00489508 0.01916625 0.00320346 0.00309780 0.12780603 0.00418089 0.01533344 0.01625856 0.00129332 
0.02520201 0.09299950 0.00238250 0.00316425 0.00370050 0.00187128 0.01451157 0.00508098 0.01914132 0.00322585 0.00303334 0.12776140 0.00415479 0.01553709 0.01607735 0.00129375 
0.02450997 0.09215939 0.00199134 0.00316795 0.00369894 0.00188632 0.01420376 0.00526965 0.01911039 0.00324781 0.00297238 0.12767542 0.00412450 0.01574365 0.01590012 0.00129422 
0.02385249 0.09131230 0.00163696 0.00316951 0.00369128 0.00190253 0.01391315 0.00546041 0.01907367 0.00326923 0.00291515 0.12755238 0.00409021 0.01595221 0.01572789 0.00129470 
0.02322942 0.09046384 0.00131986 0.00316910 0.00367757 0.00191981 0.01364157 0.00565255 0.01903144 0.00329002 0.00286187 0.12739664 0.00405212 0.01616183 0.01556160 0.00129520 
0.02264052 0.08961960 0.00104034 0.00316692 0.00365787 0.00193807 0.01339076 0.00584535 0.01898401 0.00331008 0.00281274 0.12721262 0.00401047 0.01637155 0.01540215 0.00129569 
0.02208548 0.08878511 0.00079854 0.00316319 0.00363224 0.00195720 0.01316232 0.00603806 0.01893174 0.00332931 0.00276792 0.12700479 0.00396552 0.01658035 0.01525041 0.00129617 
0.02156392 0.08796578 0.00059438 0.00315815 0.00360081 0.00197710 0.01295771 0.00622994 0.01887500 0.00334763 0.00272755 0.12677764 0.00391756 0.01678724 0.01510719 0.00129662 
0.02107538 0.08716687 0.00042763 0.00315205 0.00356371 0.00199767 0.01277824 0.00642021 0.01881422 0.00336494 0.00269175 0.12653566 0.00386690 0.01699117 0.01497321 0.00129703 
0.02061938 0.08639346 0.00029786 0.00314515 0.00352110 0.00201881 0.01262508 0.00660812 0.01874982 0.00338114 0.00266060 0.12628333 0.00381388 0.01719113 0.01484917 0.00129739 
0.02019538 0.08565038 0.00020451 0.00313775 0.00347315 0.00204039 0.01249922 0.00679289 0.01868228 0.00339615 0.00263416 0.12602510 0.00375883 0.01738607 0.01473568 0.00129769 
0.01980284 0.08494223 0.00014683 0.00313012 0.00342009 0.00206231 0.01240149 0.00697376 0.01861206 0.00340989 0.00261247 0.12576535 0.00370214 0.01757499 0.01463329 0.00129791 
0.01944116 0.08427326 0.00012390 0.00312258 0.00336213 0.00208446 0.01233254 0.00714998 0.01853967 0.00342228 0.00259553 0.12550842 0.00364420 0.01775688 0.01454248 0.00129805 
0.01910978 0.08364741 0.00013470 0.00311542 0.00329952 0.00210674 0.01229284 0.00732080 0.01846559 0.00343324 0.00258332 0.12525854 0.00358539 0.01793077 0.01446365 0.00129810 
0.01880809 0.08306827 0.00017804 0.00310896 0.00323254 0.00212902 0.01228270 0.00748550 0.01839033 0.00344270 0.00257579 0.12501984 0.00352613 0.01809570 0.01439714 0.00129804 
0.01853553 0.08253900 0.00025260 0.00310351 0.00316148 0.00215121 0.01230223 0.00764337 0.01831440 0.00345059 0.00257288 0.12479634 0.00346683 0.01825077 0.01434320 0.00129787 
0.01829151 0.08206238 0.00035695 0.00309938 0.00308664 0.00217320 0.01235135 0.00779372 0.01823830 0.00345687 0.00257448 0.12459192 0.00340793 0.01839511 0.01430201 0.00129759 
0.01807549 0.08164074 0.00048956 0.00309689 0.00300834 0.00219490 0.01242981 0.00793592 0.01816252 0.00346147 0.00258048 0.12441030 0.00334985 0.01852792 0.01427368 0.00129718 
0.01788696 0.08127594 0.00064878 0.00309633 0.00292692 0.00221619 0.01253717 0.00806933 0.01808755 0.00346436 0.00259074 0.12425505 0.00329301 0.01864842 0.01425823 0.00129664 
0.01772542 0.08096940 0.00083291 0.00309800 0.00284274 0.00223700 0.01267283 0.00819338 0.01801384 0.00346550 0.00260509 0.12412955 0.00323784 0.01875594 0.01425563 0.00129598 
0.01759040 0.08072205 0.00104014 0.00310219 0.00275615 0.00225724 0.01283599 0.00830752 0.01794187 0.00346485 0.00262334 0.12403699 0.00318476 0.01884984 0.01426575 0.00129518 
0.01748149 0.08053434 0.00126860 0.00310917 0.00266752 0.00227682 0.01302571 0.00841125 0.01787205 0.00346241 0.00264531 0.12398035 0.00313420 0.01892957 0.01428841 0.00129425 
0.01739831 0.08040623 0.00151640 0.00311919 0.00257724 0.00229566 0.01324086 0.00850413 0.01780481 0.00345816 0.00267075 0.12396239 0.00308655 0.01899464 0.01432333 0.00129318 
0.01734050 0.08033723 0.00178157 0.00313251 0.00248569 0.00231370 0.01348017 0.00858574 0.01774051 0.00345210 0.00269946 0.12398564 0.00304220 0.01904467 0.01437020 0.00129198 
0.01730776 0.08032632 0.00206214 0.00314935 0.00239326 0.00233088 0.01374223 0.00865575 0.01767954 0.00344423 0.00273116 0.12405239 0.00300155 0.01907932 0.01442862 0.00129065 
0.01729983 0.08037207 0.00235611 0.00316989 0.00230035 0.00234713 0.01402547 0.00871385 0.01762220 0.00343457 0.00276561 0.12416465 0.00296494 0.01909839 0.01449812 0.00128920 
0.01731646 0.08047256 0.00266148 0.00319434 0.00220733 0.00236242 0.01432821 0.00875982 0.01756882 0.00342313 0.00280253 0.12432421 0.00293273 0.01910172 0.01457820 0.00128763 
0.01735746 0.08062545 0.00297626 0.00322283 0.00211461 0.00237668 0.01464864 0.00879347 0.01751965 0.00340997 0.00284165 0.12453255 0.00290523 0.01908925 0.01466828 0.00128594 
0.01742266 0.08082799 0.00329847 0.00325550 0.00202257 0.00238991 0.01498485 0.00881469 0.01747493 0.00339510 0.00288267 0.12479088 0.00288275 0.01906104 0.01476773 0.00128415 
0.01751192 0.08107702 0.00362616 0.00329246 0.00193160 0.00240205 0.01533484 0.00882342 0.01743488 0.00337859 0.00292532 0.12510011 0.00286556 0.01901719 0.01487589 0.00128227 
0.01762511 0.08136903 0.00395741 0.00333376 0.00184206 0.00241311 0.01569652 0.00881967 0.01739967 0.00336050 0.00296929 0.12546087 0.00285391 0.01895794 0.01499203 0.00128029 
0.01776212 0.08170017 0.00429037 0.00337947 0.00175433 0.00242305 0.01606774 0.00880352 0.01736943 0.00334088 0.00301429 0.12587346 0.00284802 0.01888359 0.01511541 0.00127824 
0.01792284 0.08206629 0.00462322 0.00342958 0.00166877 0.00243189 0.01644629 0.00877509 0.01734427 0.00331981 0.00306002 0.12633790 0.00284808 0.01879452 0.01524523 0.00127613 
0.01810717 0.08246297 0.00495423 0.00348410 0.00158571 0.00243962 0.01682991 0.00873458 0.01732428 0.00329738 0.00310621 0.12685388 0.00285425 0.01869121 0.01538066 0.00127397 
0.01831501 0.08288555 0.00528172 0.00354295 0.00150549 0.00244626 0.01721633 0.00868225 0.01730950 0.00327367 0.00315256 0.12742076 0.00286667 0.01857422 0.01552088 0.00127177 
0.01854623 0.08332919 0.00560412 0.00360608 0.00142843 0.00245181 0.01760326 0.00861841 0.01729995 0.00324877 0.00319878 0.12803761 0.00288542 0.01844418 0.01566501 0.00126954 
