0.04832470 0.01275382 0.00735703 0.00273843 0.00100692 0.00240503 0.00406160 0.00310534 0.01699177 0.00204678 0.00141177 0.00096493 0.00437965 0.00090139 0.00178498 0.00127368 
0.04778637 0.01272749 0.00730192 0.00259793 0.00100772 0.00236838 0.00407759 0.00309926 0.01732723 0.00200476 0.00140024 0.00095432 0.00431899 0.00091289 0.00178375 0.00127348 
0.04717074 0.01269396 0.00724302 0.00246338 0.00100970 0.00233082 0.00409268 0.00309182 0.01765796 0.00196493 0.00138826 0.00094312 0.00425678 0.00092472 0.00178221 0.00127337 
0.04648018 0.01265277 0.00718081 0.00233509 0.00101285 0.00229254 0.00410694 0.00308313 0.01798326 0.00192746 0.00137596 0.00093138 0.00419317 0.00093676 0.00178034 0.00127335 
0.04571749 0.01260346 0.00711580 0.00221333 0.00101714 0.00225373 0.00412048 0.00307331 0.01830243 0.00189254 0.00136349 0.00091912 0.00412835 0.00094890 0.00177812 0.00127341 
0.04488590 0.01254561 0.00704851 0.00209834 0.00102256 0.00221458 0.00413340 0.00306247 0.01861483 0.00186032 0.00135099 0.00090639 0.00406251 0.00096107 0.00177554 0.00127356 
0.04398904 0.01247880 0.00697947 0.00199034 0.00102906 0.00217530 0.00414581 0.00305074 0.01891983 0.00183093 0.00133861 0.00089324 0.00399585 0.00097315 0.00177258 0.00127380 
0.04303093 0.01240267 0.00690922 0.00188950 0.00103661 0.00213606 0.00415782 0.00303825 0.01921684 0.00180448 0.00132653 0.00087971 0.00392858 0.00098507 0.00176923 0.00127412 
0.04201592 0.01231688 0.00683832 0.00179596 0.00104516 0.00209708 0.00416955 0.00302511 0.01950529 0.00178106 0.00131490 0.00086586 0.00386091 0.00099675 0.00176548 0.00127451 
0.04094872 0.01222114 0.00676730 0.00170985 0.00105466 0.00205853 0.00418112 0.00301145 0.01978466 0.00176072 0.00130390 0.00085173 0.00379306 0.00100811 0.00176130 0.00127498 
0.03983429 0.01211519 0.00669674 0.00163124 0.00106504 0.00202061 0.00419265 0.00299740 0.02005446 0.00174350 0.00129370 0.00083739 0.00372528 0.00101910 0.00175670 0.00127551 
0.03867789 0.01199885 0.00662717 0.00156017 0.00107626 0.00198350 0.00420429 0.00298307 0.02031424 0.00172943 0.00128449 0.00082289 0.00365778 0.00102965 0.00175165 0.00127610 
0.03748498 0.01187197 0.00655916 0.00149667 0.00108823 0.00194738 0.00421614 0.00296857 0.02056359 0.00171850 0.00127643 0.00080829 0.00359080 0.00103971 0.00174615 0.00127674 
0.03626123 0.01173447 0.00649324 0.00144071 0.00110090 0.00191241 0.00422835 0.00295403 0.02080215 0.00171069 0.00126971 0.00079365 0.00352459 0.00104924 0.00174018 0.00127742 
0.03501246 0.01158632 0.00642995 0.00139225 0.00111418 0.00187877 0.00424104 0.00293954 0.02102959 0.00170597 0.00126451 0.00077904 0.00345938 0.00105821 0.00173375 0.00127814 
0.03374461 0.01142757 0.00636982 0.00135122 0.00112801 0.00184661 0.00425435 0.00292522 0.02124564 0.00170426 0.00126101 0.00076452 0.00339541 0.00106657 0.00172683 0.00127889 
0.03246370 0.01125832 0.00631336 0.00131752 0.00114229 0.00181607 0.00426839 0.00291116 0.02145006 0.00170549 0.00125937 0.00075013 0.00333292 0.00107431 0.00171942 0.00127965 
0.03117582 0.01107876 0.00626107 0.00129101 0.00115696 0.00178731 0.00428330 0.00289746 0.02164267 0.00170958 0.00125976 0.00073596 0.00327214 0.00108140 0.00171152 0.00128041 
0.02988706 0.01088913 0.00621343 0.00127154 0.00117193 0.00176043 0.00429919 0.00288420 0.02182334 0.00171642 0.00126236 0.00072204 0.00321330 0.00108784 0.00170312 0.00128117 
0.02860345 0.01068976 0.00617088 0.00125892 0.00118711 0.00173557 0.00431619 0.00287146 0.02199195 0.00172588 0.00126731 0.00070845 0.00315663 0.00109362 0.00169422 0.00128191 
0.02733102 0.01048104 0.00613388 0.00125297 0.00120243 0.00171283 0.00433440 0.00285933 0.02214848 0.00173783 0.00127476 0.00069524 0.00310235 0.00109873 0.00168481 0.00128262 
0.02607565 0.01026343 0.00610283 0.00125345 0.00121780 0.00169230 0.00435394 0.00284787 0.02229292 0.00175214 0.00128487 0.00068245 0.00305067 0.00110318 0.00167489 0.00128329 
0.02484311 0.01003747 0.00607810 0.00126012 0.00123314 0.00167407 0.00437490 0.00283714 0.02242531 0.00176866 0.00129775 0.00067014 0.00300179 0.00110696 0.00166446 0.00128391 
0.02363901 0.00980377 0.00606007 0.00127271 0.00124836 0.00165821 0.00439739 0.00282719 0.02254574 0.00178722 0.00131352 0.00065837 0.00295590 0.00111010 0.00165351 0.00128446 
0.02246874 0.00956300 0.00604904 0.00129096 0.00126339 0.00164478 0.00442148 0.00281809 0.02265435 0.00180766 0.00133230 0.00064716 0.00291319 0.00111260 0.00164206 0.00128494 
0.02133748 0.00931592 0.00604531 0.00131457 0.00127816 0.00163382 0.00444727 0.00280987 0.02275131 0.00182981 0.00135419 0.00063656 0.00287381 0.00111447 0.00163011 0.00128533 
0.02025015 0.00906332 0.00604914 0.00134324 0.00129258 0.00162537 0.00447482 0.00280257 0.02283683 0.00185350 0.00137925 0.00062661 0.00283794 0.00111574 0.00161765 0.00128563 
0.01921138 0.00880608 0.00606073 0.00137665 0.00130659 0.00161944 0.00450420 0.00279621 0.02291117 0.00187857 0.00140757 0.00061734 0.00280570 0.00111642 0.00160470 0.00128582 
0.01822549 0.00854513 0.00608028 0.00141448 0.00132011 0.00161604 0.00453547 0.00279082 0.02297461 0.00190482 0.00143918 0.00060877 0.00277723 0.00111653 0.00159126 0.00128589 
0.01729648 0.00828145 0.00610793 0.00145639 0.00133308 0.00161517 0.00456866 0.00278643 0.02302748 0.00193210 0.00147413 0.00060094 0.00275264 0.00111610 0.00157735 0.00128583 
0.01642798 0.00801608 0.00614377 0.00150206 0.00134545 0.00161681 0.00460383 0.00278303 0.02307013 0.00196022 0.00151244 0.00059385 0.00273202 0.00111514 0.00156296 0.00128565 
0.01562327 0.00775008 0.00618787 0.00155114 0.00135716 0.00162093 0.00464099 0.00278064 0.02310293 0.00198903 0.00155411 0.00058753 0.00271545 0.00111367 0.00154813 0.00128532 
0.01488521 0.00748459 0.00624024 0.00160330 0.00136815 0.00162749 0.00468016 0.00277926 0.02312629 0.00201837 0.00159912 0.00058198 0.00270298 0.00111172 0.00153286 0.00128484 
0.01421629 0.00722074 0.00630086 0.00165818 0.00137838 0.00163644 0.00472135 0.00277889 0.02314065 0.00204806 0.00164744 0.00057721 0.00269467 0.00110930 0.00151717 0.00128420 
0.01361858 0.00695972 0.00636967 0.00171546 0.00138781 0.00164771 0.00476456 0.00277951 0.02314645 0.00207798 0.00169903 0.00057321 0.00269054 0.00110644 0.00150108 0.00128341 
0.01309372 0.00670273 0.00644656 0.00177480 0.00139640 0.00166122 0.00480978 0.00278112 0.02314414 0.00210797 0.00175380 0.00056999 0.00269059 0.00110315 0.00148461 0.00128245 
0.01264294 0.00645098 0.00653136 0.00183586 0.00140413 0.00167689 0.00485700 0.00278370 0.02313422 0.00213790 0.00181168 0.00056752 0.00269480 0.00109945 0.00146778 0.00128133 
0.01226704 0.00620571 0.00662390 0.00189833 0.00141096 0.00169463 0.00490617 0.00278722 0.02311715 0.00216764 0.00187256 0.00056581 0.00270315 0.00109535 0.00145063 0.00128004 
0.01196638 0.00596813 0.00672392 0.00196189 0.00141688 0.00171433 0.00495726 0.00279167 0.02309345 0.00219709 0.00193631 0.00056483 0.00271559 0.00109086 0.00143317 0.00127858 
0.01174091 0.00573948 0.00683115 0.00202623 0.00142188 0.00173589 0.00501022 0.00279702 0.02306360 0.00222614 0.00200280 0.00056455 0.00273204 0.00108600 0.00141544 0.00127695 
0.01159016 0.00552095 0.00694528 0.00209105 0.00142595 0.00175918 0.00506501 0.00280325 0.02302810 0.00225470 0.00207187 0.00056496 0.00275242 0.00108077 0.00139748 0.00127515 
0.01151322 0.00531376 0.00706593 0.00215608 0.00142908 0.00178408 0.00512155 0.00281031 0.02298746 0.00228268 0.00214335 0.00056602 0.00277662 0.00107518 0.00137931 0.00127320 
0.01150881 0.00511905 0.00719272 0.00222104 0.00143129 0.00181046 0.00517978 0.00281818 0.02294217 0.00231001 0.00221705 0.00056770 0.00280452 0.00106923 0.00136098 0.00127109 
0.01157524 0.00493797 0.00732520 0.00228568 0.00143257 0.00183818 0.00523963 0.00282683 0.02289272 0.00233665 0.00229276 0.00056996 0.00283598 0.00106294 0.00134252 0.00126882 
0.01171045 0.00477162 0.00746292 0.00234974 0.00143294 0.00186711 0.00530099 0.00283621 0.02283960 0.00236253 0.00237026 0.00057277 0.00287084 0.00105629 0.00132397 0.00126641 
0.01191203 0.00462102 0.00760537 0.00241301 0.00143243 0.00189710 0.00536380 0.00284630 0.02278328 0.00238763 0.00244933 0.00057608 0.00290894 0.00104928 0.00130538 0.00126386 
0.01217721 0.00448720 0.00775201 0.00247527 0.00143106 0.00192801 0.00542796 0.00285706 0.02272423 0.00241191 0.00252972 0.00057985 0.00295008 0.00104192 0.00128679 0.00126119 
0.01250291 0.00437107 0.00790229 0.00253632 0.00142885 0.00195968 0.00549337 0.00286845 0.02266290 0.00243538 0.00261117 0.00058403 0.00299407 0.00103420 0.00126825 0.00125839 
0.01288575 0.00427351 0.00805562 0.00259599 0.00142583 0.00199197 0.00555993 0.00288043 0.02259975 0.00245802 0.00269343 0.00058858 0.00304069 0.00102612 0.00124980 0.00125550 
0.01332208 0.00419531 0.00821141 0.00265412 0.00142206 0.00202474 0.00562753 0.00289297 0.02253520 0.00247984 0.00277621 0.00059344 0.00308972 0.00101767 0.00123150 0.00125251 
0.01380800 0.00413721 0.00836901 0.00271056 0.00141756 0.00205783 0.00569608 0.00290604 0.02246969 0.00250086 0.00285925 0.00059858 0.00314093 0.00100884 0.00121339 0.00124944 
0.01433939 0.00409984 0.00852779 0.00276519 0.00141238 0.00209109 0.00576547 0.00291958 0.02240363 0.00252110 0.00294225 0.00060393 0.00319408 0.00099963 0.00119552 0.00124630 
0.01491193 0.00408375 0.00868709 0.00281789 0.00140658 0.00212439 0.00583559 0.00293358 0.02233743 0.00254061 0.00302492 0.00060945 0.00324891 0.00099003 0.00117796 0.00124312 
0.01552114 0.00408941 0.00884626 0.00286858 0.00140019 0.00215759 0.00590633 0.00294800 0.02227149 0.00255941 0.00310697 0.00061509 0.00330516 0.00098004 0.00116074 0.00123990 
0.01616242 0.00411719 0.00900461 0.00291717 0.00139328 0.00219055 0.00597759 0.00296280 0.02220621 0.00257757 0.00318811 0.00062080 0.00336259 0.00096965 0.00114392 0.00123667 
0.01683103 0.00416735 0.00916149 0.00296360 0.00138590 0.00222313 0.00604927 0.00297795 0.02214197 0.00259513 0.00326805 0.00062652 0.00342091 0.00095885 0.00112756 0.00123344 
0.01752220 0.00424007 0.00931622 0.00300785 0.00137811 0.00225520 0.00612126 0.00299343 0.02207919 0.00261215 0.00334648 0.00063223 0.00347986 0.00094766 0.00111170 0.00123023 
0.01823109 0.00433541 0.00946814 0.00304986 0.00136997 0.00228666 0.00619348 0.00300919 0.02201824 0.00262871 0.00342314 0.00063786 0.00353919 0.00093605 0.00109640 0.00122705 
0.01895285 0.00445334 0.00961660 0.00308964 0.00136152 0.00231737 0.00626582 0.00302522 0.02195952 0.00264486 0.00349773 0.00064337 0.00359861 0.00092404 0.00108170 0.00122393 
0.01968265 0.00459371 0.00976096 0.00312718 0.00135285 0.00234724 0.00633819 0.00304149 0.02190346 0.00266067 0.00356997 0.00064873 0.00365787 0.00091163 0.00106767 0.00122088 
0.02041574 0.00475627 0.00990059 0.00316250 0.00134400 0.00237615 0.00641051 0.00305797 0.02185045 0.00267622 0.00363961 0.00065389 0.00371671 0.00089883 0.00105433 0.00121793 
0.02114740 0.00494066 0.01003490 0.00319562 0.00133505 0.00240402 0.00648270 0.00307464 0.02180093 0.00269158 0.00370637 0.00065880 0.00377488 0.00088564 0.00104174 0.00121508 
0.02187307 0.00514641 0.01016332 0.00322657 0.00132604 0.00243076 0.00655469 0.00309147 0.02175534 0.00270681 0.00377003 0.00066345 0.00383213 0.00087207 0.00102994 0.00121237 
0.02258829 0.00537297 0.01028529 0.00325541 0.00131703 0.00245630 0.00662641 0.00310845 0.02171417 0.00272200 0.00383033 0.00066779 0.00388822 0.00085814 0.00101897 0.00120980 
0.02328879 0.00561965 0.01040031 0.00328219 0.00130810 0.00248055 0.00669779 0.00312557 0.02167789 0.00273719 0.00388707 0.00067180 0.00394294 0.00084388 0.00100888 0.00120740 
0.02397050 0.00588569 0.01050789 0.00330698 0.00129928 0.00250346 0.00676878 0.00314279 0.02164701 0.00275246 0.00394004 0.00067545 0.00399606 0.00082929 0.00099968 0.00120518 
0.02462955 0.00617020 0.01060760 0.00332984 0.00129065 0.00252498 0.00683933 0.00316011 0.02162209 0.00276787 0.00398904 0.00067871 0.00404738 0.00081441 0.00099142 0.00120316 
0.02526232 0.00647222 0.01069905 0.00335087 0.00128224 0.00254506 0.00690940 0.00317751 0.02160370 0.00278347 0.00403392 0.00068156 0.00409673 0.00079926 0.00098412 0.00120135 
0.02586546 0.00679069 0.01078188 0.00337013 0.00127412 0.00256367 0.00697895 0.00319499 0.02159245 0.00279932 0.00407451 0.00068399 0.00414393 0.00078389 0.00097780 0.00119978 
0.02643590 0.00712446 0.01085579 0.00338771 0.00126633 0.00258078 0.00704796 0.00321252 0.02158897 0.00281544 0.00411068 0.00068598 0.00418883 0.00076831 0.00097249 0.00119844 
0.02697089 0.00747230 0.01092052 0.00340372 0.00125891 0.00259638 0.00711639 0.00323011 0.02159394 0.00283189 0.00414233 0.00068753 0.00423129 0.00075257 0.00096819 0.00119736 
0.02746798 0.00783292 0.01097587 0.00341823 0.00125192 0.00261046 0.00718424 0.00324775 0.02160808 0.00284870 0.00416935 0.00068861 0.00427121 0.00073672 0.00096493 0.00119655 
0.02792507 0.00820492 0.01102170 0.00343133 0.00124538 0.00262300 0.00725150 0.00326543 0.02163213 0.00286587 0.00419169 0.00068923 0.00430848 0.00072080 0.00096269 0.00119602 
0.02834043 0.00858688 0.01105791 0.00344313 0.00123934 0.00263403 0.00731815 0.00328314 0.02166689 0.00288344 0.00420929 0.00068939 0.00434303 0.00070486 0.00096148 0.00119577 
0.02871264 0.00897729 0.01108447 0.00345370 0.00123383 0.00264357 0.00738420 0.00330089 0.02171317 0.00290140 0.00422212 0.00068908 0.00437481 0.00068895 0.00096131 0.00119582 
0.02904071 0.00937460 0.01110138 0.00346314 0.00122888 0.00265162 0.00744966 0.00331868 0.02177182 0.00291976 0.00423018 0.00068831 0.00440379 0.00067313 0.00096214 0.00119617 
0.02932398 0.00977721 0.01110873 0.00347153 0.00122451 0.00265822 0.00751452 0.00333650 0.02184375 0.00293850 0.00423350 0.00068708 0.00442996 0.00065744 0.00096398 0.00119683 
0.02956219 0.01018351 0.01110665 0.00347895 0.00122075 0.00266342 0.00757881 0.00335437 0.02192985 0.00295761 0.00423210 0.00068541 0.00445334 0.00064195 0.00096680 0.00119780 
0.02975545 0.01059182 0.01109533 0.00348548 0.00121762 0.00266725 0.00764254 0.00337228 0.02203108 0.00297706 0.00422606 0.00068331 0.00447396 0.00062671 0.00097056 0.00119908 
0.02990426 0.01100048 0.01107500 0.00349117 0.00121513 0.00266977 0.00770572 0.00339025 0.02214840 0.00299681 0.00421545 0.00068078 0.00449189 0.00061180 0.00097525 0.00120067 
0.03000949 0.01140779 0.01104598 0.00349611 0.00121329 0.00267103 0.00776837 0.00340828 0.02228278 0.00301682 0.00420039 0.00067786 0.00450722 0.00059725 0.00098082 0.00120257 
0.03007239 0.01181205 0.01100860 0.00350034 0.00121211 0.00267109 0.00783052 0.00342639 0.02243523 0.00303705 0.00418099 0.00067454 0.00452003 0.00058315 0.00098723 0.00120477 
0.03009455 0.01221158 0.01096328 0.00350391 0.00121160 0.00267002 0.00789217 0.00344458 0.02260673 0.00305743 0.00415742 0.00067086 0.00453048 0.00056954 0.00099444 0.00120728 
0.03007795 0.01260469 0.01091045 0.00350687 0.00121175 0.00266788 0.00795335 0.00346287 0.02279829 0.00307789 0.00412982 0.00066683 0.00453870 0.00055649 0.00100238 0.00121009 
0.03002486 0.01298974 0.01085062 0.00350924 0.00121256 0.00266477 0.00801407 0.00348127 0.02301090 0.00309838 0.00409839 0.00066248 0.00454487 0.00054406 0.00101102 0.00121318 
0.02993791 0.01336509 0.01078433 0.00351106 0.00121403 0.00266074 0.00807434 0.00349981 0.02324552 0.00311881 0.00406333 0.00065783 0.00454917 0.00053229 0.00102027 0.00121655 
0.02982004 0.01372917 0.01071214 0.00351234 0.00121616 0.00265588 0.00813417 0.00351850 0.02350312 0.00313910 0.00402485 0.00065291 0.00455182 0.00052126 0.00103008 0.00122019 
0.02967446 0.01408041 0.01063468 0.00351310 0.00121891 0.00265027 0.00819357 0.00353736 0.02378461 0.00315917 0.00398318 0.00064774 0.00455305 0.00051100 0.00104038 0.00122408 
0.02950464 0.01441734 0.01055259 0.00351332 0.00122229 0.00264399 0.00825254 0.00355642 0.02409088 0.00317892 0.00393858 0.00064235 0.00455310 0.00050157 0.00105111 0.00122822 
0.02931433 0.01473852 0.01046654 0.00351302 0.00122627 0.00263713 0.00831106 0.00357569 0.02442274 0.00319826 0.00389129 0.00063677 0.00455223 0.00049301 0.00106217 0.00123258 
0.02910747 0.01504259 0.01037722 0.00351217 0.00123083 0.00262977 0.00836913 0.00359521 0.02478099 0.00321709 0.00384158 0.00063102 0.00455071 0.00048537 0.00107349 0.00123714 
0.02888821 0.01532827 0.01028536 0.00351075 0.00123596 0.00262200 0.00842673 0.00361500 0.02516631 0.00323533 0.00378973 0.00062513 0.00454882 0.00047867 0.00108501 0.00124190 
0.02866085 0.01559435 0.01019169 0.00350874 0.00124162 0.00261389 0.00848382 0.00363509 0.02557935 0.00325287 0.00373603 0.00061914 0.00454687 0.00047296 0.00109662 0.00124683 
0.02842984 0.01583972 0.01009694 0.00350609 0.00124778 0.00260554 0.00854038 0.00365550 0.02602065 0.00326961 0.00368076 0.00061306 0.00454514 0.00046826 0.00110826 0.00125191 
0.02819975 0.01606335 0.01000185 0.00350278 0.00125442 0.00259701 0.00859635 0.00367627 0.02649065 0.00328546 0.00362422 0.00060693 0.00454396 0.00046459 0.00111982 0.00125712 
0.02797521 0.01626431 0.00990718 0.00349875 0.00126152 0.00258839 0.00865169 0.00369743 0.02698971 0.00330031 0.00356670 0.00060077 0.00454364 0.00046197 0.00113125 0.00126244 
0.02776090 0.01644180 0.00981366 0.00349395 0.00126902 0.00257975 0.00870633 0.00371901 0.02751806 0.00331409 0.00350850 0.00059460 0.00454448 0.00046041 0.00114243 0.00126785 
0.02756151 0.01659508 0.00972201 0.00348833 0.00127691 0.00257117 0.00876021 0.00374104 0.02807582 0.00332669 0.00344992 0.00058847 0.00454680 0.00045991 0.00115331 0.00127331 
0.02738173 0.01672357 0.00963295 0.00348183 0.00128515 0.00256271 0.00881323 0.00376356 0.02866297 0.00333803 0.00339126 0.00058239 0.00455093 0.00046048 0.00116378 0.00127882 
0.02722619 0.01682677 0.00954718 0.00347438 0.00129369 0.00255444 0.00886531 0.00378659 0.02927937 0.00334803 0.00333280 0.00057638 0.00455715 0.00046210 0.00117378 0.00128435 
0.02709942 0.01690431 0.00946536 0.00346594 0.00130251 0.00254642 0.00891634 0.00381017 0.02992475 0.00335661 0.00327482 0.00057047 0.00456578 0.00046476 0.00118321 0.00128986 
0.02700588 0.01695595 0.00938813 0.00345642 0.00131157 0.00253869 0.00896623 0.00383434 0.03059865 0.00336369 0.00321762 0.00056469 0.00457710 0.00046844 0.00119202 0.00129534 
0.02694982 0.01698154 0.00931610 0.00344578 0.00132083 0.00253132 0.00901485 0.00385912 0.03130051 0.00336921 0.00316144 0.00055905 0.00459140 0.00047311 0.00120012 0.00130077 
0.02693538 0.01698107 0.00924982 0.00343394 0.00133025 0.00252435 0.00906207 0.00388454 0.03202959 0.00337311 0.00310656 0.00055358 0.00460894 0.00047875 0.00120744 0.00130612 
0.02696644 0.01695466 0.00918984 0.00342085 0.00133979 0.00251781 0.00910777 0.00391064 0.03278499 0.00337534 0.00305321 0.00054829 0.00462997 0.00048530 0.00121393 0.00131136 
0.02704667 0.01690254 0.00913663 0.00340645 0.00134942 0.00251175 0.00915180 0.00393745 0.03356565 0.00337585 0.00300164 0.00054320 0.00465472 0.00049273 0.00121952 0.00131648 
0.02717947 0.01682506 0.00909061 0.00339068 0.00135909 0.00250618 0.00919401 0.00396498 0.03437037 0.00337460 0.00295206 0.00053834 0.00468341 0.00050099 0.00122415 0.00132144 
0.02736794 0.01672268 0.00905218 0.00337349 0.00136878 0.00250113 0.00923426 0.00399327 0.03519776 0.00337156 0.00290467 0.00053371 0.00471622 0.00051002 0.00122778 0.00132624 
0.02761487 0.01659598 0.00902165 0.00335483 0.00137843 0.00249662 0.00927238 0.00402234 0.03604628 0.00336670 0.00285967 0.00052933 0.00475333 0.00051975 0.00123036 0.00133085 
0.02792272 0.01644567 0.00899928 0.00333467 0.00138802 0.00249266 0.00930822 0.00405221 0.03691423 0.00336002 0.00281723 0.00052522 0.00479486 0.00053013 0.00123185 0.00133525 
0.02829357 0.01627255 0.00898530 0.00331296 0.00139751 0.00248924 0.00934161 0.00408289 0.03779977 0.00335149 0.00277749 0.00052139 0.00484094 0.00054108 0.00123222 0.00133942 
0.02872913 0.01607752 0.00897985 0.00328968 0.00140686 0.00248637 0.00937239 0.00411440 0.03870088 0.00334113 0.00274058 0.00051785 0.00489164 0.00055253 0.00123144 0.00134334 
0.02923073 0.01586161 0.00898301 0.00326481 0.00141604 0.00248404 0.00940040 0.00414675 0.03961542 0.00332893 0.00270664 0.00051460 0.00494702 0.00056439 0.00122950 0.00134701 
0.02979925 0.01562591 0.00899480 0.00323834 0.00142501 0.00248224 0.00942547 0.00417994 0.04054109 0.00331491 0.00267574 0.00051166 0.00500711 0.00057660 0.00122639 0.00135039 
0.03043519 0.01537163 0.00901519 0.00321025 0.00143374 0.00248093 0.00944745 0.00421398 0.04147546 0.00329910 0.00264796 0.00050903 0.00507189 0.00058907 0.00122209 0.00135349 
0.03113858 0.01510005 0.00904407 0.00318057 0.00144220 0.00248011 0.00946617 0.00424886 0.04241599 0.00328152 0.00262335 0.00050672 0.00514131 0.00060171 0.00121661 0.00135629 
0.03190904 0.01481253 0.00908128 0.00314929 0.00145035 0.00247973 0.00948150 0.00428457 0.04336001 0.00326220 0.00260194 0.00050473 0.00521531 0.00061443 0.00120996 0.00135878 
0.03274572 0.01451051 0.00912659 0.00311644 0.00145817 0.00247976 0.00949327 0.00432111 0.04430475 0.00324119 0.00258376 0.00050308 0.00529378 0.00062715 0.00120215 0.00136095 
0.03364736 0.01419550 0.00917970 0.00308206 0.00146564 0.00248016 0.00950138 0.00435845 0.04524734 0.00321854 0.00256878 0.00050175 0.00537656 0.00063978 0.00119321 0.00136280 
0.03461222 0.01386905 0.00924028 0.00304618 0.00147271 0.00248088 0.00950567 0.00439657 0.04618483 0.00319429 0.00255697 0.00050075 0.00546348 0.00065224 0.00118316 0.00136432 
0.03563815 0.01353277 0.00930792 0.00300887 0.00147936 0.00248188 0.00950605 0.00443544 0.04711421 0.00316850 0.00254829 0.00050008 0.00555433 0.00066443 0.00117204 0.00136550 
0.03672255 0.01318834 0.00938216 0.00297017 0.00148558 0.00248309 0.00950241 0.00447502 0.04803240 0.00314124 0.00254267 0.00049974 0.00564885 0.00067628 0.00115989 0.00136636 
0.03786241 0.01283744 0.00946248 0.00293017 0.00149133 0.00248447 0.00949467 0.00451528 0.04893628 0.00311258 0.00254002 0.00049973 0.00574678 0.00068769 0.00114677 0.00136688 
0.03905430 0.01248180 0.00954833 0.00288894 0.00149660 0.00248595 0.00948274 0.00455616 0.04982270 0.00308257 0.00254023 0.00050004 0.00584781 0.00069859 0.00113272 0.00136708 
0.04029441 0.01212316 0.00963911 0.00284658 0.00150136 0.00248747 0.00946658 0.00459762 0.05068851 0.00305129 0.00254319 0.00050068 0.00595159 0.00070890 0.00111780 0.00136695 
0.04157854 0.01176330 0.00973415 0.00280318 0.00150560 0.00248897 0.00944615 0.00463958 0.05153054 0.00301881 0.00254874 0.00050162 0.00605776 0.00071854 0.00110208 0.00136650 
0.04290215 0.01140398 0.00983279 0.00275884 0.00150929 0.00249038 0.00942142 0.00468198 0.05234565 0.00298521 0.00255674 0.00050287 0.00616591 0.00072745 0.00108564 0.00136575 
0.04426036 0.01104697 0.00993430 0.00271370 0.00151243 0.00249164 0.00939240 0.00472476 0.05313073 0.00295057 0.00256702 0.00050443 0.00627564 0.00073557 0.00106854 0.00136469 
0.04564799 0.01069404 0.01003793 0.00266786 0.00151499 0.00249268 0.00935911 0.00476782 0.05388271 0.00291497 0.00257939 0.00050627 0.00638650 0.00074282 0.00105085 0.00136334 
0.04705956 0.01034693 0.01014292 0.00262147 0.00151697 0.00249342 0.00932157 0.00481109 0.05459858 0.00287847 0.00259367 0.00050840 0.00649802 0.00074916 0.00103268 0.00136172 
0.04848937 0.01000736 0.01024847 0.00257464 0.00151836 0.00249381 0.00927987 0.00485447 0.05527542 0.00284117 0.00260965 0.00051080 0.00660972 0.00075453 0.00101409 0.00135983 
0.04993147 0.00967704 0.01035377 0.00252754 0.00151914 0.00249379 0.00923408 0.00489787 0.05591039 0.00280312 0.00262711 0.00051346 0.00672110 0.00075889 0.00099517 0.00135769 
0.05137975 0.00935761 0.01045801 0.00248030 0.00151930 0.00249328 0.00918430 0.00494117 0.05650077 0.00276442 0.00264585 0.00051637 0.00683166 0.00076221 0.00097602 0.00135533 
0.05282793 0.00905071 0.01056038 0.00243307 0.00151886 0.00249223 0.00913067 0.00498429 0.05704394 0.00272514 0.00266563 0.00051952 0.00694086 0.00076446 0.00095672 0.00135274 
0.05426961 0.00875789 0.01066005 0.00238601 0.00151778 0.00249057 0.00907334 0.00502709 0.05753743 0.00268534 0.00268623 0.00052289 0.00704818 0.00076560 0.00093736 0.00134997 
0.05569832 0.00848067 0.01075621 0.00233927 0.00151609 0.00248826 0.00901247 0.00506946 0.05797892 0.00264510 0.00270742 0.00052647 0.00715309 0.00076563 0.00091804 0.00134701 
0.05710754 0.00822051 0.01084806 0.00229301 0.00151377 0.00248524 0.00894827 0.00511129 0.05836623 0.00260449 0.00272896 0.00053025 0.00725505 0.00076453 0.00089884 0.00134390 
0.05849072 0.00797880 0.01093482 0.00224739 0.00151083 0.00248146 0.00888096 0.00515244 0.05869738 0.00256356 0.00275061 0.00053420 0.00735353 0.00076230 0.00087986 0.00134065 
0.05984137 0.00775685 0.01101573 0.00220256 0.00150727 0.00247689 0.00881076 0.00519279 0.05897053 0.00252239 0.00277217 0.00053832 0.00744801 0.00075895 0.00086119 0.00133729 
0.06115305 0.00755591 0.01109006 0.00215868 0.00150310 0.00247148 0.00873794 0.00523221 0.05918406 0.00248104 0.00279338 0.00054259 0.00753796 0.00075448 0.00084290 0.00133383 
0.06241941 0.00737714 0.01115710 0.00211591 0.00149832 0.00246519 0.00866277 0.00527056 0.05933655 0.00243956 0.00281404 0.00054699 0.00762287 0.00074891 0.00082509 0.00133030 
0.06363426 0.00722164 0.01121619 0.00207439 0.00149294 0.00245801 0.00858555 0.00530770 0.05942678 0.00239800 0.00283392 0.00055150 0.00770227 0.00074227 0.00080783 0.00132672 
0.06479155 0.00709038 0.01126671 0.00203426 0.00148697 0.00244990 0.00850658 0.00534351 0.05945374 0.00235642 0.00285282 0.00055610 0.00777567 0.00073459 0.00079121 0.00132312 
0.06588548 0.00698430 0.01130808 0.00199568 0.00148043 0.00244086 0.00842620 0.00537785 0.05941666 0.00231486 0.00287055 0.00056078 0.00784262 0.00072590 0.00077529 0.00131950 
0.06691046 0.00690420 0.01133978 0.00195878 0.00147333 0.00243086 0.00834474 0.00541058 0.05931495 0.00227338 0.00288690 0.00056552 0.00790270 0.00071625 0.00076015 0.00131590 
0.06786118 0.00685081 0.01136134 0.00192367 0.00146568 0.00241992 0.00826256 0.00544157 0.05914831 0.00223200 0.00290171 0.00057029 0.00795550 0.00070569 0.00074586 0.00131233 
0.06873263 0.00682475 0.01137233 0.00189050 0.00145751 0.00240802 0.00818001 0.00547068 0.05891662 0.00219079 0.00291481 0.00057508 0.00800064 0.00069427 0.00073246 0.00130882 
0.06952013 0.00682657 0.01137241 0.00185935 0.00144882 0.00239519 0.00809746 0.00549779 0.05862001 0.00214976 0.00292604 0.00057987 0.00803780 0.00068205 0.00072003 0.00130537 
0.07021936 0.00685669 0.01136129 0.00183035 0.00143965 0.00238142 0.00801529 0.00552277 0.05825884 0.00210895 0.00293527 0.00058464 0.00806665 0.00066910 0.00070860 0.00130203 
0.07082638 0.00691546 0.01133874 0.00180358 0.00143000 0.00236675 0.00793388 0.00554549 0.05783371 0.00206841 0.00294238 0.00058937 0.00808694 0.00065548 0.00069823 0.00129879 
0.07133765 0.00700311 0.01130461 0.00177913 0.00141992 0.00235120 0.00785360 0.00556584 0.05734545 0.00202816 0.00294725 0.00059403 0.00809842 0.00064127 0.00068895 0.00129567 
0.07175005 0.00711979 0.01125882 0.00175707 0.00140942 0.00233481 0.00777483 0.00558370 0.05679509 0.00198823 0.00294979 0.00059862 0.00810091 0.00062654 0.00068080 0.00129270 
0.07206090 0.00726554 0.01120135 0.00173746 0.00139852 0.00231760 0.00769794 0.00559897 0.05618391 0.00194864 0.00294993 0.00060310 0.00809425 0.00061136 0.00067379 0.00128988 
0.07226796 0.00744030 0.01113227 0.00172034 0.00138726 0.00229963 0.00762331 0.00561155 0.05551339 0.00190943 0.00294761 0.00060747 0.00807833 0.00059583 0.00066796 0.00128723 
0.07236948 0.00764394 0.01105171 0.00170577 0.00137566 0.00228094 0.00755129 0.00562134 0.05478524 0.00187063 0.00294278 0.00061169 0.00805309 0.00058001 0.00066331 0.00128476 
0.07236416 0.00787620 0.01095987 0.00169375 0.00136376 0.00226160 0.00748223 0.00562826 0.05400136 0.00183225 0.00293542 0.00061576 0.00801849 0.00056400 0.00065986 0.00128248 
0.07225117 0.00813675 0.01085704 0.00168431 0.00135157 0.00224164 0.00741647 0.00563224 0.05316383 0.00179432 0.00292551 0.00061966 0.00797456 0.00054788 0.00065760 0.00128040 
0.07203018 0.00842516 0.01074356 0.00167743 0.00133915 0.00222115 0.00735433 0.00563319 0.05227495 0.00175688 0.00291306 0.00062336 0.00792136 0.00053172 0.00065654 0.00127852 
0.07170132 0.00874093 0.01061985 0.00167312 0.00132651 0.00220018 0.00729610 0.00563108 0.05133718 0.00171993 0.00289809 0.00062685 0.00785899 0.00051562 0.00065666 0.00127686 
0.07126522 0.00908344 0.01048642 0.00167134 0.00131369 0.00217880 0.00724207 0.00562584 0.05035315 0.00168352 0.00288064 0.00063012 0.00778761 0.00049965 0.00065795 0.00127542 
0.07072297 0.00945203 0.01034380 0.00167204 0.00130073 0.00215709 0.00719249 0.00561744 0.04932564 0.00164766 0.00286076 0.00063315 0.00770739 0.00048390 0.00066039 0.00127420 
0.07007610 0.00984592 0.01019263 0.00167519 0.00128765 0.00213511 0.00714759 0.00560586 0.04825758 0.00161237 0.00283852 0.00063592 0.00761858 0.00046845 0.00066396 0.00127319 
0.06932664 0.01026429 0.01003357 0.00168072 0.00127449 0.00211294 0.00710760 0.00559107 0.04715204 0.00157770 0.00281399 0.00063843 0.00752144 0.00045336 0.00066862 0.00127241 
0.06847701 0.01070621 0.00986738 0.00168854 0.00126129 0.00209066 0.00707267 0.00557308 0.04601220 0.00154365 0.00278727 0.00064065 0.00741628 0.00043872 0.00067434 0.00127186 
0.06753009 0.01117070 0.00969483 0.00169857 0.00124808 0.00206834 0.00704295 0.00555188 0.04484136 0.00151027 0.00275846 0.00064259 0.00730344 0.00042459 0.00068109 0.00127151 
0.06648915 0.01165672 0.00951678 0.00171072 0.00123490 0.00204607 0.00701857 0.00552750 0.04364290 0.00147758 0.00272768 0.00064423 0.00718329 0.00041104 0.00068881 0.00127139 
0.06535784 0.01216315 0.00933409 0.00172487 0.00122177 0.00202390 0.00699960 0.00549997 0.04242028 0.00144561 0.00269504 0.00064556 0.00705625 0.00039813 0.00069748 0.00127147 
0.06414019 0.01268882 0.00914768 0.00174090 0.00120874 0.00200192 0.00698610 0.00546933 0.04117705 0.00141439 0.00266069 0.00064657 0.00692275 0.00038593 0.00070703 0.00127175 
0.06284054 0.01323251 0.00895853 0.00175868 0.00119583 0.00198020 0.00697806 0.00543562 0.03991678 0.00138395 0.00262477 0.00064726 0.00678325 0.00037447 0.00071741 0.00127223 
0.06146359 0.01379295 0.00876759 0.00177808 0.00118309 0.00195881 0.00697548 0.00539892 0.03864310 0.00135432 0.00258741 0.00064763 0.00663824 0.00036382 0.00072858 0.00127289 
0.06001429 0.01436880 0.00857589 0.00179895 0.00117054 0.00193781 0.00697828 0.00535930 0.03735966 0.00132554 0.00254878 0.00064768 0.00648823 0.00035400 0.00074048 0.00127373 
0.05849787 0.01495872 0.00838444 0.00182113 0.00115822 0.00191727 0.00698638 0.00531685 0.03607013 0.00129764 0.00250904 0.00064739 0.00633374 0.00034507 0.00075304 0.00127474 
0.05691979 0.01556128 0.00819427 0.00184448 0.00114616 0.00189724 0.00699964 0.00527166 0.03477817 0.00127065 0.00246833 0.00064678 0.00617531 0.00033705 0.00076622 0.00127590 
0.05528571 0.01617507 0.00800641 0.00186881 0.00113439 0.00187779 0.00701789 0.00522385 0.03348740 0.00124460 0.00242683 0.00064584 0.00601349 0.00032996 0.00077996 0.00127720 
0.05360145 0.01679860 0.00782189 0.00189397 0.00112293 0.00185895 0.00704092 0.00517352 0.03220146 0.00121952 0.00238470 0.00064457 0.00584884 0.00032384 0.00079419 0.00127863 
0.05187301 0.01743040 0.00764173 0.00191979 0.00111182 0.00184077 0.00706851 0.00512080 0.03092391 0.00119545 0.00234210 0.00064300 0.00568193 0.00031868 0.00080886 0.00128017 
0.05010646 0.01806894 0.00746695 0.00194607 0.00110109 0.00182330 0.00710036 0.00506583 0.02965825 0.00117242 0.00229919 0.00064111 0.00551331 0.00031449 0.00082391 0.00128181 
0.04830798 0.01871271 0.00729851 0.00197267 0.00109076 0.00180656 0.00713619 0.00500876 0.02840794 0.00115045 0.00225613 0.00063892 0.00534356 0.00031129 0.00083927 0.00128355 
0.04648379 0.01936015 0.00713738 0.00199938 0.00108086 0.00179059 0.00717564 0.00494972 0.02717633 0.00112959 0.00221308 0.00063643 0.00517323 0.00030907 0.00085491 0.00128535 
0.04464014 0.02000973 0.00698446 0.00202605 0.00107140 0.00177540 0.00721836 0.00488888 0.02596670 0.00110984 0.00217019 0.00063366 0.00500289 0.00030781 0.00087075 0.00128722 
0.04278328 0.02065988 0.00684065 0.00205248 0.00106242 0.00176101 0.00726395 0.00482640 0.02478221 0.00109124 0.00212760 0.00063063 0.00483306 0.00030750 0.00088674 0.00128912 
0.04091940 0.02130907 0.00670677 0.00207853 0.00105394 0.00174742 0.00731200 0.00476245 0.02362592 0.00107381 0.00208545 0.00062733 0.00466428 0.00030813 0.00090284 0.00129106 
0.03905465 0.02195573 0.00658360 0.00210400 0.00104597 0.00173465 0.00736205 0.00469720 0.02250076 0.00105757 0.00204388 0.00062380 0.00449707 0.00030966 0.00091898 0.00129301 
0.03719510 0.02259834 0.00647186 0.00212875 0.00103852 0.00172268 0.00741366 0.00463083 0.02140951 0.00104254 0.00200301 0.00062004 0.00433192 0.00031206 0.00093514 0.00129496 
0.03534668 0.02323538 0.00637220 0.00215261 0.00103163 0.00171151 0.00746634 0.00456351 0.02035484 0.00102873 0.00196295 0.00061606 0.00416930 0.00031531 0.00095125 0.00129690 
0.03351522 0.02386532 0.00628523 0.00217542 0.00102529 0.00170111 0.00751960 0.00449542 0.01933923 0.00101615 0.00192382 0.00061189 0.00400968 0.00031935 0.00096727 0.00129882 
0.03170636 0.02448669 0.00621145 0.00219706 0.00101953 0.00169146 0.00757293 0.00442675 0.01836504 0.00100480 0.00188571 0.00060755 0.00385347 0.00032415 0.00098317 0.00130070 
0.02992558 0.02509803 0.00615132 0.00221737 0.00101435 0.00168255 0.00762582 0.00435767 0.01743444 0.00099471 0.00184871 0.00060305 0.00370109 0.00032966 0.00099890 0.00130252 
0.02817817 0.02569791 0.00610519 0.00223623 0.00100976 0.00167432 0.00767775 0.00428837 0.01654944 0.00098585 0.00181290 0.00059840 0.00355290 0.00033583 0.00101443 0.00130429 
0.02646920 0.02628493 0.00607336 0.00225353 0.00100577 0.00166675 0.00772820 0.00421902 0.01571187 0.00097823 0.00177835 0.00059364 0.00340925 0.00034260 0.00102972 0.00130598 
0.02480350 0.02685772 0.00605602 0.00226915 0.00100238 0.00165979 0.00777666 0.00414981 0.01492338 0.00097184 0.00174512 0.00058877 0.00327046 0.00034992 0.00104476 0.00130760 
0.02318568 0.02741497 0.00605329 0.00228300 0.00099960 0.00165339 0.00782260 0.00408089 0.01418543 0.00096666 0.00171325 0.00058382 0.00313681 0.00035772 0.00105949 0.00130912 
0.02162009 0.02795540 0.00606520 0.00229498 0.00099742 0.00164749 0.00786553 0.00401245 0.01349930 0.00096268 0.00168279 0.00057879 0.00300856 0.00036596 0.00107392 0.00131054 
0.02011083 0.02847778 0.00609169 0.00230504 0.00099584 0.00164205 0.00790493 0.00394464 0.01286609 0.00095987 0.00165375 0.00057372 0.00288592 0.00037455 0.00108799 0.00131186 
0.01866172 0.02898093 0.00613262 0.00231310 0.00099487 0.00163701 0.00794035 0.00387763 0.01228668 0.00095820 0.00162617 0.00056862 0.00276908 0.00038345 0.00110171 0.00131307 
0.01727630 0.02946373 0.00618774 0.00231911 0.00099448 0.00163230 0.00797130 0.00381156 0.01176179 0.00095765 0.00160004 0.00056349 0.00265820 0.00039259 0.00111504 0.00131416 
0.01595784 0.02992511 0.00625674 0.00232304 0.00099468 0.00162786 0.00799736 0.00374658 0.01129192 0.00095818 0.00157536 0.00055837 0.00255340 0.00040191 0.00112798 0.00131514 
0.01470934 0.03036407 0.00633922 0.00232486 0.00099546 0.00162362 0.00801809 0.00368283 0.01087739 0.00095974 0.00155213 0.00055325 0.00245478 0.00041133 0.00114051 0.00131599 
0.01353352 0.03077966 0.00643469 0.00232456 0.00099680 0.00161953 0.00803310 0.00362043 0.01051835 0.00096230 0.00153031 0.00054816 0.00236239 0.00042080 0.00115261 0.00131671 
0.01243279 0.03117100 0.00654259 0.00232214 0.00099868 0.00161552 0.00804204 0.00355950 0.01021472 0.00096580 0.00150989 0.00054310 0.00227627 0.00043025 0.00116427 0.00131731 
0.01140931 0.03153730 0.00666226 0.00231761 0.00100110 0.00161152 0.00804457 0.00350017 0.00996628 0.00097020 0.00149084 0.00053808 0.00219642 0.00043962 0.00117548 0.00131779 
0.01046498 0.03187782 0.00679299 0.00231101 0.00100403 0.00160747 0.00804038 0.00344252 0.00977260 0.00097543 0.00147309 0.00053312 0.00212282 0.00044886 0.00118624 0.00131814 
0.00960140 0.03219189 0.00693400 0.00230237 0.00100746 0.00160330 0.00802923 0.00338666 0.00963308 0.00098143 0.00145662 0.00052821 0.00205540 0.00045790 0.00119653 0.00131837 
0.00881992 0.03247893 0.00708443 0.00229173 0.00101135 0.00159897 0.00801087 0.00333266 0.00954695 0.00098815 0.00144135 0.00052336 0.00199410 0.00046669 0.00120635 0.00131848 
0.00812166 0.03273844 0.00724337 0.00227917 0.00101570 0.00159440 0.00798512 0.00328059 0.00951328 0.00099552 0.00142724 0.00051857 0.00193882 0.00047518 0.00121569 0.00131847 
0.00750747 0.03296999 0.00740985 0.00226476 0.00102046 0.00158956 0.00795183 0.00323052 0.00953096 0.00100347 0.00141421 0.00051384 0.00188944 0.00048331 0.00122455 0.00131836 
0.00697796 0.03317325 0.00758287 0.00224857 0.00102562 0.00158438 0.00791090 0.00318250 0.00959875 0.00101194 0.00140219 0.00050918 0.00184580 0.00049104 0.00123291 0.00131814 
0.00653354 0.03334795 0.00776135 0.00223070 0.00103114 0.00157882 0.00786227 0.00313657 0.00971525 0.00102085 0.00139112 0.00050457 0.00180776 0.00049833 0.00124077 0.00131782 
0.00617438 0.03349392 0.00794421 0.00221126 0.00103699 0.00157284 0.00780591 0.00309277 0.00987893 0.00103013 0.00138092 0.00050002 0.00177514 0.00050513 0.00124814 0.00131741 
0.00590047 0.03361108 0.00813031 0.00219036 0.00104314 0.00156641 0.00774183 0.00305110 0.01008810 0.00103971 0.00137151 0.00049551 0.00174775 0.00051141 0.00125499 0.00131692 
0.00571159 0.03369943 0.00831852 0.00216811 0.00104956 0.00155948 0.00767011 0.00301158 0.01034099 0.00104952 0.00136281 0.00049103 0.00172539 0.00051713 0.00126132 0.00131635 
0.00560733 0.03375906 0.00850765 0.00214465 0.00105621 0.00155205 0.00759085 0.00297422 0.01063570 0.00105949 0.00135474 0.00048658 0.00170784 0.00052227 0.00126713 0.00131572 
0.00558713 0.03379014 0.00869654 0.00212009 0.00106306 0.00154408 0.00750419 0.00293901 0.01097020 0.00106954 0.00134723 0.00048213 0.00169489 0.00052681 0.00127241 0.00131503 
0.00565027 0.03379294 0.00888400 0.00209460 0.00107006 0.00153557 0.00741032 0.00290592 0.01134241 0.00107961 0.00134019 0.00047768 0.00168631 0.00053071 0.00127714 0.00131428 
0.00579586 0.03376781 0.00906886 0.00206829 0.00107719 0.00152650 0.00730947 0.00287494 0.01175013 0.00108963 0.00133356 0.00047322 0.00168188 0.00053397 0.00128133 0.00131350 
0.00602289 0.03371520 0.00924994 0.00204132 0.00108440 0.00151687 0.00720189 0.00284603 0.01219109 0.00109953 0.00132724 0.00046872 0.00168135 0.00053657 0.00128496 0.00131269 
0.00633023 0.03363563 0.00942610 0.00201385 0.00109165 0.00150669 0.00708790 0.00281916 0.01266298 0.00110924 0.00132118 0.00046416 0.00168450 0.00053851 0.00128801 0.00131187 
0.00671660 0.03352972 0.00959621 0.00198600 0.00109890 0.00149598 0.00696782 0.00279427 0.01316341 0.00111872 0.00131529 0.00045954 0.00169109 0.00053978 0.00129049 0.00131103 
0.00718066 0.03339815 0.00975918 0.00195795 0.00110611 0.00148474 0.00684203 0.00277131 0.01368994 0.00112790 0.00130952 0.00045482 0.00170089 0.00054038 0.00129237 0.00131019 
0.00772092 0.03324170 0.00991395 0.00192984 0.00111325 0.00147300 0.00671091 0.00275023 0.01424013 0.00113672 0.00130379 0.00045000 0.00171369 0.00054031 0.00129364 0.00130936 
0.00833583 0.03306124 0.01005950 0.00190181 0.00112026 0.00146080 0.00657489 0.00273096 0.01481147 0.00114514 0.00129805 0.00044505 0.00172925 0.00053959 0.00129430 0.00130855 
0.00902374 0.03285769 0.01019487 0.00187401 0.00112712 0.00144815 0.00643443 0.00271343 0.01540148 0.00115311 0.00129225 0.00043996 0.00174737 0.00053822 0.00129432 0.00130777 
0.00978294 0.03263205 0.01031914 0.00184659 0.00113378 0.00143512 0.00628998 0.00269758 0.01600765 0.00116059 0.00128632 0.00043471 0.00176783 0.00053622 0.00129370 0.00130702 
0.01061161 0.03238540 0.01043145 0.00181969 0.00114020 0.00142173 0.00614205 0.00268333 0.01662748 0.00116755 0.00128022 0.00042929 0.00179045 0.00053361 0.00129242 0.00130632 
0.01150790 0.03211889 0.01053102 0.00179344 0.00114635 0.00140804 0.00599114 0.00267061 0.01725849 0.00117394 0.00127391 0.00042368 0.00181503 0.00053041 0.00129046 0.00130568 
0.01246987 0.03183371 0.01061713 0.00176797 0.00115218 0.00139411 0.00583777 0.00265934 0.01789823 0.00117975 0.00126735 0.00041787 0.00184139 0.00052664 0.00128781 0.00130509 
0.01349553 0.03153113 0.01068913 0.00174341 0.00115767 0.00138000 0.00568248 0.00264945 0.01854427 0.00118495 0.00126051 0.00041184 0.00186937 0.00052234 0.00128446 0.00130457 
0.01458282 0.03121245 0.01074643 0.00171988 0.00116277 0.00136576 0.00552579 0.00264086 0.01919423 0.00118953 0.00125336 0.00040561 0.00189881 0.00051754 0.00128040 0.00130413 
0.01572963 0.03087903 0.01078856 0.00169748 0.00116744 0.00135146 0.00536825 0.00263349 0.01984580 0.00119346 0.00124588 0.00039915 0.00192956 0.00051226 0.00127561 0.00130376 
0.01693378 0.03053229 0.01081509 0.00167632 0.00117167 0.00133716 0.00521040 0.00262727 0.02049669 0.00119676 0.00123805 0.00039247 0.00196149 0.00050655 0.00127008 0.00130348 
0.01819304 0.03017364 0.01082569 0.00165648 0.00117541 0.00132295 0.00505279 0.00262213 0.02114471 0.00119941 0.00122986 0.00038558 0.00199447 0.00050044 0.00126381 0.00130329 
0.01950512 0.02980457 0.01082013 0.00163806 0.00117864 0.00130888 0.00489595 0.00261799 0.02178774 0.00120142 0.00122129 0.00037848 0.00202838 0.00049397 0.00125677 0.00130319 
0.02086767 0.02942655 0.01079824 0.00162113 0.00118133 0.00129503 0.00474040 0.00261481 0.02242372 0.00120281 0.00121235 0.00037118 0.00206314 0.00048718 0.00124897 0.00130318 
0.02227827 0.02904111 0.01075995 0.00160576 0.00118346 0.00128146 0.00458667 0.00261250 0.02305070 0.00120357 0.00120304 0.00036371 0.00209863 0.00048011 0.00124040 0.00130327 
0.02373445 0.02864975 0.01070528 0.00159200 0.00118499 0.00126826 0.00443525 0.00261102 0.02366681 0.00120373 0.00119335 0.00035608 0.00213479 0.00047282 0.00123106 0.00130346 
0.02523366 0.02825400 0.01063433 0.00157990 0.00118592 0.00125549 0.00428663 0.00261031 0.02427028 0.00120331 0.00118331 0.00034833 0.00217152 0.00046533 0.00122095 0.00130374 
0.02677329 0.02785538 0.01054729 0.00156950 0.00118622 0.00124322 0.00414128 0.00261032 0.02485944 0.00120235 0.00117291 0.00034048 0.00220877 0.00045770 0.00121006 0.00130413 
0.02835064 0.02745539 0.01044443 0.00156081 0.00118588 0.00123152 0.00399964 0.00261101 0.02543272 0.00120086 0.00116219 0.00033258 0.00224648 0.00044996 0.00119840 0.00130461 
0.02996295 0.02705552 0.01032612 0.00155387 0.00118488 0.00122045 0.00386214 0.00261233 0.02598866 0.00119888 0.00115115 0.00032468 0.00228459 0.00044217 0.00118599 0.00130519 
0.03160740 0.02665725 0.01019278 0.00154867 0.00118322 0.00121006 0.00372916 0.00261425 0.02652590 0.00119646 0.00113981 0.00031682 0.00232305 0.00043437 0.00117282 0.00130586 
0.03328105 0.02626200 0.01004493 0.00154521 0.00118087 0.00120043 0.00360109 0.00261675 0.02704321 0.00119362 0.00112821 0.00030907 0.00236183 0.00042660 0.00115891 0.00130662 
0.03498090 0.02587118 0.00988317 0.00154349 0.00117785 0.00119159 0.00347827 0.00261979 0.02753946 0.00119041 0.00111637 0.00030149 0.00240087 0.00041891 0.00114429 0.00130746 
0.03670388 0.02548613 0.00970816 0.00154347 0.00117415 0.00118361 0.00336100 0.00262337 0.02801362 0.00118688 0.00110431 0.00029416 0.00244014 0.00041134 0.00112897 0.00130839 
0.03844680 0.02510814 0.00952062 0.00154512 0.00116976 0.00117652 0.00324956 0.00262745 0.02846479 0.00118306 0.00109207 0.00028715 0.00247961 0.00040393 0.00111297 0.00130940 
0.04020641 0.02473847 0.00932136 0.00154842 0.00116469 0.00117036 0.00314421 0.00263204 0.02889218 0.00117902 0.00107968 0.00028054 0.00251925 0.00039672 0.00109633 0.00131049 
0.04197936 0.02437829 0.00911123 0.00155331 0.00115895 0.00116517 0.00304516 0.00263712 0.02929508 0.00117479 0.00106717 0.00027444 0.00255901 0.00038975 0.00107907 0.00131164 
0.04376222 0.02402869 0.00889114 0.00155973 0.00115255 0.00116096 0.00295259 0.00264269 0.02967291 0.00117042 0.00105457 0.00026895 0.00259886 0.00038307 0.00106123 0.00131285 
0.04555148 0.02369072 0.00866205 0.00156763 0.00114549 0.00115777 0.00286665 0.00264875 0.03002520 0.00116596 0.00104193 0.00026416 0.00263877 0.00037669 0.00104286 0.00131412 
0.04734353 0.02336531 0.00842497 0.00157693 0.00113779 0.00115561 0.00278746 0.00265531 0.03035156 0.00116146 0.00102927 0.00026018 0.00267869 0.00037067 0.00102399 0.00131543 
0.04913470 0.02305334 0.00818094 0.00158757 0.00112946 0.00115448 0.00271510 0.00266237 0.03065172 0.00115697 0.00101663 0.00025715 0.00271857 0.00036503 0.00100467 0.00131679 
0.05092122 0.02275556 0.00793104 0.00159947 0.00112054 0.00115438 0.00264962 0.00266993 0.03092546 0.00115253 0.00100404 0.00025517 0.00275839 0.00035981 0.00098495 0.00131819 
0.05269927 0.02247266 0.00767639 0.00161254 0.00111103 0.00115532 0.00259104 0.00267801 0.03117270 0.00114819 0.00099153 0.00025438 0.00279807 0.00035502 0.00096490 0.00131961 
0.05446495 0.02220523 0.00741811 0.00162670 0.00110097 0.00115727 0.00253934 0.00268660 0.03139340 0.00114399 0.00097915 0.00025490 0.00283757 0.00035071 0.00094456 0.00132106 
0.05621430 0.02195374 0.00715737 0.00164185 0.00109038 0.00116023 0.00249449 0.00269573 0.03158763 0.00113997 0.00096693 0.00025689 0.00287683 0.00034690 0.00092399 0.00132252 
0.05794331 0.02171856 0.00689532 0.00165790 0.00107928 0.00116416 0.00245640 0.00270539 0.03175550 0.00113618 0.00095489 0.00026047 0.00291578 0.00034360 0.00090327 0.00132400 
0.05964794 0.02149999 0.00663313 0.00167477 0.00106772 0.00116903 0.00242498 0.00271559 0.03189722 0.00113264 0.00094308 0.00026580 0.00295436 0.00034084 0.00088247 0.00132547 
0.06132410 0.02129819 0.00637198 0.00169235 0.00105572 0.00117481 0.00240009 0.00272634 0.03201303 0.00112939 0.00093151 0.00027301 0.00299248 0.00033863 0.00086165 0.00132694 
0.06296767 0.02111323 0.00611302 0.00171055 0.00104332 0.00118145 0.00238160 0.00273763 0.03210325 0.00112646 0.00092023 0.00028227 0.00303006 0.00033700 0.00084088 0.00132840 
0.06457453 0.02094508 0.00585743 0.00172927 0.00103056 0.00118890 0.00236932 0.00274945 0.03216823 0.00112388 0.00090926 0.00029371 0.00306703 0.00033595 0.00082024 0.00132984 
0.06614056 0.02079360 0.00560632 0.00174843 0.00101747 0.00119712 0.00236306 0.00276182 0.03220837 0.00112167 0.00089863 0.00030749 0.00310330 0.00033551 0.00079982 0.00133126 
0.06766165 0.02065855 0.00536083 0.00176791 0.00100410 0.00120604 0.00236261 0.00277470 0.03222412 0.00111986 0.00088836 0.00032377 0.00313878 0.00033567 0.00077968 0.00133265 
0.06913372 0.02053960 0.00512204 0.00178765 0.00099048 0.00121559 0.00236772 0.00278809 0.03221594 0.00111846 0.00087849 0.00034268 0.00317336 0.00033645 0.00075992 0.00133401 
0.07055271 0.02043633 0.00489101 0.00180754 0.00097666 0.00122571 0.00237816 0.00280196 0.03218433 0.00111748 0.00086904 0.00036439 0.00320696 0.00033785 0.00074060 0.00133533 
0.07191465 0.02034820 0.00466877 0.00182749 0.00096268 0.00123634 0.00239366 0.00281629 0.03212981 0.00111694 0.00086004 0.00038904 0.00323947 0.00033987 0.00072182 0.00133661 
0.07321561 0.02027462 0.00445630 0.00184744 0.00094859 0.00124739 0.00241395 0.00283103 0.03205291 0.00111685 0.00085151 0.00041676 0.00327080 0.00034253 0.00070365 0.00133784 
0.07445177 0.02021490 0.00425454 0.00186729 0.00093443 0.00125878 0.00243876 0.00284615 0.03195417 0.00111721 0.00084348 0.00044771 0.00330084 0.00034581 0.00068618 0.00133902 
0.07561939 0.02016827 0.00406438 0.00188697 0.00092024 0.00127045 0.00246780 0.00286160 0.03183416 0.00111802 0.00083596 0.00048202 0.00332951 0.00034971 0.00066949 0.00134015 
0.07671488 0.02013391 0.00388664 0.00190642 0.00090608 0.00128231 0.00250077 0.00287732 0.03169343 0.00111927 0.00082898 0.00051981 0.00335671 0.00035424 0.00065366 0.00134123 
0.07773475 0.02011091 0.00372212 0.00192556 0.00089198 0.00129427 0.00253738 0.00289326 0.03153252 0.00112097 0.00082258 0.00056120 0.00338233 0.00035938 0.00063876 0.00134225 
0.07867569 0.02009833 0.00357152 0.00194434 0.00087799 0.00130627 0.00257735 0.00290933 0.03135201 0.00112311 0.00081675 0.00060632 0.00340631 0.00036513 0.00062488 0.00134321 
0.07953455 0.02009516 0.00343550 0.00196270 0.00086416 0.00131820 0.00262038 0.00292548 0.03115243 0.00112567 0.00081154 0.00065527 0.00342854 0.00037148 0.00061207 0.00134411 
0.08030836 0.02010036 0.00331466 0.00198058 0.00085053 0.00133001 0.00266617 0.00294160 0.03093433 0.00112865 0.00080696 0.00070814 0.00344897 0.00037842 0.00060043 0.00134496 
0.08099435 0.02011286 0.00320951 0.00199794 0.00083715 0.00134159 0.00271446 0.00295762 0.03069823 0.00113202 0.00080304 0.00076503 0.00346750 0.00038593 0.00059001 0.00134574 
0.08158997 0.02013155 0.00312051 0.00201475 0.00082405 0.00135289 0.00276495 0.00297344 0.03044467 0.00113577 0.00079980 0.00082602 0.00348410 0.00039402 0.00058087 0.00134646 
0.08209290 0.02015533 0.00304804 0.00203095 0.00081128 0.00136382 0.00281739 0.00298896 0.03017415 0.00113989 0.00079726 0.00089116 0.00349869 0.00040266 0.00057307 0.00134712 
0.08250106 0.02018306 0.00299240 0.00204653 0.00079887 0.00137432 0.00287151 0.00300407 0.02988718 0.00114435 0.00079544 0.00096052 0.00351125 0.00041184 0.00056668 0.00134772 
0.08281263 0.02021363 0.00295383 0.00206144 0.00078688 0.00138430 0.00292708 0.00301865 0.02958424 0.00114914 0.00079437 0.00103413 0.00352173 0.00042154 0.00056173 0.00134827 
0.08302605 0.02024591 0.00293249 0.00207568 0.00077533 0.00139372 0.00298385 0.00303261 0.02926583 0.00115422 0.00079407 0.00111202 0.00353012 0.00043174 0.00055827 0.00134876 
0.08314004 0.02027881 0.00292846 0.00208921 0.00076426 0.00140251 0.00304160 0.00304581 0.02893241 0.00115959 0.00079457 0.00119421 0.00353641 0.00044244 0.00055634 0.00134919 
0.08315363 0.02031127 0.00294176 0.00210203 0.00075371 0.00141060 0.00310012 0.00305814 0.02858447 0.00116521 0.00079589 0.00128069 0.00354061 0.00045360 0.00055596 0.00134958 
0.08306613 0.02034224 0.00297231 0.00211411 0.00074370 0.00141796 0.00315924 0.00306947 0.02822247 0.00117106 0.00079806 0.00137146 0.00354273 0.00046522 0.00055717 0.00134991 
0.08287715 0.02037072 0.00301998 0.00212546 0.00073427 0.00142454 0.00321876 0.00307969 0.02784689 0.00117712 0.00080109 0.00146646 0.00354279 0.00047726 0.00055997 0.00135020 
0.08258663 0.02039577 0.00308456 0.00213606 0.00072543 0.00143030 0.00327852 0.00308867 0.02745820 0.00118338 0.00080502 0.00156566 0.00354085 0.00048971 0.00056439 0.00135044 
0.08219481 0.02041650 0.00316577 0.00214591 0.00071723 0.00143520 0.00333839 0.00309630 0.02705688 0.00118979 0.00080987 0.00166900 0.00353696 0.00050256 0.00057042 0.00135064 
0.08170226 0.02043208 0.00326325 0.00215500 0.00070968 0.00143921 0.00339823 0.00310244 0.02664343 0.00119635 0.00081566 0.00177638 0.00353119 0.00051576 0.00057805 0.00135080 
0.08110987 0.02044175 0.00337659 0.00216333 0.00070279 0.00144233 0.00345793 0.00310700 0.02621837 0.00120304 0.00082242 0.00188771 0.00352363 0.00052932 0.00058728 0.00135092 
0.08041884 0.02044482 0.00350530 0.00217090 0.00069659 0.00144452 0.00351739 0.00310986 0.02578221 0.00120983 0.00083016 0.00200288 0.00351436 0.00054319 0.00059808 0.00135102 
0.07963071 0.02044069 0.00364883 0.00217771 0.00069109 0.00144579 0.00357653 0.00311091 0.02533552 0.00121671 0.00083893 0.00212174 0.00350350 0.00055736 0.00061043 0.00135108 
0.07874731 0.02042882 0.00380658 0.00218375 0.00068630 0.00144614 0.00363529 0.00311006 0.02487888 0.00122366 0.00084872 0.00224414 0.00349117 0.00057180 0.00062429 0.00135111 
0.07777082 0.02040880 0.00397787 0.00218902 0.00068223 0.00144556 0.00369360 0.00310721 0.02441290 0.00123067 0.00085957 0.00236992 0.00347750 0.00058649 0.00063961 0.00135113 
0.07670370 0.02038026 0.00416200 0.00219353 0.00067889 0.00144406 0.00375144 0.00310230 0.02393824 0.00123771 0.00087149 0.00249888 0.00346262 0.00060140 0.00065634 0.00135112 
0.07554871 0.02034295 0.00435820 0.00219726 0.00067627 0.00144168 0.00380877 0.00309523 0.02345560 0.00124479 0.00088450 0.00263082 0.00344670 0.00061651 0.00067443 0.00135109 
0.07430890 0.02029672 0.00456564 0.00220021 0.00067438 0.00143842 0.00386558 0.00308596 0.02296571 0.00125189 0.00089861 0.00276552 0.00342988 0.00063179 0.00069380 0.00135105 
0.07298762 0.02024150 0.00478347 0.00220236 0.00067322 0.00143433 0.00392187 0.00307442 0.02246937 0.00125899 0.00091383 0.00290272 0.00341233 0.00064722 0.00071437 0.00135100 
0.07158846 0.02017732 0.00501080 0.00220372 0.00067277 0.00142943 0.00397764 0.00306060 0.02196741 0.00126611 0.00093018 0.00304218 0.00339423 0.00066276 0.00073607 0.00135094 
0.07011527 0.02010429 0.00524670 0.00220426 0.00067303 0.00142377 0.00403291 0.00304445 0.02146074 0.00127321 0.00094766 0.00318362 0.00337575 0.00067839 0.00075881 0.00135087 
0.06857217 0.02002264 0.00549020 0.00220397 0.00067398 0.00141739 0.00408769 0.00302597 0.02095032 0.00128031 0.00096628 0.00332674 0.00335706 0.00069408 0.00078249 0.00135080 
0.06696346 0.01993268 0.00574032 0.00220283 0.00067562 0.00141035 0.00414202 0.00300516 0.02043715 0.00128740 0.00098602 0.00347123 0.00333836 0.00070980 0.00080700 0.00135072 
0.06529368 0.01983479 0.00599605 0.00220081 0.00067792 0.00140269 0.00419592 0.00298203 0.01992232 0.00129448 0.00100688 0.00361678 0.00331982 0.00072552 0.00083224 0.00135064 
0.06356754 0.01972946 0.00625638 0.00219790 0.00068086 0.00139449 0.00424942 0.00295663 0.01940697 0.00130155 0.00102886 0.00376304 0.00330163 0.00074122 0.00085810 0.00135056 
0.06178994 0.01961724 0.00652027 0.00219407 0.00068442 0.00138579 0.00430258 0.00292900 0.01889230 0.00130860 0.00105194 0.00390965 0.00328396 0.00075686 0.00088445 0.00135049 
0.05996593 0.01949878 0.00678668 0.00218928 0.00068858 0.00137668 0.00435541 0.00289920 0.01837958 0.00131564 0.00107610 0.00405626 0.00326699 0.00077241 0.00091117 0.00135042 
0.05810067 0.01937477 0.00705456 0.00218350 0.00069330 0.00136721 0.00440796 0.00286732 0.01787012 0.00132267 0.00110131 0.00420248 0.00325088 0.00078783 0.00093814 0.00135035 
0.05619946 0.01924600 0.00732289 0.00217670 0.00069856 0.00135745 0.00446026 0.00283344 0.01736533 0.00132969 0.00112755 0.00434792 0.00323582 0.00080311 0.00096523 0.00135029 
0.05426768 0.01911328 0.00759062 0.00216885 0.00070433 0.00134749 0.00451234 0.00279768 0.01686663 0.00133671 0.00115477 0.00449217 0.00322194 0.00081820 0.00099230 0.00135024 
0.05231078 0.01897750 0.00785674 0.00215989 0.00071057 0.00133739 0.00456422 0.00276016 0.01637554 0.00134373 0.00118294 0.00463483 0.00320940 0.00083306 0.00101922 0.00135019 
0.05033428 0.01883959 0.00812025 0.00214980 0.00071725 0.00132723 0.00461592 0.00272102 0.01589358 0.00135074 0.00121201 0.00477546 0.00319833 0.00084768 0.00104585 0.00135015 
0.04834370 0.01870050 0.00838016 0.00213854 0.00072432 0.00131708 0.00466746 0.00268043 0.01542235 0.00135776 0.00124191 0.00491364 0.00318887 0.00086201 0.00107207 0.00135012 
0.04634458 0.01856124 0.00863553 0.00212605 0.00073175 0.00130701 0.00471883 0.00263853 0.01496348 0.00136478 0.00127260 0.00504893 0.00318112 0.00087601 0.00109773 0.00135010 
0.04434246 0.01842282 0.00888542 0.00211232 0.00073951 0.00129711 0.00477004 0.00259553 0.01451862 0.00137181 0.00130401 0.00518089 0.00317520 0.00088966 0.00112270 0.00135008 
0.04234283 0.01828628 0.00912896 0.00209729 0.00074754 0.00128743 0.00482106 0.00255160 0.01408947 0.00137885 0.00133605 0.00530906 0.00317118 0.00090291 0.00114684 0.00135008 
0.04035115 0.01815264 0.00936527 0.00208094 0.00075581 0.00127806 0.00487187 0.00250696 0.01367771 0.00138589 0.00136866 0.00543300 0.00316914 0.00091574 0.00117005 0.00135008 
0.03837279 0.01802294 0.00959355 0.00206322 0.00076428 0.00126905 0.00492243 0.00246182 0.01328507 0.00139293 0.00140174 0.00555226 0.00316915 0.00092810 0.00119217 0.00135009 
0.03641304 0.01789821 0.00981304 0.00204411 0.00077290 0.00126048 0.00497270 0.00241640 0.01291324 0.00139998 0.00143521 0.00566637 0.00317123 0.00093996 0.00121310 0.00135011 
0.03447707 0.01777946 0.01002301 0.00202359 0.00078163 0.00125240 0.00502260 0.00237094 0.01256393 0.00140702 0.00146897 0.00577489 0.00317544 0.00095128 0.00123272 0.00135014 
0.03256995 0.01766766 0.01022280 0.00200164 0.00079042 0.00124487 0.00507208 0.00232566 0.01223881 0.00141406 0.00150292 0.00587736 0.00318177 0.00096202 0.00125092 0.00135017 
0.03069660 0.01756378 0.01041180 0.00197823 0.00079924 0.00123795 0.00512104 0.00228082 0.01193954 0.00142108 0.00153694 0.00597335 0.00319022 0.00097216 0.00126760 0.00135021 
0.02886178 0.01746872 0.01058943 0.00195337 0.00080803 0.00123169 0.00516939 0.00223666 0.01166772 0.00142808 0.00157093 0.00606240 0.00320078 0.00098165 0.00128266 0.00135025 
0.02707009 0.01738334 0.01075521 0.00192705 0.00081677 0.00122614 0.00521701 0.00219342 0.01142490 0.00143506 0.00160478 0.00614409 0.00321341 0.00099046 0.00129601 0.00135031 
0.02532596 0.01730846 0.01090870 0.00189929 0.00082539 0.00122132 0.00526379 0.00215137 0.01121257 0.00144199 0.00163835 0.00621800 0.00322807 0.00099854 0.00130758 0.00135036 
0.02363360 0.01724482 0.01104951 0.00187010 0.00083388 0.00121729 0.00530958 0.00211073 0.01103215 0.00144886 0.00167154 0.00628371 0.00324469 0.00100588 0.00131729 0.00135042 
0.02199706 0.01719312 0.01117733 0.00183950 0.00084217 0.00121406 0.00535425 0.00207177 0.01088497 0.00145567 0.00170420 0.00634082 0.00326321 0.00101243 0.00132509 0.00135049 
0.02042014 0.01715396 0.01129190 0.00180754 0.00085025 0.00121167 0.00539764 0.00203472 0.01077225 0.00146240 0.00173623 0.00638894 0.00328352 0.00101816 0.00133092 0.00135055 
0.01890646 0.01712788 0.01139304 0.00177426 0.00085806 0.00121014 0.00543959 0.00199981 0.01069511 0.00146902 0.00176747 0.00642772 0.00330555 0.00102304 0.00133475 0.00135062 
0.01745939 0.01711536 0.01148062 0.00173973 0.00086558 0.00120947 0.00547991 0.00196728 0.01065456 0.00147553 0.00179781 0.00645680 0.00332916 0.00102703 0.00133655 0.00135070 
0.01608208 0.01711677 0.01155458 0.00170402 0.00087277 0.00120968 0.00551844 0.00193734 0.01065146 0.00148190 0.00182712 0.00647585 0.00335425 0.00103012 0.00133631 0.00135077 
0.01477745 0.01713240 0.01161492 0.00166721 0.00087960 0.00121076 0.00555497 0.00191020 0.01068655 0.00148811 0.00185526 0.00648456 0.00338069 0.00103226 0.00133401 0.00135084 
0.01354819 0.01716246 0.01166169 0.00162940 0.00088603 0.00121272 0.00558933 0.00188606 0.01076041 0.00149415 0.00188211 0.00648266 0.00340835 0.00103344 0.00132968 0.00135091 
0.01239674 0.01720706 0.01169504 0.00159071 0.00089205 0.00121555 0.00562131 0.00186509 0.01087345 0.00149999 0.00190754 0.00646989 0.00343708 0.00103363 0.00132333 0.00135099 
0.01132532 0.01726624 0.01171513 0.00155125 0.00089763 0.00121922 0.00565072 0.00184748 0.01102593 0.00150562 0.00193142 0.00644602 0.00346674 0.00103280 0.00131500 0.00135106 
0.01033591 0.01733992 0.01172222 0.00151117 0.00090274 0.00122373 0.00567735 0.00183336 0.01121793 0.00151100 0.00195364 0.00641086 0.00349719 0.00103095 0.00130473 0.00135113 
0.00943025 0.01742796 0.01171659 0.00147062 0.00090736 0.00122904 0.00570100 0.00182288 0.01144936 0.00151612 0.00197409 0.00636424 0.00352828 0.00102804 0.00129258 0.00135120 
0.00860985 0.01753011 0.01169860 0.00142976 0.00091148 0.00123512 0.00572148 0.00181615 0.01171992 0.00152096 0.00199265 0.00630605 0.00355985 0.00102407 0.00127862 0.00135126 
0.00787600 0.01764602 0.01166864 0.00138876 0.00091508 0.00124194 0.00573859 0.00181327 0.01202913 0.00152550 0.00200922 0.00623618 0.00359177 0.00101903 0.00126293 0.00135132 
0.00722977 0.01777530 0.01162716 0.00134782 0.00091815 0.00124946 0.00575214 0.00181431 0.01237634 0.00152971 0.00202370 0.00615459 0.00362389 0.00101290 0.00124562 0.00135138 
0.00667199 0.01791742 0.01157466 0.00130714 0.00092068 0.00125763 0.00576196 0.00181933 0.01276068 0.00153358 0.00203601 0.00606127 0.00365606 0.00100568 0.00122678 0.00135143 
0.00620330 0.01807180 0.01151166 0.00126693 0.00092266 0.00126641 0.00576786 0.00182836 0.01318108 0.00153709 0.00204606 0.00595624 0.00368817 0.00099737 0.00120654 0.00135147 
0.00582412 0.01823779 0.01143873 0.00122742 0.00092409 0.00127573 0.00576968 0.00184142 0.01363629 0.00154023 0.00205378 0.00583959 0.00372007 0.00098797 0.00118501 0.00135151 
0.00553468 0.01841465 0.01135647 0.00118883 0.00092497 0.00128555 0.00576727 0.00185848 0.01412486 0.00154298 0.00205912 0.00571143 0.00375166 0.00097749 0.00116235 0.00135154 
0.00533502 0.01860156 0.01126552 0.00115140 0.00092529 0.00129580 0.00576050 0.00187953 0.01464515 0.00154532 0.00206201 0.00557195 0.00378283 0.00096594 0.00113869 0.00135156 
0.00522499 0.01879767 0.01116652 0.00111539 0.00092508 0.00130643 0.00574924 0.00190449 0.01519533 0.00154724 0.00206242 0.00542134 0.00381346 0.00095333 0.00111420 0.00135157 
0.00520425 0.01900205 0.01106017 0.00108105 0.00092433 0.00131736 0.00573337 0.00193330 0.01577340 0.00154875 0.00206032 0.00525990 0.00384349 0.00093967 0.00108903 0.00135157 
0.00527231 0.01921372 0.01094714 0.00104864 0.00092305 0.00132852 0.00571282 0.00196584 0.01637716 0.00154982 0.00205569 0.00508793 0.00387283 0.00092500 0.00106336 0.00135156 
0.00542851 0.01943164 0.01082815 0.00101842 0.00092125 0.00133986 0.00568752 0.00200200 0.01700427 0.00155046 0.00204853 0.00490582 0.00390143 0.00090933 0.00103736 0.00135153 
0.00567203 0.01965476 0.01070390 0.00099066 0.00091896 0.00135129 0.00565740 0.00204162 0.01765223 0.00155066 0.00203884 0.00471399 0.00392923 0.00089271 0.00101123 0.00135149 
0.00600191 0.01988197 0.01057513 0.00096562 0.00091619 0.00136276 0.00562245 0.00208455 0.01831838 0.00155042 0.00202664 0.00451294 0.00395619 0.00087516 0.00098513 0.00135143 
0.00641704 0.02011214 0.01044255 0.00094357 0.00091296 0.00137417 0.00558266 0.00213058 0.01899993 0.00154976 0.00201197 0.00430319 0.00398231 0.00085672 0.00095927 0.00135135 
0.00691619 0.02034412 0.01030687 0.00092477 0.00090929 0.00138547 0.00553804 0.00217952 0.01969399 0.00154867 0.00199486 0.00408536 0.00400757 0.00083745 0.00093384 0.00135125 
0.00749800 0.02057675 0.01016880 0.00090947 0.00090522 0.00139659 0.00548864 0.00223114 0.02039754 0.00154716 0.00197539 0.00386008 0.00403198 0.00081739 0.00090902 0.00135112 
0.00816098 0.02080885 0.01002903 0.00089793 0.00090076 0.00140743 0.00543452 0.00228519 0.02110747 0.00154525 0.00195362 0.00362807 0.00405557 0.00079660 0.00088501 0.00135097 
0.00890352 0.02103925 0.00988824 0.00089039 0.00089594 0.00141795 0.00537577 0.00234143 0.02182060 0.00154294 0.00192964 0.00339010 0.00407836 0.00077513 0.00086201 0.00135080 
0.00972394 0.02126678 0.00974710 0.00088709 0.00089081 0.00142807 0.00531250 0.00239957 0.02253370 0.00154026 0.00190353 0.00314698 0.00410042 0.00075306 0.00084021 0.00135059 
0.01062040 0.02149028 0.00960623 0.00088824 0.00088538 0.00143771 0.00524487 0.00245933 0.02324347 0.00153723 0.00187543 0.00289958 0.00412180 0.00073045 0.00081978 0.00135035 
0.01159101 0.02170862 0.00946624 0.00089405 0.00087970 0.00144682 0.00517303 0.00252043 0.02394661 0.00153387 0.00184543 0.00264884 0.00414259 0.00070737 0.00080092 0.00135007 
0.01263374 0.02192069 0.00932773 0.00090472 0.00087380 0.00145533 0.00509718 0.00258254 0.02463980 0.00153020 0.00181368 0.00239573 0.00416285 0.00068391 0.00078380 0.00134976 
0.01374651 0.02212540 0.00919122 0.00092042 0.00086771 0.00146317 0.00501754 0.00264537 0.02531975 0.00152624 0.00178033 0.00214128 0.00418271 0.00066014 0.00076859 0.00134940 
0.01492711 0.02232171 0.00905726 0.00094131 0.00086149 0.00147030 0.00493434 0.00270859 0.02598319 0.00152203 0.00174552 0.00188656 0.00420225 0.00063615 0.00075545 0.00134900 
0.01617328 0.02250862 0.00892629 0.00096753 0.00085515 0.00147664 0.00484786 0.00277188 0.02662689 0.00151759 0.00170942 0.00163270 0.00422160 0.00061203 0.00074455 0.00134856 
0.01748264 0.02268517 0.00879878 0.00099919 0.00084875 0.00148216 0.00475838 0.00283492 0.02724771 0.00151296 0.00167221 0.00138086 0.00424087 0.00058788 0.00073601 0.00134806 
0.01885276 0.02285047 0.00867512 0.00103639 0.00084233 0.00148680 0.00466622 0.00289738 0.02784257 0.00150817 0.00163406 0.00113223 0.00426019 0.00056378 0.00072999 0.00134751 
0.02028109 0.02300368 0.00855568 0.00107919 0.00083591 0.00149052 0.00457170 0.00295895 0.02840853 0.00150325 0.00159516 0.00088806 0.00427970 0.00053985 0.00072659 0.00134691 
0.02176502 0.02314401 0.00844075 0.00112764 0.00082955 0.00149327 0.00447519 0.00301931 0.02894276 0.00149823 0.00155572 0.00064961 0.00429952 0.00051618 0.00072594 0.00134624 
0.02330187 0.02327075 0.00833063 0.00118176 0.00082328 0.00149501 0.00437704 0.00307815 0.02944255 0.00149315 0.00151593 0.00041818 0.00431979 0.00049288 0.00072812 0.00134552 
0.02488884 0.02338326 0.00822555 0.00124154 0.00081715 0.00149573 0.00427764 0.00313516 0.02990538 0.00148804 0.00147599 0.00019509 0.00434064 0.00047005 0.00073323 0.00134472 
0.02652309 0.02348096 0.00812569 0.00130693 0.00081119 0.00149538 0.00417741 0.00319005 0.03032889 0.00148293 0.00143612 0.00001833 0.00436220 0.00044780 0.00074133 0.00134387 
0.02820167 0.02356335 0.00803120 0.00137788 0.00080543 0.00149394 0.00407676 0.00324255 0.03071090 0.00147787 0.00139653 0.00022074 0.00438460 0.00042624 0.00075248 0.00134294 
0.02992156 0.02363002 0.00794218 0.00145428 0.00079992 0.00149139 0.00397611 0.00329239 0.03104945 0.00147287 0.00135743 0.00041077 0.00440796 0.00040548 0.00076671 0.00134194 
0.03167966 0.02368063 0.00785870 0.00153601 0.00079470 0.00148772 0.00387591 0.00333930 0.03134279 0.00146798 0.00131903 0.00058707 0.00443239 0.00038562 0.00078406 0.00134086 
0.03347276 0.02371491 0.00778078 0.00162291 0.00078979 0.00148292 0.00377659 0.00338306 0.03158938 0.00146323 0.00128154 0.00074830 0.00445800 0.00036679 0.00080453 0.00133970 
0.03529761 0.02373270 0.00770840 0.00171480 0.00078524 0.00147698 0.00367862 0.00342346 0.03178793 0.00145863 0.00124518 0.00089312 0.00448487 0.00034908 0.00082812 0.00133847 
0.03715085 0.02373389 0.00764151 0.00181147 0.00078107 0.00146990 0.00358244 0.00346028 0.03193739 0.00145423 0.00121014 0.00102020 0.00451310 0.00033260 0.00085479 0.00133716 
0.03902904 0.02371847 0.00758002 0.00191268 0.00077730 0.00146169 0.00348852 0.00349335 0.03203698 0.00145004 0.00117664 0.00112826 0.00454275 0.00031746 0.00088451 0.00133576 
0.04092867 0.02368651 0.00752381 0.00201815 0.00077398 0.00145235 0.00339731 0.00352252 0.03208614 0.00144609 0.00114486 0.00121604 0.00457388 0.00030376 0.00091722 0.00133428 
0.04284613 0.02363818 0.00747273 0.00212759 0.00077113 0.00144190 0.00330926 0.00354766 0.03208460 0.00144239 0.00111500 0.00128231 0.00460652 0.00029159 0.00095286 0.00133271 
0.04477776 0.02357369 0.00742659 0.00224068 0.00076876 0.00143036 0.00322482 0.00356865 0.03203234 0.00143897 0.00108723 0.00132592 0.00464070 0.00028106 0.00099133 0.00133106 
0.04671980 0.02349336 0.00738518 0.00235707 0.00076691 0.00141775 0.00314443 0.00358540 0.03192960 0.00143585 0.00106172 0.00134573 0.00467643 0.00027225 0.00103252 0.00132933 
0.04866843 0.02339758 0.00734829 0.00247639 0.00076558 0.00140409 0.00306852 0.00359786 0.03177690 0.00143303 0.00103865 0.00134070 0.00471369 0.00026525 0.00107633 0.00132751 
0.05061976 0.02328681 0.00731565 0.00259824 0.00076480 0.00138943 0.00299750 0.00360598 0.03157501 0.00143052 0.00101816 0.00130983 0.00475246 0.00026014 0.00112262 0.00132561 
0.05256983 0.02316160 0.00728701 0.00272223 0.00076458 0.00137379 0.00293179 0.00360976 0.03132493 0.00142834 0.00100038 0.00125224 0.00479268 0.00025700 0.00117123 0.00132362 
0.05451463 0.02302255 0.00726207 0.00284790 0.00076493 0.00135722 0.00287176 0.00360920 0.03102795 0.00142648 0.00098545 0.00116709 0.00483429 0.00025590 0.00122202 0.00132155 
0.05645008 0.02287034 0.00724055 0.00297483 0.00076585 0.00133976 0.00281779 0.00360435 0.03068556 0.00142495 0.00097348 0.00105366 0.00487721 0.00025689 0.00127480 0.00131941 
0.05837206 0.02270570 0.00722214 0.00310254 0.00076736 0.00132147 0.00277023 0.00359527 0.03029952 0.00142375 0.00096456 0.00091131 0.00492132 0.00026003 0.00132940 0.00131718 
0.06027643 0.02252944 0.00720655 0.00323058 0.00076945 0.00130238 0.00272939 0.00358203 0.02987177 0.00142288 0.00095877 0.00073952 0.00496651 0.00026538 0.00138562 0.00131488 
0.06215899 0.02234241 0.00719346 0.00335845 0.00077213 0.00128257 0.00269558 0.00356476 0.02940450 0.00142231 0.00095619 0.00053789 0.00501263 0.00027296 0.00144325 0.00131251 
0.06401553 0.02214552 0.00718256 0.00348566 0.00077538 0.00126208 0.00266908 0.00354357 0.02890005 0.00142206 0.00095687 0.00030611 0.00505953 0.00028281 0.00150209 0.00131008 
0.06584183 0.02193973 0.00717356 0.00361174 0.00077921 0.00124099 0.00265014 0.00351862 0.02836097 0.00142210 0.00096084 0.00004403 0.00510702 0.00029494 0.00156190 0.00130758 
0.06763367 0.02172603 0.00716616 0.00373617 0.00078360 0.00121935 0.00263897 0.00349008 0.02778998 0.00142243 0.00096811 0.00024841 0.00515493 0.00030938 0.00162247 0.00130502 
0.06938682 0.02150546 0.00716007 0.00385847 0.00078854 0.00119725 0.00263576 0.00345814 0.02718991 0.00142302 0.00097870 0.00057110 0.00520305 0.00032612 0.00168357 0.00130241 
0.07109710 0.02127910 0.00715501 0.00397815 0.00079402 0.00117474 0.00264067 0.00342302 0.02656376 0.00142386 0.00099257 0.00092381 0.00525115 0.00034515 0.00174494 0.00129975 
0.07276035 0.02104804 0.00715073 0.00409473 0.00080002 0.00115190 0.00265383 0.00338493 0.02591461 0.00142494 0.00100970 0.00130616 0.00529902 0.00036646 0.00180636 0.00129704 
0.07437245 0.02081341 0.00714698 0.00420773 0.00080652 0.00112881 0.00267533 0.00334412 0.02524566 0.00142623 0.00103004 0.00171765 0.00534642 0.00039001 0.00186758 0.00129431 
0.07592935 0.02057635 0.00714354 0.00431668 0.00081349 0.00110554 0.00270524 0.00330083 0.02456016 0.00142771 0.00105352 0.00215759 0.00539309 0.00041577 0.00192836 0.00129154 
0.07742707 0.02033802 0.00714020 0.00442115 0.00082092 0.00108218 0.00274356 0.00325533 0.02386142 0.00142936 0.00108004 0.00262517 0.00543880 0.00044370 0.00198846 0.00128875 
0.07886173 0.02009960 0.00713677 0.00452069 0.00082876 0.00105881 0.00279031 0.00320790 0.02315279 0.00143115 0.00110952 0.00311944 0.00548327 0.00047372 0.00204763 0.00128595 
0.08022954 0.01986224 0.00713310 0.00461490 0.00083701 0.00103550 0.00284543 0.00315881 0.02243764 0.00143308 0.00114184 0.00363927 0.00552626 0.00050578 0.00210565 0.00128314 
0.08152684 0.01962712 0.00712905 0.00470337 0.00084561 0.00101234 0.00290884 0.00310835 0.02171930 0.00143510 0.00117685 0.00418342 0.00556751 0.00053978 0.00216227 0.00128033 
0.08275010 0.01939540 0.00712451 0.00478576 0.00085454 0.00098942 0.00298044 0.00305680 0.02100110 0.00143722 0.00121442 0.00475046 0.00560675 0.00057565 0.00221726 0.00127753 
0.08389594 0.01916824 0.00711939 0.00486170 0.00086377 0.00096682 0.00306007 0.00300447 0.02028633 0.00143939 0.00125438 0.00533886 0.00564373 0.00061329 0.00227042 0.00127474 
0.08496114 0.01894676 0.00711363 0.00493089 0.00087325 0.00094462 0.00314756 0.00295164 0.01957821 0.00144162 0.00129655 0.00594693 0.00567821 0.00065257 0.00232151 0.00127199 
0.08594266 0.01873207 0.00710720 0.00499304 0.00088296 0.00092291 0.00324270 0.00289860 0.01887985 0.00144386 0.00134076 0.00657284 0.00570995 0.00069340 0.00237035 0.00126926 
0.08683766 0.01852528 0.00710009 0.00504789 0.00089284 0.00090176 0.00334525 0.00284563 0.01819431 0.00144612 0.00138679 0.00721465 0.00573872 0.00073564 0.00241673 0.00126658 
0.08764351 0.01832742 0.00709231 0.00509523 0.00090286 0.00088127 0.00345492 0.00279303 0.01752449 0.00144838 0.00143445 0.00787028 0.00576429 0.00077915 0.00246047 0.00126396 
0.08835779 0.01813953 0.00708392 0.00513487 0.00091298 0.00086152 0.00357143 0.00274105 0.01687318 0.00145062 0.00148350 0.00853755 0.00578647 0.00082381 0.00250139 0.00126139 
0.08897831 0.01796258 0.00707498 0.00516665 0.00092315 0.00084257 0.00369444 0.00268997 0.01624301 0.00145284 0.00153374 0.00921415 0.00580506 0.00086945 0.00253934 0.00125889 
0.08950315 0.01779750 0.00706557 0.00519046 0.00093334 0.00082453 0.00382360 0.00264003 0.01563647 0.00145503 0.00158491 0.00989771 0.00581989 0.00091593 0.00257416 0.00125648 
0.08993063 0.01764520 0.00705582 0.00520621 0.00094350 0.00080745 0.00395853 0.00259147 0.01505586 0.00145719 0.00163679 0.01058574 0.00583082 0.00096308 0.00260573 0.00125415 
0.09025934 0.01750651 0.00704584 0.00521387 0.00095359 0.00079143 0.00409883 0.00254453 0.01450331 0.00145930 0.00168914 0.01127569 0.00583770 0.00101075 0.00263392 0.00125191 
0.09048815 0.01738220 0.00703580 0.00521342 0.00096357 0.00077652 0.00424407 0.00249941 0.01398074 0.00146139 0.00174169 0.01196494 0.00584044 0.00105875 0.00265863 0.00124978 
0.09061622 0.01727301 0.00702585 0.00520491 0.00097340 0.00076280 0.00439382 0.00245631 0.01348988 0.00146344 0.00179422 0.01265082 0.00583893 0.00110693 0.00267976 0.00124777 
0.09064301 0.01717961 0.00701619 0.00518839 0.00098303 0.00075034 0.00454763 0.00241540 0.01303225 0.00146548 0.00184647 0.01333062 0.00583311 0.00115511 0.00269725 0.00124587 
0.09056828 0.01710259 0.00700700 0.00516397 0.00099242 0.00073920 0.00470503 0.00237685 0.01260916 0.00146750 0.00189819 0.01400159 0.00582295 0.00120312 0.00271103 0.00124410 
0.09039208 0.01704250 0.00699849 0.00513180 0.00100155 0.00072945 0.00486554 0.00234078 0.01222170 0.00146953 0.00194914 0.01466100 0.00580844 0.00125077 0.00272107 0.00124247 
0.09011479 0.01699980 0.00699088 0.00509204 0.00101036 0.00072114 0.00502867 0.00230733 0.01187073 0.00147159 0.00199909 0.01530610 0.00578957 0.00129790 0.00272734 0.00124097 
0.08973709 0.01697489 0.00698438 0.00504491 0.00101882 0.00071432 0.00519393 0.00227659 0.01155692 0.00147369 0.00204779 0.01593416 0.00576641 0.00134433 0.00272984 0.00123963 
0.08926000 0.01696811 0.00697921 0.00499066 0.00102690 0.00070905 0.00536083 0.00224864 0.01128069 0.00147585 0.00209502 0.01654248 0.00573899 0.00138989 0.00272855 0.00123844 
0.08868482 0.01697971 0.00697561 0.00492956 0.00103457 0.00070537 0.00552886 0.00222353 0.01104225 0.00147812 0.00214056 0.01712843 0.00570743 0.00143442 0.00272352 0.00123741 
0.08801320 0.01700989 0.00697379 0.00486191 0.00104179 0.00070333 0.00569754 0.00220130 0.01084160 0.00148050 0.00218421 0.01768942 0.00567183 0.00147775 0.00271479 0.00123655 
0.08724707 0.01705875 0.00697396 0.00478805 0.00104853 0.00070295 0.00586638 0.00218197 0.01067853 0.00148304 0.00222575 0.01822295 0.00563234 0.00151973 0.00270240 0.00123586 
0.08638868 0.01712635 0.00697635 0.00470834 0.00105477 0.00070427 0.00603488 0.00216552 0.01055261 0.00148577 0.00226500 0.01872660 0.00558913 0.00156020 0.00268642 0.00123534 
0.08544058 0.01721265 0.00698115 0.00462317 0.00106048 0.00070733 0.00620259 0.00215193 0.01046324 0.00148873 0.00230180 0.01919809 0.00554238 0.00159903 0.00266695 0.00123500 
0.08440562 0.01731755 0.00698857 0.00453294 0.00106564 0.00071213 0.00636902 0.00214115 0.01040961 0.00149195 0.00233596 0.01963524 0.00549232 0.00163607 0.00264408 0.00123484 
0.08328693 0.01744090 0.00699876 0.00443809 0.00107023 0.00071870 0.00653375 0.00213312 0.01039073 0.00149547 0.00236736 0.02003602 0.00543919 0.00167120 0.00261793 0.00123487 
0.08208792 0.01758244 0.00701191 0.00433905 0.00107423 0.00072705 0.00669633 0.00212775 0.01040546 0.00149933 0.00239585 0.02039854 0.00538323 0.00170429 0.00258862 0.00123508 
0.08081225 0.01774187 0.00702816 0.00423629 0.00107762 0.00073718 0.00685635 0.00212493 0.01045248 0.00150358 0.00242132 0.02072109 0.00532473 0.00173525 0.00255630 0.00123547 
0.07946386 0.01791884 0.00704764 0.00413028 0.00108041 0.00074911 0.00701343 0.00212454 0.01053034 0.00150825 0.00244367 0.02100215 0.00526398 0.00176398 0.00252111 0.00123605 
0.07804691 0.01811289 0.00707046 0.00402151 0.00108257 0.00076281 0.00716718 0.00212646 0.01063744 0.00151339 0.00246282 0.02124035 0.00520129 0.00179039 0.00248322 0.00123682 
0.07656578 0.01832355 0.00709670 0.00391047 0.00108409 0.00077828 0.00731727 0.00213052 0.01077209 0.00151903 0.00247871 0.02143457 0.00513700 0.00181440 0.00244280 0.00123778 
0.07502508 0.01855027 0.00712644 0.00379766 0.00108499 0.00079551 0.00746338 0.00213657 0.01093245 0.00152522 0.00249128 0.02158387 0.00507143 0.00183596 0.00240003 0.00123892 
0.07342959 0.01879244 0.00715971 0.00368357 0.00108525 0.00081446 0.00760520 0.00214442 0.01111663 0.00153200 0.00250052 0.02168753 0.00500494 0.00185502 0.00235510 0.00124024 
0.07178428 0.01904941 0.00719654 0.00356871 0.00108488 0.00083512 0.00774248 0.00215391 0.01132264 0.00153940 0.00250641 0.02174508 0.00493788 0.00187154 0.00230821 0.00124175 
0.07009427 0.01932048 0.00723692 0.00345357 0.00108388 0.00085746 0.00787498 0.00216483 0.01154844 0.00154746 0.00250897 0.02175626 0.00487062 0.00188550 0.00225957 0.00124343 
0.06836483 0.01960491 0.00728081 0.00333864 0.00108227 0.00088142 0.00800249 0.00217698 0.01179193 0.00155621 0.00250821 0.02172107 0.00480351 0.00189688 0.00220938 0.00124528 
0.06660131 0.01990191 0.00732817 0.00322440 0.00108005 0.00090697 0.00812483 0.00219017 0.01205100 0.00156568 0.00250419 0.02163972 0.00473693 0.00190570 0.00215786 0.00124731 
0.06480920 0.02021067 0.00737891 0.00311134 0.00107723 0.00093406 0.00824187 0.00220417 0.01232350 0.00157590 0.00249698 0.02151270 0.00467124 0.00191198 0.00210523 0.00124950 
0.06299405 0.02053033 0.00743293 0.00299991 0.00107383 0.00096263 0.00835348 0.00221880 0.01260729 0.00158689 0.00248664 0.02134073 0.00460681 0.00191573 0.00205171 0.00125185 
0.06116144 0.02086001 0.00749011 0.00289055 0.00106987 0.00099263 0.00845958 0.00223383 0.01290024 0.00159868 0.00247328 0.02112476 0.00454399 0.00191700 0.00199751 0.00125435 
0.05931701 0.02119882 0.00755028 0.00278369 0.00106538 0.00102398 0.00856012 0.00224906 0.01320026 0.00161127 0.00245701 0.02086601 0.00448314 0.00191586 0.00194287 0.00125700 
0.05746640 0.02154584 0.00761329 0.00267975 0.00106036 0.00105661 0.00865508 0.00226428 0.01350527 0.00162469 0.00243796 0.02056592 0.00442459 0.00191236 0.00188800 0.00125979 
0.05561525 0.02190013 0.00767893 0.00257911 0.00105486 0.00109046 0.00874445 0.00227931 0.01381328 0.00163893 0.00241627 0.02022615 0.00436867 0.00190658 0.00183312 0.00126271 
0.05376915 0.02226074 0.00774700 0.00248214 0.00104890 0.00112544 0.00882828 0.00229395 0.01412234 0.00165400 0.00239211 0.01984862 0.00431571 0.00189862 0.00177846 0.00126576 
0.05193364 0.02262674 0.00781728 0.00238918 0.00104250 0.00116146 0.00890662 0.00230802 0.01443059 0.00166989 0.00236564 0.01943544 0.00426599 0.00188857 0.00172423 0.00126892 
0.05011418 0.02299717 0.00788950 0.00230054 0.00103570 0.00119845 0.00897956 0.00232135 0.01473627 0.00168661 0.00233703 0.01898894 0.00421981 0.00187655 0.00167064 0.00127219 
0.04831614 0.02337107 0.00796343 0.00221652 0.00102853 0.00123630 0.00904721 0.00233379 0.01503770 0.00170412 0.00230649 0.01851163 0.00417743 0.00186267 0.00161789 0.00127556 
0.04654477 0.02374751 0.00803879 0.00213738 0.00102103 0.00127493 0.00910971 0.00234518 0.01533331 0.00172242 0.00227422 0.01800621 0.00413908 0.00184705 0.00156618 0.00127902 
0.04480518 0.02412556 0.00811530 0.00206333 0.00101323 0.00131423 0.00916721 0.00235541 0.01562168 0.00174148 0.00224041 0.01747557 0.00410499 0.00182983 0.00151572 0.00128255 
0.04310230 0.02450430 0.00819267 0.00199460 0.00100516 0.00135411 0.00921988 0.00236435 0.01590147 0.00176126 0.00220529 0.01692272 0.00407535 0.00181115 0.00146667 0.00128616 
0.04144093 0.02488282 0.00827062 0.00193134 0.00099687 0.00139446 0.00926792 0.00237191 0.01617152 0.00178174 0.00216908 0.01635084 0.00405035 0.00179115 0.00141922 0.00128983 
0.03982563 0.02526026 0.00834885 0.00187370 0.00098840 0.00143518 0.00931153 0.00237800 0.01643078 0.00180287 0.00213199 0.01576319 0.00403011 0.00176997 0.00137355 0.00129354 
0.03826078 0.02563575 0.00842706 0.00182179 0.00097977 0.00147616 0.00935092 0.00238258 0.01667834 0.00182460 0.00209426 0.01516318 0.00401478 0.00174778 0.00132979 0.00129730 
0.03675050 0.02600847 0.00850495 0.00177567 0.00097104 0.00151729 0.00938634 0.00238560 0.01691347 0.00184688 0.00205611 0.01455426 0.00400443 0.00172471 0.00128812 0.00130108 
0.03529870 0.02637763 0.00858225 0.00173541 0.00096224 0.00155847 0.00941801 0.00238704 0.01713555 0.00186965 0.00201777 0.01393997 0.00399914 0.00170093 0.00124865 0.00130488 
0.03390901 0.02674245 0.00865865 0.00170100 0.00095341 0.00159958 0.00944617 0.00238690 0.01734414 0.00189284 0.00197947 0.01332389 0.00399894 0.00167658 0.00121152 0.00130868 
0.03258481 0.02710220 0.00873389 0.00167244 0.00094459 0.00164052 0.00947108 0.00238520 0.01753894 0.00191640 0.00194142 0.01270960 0.00400385 0.00165182 0.00117685 0.00131248 
0.03132919 0.02745619 0.00880769 0.00164968 0.00093582 0.00168117 0.00949297 0.00238198 0.01771981 0.00194025 0.00190385 0.01210070 0.00401384 0.00162680 0.00114473 0.00131627 
0.03014494 0.02780377 0.00887980 0.00163263 0.00092713 0.00172143 0.00951210 0.00237731 0.01788676 0.00196430 0.00186696 0.01150077 0.00402887 0.00160165 0.00111525 0.00132003 
0.02903457 0.02814430 0.00894998 0.00162121 0.00091856 0.00176119 0.00952871 0.00237128 0.01803994 0.00198849 0.00183097 0.01091334 0.00404887 0.00157653 0.00108850 0.00132376 
0.02800028 0.02847722 0.00901799 0.00161527 0.00091015 0.00180034 0.00954303 0.00236398 0.01817965 0.00201272 0.00179606 0.01034187 0.00407374 0.00155156 0.00106454 0.00132743 
0.02704395 0.02880198 0.00908361 0.00161466 0.00090192 0.00183878 0.00955529 0.00235554 0.01830634 0.00203691 0.00176243 0.00978975 0.00410335 0.00152687 0.00104342 0.00133106 
0.02616716 0.02911808 0.00914667 0.00161919 0.00089393 0.00187640 0.00956572 0.00234610 0.01842056 0.00206097 0.00173026 0.00926025 0.00413756 0.00150259 0.00102519 0.00133461 
0.02537114 0.02942507 0.00920697 0.00162865 0.00088619 0.00191311 0.00957451 0.00233583 0.01852303 0.00208480 0.00169970 0.00875652 0.00417618 0.00147883 0.00100986 0.00133809 
0.02465683 0.02972253 0.00926436 0.00164283 0.00087873 0.00194881 0.00958188 0.00232490 0.01861457 0.00210831 0.00167092 0.00828157 0.00421903 0.00145570 0.00099746 0.00134148 
0.02402485 0.03001009 0.00931869 0.00166146 0.00087159 0.00198340 0.00958799 0.00231351 0.01869612 0.00213140 0.00164405 0.00783822 0.00426587 0.00143329 0.00098797 0.00134478 
0.02347547 0.03028740 0.00936986 0.00168428 0.00086478 0.00201680 0.00959302 0.00230188 0.01876871 0.00215398 0.00161923 0.00742914 0.00431648 0.00141169 0.00098140 0.00134797 
0.02300868 0.03055417 0.00941776 0.00171101 0.00085833 0.00204891 0.00959712 0.00229022 0.01883348 0.00217595 0.00159656 0.00705679 0.00437058 0.00139096 0.00097772 0.00135106 
0.02262414 0.03081014 0.00946232 0.00174134 0.00085227 0.00207966 0.00960041 0.00227877 0.01889166 0.00219722 0.00157614 0.00672338 0.00442792 0.00137119 0.00097690 0.00135402 
0.02232119 0.03105508 0.00950347 0.00177496 0.00084661 0.00210896 0.00960300 0.00226777 0.01894453 0.00221768 0.00155806 0.00643095 0.00448819 0.00135242 0.00097887 0.00135686 
0.02209889 0.03128880 0.00954119 0.00181155 0.00084136 0.00213676 0.00960500 0.00225749 0.01899345 0.00223724 0.00154238 0.00618124 0.00455108 0.00133469 0.00098359 0.00135956 
0.02195600 0.03151115 0.00957545 0.00185077 0.00083654 0.00216296 0.00960648 0.00224819 0.01903984 0.00225581 0.00152916 0.00597577 0.00461630 0.00131804 0.00099099 0.00136212 
0.02189099 0.03172199 0.00960626 0.00189228 0.00083216 0.00218752 0.00960749 0.00224012 0.01908515 0.00227330 0.00151842 0.00581578 0.00468349 0.00130249 0.00100098 0.00136454 
0.02190207 0.03192124 0.00963363 0.00193574 0.00082823 0.00221037 0.00960807 0.00223357 0.01913084 0.00228962 0.00151018 0.00570225 0.00475234 0.00128804 0.00101348 0.00136681 
0.02198717 0.03210882 0.00965762 0.00198079 0.00082475 0.00223147 0.00960823 0.00222880 0.01917842 0.00230468 0.00150445 0.00563585 0.00482250 0.00127470 0.00102838 0.00136892 
0.02214399 0.03228469 0.00967825 0.00202709 0.00082172 0.00225076 0.00960798 0.00222608 0.01922938 0.00231840 0.00150121 0.00561698 0.00489362 0.00126244 0.00104558 0.00137087 
0.02236996 0.03244882 0.00969562 0.00207427 0.00081915 0.00226821 0.00960729 0.00222569 0.01928521 0.00233071 0.00150043 0.00564577 0.00496535 0.00125124 0.00106495 0.00137266 
0.02266231 0.03260121 0.00970979 0.00212201 0.00081703 0.00228378 0.00960613 0.00222787 0.01934737 0.00234153 0.00150207 0.00572203 0.00503736 0.00124108 0.00108637 0.00137428 
0.02301805 0.03274188 0.00972086 0.00216995 0.00081536 0.00229744 0.00960444 0.00223289 0.01941728 0.00235080 0.00150607 0.00584528 0.00510928 0.00123191 0.00110972 0.00137574 
0.02343400 0.03287086 0.00972893 0.00221776 0.00081411 0.00230917 0.00960216 0.00224098 0.01949634 0.00235846 0.00151234 0.00601478 0.00518079 0.00122366 0.00113484 0.00137702 
0.02390680 0.03298819 0.00973411 0.00226510 0.00081330 0.00231895 0.00959920 0.00225239 0.01958588 0.00236445 0.00152081 0.00622947 0.00525154 0.00121629 0.00116160 0.00137814 
0.02443293 0.03309395 0.00973652 0.00231167 0.00081289 0.00232678 0.00959547 0.00226733 0.01968713 0.00236872 0.00153137 0.00648803 0.00532120 0.00120972 0.00118985 0.00137908 
0.02500870 0.03318818 0.00973628 0.00235714 0.00081287 0.00233264 0.00959087 0.00228599 0.01980129 0.00237124 0.00154390 0.00678887 0.00538946 0.00120387 0.00121944 0.00137986 
0.02563031 0.03327098 0.00973351 0.00240124 0.00081322 0.00233655 0.00958529 0.00230858 0.01992944 0.00237196 0.00155828 0.00713013 0.00545599 0.00119866 0.00125020 0.00138047 
0.02629385 0.03334242 0.00972834 0.00244367 0.00081393 0.00233850 0.00957859 0.00233524 0.02007255 0.00237086 0.00157438 0.00750971 0.00552052 0.00119400 0.00128198 0.00138091 
0.02699529 0.03340259 0.00972089 0.00248418 0.00081496 0.00233852 0.00957066 0.00236614 0.02023151 0.00236793 0.00159204 0.00792525 0.00558274 0.00118980 0.00131462 0.00138118 
0.02773055 0.03345158 0.00971130 0.00252251 0.00081629 0.00233662 0.00956136 0.00240138 0.02040706 0.00236314 0.00161110 0.00837419 0.00564240 0.00118596 0.00134796 0.00138129 
0.02849546 0.03348949 0.00969967 0.00255843 0.00081789 0.00233282 0.00955057 0.00244106 0.02059983 0.00235650 0.00163142 0.00885375 0.00569924 0.00118238 0.00138183 0.00138125 
0.02928582 0.03351640 0.00968611 0.00259175 0.00081973 0.00232717 0.00953815 0.00248526 0.02081031 0.00234801 0.00165281 0.00936097 0.00575303 0.00117897 0.00141607 0.00138105 
0.03009739 0.03353243 0.00967074 0.00262225 0.00082179 0.00231969 0.00952397 0.00253402 0.02103886 0.00233768 0.00167510 0.00989270 0.00580355 0.00117561 0.00145053 0.00138069 
0.03092594 0.03353765 0.00965365 0.00264978 0.00082402 0.00231044 0.00950790 0.00258735 0.02128568 0.00232553 0.00169812 0.01044565 0.00585060 0.00117220 0.00148504 0.00138020 
0.03176721 0.03353216 0.00963494 0.00267418 0.00082640 0.00229945 0.00948983 0.00264524 0.02155083 0.00231160 0.00172167 0.01101640 0.00589402 0.00116865 0.00151945 0.00137956 
0.03261699 0.03351605 0.00961467 0.00269533 0.00082888 0.00228678 0.00946963 0.00270766 0.02183422 0.00229592 0.00174558 0.01160141 0.00593365 0.00116486 0.00155360 0.00137879 
0.03347108 0.03348942 0.00959291 0.00271311 0.00083144 0.00227249 0.00944720 0.00277452 0.02213558 0.00227853 0.00176965 0.01219705 0.00596935 0.00116072 0.00158736 0.00137789 
0.03432537 0.03345235 0.00956972 0.00272745 0.00083403 0.00225664 0.00942245 0.00284573 0.02245452 0.00225949 0.00179371 0.01279964 0.00600102 0.00115616 0.00162057 0.00137687 
0.03517576 0.03340494 0.00954514 0.00273827 0.00083662 0.00223930 0.00939529 0.00292114 0.02279046 0.00223885 0.00181755 0.01340545 0.00602856 0.00115108 0.00165309 0.00137574 
0.03601828 0.03334726 0.00951919 0.00274555 0.00083918 0.00222053 0.00936565 0.00300061 0.02314269 0.00221669 0.00184102 0.01401072 0.00605192 0.00114540 0.00168481 0.00137449 
0.03684902 0.03327942 0.00949190 0.00274925 0.00084165 0.00220041 0.00933347 0.00308393 0.02351033 0.00219309 0.00186391 0.01461171 0.00607106 0.00113905 0.00171559 0.00137315 
0.03766420 0.03320151 0.00946326 0.00274939 0.00084402 0.00217902 0.00929871 0.00317087 0.02389234 0.00216811 0.00188606 0.01520471 0.00608594 0.00113195 0.00174531 0.00137172 
0.03846014 0.03311361 0.00943325 0.00274598 0.00084623 0.00215643 0.00926133 0.00326120 0.02428756 0.00214186 0.00190730 0.01578604 0.00609659 0.00112406 0.00177387 0.00137020 
0.03923330 0.03301583 0.00940187 0.00273907 0.00084826 0.00213274 0.00922134 0.00335462 0.02469467 0.00211442 0.00192747 0.01635213 0.00610302 0.00111533 0.00180117 0.00136861 
0.03998028 0.03290827 0.00936906 0.00272872 0.00085008 0.00210803 0.00917873 0.00345084 0.02511221 0.00208590 0.00194641 0.01689949 0.00610529 0.00110570 0.00182711 0.00136694 
0.04069784 0.03279104 0.00933478 0.00271502 0.00085164 0.00208238 0.00913353 0.00354951 0.02553860 0.00205640 0.00196397 0.01742474 0.00610345 0.00109515 0.00185161 0.00136522 
0.04138288 0.03266426 0.00929897 0.00269806 0.00085292 0.00205589 0.00908578 0.00365028 0.02597212 0.00202603 0.00198001 0.01792467 0.00609762 0.00108366 0.00187459 0.00136344 
0.04203250 0.03252806 0.00926157 0.00267797 0.00085388 0.00202865 0.00903553 0.00375278 0.02641096 0.00199491 0.00199441 0.01839621 0.00608788 0.00107122 0.00189600 0.00136162 
0.04264398 0.03238260 0.00922249 0.00265487 0.00085450 0.00200074 0.00898286 0.00385659 0.02685318 0.00196316 0.00200704 0.01883648 0.00607438 0.00105783 0.00191577 0.00135976 
0.04321475 0.03222801 0.00918165 0.00262893 0.00085475 0.00197227 0.00892786 0.00396131 0.02729679 0.00193089 0.00201780 0.01924279 0.00605727 0.00104350 0.00193386 0.00135787 
0.04374249 0.03206449 0.00913897 0.00260029 0.00085461 0.00194333 0.00887064 0.00406649 0.02773966 0.00189823 0.00202659 0.01961269 0.00603671 0.00102824 0.00195024 0.00135595 
0.04422505 0.03189221 0.00909436 0.00256915 0.00085406 0.00191402 0.00881132 0.00417170 0.02817962 0.00186532 0.00203332 0.01994395 0.00601288 0.00101211 0.00196488 0.00135403 
0.04466050 0.03171140 0.00904771 0.00253568 0.00085307 0.00188442 0.00875004 0.00427646 0.02861446 0.00183226 0.00203793 0.02023456 0.00598599 0.00099513 0.00197777 0.00135209 
0.04504711 0.03152229 0.00899894 0.00250009 0.00085163 0.00185463 0.00868694 0.00438030 0.02904188 0.00179921 0.00204035 0.02048281 0.00595625 0.00097736 0.00198890 0.00135016 
0.04538340 0.03132513 0.00894795 0.00246259 0.00084972 0.00182475 0.00862220 0.00448276 0.02945958 0.00176627 0.00204053 0.02068724 0.00592388 0.00095887 0.00199829 0.00134823 
0.04566809 0.03112022 0.00889466 0.00242338 0.00084734 0.00179486 0.00855599 0.00458334 0.02986523 0.00173359 0.00203844 0.02084666 0.00588913 0.00093973 0.00200594 0.00134631 
0.04590013 0.03090786 0.00883898 0.00238270 0.00084448 0.00176505 0.00848850 0.00468157 0.03025649 0.00170129 0.00203406 0.02096016 0.00585225 0.00092003 0.00201189 0.00134440 
0.04607871 0.03068839 0.00878083 0.00234076 0.00084114 0.00173542 0.00841991 0.00477696 0.03063103 0.00166949 0.00202738 0.02102715 0.00581350 0.00089987 0.00201616 0.00134252 
0.04620326 0.03046218 0.00872016 0.00229781 0.00083730 0.00170605 0.00835043 0.00486905 0.03098656 0.00163833 0.00201839 0.02104729 0.00577315 0.00087934 0.00201880 0.00134067 
0.04627342 0.03022964 0.00865690 0.00225406 0.00083298 0.00167701 0.00828026 0.00495735 0.03132081 0.00160791 0.00200713 0.02102055 0.00573147 0.00085857 0.00201987 0.00133885 
0.04628909 0.02999120 0.00859102 0.00220976 0.00082818 0.00164841 0.00820962 0.00504141 0.03163155 0.00157836 0.00199361 0.02094720 0.00568876 0.00083766 0.00201943 0.00133706 
0.04625039 0.02974732 0.00852250 0.00216514 0.00082291 0.00162030 0.00813871 0.00512079 0.03191665 0.00154979 0.00197787 0.02082778 0.00564530 0.00081675 0.00201754 0.00133532 
0.04615769 0.02949850 0.00845131 0.00212042 0.00081718 0.00159276 0.00806775 0.00519505 0.03217403 0.00152232 0.00195997 0.02066313 0.00560137 0.00079596 0.00201429 0.00133361 
0.04601159 0.02924528 0.00837747 0.00207584 0.00081100 0.00156587 0.00799695 0.00526379 0.03240171 0.00149604 0.00193997 0.02045435 0.00555729 0.00077544 0.00200975 0.00133195 
0.04581293 0.02898821 0.00830102 0.00203161 0.00080440 0.00153970 0.00792650 0.00532660 0.03259782 0.00147105 0.00191795 0.02020283 0.00551334 0.00075533 0.00200402 0.00133034 
0.04556276 0.02872790 0.00822199 0.00198795 0.00079739 0.00151429 0.00785663 0.00538313 0.03276061 0.00144744 0.00189398 0.01991018 0.00546982 0.00073576 0.00199719 0.00132878 
0.04526239 0.02846497 0.00814047 0.00194508 0.00079000 0.00148972 0.00778751 0.00543302 0.03288845 0.00142530 0.00186816 0.01957830 0.00542703 0.00071690 0.00198937 0.00132726 
0.04491334 0.02820008 0.00805655 0.00190320 0.00078226 0.00146603 0.00771933 0.00547597 0.03297986 0.00140472 0.00184060 0.01920928 0.00538525 0.00069888 0.00198066 0.00132580 
0.04451734 0.02793392 0.00797035 0.00186249 0.00077420 0.00144328 0.00765228 0.00551169 0.03303351 0.00138574 0.00181140 0.01880546 0.00534479 0.00068186 0.00197116 0.00132439 
0.04407635 0.02766720 0.00788201 0.00182314 0.00076585 0.00142150 0.00758650 0.00553993 0.03304823 0.00136846 0.00178069 0.01836937 0.00530592 0.00066599 0.00196100 0.00132303 
0.04359255 0.02740066 0.00779171 0.00178532 0.00075725 0.00140074 0.00752216 0.00556046 0.03302302 0.00135290 0.00174858 0.01790371 0.00526892 0.00065141 0.00195028 0.00132172 
0.04306829 0.02713505 0.00769964 0.00174920 0.00074844 0.00138104 0.00745939 0.00557311 0.03295707 0.00133913 0.00171522 0.01741136 0.00523408 0.00063827 0.00193913 0.00132046 
0.04250614 0.02687116 0.00760601 0.00171491 0.00073945 0.00136241 0.00739831 0.00557773 0.03284973 0.00132718 0.00168073 0.01689534 0.00520164 0.00062670 0.00192766 0.00131925 
0.04190886 0.02660977 0.00751108 0.00168261 0.00073033 0.00134489 0.00733901 0.00557420 0.03270058 0.00131708 0.00164525 0.01635878 0.00517188 0.00061685 0.00191599 0.00131809 
0.04127938 0.02635169 0.00741512 0.00165239 0.00072111 0.00132850 0.00728159 0.00556245 0.03250937 0.00130885 0.00160894 0.01580494 0.00514503 0.00060884 0.00190423 0.00131697 
0.04062079 0.02609773 0.00731842 0.00162438 0.00071186 0.00131324 0.00722611 0.00554246 0.03227605 0.00130250 0.00157194 0.01523713 0.00512133 0.00060280 0.00189251 0.00131589 
0.03993635 0.02584870 0.00722129 0.00159866 0.00070261 0.00129913 0.00717262 0.00551422 0.03200078 0.00129803 0.00153440 0.01465874 0.00510102 0.00059884 0.00188094 0.00131486 
0.03922945 0.02560541 0.00712408 0.00157531 0.00069341 0.00128617 0.00712113 0.00547779 0.03168393 0.00129543 0.00149647 0.01407320 0.00508429 0.00059707 0.00186963 0.00131386 
0.03850365 0.02536866 0.00702714 0.00155440 0.00068430 0.00127435 0.00707167 0.00543325 0.03132606 0.00129469 0.00145830 0.01348392 0.00507135 0.00059758 0.00185870 0.00131289 
0.03776257 0.02513924 0.00693087 0.00153596 0.00067534 0.00126368 0.00702420 0.00538073 0.03092796 0.00129577 0.00142004 0.01289434 0.00506239 0.00060046 0.00184824 0.00131196 
0.03701000 0.02491793 0.00683564 0.00152004 0.00066658 0.00125414 0.00697869 0.00532039 0.03049059 0.00129866 0.00138185 0.01230786 0.00505758 0.00060580 0.00183836 0.00131106 
0.03624977 0.02470546 0.00674188 0.00150664 0.00065806 0.00124571 0.00693510 0.00525244 0.03001514 0.00130329 0.00134387 0.01172781 0.00505707 0.00061365 0.00182915 0.00131018 
0.03548582 0.02450257 0.00665000 0.00149576 0.00064982 0.00123838 0.00689333 0.00517710 0.02950296 0.00130963 0.00130624 0.01115746 0.00506100 0.00062406 0.00182072 0.00130932 
0.03472214 0.02430992 0.00656046 0.00148740 0.00064193 0.00123212 0.00685329 0.00509467 0.02895561 0.00131761 0.00126911 0.01059998 0.00506950 0.00063707 0.00181314 0.00130848 
0.03396274 0.02412817 0.00647369 0.00148153 0.00063441 0.00122691 0.00681488 0.00500544 0.02837484 0.00132716 0.00123262 0.01005844 0.00508268 0.00065271 0.00180650 0.00130766 
0.03321169 0.02395791 0.00639015 0.00147810 0.00062731 0.00122270 0.00677794 0.00490977 0.02776254 0.00133821 0.00119690 0.00953576 0.00510062 0.00067100 0.00180087 0.00130684 
0.03247306 0.02379967 0.00631029 0.00147705 0.00062069 0.00121946 0.00674234 0.00480802 0.02712080 0.00135068 0.00116207 0.00903473 0.00512340 0.00069192 0.00179631 0.00130603 
0.03175089 0.02365394 0.00623458 0.00147831 0.00061456 0.00121717 0.00670791 0.00470059 0.02645185 0.00136447 0.00112827 0.00855795 0.00515107 0.00071546 0.00179289 0.00130523 
0.03104920 0.02352113 0.00616346 0.00148181 0.00060898 0.00121576 0.00667446 0.00458792 0.02575805 0.00137950 0.00109561 0.00810785 0.00518367 0.00074159 0.00179066 0.00130442 
0.03037198 0.02340160 0.00609740 0.00148744 0.00060398 0.00121521 0.00664180 0.00447045 0.02504191 0.00139567 0.00106419 0.00768667 0.00522123 0.00077026 0.00178967 0.00130362 
0.02972312 0.02329560 0.00603684 0.00149510 0.00059959 0.00121546 0.00660972 0.00434866 0.02430606 0.00141287 0.00103412 0.00729645 0.00526373 0.00080142 0.00178995 0.00130281 
0.02910645 0.02320335 0.00598220 0.00150468 0.00059583 0.00121647 0.00657802 0.00422305 0.02355321 0.00143100 0.00100550 0.00693898 0.00531117 0.00083498 0.00179153 0.00130199 
0.02852568 0.02312495 0.00593392 0.00151604 0.00059274 0.00121819 0.00654646 0.00409411 0.02278620 0.00144994 0.00097842 0.00661587 0.00536350 0.00087087 0.00179444 0.00130115 
0.02798439 0.02306041 0.00589241 0.00152906 0.00059033 0.00122056 0.00651482 0.00396239 0.02200791 0.00146958 0.00095294 0.00632844 0.00542068 0.00090896 0.00179868 0.00130031 
0.02748602 0.02300968 0.00585804 0.00154358 0.00058862 0.00122354 0.00648286 0.00382841 0.02122130 0.00148981 0.00092915 0.00607783 0.00548262 0.00094916 0.00180427 0.00129945 
0.02703386 0.02297259 0.00583118 0.00155947 0.00058763 0.00122708 0.00645036 0.00369270 0.02042938 0.00151052 0.00090711 0.00586489 0.00554925 0.00099133 0.00181121 0.00129857 
0.02663099 0.02294889 0.00581218 0.00157656 0.00058736 0.00123112 0.00641707 0.00355583 0.01963518 0.00153158 0.00088686 0.00569026 0.00562045 0.00103533 0.00181948 0.00129768 
0.02628030 0.02293823 0.00580134 0.00159470 0.00058781 0.00123562 0.00638278 0.00341833 0.01884174 0.00155288 0.00086846 0.00555429 0.00569611 0.00108101 0.00182908 0.00129676 
0.02598445 0.02294017 0.00579896 0.00161371 0.00058900 0.00124052 0.00634724 0.00328076 0.01805212 0.00157432 0.00085195 0.00545714 0.00577608 0.00112820 0.00183997 0.00129582 
0.02574590 0.02295415 0.00580529 0.00163344 0.00059091 0.00124579 0.00631026 0.00314365 0.01726934 0.00159577 0.00083735 0.00539868 0.00586021 0.00117673 0.00185215 0.00129487 
0.02556681 0.02297955 0.00582053 0.00165371 0.00059354 0.00125136 0.00627160 0.00300754 0.01649639 0.00161713 0.00082468 0.00537857 0.00594833 0.00122642 0.00186555 0.00129389 
0.02544910 0.02301562 0.00584488 0.00167436 0.00059688 0.00125720 0.00623109 0.00287297 0.01573623 0.00163829 0.00081395 0.00539623 0.00604025 0.00127708 0.00188016 0.00129289 
0.02539441 0.02306156 0.00587847 0.00169522 0.00060089 0.00126328 0.00618854 0.00274043 0.01499172 0.00165915 0.00080516 0.00545086 0.00613578 0.00132851 0.00189592 0.00129187 
0.02540406 0.02311646 0.00592141 0.00171612 0.00060557 0.00126954 0.00614377 0.00261044 0.01426568 0.00167963 0.00079832 0.00554145 0.00623471 0.00138051 0.00191278 0.00129083 
0.02547910 0.02317932 0.00597375 0.00173689 0.00061089 0.00127596 0.00609664 0.00248346 0.01356081 0.00169962 0.00079340 0.00566679 0.00633682 0.00143287 0.00193068 0.00128977 
0.02562023 0.02324908 0.00603552 0.00175738 0.00061681 0.00128250 0.00604703 0.00235997 0.01287970 0.00171905 0.00079040 0.00582546 0.00644187 0.00148539 0.00194958 0.00128870 
0.02582784 0.02332461 0.00610668 0.00177742 0.00062329 0.00128914 0.00599481 0.00224040 0.01222484 0.00173784 0.00078927 0.00601589 0.00654964 0.00153785 0.00196939 0.00128761 
0.02610199 0.02340470 0.00618716 0.00179688 0.00063030 0.00129586 0.00593991 0.00212517 0.01159857 0.00175593 0.00078998 0.00623632 0.00665986 0.00159003 0.00199006 0.00128651 
0.02644239 0.02348811 0.00627684 0.00181559 0.00063780 0.00130262 0.00588227 0.00201466 0.01100308 0.00177324 0.00079250 0.00648486 0.00677228 0.00164174 0.00201152 0.00128539 
0.02684841 0.02357353 0.00637555 0.00183344 0.00064572 0.00130943 0.00582185 0.00190923 0.01044041 0.00178973 0.00079678 0.00675950 0.00688665 0.00169274 0.00203370 0.00128427 
0.02731909 0.02365963 0.00648307 0.00185027 0.00065403 0.00131627 0.00575863 0.00180922 0.00991244 0.00180536 0.00080275 0.00705808 0.00700270 0.00174285 0.00205652 0.00128315 
0.02785310 0.02374504 0.00659914 0.00186599 0.00066267 0.00132313 0.00569265 0.00171493 0.00942086 0.00182009 0.00081037 0.00737838 0.00712015 0.00179186 0.00207991 0.00128202 
0.02844878 0.02382838 0.00672346 0.00188047 0.00067157 0.00133001 0.00562395 0.00162663 0.00896719 0.00183389 0.00081957 0.00771808 0.00723874 0.00183957 0.00210379 0.00128089 
0.02910413 0.02390827 0.00685567 0.00189362 0.00068068 0.00133692 0.00555259 0.00154455 0.00855276 0.00184675 0.00083028 0.00807480 0.00735820 0.00188579 0.00212809 0.00127977 
0.02981681 0.02398332 0.00699536 0.00190535 0.00068993 0.00134387 0.00547870 0.00146889 0.00817869 0.00185867 0.00084243 0.00844613 0.00747826 0.00193035 0.00215274 0.00127866 
0.03058415 0.02405217 0.00714210 0.00191557 0.00069926 0.00135087 0.00540241 0.00139983 0.00784591 0.00186965 0.00085595 0.00882964 0.00759864 0.00197307 0.00217765 0.00127756 
0.03140315 0.02411351 0.00729539 0.00192423 0.00070859 0.00135793 0.00532387 0.00133751 0.00755515 0.00187970 0.00087074 0.00922286 0.00771908 0.00201380 0.00220276 0.00127648 
0.03227053 0.02416604 0.00745470 0.00193127 0.00071787 0.00136509 0.00524328 0.00128202 0.00730693 0.00188883 0.00088674 0.00962339 0.00783932 0.00205239 0.00222799 0.00127542 
0.03318268 0.02420853 0.00761947 0.00193664 0.00072701 0.00137236 0.00516086 0.00123344 0.00710156 0.00189710 0.00090385 0.01002880 0.00795910 0.00208869 0.00225327 0.00127439 
0.03413574 0.02423983 0.00778909 0.00194033 0.00073595 0.00137979 0.00507686 0.00119180 0.00693913 0.00190452 0.00092200 0.01043676 0.00807818 0.00212261 0.00227854 0.00127338 
0.03512556 0.02425886 0.00796291 0.00194232 0.00074462 0.00138740 0.00499155 0.00115710 0.00681957 0.00191116 0.00094109 0.01084497 0.00819631 0.00215402 0.00230372 0.00127241 
0.03614774 0.02426463 0.00814026 0.00194259 0.00075294 0.00139523 0.00490523 0.00112931 0.00674255 0.00191706 0.00096103 0.01125123 0.00831325 0.00218285 0.00232876 0.00127147 
0.03719769 0.02425629 0.00832044 0.00194117 0.00076085 0.00140332 0.00481823 0.00110838 0.00670758 0.00192229 0.00098174 0.01165342 0.00842880 0.00220901 0.00235358 0.00127058 
0.03827057 0.02423306 0.00850271 0.00193808 0.00076827 0.00141172 0.00473088 0.00109422 0.00671397 0.00192692 0.00100312 0.01204955 0.00854272 0.00223245 0.00237813 0.00126972 
0.03936137 0.02419432 0.00868633 0.00193336 0.00077515 0.00142048 0.00464355 0.00108671 0.00676082 0.00193103 0.00102509 0.01243773 0.00865482 0.00225314 0.00240236 0.00126892 
0.04046494 0.02413959 0.00887051 0.00192705 0.00078142 0.00142965 0.00455663 0.00108570 0.00684707 0.00193470 0.00104756 0.01281621 0.00876492 0.00227105 0.00242621 0.00126817 
0.04157598 0.02406853 0.00905446 0.00191922 0.00078701 0.00143927 0.00447050 0.00109104 0.00697148 0.00193801 0.00107045 0.01318339 0.00887282 0.00228618 0.00244963 0.00126747 
0.04268909 0.02398096 0.00923738 0.00190994 0.00079186 0.00144939 0.00438558 0.00110252 0.00713265 0.00194106 0.00109365 0.01353782 0.00897836 0.00229855 0.00247257 0.00126683 
0.04379877 0.02387687 0.00941846 0.00189929 0.00079593 0.00146008 0.00430229 0.00111993 0.00732899 0.00194393 0.00111710 0.01387821 0.00908140 0.00230818 0.00249500 0.00126625 
0.04489949 0.02375643 0.00959687 0.00188738 0.00079915 0.00147137 0.00422105 0.00114305 0.00755882 0.00194673 0.00114071 0.01420343 0.00918178 0.00231513 0.00251686 0.00126573 
0.04598570 0.02361997 0.00977180 0.00187432 0.00080149 0.00148333 0.00414231 0.00117161 0.00782028 0.00194955 0.00116439 0.01451252 0.00927939 0.00231947 0.00253813 0.00126527 
0.04705184 0.02346802 0.00994243 0.00186021 0.00080290 0.00149600 0.00406650 0.00120536 0.00811140 0.00195248 0.00118807 0.01480470 0.00937410 0.00232128 0.00255876 0.00126488 
0.04809240 0.02330130 0.01010796 0.00184519 0.00080335 0.00150943 0.00399405 0.00124402 0.00843011 0.00195563 0.00121168 0.01507937 0.00946582 0.00232067 0.00257873 0.00126456 
0.04910194 0.02312070 0.01026757 0.00182939 0.00080280 0.00152367 0.00392539 0.00128731 0.00877422 0.00195910 0.00123514 0.01533608 0.00955446 0.00231774 0.00259801 0.00126430 
0.05007511 0.02292730 0.01042049 0.00181295 0.00080123 0.00153876 0.00386096 0.00133491 0.00914147 0.00196296 0.00125838 0.01557458 0.00963995 0.00231265 0.00261657 0.00126411 
0.05100669 0.02272240 0.01056596 0.00179603 0.00079862 0.00155474 0.00380117 0.00138653 0.00952952 0.00196732 0.00128134 0.01579477 0.00972221 0.00230552 0.00263439 0.00126399 
0.05189162 0.02250744 0.01070323 0.00177878 0.00079495 0.00157165 0.00374642 0.00144187 0.00993598 0.00197226 0.00130395 0.01599674 0.00980119 0.00229652 0.00265145 0.00126393 
0.05272502 0.02228407 0.01083159 0.00176136 0.00079023 0.00158953 0.00369711 0.00150061 0.01035841 0.00197786 0.00132615 0.01618070 0.00987686 0.00228582 0.00266773 0.00126393 
0.05350223 0.02205409 0.01095037 0.00174394 0.00078445 0.00160839 0.00365360 0.00156243 0.01079433 0.00198419 0.00134789 0.01634705 0.00994917 0.00227361 0.00268322 0.00126400 
0.05421884 0.02181951 0.01105891 0.00172668 0.00077763 0.00162827 0.00361626 0.00162705 0.01124125 0.00199134 0.00136912 0.01649630 0.01001811 0.00226008 0.00269790 0.00126413 
0.05487070 0.02158245 0.01115662 0.00170976 0.00076977 0.00164918 0.00358540 0.00169414 0.01169668 0.00199935 0.00138978 0.01662913 0.01008366 0.00224542 0.00271175 0.00126432 
0.05545396 0.02134520 0.01124292 0.00169335 0.00076090 0.00167113 0.00356134 0.00176342 0.01215814 0.00200829 0.00140983 0.01674632 0.01014580 0.00222984 0.00272478 0.00126456 
0.05596509 0.02111019 0.01131730 0.00167763 0.00075105 0.00169413 0.00354434 0.00183460 0.01262316 0.00201819 0.00142923 0.01684876 0.01020455 0.00221356 0.00273698 0.00126486 
0.05640089 0.02087997 0.01137929 0.00166276 0.00074026 0.00171818 0.00353465 0.00190739 0.01308931 0.00202910 0.00144794 0.01693745 0.01025989 0.00219679 0.00274833 0.00126520 
0.05675856 0.02065720 0.01142847 0.00164891 0.00072857 0.00174326 0.00353249 0.00198152 0.01355423 0.00204105 0.00146593 0.01701347 0.01031184 0.00217974 0.00275884 0.00126558 
0.05703564 0.02044463 0.01146448 0.00163627 0.00071603 0.00176937 0.00353804 0.00205674 0.01401560 0.00205405 0.00148317 0.01707797 0.01036042 0.00216263 0.00276850 0.00126601 
0.05723009 0.02024509 0.01148701 0.00162498 0.00070271 0.00179647 0.00355143 0.00213281 0.01447117 0.00206811 0.00149963 0.01713217 0.01040563 0.00214569 0.00277732 0.00126646 
0.05734029 0.02006147 0.01149582 0.00161521 0.00068866 0.00182455 0.00357279 0.00220949 0.01491878 0.00208323 0.00151529 0.01717732 0.01044748 0.00212912 0.00278529 0.00126694 
0.05736505 0.01989670 0.01149071 0.00160711 0.00067396 0.00185357 0.00360217 0.00228658 0.01535637 0.00209940 0.00153014 0.01721471 0.01048600 0.00211312 0.00279243 0.00126745 
0.05730360 0.01975372 0.01147156 0.00160084 0.00065869 0.00188347 0.00363961 0.00236387 0.01578197 0.00211659 0.00154415 0.01724563 0.01052121 0.00209791 0.00279875 0.00126797 
0.05715564 0.01963550 0.01143830 0.00159654 0.00064293 0.00191421 0.00368510 0.00244118 0.01619373 0.00213478 0.00155732 0.01727140 0.01055311 0.00208368 0.00280424 0.00126849 
0.05692132 0.01954497 0.01139093 0.00159433 0.00062676 0.00194573 0.00373859 0.00251835 0.01658993 0.00215391 0.00156963 0.01729328 0.01058173 0.00207062 0.00280893 0.00126902 
0.05660125 0.01948502 0.01132952 0.00159435 0.00061029 0.00197797 0.00380001 0.00259524 0.01696895 0.00217394 0.00158109 0.01731256 0.01060707 0.00205890 0.00281283 0.00126954 
0.05619649 0.01945847 0.01125419 0.00159670 0.00059360 0.00201085 0.00386922 0.00267171 0.01732934 0.00219480 0.00159170 0.01733043 0.01062914 0.00204868 0.00281596 0.00127005 
0.05570858 0.01946810 0.01116513 0.00160150 0.00057681 0.00204430 0.00394605 0.00274766 0.01766977 0.00221642 0.00160145 0.01734807 0.01064796 0.00204012 0.00281834 0.00127055 
0.05513949 0.01951653 0.01106260 0.00160883 0.00056001 0.00207822 0.00403032 0.00282298 0.01798904 0.00223872 0.00161035 0.01736657 0.01066352 0.00203335 0.00282000 0.00127101 
0.05449166 0.01960630 0.01094691 0.00161878 0.00054332 0.00211254 0.00412177 0.00289761 0.01828614 0.00226160 0.00161841 0.01738697 0.01067583 0.00202850 0.00282096 0.00127144 
0.05376797 0.01973978 0.01081844 0.00163143 0.00052684 0.00214715 0.00422014 0.00297147 0.01856017 0.00228498 0.00162565 0.01741019 0.01068489 0.00202567 0.00282127 0.00127183 
0.05297170 0.01991920 0.01067762 0.00164682 0.00051068 0.00218195 0.00432512 0.00304452 0.01881041 0.00230875 0.00163208 0.01743707 0.01069068 0.00202495 0.00282097 0.00127218 
0.05210658 0.02014657 0.01052493 0.00166501 0.00049496 0.00221684 0.00443636 0.00311673 0.01903628 0.00233280 0.00163772 0.01746835 0.01069321 0.00202643 0.00282009 0.00127247 
0.05117672 0.02042374 0.01036094 0.00168602 0.00047979 0.00225172 0.00455350 0.00318808 0.01923736 0.00235700 0.00164259 0.01750466 0.01069247 0.00203014 0.00281869 0.00127270 
0.05018661 0.02075232 0.01018622 0.00170987 0.00046528 0.00228646 0.00467614 0.00325856 0.01941338 0.00238124 0.00164672 0.01754650 0.01068843 0.00203613 0.00281682 0.00127286 
0.04914112 0.02113367 0.01000143 0.00173658 0.00045155 0.00232096 0.00480386 0.00332817 0.01956424 0.00240540 0.00165012 0.01759427 0.01068109 0.00204441 0.00281455 0.00127295 
0.04804541 0.02156894 0.00980727 0.00176613 0.00043869 0.00235510 0.00493622 0.00339692 0.01968996 0.00242934 0.00165284 0.01764822 0.01067043 0.00205499 0.00281195 0.00127297 
0.04690500 0.02205898 0.00960445 0.00179849 0.00042681 0.00238876 0.00507274 0.00346483 0.01979073 0.00245294 0.00165491 0.01770851 0.01065644 0.00206785 0.00280909 0.00127290 
0.04572567 0.02260438 0.00939376 0.00183364 0.00041603 0.00242183 0.00521295 0.00353193 0.01986686 0.00247606 0.00165636 0.01777515 0.01063910 0.00208295 0.00280605 0.00127275 
0.04451344 0.02320545 0.00917600 0.00187151 0.00040642 0.00245419 0.00535635 0.00359824 0.01991884 0.00249858 0.00165722 0.01784803 0.01061840 0.00210023 0.00280293 0.00127251 
0.04327457 0.02386220 0.00895200 0.00191205 0.00039809 0.00248571 0.00550244 0.00366381 0.01994723 0.00252035 0.00165754 0.01792693 0.01059433 0.00211964 0.00279982 0.00127218 
0.04201551 0.02457433 0.00872264 0.00195518 0.00039113 0.00251630 0.00565071 0.00372867 0.01995277 0.00254127 0.00165736 0.01801149 0.01056688 0.00214106 0.00279683 0.00127175 
0.04074288 0.02534126 0.00848879 0.00200081 0.00038561 0.00254583 0.00580063 0.00379284 0.01993628 0.00256119 0.00165672 0.01810127 0.01053606 0.00216442 0.00279407 0.00127123 
0.03946338 0.02616207 0.00825136 0.00204882 0.00038161 0.00257420 0.00595171 0.00385637 0.01989872 0.00258000 0.00165566 0.01819568 0.01050186 0.00218957 0.00279166 0.00127062 
0.03818385 0.02703555 0.00801125 0.00209911 0.00037919 0.00260130 0.00610342 0.00391928 0.01984114 0.00259757 0.00165424 0.01829408 0.01046429 0.00221640 0.00278973 0.00126991 
0.03691113 0.02796019 0.00776940 0.00215155 0.00037842 0.00262702 0.00625526 0.00398160 0.01976467 0.00261381 0.00165251 0.01839570 0.01042338 0.00224476 0.00278842 0.00126910 
0.03565212 0.02893414 0.00752673 0.00220599 0.00037935 0.00265128 0.00640674 0.00404335 0.01967056 0.00262860 0.00165050 0.01849970 0.01037915 0.00227448 0.00278786 0.00126821 
0.03441367 0.02995528 0.00728416 0.00226228 0.00038200 0.00267398 0.00655736 0.00410453 0.01956010 0.00264184 0.00164827 0.01860518 0.01033163 0.00230541 0.00278822 0.00126722 
0.03320257 0.03102119 0.00704261 0.00232025 0.00038643 0.00269504 0.00670668 0.00416514 0.01943466 0.00265345 0.00164588 0.01871117 0.01028088 0.00233737 0.00278965 0.00126615 
0.03202551 0.03212914 0.00680299 0.00237975 0.00039265 0.00271438 0.00685424 0.00422518 0.01929569 0.00266335 0.00164338 0.01881664 0.01022695 0.00237016 0.00279232 0.00126500 
0.03088906 0.03327617 0.00656620 0.00244057 0.00040066 0.00273193 0.00699962 0.00428463 0.01914465 0.00267146 0.00164081 0.01892053 0.01016991 0.00240361 0.00279638 0.00126378 
0.02979960 0.03445901 0.00633309 0.00250254 0.00041048 0.00274762 0.00714242 0.00434345 0.01898305 0.00267772 0.00163824 0.01902177 0.01010984 0.00243751 0.00280203 0.00126248 
0.02876332 0.03567418 0.00610453 0.00256545 0.00042210 0.00276141 0.00728228 0.00440159 0.01881245 0.00268208 0.00163571 0.01911926 0.01004684 0.00247168 0.00280943 0.00126113 
0.02778614 0.03691795 0.00588134 0.00262911 0.00043549 0.00277323 0.00741885 0.00445900 0.01863440 0.00268451 0.00163327 0.01921189 0.00998102 0.00250590 0.00281878 0.00125972 
0.02687374 0.03818637 0.00566430 0.00269328 0.00045062 0.00278307 0.00755183 0.00451560 0.01845046 0.00268497 0.00163099 0.01929859 0.00991250 0.00253999 0.00283026 0.00125827 
0.02603146 0.03947531 0.00545417 0.00275777 0.00046746 0.00279089 0.00768094 0.00457129 0.01826220 0.00268345 0.00162891 0.01937829 0.00984141 0.00257374 0.00284405 0.00125678 
0.02526432 0.04078046 0.00525167 0.00282235 0.00048596 0.00279666 0.00780596 0.00462598 0.01807118 0.00267993 0.00162708 0.01944997 0.00976791 0.00260697 0.00286035 0.00125527 
0.02457696 0.04209735 0.00505745 0.00288680 0.00050604 0.00280038 0.00792667 0.00467955 0.01787892 0.00267444 0.00162555 0.01951266 0.00969216 0.00263947 0.00287935 0.00125375 
0.02397363 0.04342140 0.00487216 0.00295089 0.00052765 0.00280205 0.00804292 0.00473185 0.01768693 0.00266698 0.00162437 0.01956545 0.00961433 0.00267108 0.00290123 0.00125223 
0.02345815 0.04474789 0.00469637 0.00301439 0.00055070 0.00280167 0.00815459 0.00478275 0.01749668 0.00265760 0.00162359 0.01960750 0.00953461 0.00270160 0.00292617 0.00125072 
0.02303392 0.04607206 0.00453060 0.00307707 0.00057509 0.00279927 0.00826160 0.00483207 0.01730958 0.00264631 0.00162325 0.01963805 0.00945319 0.00273088 0.00295437 0.00124924 
0.02270385 0.04738907 0.00437534 0.00313871 0.00060073 0.00279486 0.00836390 0.00487966 0.01712700 0.00263320 0.00162339 0.01965643 0.00937030 0.00275876 0.00298598 0.00124779 
0.02247037 0.04869405 0.00423099 0.00319909 0.00062750 0.00278849 0.00846150 0.00492532 0.01695025 0.00261830 0.00162405 0.01966209 0.00928614 0.00278508 0.00302119 0.00124639 
0.02233542 0.04998214 0.00409793 0.00325797 0.00065530 0.00278020 0.00855442 0.00496886 0.01678056 0.00260171 0.00162528 0.01965457 0.00920094 0.00280971 0.00306015 0.00124506 
0.02230044 0.05124850 0.00397646 0.00331515 0.00068399 0.00277004 0.00864275 0.00501007 0.01661910 0.00258351 0.00162709 0.01963353 0.00911494 0.00283254 0.00310300 0.00124381 
0.02236633 0.05248834 0.00386682 0.00337040 0.00071345 0.00275807 0.00872660 0.00504875 0.01646696 0.00256378 0.00162954 0.01959874 0.00902837 0.00285344 0.00314990 0.00124264 
0.02253347 0.05369693 0.00376920 0.00342352 0.00074353 0.00274437 0.00880612 0.00508469 0.01632514 0.00254264 0.00163263 0.01955012 0.00894146 0.00287232 0.00320096 0.00124159 
0.02280170 0.05486968 0.00368374 0.00347430 0.00077410 0.00272900 0.00888148 0.00511765 0.01619456 0.00252019 0.00163639 0.01948769 0.00885448 0.00288911 0.00325629 0.00124066 
0.02317034 0.05600210 0.00361050 0.00352256 0.00080500 0.00271205 0.00895291 0.00514743 0.01607606 0.00249656 0.00164085 0.01941163 0.00876765 0.00290373 0.00331599 0.00123985 
0.02363818 0.05708986 0.00354948 0.00356810 0.00083608 0.00269361 0.00902065 0.00517382 0.01597036 0.00247186 0.00164601 0.01932223 0.00868121 0.00291613 0.00338014 0.00123920 
0.02420345 0.05812882 0.00350065 0.00361075 0.00086719 0.00267377 0.00908498 0.00519658 0.01587811 0.00244623 0.00165189 0.01921991 0.00859541 0.00292627 0.00344879 0.00123870 
0.02486391 0.05911502 0.00346390 0.00365034 0.00089817 0.00265263 0.00914619 0.00521554 0.01579985 0.00241981 0.00165849 0.01910525 0.00851047 0.00293414 0.00352198 0.00123838 
0.02561677 0.06004474 0.00343907 0.00368673 0.00092887 0.00263029 0.00920460 0.00523047 0.01573603 0.00239274 0.00166582 0.01897891 0.00842662 0.00293971 0.00359974 0.00123823 
0.02645877 0.06091451 0.00342593 0.00371975 0.00095912 0.00260687 0.00926056 0.00524121 0.01568700 0.00236515 0.00167387 0.01884172 0.00834406 0.00294301 0.00368205 0.00123828 
0.02738614 0.06172111 0.00342423 0.00374929 0.00098877 0.00258248 0.00931442 0.00524759 0.01565301 0.00233719 0.00168263 0.01869459 0.00826300 0.00294404 0.00376889 0.00123853 
0.02839469 0.06246161 0.00343365 0.00377523 0.00101767 0.00255722 0.00936655 0.00524945 0.01563423 0.00230900 0.00169208 0.01853856 0.00818363 0.00294285 0.00386019 0.00123899 
0.02947974 0.06313337 0.00345381 0.00379745 0.00104565 0.00253121 0.00941732 0.00524666 0.01563072 0.00228074 0.00170221 0.01837479 0.00810611 0.00293947 0.00395589 0.00123967 
0.03063624 0.06373407 0.00348431 0.00381589 0.00107257 0.00250457 0.00946712 0.00523911 0.01564246 0.00225255 0.00171300 0.01820451 0.00803060 0.00293397 0.00405588 0.00124057 
0.03185872 0.06426171 0.00352470 0.00383045 0.00109829 0.00247741 0.00951635 0.00522674 0.01566934 0.00222456 0.00172441 0.01802905 0.00795723 0.00292641 0.00416001 0.00124171 
0.03314135 0.06471464 0.00357448 0.00384108 0.00112266 0.00244985 0.00956537 0.00520948 0.01571116 0.00219692 0.00173641 0.01784981 0.00788613 0.00291688 0.00426815 0.00124307 
0.03447798 0.06509153 0.00363313 0.00384774 0.00114556 0.00242200 0.00961457 0.00518732 0.01576764 0.00216976 0.00174896 0.01766827 0.00781738 0.00290546 0.00438008 0.00124468 
0.03586214 0.06539142 0.00370007 0.00385041 0.00116685 0.00239397 0.00966432 0.00516027 0.01583843 0.00214320 0.00176201 0.01748597 0.00775105 0.00289225 0.00449561 0.00124652 
0.03728712 0.06561371 0.00377473 0.00384906 0.00118641 0.00236589 0.00971499 0.00512839 0.01592311 0.00211739 0.00177552 0.01730446 0.00768720 0.00287736 0.00461449 0.00124859 
0.03874595 0.06575813 0.00385649 0.00384372 0.00120414 0.00233784 0.00976690 0.00509177 0.01602119 0.00209242 0.00178943 0.01712537 0.00762585 0.00286089 0.00473644 0.00125091 
0.04023147 0.06582481 0.00394470 0.00383439 0.00121994 0.00230994 0.00982040 0.00505053 0.01613212 0.00206841 0.00180368 0.01695032 0.00756699 0.00284295 0.00486118 0.00125345 
0.04173638 0.06581419 0.00403872 0.00382112 0.00123371 0.00228229 0.00987578 0.00500487 0.01625529 0.00204547 0.00181820 0.01678094 0.00751061 0.00282368 0.00498837 0.00125622 
0.04325323 0.06572709 0.00413788 0.00380397 0.00124537 0.00225498 0.00993332 0.00495499 0.01639006 0.00202368 0.00183294 0.01661887 0.00745665 0.00280318 0.00511768 0.00125922 
0.04477453 0.06556468 0.00424148 0.00378301 0.00125486 0.00222810 0.00999327 0.00490116 0.01653571 0.00200313 0.00184781 0.01646570 0.00740503 0.00278158 0.00524872 0.00126243 
0.04629270 0.06532846 0.00434886 0.00375833 0.00126212 0.00220174 0.01005586 0.00484370 0.01669152 0.00198390 0.00186275 0.01632303 0.00735566 0.00275900 0.00538111 0.00126584 
0.04780019 0.06502025 0.00445932 0.00373003 0.00126709 0.00217597 0.01012128 0.00478297 0.01685671 0.00196603 0.00187767 0.01619238 0.00730841 0.00273557 0.00551441 0.00126945 
0.04928948 0.06464219 0.00457218 0.00369823 0.00126976 0.00215086 0.01018967 0.00471938 0.01703050 0.00194960 0.00189250 0.01607524 0.00726314 0.00271141 0.00564821 0.00127323 
0.05075312 0.06419674 0.00468675 0.00366308 0.00127008 0.00212649 0.01026117 0.00465339 0.01721207 0.00193464 0.00190715 0.01597301 0.00721969 0.00268662 0.00578204 0.00127719 
0.05218378 0.06368662 0.00480237 0.00362471 0.00126807 0.00210291 0.01033585 0.00458551 0.01740060 0.00192117 0.00192154 0.01588703 0.00717785 0.00266134 0.00591543 0.00128130 
0.05357429 0.06311484 0.00491837 0.00358329 0.00126371 0.00208018 0.01041376 0.00451629 0.01759526 0.00190923 0.00193559 0.01581854 0.00713744 0.00263566 0.00604789 0.00128555 
0.05491766 0.06248465 0.00503413 0.00353901 0.00125703 0.00205833 0.01049491 0.00444634 0.01779520 0.00189882 0.00194919 0.01576867 0.00709823 0.00260970 0.00617893 0.00128993 
0.05620714 0.06179955 0.00514901 0.00349205 0.00124805 0.00203741 0.01057926 0.00437630 0.01799961 0.00188993 0.00196228 0.01573847 0.00705998 0.00258354 0.00630803 0.00129440 
0.05743623 0.06106322 0.00526242 0.00344261 0.00123682 0.00201746 0.01066674 0.00430688 0.01820765 0.00188255 0.00197475 0.01572884 0.00702245 0.00255729 0.00643469 0.00129896 
