0.00961145 0.00755402 0.00248317 0.00224902 0.00619112 0.00111366 0.00923358 0.00363355 0.00890032 0.00159724 0.01036940 0.00081843 0.00602676 0.04427894 0.01400357 0.00018898 
0.00957877 0.00765810 0.00259042 0.00229900 0.00633386 0.00112794 0.00956219 0.00371566 0.00873718 0.00158323 0.01019342 0.00081248 0.00650811 0.04370952 0.01384115 0.00019727 
0.00954681 0.00776250 0.00270445 0.00234923 0.00647405 0.00114335 0.00988290 0.00380075 0.00857511 0.00157228 0.01002001 0.00080683 0.00700944 0.04308142 0.01365929 0.00020893 
0.00951663 0.00786719 0.00282507 0.00239956 0.00661135 0.00115990 0.01019413 0.00388861 0.00841492 0.00156453 0.00985030 0.00080151 0.00752960 0.04239788 0.01345900 0.00022402 
0.00948930 0.00797212 0.00295205 0.00244984 0.00674543 0.00117755 0.01049433 0.00397902 0.00825747 0.00156008 0.00968545 0.00079655 0.00806737 0.04166249 0.01324147 0.00024260 
0.00946588 0.00807727 0.00308513 0.00249991 0.00687599 0.00119630 0.01078204 0.00407172 0.00810363 0.00155903 0.00952657 0.00079198 0.00862145 0.04087916 0.01300797 0.00026472 
0.00944744 0.00818264 0.00322406 0.00254965 0.00700276 0.00121611 0.01105586 0.00416644 0.00795426 0.00156146 0.00937471 0.00078781 0.00919048 0.04005214 0.01275987 0.00029039 
0.00943505 0.00828821 0.00336854 0.00259892 0.00712551 0.00123697 0.01131449 0.00426289 0.00781024 0.00156740 0.00923091 0.00078408 0.00977302 0.03918593 0.01249865 0.00031962 
0.00942972 0.00839398 0.00351824 0.00264758 0.00724403 0.00125887 0.01155672 0.00436076 0.00767247 0.00157691 0.00909615 0.00078081 0.01036755 0.03828532 0.01222588 0.00035240 
0.00943246 0.00849994 0.00367285 0.00269552 0.00735813 0.00128179 0.01178141 0.00445974 0.00754181 0.00158997 0.00897133 0.00077800 0.01097253 0.03735535 0.01194320 0.00038870 
0.00944424 0.00860607 0.00383199 0.00274261 0.00746768 0.00130571 0.01198756 0.00455947 0.00741915 0.00160659 0.00885731 0.00077567 0.01158634 0.03640124 0.01165233 0.00042847 
0.00946598 0.00871235 0.00399529 0.00278873 0.00757256 0.00133060 0.01217424 0.00465962 0.00730534 0.00162672 0.00875486 0.00077385 0.01220731 0.03542843 0.01135506 0.00047164 
0.00949853 0.00881874 0.00416237 0.00283379 0.00767268 0.00135646 0.01234065 0.00475982 0.00720121 0.00165031 0.00866467 0.00077252 0.01283374 0.03444249 0.01105321 0.00051812 
0.00954271 0.00892518 0.00433280 0.00287768 0.00776799 0.00138325 0.01248611 0.00485971 0.00710758 0.00167727 0.00858736 0.00077171 0.01346391 0.03344911 0.01074867 0.00056781 
0.00959924 0.00903161 0.00450617 0.00292032 0.00785846 0.00141096 0.01261005 0.00495891 0.00702525 0.00170751 0.00852344 0.00077140 0.01409603 0.03245407 0.01044335 0.00062059 
0.00966880 0.00913792 0.00468203 0.00296161 0.00794409 0.00143956 0.01271201 0.00505705 0.00695496 0.00174090 0.00847335 0.00077162 0.01472835 0.03146321 0.01013915 0.00067632 
0.00975197 0.00924400 0.00485994 0.00300147 0.00802492 0.00146902 0.01279167 0.00515375 0.00689743 0.00177728 0.00843742 0.00077234 0.01535904 0.03048238 0.00983802 0.00073483 
0.00984924 0.00934971 0.00503941 0.00303984 0.00810099 0.00149931 0.01284881 0.00524862 0.00685333 0.00181650 0.00841589 0.00077357 0.01598632 0.02951740 0.00954188 0.00079597 
0.00996102 0.00945489 0.00521998 0.00307666 0.00817238 0.00153040 0.01288336 0.00534131 0.00682328 0.00185836 0.00840887 0.00077530 0.01660837 0.02857403 0.00925264 0.00085954 
0.01008762 0.00955936 0.00540115 0.00311185 0.00823920 0.00156224 0.01289534 0.00543142 0.00680786 0.00190266 0.00841639 0.00077753 0.01722339 0.02765795 0.00897217 0.00092533 
0.01022924 0.00966289 0.00558244 0.00314538 0.00830156 0.00159480 0.01288492 0.00551862 0.00680759 0.00194918 0.00843838 0.00078022 0.01782960 0.02677470 0.00870232 0.00099313 
0.01038601 0.00976526 0.00576333 0.00317720 0.00835961 0.00162803 0.01285236 0.00560253 0.00682292 0.00199766 0.00847465 0.00078339 0.01842524 0.02592964 0.00844486 0.00106271 
0.01055793 0.00986620 0.00594333 0.00320728 0.00841351 0.00166188 0.01279806 0.00568284 0.00685424 0.00204786 0.00852492 0.00078699 0.01900856 0.02512796 0.00820151 0.00113383 
0.01074489 0.00996544 0.00612191 0.00323557 0.00846343 0.00169629 0.01272251 0.00575920 0.00690188 0.00209950 0.00858878 0.00079103 0.01957786 0.02437456 0.00797391 0.00120623 
0.01094669 0.01006268 0.00629857 0.00326207 0.00850955 0.00173121 0.01262633 0.00583133 0.00696609 0.00215230 0.00866575 0.00079547 0.02013147 0.02367411 0.00776362 0.00127965 
0.01116302 0.01015760 0.00647279 0.00328674 0.00855208 0.00176657 0.01251021 0.00589892 0.00704704 0.00220596 0.00875524 0.00080029 0.02066778 0.02303096 0.00757208 0.00135382 
0.01139346 0.01024988 0.00664405 0.00330959 0.00859122 0.00180231 0.01237498 0.00596171 0.00714485 0.00226017 0.00885657 0.00080548 0.02118523 0.02244912 0.00740064 0.00142847 
0.01163749 0.01033917 0.00681185 0.00333059 0.00862717 0.00183833 0.01222154 0.00601947 0.00725954 0.00231464 0.00896895 0.00081099 0.02168229 0.02193224 0.00725053 0.00150332 
0.01189448 0.01042512 0.00697567 0.00334975 0.00866017 0.00187458 0.01205086 0.00607196 0.00739105 0.00236903 0.00909153 0.00081682 0.02215754 0.02148356 0.00712283 0.00157808 
0.01216372 0.01050738 0.00713502 0.00336707 0.00869043 0.00191095 0.01186401 0.00611899 0.00753926 0.00242303 0.00922336 0.00082292 0.02260960 0.02110595 0.00701852 0.00165245 
0.01244438 0.01058559 0.00728940 0.00338256 0.00871816 0.00194737 0.01166214 0.00616041 0.00770393 0.00247632 0.00936344 0.00082928 0.02303716 0.02080179 0.00693842 0.00172617 
0.01273556 0.01065940 0.00743832 0.00339622 0.00874358 0.00198373 0.01144645 0.00619606 0.00788478 0.00252858 0.00951067 0.00083585 0.02343902 0.02057302 0.00688319 0.00179893 
0.01303627 0.01072847 0.00758131 0.00340808 0.00876691 0.00201995 0.01121818 0.00622585 0.00808142 0.00257949 0.00966393 0.00084262 0.02381403 0.02042114 0.00685335 0.00187046 
0.01334543 0.01079246 0.00771791 0.00341815 0.00878835 0.00205592 0.01097865 0.00624969 0.00829339 0.00262874 0.00982201 0.00084954 0.02416114 0.02034711 0.00684926 0.00194048 
0.01366190 0.01085105 0.00784767 0.00342645 0.00880810 0.00209152 0.01072921 0.00626754 0.00852014 0.00267603 0.00998367 0.00085659 0.02447941 0.02035142 0.00687112 0.00200872 
0.01398448 0.01090394 0.00797016 0.00343300 0.00882634 0.00212666 0.01047123 0.00627937 0.00876105 0.00272105 0.01014765 0.00086374 0.02476798 0.02043407 0.00691897 0.00207490 
0.01431189 0.01095087 0.00808496 0.00343783 0.00884326 0.00216123 0.01020612 0.00628521 0.00901541 0.00276354 0.01031264 0.00087096 0.02502608 0.02059452 0.00699266 0.00213878 
0.01464283 0.01099157 0.00819168 0.00344098 0.00885900 0.00219510 0.00993528 0.00628511 0.00928245 0.00280322 0.01047732 0.00087821 0.02525306 0.02083175 0.00709189 0.00220010 
0.01497592 0.01102584 0.00828995 0.00344245 0.00887373 0.00222816 0.00966014 0.00627913 0.00956132 0.00283983 0.01064037 0.00088547 0.02544835 0.02114423 0.00721621 0.00225864 
0.01530978 0.01105350 0.00837940 0.00344230 0.00888757 0.00226030 0.00938212 0.00626740 0.00985111 0.00287315 0.01080046 0.00089270 0.02561151 0.02152992 0.00736499 0.00231417 
0.01564301 0.01107441 0.00845973 0.00344054 0.00890063 0.00229139 0.00910263 0.00625004 0.01015083 0.00290295 0.01095627 0.00089988 0.02574220 0.02198630 0.00753744 0.00236649 
0.01597416 0.01108847 0.00853061 0.00343722 0.00891302 0.00232132 0.00882304 0.00622722 0.01045944 0.00292905 0.01110651 0.00090697 0.02584018 0.02251039 0.00773261 0.00241540 
0.01630180 0.01109564 0.00859179 0.00343237 0.00892481 0.00234997 0.00854472 0.00619915 0.01077583 0.00295127 0.01124990 0.00091396 0.02590533 0.02309874 0.00794942 0.00246074 
0.01662452 0.01109590 0.00864300 0.00342602 0.00893606 0.00237724 0.00826900 0.00616603 0.01109886 0.00296947 0.01138523 0.00092081 0.02593763 0.02374747 0.00818663 0.00250235 
0.01694090 0.01108932 0.00868404 0.00341820 0.00894680 0.00240299 0.00799715 0.00612813 0.01142733 0.00298352 0.01151130 0.00092749 0.02593718 0.02445228 0.00844286 0.00254010 
0.01724953 0.01107599 0.00871471 0.00340896 0.00895707 0.00242713 0.00773040 0.00608571 0.01176000 0.00299334 0.01162700 0.00093399 0.02590418 0.02520849 0.00871663 0.00257386 
0.01754908 0.01105606 0.00873486 0.00339832 0.00896685 0.00244954 0.00746992 0.00603906 0.01209560 0.00299886 0.01173126 0.00094029 0.02583893 0.02601108 0.00900629 0.00260354 
0.01783823 0.01102976 0.00874437 0.00338632 0.00897612 0.00247013 0.00721683 0.00598850 0.01243284 0.00300005 0.01182309 0.00094635 0.02574188 0.02685467 0.00931013 0.00262907 
0.01811571 0.01099733 0.00874314 0.00337300 0.00898486 0.00248880 0.00697217 0.00593435 0.01277039 0.00299691 0.01190160 0.00095216 0.02561354 0.02773364 0.00962632 0.00265038 
0.01838031 0.01095910 0.00873112 0.00335839 0.00899300 0.00250545 0.00673689 0.00587697 0.01310693 0.00298945 0.01196595 0.00095770 0.02545454 0.02864207 0.00995294 0.00266746 
0.01863091 0.01091545 0.00870829 0.00334253 0.00900046 0.00252001 0.00651190 0.00581671 0.01344110 0.00297774 0.01201543 0.00096296 0.02526562 0.02957386 0.01028801 0.00268028 
0.01886644 0.01086681 0.00867467 0.00332545 0.00900717 0.00253238 0.00629799 0.00575394 0.01377156 0.00296186 0.01204941 0.00096791 0.02504763 0.03052273 0.01062947 0.00268886 
0.01908592 0.01081365 0.00863029 0.00330718 0.00901300 0.00254252 0.00609588 0.00568905 0.01409698 0.00294194 0.01206738 0.00097255 0.02480150 0.03148227 0.01097523 0.00269323 
0.01928846 0.01075650 0.00857526 0.00328777 0.00901783 0.00255034 0.00590620 0.00562240 0.01441604 0.00291812 0.01206893 0.00097687 0.02452825 0.03244598 0.01132314 0.00269344 
0.01947327 0.01069594 0.00850968 0.00326723 0.00902155 0.00255580 0.00572949 0.00555440 0.01472743 0.00289059 0.01205376 0.00098085 0.02422903 0.03340732 0.01167106 0.00268957 
0.01963965 0.01063258 0.00843372 0.00324562 0.00902399 0.00255886 0.00556619 0.00548543 0.01502988 0.00285955 0.01202171 0.00098448 0.02390505 0.03435978 0.01201682 0.00268171 
0.01978700 0.01056708 0.00834756 0.00322297 0.00902501 0.00255948 0.00541665 0.00541588 0.01532216 0.00282524 0.01197271 0.00098777 0.02355760 0.03529686 0.01235826 0.00266996 
0.01991484 0.01050014 0.00825143 0.00319930 0.00902443 0.00255764 0.00528113 0.00534612 0.01560305 0.00278793 0.01190684 0.00099069 0.02318809 0.03621218 0.01269326 0.00265447 
0.02002279 0.01043248 0.00814560 0.00317466 0.00902210 0.00255333 0.00515979 0.00527654 0.01587141 0.00274791 0.01182429 0.00099326 0.02279798 0.03709951 0.01301971 0.00263539 
0.02011060 0.01036484 0.00803034 0.00314907 0.00901784 0.00254654 0.00505270 0.00520750 0.01612615 0.00270549 0.01172537 0.00099547 0.02238881 0.03795278 0.01333556 0.00261286 
0.02017812 0.01029800 0.00790599 0.00312259 0.00901148 0.00253729 0.00495983 0.00513936 0.01636623 0.00266102 0.01161052 0.00099732 0.02196219 0.03876618 0.01363883 0.00258709 
0.02022530 0.01023274 0.00777291 0.00309524 0.00900283 0.00252559 0.00488107 0.00507245 0.01659067 0.00261485 0.01148029 0.00099882 0.02151981 0.03953414 0.01392760 0.00255825 
0.02025225 0.01016984 0.00763147 0.00306706 0.00899172 0.00251148 0.00481623 0.00500710 0.01679858 0.00256736 0.01133536 0.00099996 0.02106341 0.04025143 0.01420006 0.00252657 
0.02025914 0.01011011 0.00748210 0.00303809 0.00897798 0.00249499 0.00476503 0.00494362 0.01698914 0.00251895 0.01117652 0.00100075 0.02059479 0.04091316 0.01445448 0.00249224 
0.02024629 0.01005434 0.00732523 0.00300837 0.00896145 0.00247619 0.00472710 0.00488230 0.01716161 0.00247002 0.01100465 0.00100120 0.02011581 0.04151483 0.01468926 0.00245551 
0.02021411 0.01000329 0.00716134 0.00297794 0.00894197 0.00245513 0.00470201 0.00482341 0.01731532 0.00242099 0.01082077 0.00100133 0.01962837 0.04205236 0.01490292 0.00241661 
0.02016312 0.00995773 0.00699090 0.00294685 0.00891938 0.00243189 0.00468927 0.00476718 0.01744971 0.00237230 0.01062598 0.00100113 0.01913440 0.04252213 0.01509410 0.00237578 
0.02009395 0.00991841 0.00681443 0.00291512 0.00889355 0.00240656 0.00468829 0.00471385 0.01756431 0.00232437 0.01042147 0.00100062 0.01863589 0.04292100 0.01526159 0.00233326 
0.02000731 0.00988602 0.00663246 0.00288282 0.00886436 0.00237924 0.00469846 0.00466360 0.01765873 0.00227764 0.01020852 0.00099982 0.01813485 0.04324632 0.01540434 0.00228930 
0.01990402 0.00986125 0.00644554 0.00284998 0.00883168 0.00235002 0.00471910 0.00461662 0.01773268 0.00223255 0.00998849 0.00099874 0.01763330 0.04349600 0.01552146 0.00224416 
0.01978497 0.00984470 0.00625423 0.00281665 0.00879543 0.00231902 0.00474949 0.00457303 0.01778597 0.00218953 0.00976281 0.00099740 0.01713330 0.04366847 0.01561220 0.00219807 
0.01965115 0.00983698 0.00605910 0.00278289 0.00875551 0.00228637 0.00478886 0.00453297 0.01781852 0.00214901 0.00953296 0.00099581 0.01663691 0.04376273 0.01567600 0.00215130 
0.01950358 0.00983859 0.00586075 0.00274872 0.00871188 0.00225219 0.00483642 0.00449651 0.01783033 0.00211142 0.00930048 0.00099399 0.01614619 0.04377836 0.01571246 0.00210407 
0.01934339 0.00985001 0.00565976 0.00271422 0.00866447 0.00221662 0.00489135 0.00446374 0.01782151 0.00207716 0.00906694 0.00099197 0.01566322 0.04371551 0.01572138 0.00205664 
0.01917175 0.00987164 0.00545673 0.00267942 0.00861328 0.00217980 0.00495282 0.00443467 0.01779225 0.00204661 0.00883397 0.00098976 0.01519003 0.04357489 0.01570270 0.00200922 
0.01898987 0.00990381 0.00525227 0.00264439 0.00855829 0.00214189 0.00501997 0.00440932 0.01774287 0.00202016 0.00860319 0.00098738 0.01472868 0.04335781 0.01565657 0.00196204 
0.01879900 0.00994677 0.00504698 0.00260917 0.00849951 0.00210304 0.00509196 0.00438768 0.01767375 0.00199816 0.00837625 0.00098487 0.01428117 0.04306615 0.01558330 0.00191532 
0.01860044 0.01000071 0.00484146 0.00257383 0.00843699 0.00206341 0.00516793 0.00436971 0.01758537 0.00198095 0.00815477 0.00098224 0.01384949 0.04270234 0.01548338 0.00186924 
0.01839549 0.01006574 0.00463631 0.00253840 0.00837078 0.00202315 0.00524706 0.00435533 0.01747832 0.00196881 0.00794040 0.00097953 0.01343558 0.04226936 0.01535745 0.00182400 
0.01818548 0.01014188 0.00443211 0.00250296 0.00830096 0.00198243 0.00532851 0.00434447 0.01735325 0.00196204 0.00773472 0.00097674 0.01304132 0.04177071 0.01520635 0.00177977 
0.01797173 0.01022907 0.00422945 0.00246755 0.00822762 0.00194142 0.00541150 0.00433702 0.01721089 0.00196087 0.00753933 0.00097392 0.01266857 0.04121042 0.01503106 0.00173671 
0.01775556 0.01032716 0.00402891 0.00243224 0.00815089 0.00190028 0.00549525 0.00433284 0.01705207 0.00196553 0.00735573 0.00097109 0.01231910 0.04059297 0.01483272 0.00169495 
0.01753830 0.01043593 0.00383104 0.00239708 0.00807090 0.00185917 0.00557904 0.00433178 0.01687767 0.00197618 0.00718541 0.00096827 0.01199460 0.03992330 0.01461261 0.00165463 
0.01732121 0.01055507 0.00363638 0.00236212 0.00798781 0.00181826 0.00566219 0.00433369 0.01668865 0.00199296 0.00702977 0.00096550 0.01169671 0.03920677 0.01437215 0.00161586 
0.01710557 0.01068420 0.00344546 0.00232743 0.00790179 0.00177770 0.00574405 0.00433839 0.01648601 0.00201599 0.00689015 0.00096280 0.01142695 0.03844912 0.01411289 0.00157872 
0.01689259 0.01082283 0.00325878 0.00229305 0.00781303 0.00173766 0.00582403 0.00434567 0.01627083 0.00204533 0.00676779 0.00096019 0.01118676 0.03765643 0.01383650 0.00154328 
0.01668345 0.01097043 0.00307684 0.00225905 0.00772173 0.00169828 0.00590161 0.00435534 0.01604424 0.00208099 0.00666386 0.00095772 0.01097748 0.03683507 0.01354474 0.00150961 
0.01647926 0.01112636 0.00290010 0.00222547 0.00762812 0.00165972 0.00597632 0.00436719 0.01580738 0.00212297 0.00657940 0.00095540 0.01080033 0.03599168 0.01323947 0.00147773 
0.01628109 0.01128996 0.00272900 0.00219238 0.00753242 0.00162212 0.00604776 0.00438099 0.01556145 0.00217119 0.00651537 0.00095327 0.01065639 0.03513311 0.01292265 0.00144766 
0.01608993 0.01146045 0.00256395 0.00215982 0.00743488 0.00158561 0.00611559 0.00439652 0.01530769 0.00222557 0.00647259 0.00095135 0.01054666 0.03426635 0.01259628 0.00141940 
0.01590671 0.01163703 0.00240536 0.00212783 0.00733575 0.00155031 0.00617953 0.00441356 0.01504734 0.00228597 0.00645179 0.00094966 0.01047195 0.03339854 0.01226243 0.00139294 
0.01573226 0.01181882 0.00225358 0.00209648 0.00723528 0.00151636 0.00623941 0.00443188 0.01478166 0.00235219 0.00645354 0.00094824 0.01043297 0.03253685 0.01192321 0.00136824 
0.01556735 0.01200492 0.00210894 0.00206580 0.00713375 0.00148386 0.00629509 0.00445126 0.01451193 0.00242401 0.00647830 0.00094712 0.01043026 0.03168848 0.01158075 0.00134525 
0.01541266 0.01219437 0.00197177 0.00203584 0.00703141 0.00145291 0.00634653 0.00447146 0.01423942 0.00250118 0.00652638 0.00094631 0.01046420 0.03086058 0.01123719 0.00132389 
0.01526876 0.01238619 0.00184233 0.00200664 0.00692855 0.00142361 0.00639376 0.00449228 0.01396541 0.00258339 0.00659796 0.00094584 0.01053502 0.03006023 0.01089467 0.00130410 
0.01513615 0.01257936 0.00172089 0.00197825 0.00682543 0.00139604 0.00643687 0.00451352 0.01369115 0.00267030 0.00669309 0.00094573 0.01064279 0.02929435 0.01055532 0.00128576 
0.01501522 0.01277284 0.00160766 0.00195068 0.00672232 0.00137027 0.00647604 0.00453496 0.01341789 0.00276154 0.00681167 0.00094601 0.01078740 0.02856967 0.01022123 0.00126879 
0.01490627 0.01296562 0.00150283 0.00192399 0.00661948 0.00134637 0.00651150 0.00455642 0.01314683 0.00285671 0.00695346 0.00094669 0.01096856 0.02789271 0.00989445 0.00125306 
0.01480950 0.01315664 0.00140658 0.00189819 0.00651718 0.00132437 0.00654357 0.00457773 0.01287917 0.00295537 0.00711807 0.00094780 0.01118583 0.02726968 0.00957697 0.00123843 
0.01472502 0.01334488 0.00131905 0.00187333 0.00641568 0.00130433 0.00657261 0.00459872 0.01261605 0.00305705 0.00730499 0.00094935 0.01143855 0.02670647 0.00927071 0.00122479 
0.01465281 0.01352932 0.00124033 0.00184941 0.00631522 0.00128626 0.00659907 0.00461925 0.01235859 0.00316128 0.00751356 0.00095135 0.01172592 0.02620860 0.00897751 0.00121197 
0.01459279 0.01370897 0.00117051 0.00182646 0.00621604 0.00127019 0.00662344 0.00463919 0.01210783 0.00326753 0.00774301 0.00095383 0.01204693 0.02578117 0.00869911 0.00119985 
0.01454477 0.01388288 0.00110965 0.00180451 0.00611836 0.00125612 0.00664627 0.00465843 0.01186479 0.00337527 0.00799243 0.00095679 0.01240042 0.02542885 0.00843714 0.00118827 
0.01450846 0.01405014 0.00105778 0.00178356 0.00602241 0.00124404 0.00666815 0.00467687 0.01163042 0.00348397 0.00826077 0.00096024 0.01278503 0.02515581 0.00819314 0.00117708 
0.01448348 0.01420988 0.00101489 0.00176363 0.00592837 0.00123394 0.00668972 0.00469445 0.01140560 0.00359306 0.00854691 0.00096419 0.01319922 0.02496570 0.00796848 0.00116612 
0.01446938 0.01436129 0.00098098 0.00174471 0.00583645 0.00122578 0.00671167 0.00471109 0.01119116 0.00370198 0.00884958 0.00096864 0.01364130 0.02486166 0.00776444 0.00115526 
0.01446560 0.01450363 0.00095600 0.00172683 0.00574682 0.00121953 0.00673469 0.00472678 0.01098784 0.00381015 0.00916744 0.00097360 0.01410941 0.02484625 0.00758213 0.00114435 
0.01447153 0.01463624 0.00093988 0.00170998 0.00565963 0.00121513 0.00675954 0.00474148 0.01079634 0.00391700 0.00949904 0.00097907 0.01460150 0.02492142 0.00742253 0.00113326 
0.01448645 0.01475850 0.00093255 0.00169416 0.00557503 0.00121253 0.00678695 0.00475521 0.01061725 0.00402197 0.00984286 0.00098505 0.01511542 0.02508856 0.00728645 0.00112185 
0.01450961 0.01486993 0.00093389 0.00167936 0.00549314 0.00121165 0.00681771 0.00476800 0.01045110 0.00412448 0.01019730 0.00099152 0.01564882 0.02534844 0.00717456 0.00111000 
0.01454018 0.01497008 0.00094379 0.00166558 0.00541408 0.00121242 0.00685259 0.00477987 0.01029834 0.00422398 0.01056071 0.00099848 0.01619925 0.02570120 0.00708736 0.00109761 
0.01457726 0.01505863 0.00096211 0.00165281 0.00533794 0.00121475 0.00689236 0.00479090 0.01015935 0.00431994 0.01093138 0.00100593 0.01676412 0.02614636 0.00702519 0.00108458 
0.01461992 0.01513535 0.00098869 0.00164103 0.00526480 0.00121855 0.00693780 0.00480116 0.01003440 0.00441183 0.01130756 0.00101385 0.01734074 0.02668283 0.00698823 0.00107083 
0.01466717 0.01520009 0.00102337 0.00163023 0.00519472 0.00122372 0.00698965 0.00481076 0.00992371 0.00449914 0.01168748 0.00102221 0.01792630 0.02730891 0.00697650 0.00105628 
0.01471799 0.01525282 0.00106596 0.00162040 0.00512776 0.00123015 0.00704865 0.00481980 0.00982740 0.00458141 0.01206934 0.00103102 0.01851793 0.02802229 0.00698983 0.00104090 
0.01477134 0.01529360 0.00111627 0.00161151 0.00506394 0.00123771 0.00711551 0.00482841 0.00974550 0.00465819 0.01245134 0.00104023 0.01911266 0.02882007 0.00702794 0.00102465 
0.01482615 0.01532260 0.00117410 0.00160354 0.00500329 0.00124631 0.00719089 0.00483674 0.00967799 0.00472904 0.01283170 0.00104983 0.01970748 0.02969878 0.00709036 0.00100752 
0.01488133 0.01534010 0.00123923 0.00159647 0.00494581 0.00125580 0.00727544 0.00484493 0.00962475 0.00479360 0.01320865 0.00105980 0.02029934 0.03065440 0.00717647 0.00098951 
0.01493579 0.01534645 0.00131144 0.00159028 0.00489150 0.00126608 0.00736972 0.00485317 0.00958558 0.00485152 0.01358044 0.00107010 0.02088515 0.03168240 0.00728551 0.00097065 
0.01498844 0.01534212 0.00139051 0.00158493 0.00484034 0.00127700 0.00747429 0.00486162 0.00956021 0.00490248 0.01394537 0.00108070 0.02146183 0.03277773 0.00741660 0.00095099 
0.01503820 0.01532768 0.00147619 0.00158041 0.00479230 0.00128844 0.00758961 0.00487046 0.00954830 0.00494623 0.01430180 0.00109156 0.02202631 0.03393490 0.00756869 0.00093060 
0.01508399 0.01530378 0.00156824 0.00157667 0.00474736 0.00130027 0.00771610 0.00487990 0.00954944 0.00498253 0.01464814 0.00110266 0.02257556 0.03514800 0.00774064 0.00090956 
0.01512478 0.01527116 0.00166643 0.00157371 0.00470546 0.00131235 0.00785410 0.00489012 0.00956315 0.00501122 0.01498288 0.00111395 0.02310658 0.03641071 0.00793118 0.00088800 
0.01515955 0.01523064 0.00177049 0.00157147 0.00466657 0.00132456 0.00800389 0.00490132 0.00958889 0.00503216 0.01530459 0.00112539 0.02361645 0.03771637 0.00813893 0.00086604 
0.01518731 0.01518312 0.00188017 0.00156995 0.00463062 0.00133676 0.00816567 0.00491371 0.00962606 0.00504528 0.01561194 0.00113694 0.02410235 0.03905804 0.00836242 0.00084384 
0.01520716 0.01512955 0.00199521 0.00156909 0.00459757 0.00134883 0.00833956 0.00492749 0.00967401 0.00505054 0.01590369 0.00114855 0.02456156 0.04042848 0.00860011 0.00082157 
0.01521819 0.01507097 0.00211535 0.00156888 0.00456734 0.00136065 0.00852560 0.00494285 0.00973202 0.00504795 0.01617871 0.00116018 0.02499148 0.04182026 0.00885036 0.00079942 
0.01521958 0.01500845 0.00224034 0.00156929 0.00453989 0.00137209 0.00872375 0.00495999 0.00979936 0.00503758 0.01643600 0.00117179 0.02538967 0.04322581 0.00911149 0.00077762 
0.01521058 0.01494311 0.00236990 0.00157028 0.00451516 0.00138304 0.00893388 0.00497910 0.00987522 0.00501955 0.01667466 0.00118332 0.02575384 0.04463739 0.00938176 0.00075638 
0.01519049 0.01487612 0.00250377 0.00157182 0.00449308 0.00139339 0.00915578 0.00500036 0.00995880 0.00499402 0.01689394 0.00119472 0.02608191 0.04604724 0.00965938 0.00073595 
0.01515870 0.01480865 0.00264169 0.00157388 0.00447361 0.00140304 0.00938915 0.00502396 0.01004923 0.00496120 0.01709320 0.00120596 0.02637197 0.04744755 0.00994256 0.00071659 
0.01511466 0.01474190 0.00278337 0.00157645 0.00445669 0.00141188 0.00963360 0.00505005 0.01014563 0.00492134 0.01727195 0.00121697 0.02662235 0.04883057 0.01022947 0.00069858 
0.01505792 0.01467709 0.00292855 0.00157948 0.00444228 0.00141983 0.00988867 0.00507879 0.01024712 0.00487475 0.01742982 0.00122771 0.02683159 0.05018861 0.01051830 0.00068219 
0.01498811 0.01461542 0.00307696 0.00158295 0.00443034 0.00142681 0.01015379 0.00511032 0.01035278 0.00482178 0.01756659 0.00123812 0.02699849 0.05151411 0.01080722 0.00066771 
0.01490495 0.01455807 0.00322833 0.00158683 0.00442083 0.00143274 0.01042834 0.00514477 0.01046171 0.00476281 0.01768219 0.00124817 0.02712212 0.05279968 0.01109446 0.00065544 
0.01480826 0.01450622 0.00338238 0.00159111 0.00441374 0.00143756 0.01071160 0.00518225 0.01057298 0.00469826 0.01777667 0.00125780 0.02720178 0.05403817 0.01137824 0.00064569 
0.01469793 0.01446100 0.00353882 0.00159575 0.00440904 0.00144120 0.01100278 0.00522285 0.01068570 0.00462859 0.01785022 0.00126696 0.02723710 0.05522267 0.01165684 0.00063876 
0.01457399 0.01442349 0.00369739 0.00160072 0.00440674 0.00144362 0.01130101 0.00526667 0.01079897 0.00455431 0.01790318 0.00127561 0.02722795 0.05634658 0.01192862 0.00063494 
0.01443653 0.01439474 0.00385780 0.00160602 0.00440682 0.00144479 0.01160536 0.00531375 0.01091191 0.00447592 0.01793599 0.00128371 0.02717453 0.05740365 0.01219195 0.00063454 
0.01428575 0.01437572 0.00401977 0.00161161 0.00440931 0.00144467 0.01191483 0.00536415 0.01102367 0.00439399 0.01794926 0.00129121 0.02707733 0.05838802 0.01244532 0.00063785 
0.01412197 0.01436734 0.00418302 0.00161748 0.00441422 0.00144324 0.01222836 0.00541789 0.01113344 0.00430907 0.01794368 0.00129807 0.02693712 0.05929421 0.01268727 0.00064515 
0.01394557 0.01437042 0.00434725 0.00162360 0.00442157 0.00144051 0.01254484 0.00547497 0.01124041 0.00422177 0.01792008 0.00130425 0.02675500 0.06011722 0.01291643 0.00065672 
0.01375705 0.01438571 0.00451218 0.00162996 0.00443142 0.00143646 0.01286311 0.00553538 0.01134386 0.00413269 0.01787940 0.00130973 0.02653236 0.06085250 0.01313156 0.00067280 
0.01355701 0.01441385 0.00467751 0.00163654 0.00444380 0.00143112 0.01318197 0.00559908 0.01144307 0.00404245 0.01782267 0.00131446 0.02627089 0.06149600 0.01333148 0.00069364 
0.01334613 0.01445538 0.00484296 0.00164332 0.00445878 0.00142449 0.01350018 0.00566603 0.01153741 0.00395167 0.01775101 0.00131842 0.02597256 0.06204421 0.01351514 0.00071947 
0.01312518 0.01451075 0.00500822 0.00165029 0.00447641 0.00141663 0.01381647 0.00573614 0.01162629 0.00386098 0.01766564 0.00132159 0.02563963 0.06249414 0.01368159 0.00075047 
0.01289502 0.01458028 0.00517299 0.00165743 0.00449677 0.00140756 0.01412956 0.00580932 0.01170916 0.00377101 0.01756785 0.00132394 0.02527465 0.06284335 0.01383002 0.00078682 
0.01265659 0.01466418 0.00533698 0.00166473 0.00451993 0.00139734 0.01443814 0.00588547 0.01178559 0.00368239 0.01745898 0.00132545 0.02488042 0.06308996 0.01395972 0.00082866 
0.01241091 0.01476256 0.00549987 0.00167217 0.00454598 0.00138603 0.01474090 0.00596444 0.01185516 0.00359572 0.01734044 0.00132611 0.02445998 0.06323266 0.01407012 0.00087610 
0.01215907 0.01487539 0.00566137 0.00167974 0.00457500 0.00137370 0.01503653 0.00604609 0.01191756 0.00351161 0.01721368 0.00132591 0.02401662 0.06327074 0.01416075 0.00092924 
0.01190224 0.01500251 0.00582117 0.00168743 0.00460708 0.00136042 0.01532372 0.00613026 0.01197254 0.00343064 0.01708019 0.00132484 0.02355383 0.06320401 0.01423128 0.00098812 
0.01164161 0.01514366 0.00597896 0.00169522 0.00464231 0.00134628 0.01560118 0.00621675 0.01201995 0.00335338 0.01694147 0.00132291 0.02307532 0.06303290 0.01428152 0.00105274 
0.01137848 0.01529844 0.00613443 0.00170311 0.00468079 0.00133138 0.01586765 0.00630537 0.01205969 0.00328038 0.01679903 0.00132011 0.02258495 0.06275837 0.01431138 0.00112308 
0.01111416 0.01546635 0.00628728 0.00171108 0.00472260 0.00131580 0.01612187 0.00639590 0.01209178 0.00321213 0.01665440 0.00131646 0.02208674 0.06238196 0.01432091 0.00119909 
0.01085001 0.01564674 0.00643719 0.00171912 0.00476784 0.00129967 0.01636266 0.00648812 0.01211630 0.00314913 0.01650908 0.00131197 0.02158485 0.06190571 0.01431026 0.00128064 
0.01058742 0.01583887 0.00658386 0.00172722 0.00481659 0.00128308 0.01658884 0.00658179 0.01213341 0.00309182 0.01636455 0.00130664 0.02108352 0.06133223 0.01427972 0.00136760 
0.01032781 0.01604189 0.00672700 0.00173537 0.00486892 0.00126616 0.01679930 0.00667666 0.01214339 0.00304062 0.01622227 0.00130052 0.02058709 0.06066459 0.01422969 0.00145978 
0.01007261 0.01625482 0.00686629 0.00174356 0.00492492 0.00124902 0.01699300 0.00677246 0.01214657 0.00299590 0.01608364 0.00129361 0.02009993 0.05990638 0.01416067 0.00155694 
0.00982327 0.01647660 0.00700143 0.00175178 0.00498465 0.00123179 0.01716892 0.00686893 0.01214339 0.00295800 0.01595003 0.00128596 0.01962644 0.05906161 0.01407327 0.00165882 
0.00958123 0.01670607 0.00713215 0.00176002 0.00504815 0.00121459 0.01732615 0.00696580 0.01213437 0.00292721 0.01582273 0.00127760 0.01917100 0.05813474 0.01396821 0.00176510 
0.00934791 0.01694199 0.00725815 0.00176826 0.00511549 0.00119756 0.01746383 0.00706278 0.01212010 0.00290376 0.01570297 0.00126857 0.01873795 0.05713064 0.01384627 0.00187542 
0.00912475 0.01718303 0.00737915 0.00177650 0.00518668 0.00118081 0.01758118 0.00715959 0.01210127 0.00288787 0.01559190 0.00125891 0.01833159 0.05605452 0.01370836 0.00198939 
0.00891313 0.01742779 0.00749488 0.00178473 0.00526175 0.00116450 0.01767751 0.00725595 0.01207864 0.00287968 0.01549058 0.00124868 0.01795607 0.05491196 0.01355544 0.00210657 
0.00871441 0.01767483 0.00760508 0.00179294 0.00534069 0.00114873 0.01775222 0.00735158 0.01205305 0.00287930 0.01539999 0.00123792 0.01761545 0.05370883 0.01338855 0.00222649 
0.00852991 0.01792265 0.00770949 0.00180111 0.00542350 0.00113365 0.01780479 0.00744617 0.01202539 0.00288679 0.01532099 0.00122669 0.01731363 0.05245125 0.01320880 0.00234865 
0.00836088 0.01816969 0.00780787 0.00180924 0.00551013 0.00111937 0.01783479 0.00753947 0.01199665 0.00290216 0.01525436 0.00121505 0.01705430 0.05114560 0.01301736 0.00247251 
0.00820855 0.01841439 0.00790000 0.00181732 0.00560055 0.00110602 0.01784190 0.00763118 0.01196784 0.00292536 0.01520076 0.00120306 0.01684095 0.04979843 0.01281544 0.00259749 
0.00807404 0.01865515 0.00798565 0.00182533 0.00569466 0.00109373 0.01782589 0.00772105 0.01194007 0.00295632 0.01516073 0.00119079 0.01667682 0.04841647 0.01260431 0.00272299 
0.00795843 0.01889038 0.00806463 0.00183326 0.00579239 0.00108260 0.01778663 0.00780880 0.01191447 0.00299491 0.01513472 0.00117831 0.01656490 0.04700655 0.01238524 0.00284840 
0.00786270 0.01911848 0.00813674 0.00184111 0.00589362 0.00107275 0.01772408 0.00789418 0.01189223 0.00304095 0.01512305 0.00116569 0.01650788 0.04557558 0.01215957 0.00297308 
0.00778776 0.01933788 0.00820182 0.00184887 0.00599821 0.00106428 0.01763832 0.00797695 0.01187455 0.00309422 0.01512593 0.00115300 0.01650812 0.04413052 0.01192861 0.00309636 
0.00773440 0.01954703 0.00825972 0.00185652 0.00610601 0.00105730 0.01752953 0.00805688 0.01186268 0.00315446 0.01514344 0.00114031 0.01656767 0.04267834 0.01169373 0.00321757 
0.00770334 0.01974440 0.00831029 0.00186406 0.00621682 0.00105189 0.01739796 0.00813374 0.01185790 0.00322137 0.01517555 0.00112771 0.01668820 0.04122597 0.01145627 0.00333604 
0.00769518 0.01992854 0.00835344 0.00187147 0.00633046 0.00104815 0.01724400 0.00820734 0.01186148 0.00329462 0.01522214 0.00111526 0.01687103 0.03978028 0.01121756 0.00345108 
0.00771040 0.02009804 0.00838905 0.00187876 0.00644669 0.00104614 0.01706811 0.00827747 0.01187470 0.00337384 0.01528294 0.00110305 0.01711709 0.03834804 0.01097895 0.00356201 
0.00774940 0.02025156 0.00841705 0.00188591 0.00656526 0.00104593 0.01687085 0.00834397 0.01189884 0.00345863 0.01535760 0.00109115 0.01742691 0.03693586 0.01074173 0.00366816 
0.00781243 0.02038784 0.00843740 0.00189291 0.00668590 0.00104759 0.01665288 0.00840668 0.01193516 0.00354856 0.01544568 0.00107964 0.01780060 0.03555022 0.01050720 0.00376886 
0.00789964 0.02050573 0.00845005 0.00189977 0.00680832 0.00105116 0.01641493 0.00846545 0.01198490 0.00364318 0.01554659 0.00106859 0.01823789 0.03419736 0.01027660 0.00386347 
0.00801105 0.02060414 0.00845501 0.00190647 0.00693221 0.00105669 0.01615784 0.00852017 0.01204927 0.00374201 0.01565971 0.00105808 0.01873805 0.03288334 0.01005114 0.00395136 
0.00814655 0.02068211 0.00845228 0.00191302 0.00705723 0.00106420 0.01588251 0.00857072 0.01212943 0.00384455 0.01578430 0.00104819 0.01929997 0.03161391 0.00983199 0.00403194 
0.00830594 0.02073880 0.00844190 0.00191941 0.00718303 0.00107371 0.01558991 0.00861703 0.01222650 0.00395031 0.01591955 0.00103898 0.01992209 0.03039459 0.00962026 0.00410463 
0.00848885 0.02077347 0.00842392 0.00192563 0.00730924 0.00108524 0.01528111 0.00865903 0.01234152 0.00405877 0.01606457 0.00103052 0.02060245 0.02923056 0.00941701 0.00416892 
0.00869483 0.02078551 0.00839844 0.00193170 0.00743547 0.00109877 0.01495723 0.00869666 0.01247546 0.00416939 0.01621843 0.00102288 0.02133867 0.02812668 0.00922324 0.00422432 
0.00892328 0.02077445 0.00836555 0.00193761 0.00756133 0.00111430 0.01461943 0.00872990 0.01262925 0.00428166 0.01638013 0.00101611 0.02212800 0.02708749 0.00903989 0.00427039 
0.00917350 0.02073995 0.00832538 0.00194337 0.00768641 0.00113181 0.01426895 0.00875873 0.01280367 0.00439504 0.01654863 0.00101029 0.02296728 0.02611713 0.00886782 0.00430676 
0.00944466 0.02068180 0.00827808 0.00194899 0.00781028 0.00115126 0.01390707 0.00878317 0.01299945 0.00450902 0.01672285 0.00100546 0.02385297 0.02521939 0.00870783 0.00433309 
0.00973582 0.02059994 0.00822381 0.00195446 0.00793251 0.00117261 0.01353510 0.00880324 0.01321719 0.00462306 0.01690169 0.00100167 0.02478120 0.02439767 0.00856064 0.00434914 
0.01004596 0.02049446 0.00816279 0.00195980 0.00805267 0.00119580 0.01315440 0.00881898 0.01345739 0.00473669 0.01708403 0.00099896 0.02574776 0.02365494 0.00842690 0.00435470 
0.01037392 0.02036558 0.00809520 0.00196503 0.00817032 0.00122077 0.01276635 0.00883045 0.01372041 0.00484939 0.01726875 0.00099739 0.02674812 0.02299381 0.00830718 0.00434966 
0.01071847 0.02021366 0.00802130 0.00197015 0.00828501 0.00124745 0.01237234 0.00883773 0.01400651 0.00496071 0.01745471 0.00099697 0.02777747 0.02241643 0.00820196 0.00433396 
0.01107828 0.02003921 0.00794132 0.00197518 0.00839631 0.00127575 0.01197378 0.00884090 0.01431579 0.00507018 0.01764082 0.00099775 0.02883075 0.02192456 0.00811167 0.00430763 
0.01145194 0.01984288 0.00785554 0.00198014 0.00850378 0.00130558 0.01157210 0.00884006 0.01464822 0.00517740 0.01782597 0.00099974 0.02990265 0.02151955 0.00803663 0.00427080 
0.01183797 0.01962544 0.00776425 0.00198505 0.00860699 0.00133685 0.01116871 0.00883534 0.01500365 0.00528194 0.01800910 0.00100295 0.03098768 0.02120230 0.00797710 0.00422364 
0.01223482 0.01938781 0.00766774 0.00198992 0.00870551 0.00136943 0.01076502 0.00882685 0.01538173 0.00538346 0.01818920 0.00100741 0.03208017 0.02097333 0.00793325 0.00416644 
0.01264087 0.01913104 0.00756632 0.00199479 0.00879895 0.00140322 0.01036242 0.00881475 0.01578201 0.00548160 0.01836527 0.00101311 0.03317432 0.02083272 0.00790517 0.00409958 
0.01305448 0.01885627 0.00746034 0.00199967 0.00888689 0.00143809 0.00996228 0.00879917 0.01620386 0.00557605 0.01853641 0.00102005 0.03426425 0.02078019 0.00789288 0.00402349 
0.01347395 0.01856480 0.00735013 0.00200460 0.00896896 0.00147392 0.00956596 0.00878027 0.01664651 0.00566656 0.01870174 0.00102822 0.03534398 0.02081503 0.00789632 0.00393872 
0.01389754 0.01825801 0.00723604 0.00200960 0.00904481 0.00151057 0.00917474 0.00875821 0.01710901 0.00575288 0.01886047 0.00103760 0.03640754 0.02093617 0.00791538 0.00384591 
0.01432352 0.01793739 0.00711844 0.00201470 0.00911409 0.00154790 0.00878992 0.00873316 0.01759030 0.00583481 0.01901188 0.00104818 0.03744896 0.02114215 0.00794983 0.00374576 
0.01475014 0.01760451 0.00699768 0.00201993 0.00917649 0.00158577 0.00841269 0.00870530 0.01808914 0.00591220 0.01915533 0.00105991 0.03846230 0.02143119 0.00799942 0.00363909 
0.01517562 0.01726105 0.00687414 0.00202532 0.00923172 0.00162403 0.00804425 0.00867480 0.01860413 0.00598492 0.01929025 0.00107277 0.03944173 0.02180114 0.00806381 0.00352677 
0.01559824 0.01690874 0.00674820 0.00203091 0.00927952 0.00166254 0.00768570 0.00864182 0.01913376 0.00605289 0.01941618 0.00108671 0.04038153 0.02224953 0.00814259 0.00340977 
0.01601626 0.01654938 0.00662023 0.00203674 0.00931967 0.00170114 0.00733809 0.00860656 0.01967635 0.00611606 0.01953273 0.00110167 0.04127615 0.02277362 0.00823532 0.00328913 
0.01642799 0.01618483 0.00649063 0.00204282 0.00935195 0.00173967 0.00700240 0.00856919 0.02023011 0.00617443 0.01963962 0.00111762 0.04212021 0.02337034 0.00834149 0.00316597 
0.01683179 0.01581701 0.00635976 0.00204920 0.00937622 0.00177800 0.00667956 0.00852987 0.02079311 0.00622802 0.01973664 0.00113448 0.04290860 0.02403638 0.00846052 0.00304147 
0.01722604 0.01544784 0.00622801 0.00205592 0.00939233 0.00181596 0.00637040 0.00848878 0.02136331 0.00627690 0.01982369 0.00115218 0.04363642 0.02476819 0.00859181 0.00291689 
0.01760920 0.01507930 0.00609575 0.00206299 0.00940021 0.00185342 0.00607568 0.00844609 0.02193854 0.00632116 0.01990077 0.00117065 0.04429911 0.02556199 0.00873470 0.00279353 
0.01797980 0.01471335 0.00596336 0.00207047 0.00939978 0.00189021 0.00579609 0.00840195 0.02251657 0.00636094 0.01996795 0.00118983 0.04489241 0.02641379 0.00888850 0.00267275 
0.01833644 0.01435197 0.00583118 0.00207837 0.00939103 0.00192620 0.00553224 0.00835652 0.02309505 0.00639639 0.02002542 0.00120961 0.04541241 0.02731945 0.00905247 0.00255595 
0.01867780 0.01399713 0.00569959 0.00208673 0.00937399 0.00196124 0.00528464 0.00830995 0.02367156 0.00642771 0.02007345 0.00122992 0.04585561 0.02827466 0.00922586 0.00244458 
0.01900267 0.01365079 0.00556893 0.00209557 0.00934870 0.00199520 0.00505373 0.00826238 0.02424364 0.00645511 0.02011237 0.00125067 0.04621887 0.02927498 0.00940786 0.00234010 
0.01930991 0.01331485 0.00543952 0.00210493 0.00931526 0.00202794 0.00483986 0.00821393 0.02480875 0.00647882 0.02014262 0.00127176 0.04649950 0.03031586 0.00959768 0.00224402 
0.01959851 0.01299119 0.00531170 0.00211482 0.00927381 0.00205934 0.00464328 0.00816474 0.02536433 0.00649910 0.02016471 0.00129310 0.04669524 0.03139267 0.00979447 0.00215783 
0.01986757 0.01268165 0.00518578 0.00212526 0.00922452 0.00208929 0.00446419 0.00811490 0.02590780 0.00651623 0.02017921 0.00131458 0.04680429 0.03250073 0.00999738 0.00208305 
0.02011628 0.01238800 0.00506206 0.00213628 0.00916759 0.00211765 0.00430266 0.00806454 0.02643658 0.00653049 0.02018676 0.00133611 0.04682534 0.03363530 0.01020557 0.00202119 
0.02034398 0.01211192 0.00494081 0.00214788 0.00910325 0.00214434 0.00415872 0.00801373 0.02694809 0.00654218 0.02018808 0.00135758 0.04675752 0.03479164 0.01041815 0.00197374 
0.02055012 0.01185504 0.00482232 0.00216008 0.00903179 0.00216926 0.00403229 0.00796256 0.02743978 0.00655162 0.02018391 0.00137889 0.04660049 0.03596500 0.01063427 0.00194217 
0.02073427 0.01161889 0.00470682 0.00217289 0.00895351 0.00219230 0.00392322 0.00791110 0.02790914 0.00655910 0.02017504 0.00139994 0.04635438 0.03715069 0.01085305 0.00192791 
0.02089612 0.01140490 0.00459455 0.00218630 0.00886875 0.00221340 0.00383127 0.00785942 0.02835375 0.00656494 0.02016232 0.00142063 0.04601982 0.03834402 0.01107362 0.00193235 
0.02103550 0.01121442 0.00448574 0.00220032 0.00877786 0.00223248 0.00375614 0.00780757 0.02877121 0.00656944 0.02014661 0.00144085 0.04559791 0.03954040 0.01129514 0.00195684 
0.02115237 0.01104866 0.00438058 0.00221494 0.00868123 0.00224948 0.00369746 0.00775560 0.02915927 0.00657292 0.02012878 0.00146050 0.04509027 0.04073531 0.01151675 0.00200265 
0.02124680 0.01090874 0.00427926 0.00223015 0.00857928 0.00226435 0.00365478 0.00770353 0.02951576 0.00657566 0.02010975 0.00147949 0.04449897 0.04192434 0.01173762 0.00207098 
0.02131899 0.01079564 0.00418193 0.00224593 0.00847243 0.00227704 0.00362759 0.00765139 0.02983863 0.00657795 0.02009041 0.00149772 0.04382655 0.04310320 0.01195693 0.00216296 
0.02136925 0.01071021 0.00408875 0.00226225 0.00836112 0.00228752 0.00361532 0.00759921 0.03012599 0.00658005 0.02007165 0.00151510 0.04307601 0.04426771 0.01217389 0.00227961 
0.02139803 0.01065320 0.00399985 0.00227911 0.00824582 0.00229577 0.00361734 0.00754698 0.03037609 0.00658221 0.02005437 0.00153154 0.04225076 0.04541388 0.01238773 0.00242187 
0.02140587 0.01062520 0.00391532 0.00229645 0.00812699 0.00230178 0.00363298 0.00749472 0.03058735 0.00658467 0.02003943 0.00154695 0.04135465 0.04653786 0.01259770 0.00259056 
0.02139342 0.01062666 0.00383527 0.00231426 0.00800512 0.00230554 0.00366151 0.00744243 0.03075840 0.00658762 0.02002767 0.00156126 0.04039190 0.04763596 0.01280308 0.00278639 
0.02136144 0.01065790 0.00375977 0.00233247 0.00788069 0.00230705 0.00370217 0.00739009 0.03088802 0.00659126 0.02001989 0.00157439 0.03936710 0.04870470 0.01300317 0.00300994 
0.02131077 0.01071909 0.00368887 0.00235106 0.00775417 0.00230634 0.00375416 0.00733769 0.03097525 0.00659574 0.02001685 0.00158627 0.03828518 0.04974079 0.01319732 0.00326167 
0.02124235 0.01081028 0.00362262 0.00236997 0.00762605 0.00230344 0.00381663 0.00728523 0.03101930 0.00660118 0.02001927 0.00159684 0.03715138 0.05074114 0.01338490 0.00354188 
0.02115720 0.01093135 0.00356103 0.00238914 0.00749681 0.00229837 0.00388873 0.00723268 0.03101965 0.00660769 0.02002781 0.00160605 0.03597122 0.05170286 0.01356533 0.00385075 
0.02105639 0.01108206 0.00350413 0.00240851 0.00736690 0.00229118 0.00396958 0.00718002 0.03097599 0.00661534 0.02004306 0.00161383 0.03475044 0.05262330 0.01373804 0.00418831 
0.02094108 0.01126200 0.00345189 0.00242802 0.00723678 0.00228193 0.00405828 0.00712726 0.03088826 0.00662416 0.02006556 0.00162015 0.03349503 0.05350002 0.01390252 0.00455444 
0.02081247 0.01147067 0.00340429 0.00244760 0.00710690 0.00227067 0.00415392 0.00707435 0.03075665 0.00663417 0.02009576 0.00162498 0.03221111 0.05433079 0.01405829 0.00494885 
0.02067179 0.01170738 0.00336132 0.00246717 0.00697767 0.00225748 0.00425560 0.00702131 0.03058160 0.00664533 0.02013405 0.00162828 0.03090497 0.05511364 0.01420492 0.00537112 
0.02052032 0.01197135 0.00332290 0.00248667 0.00684949 0.00224243 0.00436239 0.00696810 0.03036381 0.00665761 0.02018074 0.00163003 0.02958300 0.05584680 0.01434201 0.00582063 
0.02035938 0.01226164 0.00328900 0.00250601 0.00672275 0.00222561 0.00447339 0.00691474 0.03010425 0.00667090 0.02023606 0.00163022 0.02825162 0.05652875 0.01446920 0.00629664 
0.02019026 0.01257721 0.00325953 0.00252511 0.00659779 0.00220710 0.00458770 0.00686122 0.02980411 0.00668510 0.02030016 0.00162884 0.02691731 0.05715819 0.01458619 0.00679824 
0.02001431 0.01291690 0.00323442 0.00254389 0.00647495 0.00218700 0.00470444 0.00680755 0.02946487 0.00670007 0.02037310 0.00162589 0.02558653 0.05773405 0.01469269 0.00732436 
0.01983283 0.01327942 0.00321357 0.00256227 0.00635453 0.00216542 0.00482274 0.00675375 0.02908824 0.00671564 0.02045486 0.00162140 0.02426568 0.05825549 0.01478849 0.00787377 
0.01964712 0.01366338 0.00319690 0.00258016 0.00623678 0.00214245 0.00494178 0.00669983 0.02867618 0.00673162 0.02054533 0.00161536 0.02296108 0.05872188 0.01487340 0.00844509 
0.01945847 0.01406730 0.00318428 0.00259747 0.00612195 0.00211821 0.00506072 0.00664584 0.02823088 0.00674779 0.02064434 0.00160781 0.02167892 0.05913283 0.01494728 0.00903679 
0.01926813 0.01448960 0.00317563 0.00261412 0.00601025 0.00209281 0.00517881 0.00659182 0.02775477 0.00676391 0.02075160 0.00159878 0.02042524 0.05948814 0.01501003 0.00964722 
0.01907731 0.01492861 0.00317080 0.00263003 0.00590184 0.00206636 0.00529528 0.00653781 0.02725050 0.00677974 0.02086678 0.00158831 0.01920589 0.05978784 0.01506159 0.01027455 
0.01888716 0.01538259 0.00316970 0.00264510 0.00579687 0.00203900 0.00540944 0.00648390 0.02672090 0.00679500 0.02098946 0.00157644 0.01802648 0.06003214 0.01510196 0.01091685 
0.01869879 0.01584973 0.00317218 0.00265925 0.00569544 0.00201082 0.00552063 0.00643015 0.02616901 0.00680940 0.02111913 0.00156323 0.01689237 0.06022146 0.01513116 0.01157207 
0.01851324 0.01632815 0.00317812 0.00267241 0.00559762 0.00198197 0.00562822 0.00637667 0.02559806 0.00682267 0.02125525 0.00154874 0.01580866 0.06035641 0.01514926 0.01223803 
0.01833149 0.01681595 0.00318739 0.00268450 0.00550346 0.00195255 0.00573165 0.00632354 0.02501142 0.00683449 0.02139718 0.00153304 0.01478009 0.06043778 0.01515639 0.01291245 
0.01815443 0.01731115 0.00319985 0.00269543 0.00541297 0.00192269 0.00583039 0.00627089 0.02441262 0.00684457 0.02154423 0.00151619 0.01381111 0.06046653 0.01515268 0.01359295 
0.01798288 0.01781177 0.00321537 0.00270515 0.00532613 0.00189251 0.00592399 0.00621886 0.02380529 0.00685260 0.02169568 0.00149828 0.01290577 0.06044377 0.01513835 0.01427708 
0.01781758 0.01831577 0.00323382 0.00271357 0.00524289 0.00186213 0.00601201 0.00616758 0.02319319 0.00685829 0.02185074 0.00147939 0.01206777 0.06037081 0.01511361 0.01496230 
0.01765917 0.01882115 0.00325506 0.00272064 0.00516317 0.00183166 0.00609412 0.00611720 0.02258015 0.00686133 0.02200859 0.00145960 0.01130041 0.06024906 0.01507875 0.01564603 
0.01750821 0.01932585 0.00327894 0.00272629 0.00508689 0.00180123 0.00617000 0.00606791 0.02197007 0.00686145 0.02216836 0.00143900 0.01060655 0.06008010 0.01503407 0.01632562 
0.01736517 0.01982787 0.00330534 0.00273048 0.00501392 0.00177093 0.00623940 0.00601989 0.02136688 0.00685836 0.02232919 0.00141769 0.00998866 0.05986564 0.01497992 0.01699839 
0.01723042 0.02032518 0.00333413 0.00273316 0.00494412 0.00174088 0.00630214 0.00597331 0.02077455 0.00685181 0.02249015 0.00139577 0.00944874 0.05960750 0.01491667 0.01766166 
0.01710424 0.02081581 0.00336516 0.00273428 0.00487733 0.00171119 0.00635808 0.00592840 0.02019702 0.00684156 0.02265034 0.00137333 0.00898838 0.05930762 0.01484475 0.01831270 
0.01698682 0.02129780 0.00339830 0.00273381 0.00481338 0.00168195 0.00640715 0.00588537 0.01963821 0.00682739 0.02280884 0.00135049 0.00860870 0.05896804 0.01476461 0.01894881 
0.01687825 0.02176927 0.00343343 0.00273172 0.00475210 0.00165325 0.00644932 0.00584443 0.01910198 0.00680909 0.02296472 0.00132733 0.00831038 0.05859091 0.01467671 0.01956732 
0.01677855 0.02222837 0.00347041 0.00272799 0.00469329 0.00162519 0.00648463 0.00580584 0.01859214 0.00678649 0.02311708 0.00130397 0.00809366 0.05817846 0.01458158 0.02016557 
0.01668764 0.02267330 0.00350910 0.00272260 0.00463675 0.00159786 0.00651317 0.00576981 0.01811236 0.00675945 0.02326502 0.00128052 0.00795833 0.05773300 0.01447975 0.02074094 
0.01660534 0.02310236 0.00354939 0.00271554 0.00458230 0.00157132 0.00653509 0.00573661 0.01766621 0.00672784 0.02340767 0.00125706 0.00790374 0.05725691 0.01437178 0.02129090 
0.01653144 0.02351393 0.00359114 0.00270681 0.00452974 0.00154566 0.00655057 0.00570649 0.01725713 0.00669158 0.02354418 0.00123372 0.00792882 0.05675264 0.01425826 0.02181297 
0.01646560 0.02390646 0.00363422 0.00269642 0.00447887 0.00152093 0.00655986 0.00567969 0.01688835 0.00665061 0.02367376 0.00121059 0.00803208 0.05622269 0.01413981 0.02230476 
0.01640745 0.02427850 0.00367851 0.00268438 0.00442952 0.00149720 0.00656324 0.00565648 0.01656295 0.00660491 0.02379564 0.00118777 0.00821164 0.05566962 0.01401706 0.02276399 
0.01635654 0.02462872 0.00372387 0.00267071 0.00438151 0.00147453 0.00656106 0.00563712 0.01628379 0.00655447 0.02390911 0.00116536 0.00846523 0.05509601 0.01389067 0.02318847 
0.01631238 0.02495588 0.00377018 0.00265544 0.00433469 0.00145295 0.00655368 0.00562186 0.01605350 0.00649935 0.02401350 0.00114345 0.00879020 0.05450451 0.01376130 0.02357617 
0.01627441 0.02525886 0.00381731 0.00263859 0.00428892 0.00143252 0.00654153 0.00561095 0.01587445 0.00643962 0.02410821 0.00112215 0.00918358 0.05389776 0.01362965 0.02392515 
0.01624205 0.02553668 0.00386513 0.00262022 0.00424408 0.00141326 0.00652505 0.00560465 0.01574878 0.00637539 0.02419270 0.00110154 0.00964207 0.05327846 0.01349641 0.02423366 
0.01621465 0.02578846 0.00391350 0.00260036 0.00420007 0.00139520 0.00650474 0.00560319 0.01567832 0.00630680 0.02426650 0.00108170 0.01016205 0.05264929 0.01336230 0.02450007 
0.01619157 0.02601346 0.00396230 0.00257906 0.00415681 0.00137836 0.00648110 0.00560681 0.01566464 0.00623401 0.02432921 0.00106272 0.01073965 0.05201298 0.01322803 0.02472294 
0.01617214 0.02621108 0.00401138 0.00255640 0.00411427 0.00136276 0.00645469 0.00561575 0.01570897 0.00615725 0.02438050 0.00104467 0.01137076 0.05137224 0.01309434 0.02490099 
0.01615566 0.02638085 0.00406061 0.00253243 0.00407241 0.00134840 0.00642605 0.00563019 0.01581227 0.00607673 0.02442012 0.00102762 0.01205102 0.05072979 0.01296196 0.02503313 
0.01614145 0.02652244 0.00410985 0.00250721 0.00403125 0.00133529 0.00639580 0.00565036 0.01597514 0.00599272 0.02444789 0.00101164 0.01277592 0.05008833 0.01283162 0.02511846 
0.01612881 0.02663566 0.00415896 0.00248084 0.00399083 0.00132343 0.00636451 0.00567643 0.01619788 0.00590551 0.02446371 0.00099679 0.01354077 0.04945058 0.01270406 0.02515627 
0.01611707 0.02672046 0.00420779 0.00245337 0.00395123 0.00131280 0.00633281 0.00570857 0.01648045 0.00581542 0.02446759 0.00098312 0.01434076 0.04881924 0.01257999 0.02514604 
0.01610558 0.02677694 0.00425619 0.00242491 0.00391253 0.00130339 0.00630132 0.00574692 0.01682247 0.00572277 0.02445958 0.00097069 0.01517096 0.04819697 0.01246016 0.02508748 
0.01609369 0.02680533 0.00430402 0.00239553 0.00387489 0.00129518 0.00627067 0.00579162 0.01722323 0.00562792 0.02443983 0.00095954 0.01602641 0.04758645 0.01234527 0.02498048 
0.01608081 0.02680600 0.00435111 0.00236533 0.00383847 0.00128815 0.00624149 0.00584277 0.01768169 0.00553125 0.02440858 0.00094969 0.01690209 0.04699029 0.01223604 0.02482515 
0.01606637 0.02677946 0.00439730 0.00233439 0.00380347 0.00128227 0.00621440 0.00590046 0.01819647 0.00543313 0.02436612 0.00094120 0.01779297 0.04641111 0.01213315 0.02462182 
0.01604987 0.02672635 0.00444245 0.00230283 0.00377012 0.00127750 0.00619002 0.00596475 0.01876588 0.00533397 0.02431285 0.00093407 0.01869407 0.04585150 0.01203728 0.02437101 
0.01603083 0.02664746 0.00448638 0.00227072 0.00373868 0.00127382 0.00616896 0.00603567 0.01938790 0.00523417 0.02424923 0.00092832 0.01960043 0.04531398 0.01194910 0.02407347 
0.01600884 0.02654367 0.00452893 0.00223819 0.00370944 0.00127117 0.00615182 0.00611322 0.02006022 0.00513415 0.02417579 0.00092398 0.02050720 0.04480107 0.01186924 0.02373014 
0.01598355 0.02641600 0.00456994 0.00220531 0.00368272 0.00126953 0.00613918 0.00619740 0.02078022 0.00503431 0.02409313 0.00092104 0.02140964 0.04431524 0.01179831 0.02334218 
0.01595468 0.02626560 0.00460923 0.00217221 0.00365885 0.00126884 0.00613159 0.00628815 0.02154500 0.00493507 0.02400192 0.00091951 0.02230313 0.04385890 0.01173692 0.02291094 
0.01592200 0.02609371 0.00464665 0.00213898 0.00363819 0.00126905 0.00612958 0.00638539 0.02235140 0.00483685 0.02390290 0.00091938 0.02318321 0.04343445 0.01168563 0.02243797 
0.01588537 0.02590166 0.00468201 0.00210573 0.00362113 0.00127013 0.00613367 0.00648903 0.02319601 0.00474004 0.02379686 0.00092064 0.02404564 0.04304420 0.01164496 0.02192503 
0.01584470 0.02569091 0.00471516 0.00207256 0.00360806 0.00127202 0.00614432 0.00659892 0.02407518 0.00464504 0.02368463 0.00092328 0.02488634 0.04269044 0.01161542 0.02137403 
0.01579998 0.02546297 0.00474593 0.00203957 0.00359940 0.00127466 0.00616198 0.00671490 0.02498505 0.00455224 0.02356713 0.00092727 0.02570149 0.04237537 0.01159747 0.02078708 
0.01575130 0.02521945 0.00477415 0.00200686 0.00359555 0.00127801 0.00618706 0.00683678 0.02592157 0.00446200 0.02344527 0.00093259 0.02648751 0.04210117 0.01159155 0.02016646 
0.01569877 0.02496201 0.00479967 0.00197454 0.00359695 0.00128202 0.00621992 0.00696432 0.02688053 0.00437468 0.02332005 0.00093921 0.02724108 0.04186992 0.01159805 0.01951462 
0.01564263 0.02469239 0.00482233 0.00194271 0.00360402 0.00128663 0.00626087 0.00709728 0.02785755 0.00429061 0.02319248 0.00094709 0.02795916 0.04168365 0.01161732 0.01883414 
0.01558315 0.02441237 0.00484197 0.00191146 0.00361719 0.00129180 0.00631022 0.00723538 0.02884816 0.00421010 0.02306359 0.00095619 0.02863900 0.04154430 0.01164966 0.01812775 
0.01552068 0.02412376 0.00485847 0.00188090 0.00363688 0.00129748 0.00636817 0.00737830 0.02984777 0.00413343 0.02293445 0.00096648 0.02927815 0.04145376 0.01169535 0.01739833 
0.01545564 0.02382841 0.00487167 0.00185111 0.00366350 0.00130361 0.00643494 0.00752570 0.03085172 0.00406087 0.02280615 0.00097791 0.02987448 0.04141380 0.01175459 0.01664887 
0.01538850 0.02352818 0.00488146 0.00182218 0.00369744 0.00131016 0.00651064 0.00767722 0.03185532 0.00399266 0.02267976 0.00099043 0.03042615 0.04142613 0.01182757 0.01588247 
0.01531982 0.02322494 0.00488772 0.00179421 0.00373909 0.00131707 0.00659536 0.00783246 0.03285385 0.00392898 0.02255640 0.00100398 0.03093167 0.04149235 0.01191439 0.01510233 
0.01525016 0.02292055 0.00489034 0.00176729 0.00378881 0.00132431 0.00668914 0.00799102 0.03384260 0.00387003 0.02243716 0.00101853 0.03138986 0.04161395 0.01201515 0.01431173 
0.01518018 0.02261688 0.00488923 0.00174149 0.00384693 0.00133183 0.00679196 0.00815246 0.03481688 0.00381595 0.02232312 0.00103400 0.03179985 0.04179233 0.01212984 0.01351404 
0.01511055 0.02231575 0.00488430 0.00171690 0.00391375 0.00133960 0.00690374 0.00831632 0.03577207 0.00376684 0.02221538 0.00105036 0.03216111 0.04202875 0.01225845 0.01271267 
0.01504198 0.02201894 0.00487551 0.00169360 0.00398955 0.00134759 0.00702435 0.00848213 0.03670366 0.00372280 0.02211499 0.00106754 0.03247340 0.04232437 0.01240089 0.01191111 
0.01497522 0.02172822 0.00486278 0.00167165 0.00407456 0.00135575 0.00715360 0.00864938 0.03760720 0.00368388 0.02202299 0.00108547 0.03273681 0.04268019 0.01255702 0.01111286 
0.01491104 0.02144526 0.00484610 0.00165114 0.00416898 0.00136407 0.00729127 0.00881758 0.03847843 0.00365008 0.02194040 0.00110412 0.03295172 0.04309710 0.01272664 0.01032145 
0.01485023 0.02117169 0.00482545 0.00163213 0.00427297 0.00137251 0.00743705 0.00898619 0.03931319 0.00362141 0.02186818 0.00112341 0.03311880 0.04357580 0.01290950 0.00954042 
0.01479356 0.02090907 0.00480083 0.00161467 0.00438662 0.00138105 0.00759059 0.00915469 0.04010756 0.00359782 0.02180729 0.00114330 0.03323900 0.04411688 0.01310530 0.00877332 
0.01474183 0.02065885 0.00477225 0.00159884 0.00451001 0.00138968 0.00775150 0.00932254 0.04085777 0.00357923 0.02175861 0.00116372 0.03331353 0.04472071 0.01331368 0.00802366 
0.01469583 0.02042242 0.00473977 0.00158469 0.00464314 0.00139837 0.00791933 0.00948918 0.04156032 0.00356555 0.02172300 0.00118462 0.03334386 0.04538752 0.01353423 0.00729494 
0.01465632 0.02020103 0.00470345 0.00157227 0.00478599 0.00140712 0.00809356 0.00965407 0.04221192 0.00355664 0.02170124 0.00120594 0.03333168 0.04611734 0.01376646 0.00659060 
0.01462405 0.01999587 0.00466336 0.00156162 0.00493845 0.00141591 0.00827365 0.00981666 0.04280954 0.00355236 0.02169407 0.00122764 0.03327890 0.04691001 0.01400986 0.00591405 
0.01459974 0.01980797 0.00461962 0.00155280 0.00510038 0.00142474 0.00845900 0.00997640 0.04335046 0.00355253 0.02170218 0.00124965 0.03318764 0.04776514 0.01426384 0.00526862 
0.01458406 0.01963827 0.00457234 0.00154583 0.00527157 0.00143359 0.00864896 0.01013273 0.04383220 0.00355695 0.02172617 0.00127194 0.03306018 0.04868215 0.01452778 0.00465755 
0.01457767 0.01948757 0.00452167 0.00154077 0.00545179 0.00144248 0.00884285 0.01028513 0.04425262 0.00356540 0.02176658 0.00129445 0.03289896 0.04966024 0.01480097 0.00408400 
0.01458113 0.01935655 0.00446778 0.00153763 0.00564071 0.00145139 0.00903994 0.01043305 0.04460988 0.00357763 0.02182389 0.00131714 0.03270658 0.05069836 0.01508270 0.00355103 
0.01459499 0.01924573 0.00441085 0.00153644 0.00583797 0.00146033 0.00923946 0.01057600 0.04490246 0.00359342 0.02189850 0.00133997 0.03248571 0.05179524 0.01537216 0.00306158 
0.01461971 0.01915553 0.00435110 0.00153722 0.00604316 0.00146931 0.00944062 0.01071346 0.04512917 0.00361247 0.02199073 0.00136288 0.03223917 0.05294933 0.01566853 0.00261847 
0.01465569 0.01908621 0.00428875 0.00153999 0.00625580 0.00147834 0.00964259 0.01084495 0.04528915 0.00363453 0.02210083 0.00138586 0.03196979 0.05415887 0.01597093 0.00222438 
0.01470326 0.01903789 0.00422405 0.00154476 0.00647538 0.00148741 0.00984451 0.01097000 0.04538188 0.00365931 0.02222896 0.00140886 0.03168051 0.05542182 0.01627843 0.00188184 
0.01476267 0.01901054 0.00415725 0.00155153 0.00670133 0.00149654 0.01004552 0.01108818 0.04540719 0.00368652 0.02237521 0.00143185 0.03137426 0.05673587 0.01659007 0.00159324 
0.01483408 0.01900402 0.00408864 0.00156031 0.00693304 0.00150574 0.01024470 0.01119907 0.04536522 0.00371587 0.02253957 0.00145479 0.03105398 0.05809845 0.01690484 0.00136079 
0.01491760 0.01901801 0.00401851 0.00157108 0.00716985 0.00151502 0.01044116 0.01130228 0.04525647 0.00374706 0.02272197 0.00147767 0.03072261 0.05950673 0.01722170 0.00118655 
0.01501322 0.01905208 0.00394718 0.00158383 0.00741106 0.00152439 0.01063397 0.01139746 0.04508175 0.00377982 0.02292225 0.00150045 0.03038306 0.06095761 0.01753959 0.00107237 
0.01512085 0.01910567 0.00387497 0.00159856 0.00765596 0.00153387 0.01082220 0.01148426 0.04484220 0.00381386 0.02314014 0.00152312 0.03003817 0.06244770 0.01785741 0.00101994 
0.01524032 0.01917807 0.00380220 0.00161522 0.00790376 0.00154345 0.01100493 0.01156241 0.04453929 0.00384891 0.02337534 0.00154564 0.02969071 0.06397336 0.01817403 0.00103073 
0.01537138 0.01926846 0.00372922 0.00163380 0.00815369 0.00155316 0.01118122 0.01163165 0.04417476 0.00388470 0.02362741 0.00156801 0.02934336 0.06553070 0.01848830 0.00110603 
0.01551367 0.01937589 0.00365639 0.00165425 0.00840493 0.00156299 0.01135017 0.01169175 0.04375068 0.00392098 0.02389588 0.00159021 0.02899871 0.06711555 0.01879906 0.00124692 
0.01566677 0.01949930 0.00358405 0.00167653 0.00865663 0.00157297 0.01151088 0.01174253 0.04326938 0.00395751 0.02418017 0.00161222 0.02865922 0.06872350 0.01910513 0.00145426 
0.01583015 0.01963753 0.00351256 0.00170060 0.00890797 0.00158309 0.01166244 0.01178386 0.04273345 0.00399407 0.02447963 0.00163404 0.02832719 0.07034989 0.01940534 0.00172871 
0.01600322 0.01978931 0.00344229 0.00172639 0.00915807 0.00159335 0.01180402 0.01181563 0.04214574 0.00403046 0.02479355 0.00165564 0.02800480 0.07198985 0.01969848 0.00207068 
0.01618531 0.01995330 0.00337358 0.00175385 0.00940607 0.00160377 0.01193476 0.01183778 0.04150934 0.00406650 0.02512112 0.00167702 0.02769406 0.07363827 0.01998339 0.00248040 
0.01637566 0.02012806 0.00330680 0.00178290 0.00965112 0.00161434 0.01205387 0.01185030 0.04082754 0.00410203 0.02546149 0.00169817 0.02739681 0.07528985 0.02025886 0.00295785 
0.01657347 0.02031208 0.00324229 0.00181348 0.00989235 0.00162506 0.01216058 0.01185323 0.04010382 0.00413690 0.02581373 0.00171909 0.02711470 0.07693911 0.02052375 0.00350278 
0.01677786 0.02050379 0.00318040 0.00184548 0.01012892 0.00163592 0.01225418 0.01184662 0.03934186 0.00417101 0.02617684 0.00173977 0.02684920 0.07858038 0.02077689 0.00411473 
0.01698789 0.02070158 0.00312145 0.00187883 0.01036000 0.00164692 0.01233399 0.01183059 0.03854548 0.00420427 0.02654978 0.00176020 0.02660159 0.08020788 0.02101715 0.00479301 
0.01720259 0.02090380 0.00306577 0.00191344 0.01058479 0.00165804 0.01239939 0.01180531 0.03771861 0.00423661 0.02693145 0.00178037 0.02637295 0.08181567 0.02124344 0.00553669 
0.01742093 0.02110875 0.00301366 0.00194919 0.01080249 0.00166926 0.01244980 0.01177097 0.03686533 0.00426800 0.02732069 0.00180028 0.02616417 0.08339773 0.02145469 0.00634462 
0.01764185 0.02131473 0.00296541 0.00198599 0.01101236 0.00168058 0.01248472 0.01172782 0.03598978 0.00429842 0.02771632 0.00181993 0.02597591 0.08494796 0.02164987 0.00721545 
0.01786427 0.02152004 0.00292128 0.00202371 0.01121369 0.00169196 0.01250370 0.01167614 0.03509618 0.00432788 0.02811710 0.00183930 0.02580867 0.08646022 0.02182799 0.00814757 
0.01808708 0.02172297 0.00288152 0.00206224 0.01140580 0.00170339 0.01250636 0.01161625 0.03418880 0.00435642 0.02852176 0.00185840 0.02566272 0.08792834 0.02198812 0.00913919 
0.01830917 0.02192185 0.00284637 0.00210146 0.01158805 0.00171483 0.01249240 0.01154853 0.03327190 0.00438412 0.02892901 0.00187721 0.02553815 0.08934617 0.02212939 0.01018828 
0.01852943 0.02211501 0.00281602 0.00214124 0.01175987 0.00172626 0.01246157 0.01147335 0.03234978 0.00441105 0.02933754 0.00189573 0.02543485 0.09070759 0.02225097 0.01129262 
0.01874675 0.02230085 0.00279064 0.00218144 0.01192073 0.00173764 0.01241372 0.01139117 0.03142670 0.00443732 0.02974601 0.00191394 0.02535253 0.09200658 0.02235211 0.01244979 
0.01896002 0.02247781 0.00277039 0.00222193 0.01207014 0.00174893 0.01234876 0.01130244 0.03050686 0.00446307 0.03015308 0.00193184 0.02529073 0.09323719 0.02243214 0.01365714 
0.01916819 0.02264440 0.00275539 0.00226257 0.01220770 0.00176009 0.01226668 0.01120766 0.02959442 0.00448844 0.03055740 0.00194942 0.02524881 0.09439364 0.02249043 0.01491189 
0.01937022 0.02279918 0.00274573 0.00230321 0.01233304 0.00177108 0.01216755 0.01110736 0.02869344 0.00451362 0.03095762 0.00196665 0.02522596 0.09547031 0.02252648 0.01621102 
0.01956512 0.02294084 0.00274147 0.00234372 0.01244588 0.00178185 0.01205154 0.01100207 0.02780789 0.00453878 0.03135242 0.00198354 0.02522124 0.09646180 0.02253983 0.01755137 
0.01975192 0.02306813 0.00274263 0.00238394 0.01254598 0.00179236 0.01191887 0.01089239 0.02694160 0.00456414 0.03174047 0.00200005 0.02523355 0.09736294 0.02253014 0.01892962 
0.01992976 0.02317991 0.00274921 0.00242372 0.01263320 0.00180255 0.01176988 0.01077888 0.02609827 0.00458990 0.03212047 0.00201618 0.02526169 0.09816882 0.02249714 0.02034228 
0.02009778 0.02327516 0.00276118 0.00246293 0.01270743 0.00181236 0.01160495 0.01066216 0.02528144 0.00461629 0.03249114 0.00203190 0.02530431 0.09887487 0.02244066 0.02178572 
0.02025525 0.02335298 0.00277847 0.00250141 0.01276866 0.00182176 0.01142458 0.01054285 0.02449449 0.00464356 0.03285125 0.00204718 0.02535999 0.09947682 0.02236063 0.02325617 
0.02040147 0.02341260 0.00280098 0.00253902 0.01281693 0.00183068 0.01122932 0.01042157 0.02374059 0.00467193 0.03319959 0.00206202 0.02542719 0.09997082 0.02225707 0.02474977 
0.02053584 0.02345337 0.00282858 0.00257562 0.01285234 0.00183907 0.01101980 0.01029895 0.02302273 0.00470165 0.03353502 0.00207638 0.02550432 0.10035336 0.02213013 0.02626251 
0.02065785 0.02347480 0.00286110 0.00261105 0.01287509 0.00184687 0.01079675 0.01017563 0.02234368 0.00473298 0.03385642 0.00209024 0.02558972 0.10062140 0.02198002 0.02779032 
0.02076708 0.02347654 0.00289835 0.00264519 0.01288542 0.00185402 0.01056095 0.01005224 0.02170598 0.00476615 0.03416274 0.00210357 0.02568168 0.10077234 0.02180708 0.02932901 
0.02086318 0.02345837 0.00294012 0.00267791 0.01288365 0.00186048 0.01031325 0.00992941 0.02111197 0.00480141 0.03445300 0.00211633 0.02577846 0.10080405 0.02161176 0.03087434 
0.02094594 0.02342025 0.00298613 0.00270906 0.01287014 0.00186619 0.01005459 0.00980776 0.02056372 0.00483898 0.03472627 0.00212851 0.02587830 0.10071491 0.02139458 0.03242202 
0.02101520 0.02336227 0.00303613 0.00273854 0.01284533 0.00187110 0.00978594 0.00968789 0.02006306 0.00487911 0.03498170 0.00214006 0.02597944 0.10050381 0.02115619 0.03396771 
0.02107094 0.02328469 0.00308979 0.00276622 0.01280971 0.00187515 0.00950835 0.00957040 0.01961158 0.00492199 0.03521853 0.00215096 0.02608013 0.10017020 0.02089733 0.03550704 
0.02111321 0.02318791 0.00314680 0.00279199 0.01276384 0.00187831 0.00922292 0.00945585 0.01921061 0.00496784 0.03543603 0.00216117 0.02617863 0.09971406 0.02061885 0.03703562 
0.02114218 0.02307250 0.00320680 0.00281575 0.01270831 0.00188052 0.00893079 0.00934480 0.01886122 0.00501684 0.03563361 0.00217066 0.02627326 0.09913593 0.02032167 0.03854908 
0.02115809 0.02293916 0.00326942 0.00283741 0.01264376 0.00188174 0.00863316 0.00923778 0.01856423 0.00506916 0.03581073 0.00217939 0.02636235 0.09843696 0.02000683 0.04004305 
0.02116132 0.02278876 0.00333427 0.00285688 0.01257089 0.00188194 0.00833125 0.00913526 0.01832019 0.00512494 0.03596693 0.00218733 0.02644434 0.09761883 0.01967545 0.04151321 
0.02115229 0.02262230 0.00340094 0.00287408 0.01249041 0.00188107 0.00802632 0.00903773 0.01812942 0.00518432 0.03610187 0.00219445 0.02651770 0.09668384 0.01932872 0.04295528 
0.02113156 0.02244093 0.00346902 0.00288894 0.01240309 0.00187912 0.00771966 0.00894562 0.01799195 0.00524740 0.03621528 0.00220071 0.02658100 0.09563486 0.01896794 0.04436503 
0.02109972 0.02224591 0.00353808 0.00290142 0.01230972 0.00187606 0.00741258 0.00885930 0.01790759 0.00531427 0.03630697 0.00220609 0.02663291 0.09447534 0.01859445 0.04573833 
0.02105749 0.02203865 0.00360767 0.00291146 0.01221110 0.00187187 0.00710639 0.00877915 0.01787590 0.00538497 0.03637687 0.00221053 0.02667218 0.09320930 0.01820969 0.04707113 
0.02100562 0.02182066 0.00367737 0.00291902 0.01210808 0.00186653 0.00680243 0.00870547 0.01789620 0.00545955 0.03642498 0.00221403 0.02669769 0.09184134 0.01781514 0.04835951 
0.02094496 0.02159359 0.00374671 0.00292409 0.01200148 0.00186004 0.00650201 0.00863855 0.01796758 0.00553800 0.03645139 0.00221655 0.02670842 0.09037659 0.01741237 0.04959966 
0.02087640 0.02135915 0.00381525 0.00292665 0.01189216 0.00185239 0.00620646 0.00857859 0.01808891 0.00562030 0.03645629 0.00221806 0.02670348 0.08882072 0.01700296 0.05078791 
0.02080088 0.02111917 0.00388255 0.00292669 0.01178098 0.00184359 0.00591708 0.00852579 0.01825885 0.00570639 0.03643995 0.00221854 0.02668212 0.08717992 0.01658855 0.05192074 
0.02071941 0.02087555 0.00394817 0.00292422 0.01166878 0.00183365 0.00563517 0.00848029 0.01847585 0.00579621 0.03640273 0.00221797 0.02664369 0.08546087 0.01617084 0.05299481 
0.02063300 0.02063027 0.00401168 0.00291927 0.01155641 0.00182258 0.00536198 0.00844217 0.01873819 0.00588964 0.03634507 0.00221632 0.02658772 0.08367071 0.01575151 0.05400696 
0.02054270 0.02038534 0.00407264 0.00291186 0.01144470 0.00181042 0.00509874 0.00841147 0.01904393 0.00598655 0.03626747 0.00221358 0.02651383 0.08181704 0.01533232 0.05495423 
0.02044960 0.02014284 0.00413067 0.00290204 0.01133444 0.00179719 0.00484664 0.00838819 0.01939102 0.00608678 0.03617054 0.00220975 0.02642182 0.07990785 0.01491498 0.05583386 
0.02035477 0.01990488 0.00418535 0.00288986 0.01122643 0.00178294 0.00460683 0.00837228 0.01977721 0.00619015 0.03605492 0.00220480 0.02631160 0.07795151 0.01450126 0.05664331 
0.02025928 0.01967358 0.00423631 0.00287538 0.01112142 0.00176769 0.00438039 0.00836363 0.02020014 0.00629644 0.03592135 0.00219874 0.02618324 0.07595674 0.01409289 0.05738028 
0.02016422 0.01945109 0.00428320 0.00285867 0.01102014 0.00175152 0.00416835 0.00836209 0.02065731 0.00640542 0.03577061 0.00219156 0.02603693 0.07393255 0.01369161 0.05804272 
0.02007064 0.01923952 0.00432568 0.00283981 0.01092325 0.00173447 0.00397170 0.00836748 0.02114610 0.00651685 0.03560354 0.00218326 0.02587301 0.07188822 0.01329913 0.05862882 
0.01997956 0.01904099 0.00436344 0.00281890 0.01083142 0.00171660 0.00379133 0.00837955 0.02166382 0.00663044 0.03542103 0.00217386 0.02569195 0.06983326 0.01291714 0.05913703 
0.01989198 0.01885758 0.00439619 0.00279604 0.01074523 0.00169800 0.00362808 0.00839802 0.02220768 0.00674590 0.03522402 0.00216336 0.02549433 0.06777734 0.01254729 0.05956609 
0.01980884 0.01869132 0.00442367 0.00277133 0.01066522 0.00167873 0.00348269 0.00842259 0.02277484 0.00686293 0.03501346 0.00215178 0.02528087 0.06573030 0.01219121 0.05991500 
0.01973105 0.01854419 0.00444566 0.00274488 0.01059189 0.00165888 0.00335585 0.00845287 0.02336238 0.00698120 0.03479036 0.00213914 0.02505241 0.06370204 0.01185044 0.06018306 
0.01965945 0.01841811 0.00446195 0.00271683 0.01052568 0.00163853 0.00324814 0.00848848 0.02396737 0.00710039 0.03455574 0.00212547 0.02480987 0.06170251 0.01152650 0.06036985 
0.01959480 0.01831491 0.00447238 0.00268729 0.01046697 0.00161779 0.00316006 0.00852899 0.02458685 0.00722014 0.03431065 0.00211079 0.02455431 0.05974168 0.01122083 0.06047525 
0.01953782 0.01823633 0.00447681 0.00265640 0.01041606 0.00159674 0.00309202 0.00857392 0.02521787 0.00734012 0.03405612 0.00209515 0.02428686 0.05782945 0.01093481 0.06049944 
0.01948913 0.01818401 0.00447513 0.00262431 0.01037323 0.00157548 0.00304433 0.00862279 0.02585746 0.00745996 0.03379321 0.00207858 0.02400876 0.05597565 0.01066975 0.06044290 
0.01944927 0.01815948 0.00446727 0.00259114 0.01033865 0.00155412 0.00301722 0.00867509 0.02650269 0.00757932 0.03352298 0.00206112 0.02372130 0.05418993 0.01042685 0.06030640 
0.01941870 0.01816415 0.00445320 0.00255704 0.01031247 0.00153278 0.00301082 0.00873025 0.02715068 0.00769784 0.03324646 0.00204283 0.02342586 0.05248181 0.01020726 0.06009102 
0.01939778 0.01819930 0.00443291 0.00252216 0.01029475 0.00151155 0.00302516 0.00878774 0.02779857 0.00781517 0.03296468 0.00202376 0.02312387 0.05086053 0.01001203 0.05979815 
0.01938680 0.01826606 0.00440644 0.00248665 0.01028549 0.00149055 0.00306017 0.00884695 0.02844360 0.00793096 0.03267865 0.00200396 0.02281682 0.04933508 0.00984210 0.05942945 
0.01938593 0.01836546 0.00437384 0.00245065 0.01028462 0.00146989 0.00311568 0.00890732 0.02908305 0.00804488 0.03238935 0.00198351 0.02250624 0.04791412 0.00969833 0.05898690 
0.01939525 0.01849832 0.00433521 0.00241432 0.01029203 0.00144970 0.00319144 0.00896822 0.02971432 0.00815660 0.03209772 0.00196246 0.02219368 0.04660596 0.00958147 0.05847274 
0.01941476 0.01866537 0.00429068 0.00237781 0.01030751 0.00143007 0.00328709 0.00902906 0.03033490 0.00826582 0.03180467 0.00194088 0.02188072 0.04541851 0.00949217 0.05788950 
0.01944434 0.01886713 0.00424042 0.00234125 0.01033083 0.00141113 0.00340220 0.00908922 0.03094239 0.00837222 0.03151107 0.00191886 0.02156896 0.04435922 0.00943097 0.05723999 
0.01948378 0.01910400 0.00418460 0.00230479 0.01036169 0.00139298 0.00353623 0.00914811 0.03153451 0.00847554 0.03121774 0.00189646 0.02125999 0.04343508 0.00939832 0.05652725 
0.01953281 0.01937621 0.00412346 0.00226858 0.01039971 0.00137574 0.00368855 0.00920510 0.03210912 0.00857552 0.03092546 0.00187376 0.02095539 0.04265257 0.00939453 0.05575461 
0.01959102 0.01968380 0.00405723 0.00223275 0.01044448 0.00135952 0.00385846 0.00925961 0.03266419 0.00867191 0.03063494 0.00185086 0.02065672 0.04201762 0.00941983 0.05492560 
0.01965795 0.02002670 0.00398620 0.00219744 0.01049554 0.00134442 0.00404517 0.00931105 0.03319788 0.00876449 0.03034686 0.00182783 0.02036555 0.04153559 0.00947433 0.05404399 
0.01973305 0.02040464 0.00391065 0.00216277 0.01055237 0.00133053 0.00424782 0.00935886 0.03370847 0.00885308 0.03006182 0.00180475 0.02008336 0.04121122 0.00955802 0.05311375 
0.01981567 0.02081721 0.00383091 0.00212886 0.01061443 0.00131796 0.00446548 0.00940248 0.03419441 0.00893751 0.02978036 0.00178173 0.01981163 0.04104865 0.00967080 0.05213905 
0.01990514 0.02126387 0.00374733 0.00209584 0.01068110 0.00130680 0.00469715 0.00944138 0.03465431 0.00901763 0.02950298 0.00175884 0.01955177 0.04105135 0.00981246 0.05112422 
0.02000066 0.02174389 0.00366026 0.00206381 0.01075177 0.00129712 0.00494177 0.00947507 0.03508697 0.00909332 0.02923011 0.00173617 0.01930513 0.04122214 0.00998268 0.05007374 
0.02010143 0.02225644 0.00357008 0.00203287 0.01082576 0.00128902 0.00519821 0.00950305 0.03549133 0.00916451 0.02896212 0.00171383 0.01907301 0.04156314 0.01018103 0.04899224 
0.02020655 0.02280053 0.00347719 0.00200314 0.01090239 0.00128256 0.00546531 0.00952490 0.03586652 0.00923113 0.02869931 0.00169188 0.01885662 0.04207577 0.01040700 0.04788446 
0.02031512 0.02337506 0.00338199 0.00197469 0.01098093 0.00127781 0.00574187 0.00954019 0.03621185 0.00929315 0.02844193 0.00167043 0.01865710 0.04276074 0.01065997 0.04675520 
0.02042617 0.02397881 0.00328489 0.00194760 0.01106066 0.00127482 0.00602662 0.00954854 0.03652680 0.00935056 0.02819017 0.00164957 0.01847551 0.04361806 0.01093923 0.04560936 
0.02053873 0.02461044 0.00318633 0.00192195 0.01114082 0.00127365 0.00631829 0.00954962 0.03681101 0.00940340 0.02794418 0.00162937 0.01831282 0.04464700 0.01124398 0.04445188 
0.02065177 0.02526854 0.00308672 0.00189781 0.01122065 0.00127433 0.00661558 0.00954312 0.03706432 0.00945170 0.02770403 0.00160993 0.01816990 0.04584611 0.01157333 0.04328770 
0.02076429 0.02595158 0.00298651 0.00187524 0.01129940 0.00127690 0.00691715 0.00952880 0.03728672 0.00949555 0.02746977 0.00159132 0.01804753 0.04721323 0.01192631 0.04212176 
0.02087527 0.02665799 0.00288614 0.00185427 0.01137628 0.00128138 0.00722167 0.00950642 0.03747839 0.00953506 0.02724136 0.00157362 0.01794640 0.04874546 0.01230188 0.04095897 
0.02098370 0.02738609 0.00278603 0.00183496 0.01145054 0.00128779 0.00752779 0.00947582 0.03763966 0.00957034 0.02701876 0.00155692 0.01786707 0.05043921 0.01269892 0.03980420 
0.02108857 0.02813419 0.00268661 0.00181734 0.01152142 0.00129612 0.00783419 0.00943687 0.03777102 0.00960154 0.02680188 0.00154128 0.01781004 0.05229019 0.01311624 0.03866220 
0.02118890 0.02890054 0.00258832 0.00180143 0.01158817 0.00130637 0.00813952 0.00938949 0.03787312 0.00962885 0.02659057 0.00152676 0.01777567 0.05429343 0.01355259 0.03753766 
0.02128375 0.02968336 0.00249157 0.00178725 0.01165006 0.00131853 0.00844246 0.00933365 0.03794676 0.00965245 0.02638467 0.00151345 0.01776422 0.05644328 0.01400667 0.03643508 
0.02137221 0.03048086 0.00239678 0.00177480 0.01170638 0.00133257 0.00874172 0.00926935 0.03799289 0.00967254 0.02618400 0.00150138 0.01777587 0.05873345 0.01447711 0.03535886 
0.02145340 0.03129124 0.00230433 0.00176409 0.01175643 0.00134845 0.00903603 0.00919665 0.03801257 0.00968936 0.02598833 0.00149062 0.01781066 0.06115703 0.01496249 0.03431316 
0.02152652 0.03211271 0.00221462 0.00175511 0.01179955 0.00136614 0.00932415 0.00911567 0.03800701 0.00970314 0.02579745 0.00148122 0.01786856 0.06370651 0.01546138 0.03330199 
0.02159081 0.03294349 0.00212801 0.00174784 0.01183510 0.00138558 0.00960487 0.00902655 0.03797753 0.00971415 0.02561109 0.00147321 0.01794941 0.06637380 0.01597228 0.03232908 
0.02164557 0.03378185 0.00204485 0.00174226 0.01186249 0.00140671 0.00987703 0.00892948 0.03792557 0.00972263 0.02542902 0.00146663 0.01805297 0.06915029 0.01649366 0.03139794 
0.02169018 0.03462609 0.00196549 0.00173835 0.01188112 0.00142945 0.01013953 0.00882471 0.03785266 0.00972886 0.02525097 0.00146152 0.01817888 0.07202685 0.01702398 0.03051180 
0.02172409 0.03547454 0.00189024 0.00173607 0.01189049 0.00145373 0.01039132 0.00871251 0.03776043 0.00973313 0.02507668 0.00145790 0.01832672 0.07499388 0.01756167 0.02967359 
0.02174682 0.03632562 0.00181939 0.00173538 0.01189008 0.00147945 0.01063138 0.00859322 0.03765059 0.00973569 0.02490591 0.00145577 0.01849595 0.07804135 0.01810514 0.02888594 
0.02175798 0.03717780 0.00175321 0.00173623 0.01187944 0.00150653 0.01085879 0.00846719 0.03752491 0.00973684 0.02473842 0.00145517 0.01868595 0.08115884 0.01865278 0.02815116 
0.02175727 0.03802963 0.00169195 0.00173856 0.01185816 0.00153485 0.01107266 0.00833482 0.03738523 0.00973686 0.02457396 0.00145607 0.01889601 0.08433558 0.01920300 0.02747121 
0.02174447 0.03887976 0.00163584 0.00174233 0.01182588 0.00156431 0.01127219 0.00819654 0.03723345 0.00973602 0.02441233 0.00145850 0.01912536 0.08756048 0.01975418 0.02684770 
0.02171942 0.03972689 0.00158508 0.00174746 0.01178227 0.00159479 0.01145666 0.00805284 0.03707150 0.00973459 0.02425333 0.00146242 0.01937312 0.09082222 0.02030472 0.02628189 
0.02168210 0.04056984 0.00153983 0.00175390 0.01172705 0.00162616 0.01162538 0.00790419 0.03690134 0.00973283 0.02409679 0.00146783 0.01963837 0.09410922 0.02085302 0.02577464 
0.02163253 0.04140753 0.00150026 0.00176157 0.01165999 0.00165830 0.01177779 0.00775114 0.03672495 0.00973100 0.02394257 0.00147470 0.01992010 0.09740978 0.02139749 0.02532646 
0.02157084 0.04223896 0.00146647 0.00177040 0.01158090 0.00169107 0.01191335 0.00759423 0.03654433 0.00972934 0.02379055 0.00148300 0.02021726 0.10071205 0.02193658 0.02493748 
0.02149724 0.04306325 0.00143857 0.00178030 0.01148966 0.00172434 0.01203165 0.00743403 0.03636145 0.00972808 0.02364064 0.00149268 0.02052874 0.10400413 0.02246872 0.02460744 
0.02141203 0.04387961 0.00141663 0.00179121 0.01138618 0.00175797 0.01213232 0.00727114 0.03617830 0.00972742 0.02349279 0.00150372 0.02085335 0.10727409 0.02299241 0.02433568 
0.02131557 0.04468736 0.00140067 0.00180304 0.01127040 0.00179181 0.01221508 0.00710617 0.03599684 0.00972756 0.02334697 0.00151605 0.02118989 0.11051006 0.02350614 0.02412121 
0.02120833 0.04548590 0.00139073 0.00181570 0.01114234 0.00182572 0.01227973 0.00693973 0.03581897 0.00972869 0.02320321 0.00152962 0.02153709 0.11370023 0.02400847 0.02396263 
0.02109081 0.04627476 0.00138678 0.00182912 0.01100205 0.00185955 0.01232614 0.00677246 0.03564660 0.00973096 0.02306154 0.00154436 0.02189367 0.11683294 0.02449797 0.02385820 
0.02096362 0.04705353 0.00138880 0.00184320 0.01084962 0.00189315 0.01235426 0.00660500 0.03548156 0.00973451 0.02292206 0.00156021 0.02225830 0.11989673 0.02497328 0.02380580 
0.02082739 0.04782191 0.00139671 0.00185786 0.01068520 0.00192638 0.01236412 0.00643798 0.03532561 0.00973945 0.02278488 0.00157710 0.02262963 0.12288037 0.02543305 0.02380301 
0.02068286 0.04857967 0.00141043 0.00187301 0.01050896 0.00195909 0.01235581 0.00627204 0.03518047 0.00974587 0.02265016 0.00159493 0.02300628 0.12577292 0.02587600 0.02384706 
0.02053077 0.04932666 0.00142985 0.00188856 0.01032116 0.00199113 0.01232950 0.00610783 0.03504778 0.00975386 0.02251809 0.00161364 0.02338688 0.12856379 0.02630092 0.02393489 
0.02037194 0.05006280 0.00145484 0.00190444 0.01012204 0.00202237 0.01228542 0.00594597 0.03492908 0.00976346 0.02238889 0.00163313 0.02377001 0.13124277 0.02670663 0.02406314 
0.02020721 0.05078807 0.00148523 0.00192054 0.00991193 0.00205266 0.01222386 0.00578708 0.03482585 0.00977469 0.02226282 0.00165331 0.02415429 0.13380010 0.02709202 0.02422822 
0.02003747 0.05150249 0.00152085 0.00193680 0.00969118 0.00208186 0.01214519 0.00563177 0.03473946 0.00978755 0.02214017 0.00167409 0.02453829 0.13622650 0.02745605 0.02442626 
0.01986361 0.05220614 0.00156151 0.00195312 0.00946018 0.00210985 0.01204983 0.00548063 0.03467119 0.00980202 0.02202126 0.00169536 0.02492064 0.13851322 0.02779772 0.02465322 
0.01968657 0.05289912 0.00160699 0.00196942 0.00921936 0.00213649 0.01193825 0.00533425 0.03462220 0.00981807 0.02190642 0.00171703 0.02529992 0.14065205 0.02811615 0.02490484 
0.01950728 0.05358157 0.00165704 0.00198563 0.00896919 0.00216166 0.01181097 0.00519316 0.03459355 0.00983561 0.02179603 0.00173900 0.02567476 0.14263544 0.02841047 0.02517672 
0.01932668 0.05425363 0.00171143 0.00200167 0.00871016 0.00218525 0.01166857 0.00505790 0.03458619 0.00985456 0.02169048 0.00176116 0.02604379 0.14445644 0.02867995 0.02546434 
0.01914570 0.05491543 0.00176989 0.00201746 0.00844281 0.00220715 0.01151167 0.00492898 0.03460096 0.00987481 0.02159018 0.00178341 0.02640569 0.14610880 0.02892388 0.02576308 
0.01896529 0.05556711 0.00183214 0.00203293 0.00816771 0.00222725 0.01134093 0.00480687 0.03463857 0.00989623 0.02149557 0.00180564 0.02675913 0.14758699 0.02914168 0.02606826 
0.01878635 0.05620880 0.00189789 0.00204802 0.00788546 0.00224546 0.01115704 0.00469202 0.03469962 0.00991867 0.02140709 0.00182775 0.02710282 0.14888618 0.02933281 0.02637517 
0.01860977 0.05684058 0.00196683 0.00206265 0.00759669 0.00226169 0.01096073 0.00458484 0.03478458 0.00994197 0.02132520 0.00184962 0.02743553 0.15000236 0.02949685 0.02667910 
0.01843641 0.05746250 0.00203866 0.00207676 0.00730206 0.00227585 0.01075276 0.00448571 0.03489380 0.00996594 0.02125036 0.00187117 0.02775603 0.15093226 0.02963344 0.02697538 
0.01826711 0.05807458 0.00211307 0.00209030 0.00700226 0.00228789 0.01053391 0.00439498 0.03502753 0.00999037 0.02118306 0.00189228 0.02806316 0.15167344 0.02974234 0.02725941 
0.01810266 0.05867677 0.00218972 0.00210322 0.00669801 0.00229773 0.01030499 0.00431295 0.03518588 0.01001507 0.02112376 0.00191286 0.02835579 0.15222426 0.02982336 0.02752671 
0.01794379 0.05926896 0.00226829 0.00211545 0.00639006 0.00230532 0.01006682 0.00423991 0.03536883 0.01003981 0.02107296 0.00193281 0.02863285 0.15258393 0.02987644 0.02777289 
0.01779121 0.05985097 0.00234845 0.00212696 0.00607916 0.00231063 0.00982023 0.00417609 0.03557627 0.01006435 0.02103113 0.00195203 0.02889332 0.15275246 0.02990159 0.02799379 
0.01764555 0.06042255 0.00242987 0.00213769 0.00576613 0.00231360 0.00956606 0.00412168 0.03580796 0.01008846 0.02099874 0.00197043 0.02913623 0.15273075 0.02989893 0.02818539 
0.01750740 0.06098338 0.00251221 0.00214762 0.00545177 0.00231423 0.00930519 0.00407684 0.03606355 0.01011188 0.02097626 0.00198792 0.02936068 0.15252047 0.02986866 0.02834394 
0.01737727 0.06153302 0.00259515 0.00215671 0.00513694 0.00231249 0.00903845 0.00404169 0.03634260 0.01013436 0.02096415 0.00200442 0.02956582 0.15212418 0.02981107 0.02846592 
0.01725564 0.06207099 0.00267835 0.00216492 0.00482250 0.00230839 0.00876672 0.00401632 0.03664453 0.01015566 0.02096285 0.00201985 0.02975088 0.15154521 0.02972657 0.02854810 
0.01714288 0.06259668 0.00276150 0.00217224 0.00450933 0.00230191 0.00849084 0.00400077 0.03696870 0.01017551 0.02097280 0.00203414 0.02991516 0.15078773 0.02961565 0.02858757 
0.01703933 0.06310942 0.00284428 0.00217864 0.00419835 0.00229309 0.00821167 0.00399504 0.03731436 0.01019367 0.02099440 0.00204721 0.03005801 0.14985667 0.02947888 0.02858172 
0.01694524 0.06360844 0.00292638 0.00218411 0.00389048 0.00228194 0.00793007 0.00399909 0.03768066 0.01020987 0.02102807 0.00205900 0.03017887 0.14875774 0.02931695 0.02852832 
0.01686079 0.06409286 0.00300749 0.00218864 0.00358668 0.00226850 0.00764686 0.00401287 0.03806668 0.01022389 0.02107416 0.00206945 0.03027727 0.14749738 0.02913062 0.02842548 
0.01678611 0.06456175 0.00308733 0.00219222 0.00328789 0.00225282 0.00736287 0.00403627 0.03847143 0.01023547 0.02113304 0.00207851 0.03035280 0.14608273 0.02892074 0.02827173 
0.01672123 0.06501408 0.00316561 0.00219484 0.00299512 0.00223494 0.00707892 0.00406915 0.03889385 0.01024440 0.02120502 0.00208614 0.03040513 0.14452162 0.02868826 0.02806596 
0.01666614 0.06544874 0.00324206 0.00219652 0.00270934 0.00221493 0.00679580 0.00411133 0.03933279 0.01025044 0.02129042 0.00209229 0.03043403 0.14282249 0.02843421 0.02780749 
0.01662075 0.06586456 0.00331643 0.00219726 0.00243157 0.00219286 0.00651430 0.00416263 0.03978708 0.01025339 0.02138950 0.00209693 0.03043934 0.14099438 0.02815969 0.02749604 
0.01658490 0.06626029 0.00338848 0.00219707 0.00216283 0.00216881 0.00623518 0.00422280 0.04025548 0.01025307 0.02150251 0.00210004 0.03042099 0.13904689 0.02786589 0.02713177 
0.01655837 0.06663465 0.00345798 0.00219598 0.00190416 0.00214287 0.00595919 0.00429160 0.04073671 0.01024927 0.02162967 0.00210159 0.03037901 0.13699009 0.02755407 0.02671525 
0.01654089 0.06698629 0.00352470 0.00219399 0.00165659 0.00211514 0.00568705 0.00436872 0.04122947 0.01024186 0.02177116 0.00210157 0.03031351 0.13483452 0.02722556 0.02624747 
0.01653212 0.06731382 0.00358847 0.00219115 0.00142116 0.00208572 0.00541948 0.00445388 0.04173240 0.01023067 0.02192712 0.00209998 0.03022468 0.13259110 0.02688175 0.02572984 
0.01653167 0.06761585 0.00364909 0.00218748 0.00119893 0.00205472 0.00515716 0.00454672 0.04224415 0.01021557 0.02209767 0.00209682 0.03011281 0.13027111 0.02652410 0.02516420 
0.01653910 0.06789095 0.00370640 0.00218302 0.00099095 0.00202226 0.00490075 0.00464691 0.04276335 0.01019647 0.02228291 0.00209209 0.02997829 0.12788608 0.02615412 0.02455276 
0.01655392 0.06813769 0.00376026 0.00217780 0.00079827 0.00198846 0.00465089 0.00475408 0.04328863 0.01017326 0.02248286 0.00208581 0.02982157 0.12544778 0.02577336 0.02389815 
0.01657561 0.06835467 0.00381055 0.00217187 0.00062192 0.00195346 0.00440821 0.00486783 0.04381859 0.01014588 0.02269755 0.00207800 0.02964322 0.12296812 0.02538342 0.02320336 
0.01660359 0.06854049 0.00385714 0.00216529 0.00046296 0.00191740 0.00417329 0.00498777 0.04435189 0.01011428 0.02292695 0.00206869 0.02944389 0.12045913 0.02498594 0.02247175 
0.01663728 0.06869380 0.00389996 0.00215809 0.00032241 0.00188041 0.00394672 0.00511349 0.04488716 0.01007844 0.02317099 0.00205791 0.02922429 0.11793285 0.02458257 0.02170701 
0.01667604 0.06881327 0.00393892 0.00215035 0.00020128 0.00184263 0.00372903 0.00524458 0.04542307 0.01003835 0.02342958 0.00204570 0.02898526 0.11540131 0.02417500 0.02091314 
0.01671922 0.06889765 0.00397398 0.00214211 0.00010056 0.00180423 0.00352077 0.00538059 0.04595832 0.00999402 0.02370257 0.00203212 0.02872768 0.11287642 0.02376493 0.02009447 
0.01676616 0.06894578 0.00400510 0.00213343 0.00002124 0.00176535 0.00332243 0.00552109 0.04649164 0.00994550 0.02398980 0.00201722 0.02845254 0.11036995 0.02335406 0.01925555 
0.01681617 0.06895656 0.00403227 0.00212440 0.00003574 0.00172616 0.00313449 0.00566566 0.04702180 0.00989284 0.02429103 0.00200104 0.02816089 0.10789344 0.02294410 0.01840120 
0.01686857 0.06892900 0.00405547 0.00211506 0.00006947 0.00168680 0.00295741 0.00581385 0.04754762 0.00983613 0.02460603 0.00198367 0.02785387 0.10545816 0.02253672 0.01753643 
0.01692266 0.06886222 0.00407475 0.00210550 0.00007905 0.00164744 0.00279162 0.00596521 0.04806794 0.00977546 0.02493448 0.00196516 0.02753266 0.10307502 0.02213361 0.01666645 
0.01697774 0.06875545 0.00409011 0.00209579 0.00006365 0.00160825 0.00263754 0.00611932 0.04858170 0.00971097 0.02527607 0.00194559 0.02719853 0.10075453 0.02173642 0.01579660 
0.01703314 0.06860806 0.00410164 0.00208601 0.00002246 0.00156938 0.00249554 0.00627574 0.04908786 0.00964279 0.02563040 0.00192505 0.02685281 0.09850676 0.02134674 0.01493232 
0.01708818 0.06841958 0.00410938 0.00207623 0.00004527 0.00153100 0.00236599 0.00643402 0.04958546 0.00957108 0.02599707 0.00190361 0.02649688 0.09634124 0.02096616 0.01407916 
0.01714218 0.06818966 0.00411343 0.00206653 0.00014023 0.00149327 0.00224923 0.00659376 0.05007359 0.00949603 0.02637562 0.00188136 0.02613217 0.09426695 0.02059618 0.01324267 
0.01719453 0.06791813 0.00411389 0.00205700 0.00026308 0.00145636 0.00214556 0.00675454 0.05055142 0.00941783 0.02676555 0.00185840 0.02576015 0.09229225 0.02023827 0.01242843 
0.01724458 0.06760497 0.00411087 0.00204771 0.00041439 0.00142043 0.00205529 0.00691594 0.05101819 0.00933669 0.02716633 0.00183481 0.02538235 0.09042485 0.01989381 0.01164199 
0.01729175 0.06725035 0.00410450 0.00203875 0.00059466 0.00138563 0.00197867 0.00707756 0.05147319 0.00925284 0.02757738 0.00181071 0.02500031 0.08867175 0.01956412 0.01088883 
0.01733548 0.06685460 0.00409492 0.00203020 0.00080435 0.00135213 0.00191595 0.00723902 0.05191579 0.00916652 0.02799807 0.00178617 0.02461560 0.08703921 0.01925044 0.01017432 
0.01737523 0.06641824 0.00408228 0.00202215 0.00104380 0.00132008 0.00186733 0.00739994 0.05234545 0.00907798 0.02842776 0.00176132 0.02422983 0.08553273 0.01895390 0.00950370 
0.01741050 0.06594196 0.00406675 0.00201468 0.00131330 0.00128962 0.00183300 0.00755996 0.05276168 0.00898749 0.02886573 0.00173625 0.02384460 0.08415701 0.01867555 0.00888204 
0.01744084 0.06542664 0.00404850 0.00200788 0.00161304 0.00126091 0.00181312 0.00771871 0.05316407 0.00889531 0.02931126 0.00171107 0.02346152 0.08291591 0.01841633 0.00831419 
0.01746583 0.06487334 0.00402772 0.00200182 0.00194312 0.00123410 0.00180782 0.00787586 0.05355228 0.00880173 0.02976357 0.00168589 0.02308222 0.08181245 0.01817708 0.00780478 
0.01748509 0.06428330 0.00400460 0.00199660 0.00230354 0.00120931 0.00181721 0.00803109 0.05392603 0.00870703 0.03022184 0.00166081 0.02270828 0.08084879 0.01795853 0.00735817 
0.01749828 0.06365795 0.00397934 0.00199228 0.00269423 0.00118668 0.00184135 0.00818408 0.05428513 0.00861151 0.03068522 0.00163594 0.02234131 0.08002623 0.01776128 0.00697840 
0.01750511 0.06299887 0.00395214 0.00198895 0.00311499 0.00116634 0.00188030 0.00833453 0.05462944 0.00851546 0.03115282 0.00161140 0.02198287 0.07934518 0.01758580 0.00666921 
0.01750535 0.06230782 0.00392321 0.00198668 0.00356552 0.00114842 0.00193406 0.00848215 0.05495888 0.00841917 0.03162371 0.00158728 0.02163450 0.07880518 0.01743246 0.00643397 
0.01749878 0.06158671 0.00389277 0.00198556 0.00404542 0.00113302 0.00200263 0.00862668 0.05527344 0.00832294 0.03209694 0.00156369 0.02129768 0.07840490 0.01730148 0.00627568 
0.01748525 0.06083763 0.00386105 0.00198564 0.00455418 0.00112025 0.00208594 0.00876785 0.05557318 0.00822707 0.03257152 0.00154075 0.02097389 0.07814215 0.01719296 0.00619693 
0.01746465 0.06006278 0.00382825 0.00198701 0.00509118 0.00111023 0.00218391 0.00890543 0.05585818 0.00813185 0.03304642 0.00151854 0.02066451 0.07801391 0.01710686 0.00619991 
0.01743692 0.05926450 0.00379461 0.00198973 0.00565568 0.00110303 0.00229643 0.00903918 0.05612861 0.00803757 0.03352061 0.00149719 0.02037089 0.07801630 0.01704303 0.00628636 
0.01740204 0.05844528 0.00376034 0.00199385 0.00624683 0.00109874 0.00242334 0.00916889 0.05638467 0.00794450 0.03399300 0.00147678 0.02009432 0.07814468 0.01700116 0.00645759 
0.01736003 0.05760767 0.00372568 0.00199945 0.00686368 0.00109745 0.00256446 0.00929435 0.05662660 0.00785292 0.03446250 0.00145741 0.01983599 0.07839363 0.01698082 0.00671443 
0.01731096 0.05675437 0.00369083 0.00200657 0.00750514 0.00109922 0.00271957 0.00941537 0.05685469 0.00776310 0.03492799 0.00143917 0.01959705 0.07875699 0.01698145 0.00705725 
0.01725494 0.05588812 0.00365604 0.00201527 0.00817005 0.00110411 0.00288839 0.00953178 0.05706925 0.00767529 0.03538834 0.00142217 0.01937853 0.07922791 0.01700239 0.00748593 
0.01719211 0.05501174 0.00362150 0.00202560 0.00885709 0.00111217 0.00307063 0.00964342 0.05727065 0.00758974 0.03584239 0.00140647 0.01918140 0.07979890 0.01704281 0.00799989 
0.01712267 0.05412812 0.00358744 0.00203758 0.00956487 0.00112344 0.00326597 0.00975012 0.05745927 0.00750668 0.03628900 0.00139217 0.01900652 0.08046187 0.01710179 0.00859806 
0.01704683 0.05324017 0.00355406 0.00205127 0.01029188 0.00113796 0.00347401 0.00985174 0.05763550 0.00742633 0.03672700 0.00137934 0.01885466 0.08120816 0.01717831 0.00927890 
0.01696485 0.05235082 0.00352157 0.00206669 0.01103651 0.00115574 0.00369437 0.00994817 0.05779979 0.00734890 0.03715523 0.00136807 0.01872649 0.08202865 0.01727123 0.01004039 
0.01687703 0.05146301 0.00349017 0.00208388 0.01179704 0.00117679 0.00392657 0.01003928 0.05795257 0.00727458 0.03757252 0.00135840 0.01862258 0.08291375 0.01737929 0.01088005 
0.01678368 0.05057968 0.00346005 0.00210284 0.01257168 0.00120112 0.00417014 0.01012496 0.05809429 0.00720354 0.03797772 0.00135042 0.01854337 0.08385353 0.01750116 0.01179495 
0.01668517 0.04970372 0.00343139 0.00212361 0.01335853 0.00122872 0.00442456 0.01020513 0.05822541 0.00713595 0.03836970 0.00134417 0.01848922 0.08483771 0.01763544 0.01278171 
0.01658185 0.04883799 0.00340438 0.00214618 0.01415561 0.00125956 0.00468925 0.01027970 0.05834641 0.00707195 0.03874733 0.00133971 0.01846036 0.08585581 0.01778062 0.01383654 
0.01647415 0.04798528 0.00337918 0.00217055 0.01496087 0.00129362 0.00496362 0.01034859 0.05845774 0.00701167 0.03910951 0.00133709 0.01845690 0.08689713 0.01793514 0.01495524 
0.01636247 0.04714833 0.00335595 0.00219674 0.01577220 0.00133084 0.00524703 0.01041175 0.05855987 0.00695522 0.03945519 0.00133634 0.01847885 0.08795090 0.01809740 0.01613324 
0.01624726 0.04632975 0.00333485 0.00222473 0.01658739 0.00137118 0.00553882 0.01046912 0.05865326 0.00690270 0.03978333 0.00133750 0.01852610 0.08900629 0.01826573 0.01736559 
0.01612899 0.04553207 0.00331601 0.00225449 0.01740421 0.00141458 0.00583828 0.01052068 0.05873836 0.00685419 0.04009294 0.00134060 0.01859842 0.09005250 0.01843843 0.01864703 
0.01600812 0.04475768 0.00329957 0.00228602 0.01822037 0.00146095 0.00614468 0.01056639 0.05881560 0.00680975 0.04038308 0.00134565 0.01869548 0.09107885 0.01861378 0.01997198 
0.01588516 0.04400886 0.00328565 0.00231928 0.01903354 0.00151021 0.00645723 0.01060625 0.05888539 0.00676944 0.04065286 0.00135268 0.01881683 0.09207481 0.01879006 0.02133461 
0.01576059 0.04328772 0.00327436 0.00235424 0.01984135 0.00156226 0.00677516 0.01064024 0.05894816 0.00673328 0.04090147 0.00136168 0.01896191 0.09303012 0.01896552 0.02272881 
0.01563492 0.04259621 0.00326580 0.00239086 0.02064143 0.00161699 0.00709763 0.01066839 0.05900427 0.00670129 0.04112815 0.00137265 0.01913005 0.09393481 0.01913845 0.02414830 
0.01550868 0.04193611 0.00326007 0.00242908 0.02143138 0.00167429 0.00742379 0.01069072 0.05905410 0.00667348 0.04133221 0.00138559 0.01932048 0.09477928 0.01930714 0.02558661 
0.01538239 0.04130903 0.00325723 0.00246886 0.02220880 0.00173401 0.00775278 0.01070726 0.05909799 0.00664984 0.04151305 0.00140049 0.01953232 0.09555439 0.01946994 0.02703712 
0.01525656 0.04071638 0.00325736 0.00251013 0.02297131 0.00179602 0.00808368 0.01071807 0.05913624 0.00663036 0.04167015 0.00141732 0.01976462 0.09625150 0.01962522 0.02849314 
0.01513171 0.04015937 0.00326050 0.00255282 0.02371653 0.00186018 0.00841560 0.01072322 0.05916916 0.00661501 0.04180308 0.00143605 0.02001630 0.09686251 0.01977143 0.02994788 
0.01500839 0.03963900 0.00326671 0.00259686 0.02444211 0.00192630 0.00874761 0.01072279 0.05919701 0.00660374 0.04191152 0.00145664 0.02028623 0.09737996 0.01990707 0.03139456 
0.01488709 0.03915606 0.00327601 0.00264216 0.02514574 0.00199423 0.00907875 0.01071688 0.05922002 0.00659652 0.04199525 0.00147906 0.02057317 0.09779706 0.02003074 0.03282639 
0.01476835 0.03871112 0.00328841 0.00268865 0.02582517 0.00206379 0.00940809 0.01070559 0.05923842 0.00659329 0.04205414 0.00150325 0.02087583 0.09810771 0.02014110 0.03423665 
0.01465267 0.03830455 0.00330394 0.00273622 0.02647817 0.00213478 0.00973467 0.01068906 0.05925237 0.00659399 0.04208819 0.00152915 0.02119282 0.09830661 0.02023695 0.03561868 
0.01454055 0.03793648 0.00332257 0.00278477 0.02710261 0.00220700 0.01005751 0.01066743 0.05926205 0.00659857 0.04209752 0.00155670 0.02152273 0.09838924 0.02031718 0.03696599 
0.01443250 0.03760682 0.00334430 0.00283420 0.02769641 0.00228025 0.01037567 0.01064087 0.05926759 0.00660696 0.04208235 0.00158584 0.02186407 0.09835191 0.02038079 0.03827222 
0.01432899 0.03731526 0.00336908 0.00288440 0.02825759 0.00235431 0.01068818 0.01060956 0.05926908 0.00661910 0.04204305 0.00161647 0.02221530 0.09819180 0.02042692 0.03953123 
0.01423049 0.03706128 0.00339688 0.00293525 0.02878426 0.00242897 0.01099410 0.01057369 0.05926661 0.00663493 0.04198010 0.00164852 0.02257484 0.09790700 0.02045484 0.04073712 
0.01413747 0.03684413 0.00342765 0.00298663 0.02927461 0.00250399 0.01129247 0.01053347 0.05926025 0.00665439 0.04189411 0.00168189 0.02294109 0.09749649 0.02046398 0.04188424 
0.01405038 0.03666288 0.00346131 0.00303840 0.02972696 0.00257914 0.01158237 0.01048915 0.05925002 0.00667742 0.04178583 0.00171650 0.02331243 0.09696016 0.02045388 0.04296727 
0.01396965 0.03651637 0.00349778 0.00309044 0.03013974 0.00265418 0.01186290 0.01044097 0.05923594 0.00670398 0.04165613 0.00175223 0.02368720 0.09629887 0.02042426 0.04398121 
0.01389568 0.03640325 0.00353698 0.00314261 0.03051150 0.00272888 0.01213315 0.01038919 0.05921802 0.00673403 0.04150602 0.00178899 0.02406375 0.09551438 0.02037498 0.04492143 
0.01382890 0.03632199 0.00357880 0.00319477 0.03084090 0.00280298 0.01239226 0.01033410 0.05919625 0.00676753 0.04133663 0.00182667 0.02444044 0.09460938 0.02030608 0.04578369 
0.01376966 0.03627087 0.00362312 0.00324677 0.03112677 0.00287624 0.01263939 0.01027601 0.05917058 0.00680447 0.04114923 0.00186513 0.02481561 0.09358750 0.02021773 0.04656417 
0.01371834 0.03624803 0.00366982 0.00329846 0.03136804 0.00294840 0.01287373 0.01021522 0.05914100 0.00684483 0.04094521 0.00190428 0.02518763 0.09245326 0.02011029 0.04725946 
0.01367529 0.03625143 0.00371877 0.00334970 0.03156382 0.00301922 0.01309451 0.01015208 0.05910745 0.00688861 0.04072607 0.00194398 0.02555491 0.09121206 0.01998425 0.04786666 
0.01364083 0.03627891 0.00376981 0.00340032 0.03171334 0.00308845 0.01330097 0.01008692 0.05906989 0.00693584 0.04049346 0.00198410 0.02591586 0.08987018 0.01984029 0.04838330 
0.01361525 0.03632817 0.00382279 0.00345018 0.03181598 0.00315584 0.01349243 0.01002010 0.05902827 0.00698655 0.04024911 0.00202452 0.02626896 0.08843469 0.01967922 0.04880742 
0.01359886 0.03639681 0.00387753 0.00349911 0.03187128 0.00322113 0.01366822 0.00995201 0.05898255 0.00704078 0.03999488 0.00206510 0.02661272 0.08691347 0.01950201 0.04913757 
0.01359190 0.03648231 0.00393386 0.00354696 0.03187895 0.00328410 0.01382774 0.00988302 0.05893271 0.00709860 0.03973271 0.00210571 0.02694571 0.08531515 0.01930980 0.04937278 
0.01359463 0.03658210 0.00399160 0.00359357 0.03183883 0.00334449 0.01397040 0.00981354 0.05887872 0.00716008 0.03946465 0.00214621 0.02726655 0.08364904 0.01910384 0.04951263 
0.01360726 0.03669353 0.00405054 0.00363878 0.03175092 0.00340208 0.01409571 0.00974395 0.05882058 0.00722534 0.03919284 0.00218647 0.02757393 0.08192512 0.01888553 0.04955721 
0.01362998 0.03681391 0.00411048 0.00368242 0.03161539 0.00345664 0.01420319 0.00967468 0.05875831 0.00729447 0.03891947 0.00222636 0.02786664 0.08015393 0.01865640 0.04950711 
0.01366298 0.03694051 0.00417121 0.00372436 0.03143254 0.00350795 0.01429244 0.00960614 0.05869195 0.00736762 0.03864681 0.00226572 0.02814350 0.07834657 0.01841810 0.04936345 
0.01370640 0.03707059 0.00423251 0.00376442 0.03120285 0.00355580 0.01436310 0.00953875 0.05862157 0.00744493 0.03837718 0.00230444 0.02840346 0.07651460 0.01817238 0.04912787 
0.01376038 0.03720143 0.00429416 0.00380246 0.03092692 0.00359999 0.01441489 0.00947293 0.05854729 0.00752658 0.03811295 0.00234238 0.02864552 0.07466995 0.01792109 0.04880250 
0.01382502 0.03733031 0.00435591 0.00383833 0.03060554 0.00364033 0.01444755 0.00940911 0.05846925 0.00761273 0.03785650 0.00237940 0.02886879 0.07282492 0.01766619 0.04838996 
0.01390041 0.03745458 0.00441754 0.00387188 0.03023960 0.00367665 0.01446091 0.00934769 0.05838764 0.00770360 0.03761026 0.00241538 0.02907248 0.07099205 0.01740969 0.04789333 
0.01398661 0.03757161 0.00447880 0.00390297 0.02983015 0.00370878 0.01445485 0.00928909 0.05830269 0.00779938 0.03737663 0.00245019 0.02925589 0.06918405 0.01715367 0.04731618 
0.01408368 0.03767887 0.00453946 0.00393146 0.02937838 0.00373657 0.01442933 0.00923372 0.05821471 0.00790030 0.03715803 0.00248370 0.02941843 0.06741376 0.01690026 0.04666247 
0.01419161 0.03777391 0.00459925 0.00395723 0.02888560 0.00375988 0.01438434 0.00918199 0.05812403 0.00800661 0.03695682 0.00251581 0.02955959 0.06569402 0.01665164 0.04593661 
0.01431043 0.03785438 0.00465795 0.00398016 0.02835326 0.00377861 0.01431995 0.00913426 0.05803105 0.00811853 0.03677537 0.00254640 0.02967899 0.06403764 0.01640999 0.04514338 
0.01444009 0.03791808 0.00471528 0.00400012 0.02778292 0.00379264 0.01423629 0.00909092 0.05793624 0.00823631 0.03661595 0.00257536 0.02977635 0.06245729 0.01617752 0.04428793 
0.01458057 0.03796291 0.00477102 0.00401700 0.02717625 0.00380190 0.01413355 0.00905232 0.05784014 0.00836023 0.03648079 0.00260259 0.02985149 0.06096544 0.01595641 0.04337573 
0.01473181 0.03798693 0.00482491 0.00403071 0.02653502 0.00380631 0.01401198 0.00901880 0.05774334 0.00849052 0.03637204 0.00262799 0.02990434 0.05957426 0.01574884 0.04241255 
0.01489371 0.03798838 0.00487671 0.00404116 0.02586114 0.00380582 0.01387190 0.00899067 0.05764651 0.00862745 0.03629175 0.00265149 0.02993492 0.05829559 0.01555695 0.04140444 
0.01506619 0.03796564 0.00492618 0.00404826 0.02515656 0.00380042 0.01371367 0.00896824 0.05755038 0.00877127 0.03624186 0.00267299 0.02994337 0.05714078 0.01538281 0.04035765 
0.01524913 0.03791730 0.00497308 0.00405194 0.02442336 0.00379009 0.01353772 0.00895176 0.05745577 0.00892223 0.03622418 0.00269243 0.02992993 0.05612072 0.01522844 0.03927866 
0.01544239 0.03784213 0.00501718 0.00405215 0.02366367 0.00377485 0.01334455 0.00894148 0.05736357 0.00908057 0.03624040 0.00270975 0.02989494 0.05524568 0.01509578 0.03817410 
0.01564583 0.03773912 0.00505827 0.00404882 0.02287970 0.00375472 0.01313468 0.00893762 0.05727473 0.00924653 0.03629204 0.00272489 0.02983882 0.05452530 0.01498668 0.03705070 
0.01585928 0.03760744 0.00509612 0.00404193 0.02207373 0.00372976 0.01290872 0.00894036 0.05719027 0.00942030 0.03638049 0.00273780 0.02976210 0.05396848 0.01490287 0.03591529 
0.01608256 0.03744651 0.00513053 0.00403145 0.02124809 0.00370005 0.01266731 0.00894984 0.05711129 0.00960208 0.03650693 0.00274844 0.02966540 0.05358338 0.01484596 0.03477475 
0.01631547 0.03725593 0.00516131 0.00401736 0.02040517 0.00366567 0.01241115 0.00896618 0.05703895 0.00979206 0.03667240 0.00275681 0.02954941 0.05337730 0.01481744 0.03363595 
0.01655782 0.03703557 0.00518828 0.00399967 0.01954738 0.00362675 0.01214098 0.00898947 0.05697449 0.00999038 0.03687772 0.00276286 0.02941492 0.05335665 0.01481863 0.03250574 
0.01680937 0.03678549 0.00521127 0.00397838 0.01867718 0.00358343 0.01185760 0.00901974 0.05691918 0.01019715 0.03712351 0.00276661 0.02926278 0.05352693 0.01485072 0.03139087 
0.01706991 0.03650599 0.00523011 0.00395352 0.01779706 0.00353584 0.01156183 0.00905702 0.05687437 0.01041247 0.03741019 0.00276804 0.02909391 0.05389262 0.01491471 0.03029801 
0.01733918 0.03619759 0.00524468 0.00392513 0.01690951 0.00348418 0.01125454 0.00910125 0.05684144 0.01063638 0.03773799 0.00276719 0.02890931 0.05445724 0.01501145 0.02923367 
0.01761693 0.03586105 0.00525484 0.00389326 0.01601705 0.00342864 0.01093666 0.00915239 0.05682184 0.01086891 0.03810688 0.00276407 0.02871004 0.05522321 0.01514157 0.02820418 
0.01790290 0.03549734 0.00526049 0.00385798 0.01512220 0.00336942 0.01060913 0.00921032 0.05681702 0.01111003 0.03851664 0.00275871 0.02849718 0.05619192 0.01530555 0.02721566 
0.01819682 0.03510765 0.00526155 0.00381937 0.01422747 0.00330675 0.01027292 0.00927490 0.05682849 0.01135968 0.03896681 0.00275117 0.02827191 0.05736364 0.01550364 0.02627395 
0.01849841 0.03469337 0.00525793 0.00377751 0.01333537 0.00324089 0.00992905 0.00934593 0.05685776 0.01161772 0.03945673 0.00274149 0.02803540 0.05873756 0.01573589 0.02538463 
0.01880738 0.03425611 0.00524960 0.00373252 0.01244840 0.00317209 0.00957855 0.00942321 0.05690635 0.01188401 0.03998548 0.00272974 0.02778889 0.06031172 0.01600218 0.02455298 
0.01912342 0.03379768 0.00523652 0.00368452 0.01156902 0.00310062 0.00922250 0.00950647 0.05697578 0.01215833 0.04055196 0.00271599 0.02753363 0.06208308 0.01630213 0.02378391 
0.01944624 0.03332006 0.00521868 0.00363363 0.01069968 0.00302678 0.00886196 0.00959542 0.05706757 0.01244041 0.04115483 0.00270034 0.02727090 0.06404748 0.01663519 0.02308197 
0.01977552 0.03282541 0.00519610 0.00358000 0.00984279 0.00295086 0.00849805 0.00968973 0.05718320 0.01272993 0.04179255 0.00268286 0.02700199 0.06619968 0.01700059 0.02245135 
0.02011094 0.03231609 0.00516881 0.00352379 0.00900073 0.00287317 0.00813188 0.00978903 0.05732414 0.01302650 0.04246336 0.00266366 0.02672820 0.06853334 0.01739735 0.02189579 
0.02045218 0.03179456 0.00513688 0.00346516 0.00817582 0.00279403 0.00776458 0.00989294 0.05749177 0.01332971 0.04316532 0.00264285 0.02645084 0.07104110 0.01782429 0.02141863 
0.02079888 0.03126345 0.00510037 0.00340429 0.00737034 0.00271376 0.00739729 0.01000102 0.05768746 0.01363905 0.04389630 0.00262055 0.02617120 0.07371455 0.01828002 0.02102276 
0.02115072 0.03072552 0.00505941 0.00334137 0.00658651 0.00263270 0.00703116 0.01011283 0.05791248 0.01395399 0.04465400 0.00259687 0.02589058 0.07654433 0.01876298 0.02071060 
0.02150733 0.03018364 0.00501412 0.00327661 0.00582650 0.00255118 0.00666733 0.01022790 0.05816802 0.01427390 0.04543594 0.00257195 0.02561023 0.07952013 0.01927140 0.02048413 
0.02186835 0.02964075 0.00496465 0.00321019 0.00509242 0.00246954 0.00630697 0.01034572 0.05845518 0.01459815 0.04623951 0.00254592 0.02533142 0.08263077 0.01980335 0.02034482 
0.02223342 0.02909991 0.00491118 0.00314235 0.00438628 0.00238812 0.00595121 0.01046578 0.05877493 0.01492600 0.04706196 0.00251893 0.02505536 0.08586423 0.02035673 0.02029371 
0.02260214 0.02856422 0.00485391 0.00307331 0.00371007 0.00230724 0.00560121 0.01058755 0.05912813 0.01525670 0.04790043 0.00249110 0.02478324 0.08920774 0.02092926 0.02033133 
0.02297413 0.02803681 0.00479305 0.00300329 0.00306564 0.00222726 0.00525810 0.01071048 0.05951552 0.01558942 0.04875193 0.00246261 0.02451621 0.09264782 0.02151856 0.02045773 
0.02334899 0.02752088 0.00472885 0.00293253 0.00245482 0.00214849 0.00492301 0.01083402 0.05993766 0.01592328 0.04961342 0.00243358 0.02425538 0.09617037 0.02212208 0.02067252 
0.02372629 0.02701960 0.00466158 0.00286127 0.00187931 0.00207126 0.00459703 0.01095761 0.06039498 0.01625739 0.05048179 0.00240419 0.02400181 0.09976073 0.02273717 0.02097481 
0.02410561 0.02653617 0.00459153 0.00278975 0.00134074 0.00199588 0.00428128 0.01108069 0.06088771 0.01659078 0.05135388 0.00237457 0.02375650 0.10340379 0.02336108 0.02136328 
0.02448651 0.02607373 0.00451899 0.00271822 0.00084065 0.00192267 0.00397682 0.01120269 0.06141594 0.01692244 0.05222649 0.00234489 0.02352040 0.10708404 0.02399097 0.02183617 
0.02486853 0.02563540 0.00444429 0.00264693 0.00038047 0.00185191 0.00368471 0.01132305 0.06197953 0.01725136 0.05309643 0.00231529 0.02329441 0.11078566 0.02462392 0.02239128 
0.02525119 0.02522422 0.00436778 0.00257613 0.00003845 0.00178389 0.00340596 0.01144123 0.06257816 0.01757647 0.05396054 0.00228594 0.02307936 0.11449264 0.02525698 0.02302601 
0.02563401 0.02484318 0.00428982 0.00250607 0.00041488 0.00171888 0.00314158 0.01155669 0.06321131 0.01789668 0.05481568 0.00225698 0.02287601 0.11818884 0.02588716 0.02373738 
0.02601648 0.02449516 0.00421078 0.00243698 0.00074769 0.00165714 0.00289253 0.01166892 0.06387824 0.01821089 0.05565876 0.00222855 0.02268507 0.12185808 0.02651146 0.02452203 
0.02639807 0.02418291 0.00413104 0.00236912 0.00103585 0.00159889 0.00265974 0.01177740 0.06457799 0.01851797 0.05648679 0.00220081 0.02250717 0.12548427 0.02712687 0.02537628 
0.02677826 0.02390907 0.00405101 0.00230273 0.00127848 0.00154436 0.00244411 0.01188167 0.06530940 0.01881678 0.05729685 0.00217390 0.02234287 0.12905146 0.02773041 0.02629611 
0.02715647 0.02367615 0.00397110 0.00223804 0.00147476 0.00149374 0.00224648 0.01198127 0.06607106 0.01910621 0.05808616 0.00214794 0.02219266 0.13254397 0.02831915 0.02727725 
0.02753213 0.02348647 0.00389172 0.00217529 0.00162405 0.00144723 0.00206767 0.01207577 0.06686137 0.01938510 0.05885207 0.00212307 0.02205697 0.13594644 0.02889023 0.02831514 
0.02790464 0.02334219 0.00381330 0.00211469 0.00172577 0.00140496 0.00190843 0.01216480 0.06767847 0.01965235 0.05959208 0.00209941 0.02193614 0.13924397 0.02944085 0.02940501 
0.02827339 0.02324528 0.00373626 0.00205647 0.00177952 0.00136709 0.00176949 0.01224800 0.06852032 0.01990685 0.06030385 0.00207707 0.02183047 0.14242217 0.02996832 0.03054189 
0.02863773 0.02319753 0.00366105 0.00200083 0.00178499 0.00133372 0.00165151 0.01232504 0.06938463 0.02014751 0.06098525 0.00205617 0.02174016 0.14546729 0.03047007 0.03172064 
0.02899703 0.02320049 0.00358808 0.00194797 0.00174202 0.00130495 0.00155510 0.01239567 0.07026893 0.02037328 0.06163433 0.00203680 0.02166537 0.14836625 0.03094366 0.03293599 
0.02935060 0.02325550 0.00351779 0.00189807 0.00165059 0.00128085 0.00148079 0.01245964 0.07117053 0.02058314 0.06224938 0.00201905 0.02160616 0.15110674 0.03138681 0.03418258 
0.02969777 0.02336368 0.00345060 0.00185132 0.00151078 0.00126145 0.00142910 0.01251677 0.07208655 0.02077611 0.06282888 0.00200300 0.02156255 0.15367734 0.03179741 0.03545498 
0.03003782 0.02352590 0.00338693 0.00180787 0.00132284 0.00124677 0.00140045 0.01256692 0.07301393 0.02095126 0.06337158 0.00198873 0.02153451 0.15606751 0.03217353 0.03674772 
0.03037005 0.02374279 0.00332718 0.00176787 0.00108715 0.00123682 0.00139519 0.01261000 0.07394945 0.02110773 0.06387645 0.00197629 0.02152191 0.15826773 0.03251344 0.03805533 
0.03069373 0.02401472 0.00327175 0.00173147 0.00080422 0.00123156 0.00141364 0.01264595 0.07488972 0.02124470 0.06434272 0.00196573 0.02152461 0.16026952 0.03281561 0.03937237 
0.03100812 0.02434182 0.00322103 0.00169878 0.00047471 0.00123094 0.00145601 0.01267479 0.07583122 0.02136141 0.06476989 0.00195711 0.02154238 0.16206548 0.03307875 0.04069346 
0.03131247 0.02472394 0.00317537 0.00166991 0.00009942 0.00123489 0.00152246 0.01269658 0.07677031 0.02145719 0.06515769 0.00195044 0.02157497 0.16364940 0.03330180 0.04201329 
0.03160604 0.02516070 0.00313512 0.00164496 0.00032070 0.00124330 0.00161308 0.01271140 0.07770322 0.02153145 0.06550613 0.00194574 0.02162205 0.16501622 0.03348394 0.04332670 
0.03188808 0.02565142 0.00310061 0.00162399 0.00078457 0.00125606 0.00172788 0.01271942 0.07862614 0.02158366 0.06581547 0.00194303 0.02168329 0.16616213 0.03362458 0.04462863 
0.03215783 0.02619521 0.00307215 0.00160707 0.00129096 0.00127301 0.00186677 0.01272083 0.07953515 0.02161338 0.06608623 0.00194229 0.02175829 0.16708456 0.03372343 0.04591422 
0.03241456 0.02679088 0.00304999 0.00159424 0.00183851 0.00129401 0.00202963 0.01271589 0.08042633 0.02162028 0.06631917 0.00194353 0.02184663 0.16778220 0.03378041 0.04717878 
0.03265752 0.02743702 0.00303440 0.00158553 0.00242570 0.00131886 0.00221620 0.01270487 0.08129571 0.02160410 0.06651530 0.00194670 0.02194785 0.16825502 0.03379574 0.04841783 
0.03288599 0.02813193 0.00302559 0.00158093 0.00305089 0.00134736 0.00242620 0.01268813 0.08213933 0.02156467 0.06667586 0.00195177 0.02206149 0.16850427 0.03376988 0.04962713 
0.03309927 0.02887372 0.00302375 0.00158046 0.00371229 0.00137930 0.00265922 0.01266603 0.08295328 0.02150194 0.06680232 0.00195871 0.02218704 0.16853247 0.03370355 0.05080268 
0.03329666 0.02966024 0.00302902 0.00158407 0.00440799 0.00141442 0.00291479 0.01263898 0.08373368 0.02141593 0.06689633 0.00196745 0.02232400 0.16834340 0.03359775 0.05194071 
0.03347752 0.03048910 0.00304153 0.00159172 0.00513593 0.00145249 0.00319237 0.01260745 0.08447673 0.02130679 0.06695978 0.00197793 0.02247182 0.16794207 0.03345370 0.05303777 
0.03364120 0.03135773 0.00306136 0.00160336 0.00589396 0.00149324 0.00349130 0.01257190 0.08517875 0.02117475 0.06699471 0.00199007 0.02262999 0.16733470 0.03327290 0.05409066 
0.03378711 0.03226333 0.00308854 0.00161890 0.00667978 0.00153638 0.00381088 0.01253286 0.08583618 0.02102013 0.06700331 0.00200381 0.02279797 0.16652868 0.03305706 0.05509646 
0.03391470 0.03320292 0.00312310 0.00163826 0.00749097 0.00158163 0.00415030 0.01249086 0.08644561 0.02084336 0.06698794 0.00201903 0.02297521 0.16553252 0.03280814 0.05605255 
0.03402346 0.03417334 0.00316498 0.00166131 0.00832502 0.00162869 0.00450868 0.01244647 0.08700380 0.02064498 0.06695106 0.00203566 0.02316118 0.16435579 0.03252830 0.05695662 
0.03411293 0.03517126 0.00321411 0.00168794 0.00917931 0.00167726 0.00488506 0.01240025 0.08750773 0.02042560 0.06689524 0.00205358 0.02335535 0.16300907 0.03221991 0.05780663 
0.03418270 0.03619322 0.00327038 0.00171800 0.01005112 0.00172702 0.00527841 0.01235281 0.08795460 0.02018593 0.06682312 0.00207268 0.02355722 0.16150390 0.03188552 0.05860084 
0.03423242 0.03723561 0.00333362 0.00175134 0.01093765 0.00177765 0.00568762 0.01230474 0.08834183 0.01992678 0.06673740 0.00209286 0.02376627 0.15985267 0.03152788 0.05933781 
0.03426180 0.03829469 0.00340364 0.00178779 0.01183602 0.00182883 0.00611151 0.01225665 0.08866713 0.01964902 0.06664080 0.00211398 0.02398201 0.15806857 0.03114985 0.06001635 
0.03427063 0.03936666 0.00348019 0.00182716 0.01274326 0.00188026 0.00654883 0.01220915 0.08892849 0.01935362 0.06653607 0.00213594 0.02420398 0.15616550 0.03075446 0.06063559 
0.03425877 0.04044761 0.00356300 0.00186926 0.01365637 0.00193159 0.00699827 0.01216284 0.08912421 0.01904162 0.06642592 0.00215859 0.02443172 0.15415798 0.03034484 0.06119487 
0.03422614 0.04153356 0.00365175 0.00191388 0.01457228 0.00198252 0.00745844 0.01211832 0.08925290 0.01871414 0.06631302 0.00218181 0.02466480 0.15206105 0.02992422 0.06169383 
0.03417276 0.04262051 0.00374606 0.00196079 0.01548788 0.00203274 0.00792793 0.01207617 0.08931349 0.01837233 0.06619999 0.00220548 0.02490283 0.14989017 0.02949591 0.06213232 
0.03409870 0.04370442 0.00384555 0.00200978 0.01640004 0.00208192 0.00840524 0.01203697 0.08930527 0.01801743 0.06608935 0.00222946 0.02514541 0.14766116 0.02906326 0.06251043 
0.03400415 0.04478122 0.00394979 0.00206061 0.01730562 0.00212979 0.00888884 0.01200125 0.08922789 0.01765073 0.06598350 0.00225362 0.02539218 0.14539005 0.02862965 0.06282845 
0.03388937 0.04584689 0.00405830 0.00211303 0.01820145 0.00217603 0.00937716 0.01196953 0.08908136 0.01727355 0.06588473 0.00227784 0.02564282 0.14309301 0.02819847 0.06308686 
0.03375470 0.04689741 0.00417058 0.00216679 0.01908440 0.00222036 0.00986859 0.01194232 0.08886604 0.01688725 0.06579516 0.00230198 0.02589700 0.14078621 0.02777309 0.06328634 
0.03360058 0.04792882 0.00428611 0.00222163 0.01995134 0.00226252 0.01036148 0.01192008 0.08858268 0.01649323 0.06571674 0.00232592 0.02615445 0.13848577 0.02735684 0.06342771 
0.03342753 0.04893721 0.00440433 0.00227730 0.02079918 0.00230225 0.01085419 0.01190321 0.08823240 0.01609291 0.06565123 0.00234955 0.02641488 0.13620761 0.02695298 0.06351194 
0.03323618 0.04991879 0.00452465 0.00233352 0.02162487 0.00233930 0.01134502 0.01189212 0.08781669 0.01568771 0.06560018 0.00237274 0.02667806 0.13396736 0.02656469 0.06354012 
0.03302723 0.05086982 0.00464647 0.00239004 0.02242543 0.00237344 0.01183229 0.01188715 0.08733741 0.01527908 0.06556491 0.00239538 0.02694376 0.13178028 0.02619503 0.06351347 
0.03280146 0.05178672 0.00476917 0.00244659 0.02319796 0.00240446 0.01231430 0.01188859 0.08679678 0.01486845 0.06554651 0.00241736 0.02721176 0.12966114 0.02584694 0.06343328 
0.03255976 0.05266603 0.00489210 0.00250290 0.02393963 0.00243216 0.01278937 0.01189669 0.08619738 0.01445726 0.06554584 0.00243859 0.02748187 0.12762412 0.02552320 0.06330092 
0.03230308 0.05350443 0.00501463 0.00255871 0.02464771 0.00245637 0.01325581 0.01191167 0.08554211 0.01404693 0.06556347 0.00245898 0.02775390 0.12568276 0.02522643 0.06311784 
0.03203247 0.05429878 0.00513607 0.00261376 0.02531960 0.00247692 0.01371197 0.01193367 0.08483423 0.01363885 0.06559973 0.00247842 0.02802767 0.12384982 0.02495904 0.06288551 
0.03174905 0.05504613 0.00525578 0.00266779 0.02595280 0.00249367 0.01415622 0.01196280 0.08407730 0.01323440 0.06565467 0.00249685 0.02830300 0.12213724 0.02472324 0.06260545 
0.03145399 0.05574369 0.00537308 0.00272055 0.02654498 0.00250651 0.01458695 0.01199910 0.08327517 0.01283491 0.06572809 0.00251420 0.02857974 0.12055605 0.02452101 0.06227920 
0.03114856 0.05638891 0.00548731 0.00277179 0.02709393 0.00251534 0.01500262 0.01204257 0.08243197 0.01244166 0.06581950 0.00253040 0.02885770 0.11911630 0.02435412 0.06190831 
0.03083407 0.05697944 0.00559782 0.00282129 0.02759761 0.00252008 0.01540172 0.01209315 0.08155210 0.01205591 0.06592815 0.00254540 0.02913671 0.11782701 0.02422404 0.06149433 
0.03051189 0.05751317 0.00570395 0.00286882 0.02805416 0.00252067 0.01578280 0.01215074 0.08064017 0.01167884 0.06605303 0.00255916 0.02941658 0.11669609 0.02413201 0.06103881 
0.03018344 0.05798822 0.00580507 0.00291415 0.02846188 0.00251708 0.01614447 0.01221516 0.07970103 0.01131159 0.06619287 0.00257163 0.02969710 0.11573032 0.02407899 0.06054327 
0.02985019 0.05840296 0.00590057 0.00295708 0.02881927 0.00250930 0.01648541 0.01228622 0.07873969 0.01095522 0.06634616 0.00258280 0.02997808 0.11493530 0.02406565 0.06000923 
0.02951361 0.05875602 0.00598985 0.00299742 0.02912503 0.00249734 0.01680440 0.01236363 0.07776131 0.01061074 0.06651116 0.00259266 0.03025926 0.11431542 0.02409239 0.05943819 
0.02917525 0.05904628 0.00607235 0.00303499 0.02937807 0.00248123 0.01710027 0.01244710 0.07677119 0.01027907 0.06668589 0.00260118 0.03054039 0.11387384 0.02415932 0.05883160 
0.02883662 0.05927289 0.00614753 0.00306963 0.02957750 0.00246102 0.01737197 0.01253625 0.07577473 0.00996107 0.06686820 0.00260839 0.03082119 0.11361245 0.02426623 0.05819093 
0.02849929 0.05943529 0.00621489 0.00310117 0.02972265 0.00243678 0.01761851 0.01263070 0.07477740 0.00965752 0.06705573 0.00261428 0.03110133 0.11353191 0.02441267 0.05751759 
0.02816479 0.05953317 0.00627397 0.00312949 0.02981308 0.00240861 0.01783904 0.01273000 0.07378469 0.00936912 0.06724595 0.00261889 0.03138047 0.11363163 0.02459787 0.05681300 
0.02783467 0.05956649 0.00632433 0.00315446 0.02984855 0.00237662 0.01803279 0.01283367 0.07280211 0.00909648 0.06743621 0.00262224 0.03165823 0.11390975 0.02482078 0.05607856 
0.02751044 0.05953552 0.00636559 0.00317599 0.02982908 0.00234095 0.01819910 0.01294119 0.07183515 0.00884013 0.06762371 0.00262438 0.03193417 0.11436324 0.02508008 0.05531567 
0.02719361 0.05944077 0.00639742 0.00319398 0.02975489 0.00230174 0.01833744 0.01305202 0.07088924 0.00860053 0.06780558 0.00262535 0.03220785 0.11498785 0.02537421 0.05452570 
0.02688561 0.05928303 0.00641952 0.00320837 0.02962644 0.00225918 0.01844737 0.01316557 0.06996973 0.00837804 0.06797886 0.00262522 0.03247875 0.11577817 0.02570131 0.05371007 
0.02658788 0.05906338 0.00643166 0.00321911 0.02944442 0.00221344 0.01852858 0.01328126 0.06908184 0.00817295 0.06814054 0.00262404 0.03274632 0.11672770 0.02605932 0.05287020 
0.02630177 0.05878315 0.00643365 0.00322616 0.02920972 0.00216473 0.01858089 0.01339846 0.06823067 0.00798546 0.06828761 0.00262190 0.03300997 0.11782888 0.02644594 0.05200753 
0.02602857 0.05844392 0.00642538 0.00322953 0.02892349 0.00211327 0.01860422 0.01351653 0.06742113 0.00781569 0.06841704 0.00261886 0.03326906 0.11907316 0.02685866 0.05112354 
0.02576952 0.05804755 0.00640675 0.00322920 0.02858704 0.00205929 0.01859862 0.01363484 0.06665793 0.00766368 0.06852586 0.00261501 0.03352291 0.12045105 0.02729477 0.05021979 
0.02552575 0.05759612 0.00637776 0.00322521 0.02820194 0.00200304 0.01856428 0.01375272 0.06594556 0.00752941 0.06861114 0.00261046 0.03377080 0.12195221 0.02775142 0.04929787 
0.02529833 0.05709196 0.00633845 0.00321760 0.02776994 0.00194478 0.01850147 0.01386952 0.06528826 0.00741277 0.06867006 0.00260528 0.03401194 0.12356553 0.02822558 0.04835945 
0.02508823 0.05653764 0.00628893 0.00320643 0.02729296 0.00188478 0.01841061 0.01398459 0.06469000 0.00731358 0.06869990 0.00259959 0.03424554 0.12527919 0.02871410 0.04740628 
0.02489632 0.05593593 0.00622935 0.00319178 0.02677315 0.00182331 0.01829223 0.01409727 0.06415443 0.00723160 0.06869808 0.00259348 0.03447074 0.12708079 0.02921374 0.04644023 
0.02472335 0.05528980 0.00615994 0.00317375 0.02621279 0.00176066 0.01814695 0.01420693 0.06368490 0.00716653 0.06866219 0.00258708 0.03468666 0.12895740 0.02972116 0.04546324 
0.02456997 0.05460244 0.00608097 0.00315245 0.02561435 0.00169713 0.01797553 0.01431293 0.06328443 0.00711801 0.06859001 0.00258047 0.03489236 0.13089567 0.03023299 0.04447741 
0.02443673 0.05387721 0.00599279 0.00312801 0.02498044 0.00163302 0.01777882 0.01441466 0.06295568 0.00708563 0.06847953 0.00257379 0.03508690 0.13288197 0.03074580 0.04348491 
0.02432402 0.05311761 0.00589578 0.00310059 0.02431379 0.00156862 0.01755777 0.01451155 0.06270093 0.00706891 0.06832896 0.00256713 0.03526930 0.13490241 0.03125618 0.04248810 
0.02423216 0.05232734 0.00579039 0.00307034 0.02361728 0.00150425 0.01731342 0.01460303 0.06252209 0.00706736 0.06813677 0.00256062 0.03543857 0.13694300 0.03176074 0.04148944 
0.02416129 0.05151020 0.00567713 0.00303744 0.02289389 0.00144021 0.01704692 0.01468858 0.06242070 0.00708042 0.06790170 0.00255436 0.03559368 0.13898977 0.03225612 0.04049156 
0.02411146 0.05067012 0.00555653 0.00300208 0.02214667 0.00137681 0.01675947 0.01476768 0.06239787 0.00710752 0.06762275 0.00254848 0.03573361 0.14102879 0.03273904 0.03949722 
0.02408258 0.04981115 0.00542921 0.00296447 0.02137879 0.00131436 0.01645238 0.01483989 0.06245432 0.00714805 0.06729924 0.00254306 0.03585734 0.14304635 0.03320632 0.03850935 
0.02407443 0.04893741 0.00529580 0.00292482 0.02059345 0.00125316 0.01612700 0.01490477 0.06259036 0.00720137 0.06693077 0.00253824 0.03596383 0.14502902 0.03365490 0.03753101 
