0.03570434 0.00931540 0.00827772 0.00282020 0.00095613 0.00246116 0.00144641 0.00403660 0.00959464 0.00237502 0.00166311 0.00106675 0.00247528 0.00137082 0.00158584 0.00137136 
0.03594575 0.00924102 0.00864080 0.00282669 0.00096195 0.00240820 0.00146049 0.00392898 0.00982109 0.00238284 0.00172025 0.00104166 0.00246867 0.00134069 0.00158756 0.00136792 
0.03617301 0.00917507 0.00900064 0.00283791 0.00096892 0.00235775 0.00147696 0.00382206 0.01004285 0.00239281 0.00177620 0.00101836 0.00245974 0.00131188 0.00159248 0.00136408 
0.03638559 0.00911822 0.00935610 0.00285383 0.00097695 0.00230981 0.00149569 0.00371621 0.01025952 0.00240475 0.00183064 0.00099688 0.00244848 0.00128443 0.00160060 0.00135986 
0.03658311 0.00907109 0.00970605 0.00287440 0.00098598 0.00226433 0.00151653 0.00361177 0.01047076 0.00241845 0.00188329 0.00097725 0.00243488 0.00125838 0.00161188 0.00135531 
0.03676531 0.00903421 0.01004938 0.00289954 0.00099590 0.00222130 0.00153935 0.00350905 0.01067622 0.00243369 0.00193385 0.00095948 0.00241897 0.00123375 0.00162630 0.00135044 
0.03693210 0.00900806 0.01038502 0.00292915 0.00100661 0.00218068 0.00156398 0.00340836 0.01087558 0.00245026 0.00198203 0.00094356 0.00240075 0.00121058 0.00164379 0.00134529 
0.03708353 0.00899302 0.01071189 0.00296311 0.00101802 0.00214244 0.00159025 0.00330998 0.01106854 0.00246793 0.00202756 0.00092950 0.00238027 0.00118887 0.00166430 0.00133990 
0.03721981 0.00898939 0.01102899 0.00300129 0.00103002 0.00210655 0.00161800 0.00321416 0.01125482 0.00248648 0.00207018 0.00091727 0.00235758 0.00116864 0.00168773 0.00133430 
0.03734129 0.00899740 0.01133532 0.00304351 0.00104250 0.00207295 0.00164702 0.00312113 0.01143417 0.00250569 0.00210964 0.00090685 0.00233273 0.00114989 0.00171398 0.00132853 
0.03744847 0.00901717 0.01162997 0.00308961 0.00105535 0.00204161 0.00167715 0.00303110 0.01160637 0.00252532 0.00214570 0.00089820 0.00230581 0.00113261 0.00174294 0.00132263 
0.03754198 0.00904876 0.01191203 0.00313937 0.00106845 0.00201249 0.00170818 0.00294425 0.01177121 0.00254517 0.00217815 0.00089129 0.00227688 0.00111680 0.00177447 0.00131663 
0.03762261 0.00909211 0.01218069 0.00319260 0.00108169 0.00198553 0.00173993 0.00286074 0.01192852 0.00256499 0.00220680 0.00088606 0.00224606 0.00110244 0.00180842 0.00131057 
0.03769127 0.00914712 0.01243519 0.00324905 0.00109495 0.00196070 0.00177220 0.00278071 0.01207816 0.00258459 0.00223146 0.00088247 0.00221345 0.00108951 0.00184465 0.00130449 
0.03774898 0.00921355 0.01267481 0.00330848 0.00110811 0.00193794 0.00180480 0.00270426 0.01222001 0.00260373 0.00225199 0.00088044 0.00217918 0.00107798 0.00188297 0.00129842 
0.03779690 0.00929113 0.01289893 0.00337062 0.00112106 0.00191721 0.00183754 0.00263147 0.01235397 0.00262223 0.00226826 0.00087992 0.00214336 0.00106783 0.00192320 0.00129240 
0.03783629 0.00937945 0.01310699 0.00343522 0.00113369 0.00189845 0.00187024 0.00256242 0.01248000 0.00263987 0.00228018 0.00088083 0.00210615 0.00105901 0.00196514 0.00128647 
0.03786850 0.00947808 0.01329851 0.00350198 0.00114588 0.00188162 0.00190272 0.00249713 0.01259805 0.00265648 0.00228767 0.00088308 0.00206769 0.00105148 0.00200860 0.00128065 
0.03789497 0.00958648 0.01347309 0.00357061 0.00115753 0.00186667 0.00193482 0.00243562 0.01270813 0.00267187 0.00229070 0.00088661 0.00202815 0.00104520 0.00205335 0.00127499 
0.03791723 0.00970403 0.01363039 0.00364081 0.00116853 0.00185354 0.00196637 0.00237790 0.01281028 0.00268586 0.00228925 0.00089133 0.00198769 0.00104012 0.00209918 0.00126950 
0.03793683 0.00983008 0.01377017 0.00371227 0.00117878 0.00184220 0.00199724 0.00232393 0.01290453 0.00269831 0.00228335 0.00089714 0.00194650 0.00103619 0.00214586 0.00126423 
0.03795542 0.00996388 0.01389228 0.00378468 0.00118819 0.00183258 0.00202729 0.00227368 0.01299099 0.00270907 0.00227304 0.00090397 0.00190475 0.00103336 0.00219316 0.00125921 
0.03797465 0.01010465 0.01399664 0.00385772 0.00119667 0.00182464 0.00205640 0.00222707 0.01306976 0.00271800 0.00225841 0.00091171 0.00186265 0.00103156 0.00224084 0.00125444 
0.03799619 0.01025155 0.01408326 0.00393107 0.00120413 0.00181834 0.00208448 0.00218405 0.01314099 0.00272499 0.00223959 0.00092029 0.00182038 0.00103074 0.00228866 0.00124998 
0.03802173 0.01040369 0.01415222 0.00400443 0.00121051 0.00181362 0.00211144 0.00214451 0.01320484 0.00272994 0.00221673 0.00092960 0.00177814 0.00103083 0.00233639 0.00124582 
0.03805295 0.01056015 0.01420369 0.00407746 0.00121573 0.00181043 0.00213721 0.00210835 0.01326152 0.00273277 0.00219000 0.00093957 0.00173615 0.00103178 0.00238380 0.00124200 
0.03809149 0.01071998 0.01423794 0.00414985 0.00121973 0.00180874 0.00216175 0.00207547 0.01331123 0.00273339 0.00215963 0.00095009 0.00169462 0.00103352 0.00243064 0.00123854 
0.03813897 0.01088220 0.01425530 0.00422130 0.00122246 0.00180849 0.00218504 0.00204572 0.01335422 0.00273177 0.00212587 0.00096108 0.00165375 0.00103598 0.00247668 0.00123544 
0.03819693 0.01104581 0.01425616 0.00429150 0.00122387 0.00180963 0.00220708 0.00201899 0.01339075 0.00272786 0.00208901 0.00097246 0.00161375 0.00103911 0.00252170 0.00123272 
0.03826686 0.01120982 0.01424101 0.00436015 0.00122393 0.00181213 0.00222790 0.00199514 0.01342112 0.00272164 0.00204934 0.00098414 0.00157484 0.00104284 0.00256549 0.00123040 
0.03835017 0.01137321 0.01421042 0.00442697 0.00122261 0.00181593 0.00224752 0.00197401 0.01344563 0.00271311 0.00200723 0.00099605 0.00153723 0.00104709 0.00260782 0.00122848 
0.03844813 0.01153498 0.01416498 0.00449168 0.00121989 0.00182099 0.00226604 0.00195547 0.01346459 0.00270228 0.00196303 0.00100811 0.00150113 0.00105182 0.00264850 0.00122696 
0.03856196 0.01169414 0.01410539 0.00455401 0.00121576 0.00182727 0.00228352 0.00193937 0.01347836 0.00268920 0.00191714 0.00102024 0.00146675 0.00105696 0.00268734 0.00122586 
0.03869270 0.01184973 0.01403238 0.00461372 0.00121023 0.00183471 0.00230011 0.00192556 0.01348728 0.00267391 0.00187000 0.00103239 0.00143429 0.00106245 0.00272415 0.00122517 
0.03884128 0.01200080 0.01394675 0.00467057 0.00120330 0.00184328 0.00231593 0.00191390 0.01349174 0.00265647 0.00182203 0.00104449 0.00140394 0.00106822 0.00275877 0.00122488 
0.03900847 0.01214643 0.01384933 0.00472432 0.00119500 0.00185293 0.00233114 0.00190424 0.01349210 0.00263697 0.00177371 0.00105647 0.00137590 0.00107423 0.00279104 0.00122500 
0.03919489 0.01228575 0.01374100 0.00477479 0.00118534 0.00186361 0.00234595 0.00189645 0.01348878 0.00261551 0.00172551 0.00106830 0.00135035 0.00108041 0.00282083 0.00122553 
0.03940098 0.01241794 0.01362269 0.00482177 0.00117437 0.00187529 0.00236055 0.00189039 0.01348216 0.00259221 0.00167794 0.00107992 0.00132747 0.00108671 0.00284800 0.00122644 
0.03962702 0.01254220 0.01349535 0.00486510 0.00116213 0.00188791 0.00237517 0.00188594 0.01347267 0.00256719 0.00163150 0.00109130 0.00130743 0.00109308 0.00287247 0.00122774 
0.03987307 0.01265783 0.01335995 0.00490462 0.00114867 0.00190144 0.00239008 0.00188299 0.01346072 0.00254061 0.00158672 0.00110239 0.00129037 0.00109947 0.00289412 0.00122940 
0.04013905 0.01276416 0.01321748 0.00494021 0.00113406 0.00191582 0.00240554 0.00188142 0.01344673 0.00251261 0.00154412 0.00111317 0.00127645 0.00110584 0.00291289 0.00123142 
0.04042463 0.01286058 0.01306896 0.00497175 0.00111837 0.00193102 0.00242185 0.00188115 0.01343113 0.00248337 0.00150423 0.00112361 0.00126580 0.00111214 0.00292872 0.00123378 
0.04072933 0.01294657 0.01291541 0.00499914 0.00110168 0.00194698 0.00243930 0.00188208 0.01341434 0.00245308 0.00146758 0.00113369 0.00125854 0.00111832 0.00294157 0.00123646 
0.04105245 0.01302166 0.01275784 0.00502232 0.00108406 0.00196368 0.00245823 0.00188413 0.01339681 0.00242192 0.00143471 0.00114340 0.00125477 0.00112435 0.00295142 0.00123944 
0.04139309 0.01308547 0.01259726 0.00504124 0.00106561 0.00198105 0.00247896 0.00188725 0.01337896 0.00239010 0.00140612 0.00115273 0.00125459 0.00113020 0.00295827 0.00124270 
0.04175015 0.01313768 0.01243468 0.00505586 0.00104643 0.00199906 0.00250186 0.00189139 0.01336122 0.00235783 0.00138235 0.00116167 0.00125808 0.00113582 0.00296212 0.00124622 
0.04212235 0.01317806 0.01227109 0.00506617 0.00102662 0.00201766 0.00252726 0.00189651 0.01334401 0.00232532 0.00136387 0.00117022 0.00126529 0.00114118 0.00296301 0.00124997 
0.04250820 0.01320644 0.01210745 0.00507218 0.00100628 0.00203682 0.00255555 0.00190257 0.01332776 0.00229281 0.00135118 0.00117838 0.00127626 0.00114626 0.00296100 0.00125394 
0.04290605 0.01322275 0.01194470 0.00507393 0.00098553 0.00205648 0.00258709 0.00190957 0.01331289 0.00226052 0.00134474 0.00118617 0.00129104 0.00115103 0.00295613 0.00125810 
0.04331404 0.01322696 0.01178375 0.00507145 0.00096449 0.00207661 0.00262225 0.00191751 0.01329981 0.00222868 0.00134499 0.00119359 0.00130962 0.00115547 0.00294849 0.00126241 
0.04373018 0.01321916 0.01162547 0.00506481 0.00094326 0.00209715 0.00266141 0.00192640 0.01328894 0.00219753 0.00135235 0.00120065 0.00133200 0.00115954 0.00293818 0.00126686 
0.04415229 0.01319947 0.01147068 0.00505410 0.00092197 0.00211808 0.00270494 0.00193626 0.01328067 0.00216730 0.00136720 0.00120737 0.00135815 0.00116324 0.00292530 0.00127142 
0.04457807 0.01316811 0.01132018 0.00503941 0.00090075 0.00213935 0.00275321 0.00194712 0.01327541 0.00213822 0.00138990 0.00121377 0.00138803 0.00116654 0.00290999 0.00127606 
0.04500507 0.01312536 0.01117469 0.00502087 0.00087972 0.00216091 0.00280658 0.00195904 0.01327353 0.00211054 0.00142076 0.00121986 0.00142158 0.00116942 0.00289236 0.00128076 
0.04543073 0.01307155 0.01103490 0.00499860 0.00085899 0.00218274 0.00286542 0.00197207 0.01327543 0.00208447 0.00146007 0.00122565 0.00145871 0.00117188 0.00287257 0.00128549 
0.04585238 0.01300709 0.01090143 0.00497274 0.00083870 0.00220478 0.00293005 0.00198626 0.01328146 0.00206024 0.00150808 0.00123118 0.00149934 0.00117390 0.00285078 0.00129023 
0.04626728 0.01293243 0.01077486 0.00494346 0.00081896 0.00222700 0.00300082 0.00200170 0.01329200 0.00203807 0.00156498 0.00123645 0.00154334 0.00117546 0.00282715 0.00129494 
0.04667261 0.01284809 0.01065567 0.00491091 0.00079990 0.00224937 0.00307803 0.00201846 0.01330740 0.00201818 0.00163094 0.00124148 0.00159058 0.00117656 0.00280185 0.00129960 
0.04706548 0.01275460 0.01054433 0.00487527 0.00078163 0.00227185 0.00316199 0.00203664 0.01332801 0.00200076 0.00170607 0.00124630 0.00164092 0.00117720 0.00277507 0.00130420 
0.04744301 0.01265257 0.01044121 0.00483674 0.00076427 0.00229440 0.00325297 0.00205631 0.01335415 0.00198600 0.00179044 0.00125091 0.00169418 0.00117735 0.00274698 0.00130869 
0.04780226 0.01254262 0.01034662 0.00479549 0.00074793 0.00231698 0.00335123 0.00207759 0.01338616 0.00197409 0.00188406 0.00125532 0.00175019 0.00117703 0.00271779 0.00131308 
0.04814034 0.01242541 0.01026082 0.00475173 0.00073272 0.00233957 0.00345699 0.00210056 0.01342435 0.00196520 0.00198691 0.00125955 0.00180875 0.00117623 0.00268767 0.00131732 
0.04845435 0.01230161 0.01018397 0.00470565 0.00071873 0.00236213 0.00357046 0.00212533 0.01346902 0.00195948 0.00209892 0.00126360 0.00186964 0.00117493 0.00265683 0.00132140 
0.04874145 0.01217192 0.01011621 0.00465745 0.00070607 0.00238464 0.00369183 0.00215200 0.01352047 0.00195708 0.00221996 0.00126747 0.00193266 0.00117315 0.00262545 0.00132531 
0.04899889 0.01203704 0.01005758 0.00460735 0.00069482 0.00240705 0.00382123 0.00218067 0.01357898 0.00195813 0.00234985 0.00127116 0.00199755 0.00117089 0.00259373 0.00132901 
0.04922397 0.01189768 0.01000806 0.00455553 0.00068506 0.00242934 0.00395880 0.00221143 0.01364483 0.00196274 0.00248837 0.00127467 0.00206407 0.00116814 0.00256187 0.00133251 
0.04941412 0.01175455 0.00996758 0.00450221 0.00067689 0.00245148 0.00410461 0.00224439 0.01371828 0.00197101 0.00263524 0.00127799 0.00213198 0.00116490 0.00253003 0.00133577 
0.04956689 0.01160834 0.00993601 0.00444757 0.00067035 0.00247345 0.00425872 0.00227964 0.01379957 0.00198301 0.00279016 0.00128110 0.00220099 0.00116118 0.00249842 0.00133879 
0.04967996 0.01145975 0.00991315 0.00439181 0.00066551 0.00249521 0.00442116 0.00231725 0.01388894 0.00199882 0.00295276 0.00128399 0.00227085 0.00115699 0.00246720 0.00134155 
0.04975119 0.01130943 0.00989873 0.00433511 0.00066243 0.00251674 0.00459191 0.00235732 0.01398661 0.00201849 0.00312264 0.00128664 0.00234126 0.00115233 0.00243654 0.00134405 
0.04977862 0.01115804 0.00989247 0.00427766 0.00066115 0.00253801 0.00477093 0.00239990 0.01409281 0.00204203 0.00329933 0.00128901 0.00241196 0.00114721 0.00240660 0.00134627 
0.04976047 0.01100617 0.00989399 0.00421961 0.00066171 0.00255900 0.00495813 0.00244507 0.01420772 0.00206946 0.00348236 0.00129107 0.00248265 0.00114164 0.00237755 0.00134821 
0.04969518 0.01085442 0.00990290 0.00416114 0.00066412 0.00257968 0.00515341 0.00249287 0.01433153 0.00210077 0.00367120 0.00129280 0.00255305 0.00113562 0.00234951 0.00134985 
0.04958141 0.01070333 0.00991875 0.00410239 0.00066840 0.00260003 0.00535660 0.00254335 0.01446441 0.00213594 0.00386529 0.00129414 0.00262287 0.00112917 0.00232263 0.00135121 
0.04941806 0.01055339 0.00994104 0.00404351 0.00067457 0.00262002 0.00556753 0.00259654 0.01460651 0.00217492 0.00406404 0.00129506 0.00269182 0.00112231 0.00229702 0.00135226 
0.04920427 0.01040507 0.00996926 0.00398462 0.00068261 0.00263962 0.00578598 0.00265245 0.01475797 0.00221766 0.00426683 0.00129551 0.00275962 0.00111503 0.00227279 0.00135301 
0.04893943 0.01025879 0.01000285 0.00392583 0.00069252 0.00265880 0.00601170 0.00271110 0.01491892 0.00226408 0.00447301 0.00129543 0.00282600 0.00110737 0.00225006 0.00135346 
0.04862321 0.01011490 0.01004122 0.00386726 0.00070427 0.00267755 0.00624440 0.00277248 0.01508946 0.00231407 0.00468192 0.00129478 0.00289069 0.00109933 0.00222889 0.00135361 
0.04825553 0.00997372 0.01008377 0.00380899 0.00071783 0.00269584 0.00648377 0.00283656 0.01526967 0.00236754 0.00489287 0.00129349 0.00295341 0.00109093 0.00220937 0.00135346 
0.04783660 0.00983552 0.01012988 0.00375111 0.00073316 0.00271363 0.00672947 0.00290332 0.01545962 0.00242434 0.00510516 0.00129152 0.00301392 0.00108220 0.00219156 0.00135302 
0.04736690 0.00970052 0.01017890 0.00369367 0.00075021 0.00273090 0.00698111 0.00297269 0.01565937 0.00248435 0.00531810 0.00128880 0.00307198 0.00107315 0.00217550 0.00135229 
0.04684718 0.00956887 0.01023020 0.00363674 0.00076891 0.00274762 0.00723829 0.00304462 0.01586894 0.00254739 0.00553095 0.00128526 0.00312734 0.00106381 0.00216124 0.00135128 
0.04627848 0.00944070 0.01028312 0.00358034 0.00078920 0.00276376 0.00750059 0.00311903 0.01608833 0.00261331 0.00574301 0.00128087 0.00317980 0.00105419 0.00214879 0.00134999 
0.04566209 0.00931608 0.01033700 0.00352452 0.00081099 0.00277930 0.00776756 0.00319583 0.01631753 0.00268191 0.00595355 0.00127554 0.00322916 0.00104433 0.00213816 0.00134844 
0.04499959 0.00919503 0.01039121 0.00346928 0.00083421 0.00279418 0.00803871 0.00327491 0.01655651 0.00275300 0.00616188 0.00126924 0.00327521 0.00103424 0.00212935 0.00134663 
0.04429281 0.00907753 0.01044511 0.00341462 0.00085876 0.00280840 0.00831355 0.00335615 0.01680520 0.00282637 0.00636728 0.00126189 0.00331780 0.00102397 0.00212235 0.00134458 
0.04354383 0.00896352 0.01049807 0.00336056 0.00088453 0.00282190 0.00859156 0.00343942 0.01706352 0.00290180 0.00656908 0.00125346 0.00335677 0.00101353 0.00211713 0.00134229 
0.04275499 0.00885292 0.01054950 0.00330706 0.00091142 0.00283465 0.00887221 0.00352456 0.01733137 0.00297907 0.00676660 0.00124390 0.00339200 0.00100295 0.00211366 0.00133979 
0.04192885 0.00874558 0.01059880 0.00325411 0.00093931 0.00284663 0.00915494 0.00361142 0.01760859 0.00305795 0.00695919 0.00123315 0.00342335 0.00099227 0.00211187 0.00133708 
0.04106818 0.00864137 0.01064544 0.00320168 0.00096808 0.00285779 0.00943921 0.00369983 0.01789505 0.00313818 0.00714623 0.00122119 0.00345076 0.00098152 0.00211172 0.00133418 
0.04017599 0.00854011 0.01068887 0.00314972 0.00099761 0.00286809 0.00972442 0.00378960 0.01819054 0.00321952 0.00732712 0.00120798 0.00347414 0.00097073 0.00211314 0.00133110 
0.03925543 0.00844159 0.01072862 0.00309819 0.00102775 0.00287751 0.01001000 0.00388054 0.01849488 0.00330173 0.00750130 0.00119350 0.00349344 0.00095994 0.00211604 0.00132785 
0.03830987 0.00834562 0.01076423 0.00304705 0.00105838 0.00288599 0.01029536 0.00397245 0.01880780 0.00338454 0.00766823 0.00117773 0.00350864 0.00094917 0.00212033 0.00132447 
0.03734281 0.00825197 0.01079529 0.00299624 0.00108936 0.00289350 0.01057990 0.00406512 0.01912907 0.00346769 0.00782741 0.00116067 0.00351973 0.00093846 0.00212593 0.00132095 
0.03635787 0.00816044 0.01082143 0.00294570 0.00112054 0.00290000 0.01086302 0.00415833 0.01945838 0.00355093 0.00797838 0.00114231 0.00352673 0.00092785 0.00213274 0.00131732 
0.03535883 0.00807082 0.01084233 0.00289539 0.00115178 0.00290545 0.01114412 0.00425185 0.01979544 0.00363400 0.00812073 0.00112266 0.00352968 0.00091738 0.00214063 0.00131359 
0.03434953 0.00798289 0.01085771 0.00284524 0.00118293 0.00290983 0.01142260 0.00434545 0.02013989 0.00371663 0.00825407 0.00110176 0.00352864 0.00090707 0.00214951 0.00130978 
0.03333390 0.00789648 0.01086736 0.00279521 0.00121384 0.00291308 0.01169786 0.00443891 0.02049140 0.00379858 0.00837808 0.00107962 0.00352369 0.00089696 0.00215925 0.00130592 
0.03231590 0.00781143 0.01087110 0.00274523 0.00124438 0.00291517 0.01196932 0.00453198 0.02084956 0.00387958 0.00849246 0.00105630 0.00351493 0.00088708 0.00216972 0.00130201 
0.03129956 0.00772758 0.01086880 0.00269528 0.00127439 0.00291608 0.01223637 0.00462443 0.02121398 0.00395938 0.00859697 0.00103185 0.00350251 0.00087747 0.00218080 0.00129807 
0.03028889 0.00764485 0.01086042 0.00264529 0.00130373 0.00291576 0.01249846 0.00471602 0.02158424 0.00403775 0.00869142 0.00100633 0.00348654 0.00086817 0.00219237 0.00129412 
0.02928788 0.00756316 0.01084593 0.00259524 0.00133226 0.00291419 0.01275500 0.00480651 0.02195989 0.00411444 0.00877565 0.00097983 0.00346721 0.00085919 0.00220428 0.00129018 
0.02830051 0.00748248 0.01082539 0.00254510 0.00135984 0.00291134 0.01300543 0.00489566 0.02234046 0.00418923 0.00884956 0.00095244 0.00344470 0.00085058 0.00221642 0.00128627 
0.02733068 0.00740284 0.01079889 0.00249484 0.00138633 0.00290720 0.01324923 0.00498325 0.02272549 0.00426188 0.00891308 0.00092427 0.00341920 0.00084236 0.00222864 0.00128240 
0.02638222 0.00732429 0.01076659 0.00244445 0.00141161 0.00290172 0.01348584 0.00506904 0.02311448 0.00433218 0.00896621 0.00089542 0.00339093 0.00083456 0.00224082 0.00127858 
0.02545886 0.00724698 0.01072871 0.00239393 0.00143554 0.00289492 0.01371477 0.00515282 0.02350692 0.00439993 0.00900897 0.00086604 0.00336012 0.00082720 0.00225282 0.00127484 
0.02456421 0.00717106 0.01068549 0.00234328 0.00145800 0.00288676 0.01393552 0.00523437 0.02390231 0.00446492 0.00904144 0.00083626 0.00332701 0.00082030 0.00226452 0.00127118 
0.02370175 0.00709679 0.01063726 0.00229252 0.00147890 0.00287724 0.01414760 0.00531348 0.02430011 0.00452698 0.00906374 0.00080623 0.00329186 0.00081390 0.00227579 0.00126763 
0.02287477 0.00702446 0.01058438 0.00224167 0.00149810 0.00286636 0.01435056 0.00538996 0.02469980 0.00458593 0.00907601 0.00077612 0.00325494 0.00080800 0.00228651 0.00126420 
0.02208642 0.00695442 0.01052725 0.00219077 0.00151553 0.00285413 0.01454397 0.00546362 0.02510084 0.00464161 0.00907845 0.00074611 0.00321651 0.00080262 0.00229656 0.00126090 
0.02133964 0.00688711 0.01046632 0.00213987 0.00153109 0.00284055 0.01472740 0.00553428 0.02550270 0.00469386 0.00907128 0.00071638 0.00317686 0.00079777 0.00230581 0.00125774 
0.02063716 0.00682300 0.01040210 0.00208903 0.00154469 0.00282564 0.01490048 0.00560177 0.02590484 0.00474255 0.00905478 0.00068713 0.00313628 0.00079347 0.00231418 0.00125475 
0.01998151 0.00676264 0.01033511 0.00203832 0.00155627 0.00280942 0.01506284 0.00566595 0.02630672 0.00478756 0.00902922 0.00065855 0.00309505 0.00078973 0.00232153 0.00125192 
0.01937494 0.00670664 0.01026591 0.00198782 0.00156575 0.00279191 0.01521414 0.00572669 0.02670782 0.00482877 0.00899493 0.00063085 0.00305347 0.00078654 0.00232779 0.00124927 
0.01881951 0.00665566 0.01019511 0.00193762 0.00157310 0.00277315 0.01535407 0.00578384 0.02710761 0.00486609 0.00895225 0.00060426 0.00301183 0.00078391 0.00233286 0.00124681 
0.01831699 0.00661043 0.01012333 0.00188782 0.00157827 0.00275319 0.01548235 0.00583731 0.02750558 0.00489943 0.00890156 0.00057900 0.00297041 0.00078184 0.00233664 0.00124456 
0.01786890 0.00657171 0.01005121 0.00183853 0.00158122 0.00273206 0.01559873 0.00588700 0.02790123 0.00492872 0.00884323 0.00055528 0.00292950 0.00078032 0.00233906 0.00124251 
0.01747648 0.00654034 0.00997942 0.00178988 0.00158194 0.00270983 0.01570297 0.00593284 0.02829406 0.00495390 0.00877767 0.00053334 0.00288938 0.00077936 0.00234005 0.00124067 
0.01714071 0.00651718 0.00990864 0.00174198 0.00158041 0.00268655 0.01579490 0.00597475 0.02868360 0.00497495 0.00870531 0.00051339 0.00285033 0.00077892 0.00233954 0.00123906 
0.01686227 0.00650314 0.00983956 0.00169497 0.00157664 0.00266230 0.01587436 0.00601270 0.02906939 0.00499182 0.00862656 0.00049568 0.00281260 0.00077901 0.00233748 0.00123768 
0.01664158 0.00649916 0.00977287 0.00164900 0.00157065 0.00263715 0.01594120 0.00604665 0.02945098 0.00500450 0.00854187 0.00048042 0.00277646 0.00077960 0.00233381 0.00123653 
0.01647877 0.00650621 0.00970926 0.00160419 0.00156245 0.00261118 0.01599536 0.00607659 0.02982795 0.00501299 0.00845167 0.00046783 0.00274213 0.00078068 0.00232850 0.00123561 
0.01637369 0.00652528 0.00964941 0.00156071 0.00155209 0.00258447 0.01603676 0.00610252 0.03019990 0.00501731 0.00835641 0.00045812 0.00270984 0.00078222 0.00232151 0.00123494 
0.01632593 0.00655738 0.00959400 0.00151870 0.00153961 0.00255713 0.01606538 0.00612446 0.03056644 0.00501748 0.00825653 0.00045151 0.00267981 0.00078420 0.00231282 0.00123450 
0.01633478 0.00660354 0.00954368 0.00147832 0.00152507 0.00252925 0.01608123 0.00614244 0.03092720 0.00501354 0.00815248 0.00044819 0.00265224 0.00078659 0.00230242 0.00123431 
0.01639929 0.00666476 0.00949910 0.00143970 0.00150854 0.00250094 0.01608438 0.00615651 0.03128184 0.00500555 0.00804469 0.00044834 0.00262729 0.00078936 0.00229029 0.00123436 
0.01651823 0.00674205 0.00946087 0.00140302 0.00149011 0.00247231 0.01607489 0.00616674 0.03163005 0.00499357 0.00793358 0.00045215 0.00260513 0.00079247 0.00227644 0.00123465 
0.01669014 0.00683641 0.00942958 0.00136840 0.00146986 0.00244346 0.01605290 0.00617319 0.03197150 0.00497767 0.00781957 0.00045976 0.00258589 0.00079590 0.00226087 0.00123518 
0.01691329 0.00694881 0.00940575 0.00133600 0.00144789 0.00241452 0.01601855 0.00617597 0.03230594 0.00495795 0.00770307 0.00047133 0.00256969 0.00079960 0.00224362 0.00123594 
0.01718576 0.00708020 0.00938992 0.00130595 0.00142432 0.00238561 0.01597206 0.00617517 0.03263309 0.00493450 0.00758447 0.00048697 0.00255663 0.00080354 0.00222469 0.00123693 
0.01750539 0.00723146 0.00938254 0.00127839 0.00139926 0.00235685 0.01591366 0.00617092 0.03295270 0.00490743 0.00746415 0.00050680 0.00254679 0.00080768 0.00220413 0.00123815 
0.01786981 0.00740347 0.00938402 0.00125344 0.00137285 0.00232836 0.01584360 0.00616333 0.03326457 0.00487688 0.00734247 0.00053088 0.00254021 0.00081198 0.00218199 0.00123958 
0.01827648 0.00759701 0.00939474 0.00123122 0.00134521 0.00230028 0.01576221 0.00615256 0.03356846 0.00484295 0.00721977 0.00055930 0.00253692 0.00081639 0.00215830 0.00124123 
0.01872267 0.00781282 0.00941500 0.00121183 0.00131650 0.00227272 0.01566982 0.00613874 0.03386419 0.00480581 0.00709638 0.00059208 0.00253694 0.00082088 0.00213312 0.00124308 
0.01920551 0.00805158 0.00944506 0.00119536 0.00128687 0.00224582 0.01556682 0.00612204 0.03415158 0.00476558 0.00697260 0.00062923 0.00254023 0.00082539 0.00210653 0.00124513 
0.01972196 0.00831386 0.00948511 0.00118190 0.00125647 0.00221969 0.01545361 0.00610261 0.03443045 0.00472243 0.00684871 0.00067074 0.00254678 0.00082990 0.00207859 0.00124736 
0.02026888 0.00860018 0.00953528 0.00117151 0.00122545 0.00219446 0.01533065 0.00608063 0.03470063 0.00467652 0.00672499 0.00071658 0.00255651 0.00083436 0.00204938 0.00124976 
0.02084301 0.00891094 0.00959563 0.00116426 0.00119400 0.00217026 0.01519841 0.00605628 0.03496196 0.00462802 0.00660168 0.00076666 0.00256934 0.00083871 0.00201899 0.00125233 
0.02144101 0.00924646 0.00966617 0.00116018 0.00116228 0.00214719 0.01505739 0.00602973 0.03521428 0.00457710 0.00647899 0.00082090 0.00258518 0.00084294 0.00198750 0.00125505 
0.02205947 0.00960696 0.00974681 0.00115929 0.00113045 0.00212536 0.01490815 0.00600118 0.03545745 0.00452394 0.00635713 0.00087916 0.00260389 0.00084699 0.00195501 0.00125791 
0.02269492 0.00999254 0.00983743 0.00116161 0.00109870 0.00210490 0.01475124 0.00597080 0.03569129 0.00446872 0.00623628 0.00094129 0.00262534 0.00085082 0.00192161 0.00126090 
0.02334386 0.01040319 0.00993781 0.00116713 0.00106721 0.00208589 0.01458725 0.00593880 0.03591565 0.00441163 0.00611660 0.00100711 0.00264937 0.00085440 0.00188742 0.00126400 
0.02400276 0.01083880 0.01004767 0.00117583 0.00103613 0.00206843 0.01441679 0.00590535 0.03613035 0.00435286 0.00599825 0.00107638 0.00267579 0.00085770 0.00185253 0.00126720 
0.02466813 0.01129911 0.01016668 0.00118767 0.00100566 0.00205261 0.01424050 0.00587064 0.03633521 0.00429260 0.00588133 0.00114888 0.00270442 0.00086068 0.00181706 0.00127048 
0.02533646 0.01178377 0.01029440 0.00120258 0.00097596 0.00203851 0.01405902 0.00583486 0.03653004 0.00423105 0.00576595 0.00122433 0.00273504 0.00086330 0.00178113 0.00127383 
0.02600430 0.01229229 0.01043038 0.00122051 0.00094720 0.00202620 0.01387303 0.00579820 0.03671462 0.00416839 0.00565220 0.00130243 0.00276745 0.00086555 0.00174484 0.00127724 
0.02666825 0.01282407 0.01057405 0.00124135 0.00091956 0.00201573 0.01368318 0.00576084 0.03688874 0.00410482 0.00554016 0.00138285 0.00280141 0.00086739 0.00170832 0.00128069 
0.02732499 0.01337836 0.01072482 0.00126501 0.00089318 0.00200717 0.01349018 0.00572294 0.03705215 0.00404053 0.00542988 0.00146524 0.00283667 0.00086881 0.00167167 0.00128416 
0.02797126 0.01395430 0.01088203 0.00129137 0.00086824 0.00200056 0.01329470 0.00568469 0.03720459 0.00397571 0.00532140 0.00154923 0.00287300 0.00086977 0.00163502 0.00128765 
0.02860395 0.01455092 0.01104494 0.00132028 0.00084488 0.00199592 0.01309743 0.00564624 0.03734577 0.00391054 0.00521475 0.00163442 0.00291013 0.00087028 0.00159849 0.00129113 
0.02922002 0.01516711 0.01121279 0.00135161 0.00082324 0.00199327 0.01289907 0.00560775 0.03747539 0.00384521 0.00510995 0.00172039 0.00294782 0.00087030 0.00156219 0.00129459 
0.02981660 0.01580165 0.01138476 0.00138519 0.00080347 0.00199264 0.01270029 0.00556938 0.03759310 0.00377990 0.00500701 0.00180672 0.00298581 0.00086984 0.00152623 0.00129801 
0.03039094 0.01645320 0.01155998 0.00142084 0.00078568 0.00199400 0.01250176 0.00553127 0.03769858 0.00371479 0.00490592 0.00189295 0.00302383 0.00086888 0.00149073 0.00130139 
0.03094046 0.01712031 0.01173755 0.00145838 0.00077001 0.00199735 0.01230416 0.00549354 0.03779142 0.00365003 0.00480667 0.00197863 0.00306163 0.00086743 0.00145580 0.00130471 
0.03146274 0.01780143 0.01191653 0.00149761 0.00075654 0.00200267 0.01210811 0.00545632 0.03787124 0.00358580 0.00470924 0.00206328 0.00309896 0.00086548 0.00142154 0.00130795 
0.03195555 0.01849490 0.01209595 0.00153833 0.00074540 0.00200991 0.01191423 0.00541973 0.03793763 0.00352225 0.00461361 0.00214644 0.00313557 0.00086304 0.00138805 0.00131111 
0.03241683 0.01919898 0.01227481 0.00158033 0.00073665 0.00201903 0.01172314 0.00538388 0.03799012 0.00345953 0.00451975 0.00222763 0.00317121 0.00086012 0.00135544 0.00131416 
0.03284472 0.01991183 0.01245212 0.00162338 0.00073038 0.00202996 0.01153539 0.00534884 0.03802828 0.00339778 0.00442763 0.00230637 0.00320567 0.00085672 0.00132379 0.00131710 
0.03323757 0.02063153 0.01262684 0.00166727 0.00072665 0.00204264 0.01135153 0.00531472 0.03805163 0.00333714 0.00433721 0.00238219 0.00323871 0.00085287 0.00129319 0.00131992 
0.03359394 0.02135610 0.01279795 0.00171177 0.00072552 0.00205698 0.01117207 0.00528159 0.03805968 0.00327772 0.00424845 0.00245463 0.00327014 0.00084857 0.00126372 0.00132261 
0.03391259 0.02208348 0.01296443 0.00175664 0.00072700 0.00207289 0.01099746 0.00524950 0.03805194 0.00321965 0.00416131 0.00252324 0.00329975 0.00084385 0.00123546 0.00132515 
0.03419250 0.02281156 0.01312524 0.00180166 0.00073114 0.00209026 0.01082814 0.00521851 0.03802790 0.00316302 0.00407576 0.00258760 0.00332738 0.00083874 0.00120847 0.00132754 
0.03443287 0.02353820 0.01327938 0.00184660 0.00073795 0.00210899 0.01066449 0.00518867 0.03798708 0.00310793 0.00399175 0.00264728 0.00335286 0.00083326 0.00118281 0.00132978 
0.03463313 0.02426121 0.01342585 0.00189124 0.00074741 0.00212894 0.01050686 0.00516000 0.03792896 0.00305448 0.00390925 0.00270191 0.00337604 0.00082744 0.00115854 0.00133185 
0.03479290 0.02497837 0.01356370 0.00193535 0.00075952 0.00214999 0.01035554 0.00513254 0.03785307 0.00300273 0.00382821 0.00275113 0.00339681 0.00082132 0.00113570 0.00133375 
0.03491206 0.02568746 0.01369197 0.00197872 0.00077425 0.00217200 0.01021076 0.00510628 0.03775893 0.00295275 0.00374862 0.00279460 0.00341506 0.00081492 0.00111432 0.00133547 
0.03499067 0.02638624 0.01380978 0.00202114 0.00079154 0.00219482 0.01007274 0.00508124 0.03764608 0.00290459 0.00367043 0.00283205 0.00343070 0.00080829 0.00109444 0.00133702 
0.03502903 0.02707250 0.01391625 0.00206240 0.00081135 0.00221830 0.00994160 0.00505742 0.03751409 0.00285829 0.00359361 0.00286323 0.00344368 0.00080147 0.00107607 0.00133838 
0.03502765 0.02774401 0.01401058 0.00210233 0.00083361 0.00224228 0.00981744 0.00503479 0.03736256 0.00281390 0.00351814 0.00288794 0.00345395 0.00079450 0.00105922 0.00133956 
0.03498723 0.02839860 0.01409201 0.00214073 0.00085823 0.00226659 0.00970030 0.00501334 0.03719113 0.00277143 0.00344401 0.00290603 0.00346150 0.00078742 0.00104390 0.00134056 
0.03490870 0.02903412 0.01415983 0.00217745 0.00088511 0.00229108 0.00959017 0.00499304 0.03699948 0.00273090 0.00337118 0.00291740 0.00346633 0.00078027 0.00103011 0.00134137 
0.03479315 0.02964850 0.01421340 0.00221232 0.00091416 0.00231556 0.00948698 0.00497385 0.03678734 0.00269230 0.00329965 0.00292201 0.00346847 0.00077311 0.00101781 0.00134200 
0.03464188 0.03023969 0.01425214 0.00224522 0.00094525 0.00233987 0.00939061 0.00495574 0.03655449 0.00265563 0.00322941 0.00291988 0.00346796 0.00076596 0.00100701 0.00134245 
0.03445639 0.03080573 0.01427555 0.00227602 0.00097826 0.00236384 0.00930089 0.00493865 0.03630078 0.00262088 0.00316045 0.00291108 0.00346489 0.00075889 0.00099765 0.00134273 
0.03423831 0.03134474 0.01428320 0.00230461 0.00101303 0.00238729 0.00921762 0.00492254 0.03602612 0.00258801 0.00309277 0.00289575 0.00345933 0.00075194 0.00098971 0.00134283 
0.03398946 0.03185495 0.01427471 0.00233090 0.00104944 0.00241005 0.00914052 0.00490735 0.03573049 0.00255700 0.00302636 0.00287412 0.00345141 0.00074516 0.00098314 0.00134276 
0.03371183 0.03233465 0.01424983 0.00235482 0.00108731 0.00243194 0.00906930 0.00489302 0.03541396 0.00252780 0.00296123 0.00284646 0.00344125 0.00073859 0.00097789 0.00134254 
0.03340752 0.03278228 0.01420833 0.00237632 0.00112648 0.00245281 0.00900360 0.00487949 0.03507667 0.00250036 0.00289740 0.00281312 0.00342902 0.00073228 0.00097389 0.00134215 
0.03307880 0.03319638 0.01415012 0.00239536 0.00116678 0.00247249 0.00894303 0.00486670 0.03471885 0.00247462 0.00283486 0.00277453 0.00341487 0.00072627 0.00097108 0.00134162 
0.03272804 0.03357562 0.01407514 0.00241193 0.00120802 0.00249081 0.00888717 0.00485458 0.03434082 0.00245052 0.00277363 0.00273118 0.00339900 0.00072062 0.00096939 0.00134095 
0.03235774 0.03391880 0.01398346 0.00242603 0.00125003 0.00250763 0.00883558 0.00484306 0.03394300 0.00242799 0.00271374 0.00268364 0.00338160 0.00071537 0.00096874 0.00134015 
0.03197049 0.03422488 0.01387519 0.00243767 0.00129262 0.00252279 0.00878776 0.00483209 0.03352588 0.00240695 0.00265519 0.00263256 0.00336290 0.00071055 0.00096905 0.00133922 
0.03156899 0.03449295 0.01375055 0.00244691 0.00133558 0.00253616 0.00874320 0.00482158 0.03309009 0.00238732 0.00259800 0.00257864 0.00334313 0.00070622 0.00097024 0.00133818 
0.03115600 0.03472227 0.01360985 0.00245379 0.00137874 0.00254761 0.00870138 0.00481149 0.03263632 0.00236902 0.00254220 0.00252268 0.00332252 0.00070242 0.00097222 0.00133704 
0.03073438 0.03491224 0.01345345 0.00245840 0.00142188 0.00255700 0.00866176 0.00480175 0.03216539 0.00235197 0.00248782 0.00246553 0.00330133 0.00069918 0.00097490 0.00133580 
0.03030702 0.03506246 0.01328181 0.00246082 0.00146482 0.00256424 0.00862378 0.00479229 0.03167818 0.00233606 0.00243486 0.00240811 0.00327981 0.00069654 0.00097818 0.00133448 
0.02987687 0.03517267 0.01309545 0.00246116 0.00150735 0.00256921 0.00858687 0.00478306 0.03117571 0.00232122 0.00238337 0.00235141 0.00325823 0.00069455 0.00098198 0.00133309 
0.02944692 0.03524278 0.01289499 0.00245956 0.00154929 0.00257182 0.00855048 0.00477401 0.03065907 0.00230734 0.00233336 0.00229649 0.00323685 0.00069324 0.00098621 0.00133164 
0.02902017 0.03527290 0.01268110 0.00245615 0.00159045 0.00257199 0.00851403 0.00476509 0.03012945 0.00229433 0.00228486 0.00224444 0.00321595 0.00069264 0.00099077 0.00133013 
0.02859966 0.03526329 0.01245451 0.00245107 0.00163063 0.00256965 0.00847698 0.00475624 0.02958812 0.00228210 0.00223789 0.00219644 0.00319579 0.00069279 0.00099557 0.00132858 
0.02818839 0.03521440 0.01221603 0.00244451 0.00166965 0.00256475 0.00843878 0.00474743 0.02903646 0.00227056 0.00219249 0.00215368 0.00317664 0.00069372 0.00100054 0.00132700 
0.02778940 0.03512685 0.01196651 0.00243662 0.00170734 0.00255723 0.00839890 0.00473861 0.02847590 0.00225961 0.00214867 0.00211743 0.00315878 0.00069547 0.00100559 0.00132540 
0.02740568 0.03500144 0.01170687 0.00242761 0.00174352 0.00254707 0.00835683 0.00472976 0.02790797 0.00224917 0.00210647 0.00208898 0.00314246 0.00069805 0.00101064 0.00132379 
0.02704020 0.03483913 0.01143806 0.00241766 0.00177804 0.00253424 0.00831210 0.00472084 0.02733423 0.00223915 0.00206589 0.00206965 0.00312793 0.00070151 0.00101562 0.00132218 
0.02669588 0.03464108 0.01116109 0.00240698 0.00181074 0.00251874 0.00826425 0.00471183 0.02675635 0.00222947 0.00202698 0.00206079 0.00311544 0.00070587 0.00102047 0.00132057 
0.02637561 0.03440857 0.01087699 0.00239577 0.00184147 0.00250058 0.00821284 0.00470272 0.02617601 0.00222005 0.00198974 0.00206377 0.00310523 0.00071115 0.00102513 0.00131898 
0.02608221 0.03414309 0.01058684 0.00238424 0.00187010 0.00247977 0.00815751 0.00469349 0.02559495 0.00221080 0.00195420 0.00207997 0.00309752 0.00071739 0.00102956 0.00131741 
0.02581842 0.03384624 0.01029173 0.00237261 0.00189651 0.00245635 0.00809789 0.00468412 0.02501495 0.00220167 0.00192038 0.00211077 0.00309252 0.00072462 0.00103370 0.00131587 
0.02558691 0.03351982 0.00999277 0.00236109 0.00192057 0.00243036 0.00803369 0.00467462 0.02443780 0.00219259 0.00188830 0.00215755 0.00309043 0.00073286 0.00103754 0.00131437 
0.02539027 0.03316573 0.00969109 0.00234989 0.00194220 0.00240187 0.00796464 0.00466499 0.02386530 0.00218349 0.00185796 0.00222167 0.00309142 0.00074213 0.00104106 0.00131291 
0.02523097 0.03278602 0.00938784 0.00233922 0.00196130 0.00237094 0.00789053 0.00465523 0.02329929 0.00217433 0.00182939 0.00230448 0.00309566 0.00075247 0.00104424 0.00131150 
0.02511140 0.03238289 0.00908413 0.00232929 0.00197779 0.00233765 0.00781118 0.00464536 0.02274156 0.00216505 0.00180259 0.00240728 0.00310329 0.00076391 0.00104709 0.00131014 
0.02503381 0.03195862 0.00878111 0.00232029 0.00199162 0.00230210 0.00772649 0.00463537 0.02219390 0.00215561 0.00177758 0.00253136 0.00311444 0.00077647 0.00104963 0.00130884 
0.02500035 0.03151562 0.00847990 0.00231242 0.00200273 0.00226440 0.00763638 0.00462530 0.02165808 0.00214598 0.00175437 0.00267795 0.00312921 0.00079018 0.00105188 0.00130759 
0.02501303 0.03105639 0.00818160 0.00230587 0.00201109 0.00222466 0.00754084 0.00461517 0.02113582 0.00213612 0.00173295 0.00284821 0.00314769 0.00080508 0.00105388 0.00130641 
0.02507371 0.03058353 0.00788730 0.00230080 0.00201668 0.00218301 0.00743991 0.00460499 0.02062879 0.00212602 0.00171334 0.00304325 0.00316995 0.00082120 0.00105570 0.00130529 
0.02518412 0.03009971 0.00759805 0.00229737 0.00201948 0.00213958 0.00733368 0.00459480 0.02013861 0.00211564 0.00169554 0.00326410 0.00319601 0.00083858 0.00105740 0.00130423 
0.02534583 0.02960764 0.00731487 0.00229575 0.00201950 0.00209453 0.00722229 0.00458462 0.01966683 0.00210500 0.00167955 0.00351173 0.00322591 0.00085724 0.00105906 0.00130323 
0.02556026 0.02911013 0.00703876 0.00229605 0.00201676 0.00204799 0.00710593 0.00457448 0.01921490 0.00209407 0.00166536 0.00378699 0.00325965 0.00087723 0.00106078 0.00130229 
0.02582864 0.02860998 0.00677066 0.00229840 0.00201130 0.00200014 0.00698484 0.00456442 0.01878420 0.00208286 0.00165297 0.00409065 0.00329719 0.00089860 0.00106268 0.00130142 
0.02615206 0.02811003 0.00651146 0.00230292 0.00200315 0.00195114 0.00685930 0.00455447 0.01837600 0.00207138 0.00164237 0.00442337 0.00333849 0.00092137 0.00106486 0.00130060 
0.02653141 0.02761316 0.00626201 0.00230967 0.00199238 0.00190117 0.00672965 0.00454466 0.01799147 0.00205963 0.00163355 0.00478570 0.00338348 0.00094560 0.00106748 0.00129983 
0.02696739 0.02712221 0.00602310 0.00231874 0.00197906 0.00185041 0.00659626 0.00453503 0.01763166 0.00204764 0.00162650 0.00517809 0.00343208 0.00097133 0.00107069 0.00129912 
0.02746053 0.02664002 0.00579547 0.00233017 0.00196326 0.00179903 0.00645955 0.00452561 0.01729750 0.00203543 0.00162121 0.00560082 0.00348417 0.00099862 0.00107463 0.00129845 
0.02801117 0.02616942 0.00557979 0.00234401 0.00194509 0.00174722 0.00631997 0.00451643 0.01698980 0.00202303 0.00161766 0.00605410 0.00353962 0.00102751 0.00107950 0.00129782 
0.02861942 0.02571317 0.00537668 0.00236026 0.00192464 0.00169519 0.00617801 0.00450752 0.01670922 0.00201046 0.00161583 0.00653796 0.00359829 0.00105806 0.00108547 0.00129723 
0.02928523 0.02527398 0.00518668 0.00237893 0.00190204 0.00164311 0.00603418 0.00449891 0.01645629 0.00199776 0.00161569 0.00705232 0.00366002 0.00109032 0.00109275 0.00129667 
0.03000831 0.02485452 0.00501026 0.00239999 0.00187739 0.00159118 0.00588903 0.00449062 0.01623140 0.00198497 0.00161722 0.00759695 0.00372460 0.00112435 0.00110153 0.00129613 
0.03078819 0.02445733 0.00484783 0.00242340 0.00185085 0.00153959 0.00574311 0.00448269 0.01603479 0.00197212 0.00162038 0.00817147 0.00379185 0.00116022 0.00111203 0.00129561 
0.03162417 0.02408490 0.00469974 0.00244911 0.00182254 0.00148853 0.00559703 0.00447512 0.01586657 0.00195927 0.00162516 0.00877538 0.00386154 0.00119797 0.00112448 0.00129510 
0.03251535 0.02373960 0.00456625 0.00247704 0.00179262 0.00143821 0.00545136 0.00446795 0.01572669 0.00194645 0.00163150 0.00940801 0.00393345 0.00123768 0.00113909 0.00129459 
0.03346062 0.02342366 0.00444756 0.00250709 0.00176124 0.00138879 0.00530672 0.00446117 0.01561494 0.00193372 0.00163938 0.01006856 0.00400733 0.00127940 0.00115611 0.00129408 
0.03445863 0.02313921 0.00434379 0.00253916 0.00172855 0.00134048 0.00516374 0.00445480 0.01553100 0.00192111 0.00164874 0.01075607 0.00408293 0.00132320 0.00117576 0.00129356 
0.03550785 0.02288823 0.00425501 0.00257313 0.00169472 0.00129344 0.00502301 0.00444884 0.01547438 0.00190867 0.00165955 0.01146947 0.00415999 0.00136915 0.00119828 0.00129303 
0.03660653 0.02267253 0.00418119 0.00260884 0.00165992 0.00124787 0.00488515 0.00444330 0.01544445 0.00189645 0.00167175 0.01220753 0.00423823 0.00141730 0.00122392 0.00129247 
0.03775270 0.02249379 0.00412227 0.00264615 0.00162431 0.00120391 0.00475077 0.00443816 0.01544047 0.00188451 0.00168529 0.01296889 0.00431738 0.00146772 0.00125291 0.00129188 
0.03894418 0.02235351 0.00407808 0.00268490 0.00158807 0.00116175 0.00462046 0.00443341 0.01546155 0.00187287 0.00170012 0.01375205 0.00439715 0.00152047 0.00128547 0.00129126 
0.04017860 0.02225299 0.00404842 0.00272490 0.00155136 0.00112154 0.00449480 0.00442904 0.01550668 0.00186159 0.00171617 0.01455541 0.00447725 0.00157560 0.00132185 0.00129060 
0.04145337 0.02219337 0.00403302 0.00276598 0.00151436 0.00108343 0.00437433 0.00442502 0.01557474 0.00185071 0.00173338 0.01537724 0.00455739 0.00163318 0.00136225 0.00128989 
0.04276573 0.02217559 0.00403154 0.00280793 0.00147723 0.00104755 0.00425961 0.00442133 0.01566450 0.00184026 0.00175169 0.01621569 0.00463728 0.00169326 0.00140691 0.00128913 
0.04411270 0.02220041 0.00404358 0.00285055 0.00144015 0.00101404 0.00415112 0.00441793 0.01577462 0.00183028 0.00177101 0.01706882 0.00471663 0.00175589 0.00145601 0.00128832 
0.04549112 0.02226836 0.00406870 0.00289364 0.00140328 0.00098303 0.00404935 0.00441479 0.01590369 0.00182081 0.00179129 0.01793461 0.00479515 0.00182112 0.00150975 0.00128745 
0.04689767 0.02237977 0.00410641 0.00293699 0.00136677 0.00095462 0.00395473 0.00441185 0.01605021 0.00181187 0.00181243 0.01881093 0.00487256 0.00188898 0.00156832 0.00128652 
0.04832885 0.02253479 0.00415616 0.00298038 0.00133079 0.00092892 0.00386767 0.00440907 0.01621260 0.00180350 0.00183437 0.01969559 0.00494857 0.00195951 0.00163186 0.00128553 
0.04978100 0.02273333 0.00421736 0.00302360 0.00129548 0.00090602 0.00378853 0.00440639 0.01638924 0.00179570 0.00185701 0.02058634 0.00502291 0.00203274 0.00170054 0.00128447 
0.05125030 0.02297511 0.00428939 0.00306644 0.00126100 0.00088600 0.00371762 0.00440375 0.01657845 0.00178851 0.00188027 0.02148089 0.00509532 0.00210870 0.00177448 0.00128335 
0.05273281 0.02325962 0.00437156 0.00310868 0.00122747 0.00086892 0.00365523 0.00440108 0.01677853 0.00178193 0.00190406 0.02237688 0.00516553 0.00218740 0.00185377 0.00128217 
0.05422444 0.02358615 0.00446319 0.00315013 0.00119504 0.00085484 0.00360158 0.00439831 0.01698772 0.00177597 0.00192829 0.02327195 0.00523330 0.00226884 0.00193852 0.00128092 
0.05572100 0.02395380 0.00456355 0.00319058 0.00116382 0.00084380 0.00355684 0.00439538 0.01720430 0.00177064 0.00195286 0.02416372 0.00529838 0.00235303 0.00202877 0.00127961 
0.05721820 0.02436145 0.00467188 0.00322984 0.00113392 0.00083583 0.00352116 0.00439219 0.01742650 0.00176594 0.00197769 0.02504981 0.00536056 0.00243995 0.00212457 0.00127825 
0.05871163 0.02480779 0.00478742 0.00326774 0.00110546 0.00083096 0.00349462 0.00438866 0.01765260 0.00176185 0.00200266 0.02592783 0.00541961 0.00252959 0.00222592 0.00127683 
0.06019684 0.02529130 0.00490936 0.00330408 0.00107854 0.00082918 0.00347723 0.00438471 0.01788089 0.00175838 0.00202769 0.02679544 0.00547534 0.00262191 0.00233281 0.00127536 
0.06166930 0.02581030 0.00503690 0.00333873 0.00105323 0.00083048 0.00346899 0.00438026 0.01810968 0.00175550 0.00205267 0.02765033 0.00552756 0.00271687 0.00244519 0.00127385 
0.06312446 0.02636291 0.00516924 0.00337151 0.00102962 0.00083484 0.00346982 0.00437520 0.01833735 0.00175320 0.00207750 0.02849023 0.00557609 0.00281442 0.00256298 0.00127231 
0.06455770 0.02694709 0.00530555 0.00340231 0.00100778 0.00084224 0.00347960 0.00436944 0.01856233 0.00175145 0.00210209 0.02931294 0.00562078 0.00291449 0.00268608 0.00127073 
0.06596445 0.02756064 0.00544501 0.00343100 0.00098776 0.00085261 0.00349816 0.00436290 0.01878310 0.00175022 0.00212632 0.03011632 0.00566149 0.00301702 0.00281435 0.00126913 
0.06734008 0.02820120 0.00558681 0.00345748 0.00096961 0.00086591 0.00352528 0.00435547 0.01899823 0.00174949 0.00215012 0.03089833 0.00569808 0.00312190 0.00294762 0.00126752 
0.06868005 0.02886628 0.00573012 0.00348165 0.00095337 0.00088205 0.00356070 0.00434706 0.01920639 0.00174921 0.00217336 0.03165702 0.00573044 0.00322904 0.00308569 0.00126590 
0.06997981 0.02955323 0.00587416 0.00350344 0.00093907 0.00090096 0.00360411 0.00433758 0.01940631 0.00174935 0.00219597 0.03239053 0.00575849 0.00333834 0.00322834 0.00126429 
0.07123491 0.03025933 0.00601812 0.00352281 0.00092673 0.00092253 0.00365516 0.00432692 0.01959685 0.00174986 0.00221784 0.03309715 0.00578212 0.00344966 0.00337529 0.00126270 
0.07244096 0.03098171 0.00616124 0.00353971 0.00091634 0.00094666 0.00371345 0.00431501 0.01977696 0.00175069 0.00223887 0.03377525 0.00580130 0.00356286 0.00352626 0.00126114 
0.07359367 0.03171744 0.00630275 0.00355413 0.00090792 0.00097322 0.00377855 0.00430174 0.01994570 0.00175180 0.00225899 0.03442337 0.00581595 0.00367781 0.00368092 0.00125961 
0.07468888 0.03246349 0.00644192 0.00356606 0.00090145 0.00100210 0.00385000 0.00428703 0.02010227 0.00175313 0.00227810 0.03504017 0.00582605 0.00379433 0.00383892 0.00125813 
0.07572255 0.03321679 0.00657803 0.00357552 0.00089691 0.00103313 0.00392730 0.00427079 0.02024596 0.00175464 0.00229613 0.03562445 0.00583157 0.00391225 0.00399986 0.00125672 
0.07669081 0.03397419 0.00671040 0.00358254 0.00089426 0.00106618 0.00400993 0.00425295 0.02037620 0.00175625 0.00231298 0.03617518 0.00583252 0.00403140 0.00416335 0.00125537 
0.07758995 0.03473254 0.00683838 0.00358718 0.00089348 0.00110109 0.00409732 0.00423343 0.02049255 0.00175792 0.00232859 0.03669148 0.00582890 0.00415157 0.00432895 0.00125411 
0.07841646 0.03548864 0.00696132 0.00358950 0.00089452 0.00113768 0.00418890 0.00421215 0.02059468 0.00175959 0.00234289 0.03717261 0.00582073 0.00427257 0.00449619 0.00125295 
0.07916701 0.03623931 0.00707864 0.00358958 0.00089732 0.00117579 0.00428408 0.00418904 0.02068241 0.00176119 0.00235580 0.03761801 0.00580804 0.00439417 0.00466459 0.00125190 
0.07983853 0.03698137 0.00718977 0.00358753 0.00090182 0.00121523 0.00438225 0.00416406 0.02075565 0.00176268 0.00236728 0.03802729 0.00579089 0.00451616 0.00483363 0.00125096 
0.08042817 0.03771167 0.00729418 0.00358345 0.00090795 0.00125580 0.00448278 0.00413714 0.02081445 0.00176398 0.00237727 0.03840020 0.00576933 0.00463831 0.00500281 0.00125015 
0.08093332 0.03842709 0.00739139 0.00357746 0.00091565 0.00129732 0.00458505 0.00410824 0.02085899 0.00176505 0.00238571 0.03873665 0.00574342 0.00476037 0.00517157 0.00124949 
0.08135166 0.03912460 0.00748094 0.00356971 0.00092483 0.00133960 0.00468842 0.00407732 0.02088955 0.00176581 0.00239257 0.03903675 0.00571326 0.00488211 0.00533936 0.00124896 
0.08168114 0.03980121 0.00756241 0.00356035 0.00093541 0.00138241 0.00479225 0.00404435 0.02090651 0.00176623 0.00239781 0.03930071 0.00567892 0.00500327 0.00550560 0.00124860 
0.08191999 0.04045404 0.00763542 0.00354952 0.00094730 0.00142557 0.00489592 0.00400929 0.02091037 0.00176623 0.00240139 0.03952893 0.00564051 0.00512360 0.00566973 0.00124840 
0.08206677 0.04108030 0.00769964 0.00353739 0.00096041 0.00146887 0.00499879 0.00397214 0.02090172 0.00176578 0.00240331 0.03972196 0.00559812 0.00524285 0.00583116 0.00124837 
0.08212033 0.04167732 0.00775478 0.00352414 0.00097464 0.00151209 0.00510025 0.00393289 0.02088125 0.00176482 0.00240354 0.03988047 0.00555189 0.00536075 0.00598930 0.00124851 
0.08207985 0.04224257 0.00780056 0.00350994 0.00098989 0.00155503 0.00519970 0.00389154 0.02084970 0.00176329 0.00240206 0.04000527 0.00550191 0.00547705 0.00614357 0.00124884 
0.08194481 0.04277364 0.00783679 0.00349496 0.00100607 0.00159749 0.00529656 0.00384810 0.02080793 0.00176117 0.00239889 0.04009732 0.00544833 0.00559148 0.00629339 0.00124934 
0.08171508 0.04326831 0.00786328 0.00347939 0.00102306 0.00163926 0.00539025 0.00380259 0.02075683 0.00175840 0.00239401 0.04015768 0.00539126 0.00570379 0.00643817 0.00125004 
0.08139080 0.04372449 0.00787989 0.00346342 0.00104077 0.00168014 0.00548023 0.00375505 0.02069734 0.00175495 0.00238745 0.04018751 0.00533086 0.00581373 0.00657736 0.00125091 
0.08097250 0.04414030 0.00788654 0.00344721 0.00105909 0.00171994 0.00556599 0.00370550 0.02063048 0.00175079 0.00237922 0.04018811 0.00526725 0.00592104 0.00671039 0.00125197 
0.08046103 0.04451402 0.00788316 0.00343096 0.00107791 0.00175846 0.00564703 0.00365401 0.02055728 0.00174589 0.00236933 0.04016085 0.00520059 0.00602548 0.00683672 0.00125320 
0.07985757 0.04484416 0.00786975 0.00341482 0.00109713 0.00179552 0.00572290 0.00360063 0.02047880 0.00174023 0.00235783 0.04010716 0.00513102 0.00612680 0.00695585 0.00125461 
0.07916367 0.04512941 0.00784633 0.00339898 0.00111665 0.00183094 0.00579316 0.00354544 0.02039612 0.00173377 0.00234474 0.04002858 0.00505869 0.00622479 0.00706727 0.00125619 
0.07838118 0.04536868 0.00781296 0.00338358 0.00113635 0.00186456 0.00585744 0.00348850 0.02031031 0.00172652 0.00233011 0.03992670 0.00498376 0.00631921 0.00717051 0.00125793 
0.07751229 0.04556111 0.00776976 0.00336880 0.00115615 0.00189621 0.00591537 0.00342992 0.02022247 0.00171846 0.00231399 0.03980314 0.00490639 0.00640986 0.00726514 0.00125982 
0.07655954 0.04570606 0.00771684 0.00335475 0.00117594 0.00192574 0.00596663 0.00336978 0.02013366 0.00170958 0.00229642 0.03965959 0.00482673 0.00649653 0.00735073 0.00126184 
0.07552575 0.04580311 0.00765441 0.00334159 0.00119562 0.00195302 0.00601096 0.00330821 0.02004492 0.00169989 0.00227746 0.03949773 0.00474495 0.00657903 0.00742691 0.00126399 
0.07441406 0.04585209 0.00758267 0.00332943 0.00121510 0.00197791 0.00604810 0.00324531 0.01995728 0.00168938 0.00225717 0.03931929 0.00466120 0.00665719 0.00749335 0.00126625 
0.07322792 0.04585304 0.00750188 0.00331838 0.00123429 0.00200030 0.00607787 0.00318121 0.01987170 0.00167808 0.00223562 0.03912599 0.00457567 0.00673085 0.00754974 0.00126860 
0.07197104 0.04580626 0.00741232 0.00330853 0.00125310 0.00202010 0.00610011 0.00311607 0.01978911 0.00166600 0.00221289 0.03891955 0.00448852 0.00679985 0.00759583 0.00127102 
0.07064741 0.04571228 0.00731431 0.00329997 0.00127144 0.00203720 0.00611471 0.00305001 0.01971039 0.00165316 0.00218903 0.03870168 0.00439991 0.00686406 0.00763140 0.00127350 
0.06926129 0.04557184 0.00720822 0.00329275 0.00128923 0.00205153 0.00612159 0.00298319 0.01963636 0.00163958 0.00216413 0.03847405 0.00431002 0.00692338 0.00765628 0.00127601 
0.06781716 0.04538595 0.00709444 0.00328693 0.00130640 0.00206305 0.00612073 0.00291579 0.01956776 0.00162530 0.00213827 0.03823832 0.00421903 0.00697768 0.00767036 0.00127853 
0.06631975 0.04515580 0.00697338 0.00328255 0.00132288 0.00207170 0.00611214 0.00284796 0.01950527 0.00161036 0.00211152 0.03799608 0.00412713 0.00702691 0.00767356 0.00128103 
0.06477396 0.04488285 0.00684550 0.00327962 0.00133859 0.00207746 0.00609587 0.00277989 0.01944949 0.00159479 0.00208398 0.03774889 0.00403449 0.00707098 0.00766585 0.00128350 
0.06318490 0.04456872 0.00671130 0.00327814 0.00135348 0.00208031 0.00607201 0.00271177 0.01940094 0.00157864 0.00205572 0.03749824 0.00394130 0.00710985 0.00764728 0.00128589 
0.06155786 0.04421529 0.00657127 0.00327810 0.00136748 0.00208026 0.00604070 0.00264379 0.01936007 0.00156197 0.00202683 0.03724557 0.00384776 0.00714349 0.00761791 0.00128819 
0.05989825 0.04382461 0.00642598 0.00327947 0.00138054 0.00207734 0.00600210 0.00257614 0.01932721 0.00154483 0.00199740 0.03699223 0.00375406 0.00717189 0.00757789 0.00129037 
0.05821164 0.04339891 0.00627598 0.00328221 0.00139262 0.00207158 0.00595642 0.00250904 0.01930265 0.00152728 0.00196750 0.03673951 0.00366040 0.00719505 0.00752739 0.00129239 
0.05650367 0.04294062 0.00612189 0.00328625 0.00140366 0.00206303 0.00590390 0.00244269 0.01928657 0.00150939 0.00193724 0.03648860 0.00356701 0.00721299 0.00746665 0.00129423 
0.05478011 0.04245233 0.00596433 0.00329153 0.00141364 0.00205177 0.00584481 0.00237731 0.01927906 0.00149121 0.00190669 0.03624062 0.00347408 0.00722575 0.00739596 0.00129586 
0.05304674 0.04193676 0.00580395 0.00329796 0.00142252 0.00203789 0.00577945 0.00231313 0.01928013 0.00147283 0.00187593 0.03599659 0.00338185 0.00723340 0.00731566 0.00129725 
0.05130944 0.04139680 0.00564142 0.00330543 0.00143026 0.00202149 0.00570815 0.00225035 0.01928973 0.00145431 0.00184506 0.03575745 0.00329054 0.00723599 0.00722613 0.00129836 
0.04957405 0.04083546 0.00547744 0.00331383 0.00143686 0.00200269 0.00563127 0.00218922 0.01930769 0.00143573 0.00181414 0.03552403 0.00320038 0.00723362 0.00712780 0.00129918 
0.04784646 0.04025584 0.00531273 0.00332304 0.00144228 0.00198163 0.00554920 0.00212995 0.01933379 0.00141718 0.00178327 0.03529708 0.00311163 0.00722640 0.00702117 0.00129966 
0.04613250 0.03966115 0.00514802 0.00333294 0.00144652 0.00195845 0.00546234 0.00207278 0.01936774 0.00139873 0.00175251 0.03507724 0.00302454 0.00721443 0.00690675 0.00129979 
0.04443797 0.03905468 0.00498407 0.00334337 0.00144958 0.00193332 0.00537112 0.00201794 0.01940915 0.00138046 0.00172194 0.03486509 0.00293937 0.00719786 0.00678511 0.00129953 
0.04276860 0.03843977 0.00482165 0.00335419 0.00145144 0.00190642 0.00527597 0.00196565 0.01945762 0.00136247 0.00169163 0.03466107 0.00285638 0.00717683 0.00665685 0.00129887 
0.04113002 0.03781981 0.00466153 0.00336524 0.00145211 0.00187793 0.00517736 0.00191615 0.01951264 0.00134483 0.00166165 0.03446557 0.00277587 0.00715149 0.00652262 0.00129777 
0.03952776 0.03719821 0.00450453 0.00337638 0.00145159 0.00184806 0.00507575 0.00186967 0.01957367 0.00132763 0.00163207 0.03427886 0.00269811 0.00712202 0.00638310 0.00129621 
0.03796722 0.03657841 0.00435143 0.00338743 0.00144991 0.00181702 0.00497164 0.00182643 0.01964013 0.00131097 0.00160294 0.03410114 0.00262340 0.00708858 0.00623898 0.00129417 
0.03645364 0.03596381 0.00420306 0.00339823 0.00144707 0.00178503 0.00486549 0.00178664 0.01971139 0.00129491 0.00157433 0.03393253 0.00255205 0.00705138 0.00609102 0.00129164 
0.03499211 0.03535779 0.00406023 0.00340862 0.00144311 0.00175232 0.00475782 0.00175054 0.01978678 0.00127956 0.00154628 0.03377306 0.00248438 0.00701060 0.00593995 0.00128860 
0.03358752 0.03476371 0.00392376 0.00341845 0.00143803 0.00171913 0.00464912 0.00171833 0.01986563 0.00126499 0.00151884 0.03362271 0.00242070 0.00696644 0.00578657 0.00128503 
0.03224456 0.03418483 0.00379447 0.00342754 0.00143188 0.00168570 0.00453988 0.00169021 0.01994721 0.00125129 0.00149207 0.03348135 0.00236135 0.00691912 0.00563165 0.00128092 
0.03096769 0.03362436 0.00367318 0.00343575 0.00142468 0.00165228 0.00443061 0.00166638 0.02003082 0.00123854 0.00146601 0.03334884 0.00230666 0.00686885 0.00547602 0.00127627 
0.02976115 0.03308540 0.00356070 0.00344293 0.00141647 0.00161912 0.00432179 0.00164703 0.02011572 0.00122682 0.00144068 0.03322493 0.00225697 0.00681585 0.00532048 0.00127107 
0.02862892 0.03257092 0.00345784 0.00344894 0.00140730 0.00158647 0.00421392 0.00163235 0.02020118 0.00121620 0.00141613 0.03310936 0.00221264 0.00676033 0.00516584 0.00126531 
0.02757472 0.03208380 0.00336538 0.00345364 0.00139721 0.00155459 0.00410747 0.00162250 0.02028648 0.00120676 0.00139238 0.03300179 0.00217401 0.00670252 0.00501293 0.00125901 
0.02660199 0.03162673 0.00328409 0.00345691 0.00138624 0.00152374 0.00400292 0.00161763 0.02037090 0.00119856 0.00136946 0.03290188 0.00214144 0.00664265 0.00486254 0.00125215 
0.02571389 0.03120227 0.00321475 0.00345865 0.00137446 0.00149416 0.00390072 0.00161790 0.02045376 0.00119168 0.00134739 0.03280921 0.00211529 0.00658093 0.00471550 0.00124476 
0.02491327 0.03081279 0.00315807 0.00345875 0.00136190 0.00146610 0.00380132 0.00162344 0.02053437 0.00118618 0.00132619 0.03272336 0.00209592 0.00651759 0.00457257 0.00123685 
0.02420269 0.03046050 0.00311476 0.00345712 0.00134862 0.00143981 0.00370516 0.00163435 0.02061210 0.00118211 0.00130587 0.03264389 0.00208368 0.00645284 0.00443453 0.00122843 
0.02358438 0.03014738 0.00308552 0.00345370 0.00133469 0.00141552 0.00361263 0.00165076 0.02068633 0.00117953 0.00128644 0.03257033 0.00207893 0.00638691 0.00430212 0.00121951 
0.02306027 0.02987521 0.00307098 0.00344843 0.00132016 0.00139347 0.00352415 0.00167273 0.02075649 0.00117848 0.00126792 0.03250221 0.00208202 0.00632001 0.00417607 0.00121013 
0.02263192 0.02964556 0.00307175 0.00344127 0.00130510 0.00137388 0.00344008 0.00170035 0.02082202 0.00117900 0.00125030 0.03243907 0.00209330 0.00625235 0.00405707 0.00120031 
0.02230061 0.02945977 0.00308840 0.00343219 0.00128957 0.00135694 0.00336079 0.00173365 0.02088244 0.00118114 0.00123358 0.03238041 0.00211310 0.00618414 0.00394576 0.00119008 
0.02206726 0.02931894 0.00312146 0.00342118 0.00127362 0.00134288 0.00328660 0.00177267 0.02093729 0.00118492 0.00121777 0.03232577 0.00214174 0.00611556 0.00384277 0.00117947 
0.02193244 0.02922393 0.00317141 0.00340827 0.00125734 0.00133186 0.00321783 0.00181742 0.02098617 0.00119036 0.00120286 0.03227470 0.00217955 0.00604682 0.00374867 0.00116853 
0.02189641 0.02917537 0.00323867 0.00339346 0.00124077 0.00132406 0.00315477 0.00186789 0.02102872 0.00119749 0.00118883 0.03222675 0.00222682 0.00597811 0.00366399 0.00115729 
0.02195908 0.02917360 0.00332361 0.00337681 0.00122400 0.00131964 0.00309768 0.00192405 0.02106462 0.00120631 0.00117569 0.03218150 0.00228384 0.00590959 0.00358922 0.00114579 
0.02212002 0.02921877 0.00342656 0.00335839 0.00120707 0.00131874 0.00304679 0.00198584 0.02109363 0.00121682 0.00116342 0.03213855 0.00235087 0.00584144 0.00352477 0.00113410 
0.02237847 0.02931071 0.00354776 0.00333826 0.00119007 0.00132148 0.00300232 0.00205319 0.02111551 0.00122902 0.00115200 0.03209753 0.00242816 0.00577383 0.00347103 0.00112224 
0.02273335 0.02944906 0.00368741 0.00331653 0.00117306 0.00132797 0.00296445 0.00212600 0.02113011 0.00124291 0.00114143 0.03205810 0.00251594 0.00570690 0.00342832 0.00111029 
0.02318323 0.02963318 0.00384564 0.00329332 0.00115609 0.00133829 0.00293334 0.00220415 0.02113732 0.00125845 0.00113168 0.03201994 0.00261439 0.00564081 0.00339689 0.00109828 
0.02372639 0.02986217 0.00402249 0.00326874 0.00113923 0.00135252 0.00290913 0.00228750 0.02113706 0.00127563 0.00112274 0.03198278 0.00272370 0.00557569 0.00337694 0.00108628 
0.02436079 0.03013492 0.00421795 0.00324295 0.00112255 0.00137069 0.00289190 0.00237587 0.02112930 0.00129442 0.00111459 0.03194637 0.00284400 0.00551168 0.00336862 0.00107436 
0.02508406 0.03045007 0.00443193 0.00321611 0.00110610 0.00139284 0.00288174 0.00246907 0.02111406 0.00131476 0.00110721 0.03191050 0.00297540 0.00544888 0.00337199 0.00106255 
0.02589357 0.03080603 0.00466428 0.00318839 0.00108995 0.00141898 0.00287870 0.00256689 0.02109139 0.00133662 0.00110058 0.03187500 0.00311798 0.00538742 0.00338707 0.00105094 
0.02678639 0.03120100 0.00491474 0.00315997 0.00107414 0.00144908 0.00288278 0.00266910 0.02106139 0.00135994 0.00109468 0.03183973 0.00327178 0.00532738 0.00341380 0.00103958 
0.02775931 0.03163295 0.00518301 0.00313106 0.00105874 0.00148311 0.00289399 0.00277542 0.02102417 0.00138465 0.00108949 0.03180460 0.00343682 0.00526887 0.00345206 0.00102853 
0.02880887 0.03209968 0.00546868 0.00310187 0.00104379 0.00152102 0.00291227 0.00288557 0.02097991 0.00141069 0.00108498 0.03176952 0.00361304 0.00521197 0.00350167 0.00101786 
0.02993136 0.03259877 0.00577129 0.00307260 0.00102935 0.00156273 0.00293757 0.00299926 0.02092878 0.00143798 0.00108115 0.03173448 0.00380039 0.00515675 0.00356238 0.00100762 
0.03112281 0.03312766 0.00609028 0.00304349 0.00101546 0.00160813 0.00296979 0.00311616 0.02087099 0.00146644 0.00107796 0.03169945 0.00399875 0.00510327 0.00363388 0.00099788 
0.03237906 0.03368360 0.00642502 0.00301477 0.00100216 0.00165712 0.00300882 0.00323592 0.02080678 0.00149597 0.00107539 0.03166447 0.00420797 0.00505159 0.00371581 0.00098870 
0.03369572 0.03426371 0.00677481 0.00298667 0.00098949 0.00170954 0.00305449 0.00335818 0.02073640 0.00152649 0.00107343 0.03162958 0.00442784 0.00500176 0.00380773 0.00098013 
0.03506823 0.03486498 0.00713887 0.00295943 0.00097749 0.00176525 0.00310664 0.00348256 0.02066011 0.00155789 0.00107206 0.03159487 0.00465813 0.00495382 0.00390915 0.00097223 
0.03649184 0.03548428 0.00751634 0.00293330 0.00096619 0.00182407 0.00316507 0.00360866 0.02057821 0.00159006 0.00107125 0.03156042 0.00489855 0.00490779 0.00401953 0.00096506 
0.03796165 0.03611839 0.00790630 0.00290852 0.00095562 0.00188579 0.00322956 0.00373608 0.02049098 0.00162289 0.00107099 0.03152634 0.00514877 0.00486370 0.00413828 0.00095866 
0.03947263 0.03676400 0.00830775 0.00288531 0.00094581 0.00195022 0.00329984 0.00386440 0.02039872 0.00165627 0.00107125 0.03149276 0.00540843 0.00482156 0.00426475 0.00095308 
0.04101960 0.03741775 0.00871963 0.00286394 0.00093679 0.00201712 0.00337566 0.00399317 0.02030175 0.00169008 0.00107203 0.03145981 0.00567710 0.00478137 0.00439826 0.00094836 
0.04259732 0.03807625 0.00914083 0.00284461 0.00092856 0.00208625 0.00345671 0.00412196 0.02020037 0.00172419 0.00107330 0.03142763 0.00595434 0.00474313 0.00453807 0.00094455 
0.04420043 0.03873604 0.00957016 0.00282756 0.00092114 0.00215737 0.00354268 0.00425031 0.02009491 0.00175847 0.00107504 0.03139638 0.00623963 0.00470683 0.00468343 0.00094167 
0.04582354 0.03939370 0.01000640 0.00281301 0.00091455 0.00223019 0.00363324 0.00437778 0.01998567 0.00179280 0.00107724 0.03136618 0.00653244 0.00467245 0.00483352 0.00093976 
0.04746118 0.04004580 0.01044826 0.00280116 0.00090879 0.00230444 0.00372802 0.00450391 0.01987298 0.00182705 0.00107987 0.03133718 0.00683220 0.00463996 0.00498753 0.00093885 
0.04910790 0.04068895 0.01089442 0.00279222 0.00090387 0.00237984 0.00382665 0.00462824 0.01975715 0.00186108 0.00108294 0.03130952 0.00713827 0.00460933 0.00514460 0.00093894 
0.05075821 0.04131981 0.01134352 0.00278635 0.00089979 0.00245609 0.00392874 0.00475031 0.01963850 0.00189476 0.00108640 0.03128330 0.00745002 0.00458052 0.00530387 0.00094006 
0.05240667 0.04193509 0.01179416 0.00278374 0.00089654 0.00253289 0.00403389 0.00486967 0.01951735 0.00192795 0.00109026 0.03125863 0.00776674 0.00455349 0.00546445 0.00094221 
0.05404785 0.04253160 0.01224492 0.00278455 0.00089412 0.00260994 0.00414167 0.00498588 0.01939401 0.00196053 0.00109450 0.03123560 0.00808774 0.00452817 0.00562546 0.00094540 
0.05567640 0.04310626 0.01269436 0.00278890 0.00089252 0.00268693 0.00425166 0.00509851 0.01926879 0.00199236 0.00109909 0.03121428 0.00841226 0.00450451 0.00578600 0.00094962 
0.05728703 0.04365609 0.01314104 0.00279694 0.00089173 0.00276355 0.00436341 0.00520712 0.01914201 0.00202331 0.00110403 0.03119470 0.00873952 0.00448244 0.00594520 0.00095486 
0.05887457 0.04417826 0.01358347 0.00280875 0.00089173 0.00283950 0.00447648 0.00531131 0.01901399 0.00205325 0.00110929 0.03117690 0.00906875 0.00446189 0.00610218 0.00096110 
0.06043397 0.04467009 0.01402022 0.00282443 0.00089250 0.00291446 0.00459040 0.00541068 0.01888506 0.00208207 0.00111486 0.03116085 0.00939912 0.00444277 0.00625607 0.00096832 
0.06196028 0.04512905 0.01444981 0.00284404 0.00089402 0.00298813 0.00470472 0.00550487 0.01875552 0.00210963 0.00112071 0.03114653 0.00972981 0.00442501 0.00640604 0.00097650 
0.06344876 0.04555280 0.01487082 0.00286764 0.00089628 0.00306023 0.00481897 0.00559351 0.01862572 0.00213583 0.00112684 0.03113388 0.01005997 0.00440852 0.00655127 0.00098558 
0.06489480 0.04593918 0.01528182 0.00289524 0.00089924 0.00313045 0.00493269 0.00567627 0.01849600 0.00216055 0.00113323 0.03112279 0.01038877 0.00439320 0.00669100 0.00099554 
0.06629402 0.04628624 0.01568142 0.00292686 0.00090287 0.00319853 0.00504541 0.00575284 0.01836669 0.00218369 0.00113985 0.03111315 0.01071534 0.00437896 0.00682447 0.00100633 
0.06764221 0.04659225 0.01606827 0.00296248 0.00090715 0.00326419 0.00515668 0.00582295 0.01823816 0.00220514 0.00114668 0.03110482 0.01103883 0.00436569 0.00695099 0.00101789 
0.06893543 0.04685568 0.01644105 0.00300207 0.00091204 0.00332718 0.00526603 0.00588635 0.01811079 0.00222483 0.00115370 0.03109761 0.01135839 0.00435328 0.00706990 0.00103016 
0.07016994 0.04707523 0.01679849 0.00304557 0.00091752 0.00338724 0.00537303 0.00594281 0.01798495 0.00224266 0.00116089 0.03109133 0.01167318 0.00434164 0.00718062 0.00104307 
0.07134228 0.04724985 0.01713939 0.00309290 0.00092354 0.00344416 0.00547722 0.00599214 0.01786105 0.00225856 0.00116823 0.03108575 0.01198236 0.00433064 0.00728261 0.00105657 
0.07244925 0.04737873 0.01746259 0.00314397 0.00093008 0.00349772 0.00557820 0.00603419 0.01773951 0.00227245 0.00117569 0.03108062 0.01228511 0.00432017 0.00737538 0.00107058 
0.07348793 0.04746127 0.01776701 0.00319867 0.00093709 0.00354772 0.00567554 0.00606884 0.01762077 0.00228429 0.00118325 0.03107569 0.01258064 0.00431013 0.00745852 0.00108501 
0.07445571 0.04749714 0.01805164 0.00325686 0.00094453 0.00359399 0.00576885 0.00609601 0.01750529 0.00229401 0.00119088 0.03107068 0.01286816 0.00430039 0.00753170 0.00109978 
0.07535024 0.04748627 0.01831555 0.00331838 0.00095238 0.00363636 0.00585776 0.00611563 0.01739355 0.00230158 0.00119855 0.03106530 0.01314693 0.00429083 0.00759465 0.00111482 
0.07616951 0.04742879 0.01855789 0.00338307 0.00096060 0.00367470 0.00594190 0.00612771 0.01728605 0.00230697 0.00120624 0.03105926 0.01341622 0.00428134 0.00764716 0.00113004 
0.07691183 0.04732513 0.01877790 0.00345075 0.00096914 0.00370890 0.00602094 0.00613226 0.01718332 0.00231016 0.00121391 0.03105227 0.01367535 0.00427181 0.00768913 0.00114534 
0.07757581 0.04717591 0.01897490 0.00352121 0.00097796 0.00373884 0.00609457 0.00612935 0.01708592 0.00231113 0.00122153 0.03104405 0.01392365 0.00426212 0.00772052 0.00116064 
0.07816041 0.04698200 0.01914834 0.00359424 0.00098704 0.00376446 0.00616251 0.00611906 0.01699439 0.00230989 0.00122908 0.03103432 0.01416052 0.00425216 0.00774136 0.00117584 
0.07866489 0.04674452 0.01929773 0.00366962 0.00099633 0.00378571 0.00622449 0.00610155 0.01690935 0.00230644 0.00123651 0.03102281 0.01438538 0.00424182 0.00775179 0.00119085 
0.07908887 0.04646478 0.01942269 0.00374711 0.00100579 0.00380254 0.00628029 0.00607698 0.01683139 0.00230081 0.00124380 0.03100930 0.01459770 0.00423100 0.00775201 0.00120558 
0.07943228 0.04614432 0.01952296 0.00382645 0.00101539 0.00381496 0.00632971 0.00604555 0.01676114 0.00229302 0.00125092 0.03099358 0.01479700 0.00421960 0.00774230 0.00121994 
0.07969538 0.04578489 0.01959838 0.00390740 0.00102510 0.00382297 0.00637257 0.00600750 0.01669925 0.00228312 0.00125782 0.03097547 0.01498284 0.00420751 0.00772304 0.00123385 
0.07987877 0.04538842 0.01964888 0.00398970 0.00103488 0.00382662 0.00640876 0.00596311 0.01664638 0.00227116 0.00126447 0.03095484 0.01515484 0.00419466 0.00769467 0.00124721 
0.07998335 0.04495702 0.01967451 0.00407307 0.00104470 0.00382594 0.00643816 0.00591268 0.01660319 0.00225719 0.00127084 0.03093161 0.01531267 0.00418095 0.00765771 0.00125994 
0.08001035 0.04449298 0.01967543 0.00415726 0.00105452 0.00382103 0.00646070 0.00585653 0.01657035 0.00224129 0.00127689 0.03090576 0.01545605 0.00416632 0.00761276 0.00127196 
0.07996128 0.04399873 0.01965190 0.00424197 0.00106432 0.00381197 0.00647636 0.00579505 0.01654854 0.00222354 0.00128259 0.03087732 0.01558474 0.00415070 0.00756049 0.00128320 
0.07983798 0.04347686 0.01960428 0.00432695 0.00107406 0.00379888 0.00648514 0.00572859 0.01653844 0.00220402 0.00128790 0.03084639 0.01569859 0.00413403 0.00750164 0.00129358 
0.07964255 0.04293008 0.01953305 0.00441193 0.00108372 0.00378190 0.00648708 0.00565759 0.01654072 0.00218282 0.00129279 0.03081315 0.01579746 0.00411627 0.00743700 0.00130304 
0.07937737 0.04236121 0.01943877 0.00449663 0.00109327 0.00376118 0.00648225 0.00558246 0.01655604 0.00216006 0.00129722 0.03077785 0.01588130 0.00409736 0.00736743 0.00131152 
0.07904509 0.04177316 0.01932212 0.00458078 0.00110268 0.00373689 0.00647077 0.00550366 0.01658504 0.00213583 0.00130116 0.03074084 0.01595010 0.00407730 0.00729385 0.00131896 
0.07864858 0.04116892 0.01918385 0.00466414 0.00111194 0.00370920 0.00645277 0.00542165 0.01662835 0.00211026 0.00130459 0.03070255 0.01600390 0.00405605 0.00721721 0.00132532 
0.07819097 0.04055155 0.01902483 0.00474645 0.00112102 0.00367832 0.00642844 0.00533690 0.01668656 0.00208347 0.00130746 0.03066349 0.01604279 0.00403362 0.00713853 0.00133055 
0.07767558 0.03992417 0.01884600 0.00482747 0.00112990 0.00364447 0.00639799 0.00524990 0.01676024 0.00205558 0.00130974 0.03062429 0.01606693 0.00401002 0.00705884 0.00133462 
0.07710594 0.03928990 0.01864838 0.00490696 0.00113856 0.00360785 0.00636166 0.00516115 0.01684991 0.00202672 0.00131142 0.03058567 0.01607651 0.00398526 0.00697920 0.00133751 
0.07648575 0.03865190 0.01843309 0.00498470 0.00114699 0.00356870 0.00631972 0.00507114 0.01695606 0.00199704 0.00131247 0.03054845 0.01607179 0.00395937 0.00690072 0.00133921 
0.07581885 0.03801331 0.01820129 0.00506048 0.00115516 0.00352727 0.00627249 0.00498037 0.01707911 0.00196666 0.00131286 0.03051355 0.01605305 0.00393241 0.00682450 0.00133969 
0.07510926 0.03737728 0.01795424 0.00513411 0.00116308 0.00348380 0.00622030 0.00488935 0.01721944 0.00193574 0.00131258 0.03048201 0.01602064 0.00390443 0.00675166 0.00133896 
0.07436107 0.03674690 0.01769324 0.00520539 0.00117072 0.00343855 0.00616350 0.00479855 0.01737737 0.00190440 0.00131160 0.03045496 0.01597494 0.00387550 0.00668330 0.00133703 
0.07357848 0.03612522 0.01741965 0.00527417 0.00117807 0.00339176 0.00610248 0.00470848 0.01755313 0.00187278 0.00130991 0.03043363 0.01591637 0.00384571 0.00662054 0.00133392 
0.07276578 0.03551524 0.01713489 0.00534028 0.00118513 0.00334371 0.00603764 0.00461960 0.01774689 0.00184104 0.00130750 0.03041937 0.01584540 0.00381515 0.00656447 0.00132964 
0.07192729 0.03491987 0.01684039 0.00540359 0.00119189 0.00329464 0.00596940 0.00453238 0.01795876 0.00180931 0.00130435 0.03041359 0.01576252 0.00378394 0.00651617 0.00132424 
0.07106737 0.03434195 0.01653766 0.00546397 0.00119834 0.00324482 0.00589821 0.00444725 0.01818873 0.00177773 0.00130048 0.03041782 0.01566826 0.00375219 0.00647666 0.00131776 
0.07019039 0.03378421 0.01622821 0.00552133 0.00120448 0.00319451 0.00582452 0.00436466 0.01843672 0.00174644 0.00129586 0.03043368 0.01556319 0.00372003 0.00644696 0.00131024 
0.06930070 0.03324926 0.01591357 0.00557556 0.00121031 0.00314396 0.00574879 0.00428501 0.01870257 0.00171556 0.00129052 0.03046285 0.01544789 0.00368761 0.00642801 0.00130174 
0.06840261 0.03273960 0.01559530 0.00562660 0.00121582 0.00309341 0.00567151 0.00420868 0.01898599 0.00168522 0.00128444 0.03050710 0.01532298 0.00365509 0.00642072 0.00129232 
0.06750040 0.03225759 0.01527496 0.00567438 0.00122101 0.00304312 0.00559315 0.00413602 0.01928664 0.00165555 0.00127764 0.03056825 0.01518910 0.00362262 0.00642593 0.00128207 
0.06659824 0.03180547 0.01495409 0.00571888 0.00122589 0.00299331 0.00551420 0.00406739 0.01960403 0.00162667 0.00127014 0.03064818 0.01504689 0.00359037 0.00644441 0.00127105 
0.06570022 0.03138531 0.01463426 0.00576005 0.00123045 0.00294421 0.00543514 0.00400307 0.01993759 0.00159868 0.00126195 0.03074882 0.01489703 0.00355853 0.00647686 0.00125935 
0.06481032 0.03099904 0.01431701 0.00579790 0.00123471 0.00289604 0.00535646 0.00394334 0.02028664 0.00157170 0.00125310 0.03087212 0.01474021 0.00352728 0.00652391 0.00124705 
0.06393239 0.03064843 0.01400384 0.00583243 0.00123866 0.00284900 0.00527862 0.00388845 0.02065041 0.00154582 0.00124360 0.03102006 0.01457712 0.00349681 0.00658609 0.00123426 
0.06307011 0.03033508 0.01369626 0.00586366 0.00124231 0.00280327 0.00520210 0.00383860 0.02102799 0.00152113 0.00123350 0.03119461 0.01440845 0.00346732 0.00666385 0.00122108 
0.06222700 0.03006042 0.01339571 0.00589161 0.00124567 0.00275906 0.00512735 0.00379398 0.02141841 0.00149772 0.00122283 0.03139776 0.01423493 0.00343899 0.00675753 0.00120759 
0.06140642 0.02982574 0.01310362 0.00591635 0.00124874 0.00271650 0.00505481 0.00375471 0.02182056 0.00147566 0.00121162 0.03163143 0.01405725 0.00341203 0.00686739 0.00119392 
0.06061151 0.02963212 0.01282134 0.00593791 0.00125154 0.00267577 0.00498490 0.00372092 0.02223326 0.00145501 0.00119992 0.03189756 0.01387613 0.00338665 0.00699358 0.00118016 
0.05984521 0.02948050 0.01255021 0.00595638 0.00125406 0.00263700 0.00491803 0.00369268 0.02265519 0.00143584 0.00118777 0.03219799 0.01369226 0.00336302 0.00713615 0.00116643 
0.05911024 0.02937163 0.01229148 0.00597182 0.00125633 0.00260030 0.00485458 0.00367002 0.02308500 0.00141820 0.00117523 0.03253451 0.01350636 0.00334136 0.00729504 0.00115283 
0.05840908 0.02930611 0.01204635 0.00598433 0.00125835 0.00256579 0.00479491 0.00365294 0.02352118 0.00140212 0.00116235 0.03290881 0.01331911 0.00332185 0.00747008 0.00113948 
0.05774400 0.02928434 0.01181595 0.00599400 0.00126014 0.00253355 0.00473934 0.00364142 0.02396220 0.00138764 0.00114918 0.03332249 0.01313120 0.00330467 0.00766098 0.00112647 
0.05711698 0.02930661 0.01160133 0.00600092 0.00126170 0.00250366 0.00468818 0.00363539 0.02440642 0.00137478 0.00113580 0.03377701 0.01294329 0.00329000 0.00786738 0.00111393 
0.05652979 0.02937299 0.01140348 0.00600520 0.00126305 0.00247617 0.00464170 0.00363476 0.02485213 0.00136355 0.00112225 0.03427372 0.01275603 0.00327802 0.00808876 0.00110194 
0.05598392 0.02948344 0.01122329 0.00600696 0.00126420 0.00245113 0.00460012 0.00363940 0.02529757 0.00135395 0.00110860 0.03481377 0.01257007 0.00326887 0.00832454 0.00109062 
0.05548062 0.02963776 0.01106159 0.00600629 0.00126517 0.00242857 0.00456367 0.00364914 0.02574091 0.00134599 0.00109493 0.03539819 0.01238603 0.00326272 0.00857402 0.00108006 
0.05502085 0.02983558 0.01091910 0.00600331 0.00126596 0.00240849 0.00453250 0.00366381 0.02618030 0.00133965 0.00108131 0.03602778 0.01220449 0.00325968 0.00883637 0.00107034 
0.05460533 0.03007642 0.01079646 0.00599814 0.00126660 0.00239089 0.00450675 0.00368318 0.02661381 0.00133491 0.00106780 0.03670316 0.01202604 0.00325989 0.00911072 0.00106157 
0.05423453 0.03035967 0.01069421 0.00599089 0.00126710 0.00237576 0.00448652 0.00370701 0.02703953 0.00133174 0.00105448 0.03742472 0.01185123 0.00326344 0.00939606 0.00105381 
0.05390863 0.03068456 0.01061280 0.00598166 0.00126747 0.00236305 0.00447186 0.00373504 0.02745550 0.00133011 0.00104143 0.03819263 0.01168058 0.00327043 0.00969130 0.00104715 
0.05362760 0.03105025 0.01055259 0.00597056 0.00126773 0.00235272 0.00446280 0.00376698 0.02785977 0.00132997 0.00102871 0.03900681 0.01151460 0.00328093 0.00999529 0.00104165 
0.05339113 0.03145575 0.01051383 0.00595770 0.00126790 0.00234471 0.00445932 0.00380252 0.02825038 0.00133128 0.00101641 0.03986692 0.01135375 0.00329498 0.01030679 0.00103736 
0.05319868 0.03189998 0.01049668 0.00594317 0.00126798 0.00233896 0.00446136 0.00384134 0.02862540 0.00133399 0.00100460 0.04077235 0.01119848 0.00331262 0.01062448 0.00103435 
0.05304947 0.03238179 0.01050120 0.00592707 0.00126800 0.00233537 0.00446884 0.00388308 0.02898292 0.00133802 0.00099335 0.04172224 0.01104920 0.00333387 0.01094699 0.00103265 
0.05294252 0.03289990 0.01052734 0.00590947 0.00126796 0.00233385 0.00448163 0.00392740 0.02932105 0.00134333 0.00098273 0.04271542 0.01090629 0.00335871 0.01127290 0.00103229 
0.05287661 0.03345299 0.01057496 0.00589046 0.00126789 0.00233431 0.00449957 0.00397393 0.02963798 0.00134984 0.00097281 0.04375043 0.01077009 0.00338712 0.01160073 0.00103331 
0.05285033 0.03403963 0.01064383 0.00587011 0.00126779 0.00233662 0.00452246 0.00402229 0.02993193 0.00135748 0.00096367 0.04482554 0.01064092 0.00341904 0.01192898 0.00103572 
0.05286207 0.03465837 0.01073360 0.00584848 0.00126769 0.00234068 0.00455008 0.00407209 0.03020121 0.00136617 0.00095537 0.04593870 0.01051906 0.00345440 0.01225610 0.00103952 
0.05291005 0.03530766 0.01084385 0.00582563 0.00126759 0.00234635 0.00458216 0.00412295 0.03044418 0.00137584 0.00094798 0.04708757 0.01040476 0.00349310 0.01258053 0.00104470 
0.05299231 0.03598594 0.01097404 0.00580159 0.00126751 0.00235351 0.00461843 0.00417447 0.03065934 0.00138641 0.00094155 0.04826953 0.01029823 0.00353503 0.01290072 0.00105127 
0.05310676 0.03669158 0.01112356 0.00577641 0.00126746 0.00236202 0.00465856 0.00422627 0.03084524 0.00139780 0.00093613 0.04948164 0.01019965 0.00358004 0.01321508 0.00105919 
0.05325115 0.03742293 0.01129169 0.00575010 0.00126745 0.00237174 0.00470221 0.00427795 0.03100058 0.00140993 0.00093179 0.05072068 0.01010915 0.00362798 0.01352205 0.00106843 
0.05342313 0.03817830 0.01147764 0.00572270 0.00126749 0.00238253 0.00474903 0.00432914 0.03112414 0.00142272 0.00092857 0.05198317 0.01002685 0.00367865 0.01382010 0.00107896 
0.05362021 0.03895600 0.01168054 0.00569420 0.00126760 0.00239425 0.00479863 0.00437944 0.03121487 0.00143609 0.00092652 0.05326534 0.00995281 0.00373187 0.01410770 0.00109071 
0.05383984 0.03975430 0.01189942 0.00566462 0.00126778 0.00240675 0.00485060 0.00442849 0.03127183 0.00144997 0.00092566 0.05456315 0.00988708 0.00378740 0.01438339 0.00110364 
0.05407938 0.04057147 0.01213324 0.00563394 0.00126804 0.00241990 0.00490454 0.00447593 0.03129422 0.00146428 0.00092603 0.05587233 0.00982966 0.00384500 0.01464572 0.00111768 
0.05433613 0.04140577 0.01238091 0.00560214 0.00126839 0.00243356 0.00496002 0.00452141 0.03128140 0.00147894 0.00092765 0.05718837 0.00978050 0.00390442 0.01489331 0.00113276 
0.05460734 0.04225548 0.01264124 0.00556922 0.00126883 0.00244758 0.00501661 0.00456460 0.03123288 0.00149389 0.00093056 0.05850655 0.00973956 0.00396537 0.01512487 0.00114879 
0.05489024 0.04311886 0.01291300 0.00553513 0.00126936 0.00246183 0.00507385 0.00460518 0.03114834 0.00150907 0.00093475 0.05982194 0.00970674 0.00402758 0.01533913 0.00116568 
0.05518205 0.04399418 0.01319490 0.00549986 0.00127000 0.00247619 0.00513131 0.00464284 0.03102762 0.00152440 0.00094024 0.06112944 0.00968190 0.00409073 0.01553495 0.00118335 
0.05547997 0.04487975 0.01348559 0.00546336 0.00127074 0.00249052 0.00518854 0.00467730 0.03087072 0.00153983 0.00094702 0.06242380 0.00966489 0.00415451 0.01571125 0.00120170 
0.05578125 0.04577386 0.01378366 0.00542559 0.00127158 0.00250471 0.00524510 0.00470830 0.03067780 0.00155532 0.00095509 0.06369964 0.00965553 0.00421859 0.01586704 0.00122062 
0.05608314 0.04667485 0.01408770 0.00538652 0.00127252 0.00251864 0.00530056 0.00473560 0.03044922 0.00157080 0.00096443 0.06495147 0.00965359 0.00428265 0.01600146 0.00124000 
0.05638297 0.04758107 0.01439623 0.00534610 0.00127356 0.00253221 0.00535448 0.00475896 0.03018550 0.00158624 0.00097503 0.06617372 0.00965884 0.00434633 0.01611372 0.00125975 
0.05667809 0.04849089 0.01470775 0.00530428 0.00127469 0.00254532 0.00540645 0.00477819 0.02988731 0.00160160 0.00098685 0.06736077 0.00967102 0.00440929 0.01620317 0.00127974 
0.05696596 0.04940272 0.01502073 0.00526102 0.00127592 0.00255788 0.00545608 0.00479312 0.02955553 0.00161686 0.00099986 0.06850700 0.00968984 0.00447120 0.01626926 0.00129986 
0.05724411 0.05031498 0.01533365 0.00521629 0.00127722 0.00256981 0.00550297 0.00480358 0.02919116 0.00163198 0.00101403 0.06960677 0.00971498 0.00453169 0.01631158 0.00132000 
0.05751018 0.05122615 0.01564496 0.00517005 0.00127860 0.00258103 0.00554677 0.00480945 0.02879540 0.00164695 0.00102929 0.07065450 0.00974613 0.00459043 0.01632982 0.00134005 
0.05776191 0.05213473 0.01595309 0.00512227 0.00128005 0.00259147 0.00558713 0.00481063 0.02836960 0.00166174 0.00104560 0.07164468 0.00978293 0.00464707 0.01632380 0.00135989 
0.05799716 0.05303925 0.01625651 0.00507291 0.00128156 0.00260109 0.00562375 0.00480702 0.02791525 0.00167637 0.00106290 0.07257189 0.00982504 0.00470129 0.01629350 0.00137941 
0.05821395 0.05393828 0.01655368 0.00502196 0.00128310 0.00260983 0.00565633 0.00479859 0.02743401 0.00169082 0.00108111 0.07343088 0.00987208 0.00475274 0.01623897 0.00139851 
0.05841041 0.05483043 0.01684308 0.00496941 0.00128468 0.00261765 0.00568461 0.00478529 0.02692767 0.00170510 0.00110018 0.07421653 0.00992366 0.00480113 0.01616045 0.00141708 
0.05858484 0.05571436 0.01712321 0.00491525 0.00128627 0.00262453 0.00570837 0.00476712 0.02639815 0.00171923 0.00112001 0.07492396 0.00997941 0.00484615 0.01605826 0.00143502 
0.05873569 0.05658875 0.01739260 0.00485949 0.00128787 0.00263044 0.00572743 0.00474409 0.02584751 0.00173320 0.00114054 0.07554848 0.01003892 0.00488751 0.01593288 0.00145223 
0.05886160 0.05745234 0.01764983 0.00480215 0.00128945 0.00263538 0.00574160 0.00471625 0.02527792 0.00174706 0.00116167 0.07608572 0.01010180 0.00492494 0.01578490 0.00146863 
0.05896135 0.05830390 0.01789351 0.00474326 0.00129101 0.00263933 0.00575078 0.00468366 0.02469164 0.00176082 0.00118331 0.07653155 0.01016765 0.00495820 0.01561503 0.00148413 
0.05903394 0.05914225 0.01812230 0.00468285 0.00129252 0.00264231 0.00575489 0.00464640 0.02409105 0.00177452 0.00120537 0.07688221 0.01023608 0.00498706 0.01542411 0.00149865 
0.05907851 0.05996625 0.01833491 0.00462098 0.00129397 0.00264433 0.00575386 0.00460460 0.02347862 0.00178819 0.00122775 0.07713426 0.01030668 0.00501131 0.01521309 0.00151212 
0.05909442 0.06077481 0.01853014 0.00455772 0.00129534 0.00264540 0.00574769 0.00455836 0.02285686 0.00180186 0.00125036 0.07728468 0.01037908 0.00503077 0.01498302 0.00152447 
0.05908122 0.06156688 0.01870682 0.00449314 0.00129662 0.00264556 0.00573642 0.00450786 0.02222839 0.00181559 0.00127310 0.07733082 0.01045290 0.00504530 0.01473506 0.00153567 
0.05903865 0.06234148 0.01886388 0.00442733 0.00129779 0.00264483 0.00572010 0.00445325 0.02159584 0.00182942 0.00129586 0.07727048 0.01052776 0.00505476 0.01447049 0.00154564 
0.05896665 0.06309764 0.01900031 0.00436041 0.00129884 0.00264326 0.00569886 0.00439473 0.02096191 0.00184340 0.00131854 0.07710192 0.01060331 0.00505907 0.01419064 0.00155437 
0.05886535 0.06383448 0.01911519 0.00429249 0.00129975 0.00264089 0.00567283 0.00433251 0.02032930 0.00185758 0.00134105 0.07682386 0.01067921 0.00505815 0.01389697 0.00156181 
0.05873508 0.06455113 0.01920768 0.00422371 0.00130050 0.00263778 0.00564221 0.00426681 0.01970073 0.00187201 0.00136328 0.07643552 0.01075513 0.00505198 0.01359097 0.00156795 
0.05857638 0.06524681 0.01927705 0.00415421 0.00130109 0.00263396 0.00560721 0.00419787 0.01907895 0.00188674 0.00138514 0.07593662 0.01083076 0.00504055 0.01327425 0.00157277 
0.05838996 0.06592076 0.01932265 0.00408415 0.00130151 0.00262951 0.00556810 0.00412595 0.01846666 0.00190183 0.00140652 0.07532741 0.01090582 0.00502390 0.01294843 0.00157628 
0.05817675 0.06657229 0.01934392 0.00401371 0.00130174 0.00262449 0.00552518 0.00405132 0.01786656 0.00191734 0.00142734 0.07460867 0.01098003 0.00500208 0.01261522 0.00157847 
0.05793786 0.06720077 0.01934041 0.00394306 0.00130177 0.00261895 0.00547876 0.00397426 0.01728130 0.00193331 0.00144750 0.07378171 0.01105315 0.00497520 0.01227635 0.00157936 
0.05767457 0.06780561 0.01931179 0.00387239 0.00130162 0.00261296 0.00542922 0.00389506 0.01671348 0.00194980 0.00146692 0.07284839 0.01112495 0.00494340 0.01193360 0.00157898 
0.05738837 0.06838629 0.01925780 0.00380192 0.00130125 0.00260658 0.00537695 0.00381403 0.01616566 0.00196686 0.00148551 0.07181113 0.01119522 0.00490683 0.01158876 0.00157736 
0.05708090 0.06894232 0.01917830 0.00373185 0.00130069 0.00259990 0.00532236 0.00373149 0.01564030 0.00198453 0.00150321 0.07067286 0.01126380 0.00486569 0.01124364 0.00157452 
0.05675397 0.06947330 0.01907328 0.00366239 0.00129993 0.00259296 0.00526591 0.00364775 0.01513980 0.00200288 0.00151993 0.06943709 0.01133051 0.00482023 0.01090006 0.00157053 
0.05640957 0.06997888 0.01894282 0.00359378 0.00129897 0.00258585 0.00520807 0.00356314 0.01466645 0.00202193 0.00153561 0.06810784 0.01139524 0.00477069 0.01055982 0.00156543 
0.05604984 0.07045874 0.01878708 0.00352623 0.00129781 0.00257862 0.00514932 0.00347801 0.01422244 0.00204172 0.00155020 0.06668967 0.01145787 0.00471737 0.01022472 0.00155929 
0.05567703 0.07091266 0.01860638 0.00345999 0.00129648 0.00257133 0.00509018 0.00339268 0.01380983 0.00206230 0.00156364 0.06518765 0.01151833 0.00466060 0.00989653 0.00155216 
0.05529358 0.07134046 0.01840110 0.00339527 0.00129498 0.00256406 0.00503117 0.00330750 0.01343060 0.00208369 0.00157589 0.06360733 0.01157654 0.00460072 0.00957698 0.00154413 
0.05490202 0.07174201 0.01817176 0.00333232 0.00129332 0.00255687 0.00497283 0.00322282 0.01308654 0.00210592 0.00158691 0.06195478 0.01163247 0.00453811 0.00926776 0.00153527 
0.05450500 0.07211724 0.01791895 0.00327136 0.00129153 0.00254980 0.00491571 0.00313898 0.01277934 0.00212901 0.00159667 0.06023648 0.01168611 0.00447318 0.00897053 0.00152565 
0.05410527 0.07246615 0.01764338 0.00321262 0.00128962 0.00254292 0.00486035 0.00305633 0.01251052 0.00215297 0.00160515 0.05845938 0.01173746 0.00440634 0.00868686 0.00151536 
0.05370569 0.07278880 0.01734586 0.00315632 0.00128761 0.00253628 0.00480732 0.00297521 0.01228147 0.00217781 0.00161234 0.05663081 0.01178654 0.00433806 0.00841825 0.00150450 
0.05330919 0.07308528 0.01702726 0.00310268 0.00128554 0.00252992 0.00475717 0.00289596 0.01209339 0.00220353 0.00161823 0.05475851 0.01183340 0.00426878 0.00816615 0.00149315 
0.05291875 0.07335576 0.01668859 0.00305191 0.00128343 0.00252390 0.00471044 0.00281892 0.01194732 0.00223013 0.00162282 0.05285055 0.01187808 0.00419899 0.00793191 0.00148139 
0.05253742 0.07360047 0.01633090 0.00300419 0.00128131 0.00251824 0.00466769 0.00274442 0.01184416 0.00225759 0.00162613 0.05091530 0.01192066 0.00412918 0.00771677 0.00146933 
0.05216829 0.07381965 0.01595533 0.00295972 0.00127922 0.00251300 0.00462944 0.00267280 0.01178459 0.00228590 0.00162817 0.04896143 0.01196124 0.00405987 0.00752192 0.00145705 
0.05181447 0.07401364 0.01556312 0.00291867 0.00127719 0.00250819 0.00459620 0.00260435 0.01176915 0.00231504 0.00162897 0.04699785 0.01199989 0.00399156 0.00734840 0.00144465 
0.05147906 0.07418279 0.01515555 0.00288118 0.00127525 0.00250385 0.00456848 0.00253941 0.01179819 0.00234496 0.00162857 0.04503366 0.01203672 0.00392479 0.00719716 0.00143222 
0.05116519 0.07432751 0.01473397 0.00284742 0.00127345 0.00250001 0.00454676 0.00247826 0.01187187 0.00237562 0.00162701 0.04307813 0.01207185 0.00386007 0.00706904 0.00141983 
0.05087594 0.07444826 0.01429980 0.00281749 0.00127183 0.00249667 0.00453147 0.00242119 0.01199019 0.00240699 0.00162433 0.04114064 0.01210539 0.00379793 0.00696475 0.00140759 
0.05061436 0.07454553 0.01385448 0.00279151 0.00127042 0.00249387 0.00452306 0.00236849 0.01215296 0.00243900 0.00162060 0.03923065 0.01213745 0.00373889 0.00688490 0.00139558 
0.05038346 0.07461985 0.01339954 0.00276955 0.00126927 0.00249160 0.00452191 0.00232041 0.01235980 0.00247160 0.00161587 0.03735765 0.01216815 0.00368349 0.00682994 0.00138387 
0.05018616 0.07467176 0.01293651 0.00275170 0.00126843 0.00248988 0.00452838 0.00227721 0.01261017 0.00250470 0.00161021 0.03553113 0.01219761 0.00363222 0.00680025 0.00137253 
0.05002532 0.07470187 0.01246696 0.00273798 0.00126792 0.00248871 0.00454279 0.00223912 0.01290336 0.00253825 0.00160370 0.03376049 0.01222593 0.00358559 0.00679602 0.00136164 
0.04990366 0.07471078 0.01199249 0.00272843 0.00126780 0.00248809 0.00456543 0.00220635 0.01323847 0.00257216 0.00159641 0.03205507 0.01225322 0.00354410 0.00681735 0.00135127 
0.04982384 0.07469913 0.01151472 0.00272304 0.00126810 0.00248801 0.00459654 0.00217911 0.01361446 0.00260633 0.00158842 0.03042401 0.01227957 0.00350821 0.00686422 0.00134147 
0.04978833 0.07466757 0.01103526 0.00272180 0.00126887 0.00248848 0.00463631 0.00215758 0.01403010 0.00264068 0.00157982 0.02887631 0.01230506 0.00347839 0.00693644 0.00133229 
0.04979950 0.07461675 0.01055574 0.00272466 0.00127013 0.00248947 0.00468491 0.00214191 0.01448403 0.00267511 0.00157070 0.02742068 0.01232976 0.00345507 0.00703375 0.00132379 
0.04985953 0.07454735 0.01007778 0.00273155 0.00127194 0.00249098 0.00474242 0.00213226 0.01497472 0.00270951 0.00156115 0.02606558 0.01235373 0.00343865 0.00715572 0.00131601 
0.04997042 0.07446005 0.00960300 0.00274239 0.00127432 0.00249299 0.00480891 0.00212874 0.01550051 0.00274377 0.00155125 0.02481913 0.01237701 0.00342954 0.00730182 0.00130897 
0.05013401 0.07435550 0.00913297 0.00275705 0.00127731 0.00249548 0.00488438 0.00213144 0.01605960 0.00277778 0.00154111 0.02368908 0.01239962 0.00342809 0.00747141 0.00130272 
0.05035191 0.07423438 0.00866926 0.00277542 0.00128092 0.00249844 0.00496879 0.00214045 0.01665006 0.00281143 0.00153081 0.02268278 0.01242156 0.00343462 0.00766371 0.00129726 
0.05062551 0.07409735 0.00821341 0.00279733 0.00128519 0.00250183 0.00506202 0.00215582 0.01726985 0.00284459 0.00152045 0.02180713 0.01244281 0.00344945 0.00787787 0.00129261 
0.05095599 0.07394505 0.00776690 0.00282261 0.00129014 0.00250563 0.00516395 0.00217758 0.01791680 0.00287715 0.00151012 0.02106853 0.01246334 0.00347283 0.00811290 0.00128878 
0.05134427 0.07377810 0.00733120 0.00285108 0.00129577 0.00250982 0.00527435 0.00220572 0.01858864 0.00290899 0.00149990 0.02047288 0.01248308 0.00350500 0.00836773 0.00128577 
0.05179105 0.07359711 0.00690769 0.00288250 0.00130212 0.00251437 0.00539297 0.00224023 0.01928304 0.00293997 0.00148988 0.02002552 0.01250196 0.00354615 0.00864120 0.00128357 
0.05229673 0.07340265 0.00649772 0.00291667 0.00130917 0.00251925 0.00551950 0.00228107 0.01999753 0.00296998 0.00148015 0.01973120 0.01251987 0.00359643 0.00893206 0.00128217 
0.05286147 0.07319526 0.00610258 0.00295333 0.00131693 0.00252443 0.00565359 0.00232815 0.02072962 0.00299889 0.00147079 0.01959405 0.01253668 0.00365598 0.00923898 0.00128154 
0.05348515 0.07297546 0.00572347 0.00299223 0.00132541 0.00252988 0.00579483 0.00238139 0.02147673 0.00302658 0.00146187 0.01961759 0.01255225 0.00372485 0.00956056 0.00128166 
0.05416737 0.07274374 0.00536155 0.00303310 0.00133458 0.00253557 0.00594275 0.00244066 0.02223622 0.00305293 0.00145345 0.01980465 0.01256640 0.00380310 0.00989534 0.00128251 
0.05490744 0.07250052 0.00501787 0.00307566 0.00134444 0.00254146 0.00609686 0.00250582 0.02300542 0.00307782 0.00144562 0.02015740 0.01257894 0.00389071 0.01024181 0.00128403 
0.05570439 0.07224621 0.00469344 0.00311962 0.00135497 0.00254753 0.00625661 0.00257670 0.02378163 0.00310115 0.00143841 0.02067731 0.01258967 0.00398764 0.01059840 0.00128619 
0.05655694 0.07198117 0.00438917 0.00316469 0.00136613 0.00255373 0.00642140 0.00265308 0.02456213 0.00312279 0.00143190 0.02136513 0.01259836 0.00409381 0.01096351 0.00128894 
0.05746355 0.07170571 0.00410587 0.00321055 0.00137790 0.00256004 0.00659061 0.00273477 0.02534417 0.00314264 0.00142611 0.02222090 0.01260476 0.00420907 0.01133551 0.00129223 
0.05842237 0.07142009 0.00384428 0.00325692 0.00139024 0.00256642 0.00676358 0.00282150 0.02612502 0.00316061 0.00142110 0.02324394 0.01260862 0.00433327 0.01171274 0.00129600 
0.05943127 0.07112455 0.00360504 0.00330349 0.00140310 0.00257284 0.00693960 0.00291302 0.02690195 0.00317659 0.00141690 0.02443282 0.01260966 0.00446618 0.01209354 0.00130020 
0.06048782 0.07081925 0.00338871 0.00334995 0.00141643 0.00257926 0.00711794 0.00300903 0.02767225 0.00319051 0.00141352 0.02578542 0.01260760 0.00460756 0.01247624 0.00130475 
0.06158935 0.07050433 0.00319576 0.00339601 0.00143018 0.00258566 0.00729786 0.00310922 0.02843325 0.00320228 0.00141099 0.02729885 0.01260214 0.00475710 0.01285916 0.00130960 
0.06273289 0.07017989 0.00302653 0.00344136 0.00144429 0.00259199 0.00747857 0.00321327 0.02918232 0.00321184 0.00140931 0.02896954 0.01259300 0.00491448 0.01324066 0.00131467 
0.06391522 0.06984595 0.00288132 0.00348573 0.00145868 0.00259822 0.00765928 0.00332082 0.02991686 0.00321911 0.00140849 0.03079321 0.01257987 0.00507931 0.01361909 0.00131991 
0.06513287 0.06950253 0.00276028 0.00352883 0.00147330 0.00260432 0.00783918 0.00343152 0.03063436 0.00322404 0.00140853 0.03276486 0.01256246 0.00525119 0.01399285 0.00132523 
0.06638212 0.06914959 0.00266352 0.00357039 0.00148806 0.00261026 0.00801746 0.00354497 0.03133235 0.00322659 0.00140940 0.03487887 0.01254046 0.00542967 0.01436038 0.00133058 
0.06765903 0.06878706 0.00259100 0.00361017 0.00150288 0.00261600 0.00819330 0.00366078 0.03200848 0.00322673 0.00141109 0.03712893 0.01251359 0.00561428 0.01472013 0.00133588 
0.06895946 0.06841482 0.00254264 0.00364791 0.00151768 0.00262151 0.00836587 0.00377854 0.03266044 0.00322443 0.00141357 0.03950813 0.01248157 0.00580449 0.01507064 0.00134107 
0.07027907 0.06803275 0.00251824 0.00368339 0.00153236 0.00262676 0.00853434 0.00389785 0.03328606 0.00321967 0.00141681 0.04200894 0.01244413 0.00599976 0.01541048 0.00134607 
0.07161334 0.06764066 0.00251751 0.00371642 0.00154685 0.00263171 0.00869793 0.00401826 0.03388324 0.00321246 0.00142077 0.04462330 0.01240102 0.00619953 0.01573829 0.00135082 
0.07295757 0.06723838 0.00254009 0.00374679 0.00156105 0.00263633 0.00885583 0.00413935 0.03445002 0.00320280 0.00142540 0.04734260 0.01235200 0.00640318 0.01605280 0.00135526 
0.07430697 0.06682570 0.00258553 0.00377434 0.00157486 0.00264060 0.00900726 0.00426068 0.03498453 0.00319071 0.00143065 0.05015775 0.01229686 0.00661010 0.01635278 0.00135933 
0.07565659 0.06640239 0.00265328 0.00379892 0.00158819 0.00264448 0.00915147 0.00438181 0.03548504 0.00317623 0.00143645 0.05305920 0.01223541 0.00681965 0.01663710 0.00136297 
0.07700139 0.06596822 0.00274275 0.00382041 0.00160094 0.00264793 0.00928774 0.00450230 0.03594997 0.00315939 0.00144276 0.05603701 0.01216751 0.00703115 0.01690471 0.00136613 
0.07833628 0.06552295 0.00285324 0.00383870 0.00161302 0.00265093 0.00941538 0.00462171 0.03637786 0.00314024 0.00144950 0.05908087 0.01209302 0.00724393 0.01715466 0.00136875 
0.07965610 0.06506634 0.00298400 0.00385373 0.00162432 0.00265346 0.00953373 0.00473960 0.03676738 0.00311885 0.00145660 0.06218016 0.01201185 0.00745729 0.01738607 0.00137079 
0.08095566 0.06459816 0.00313421 0.00386543 0.00163476 0.00265547 0.00964218 0.00485555 0.03711737 0.00309531 0.00146400 0.06532399 0.01192393 0.00767052 0.01759818 0.00137222 
0.08222980 0.06411819 0.00330299 0.00387377 0.00164425 0.00265695 0.00974016 0.00496914 0.03742681 0.00306968 0.00147161 0.06850127 0.01182927 0.00788291 0.01779029 0.00137298 
0.08347335 0.06362621 0.00348939 0.00387875 0.00165268 0.00265787 0.00982714 0.00507997 0.03769486 0.00304207 0.00147935 0.07170076 0.01172786 0.00809375 0.01796185 0.00137305 
0.08468120 0.06312204 0.00369242 0.00388039 0.00165998 0.00265820 0.00990267 0.00518763 0.03792080 0.00301258 0.00148716 0.07491109 0.01161979 0.00830231 0.01811236 0.00137241 
0.08584833 0.06260550 0.00391104 0.00387873 0.00166606 0.00265792 0.00996633 0.00529174 0.03810410 0.00298132 0.00149495 0.07812085 0.01150515 0.00850787 0.01824146 0.00137102 
0.08696980 0.06207648 0.00414417 0.00387384 0.00167085 0.00265701 0.01001776 0.00539195 0.03824438 0.00294843 0.00150264 0.08131866 0.01138410 0.00870971 0.01834887 0.00136889 
0.08804082 0.06153485 0.00439067 0.00386582 0.00167426 0.00265545 0.01005668 0.00548792 0.03834143 0.00291403 0.00151016 0.08449317 0.01125684 0.00890713 0.01843442 0.00136599 
0.08905672 0.06098057 0.00464941 0.00385477 0.00167624 0.00265321 0.01008286 0.00557931 0.03839522 0.00287825 0.00151742 0.08763317 0.01112361 0.00909943 0.01849804 0.00136232 
0.09001303 0.06041361 0.00491918 0.00384083 0.00167673 0.00265029 0.01009614 0.00566584 0.03840585 0.00284126 0.00152437 0.09072760 0.01098471 0.00928593 0.01853975 0.00135788 
0.09090547 0.05983399 0.00519878 0.00382417 0.00167566 0.00264668 0.01009642 0.00574722 0.03837362 0.00280319 0.00153091 0.09376565 0.01084047 0.00946595 0.01855968 0.00135268 
0.09172998 0.05924179 0.00548698 0.00380494 0.00167298 0.00264235 0.01008368 0.00582322 0.03829898 0.00276421 0.00153699 0.09673678 0.01069126 0.00963884 0.01855806 0.00134674 
0.09248275 0.05863714 0.00578255 0.00378336 0.00166867 0.00263731 0.01005797 0.00589360 0.03818254 0.00272448 0.00154254 0.09963080 0.01053753 0.00980400 0.01853520 0.00134006 
0.09316022 0.05802022 0.00608423 0.00375964 0.00166269 0.00263155 0.01001939 0.00595818 0.03802508 0.00268417 0.00154751 0.10243789 0.01037974 0.00996080 0.01849150 0.00133267 
0.09375914 0.05739127 0.00639078 0.00373399 0.00165502 0.00262508 0.00996815 0.00601681 0.03782752 0.00264343 0.00155183 0.10514866 0.01021840 0.01010868 0.01842747 0.00132460 
0.09427653 0.05675061 0.00670094 0.00370667 0.00164563 0.00261788 0.00990448 0.00606934 0.03759096 0.00260245 0.00155545 0.10775421 0.01005407 0.01024710 0.01834367 0.00131589 
0.09470976 0.05609859 0.00701346 0.00367793 0.00163453 0.00260998 0.00982873 0.00611569 0.03731662 0.00256139 0.00155834 0.11024618 0.00988732 0.01037556 0.01824076 0.00130656 
0.09505650 0.05543565 0.00732712 0.00364803 0.00162173 0.00260138 0.00974129 0.00615578 0.03700590 0.00252043 0.00156045 0.11261676 0.00971879 0.01049357 0.01811948 0.00129667 
0.09531480 0.05476228 0.00764069 0.00361724 0.00160723 0.00259209 0.00964261 0.00618958 0.03666031 0.00247973 0.00156176 0.11485874 0.00954912 0.01060071 0.01798062 0.00128626 
0.09548304 0.05407904 0.00795298 0.00358586 0.00159105 0.00258215 0.00953322 0.00621710 0.03628150 0.00243946 0.00156223 0.11696558 0.00937900 0.01069659 0.01782505 0.00127537 
0.09555998 0.05338657 0.00826280 0.00355415 0.00157324 0.00257156 0.00941372 0.00623836 0.03587126 0.00239980 0.00156184 0.11893140 0.00920913 0.01078085 0.01765369 0.00126406 
0.09554477 0.05268556 0.00856901 0.00352241 0.00155383 0.00256037 0.00928475 0.00625343 0.03543150 0.00236089 0.00156060 0.12075101 0.00904024 0.01085319 0.01746754 0.00125239 
0.09543690 0.05197677 0.00887048 0.00349092 0.00153287 0.00254860 0.00914702 0.00626240 0.03496423 0.00232291 0.00155849 0.12241997 0.00887307 0.01091334 0.01726762 0.00124042 
0.09523629 0.05126103 0.00916613 0.00345999 0.00151043 0.00253629 0.00900130 0.00626541 0.03447158 0.00228599 0.00155551 0.12393458 0.00870836 0.01096110 0.01705500 0.00122820 
0.09494322 0.05053923 0.00945491 0.00342988 0.00148657 0.00252348 0.00884839 0.00626261 0.03395576 0.00225029 0.00155168 0.12529192 0.00854688 0.01099630 0.01683081 0.00121581 
0.09455835 0.04981233 0.00973582 0.00340087 0.00146137 0.00251023 0.00868915 0.00625419 0.03341909 0.00221594 0.00154702 0.12648981 0.00838939 0.01101881 0.01659618 0.00120330 
0.09408272 0.04908136 0.01000787 0.00337325 0.00143492 0.00249658 0.00852448 0.00624037 0.03286395 0.00218308 0.00154154 0.12752690 0.00823664 0.01102859 0.01635229 0.00119075 
0.09351776 0.04834739 0.01027015 0.00334727 0.00140732 0.00248259 0.00835531 0.00622138 0.03229281 0.00215183 0.00153528 0.12840261 0.00808939 0.01102559 0.01610033 0.00117822 
0.09286525 0.04761157 0.01052179 0.00332318 0.00137866 0.00246832 0.00818262 0.00619750 0.03170818 0.00212229 0.00152828 0.12911715 0.00794837 0.01100988 0.01584151 0.00116577 
0.09212734 0.04687510 0.01076196 0.00330123 0.00134905 0.00245384 0.00800740 0.00616901 0.03111263 0.00209458 0.00152059 0.12967152 0.00781430 0.01098151 0.01557706 0.00115347 
0.09130651 0.04613925 0.01098988 0.00328165 0.00131861 0.00243921 0.00783066 0.00613623 0.03050877 0.00206879 0.00151225 0.13006749 0.00768788 0.01094064 0.01530818 0.00114139 
0.09040559 0.04540531 0.01120482 0.00326464 0.00128747 0.00242451 0.00765344 0.00609948 0.02989924 0.00204499 0.00150332 0.13030759 0.00756977 0.01088744 0.01503609 0.00112960 
0.08942770 0.04467467 0.01140613 0.00325039 0.00125574 0.00240981 0.00747679 0.00605912 0.02928668 0.00202326 0.00149386 0.13039509 0.00746062 0.01082214 0.01476202 0.00111816 
0.08837627 0.04394873 0.01159318 0.00323910 0.00122355 0.00239518 0.00730176 0.00601551 0.02867375 0.00200366 0.00148395 0.13033400 0.00736101 0.01074503 0.01448715 0.00110712 
0.08725500 0.04322896 0.01176541 0.00323090 0.00119105 0.00238072 0.00712939 0.00596903 0.02806310 0.00198624 0.00147365 0.13012901 0.00727152 0.01065643 0.01421267 0.00109656 
0.08606787 0.04251687 0.01192231 0.00322595 0.00115836 0.00236650 0.00696072 0.00592005 0.02745738 0.00197103 0.00146304 0.12978546 0.00719264 0.01055672 0.01393973 0.00108652 
0.08481906 0.04181401 0.01206343 0.00322435 0.00112563 0.00235260 0.00679680 0.00586897 0.02685919 0.00195805 0.00145220 0.12930934 0.00712486 0.01044630 0.01366947 0.00107706 
0.08351298 0.04112199 0.01218838 0.00322621 0.00109299 0.00233910 0.00663863 0.00581620 0.02627110 0.00194733 0.00144121 0.12870724 0.00706856 0.01032564 0.01340297 0.00106823 
0.08215420 0.04044243 0.01229681 0.00323158 0.00106059 0.00232610 0.00648721 0.00576212 0.02569563 0.00193885 0.00143016 0.12798627 0.00702412 0.01019523 0.01314130 0.00106009 
0.08074748 0.03977701 0.01238844 0.00324053 0.00102857 0.00231368 0.00634349 0.00570714 0.02513523 0.00193261 0.00141913 0.12715408 0.00699181 0.01005560 0.01288548 0.00105266 
0.07929768 0.03912742 0.01246304 0.00325308 0.00099707 0.00230192 0.00620841 0.00565166 0.02459230 0.00192858 0.00140822 0.12621877 0.00697188 0.00990731 0.01263649 0.00104600 
0.07780979 0.03849541 0.01252044 0.00326922 0.00096622 0.00229090 0.00608285 0.00559607 0.02406913 0.00192674 0.00139751 0.12518884 0.00696449 0.00975097 0.01239525 0.00104014 
0.07628884 0.03788273 0.01256050 0.00328895 0.00093616 0.00228070 0.00596764 0.00554075 0.02356794 0.00192703 0.00138709 0.12407317 0.00696975 0.00958721 0.01216263 0.00103511 
0.07473993 0.03729118 0.01258316 0.00331221 0.00090701 0.00227140 0.00586360 0.00548608 0.02309083 0.00192939 0.00137705 0.12288093 0.00698767 0.00941667 0.01193946 0.00103093 
0.07316817 0.03672256 0.01258839 0.00333894 0.00087892 0.00226306 0.00577145 0.00543242 0.02263981 0.00193377 0.00136748 0.12162157 0.00701824 0.00924004 0.01172652 0.00102763 
0.07157865 0.03617870 0.01257624 0.00336905 0.00085199 0.00225577 0.00569187 0.00538012 0.02221674 0.00194008 0.00135846 0.12030470 0.00706134 0.00905801 0.01152450 0.00102522 
0.06997642 0.03566144 0.01254676 0.00340242 0.00082635 0.00224958 0.00562547 0.00532952 0.02182337 0.00194825 0.00135008 0.11894010 0.00711681 0.00887129 0.01133405 0.00102372 
0.06836648 0.03517265 0.01250011 0.00343893 0.00080210 0.00224455 0.00557282 0.00528092 0.02146132 0.00195818 0.00134241 0.11753763 0.00718439 0.00868062 0.01115578 0.00102313 
0.06675371 0.03471417 0.01243643 0.00347843 0.00077935 0.00224073 0.00553439 0.00523462 0.02113203 0.00196977 0.00133555 0.11610716 0.00726378 0.00848672 0.01099019 0.00102345 
0.06514287 0.03428787 0.01235597 0.00352073 0.00075819 0.00223817 0.00551058 0.00519089 0.02083684 0.00198291 0.00132955 0.11465855 0.00735460 0.00829034 0.01083775 0.00102468 
0.06353859 0.03389562 0.01225898 0.00356564 0.00073870 0.00223691 0.00550173 0.00514999 0.02057689 0.00199749 0.00132449 0.11320154 0.00745641 0.00809223 0.01069887 0.00102682 
0.06194530 0.03353927 0.01214576 0.00361297 0.00072097 0.00223698 0.00550808 0.00511214 0.02035317 0.00201339 0.00132043 0.11174577 0.00756871 0.00789313 0.01057387 0.00102984 
0.06036725 0.03322066 0.01201667 0.00366248 0.00070506 0.00223840 0.00552982 0.00507754 0.02016653 0.00203050 0.00131744 0.11030063 0.00769092 0.00769378 0.01046303 0.00103374 
0.05880848 0.03294162 0.01187209 0.00371394 0.00069104 0.00224119 0.00556703 0.00504637 0.02001761 0.00204868 0.00131556 0.10887531 0.00782243 0.00749493 0.01036655 0.00103849 
0.05727279 0.03270395 0.01171245 0.00376708 0.00067894 0.00224534 0.00561972 0.00501879 0.01990690 0.00206781 0.00131485 0.10747865 0.00796257 0.00729730 0.01028459 0.00104406 
0.05576371 0.03250941 0.01153823 0.00382166 0.00066880 0.00225086 0.00568782 0.00499490 0.01983471 0.00208776 0.00131534 0.10611916 0.00811060 0.00710159 0.01021722 0.00105043 
0.05428452 0.03235973 0.01134991 0.00387738 0.00066067 0.00225773 0.00577118 0.00497481 0.01980117 0.00210840 0.00131707 0.10480495 0.00826575 0.00690852 0.01016447 0.00105755 
0.05283821 0.03225660 0.01114804 0.00393398 0.00065455 0.00226593 0.00586954 0.00495860 0.01980625 0.00212960 0.00132007 0.10354368 0.00842722 0.00671874 0.01012630 0.00106540 
0.05142748 0.03220165 0.01093320 0.00399115 0.00065044 0.00227542 0.00598261 0.00494630 0.01984973 0.00215124 0.00132436 0.10234253 0.00859416 0.00653291 0.01010263 0.00107392 
0.05005471 0.03219644 0.01070599 0.00404860 0.00064836 0.00228617 0.00610997 0.00493793 0.01993122 0.00217317 0.00132995 0.10120813 0.00876568 0.00635168 0.01009331 0.00108308 
0.04872199 0.03224247 0.01046705 0.00410603 0.00064827 0.00229812 0.00625114 0.00493349 0.02005016 0.00219529 0.00133686 0.10014660 0.00894088 0.00617562 0.01009815 0.00109283 
0.04743109 0.03234114 0.01021705 0.00416313 0.00065016 0.00231120 0.00640558 0.00493295 0.02020582 0.00221747 0.00134508 0.09916342 0.00911884 0.00600532 0.01011689 0.00110312 
0.04618344 0.03249378 0.00995671 0.00421962 0.00065399 0.00232534 0.00657265 0.00493625 0.02039730 0.00223959 0.00135461 0.09826349 0.00929862 0.00584131 0.01014923 0.00111389 
0.04498018 0.03270161 0.00968675 0.00427517 0.00065972 0.00234048 0.00675165 0.00494331 0.02062355 0.00226155 0.00136544 0.09745105 0.00947926 0.00568410 0.01019485 0.00112509 
0.04382212 0.03296573 0.00940794 0.00432950 0.00066728 0.00235650 0.00694182 0.00495404 0.02088338 0.00228323 0.00137754 0.09672969 0.00965982 0.00553415 0.01025336 0.00113667 
0.04270976 0.03328714 0.00912107 0.00438230 0.00067662 0.00237332 0.00714233 0.00496832 0.02117541 0.00230456 0.00139090 0.09610232 0.00983934 0.00539189 0.01032433 0.00114857 
0.04164330 0.03366668 0.00882696 0.00443330 0.00068767 0.00239084 0.00735228 0.00498603 0.02149817 0.00232542 0.00140547 0.09557117 0.01001688 0.00525770 0.01040732 0.00116074 
0.04062265 0.03410506 0.00852646 0.00448221 0.00070033 0.00240893 0.00757075 0.00500700 0.02185002 0.00234574 0.00142123 0.09513776 0.01019151 0.00513195 0.01050183 0.00117311 
0.03964743 0.03460284 0.00822045 0.00452875 0.00071452 0.00242748 0.00779672 0.00503108 0.02222921 0.00236544 0.00143812 0.09480295 0.01036234 0.00501493 0.01060734 0.00118563 
0.03871697 0.03516040 0.00790982 0.00457268 0.00073014 0.00244637 0.00802918 0.00505809 0.02263388 0.00238446 0.00145611 0.09456688 0.01052847 0.00490690 0.01072332 0.00119824 
0.03783038 0.03577795 0.00759550 0.00461373 0.00074708 0.00246546 0.00826703 0.00508784 0.02306205 0.00240275 0.00147513 0.09442902 0.01068907 0.00480810 0.01084918 0.00121089 
0.03698652 0.03645551 0.00727843 0.00465169 0.00076525 0.00248462 0.00850917 0.00512014 0.02351166 0.00242024 0.00149512 0.09438815 0.01084331 0.00471868 0.01098434 0.00122352 
0.03618402 0.03719292 0.00695960 0.00468632 0.00078451 0.00250371 0.00875445 0.00515479 0.02398056 0.00243690 0.00151603 0.09444239 0.01099043 0.00463879 0.01112820 0.00123607 
0.03542131 0.03798979 0.00663998 0.00471742 0.00080474 0.00252260 0.00900173 0.00519158 0.02446651 0.00245271 0.00153779 0.09458925 0.01112970 0.00456850 0.01128014 0.00124850 
0.03469666 0.03884552 0.00632061 0.00474481 0.00082583 0.00254114 0.00924982 0.00523031 0.02496722 0.00246765 0.00156034 0.09482558 0.01126045 0.00450788 0.01143953 0.00126074 
0.03400817 0.03975930 0.00600249 0.00476832 0.00084764 0.00255919 0.00949753 0.00527077 0.02548035 0.00248169 0.00158358 0.09514765 0.01138206 0.00445692 0.01160573 0.00127276 
0.03335381 0.04073007 0.00568669 0.00478780 0.00087003 0.00257662 0.00974368 0.00531274 0.02600351 0.00249485 0.00160747 0.09555119 0.01149399 0.00441558 0.01177809 0.00128451 
0.03273144 0.04175654 0.00537427 0.00480312 0.00089288 0.00259327 0.00998708 0.00535604 0.02653428 0.00250713 0.00163190 0.09603136 0.01159572 0.00438378 0.01195599 0.00129594 
0.03213886 0.04283718 0.00506631 0.00481418 0.00091605 0.00260903 0.01022655 0.00540045 0.02707021 0.00251855 0.00165682 0.09658287 0.01168684 0.00436140 0.01213876 0.00130702 
0.03157377 0.04397022 0.00476389 0.00482089 0.00093941 0.00262376 0.01046093 0.00544579 0.02760887 0.00252913 0.00168214 0.09719994 0.01176698 0.00434829 0.01232579 0.00131769 
0.03103388 0.04515361 0.00446811 0.00482318 0.00096281 0.00263732 0.01068908 0.00549188 0.02814781 0.00253891 0.00170778 0.09787640 0.01183586 0.00434424 0.01251643 0.00132794 
0.03051686 0.04638507 0.00418009 0.00482102 0.00098612 0.00264961 0.01090988 0.00553853 0.02868459 0.00254794 0.00173367 0.09860569 0.01189326 0.00434903 0.01271007 0.00133773 
0.03002042 0.04766207 0.00390093 0.00481439 0.00100922 0.00266051 0.01112227 0.00558558 0.02921681 0.00255626 0.00175972 0.09938095 0.01193905 0.00436240 0.01290610 0.00134703 
0.02954230 0.04898181 0.00363174 0.00480329 0.00103196 0.00266991 0.01132518 0.00563289 0.02974210 0.00256393 0.00178586 0.10019503 0.01197314 0.00438404 0.01310392 0.00135581 
0.02908032 0.05034125 0.00337364 0.00478776 0.00105422 0.00267772 0.01151764 0.00568031 0.03025813 0.00257101 0.00181201 0.10104056 0.01199556 0.00441365 0.01330295 0.00136407 
0.02863238 0.05173710 0.00312772 0.00476785 0.00107589 0.00268385 0.01169869 0.00572771 0.03076263 0.00257758 0.00183809 0.10191000 0.01200639 0.00445086 0.01350264 0.00137177 
0.02819650 0.05316585 0.00289509 0.00474363 0.00109683 0.00268823 0.01186744 0.00577498 0.03125339 0.00258370 0.00186405 0.10279567 0.01200579 0.00449531 0.01370244 0.00137890 
0.02777082 0.05462373 0.00267683 0.00471521 0.00111693 0.00269079 0.01202307 0.00582202 0.03172827 0.00258946 0.00188979 0.10368984 0.01199398 0.00454661 0.01390185 0.00138546 
0.02735363 0.05610677 0.00247401 0.00468271 0.00113609 0.00269148 0.01216479 0.00586875 0.03218523 0.00259494 0.00191526 0.10458475 0.01197129 0.00460433 0.01410036 0.00139144 
0.02694343 0.05761077 0.00228768 0.00464629 0.00115421 0.00269026 0.01229192 0.00591509 0.03262228 0.00260021 0.00194040 0.10547266 0.01193808 0.00466804 0.01429752 0.00139683 
0.02653885 0.05913135 0.00211886 0.00460610 0.00117117 0.00268711 0.01240382 0.00596099 0.03303757 0.00260538 0.00196514 0.10634593 0.01189479 0.00473732 0.01449289 0.00140165 
0.02613877 0.06066394 0.00196854 0.00456234 0.00118691 0.00268201 0.01249995 0.00600641 0.03342933 0.00261052 0.00198942 0.10719704 0.01184194 0.00481169 0.01468606 0.00140588 
0.02574226 0.06220380 0.00183770 0.00451523 0.00120133 0.00267497 0.01257982 0.00605132 0.03379589 0.00261572 0.00201320 0.10801866 0.01178010 0.00489069 0.01487665 0.00140954 
0.02534862 0.06374604 0.00172725 0.00446500 0.00121436 0.00266599 0.01264304 0.00609570 0.03413572 0.00262107 0.00203641 0.10880369 0.01170989 0.00497387 0.01506433 0.00141263 
0.02495738 0.06528566 0.00163808 0.00441190 0.00122594 0.00265511 0.01268929 0.00613954 0.03444738 0.00262666 0.00205901 0.10954530 0.01163200 0.00506074 0.01524876 0.00141518 
0.02456833 0.06681752 0.00157102 0.00435621 0.00123600 0.00264237 0.01271835 0.00618286 0.03472957 0.00263257 0.00208097 0.11023698 0.01154717 0.00515083 0.01542968 0.00141719 
0.02418149 0.06833642 0.00152686 0.00429822 0.00124450 0.00262784 0.01273007 0.00622568 0.03498112 0.00263888 0.00210224 0.11087260 0.01145616 0.00524367 0.01560685 0.00141869 
0.02379712 0.06983708 0.00150631 0.00423823 0.00125139 0.00261157 0.01272439 0.00626801 0.03520098 0.00264566 0.00212279 0.11144640 0.01135980 0.00533881 0.01578004 0.00141970 
0.02341575 0.07131421 0.00151004 0.00417657 0.00125665 0.00259366 0.01270134 0.00630989 0.03538823 0.00265299 0.00214258 0.11195310 0.01125893 0.00543577 0.01594909 0.00142023 
0.02303813 0.07276248 0.00153864 0.00411357 0.00126025 0.00257420 0.01266102 0.00635137 0.03554209 0.00266094 0.00216159 0.11238785 0.01115445 0.00553411 0.01611385 0.00142032 
0.02266527 0.07417659 0.00159264 0.00404959 0.00126218 0.00255331 0.01260364 0.00639247 0.03566192 0.00266956 0.00217980 0.11274634 0.01104725 0.00563338 0.01627423 0.00141999 
0.02229840 0.07555127 0.00167249 0.00398498 0.00126243 0.00253111 0.01252947 0.00643326 0.03574720 0.00267891 0.00219719 0.11302477 0.01093827 0.00573317 0.01643015 0.00141926 
0.02193899 0.07688135 0.00177855 0.00392012 0.00126100 0.00250773 0.01243887 0.00647378 0.03579756 0.00268904 0.00221374 0.11321990 0.01082843 0.00583306 0.01658157 0.00141818 
0.02158870 0.07816171 0.00191110 0.00385538 0.00125791 0.00248331 0.01233229 0.00651409 0.03581275 0.00269998 0.00222944 0.11332908 0.01071869 0.00593267 0.01672851 0.00141677 
0.02124941 0.07938741 0.00207034 0.00379115 0.00125317 0.00245802 0.01221024 0.00655422 0.03579267 0.00271177 0.00224428 0.11335022 0.01060998 0.00603160 0.01687099 0.00141506 
0.02092317 0.08055363 0.00225636 0.00372781 0.00124682 0.00243201 0.01207332 0.00659422 0.03573734 0.00272443 0.00225826 0.11328189 0.01050324 0.00612951 0.01700909 0.00141308 
0.02061222 0.08165573 0.00246918 0.00366577 0.00123890 0.00240545 0.01192219 0.00663413 0.03564692 0.00273798 0.00227137 0.11312322 0.01039939 0.00622606 0.01714290 0.00141087 
0.02031893 0.08268930 0.00270869 0.00360541 0.00122943 0.00237852 0.01175758 0.00667399 0.03552168 0.00275241 0.00228361 0.11287401 0.01029936 0.00632093 0.01727255 0.00140846 
0.02004580 0.08365015 0.00297469 0.00354712 0.00121849 0.00235140 0.01158030 0.00671382 0.03536204 0.00276773 0.00229500 0.11253466 0.01020401 0.00641385 0.01739821 0.00140588 
0.01979544 0.08453434 0.00326690 0.00349129 0.00120612 0.00232428 0.01139120 0.00675363 0.03516853 0.00278392 0.00230552 0.11210619 0.01011422 0.00650453 0.01752007 0.00140317 
0.01957056 0.08533825 0.00358490 0.00343831 0.00119240 0.00229734 0.01119119 0.00679344 0.03494179 0.00280095 0.00231520 0.11159026 0.01003080 0.00659273 0.01763834 0.00140035 
0.01937391 0.08605852 0.00392817 0.00338855 0.00117739 0.00227078 0.01098123 0.00683323 0.03468258 0.00281880 0.00232403 0.11098911 0.00995453 0.00667825 0.01775326 0.00139746 
0.01920828 0.08669214 0.00429610 0.00334239 0.00116118 0.00224479 0.01076234 0.00687298 0.03439179 0.00283742 0.00233204 0.11030561 0.00988617 0.00676087 0.01786509 0.00139453 
0.01907649 0.08723646 0.00468796 0.00330017 0.00114384 0.00221956 0.01053556 0.00691267 0.03407039 0.00285676 0.00233923 0.10954317 0.00982640 0.00684043 0.01797412 0.00139159 
0.01898132 0.08768917 0.00510291 0.00326225 0.00112547 0.00219527 0.01030197 0.00695225 0.03371945 0.00287675 0.00234562 0.10870580 0.00977585 0.00691678 0.01808065 0.00138867 
0.01892553 0.08804834 0.00554000 0.00322895 0.00110615 0.00217211 0.01006270 0.00699164 0.03334016 0.00289733 0.00235122 0.10779801 0.00973511 0.00698981 0.01818499 0.00138580 
0.01891180 0.08831245 0.00599819 0.00320059 0.00108600 0.00215026 0.00981886 0.00703077 0.03293378 0.00291842 0.00235606 0.10682484 0.00970470 0.00705940 0.01828747 0.00138299 
0.01894270 0.08848036 0.00647632 0.00317746 0.00106510 0.00212988 0.00957162 0.00706954 0.03250167 0.00293992 0.00236014 0.10579182 0.00968508 0.00712549 0.01838842 0.00138028 
0.01902072 0.08855136 0.00697314 0.00315985 0.00104356 0.00211115 0.00932215 0.00710783 0.03204526 0.00296176 0.00236349 0.10470491 0.00967664 0.00718802 0.01848820 0.00137769 
0.01914818 0.08852514 0.00748730 0.00314799 0.00102149 0.00209422 0.00907161 0.00714552 0.03156607 0.00298382 0.00236612 0.10357049 0.00967970 0.00724695 0.01858714 0.00137524 
0.01932722 0.08840181 0.00801735 0.00314212 0.00099901 0.00207924 0.00882119 0.00718245 0.03106565 0.00300599 0.00236806 0.10239531 0.00969450 0.00730227 0.01868559 0.00137295 
0.01955979 0.08818190 0.00856177 0.00314245 0.00097620 0.00206634 0.00857203 0.00721846 0.03054567 0.00302817 0.00236933 0.10118646 0.00972123 0.00735398 0.01878390 0.00137083 
0.01984765 0.08786636 0.00911893 0.00314915 0.00095320 0.00205565 0.00832530 0.00725337 0.03000781 0.00305024 0.00236993 0.09995135 0.00975999 0.00740212 0.01888240 0.00136891 
0.02019227 0.08745656 0.00968714 0.00316237 0.00093011 0.00204728 0.00808214 0.00728697 0.02945381 0.00307206 0.00236990 0.09869760 0.00981081 0.00744670 0.01898143 0.00136719 
0.02059490 0.08695425 0.01026463 0.00318224 0.00090705 0.00204133 0.00784366 0.00731906 0.02888548 0.00309352 0.00236926 0.09743306 0.00987363 0.00748780 0.01908129 0.00136568 
0.02105650 0.08636159 0.01084957 0.00320884 0.00088412 0.00203788 0.00761094 0.00734940 0.02830463 0.00311448 0.00236802 0.09616575 0.00994835 0.00752548 0.01918229 0.00136440 
0.02157772 0.08568112 0.01144007 0.00324223 0.00086144 0.00203700 0.00738504 0.00737775 0.02771314 0.00313481 0.00236620 0.09490379 0.01003476 0.00755981 0.01928471 0.00136336 
0.02215891 0.08491573 0.01203418 0.00328244 0.00083912 0.00203874 0.00716697 0.00740386 0.02711287 0.00315438 0.00236382 0.09365535 0.01013259 0.00759089 0.01938881 0.00136255 
0.02280009 0.08406868 0.01262994 0.00332946 0.00081726 0.00204314 0.00695770 0.00742746 0.02650573 0.00317306 0.00236091 0.09242866 0.01024152 0.00761882 0.01949482 0.00136199 
0.02350093 0.08314354 0.01322531 0.00338325 0.00079598 0.00205023 0.00675815 0.00744829 0.02589364 0.00319071 0.00235749 0.09123188 0.01036114 0.00764370 0.01960294 0.00136167 
0.02426079 0.08214419 0.01381827 0.00344374 0.00077536 0.00206001 0.00656918 0.00746607 0.02527850 0.00320721 0.00235356 0.09007311 0.01049096 0.00766564 0.01971335 0.00136160 
0.02507863 0.08107482 0.01440676 0.00351083 0.00075552 0.00207247 0.00639161 0.00748051 0.02466225 0.00322242 0.00234917 0.08896031 0.01063047 0.00768477 0.01982619 0.00136176 
0.02595309 0.07993983 0.01498871 0.00358436 0.00073654 0.00208758 0.00622620 0.00749132 0.02404677 0.00323622 0.00234431 0.08790127 0.01077905 0.00770120 0.01994157 0.00136217 
0.02688242 0.07874388 0.01556207 0.00366417 0.00071853 0.00210531 0.00607361 0.00749821 0.02343397 0.00324849 0.00233903 0.08690357 0.01093605 0.00771507 0.02005955 0.00136280 
0.02786453 0.07749185 0.01612479 0.00375004 0.00070156 0.00212558 0.00593449 0.00750091 0.02282570 0.00325912 0.00233333 0.08597450 0.01110078 0.00772648 0.02018017 0.00136367 
0.02889697 0.07618876 0.01667487 0.00384174 0.00068572 0.00214833 0.00580937 0.00749913 0.02222381 0.00326800 0.00232724 0.08512104 0.01127248 0.00773557 0.02030341 0.00136475 
0.02997692 0.07483980 0.01721030 0.00393899 0.00067109 0.00217347 0.00569873 0.00749260 0.02163011 0.00327503 0.00232078 0.08434983 0.01145035 0.00774245 0.02042922 0.00136603 
0.03110124 0.07345027 0.01772915 0.00404148 0.00065774 0.00220089 0.00560298 0.00748105 0.02104635 0.00328010 0.00231398 0.08366711 0.01163356 0.00774725 0.02055750 0.00136752 
0.03226644 0.07202555 0.01822954 0.00414889 0.00064574 0.00223049 0.00552244 0.00746422 0.02047424 0.00328315 0.00230685 0.08307865 0.01182124 0.00775007 0.02068811 0.00136918 
0.03346872 0.07057109 0.01870962 0.00426084 0.00063515 0.00226212 0.00545736 0.00744189 0.01991546 0.00328409 0.00229942 0.08258980 0.01201249 0.00775104 0.02082088 0.00137101 
0.03470396 0.06909236 0.01916766 0.00437694 0.00062602 0.00229565 0.00540793 0.00741382 0.01937159 0.00328286 0.00229172 0.08220536 0.01220639 0.00775024 0.02095556 0.00137300 
0.03596776 0.06759482 0.01960197 0.00449678 0.00061840 0.00233092 0.00537423 0.00737982 0.01884417 0.00327940 0.00228377 0.08192962 0.01240201 0.00774778 0.02109190 0.00137513 
0.03725545 0.06608390 0.02001097 0.00461991 0.00061235 0.00236778 0.00535628 0.00733971 0.01833467 0.00327368 0.00227560 0.08176628 0.01259840 0.00774375 0.02122957 0.00137738 
0.03856211 0.06456500 0.02039319 0.00474588 0.00060788 0.00240605 0.00535401 0.00729334 0.01784447 0.00326565 0.00226723 0.08171847 0.01279460 0.00773823 0.02136823 0.00137973 
0.03988259 0.06304338 0.02074723 0.00487419 0.00060503 0.00244556 0.00536730 0.00724058 0.01737488 0.00325531 0.00225870 0.08178869 0.01298967 0.00773129 0.02150748 0.00138217 
0.04121156 0.06152424 0.02107182 0.00500434 0.00060383 0.00248611 0.00539593 0.00718134 0.01692710 0.00324264 0.00225003 0.08197881 0.01318264 0.00772301 0.02164689 0.00138468 
0.04254349 0.06001262 0.02136584 0.00513583 0.00060428 0.00252753 0.00543961 0.00711556 0.01650228 0.00322766 0.00224125 0.08229005 0.01337260 0.00771342 0.02178599 0.00138724 
0.04387274 0.05851340 0.02162824 0.00526811 0.00060641 0.00256961 0.00549798 0.00704321 0.01610143 0.00321038 0.00223240 0.08272297 0.01355860 0.00770260 0.02192429 0.00138983 
0.04519352 0.05703129 0.02185814 0.00540066 0.00061020 0.00261216 0.00557061 0.00696432 0.01572549 0.00319083 0.00222351 0.08327746 0.01373976 0.00769056 0.02206125 0.00139243 
0.04650000 0.05557081 0.02205478 0.00553291 0.00061567 0.00265499 0.00565700 0.00687893 0.01537528 0.00316907 0.00221461 0.08395275 0.01391520 0.00767736 0.02219632 0.00139502 
