0.01770971 0.02748374 0.00572044 0.00290216 0.00686630 0.00160456 0.00403920 0.00741349 0.03105851 0.00692148 0.01027224 0.00121689 0.01036736 0.02201271 0.00975846 0.00084169 
0.01774037 0.02747479 0.00568643 0.00285619 0.00680935 0.00160463 0.00406301 0.00731742 0.02954746 0.00706422 0.01019764 0.00123471 0.01023080 0.02240186 0.00975124 0.00082714 
0.01774775 0.02743207 0.00565238 0.00280881 0.00675433 0.00160474 0.00408894 0.00721586 0.02804008 0.00720333 0.01013182 0.00125263 0.01008237 0.02278527 0.00974712 0.00081233 
0.01773183 0.02735550 0.00561827 0.00276016 0.00670168 0.00160493 0.00411703 0.00710915 0.02654168 0.00733838 0.01007506 0.00127060 0.00992292 0.02316007 0.00974566 0.00079730 
0.01769266 0.02724513 0.00558407 0.00271041 0.00665179 0.00160518 0.00414733 0.00699766 0.02505745 0.00746899 0.01002764 0.00128854 0.00975335 0.02352353 0.00974645 0.00078206 
0.01763040 0.02710115 0.00554974 0.00265972 0.00660504 0.00160552 0.00417994 0.00688177 0.02359239 0.00759476 0.00998981 0.00130640 0.00957462 0.02387307 0.00974907 0.00076665 
0.01754533 0.02692388 0.00551526 0.00260824 0.00656181 0.00160594 0.00421493 0.00676190 0.02215134 0.00771532 0.00996175 0.00132412 0.00938773 0.02420629 0.00975310 0.00075107 
0.01743782 0.02671376 0.00548059 0.00255613 0.00652243 0.00160647 0.00425239 0.00663849 0.02073892 0.00783033 0.00994365 0.00134163 0.00919372 0.02452096 0.00975815 0.00073535 
0.01730834 0.02647140 0.00544572 0.00250357 0.00648722 0.00160709 0.00429244 0.00651199 0.01935954 0.00793944 0.00993563 0.00135887 0.00899366 0.02481509 0.00976383 0.00071952 
0.01715746 0.02619749 0.00541061 0.00245070 0.00645646 0.00160783 0.00433519 0.00638286 0.01801734 0.00804234 0.00993780 0.00137578 0.00878866 0.02508686 0.00976979 0.00070360 
0.01698585 0.02589289 0.00537525 0.00239768 0.00643040 0.00160868 0.00438075 0.00625159 0.01671622 0.00813874 0.00995021 0.00139232 0.00857982 0.02533471 0.00977568 0.00068762 
0.01679426 0.02555855 0.00533962 0.00234468 0.00640928 0.00160966 0.00442926 0.00611867 0.01545980 0.00822836 0.00997289 0.00140842 0.00836829 0.02555733 0.00978119 0.00067160 
0.01658354 0.02519555 0.00530370 0.00229185 0.00639326 0.00161075 0.00448085 0.00598461 0.01425141 0.00831095 0.01000582 0.00142402 0.00815519 0.02575365 0.00978604 0.00065557 
0.01635463 0.02480510 0.00526751 0.00223935 0.00638251 0.00161197 0.00453566 0.00584991 0.01309407 0.00838629 0.01004894 0.00143908 0.00794166 0.02592286 0.00978998 0.00063955 
0.01610852 0.02438849 0.00523102 0.00218732 0.00637714 0.00161331 0.00459384 0.00571507 0.01199050 0.00845417 0.01010218 0.00145355 0.00772883 0.02606443 0.00979279 0.00062359 
0.01584632 0.02394713 0.00519426 0.00213591 0.00637722 0.00161477 0.00465552 0.00558062 0.01094309 0.00851442 0.01016538 0.00146738 0.00751780 0.02617809 0.00979430 0.00060769 
0.01556916 0.02348253 0.00515724 0.00208527 0.00638279 0.00161635 0.00472085 0.00544705 0.00995392 0.00856688 0.01023839 0.00148053 0.00730966 0.02626386 0.00979437 0.00059191 
0.01527827 0.02299629 0.00511998 0.00203554 0.00639383 0.00161803 0.00478997 0.00531485 0.00902472 0.00861144 0.01032100 0.00149295 0.00710548 0.02632203 0.00979290 0.00057626 
0.01497492 0.02249008 0.00508251 0.00198685 0.00641030 0.00161982 0.00486302 0.00518453 0.00815693 0.00864798 0.01041295 0.00150459 0.00690627 0.02635319 0.00978985 0.00056079 
0.01466043 0.02196566 0.00504489 0.00193933 0.00643211 0.00162169 0.00494014 0.00505656 0.00735161 0.00867643 0.01051396 0.00151543 0.00671302 0.02635817 0.00978520 0.00054554 
0.01433617 0.02142485 0.00500714 0.00189310 0.00645913 0.00162364 0.00502147 0.00493140 0.00660954 0.00869674 0.01062372 0.00152542 0.00652667 0.02633810 0.00977901 0.00053053 
0.01400355 0.02086955 0.00496934 0.00184830 0.00649119 0.00162566 0.00510711 0.00480950 0.00593115 0.00870889 0.01074186 0.00153454 0.00634810 0.02629438 0.00977135 0.00051580 
0.01366399 0.02030171 0.00493155 0.00180503 0.00652808 0.00162771 0.00519720 0.00469128 0.00531657 0.00871287 0.01086798 0.00154274 0.00617815 0.02622865 0.00976236 0.00050141 
0.01331895 0.01972330 0.00489386 0.00176339 0.00656955 0.00162979 0.00529183 0.00457714 0.00476561 0.00870871 0.01100167 0.00155001 0.00601756 0.02614281 0.00975223 0.00048738 
0.01296990 0.01913636 0.00485634 0.00172350 0.00661531 0.00163187 0.00539110 0.00446747 0.00427779 0.00869646 0.01114244 0.00155631 0.00586706 0.02603899 0.00974118 0.00047377 
0.01261831 0.01854296 0.00481909 0.00168545 0.00666503 0.00163392 0.00549509 0.00436261 0.00385234 0.00867619 0.01128980 0.00156163 0.00572726 0.02591955 0.00972948 0.00046061 
0.01226567 0.01794517 0.00478222 0.00164933 0.00671837 0.00163592 0.00560386 0.00426289 0.00348822 0.00864799 0.01144324 0.00156593 0.00559872 0.02578706 0.00971746 0.00044795 
0.01191343 0.01734509 0.00474584 0.00161521 0.00677494 0.00163783 0.00571746 0.00416859 0.00318411 0.00861198 0.01160218 0.00156921 0.00548193 0.02564428 0.00970547 0.00043585 
0.01156305 0.01674484 0.00471007 0.00158319 0.00683431 0.00163964 0.00583593 0.00407999 0.00293848 0.00856829 0.01176605 0.00157145 0.00537730 0.02549414 0.00969391 0.00042434 
0.01121598 0.01614651 0.00467504 0.00155331 0.00689603 0.00164129 0.00595927 0.00399730 0.00274955 0.00851708 0.01193423 0.00157264 0.00528514 0.02533974 0.00968323 0.00041347 
0.01087359 0.01555220 0.00464088 0.00152565 0.00695965 0.00164276 0.00608748 0.00392072 0.00261533 0.00845852 0.01210608 0.00157276 0.00520571 0.02518428 0.00967389 0.00040330 
0.01053727 0.01496399 0.00460773 0.00150025 0.00702466 0.00164401 0.00622053 0.00385041 0.00253363 0.00839281 0.01228095 0.00157181 0.00513919 0.02503111 0.00966639 0.00039387 
0.01020835 0.01438394 0.00457575 0.00147717 0.00709056 0.00164501 0.00635837 0.00378647 0.00250212 0.00832015 0.01245817 0.00156979 0.00508564 0.02488364 0.00966127 0.00038523 
0.00988808 0.01381408 0.00454507 0.00145644 0.00715683 0.00164570 0.00650092 0.00372901 0.00251827 0.00824077 0.01263703 0.00156669 0.00504510 0.02474536 0.00965907 0.00037743 
0.00957771 0.01325640 0.00451586 0.00143809 0.00722292 0.00164606 0.00664807 0.00367805 0.00257944 0.00815491 0.01281682 0.00156251 0.00501749 0.02461977 0.00966038 0.00037051 
0.00927839 0.01271284 0.00448826 0.00142215 0.00728829 0.00164603 0.00679971 0.00363362 0.00268290 0.00806282 0.01299683 0.00155726 0.00500266 0.02451042 0.00966576 0.00036454 
0.00899123 0.01218530 0.00446244 0.00140863 0.00735239 0.00164559 0.00695568 0.00359568 0.00282578 0.00796477 0.01317633 0.00155095 0.00500042 0.02442081 0.00967581 0.00035954 
0.00871724 0.01167563 0.00443855 0.00139753 0.00741468 0.00164468 0.00711580 0.00356417 0.00300517 0.00786103 0.01335458 0.00154359 0.00501047 0.02435443 0.00969114 0.00035556 
0.00845739 0.01118559 0.00441675 0.00138886 0.00747460 0.00164327 0.00727986 0.00353900 0.00321812 0.00775189 0.01353084 0.00153518 0.00503248 0.02431466 0.00971232 0.00035266 
0.00821256 0.01071691 0.00439718 0.00138261 0.00753161 0.00164131 0.00744763 0.00352002 0.00346160 0.00763765 0.01370436 0.00152574 0.00506603 0.02430484 0.00973995 0.00035086 
0.00798353 0.01027121 0.00438001 0.00137875 0.00758519 0.00163877 0.00761885 0.00350708 0.00373263 0.00751860 0.01387442 0.00151530 0.00511065 0.02432814 0.00977459 0.00035021 
0.00777103 0.00985006 0.00436537 0.00137728 0.00763481 0.00163560 0.00779322 0.00349998 0.00402819 0.00739505 0.01404029 0.00150386 0.00516585 0.02438760 0.00981679 0.00035074 
0.00757567 0.00945494 0.00435340 0.00137815 0.00767997 0.00163177 0.00797044 0.00349848 0.00434531 0.00726733 0.01420124 0.00149146 0.00523105 0.02448609 0.00986709 0.00035248 
0.00739799 0.00908724 0.00434424 0.00138132 0.00772020 0.00162724 0.00815015 0.00350233 0.00468107 0.00713575 0.01435656 0.00147812 0.00530566 0.02462628 0.00992597 0.00035546 
0.00723845 0.00874826 0.00433801 0.00138676 0.00775504 0.00162197 0.00833199 0.00351125 0.00503261 0.00700063 0.01450557 0.00146387 0.00538905 0.02481061 0.00999389 0.00035970 
0.00709739 0.00843922 0.00433482 0.00139440 0.00778405 0.00161595 0.00851556 0.00352493 0.00539713 0.00686229 0.01464760 0.00144873 0.00548055 0.02504129 0.01007127 0.00036523 
0.00697507 0.00816122 0.00433477 0.00140419 0.00780685 0.00160913 0.00870043 0.00354304 0.00577195 0.00672108 0.01478199 0.00143274 0.00557948 0.02532025 0.01015847 0.00037206 
0.00687167 0.00791529 0.00433795 0.00141606 0.00782306 0.00160150 0.00888617 0.00356524 0.00615450 0.00657731 0.01490812 0.00141594 0.00568515 0.02564914 0.01025580 0.00038019 
0.00678726 0.00770232 0.00434444 0.00142994 0.00783235 0.00159303 0.00907229 0.00359116 0.00654229 0.00643131 0.01502541 0.00139836 0.00579686 0.02602931 0.01036354 0.00038964 
0.00672184 0.00752314 0.00435431 0.00144574 0.00783443 0.00158370 0.00925832 0.00362042 0.00693303 0.00628342 0.01513329 0.00138004 0.00591390 0.02646177 0.01048186 0.00040040 
0.00667529 0.00737845 0.00436760 0.00146338 0.00782905 0.00157351 0.00944374 0.00365264 0.00732451 0.00613395 0.01523123 0.00136102 0.00603558 0.02694722 0.01061090 0.00041246 
0.00664742 0.00726884 0.00438434 0.00148277 0.00781599 0.00156245 0.00962803 0.00368741 0.00771472 0.00598323 0.01531877 0.00134135 0.00616122 0.02748600 0.01075071 0.00042582 
0.00663797 0.00719480 0.00440456 0.00150382 0.00779509 0.00155050 0.00981063 0.00372433 0.00810179 0.00583159 0.01539544 0.00132107 0.00629016 0.02807810 0.01090129 0.00044045 
0.00664656 0.00715670 0.00442824 0.00152641 0.00776623 0.00153768 0.00999099 0.00376300 0.00848401 0.00567933 0.01546085 0.00130022 0.00642175 0.02872314 0.01106254 0.00045633 
0.00667276 0.00715482 0.00445537 0.00155045 0.00772932 0.00152399 0.01016855 0.00380301 0.00885987 0.00552679 0.01551466 0.00127886 0.00655541 0.02942036 0.01123430 0.00047342 
0.00671604 0.00718932 0.00448592 0.00157584 0.00768433 0.00150944 0.01034272 0.00384395 0.00922801 0.00537426 0.01555656 0.00125704 0.00669056 0.03016864 0.01141631 0.00049170 
0.00677582 0.00726024 0.00451982 0.00160245 0.00763129 0.00149406 0.01051291 0.00388544 0.00958725 0.00522205 0.01558629 0.00123480 0.00682669 0.03096649 0.01160826 0.00051111 
0.00685142 0.00736752 0.00455701 0.00163017 0.00757025 0.00147786 0.01067854 0.00392708 0.00993661 0.00507047 0.01560366 0.00121221 0.00696334 0.03181204 0.01180973 0.00053160 
0.00694212 0.00751099 0.00459739 0.00165889 0.00750131 0.00146088 0.01083901 0.00396849 0.01027527 0.00491980 0.01560854 0.00118930 0.00710008 0.03270306 0.01202024 0.00055312 
0.00704712 0.00769036 0.00464085 0.00168849 0.00742464 0.00144315 0.01099373 0.00400932 0.01060260 0.00477035 0.01560082 0.00116615 0.00723658 0.03363696 0.01223923 0.00057561 
0.00716558 0.00790526 0.00468727 0.00171885 0.00734044 0.00142472 0.01114211 0.00404921 0.01091811 0.00462239 0.01558050 0.00114279 0.00737254 0.03461080 0.01246603 0.00059899 
0.00729660 0.00815519 0.00473649 0.00174985 0.00724894 0.00140564 0.01128357 0.00408785 0.01122154 0.00447620 0.01554759 0.00111930 0.00750774 0.03562132 0.01269995 0.00062319 
0.00743921 0.00843954 0.00478836 0.00178137 0.00715044 0.00138597 0.01141755 0.00412492 0.01151273 0.00433205 0.01550219 0.00109572 0.00764203 0.03666492 0.01294019 0.00064813 
0.00759245 0.00875761 0.00484270 0.00181330 0.00704525 0.00136577 0.01154348 0.00416015 0.01179172 0.00419021 0.01544446 0.00107212 0.00777534 0.03773771 0.01318588 0.00067373 
0.00775527 0.00910859 0.00489930 0.00184552 0.00693376 0.00134510 0.01166082 0.00419327 0.01205868 0.00405094 0.01537460 0.00104854 0.00790767 0.03883553 0.01343611 0.00069989 
0.00792662 0.00949158 0.00495797 0.00187792 0.00681635 0.00132405 0.01176906 0.00422406 0.01231393 0.00391449 0.01529288 0.00102506 0.00803910 0.03995395 0.01368989 0.00072651 
0.00810541 0.00990558 0.00501848 0.00191038 0.00669347 0.00130269 0.01186768 0.00425232 0.01255791 0.00378110 0.01519964 0.00100172 0.00816977 0.04108833 0.01394618 0.00075351 
0.00829054 0.01034949 0.00508060 0.00194281 0.00656559 0.00128112 0.01195622 0.00427787 0.01279121 0.00365101 0.01509527 0.00097859 0.00829993 0.04223379 0.01420390 0.00078077 
0.00848089 0.01082212 0.00514407 0.00197511 0.00643320 0.00125942 0.01203424 0.00430057 0.01301449 0.00352446 0.01498020 0.00095572 0.00842987 0.04338530 0.01446192 0.00080819 
0.00867534 0.01132218 0.00520865 0.00200716 0.00629682 0.00123769 0.01210131 0.00432030 0.01322854 0.00340166 0.01485496 0.00093317 0.00855998 0.04453770 0.01471909 0.00083566 
0.00887274 0.01184833 0.00527406 0.00203889 0.00615701 0.00121605 0.01215705 0.00433700 0.01343423 0.00328284 0.01472009 0.00091100 0.00869072 0.04568570 0.01497423 0.00086308 
0.00907196 0.01239910 0.00534004 0.00207022 0.00601432 0.00119459 0.01220112 0.00435062 0.01363249 0.00316820 0.01457621 0.00088926 0.00882262 0.04682393 0.01522612 0.00089033 
0.00927189 0.01297297 0.00540632 0.00210106 0.00586934 0.00117343 0.01223322 0.00436113 0.01382435 0.00305794 0.01442397 0.00086801 0.00895628 0.04794698 0.01547355 0.00091730 
0.00947141 0.01356834 0.00547260 0.00213134 0.00572266 0.00115269 0.01225307 0.00436857 0.01401085 0.00295226 0.01426408 0.00084730 0.00909235 0.04904946 0.01571532 0.00094387 
0.00966942 0.01418354 0.00553861 0.00216100 0.00557489 0.00113248 0.01226045 0.00437298 0.01419308 0.00285135 0.01409730 0.00082718 0.00923156 0.05012598 0.01595022 0.00096994 
0.00986486 0.01481683 0.00560407 0.00218999 0.00542662 0.00111293 0.01225520 0.00437443 0.01437217 0.00275537 0.01392441 0.00080772 0.00937469 0.05117123 0.01617706 0.00099540 
0.01005668 0.01546641 0.00566870 0.00221827 0.00527847 0.00109416 0.01223717 0.00437306 0.01454924 0.00266449 0.01374625 0.00078895 0.00952257 0.05218000 0.01639468 0.00102013 
0.01024386 0.01613042 0.00573223 0.00224579 0.00513105 0.00107629 0.01220629 0.00436898 0.01472542 0.00257889 0.01356367 0.00077093 0.00967608 0.05314725 0.01660196 0.00104403 
0.01042542 0.01680694 0.00579437 0.00227254 0.00498496 0.00105945 0.01216253 0.00436239 0.01490184 0.00249870 0.01337758 0.00075370 0.00983612 0.05406808 0.01679781 0.00106701 
0.01060044 0.01749402 0.00585486 0.00229848 0.00484078 0.00104377 0.01210591 0.00435347 0.01507958 0.00242407 0.01318889 0.00073731 0.01000365 0.05493782 0.01698122 0.00108896 
0.01076800 0.01818965 0.00591345 0.00232362 0.00469911 0.00102937 0.01203650 0.00434244 0.01525969 0.00235512 0.01299855 0.00072182 0.01017964 0.05575207 0.01715121 0.00110978 
0.01092728 0.01889178 0.00596990 0.00234795 0.00456050 0.00101638 0.01195441 0.00432955 0.01544320 0.00229199 0.01280750 0.00070724 0.01036508 0.05650669 0.01730691 0.00112940 
0.01107746 0.01959835 0.00602395 0.00237149 0.00442551 0.00100492 0.01185984 0.00431506 0.01563104 0.00223478 0.01261673 0.00069364 0.01056097 0.05719787 0.01744750 0.00114772 
0.01121782 0.02030725 0.00607540 0.00239425 0.00429465 0.00099510 0.01175300 0.00429926 0.01582411 0.00218358 0.01242719 0.00068104 0.01076831 0.05782215 0.01757226 0.00116468 
0.01134766 0.02101635 0.00612403 0.00241626 0.00416843 0.00098705 0.01163417 0.00428245 0.01602321 0.00213850 0.01223988 0.00066948 0.01098812 0.05837643 0.01768057 0.00118020 
0.01146635 0.02172353 0.00616965 0.00243756 0.00404733 0.00098087 0.01150370 0.00426495 0.01622908 0.00209960 0.01205576 0.00065900 0.01122137 0.05885802 0.01777191 0.00119422 
0.01157334 0.02242663 0.00621208 0.00245819 0.00393178 0.00097667 0.01136195 0.00424708 0.01644235 0.00206694 0.01187581 0.00064963 0.01146904 0.05926468 0.01784586 0.00120669 
0.01166811 0.02312351 0.00625117 0.00247821 0.00382220 0.00097455 0.01120937 0.00422918 0.01666356 0.00204058 0.01170098 0.00064138 0.01173206 0.05959459 0.01790212 0.00121757 
0.01175024 0.02381202 0.00628676 0.00249768 0.00371898 0.00097460 0.01104642 0.00421160 0.01689315 0.00202056 0.01153220 0.00063430 0.01201135 0.05984641 0.01794053 0.00122681 
0.01181934 0.02449002 0.00631875 0.00251666 0.00362246 0.00097691 0.01087364 0.00419467 0.01713146 0.00200689 0.01137038 0.00062840 0.01230775 0.06001928 0.01796102 0.00123439 
0.01187512 0.02515539 0.00634702 0.00253523 0.00353295 0.00098156 0.01069158 0.00417876 0.01737870 0.00199960 0.01121640 0.00062371 0.01262208 0.06011284 0.01796367 0.00124030 
0.01191732 0.02580605 0.00637149 0.00255346 0.00345072 0.00098860 0.01050087 0.00416419 0.01763498 0.00199866 0.01107113 0.00062023 0.01295509 0.06012724 0.01794869 0.00124452 
0.01194578 0.02643991 0.00639211 0.00257144 0.00337601 0.00099811 0.01030215 0.00415133 0.01790032 0.00200407 0.01093536 0.00061799 0.01330745 0.06006312 0.01791641 0.00124705 
0.01196040 0.02705495 0.00640882 0.00258925 0.00330902 0.00101013 0.01009611 0.00414049 0.01817458 0.00201577 0.01080987 0.00061700 0.01367977 0.05992166 0.01786730 0.00124790 
0.01196113 0.02764917 0.00642162 0.00260698 0.00324989 0.00102470 0.00988346 0.00413201 0.01845754 0.00203373 0.01069537 0.00061726 0.01407258 0.05970453 0.01780196 0.00124710 
0.01194799 0.02822065 0.00643049 0.00262473 0.00319876 0.00104185 0.00966495 0.00412619 0.01874886 0.00205787 0.01059254 0.00061879 0.01448631 0.05941392 0.01772112 0.00124468 
0.01192109 0.02876750 0.00643547 0.00264259 0.00315570 0.00106159 0.00944136 0.00412335 0.01904808 0.00208811 0.01050199 0.00062157 0.01492131 0.05905252 0.01762564 0.00124066 
0.01188056 0.02928790 0.00643658 0.00266064 0.00312074 0.00108393 0.00921349 0.00412375 0.01935466 0.00212433 0.01042427 0.00062562 0.01537782 0.05862348 0.01751650 0.00123511 
0.01182663 0.02978010 0.00643388 0.00267898 0.00309391 0.00110886 0.00898215 0.00412766 0.01966792 0.00216643 0.01035987 0.00063093 0.01585598 0.05813046 0.01739480 0.00122807 
0.01175958 0.03024242 0.00642746 0.00269769 0.00307515 0.00113635 0.00874818 0.00413531 0.01998712 0.00221425 0.01030922 0.00063748 0.01635582 0.05757755 0.01726176 0.00121962 
0.01167972 0.03067328 0.00641740 0.00271687 0.00306441 0.00116638 0.00851243 0.00414694 0.02031141 0.00226765 0.01027267 0.00064528 0.01687727 0.05696925 0.01711871 0.00120982 
0.01158745 0.03107116 0.00640383 0.00273659 0.00306158 0.00119890 0.00827574 0.00416272 0.02063986 0.00232646 0.01025050 0.00065431 0.01742012 0.05631050 0.01696706 0.00119876 
0.01148320 0.03143468 0.00638685 0.00275692 0.00306653 0.00123384 0.00803898 0.00418282 0.02097145 0.00239048 0.01024293 0.00066454 0.01798405 0.05560659 0.01680834 0.00118653 
0.01136747 0.03176252 0.00636662 0.00277795 0.00307910 0.00127115 0.00780301 0.00420738 0.02130511 0.00245950 0.01025009 0.00067597 0.01856864 0.05486315 0.01664414 0.00117322 
0.01124079 0.03205348 0.00634328 0.00279972 0.00309908 0.00131072 0.00756868 0.00423650 0.02163969 0.00253330 0.01027203 0.00068856 0.01917331 0.05408613 0.01647615 0.00115893 
0.01110373 0.03230648 0.00631701 0.00282231 0.00312626 0.00135247 0.00733682 0.00427027 0.02197401 0.00261163 0.01030874 0.00070230 0.01979738 0.05328173 0.01630610 0.00114377 
0.01095692 0.03252056 0.00628798 0.00284574 0.00316039 0.00139629 0.00710829 0.00430873 0.02230684 0.00269425 0.01036011 0.00071716 0.02044004 0.05245640 0.01613578 0.00112786 
0.01080100 0.03269487 0.00625636 0.00287006 0.00320122 0.00144206 0.00688389 0.00435188 0.02263689 0.00278087 0.01042597 0.00073309 0.02110036 0.05161676 0.01596700 0.00111130 
0.01063666 0.03282870 0.00622236 0.00289529 0.00324845 0.00148964 0.00666443 0.00439973 0.02296288 0.00287121 0.01050607 0.00075007 0.02177728 0.05076958 0.01580164 0.00109421 
0.01046461 0.03292147 0.00618617 0.00292146 0.00330178 0.00153889 0.00645068 0.00445221 0.02328350 0.00296497 0.01060006 0.00076807 0.02246962 0.04992172 0.01564155 0.00107673 
0.01028559 0.03297275 0.00614799 0.00294855 0.00336089 0.00158966 0.00624338 0.00450924 0.02359744 0.00306183 0.01070755 0.00078703 0.02317608 0.04908012 0.01548860 0.00105896 
0.01010036 0.03298223 0.00610803 0.00297658 0.00342547 0.00164178 0.00604326 0.00457071 0.02390339 0.00316146 0.01082806 0.00080693 0.02389525 0.04825168 0.01534465 0.00104104 
0.00990970 0.03294977 0.00606648 0.00300550 0.00349516 0.00169510 0.00585100 0.00463648 0.02420006 0.00326353 0.01096103 0.00082771 0.02462561 0.04744329 0.01521151 0.00102308 
0.00971440 0.03287535 0.00602357 0.00303530 0.00356962 0.00174942 0.00566725 0.00470637 0.02448620 0.00336769 0.01110585 0.00084933 0.02536552 0.04666175 0.01509098 0.00100521 
0.00951524 0.03275914 0.00597948 0.00306593 0.00364852 0.00180456 0.00549262 0.00478018 0.02476056 0.00347358 0.01126183 0.00087173 0.02611324 0.04591369 0.01498478 0.00098756 
0.00931304 0.03260142 0.00593442 0.00309733 0.00373150 0.00186033 0.00532769 0.00485768 0.02502197 0.00358084 0.01142822 0.00089488 0.02686695 0.04520559 0.01489457 0.00097024 
0.00910859 0.03240267 0.00588858 0.00312942 0.00381821 0.00191654 0.00517296 0.00493860 0.02526930 0.00368911 0.01160422 0.00091870 0.02762472 0.04454369 0.01482193 0.00095336 
0.00890270 0.03216350 0.00584215 0.00316213 0.00390831 0.00197297 0.00502892 0.00502267 0.02550148 0.00379801 0.01178898 0.00094316 0.02838454 0.04393392 0.01476834 0.00093705 
0.00869616 0.03188468 0.00579532 0.00319535 0.00400146 0.00202943 0.00489601 0.00510957 0.02571751 0.00390716 0.01198158 0.00096818 0.02914432 0.04338193 0.01473516 0.00092140 
0.00848974 0.03156715 0.00574825 0.00322899 0.00409733 0.00208571 0.00477459 0.00519898 0.02591647 0.00401619 0.01218109 0.00099372 0.02990193 0.04289298 0.01472365 0.00090652 
0.00828422 0.03121200 0.00570111 0.00326292 0.00419559 0.00214161 0.00466501 0.00529056 0.02609753 0.00412474 0.01238650 0.00101972 0.03065513 0.04247193 0.01473493 0.00089251 
0.00808033 0.03082048 0.00565406 0.00329701 0.00429595 0.00219691 0.00456754 0.00538393 0.02625995 0.00423243 0.01259681 0.00104610 0.03140168 0.04212322 0.01476997 0.00087946 
0.00787882 0.03039399 0.00560723 0.00333113 0.00439811 0.00225141 0.00448241 0.00547872 0.02640307 0.00433890 0.01281097 0.00107283 0.03213925 0.04185077 0.01482959 0.00086744 
0.00768038 0.02993409 0.00556076 0.00336512 0.00450177 0.00230491 0.00440979 0.00557454 0.02652635 0.00444379 0.01302792 0.00109982 0.03286552 0.04165805 0.01491445 0.00085654 
0.00748567 0.02944248 0.00551477 0.00339882 0.00460669 0.00235721 0.00434980 0.00567099 0.02662935 0.00454676 0.01324657 0.00112701 0.03357810 0.04154793 0.01502504 0.00084682 
0.00729536 0.02892104 0.00546935 0.00343208 0.00471261 0.00240811 0.00430251 0.00576765 0.02671173 0.00464747 0.01346585 0.00115436 0.03427464 0.04152278 0.01516166 0.00083834 
0.00711005 0.02837174 0.00542460 0.00346471 0.00481930 0.00245743 0.00426792 0.00586412 0.02677329 0.00474559 0.01368467 0.00118178 0.03495274 0.04158434 0.01532445 0.00083115 
0.00693030 0.02779673 0.00538061 0.00349655 0.00492656 0.00250497 0.00424601 0.00595999 0.02681390 0.00484083 0.01390194 0.00120922 0.03561004 0.04173378 0.01551333 0.00082528 
0.00675667 0.02719827 0.00533742 0.00352741 0.00503419 0.00255057 0.00423668 0.00605482 0.02683358 0.00493290 0.01411661 0.00123661 0.03624418 0.04197164 0.01572808 0.00082078 
0.00658964 0.02657876 0.00529510 0.00355711 0.00514201 0.00259406 0.00423979 0.00614823 0.02683245 0.00502151 0.01432761 0.00126389 0.03685284 0.04229785 0.01596823 0.00081766 
0.00642968 0.02594070 0.00525368 0.00358546 0.00524989 0.00263529 0.00425516 0.00623980 0.02681073 0.00510643 0.01453395 0.00129100 0.03743373 0.04271171 0.01623315 0.00081594 
0.00627718 0.02528673 0.00521319 0.00361228 0.00535769 0.00267410 0.00428253 0.00632913 0.02676878 0.00518741 0.01473461 0.00131788 0.03798461 0.04321188 0.01652202 0.00081562 
0.00613254 0.02461956 0.00517364 0.00363737 0.00546530 0.00271036 0.00432163 0.00641585 0.02670705 0.00526426 0.01492866 0.00134446 0.03850332 0.04379643 0.01683381 0.00081668 
0.00599606 0.02394202 0.00513501 0.00366056 0.00557262 0.00274395 0.00437213 0.00649959 0.02662610 0.00533680 0.01511518 0.00137068 0.03898774 0.04446277 0.01716731 0.00081913 
0.00586803 0.02325700 0.00509731 0.00368167 0.00567959 0.00277476 0.00443366 0.00657999 0.02652659 0.00540487 0.01529333 0.00139650 0.03943587 0.04520776 0.01752116 0.00082293 
0.00574868 0.02256750 0.00506051 0.00370053 0.00578615 0.00280270 0.00450581 0.00665671 0.02640927 0.00546835 0.01546229 0.00142184 0.03984576 0.04602764 0.01789377 0.00082804 
0.00563821 0.02187654 0.00502457 0.00371695 0.00589225 0.00282767 0.00458812 0.00672945 0.02627500 0.00552714 0.01562134 0.00144665 0.04021559 0.04691809 0.01828342 0.00083444 
0.00553674 0.02118723 0.00498945 0.00373079 0.00599788 0.00284961 0.00468011 0.00679792 0.02612472 0.00558116 0.01576979 0.00147088 0.04054364 0.04787427 0.01868824 0.00084207 
0.00544440 0.02050269 0.00495509 0.00374190 0.00610302 0.00286846 0.00478127 0.00686184 0.02595943 0.00563038 0.01590704 0.00149448 0.04082832 0.04889083 0.01910618 0.00085087 
0.00536122 0.01982610 0.00492144 0.00375012 0.00620769 0.00288418 0.00489104 0.00692098 0.02578023 0.00567480 0.01603256 0.00151740 0.04106815 0.04996193 0.01953508 0.00086077 
0.00528723 0.01916063 0.00488842 0.00375533 0.00631190 0.00289675 0.00500886 0.00697513 0.02558827 0.00571442 0.01614589 0.00153958 0.04126181 0.05108131 0.01997266 0.00087172 
0.00522239 0.01850946 0.00485596 0.00375741 0.00641568 0.00290615 0.00513411 0.00702410 0.02538474 0.00574931 0.01624666 0.00156099 0.04140811 0.05224231 0.02041651 0.00088363 
0.00516664 0.01787576 0.00482398 0.00375626 0.00651907 0.00291239 0.00526618 0.00706775 0.02517091 0.00577954 0.01633457 0.00158158 0.04150601 0.05343792 0.02086415 0.00089643 
0.00511987 0.01726269 0.00479240 0.00375179 0.00662210 0.00291548 0.00540442 0.00710596 0.02494807 0.00580523 0.01640941 0.00160130 0.04155463 0.05466083 0.02131299 0.00091002 
0.00508195 0.01667335 0.00476114 0.00374391 0.00672483 0.00291545 0.00554818 0.00713864 0.02471753 0.00582651 0.01647105 0.00162013 0.04155325 0.05590345 0.02176043 0.00092432 
0.00505269 0.01611080 0.00473010 0.00373257 0.00682732 0.00291236 0.00569678 0.00716574 0.02448064 0.00584355 0.01651945 0.00163802 0.04150134 0.05715800 0.02220378 0.00093924 
0.00503190 0.01557804 0.00469921 0.00371773 0.00692961 0.00290626 0.00584955 0.00718723 0.02423875 0.00585655 0.01655465 0.00165494 0.04139851 0.05841657 0.02264034 0.00095469 
0.00501935 0.01507799 0.00466836 0.00369936 0.00703177 0.00289721 0.00600580 0.00720313 0.02399320 0.00586573 0.01657677 0.00167087 0.04124458 0.05967110 0.02306741 0.00097056 
0.00501476 0.01461347 0.00463749 0.00367745 0.00713385 0.00288532 0.00616484 0.00721350 0.02374535 0.00587133 0.01658602 0.00168577 0.04103952 0.06091354 0.02348228 0.00098677 
0.00501788 0.01418719 0.00460651 0.00365202 0.00723590 0.00287066 0.00632596 0.00721840 0.02349651 0.00587362 0.01658269 0.00169963 0.04078351 0.06213581 0.02388230 0.00100322 
0.00502838 0.01380176 0.00457533 0.00362308 0.00733796 0.00285336 0.00648849 0.00721796 0.02324799 0.00587289 0.01656714 0.00171241 0.04047689 0.06332994 0.02426485 0.00101981 
0.00504597 0.01345964 0.00454390 0.00359069 0.00744009 0.00283352 0.00665172 0.00721231 0.02300103 0.00586944 0.01653980 0.00172411 0.04012021 0.06448804 0.02462736 0.00103646 
0.00507030 0.01316316 0.00451212 0.00355490 0.00754232 0.00281127 0.00681499 0.00720163 0.02275686 0.00586359 0.01650118 0.00173471 0.03971418 0.06560244 0.02496737 0.00105307 
0.00510104 0.01291446 0.00447996 0.00351581 0.00764467 0.00278676 0.00697762 0.00718614 0.02251663 0.00585569 0.01645185 0.00174420 0.03925971 0.06666569 0.02528252 0.00106955 
0.00513784 0.01271556 0.00444734 0.00347351 0.00774715 0.00276012 0.00713895 0.00716605 0.02228144 0.00584607 0.01639244 0.00175257 0.03875790 0.06767062 0.02557056 0.00108583 
0.00518035 0.01256825 0.00441423 0.00342812 0.00784977 0.00273151 0.00729834 0.00714164 0.02205231 0.00583510 0.01632365 0.00175981 0.03821001 0.06861041 0.02582937 0.00110182 
0.00522822 0.01247417 0.00438058 0.00337977 0.00795253 0.00270108 0.00745516 0.00711319 0.02183020 0.00582313 0.01624620 0.00176593 0.03761748 0.06947864 0.02605700 0.00111745 
0.00528109 0.01243473 0.00434637 0.00332862 0.00805539 0.00266899 0.00760881 0.00708100 0.02161596 0.00581054 0.01616088 0.00177092 0.03698194 0.07026930 0.02625167 0.00113266 
0.00533863 0.01245114 0.00431157 0.00327482 0.00815834 0.00263542 0.00775870 0.00704542 0.02141038 0.00579768 0.01606851 0.00177479 0.03630518 0.07097689 0.02641175 0.00114738 
0.00540048 0.01252440 0.00427617 0.00321857 0.00826131 0.00260053 0.00790427 0.00700678 0.02121413 0.00578491 0.01596992 0.00177755 0.03558914 0.07159640 0.02653584 0.00116157 
0.00546633 0.01265526 0.00424017 0.00316006 0.00836424 0.00256449 0.00804498 0.00696545 0.02102780 0.00577261 0.01586600 0.00177921 0.03483593 0.07212339 0.02662271 0.00117516 
0.00553587 0.01284426 0.00420357 0.00309949 0.00846705 0.00252747 0.00818034 0.00692182 0.02085185 0.00576110 0.01575762 0.00177977 0.03404782 0.07255403 0.02667138 0.00118812 
0.00560878 0.01309170 0.00416640 0.00303708 0.00856964 0.00248965 0.00830986 0.00687628 0.02068666 0.00575074 0.01564568 0.00177927 0.03322720 0.07288508 0.02668107 0.00120043 
0.00568480 0.01339763 0.00412868 0.00297307 0.00867191 0.00245121 0.00843310 0.00682923 0.02053249 0.00574184 0.01553106 0.00177771 0.03237660 0.07311397 0.02665123 0.00121205 
0.00576365 0.01376184 0.00409045 0.00290769 0.00877373 0.00241230 0.00854964 0.00678108 0.02038948 0.00573470 0.01541466 0.00177512 0.03149868 0.07323877 0.02658157 0.00122297 
0.00584510 0.01418391 0.00405176 0.00284119 0.00887495 0.00237310 0.00865911 0.00673223 0.02025768 0.00572962 0.01529735 0.00177153 0.03059622 0.07325826 0.02647201 0.00123319 
0.00592892 0.01466314 0.00401267 0.00277384 0.00897541 0.00233377 0.00876116 0.00668312 0.02013702 0.00572685 0.01517998 0.00176695 0.02967209 0.07317189 0.02632274 0.00124269 
0.00601493 0.01519858 0.00397323 0.00270587 0.00907495 0.00229447 0.00885549 0.00663414 0.02002730 0.00572665 0.01506337 0.00176143 0.02872925 0.07297981 0.02613417 0.00125150 
0.00610294 0.01578906 0.00393352 0.00263757 0.00917338 0.00225536 0.00894183 0.00658571 0.01992825 0.00572921 0.01494831 0.00175498 0.02777077 0.07268290 0.02590696 0.00125962 
0.00619283 0.01643313 0.00389363 0.00256920 0.00927050 0.00221659 0.00901995 0.00653823 0.01983947 0.00573472 0.01483554 0.00174766 0.02679977 0.07228270 0.02564202 0.00126708 
0.00628446 0.01712912 0.00385364 0.00250101 0.00936611 0.00217829 0.00908964 0.00649210 0.01976045 0.00574334 0.01472577 0.00173948 0.02581942 0.07178144 0.02534047 0.00127392 
0.00637775 0.01787512 0.00381365 0.00243329 0.00945997 0.00214060 0.00915077 0.00644769 0.01969061 0.00575518 0.01461964 0.00173049 0.02483295 0.07118206 0.02500370 0.00128016 
0.00647263 0.01866899 0.00377376 0.00236629 0.00955187 0.00210366 0.00920320 0.00640537 0.01962927 0.00577034 0.01451774 0.00172074 0.02384363 0.07048812 0.02463327 0.00128586 
0.00656906 0.01950836 0.00373408 0.00230027 0.00964156 0.00206757 0.00924688 0.00636550 0.01957565 0.00578887 0.01442058 0.00171025 0.02285472 0.06970381 0.02423100 0.00129107 
0.00666702 0.02039065 0.00369471 0.00223548 0.00972881 0.00203246 0.00928176 0.00632841 0.01952891 0.00581078 0.01432864 0.00169908 0.02186951 0.06883397 0.02379887 0.00129584 
0.00676654 0.02131308 0.00365579 0.00217219 0.00981336 0.00199841 0.00930784 0.00629440 0.01948811 0.00583607 0.01424228 0.00168726 0.02089129 0.06788397 0.02333907 0.00130023 
0.00686764 0.02227267 0.00361741 0.00211062 0.00989495 0.00196552 0.00932517 0.00626377 0.01945228 0.00586467 0.01416184 0.00167485 0.01992329 0.06685973 0.02285397 0.00130432 
0.00697038 0.02326625 0.00357971 0.00205101 0.00997335 0.00193388 0.00933382 0.00623678 0.01942038 0.00589649 0.01408755 0.00166189 0.01896874 0.06576768 0.02234608 0.00130816 
0.00707484 0.02429050 0.00354280 0.00199358 0.01004828 0.00190356 0.00933391 0.00621367 0.01939132 0.00593141 0.01401956 0.00164843 0.01803081 0.06461469 0.02181807 0.00131184 
0.00718111 0.02534193 0.00350680 0.00193854 0.01011951 0.00187461 0.00932560 0.00619466 0.01936397 0.00596927 0.01395797 0.00163451 0.01711259 0.06340807 0.02127274 0.00131544 
0.00728932 0.02641691 0.00347183 0.00188608 0.01018678 0.00184709 0.00930906 0.00617991 0.01933719 0.00600987 0.01390278 0.00162018 0.01621712 0.06215546 0.02071299 0.00131902 
0.00739960 0.02751169 0.00343801 0.00183639 0.01024985 0.00182104 0.00928452 0.00616959 0.01930980 0.00605299 0.01385392 0.00160550 0.01534733 0.06086482 0.02014182 0.00132267 
0.00751208 0.02862242 0.00340545 0.00178964 0.01030848 0.00179649 0.00925224 0.00616382 0.01928062 0.00609836 0.01381124 0.00159051 0.01450605 0.05954437 0.01956228 0.00132646 
0.00762693 0.02974514 0.00337426 0.00174597 0.01036246 0.00177346 0.00921249 0.00616267 0.01924850 0.00614569 0.01377454 0.00157526 0.01369599 0.05820253 0.01897750 0.00133049 
0.00774431 0.03087582 0.00334455 0.00170552 0.01041155 0.00175196 0.00916559 0.00616622 0.01921226 0.00619466 0.01374352 0.00155980 0.01291975 0.05684786 0.01839063 0.00133481 
0.00786439 0.03201040 0.00331642 0.00166840 0.01045557 0.00173199 0.00911189 0.00617448 0.01917077 0.00624494 0.01371783 0.00154418 0.01217977 0.05548903 0.01780482 0.00133951 
0.00798735 0.03314474 0.00328996 0.00163472 0.01049431 0.00171355 0.00905174 0.00618746 0.01912293 0.00629614 0.01369705 0.00152844 0.01147833 0.05413470 0.01722324 0.00134467 
0.00811337 0.03427471 0.00326526 0.00160456 0.01052762 0.00169661 0.00898553 0.00620509 0.01906770 0.00634788 0.01368071 0.00151264 0.01081757 0.05279353 0.01664901 0.00135034 
0.00824261 0.03539619 0.00324239 0.00157798 0.01055534 0.00168115 0.00891368 0.00622732 0.01900406 0.00639975 0.01366828 0.00149682 0.01019943 0.05147410 0.01608520 0.00135660 
0.00837525 0.03650507 0.00322142 0.00155503 0.01057732 0.00166713 0.00883661 0.00625405 0.01893108 0.00645133 0.01365918 0.00148103 0.00962570 0.05018481 0.01553482 0.00136351 
0.00851145 0.03759726 0.00320242 0.00153572 0.01059347 0.00165451 0.00875477 0.00628513 0.01884790 0.00650219 0.01365281 0.00146531 0.00909794 0.04893391 0.01500079 0.00137112 
0.00865136 0.03866876 0.00318543 0.00152006 0.01060368 0.00164323 0.00866861 0.00632040 0.01875374 0.00655187 0.01364852 0.00144970 0.00861754 0.04772934 0.01448593 0.00137947 
0.00879513 0.03971563 0.00317049 0.00150804 0.01060788 0.00163324 0.00857861 0.00635967 0.01864792 0.00659994 0.01364563 0.00143426 0.00818566 0.04657879 0.01399291 0.00138863 
0.00894287 0.04073405 0.00315764 0.00149963 0.01060603 0.00162447 0.00848524 0.00640272 0.01852984 0.00664593 0.01364345 0.00141901 0.00780326 0.04548956 0.01352430 0.00139861 
0.00909471 0.04172029 0.00314689 0.00149478 0.01059811 0.00161686 0.00838898 0.00644930 0.01839901 0.00668941 0.01364127 0.00140400 0.00747109 0.04446855 0.01308249 0.00140945 
0.00925072 0.04267076 0.00313824 0.00149342 0.01058412 0.00161031 0.00829032 0.00649914 0.01825508 0.00672992 0.01363839 0.00138926 0.00718966 0.04352221 0.01266969 0.00142118 
0.00941097 0.04358203 0.00313170 0.00149547 0.01056410 0.00160476 0.00818976 0.00655195 0.01809777 0.00676703 0.01363409 0.00137483 0.00695926 0.04265652 0.01228795 0.00143379 
0.00957552 0.04445084 0.00312724 0.00150081 0.01053809 0.00160011 0.00808776 0.00660741 0.01792697 0.00680031 0.01362770 0.00136074 0.00677995 0.04187691 0.01193910 0.00144731 
0.00974437 0.04527410 0.00312484 0.00150935 0.01050619 0.00159627 0.00798482 0.00666519 0.01774265 0.00682936 0.01361853 0.00134703 0.00665157 0.04118826 0.01162477 0.00146173 
0.00991751 0.04604893 0.00312446 0.00152094 0.01046851 0.00159316 0.00788141 0.00672494 0.01754496 0.00685379 0.01360593 0.00133371 0.00657373 0.04059484 0.01134639 0.00147703 
0.01009491 0.04677265 0.00312605 0.00153544 0.01042517 0.00159067 0.00777799 0.00678629 0.01733414 0.00687323 0.01358929 0.00132082 0.00654581 0.04010032 0.01110514 0.00149320 
0.01027650 0.04744282 0.00312954 0.00155269 0.01037635 0.00158871 0.00767502 0.00684886 0.01711058 0.00688734 0.01356803 0.00130839 0.00656696 0.03970773 0.01090199 0.00151021 
0.01046218 0.04805721 0.00313487 0.00157253 0.01032223 0.00158718 0.00757292 0.00691227 0.01687481 0.00689581 0.01354164 0.00129642 0.00663613 0.03941943 0.01073765 0.00152802 
0.01065181 0.04861388 0.00314196 0.00159477 0.01026304 0.00158598 0.00747212 0.00697613 0.01662747 0.00689836 0.01350963 0.00128494 0.00675202 0.03923711 0.01061261 0.00154660 
0.01084522 0.04911110 0.00315070 0.00161922 0.01019899 0.00158502 0.00737302 0.00704002 0.01636937 0.00689474 0.01347160 0.00127397 0.00691315 0.03916178 0.01052712 0.00156589 
0.01104223 0.04954743 0.00316101 0.00164569 0.01013037 0.00158420 0.00727600 0.00710356 0.01610141 0.00688475 0.01342720 0.00126352 0.00711783 0.03919378 0.01048118 0.00158583 
0.01124259 0.04992170 0.00317276 0.00167398 0.01005744 0.00158341 0.00718142 0.00716632 0.01582465 0.00686821 0.01337615 0.00125359 0.00736417 0.03933276 0.01047455 0.00160635 
0.01144604 0.05023299 0.00318586 0.00170388 0.00998052 0.00158258 0.00708961 0.00722791 0.01554024 0.00684500 0.01331825 0.00124420 0.00765009 0.03957768 0.01050677 0.00162739 
0.01165228 0.05048069 0.00320016 0.00173518 0.00989993 0.00158161 0.00700087 0.00728793 0.01524947 0.00681503 0.01325338 0.00123536 0.00797336 0.03992684 0.01057714 0.00164887 
0.01186098 0.05066444 0.00321555 0.00176767 0.00981601 0.00158041 0.00691549 0.00734598 0.01495375 0.00677825 0.01318148 0.00122705 0.00833155 0.04037791 0.01068472 0.00167070 
0.01207177 0.05078419 0.00323189 0.00180113 0.00972912 0.00157889 0.00683372 0.00740168 0.01465457 0.00673468 0.01310260 0.00121930 0.00872210 0.04092789 0.01082839 0.00169278 
0.01228426 0.05084014 0.00324904 0.00183535 0.00963963 0.00157699 0.00675577 0.00745466 0.01435353 0.00668436 0.01301686 0.00121208 0.00914231 0.04157319 0.01100680 0.00171504 
0.01249802 0.05083280 0.00326686 0.00187012 0.00954792 0.00157463 0.00668184 0.00750455 0.01405234 0.00662739 0.01292446 0.00120539 0.00958934 0.04230962 0.01121839 0.00173737 
0.01271259 0.05076291 0.00328521 0.00190525 0.00945438 0.00157175 0.00661210 0.00755101 0.01375275 0.00656392 0.01282569 0.00119924 0.01006027 0.04313244 0.01146144 0.00175967 
0.01292750 0.05063151 0.00330395 0.00194052 0.00935942 0.00156827 0.00654666 0.00759371 0.01345663 0.00649414 0.01272092 0.00119361 0.01055204 0.04403639 0.01173405 0.00178183 
0.01314223 0.05043988 0.00332293 0.00197575 0.00926345 0.00156415 0.00648563 0.00763234 0.01316588 0.00641828 0.01261061 0.00118848 0.01106155 0.04501573 0.01203416 0.00180376 
0.01335626 0.05018958 0.00334200 0.00201075 0.00916686 0.00155934 0.00642907 0.00766660 0.01288247 0.00633664 0.01249528 0.00118384 0.01158562 0.04606425 0.01235956 0.00182533 
0.01356903 0.04988239 0.00336104 0.00204534 0.00907009 0.00155379 0.00637703 0.00769622 0.01260841 0.00624955 0.01237555 0.00117968 0.01212102 0.04717537 0.01270793 0.00184646 
0.01377998 0.04952032 0.00337990 0.00207935 0.00897353 0.00154749 0.00632951 0.00772097 0.01234575 0.00615737 0.01225209 0.00117599 0.01266448 0.04834211 0.01307681 0.00186702 
0.01398852 0.04910560 0.00339846 0.00211264 0.00887759 0.00154039 0.00628648 0.00774061 0.01209655 0.00606054 0.01212564 0.00117273 0.01321275 0.04955722 0.01346367 0.00188691 
0.01419404 0.04864069 0.00341659 0.00214506 0.00878267 0.00153249 0.00624790 0.00775495 0.01186289 0.00595950 0.01199702 0.00116990 0.01376255 0.05081315 0.01386590 0.00190604 
0.01439593 0.04812821 0.00343417 0.00217648 0.00868918 0.00152377 0.00621368 0.00776383 0.01164685 0.00585475 0.01186710 0.00116747 0.01431064 0.05210215 0.01428080 0.00192428 
0.01459358 0.04757098 0.00345109 0.00220678 0.00859748 0.00151424 0.00618373 0.00776710 0.01145049 0.00574683 0.01173677 0.00116542 0.01485382 0.05341630 0.01470567 0.00194155 
0.01478635 0.04697198 0.00346724 0.00223587 0.00850796 0.00150390 0.00615790 0.00776465 0.01127586 0.00563629 0.01160701 0.00116373 0.01538892 0.05474755 0.01513774 0.00195775 
0.01497361 0.04633433 0.00348254 0.00226366 0.00842097 0.00149277 0.00613605 0.00775640 0.01112496 0.00552374 0.01147880 0.00116237 0.01591288 0.05608781 0.01557427 0.00197278 
0.01515474 0.04566128 0.00349691 0.00229007 0.00833685 0.00148088 0.00611800 0.00774228 0.01099976 0.00540980 0.01135316 0.00116133 0.01642271 0.05742897 0.01601251 0.00198656 
0.01532911 0.04495619 0.00351026 0.00231506 0.00825592 0.00146825 0.00610355 0.00772228 0.01090217 0.00529510 0.01123113 0.00116058 0.01691552 0.05876293 0.01644974 0.00199901 
0.01549609 0.04422251 0.00352255 0.00233860 0.00817850 0.00145494 0.00609250 0.00769641 0.01083403 0.00518033 0.01111376 0.00116010 0.01738855 0.06008172 0.01688329 0.00201005 
0.01565508 0.04346377 0.00353371 0.00236065 0.00810485 0.00144098 0.00608461 0.00766469 0.01079710 0.00506615 0.01100212 0.00115987 0.01783918 0.06137746 0.01731053 0.00201960 
0.01580547 0.04268356 0.00354373 0.00238121 0.00803525 0.00142644 0.00607964 0.00762720 0.01079307 0.00495327 0.01089725 0.00115987 0.01826493 0.06264247 0.01772893 0.00202760 
0.01594669 0.04188549 0.00355256 0.00240030 0.00796993 0.00141139 0.00607734 0.00758404 0.01082352 0.00484238 0.01080018 0.00116007 0.01866348 0.06386929 0.01813602 0.00203400 
0.01607815 0.04107321 0.00356022 0.00241794 0.00790910 0.00139588 0.00607745 0.00753531 0.01088991 0.00473418 0.01071194 0.00116047 0.01903271 0.06505074 0.01852947 0.00203874 
0.01619933 0.04025035 0.00356669 0.00243418 0.00785294 0.00138002 0.00607969 0.00748119 0.01099363 0.00462940 0.01063350 0.00116105 0.01937065 0.06617993 0.01890703 0.00204179 
0.01630970 0.03942054 0.00357200 0.00244907 0.00780162 0.00136387 0.00608379 0.00742185 0.01113590 0.00452872 0.01056581 0.00116179 0.01967555 0.06725034 0.01926661 0.00204310 
0.01640876 0.03858736 0.00357617 0.00246269 0.00775528 0.00134752 0.00608947 0.00735751 0.01131783 0.00443284 0.01050978 0.00116268 0.01994588 0.06825579 0.01960623 0.00204265 
0.01649606 0.03775434 0.00357925 0.00247513 0.00771400 0.00133109 0.00609646 0.00728839 0.01154041 0.00434243 0.01046625 0.00116371 0.02018028 0.06919057 0.01992407 0.00204043 
0.01657115 0.03692494 0.00358130 0.00248648 0.00767788 0.00131466 0.00610448 0.00721477 0.01180447 0.00425818 0.01043599 0.00116488 0.02037767 0.07004936 0.02021848 0.00203641 
0.01663364 0.03610253 0.00358237 0.00249686 0.00764696 0.00129835 0.00611326 0.00713693 0.01211067 0.00418070 0.01041973 0.00116617 0.02053714 0.07082734 0.02048796 0.00203060 
0.01668317 0.03529038 0.00358256 0.00250638 0.00762126 0.00128226 0.00612254 0.00705518 0.01245957 0.00411063 0.01041811 0.00116760 0.02065805 0.07152017 0.02073118 0.00202300 
0.01671942 0.03449165 0.00358196 0.00251519 0.00760078 0.00126651 0.00613205 0.00696985 0.01285152 0.00404855 0.01043167 0.00116915 0.02073997 0.07212402 0.02094698 0.00201363 
0.01674211 0.03370936 0.00358065 0.00252341 0.00758550 0.00125120 0.00614155 0.00688130 0.01328675 0.00399501 0.01046090 0.00117084 0.02078273 0.07263560 0.02113440 0.00200250 
0.01675100 0.03294637 0.00357876 0.00253121 0.00757534 0.00123646 0.00615081 0.00678991 0.01376529 0.00395054 0.01050616 0.00117266 0.02078639 0.07305214 0.02129265 0.00198965 
0.01674591 0.03220542 0.00357640 0.00253873 0.00757023 0.00122240 0.00615960 0.00669605 0.01428703 0.00391561 0.01056775 0.00117464 0.02075121 0.07337142 0.02142110 0.00197511 
0.01672669 0.03148905 0.00357370 0.00254613 0.00757006 0.00120914 0.00616773 0.00660015 0.01485168 0.00389066 0.01064585 0.00117677 0.02067774 0.07359177 0.02151934 0.00195892 
0.01669325 0.03079963 0.00357079 0.00255357 0.00757470 0.00119679 0.00617498 0.00650262 0.01545879 0.00387608 0.01074053 0.00117909 0.02056670 0.07371208 0.02158711 0.00194115 
0.01664554 0.03013936 0.00356780 0.00256122 0.00758399 0.00118547 0.00618121 0.00640389 0.01610773 0.00387221 0.01085178 0.00118160 0.02041909 0.07373177 0.02162433 0.00192185 
0.01658357 0.02951023 0.00356488 0.00256925 0.00759778 0.00117529 0.00618625 0.00630442 0.01679771 0.00387933 0.01097947 0.00118432 0.02023607 0.07365083 0.02163112 0.00190107 
0.01650740 0.02891403 0.00356218 0.00257781 0.00761585 0.00116636 0.00618996 0.00620466 0.01752778 0.00389769 0.01112336 0.00118729 0.02001906 0.07346976 0.02160774 0.00187890 
0.01641714 0.02835235 0.00355983 0.00258706 0.00763800 0.00115879 0.00619224 0.00610506 0.01829682 0.00392747 0.01128311 0.00119052 0.01976964 0.07318960 0.02155461 0.00185542 
0.01631297 0.02782657 0.00355798 0.00259716 0.00766401 0.00115267 0.00619299 0.00600611 0.01910353 0.00396879 0.01145826 0.00119405 0.01948961 0.07281189 0.02147234 0.00183070 
0.01619509 0.02733786 0.00355677 0.00260826 0.00769363 0.00114810 0.00619213 0.00590827 0.01994649 0.00402171 0.01164828 0.00119791 0.01918092 0.07233867 0.02136164 0.00180483 
0.01606379 0.02688717 0.00355635 0.00262050 0.00772661 0.00114517 0.00618963 0.00581201 0.02082411 0.00408624 0.01185249 0.00120212 0.01884572 0.07177244 0.02122341 0.00177792 
0.01591939 0.02647524 0.00355684 0.00263403 0.00776268 0.00114396 0.00618544 0.00571781 0.02173462 0.00416232 0.01207015 0.00120673 0.01848628 0.07111615 0.02105863 0.00175005 
0.01576228 0.02610259 0.00355839 0.00264895 0.00780156 0.00114455 0.00617956 0.00562615 0.02267616 0.00424983 0.01230040 0.00121176 0.01810503 0.07037316 0.02086845 0.00172133 
0.01559289 0.02576955 0.00356110 0.00266539 0.00784298 0.00114699 0.00617199 0.00553748 0.02364670 0.00434861 0.01254230 0.00121726 0.01770452 0.06954726 0.02065409 0.00169187 
0.01541171 0.02547623 0.00356509 0.00268345 0.00788664 0.00115136 0.00616279 0.00545226 0.02464408 0.00445841 0.01279481 0.00122326 0.01728741 0.06864257 0.02041689 0.00166177 
0.01521928 0.02522251 0.00357048 0.00270321 0.00793224 0.00115769 0.00615198 0.00537096 0.02566602 0.00457893 0.01305683 0.00122980 0.01685644 0.06766358 0.02015827 0.00163116 
0.01501620 0.02500813 0.00357735 0.00272476 0.00797949 0.00116603 0.00613966 0.00529400 0.02671013 0.00470983 0.01332717 0.00123691 0.01641446 0.06661505 0.01987974 0.00160014 
0.01480309 0.02483258 0.00358577 0.00274814 0.00802809 0.00117641 0.00612590 0.00522183 0.02777390 0.00485068 0.01360455 0.00124463 0.01596434 0.06550205 0.01958286 0.00156883 
0.01458066 0.02469520 0.00359583 0.00277341 0.00807775 0.00118884 0.00611082 0.00515486 0.02885473 0.00500102 0.01388767 0.00125300 0.01550902 0.06432986 0.01926925 0.00153735 
0.01434963 0.02459514 0.00360757 0.00280059 0.00812815 0.00120332 0.00609452 0.00509348 0.02994992 0.00516032 0.01417513 0.00126205 0.01505146 0.06310398 0.01894059 0.00150583 
0.01411078 0.02453139 0.00362104 0.00282969 0.00817902 0.00121987 0.00607717 0.00503808 0.03105670 0.00532801 0.01446552 0.00127181 0.01459462 0.06183010 0.01859855 0.00147438 
0.01386492 0.02450277 0.00363625 0.00286070 0.00823006 0.00123845 0.00605889 0.00498902 0.03217221 0.00550346 0.01475736 0.00128232 0.01414146 0.06051402 0.01824487 0.00144313 
0.01361292 0.02450796 0.00365322 0.00289360 0.00828099 0.00125905 0.00603986 0.00494665 0.03329355 0.00568601 0.01504914 0.00129360 0.01369491 0.05916165 0.01788126 0.00141219 
0.01335567 0.02454551 0.00367194 0.00292834 0.00833153 0.00128162 0.00602024 0.00491127 0.03441775 0.00587494 0.01533934 0.00130567 0.01325786 0.05777899 0.01750945 0.00138170 
0.01309409 0.02461383 0.00369237 0.00296486 0.00838141 0.00130611 0.00600022 0.00488319 0.03554182 0.00606949 0.01562641 0.00131856 0.01283314 0.05637206 0.01713116 0.00135178 
0.01282914 0.02471123 0.00371448 0.00300309 0.00843038 0.00133247 0.00597999 0.00486266 0.03666272 0.00626888 0.01590880 0.00133229 0.01242351 0.05494688 0.01674807 0.00132253 
0.01256180 0.02483590 0.00373821 0.00304292 0.00847819 0.00136062 0.00595974 0.00484993 0.03777741 0.00647228 0.01618496 0.00134687 0.01203163 0.05350948 0.01636184 0.00129410 
0.01229308 0.02498595 0.00376347 0.00308424 0.00852459 0.00139047 0.00593967 0.00484521 0.03888283 0.00667884 0.01645334 0.00136231 0.01166006 0.05206578 0.01597410 0.00126658 
0.01202399 0.02515941 0.00379018 0.00312693 0.00856937 0.00142193 0.00591998 0.00484868 0.03997595 0.00688768 0.01671241 0.00137861 0.01131124 0.05062165 0.01558643 0.00124011 
0.01175559 0.02535426 0.00381822 0.00317082 0.00861231 0.00145490 0.00590087 0.00486048 0.04105372 0.00709790 0.01696066 0.00139577 0.01098748 0.04918285 0.01520034 0.00121479 
0.01148892 0.02556842 0.00384747 0.00321577 0.00865321 0.00148926 0.00588254 0.00488072 0.04211317 0.00730859 0.01719663 0.00141379 0.01069095 0.04775497 0.01481731 0.00119074 
0.01122504 0.02579975 0.00387779 0.00326159 0.00869188 0.00152488 0.00586521 0.00490950 0.04315132 0.00751883 0.01741888 0.00143266 0.01042365 0.04634347 0.01443872 0.00116807 
0.01096502 0.02604611 0.00390902 0.00330810 0.00872815 0.00156164 0.00584905 0.00494684 0.04416530 0.00772769 0.01762603 0.00145236 0.01018741 0.04495358 0.01406589 0.00114688 
0.01070992 0.02630534 0.00394099 0.00335509 0.00876186 0.00159938 0.00583426 0.00499277 0.04515226 0.00793422 0.01781676 0.00147287 0.00998392 0.04359037 0.01370009 0.00112727 
0.01046078 0.02657527 0.00397352 0.00340235 0.00879286 0.00163797 0.00582103 0.00504726 0.04610947 0.00813750 0.01798980 0.00149416 0.00981464 0.04225863 0.01334247 0.00110936 
0.01021868 0.02685375 0.00400641 0.00344966 0.00882102 0.00167723 0.00580953 0.00511024 0.04703427 0.00833660 0.01814394 0.00151620 0.00968086 0.04096294 0.01299412 0.00109322 
0.00998462 0.02713863 0.00403948 0.00349679 0.00884623 0.00171702 0.00579994 0.00518162 0.04792410 0.00853061 0.01827808 0.00153894 0.00958369 0.03970761 0.01265605 0.00107895 
0.00975964 0.02742783 0.00407250 0.00354349 0.00886839 0.00175716 0.00579241 0.00526126 0.04877655 0.00871863 0.01839116 0.00156235 0.00952399 0.03849665 0.01232916 0.00106665 
0.00954471 0.02771927 0.00410525 0.00358952 0.00888739 0.00179747 0.00578709 0.00534898 0.04958930 0.00889979 0.01848224 0.00158636 0.00950247 0.03733381 0.01201428 0.00105638 
0.00934081 0.02801094 0.00413753 0.00363465 0.00890318 0.00183779 0.00578411 0.00544459 0.05036019 0.00907323 0.01855045 0.00161093 0.00951959 0.03622252 0.01171217 0.00104824 
0.00914886 0.02830090 0.00416909 0.00367860 0.00891569 0.00187794 0.00578361 0.00554782 0.05108722 0.00923813 0.01859502 0.00163599 0.00957563 0.03516591 0.01142346 0.00104228 
0.00896976 0.02858727 0.00419972 0.00372115 0.00892487 0.00191773 0.00578570 0.00565840 0.05176853 0.00939370 0.01861528 0.00166147 0.00967063 0.03416681 0.01114872 0.00103858 
0.00880437 0.02886823 0.00422918 0.00376203 0.00893069 0.00195699 0.00579046 0.00577602 0.05240245 0.00953920 0.01861066 0.00168731 0.00980444 0.03322771 0.01088844 0.00103720 
0.00865350 0.02914209 0.00425726 0.00380101 0.00893312 0.00199553 0.00579799 0.00590031 0.05298748 0.00967390 0.01858071 0.00171342 0.00997672 0.03235079 0.01064303 0.00103818 
0.00851790 0.02940719 0.00428372 0.00383783 0.00893216 0.00203317 0.00580835 0.00603090 0.05352233 0.00979716 0.01852507 0.00173972 0.01018689 0.03153792 0.01041279 0.00104159 
0.00839828 0.02966203 0.00430836 0.00387227 0.00892781 0.00206974 0.00582161 0.00616737 0.05400588 0.00990835 0.01844350 0.00176613 0.01043420 0.03079062 0.01019798 0.00104745 
0.00829531 0.02990515 0.00433096 0.00390409 0.00892008 0.00210507 0.00583779 0.00630928 0.05443724 0.01000691 0.01833586 0.00179256 0.01071770 0.03011012 0.00999877 0.00105581 
0.00820957 0.03013524 0.00435132 0.00393308 0.00890899 0.00213899 0.00585693 0.00645613 0.05481573 0.01009232 0.01820214 0.00181892 0.01103626 0.02949734 0.00981526 0.00106669 
0.00814160 0.03035108 0.00436926 0.00395903 0.00889459 0.00217132 0.00587903 0.00660744 0.05514086 0.01016415 0.01804242 0.00184511 0.01138856 0.02895286 0.00964749 0.00108010 
0.00809186 0.03055156 0.00438460 0.00398174 0.00887692 0.00220193 0.00590410 0.00676268 0.05541242 0.01022198 0.01785692 0.00187105 0.01177311 0.02847698 0.00949543 0.00109607 
0.00806075 0.03073569 0.00439717 0.00400102 0.00885603 0.00223064 0.00593210 0.00692128 0.05563036 0.01026550 0.01764595 0.00189663 0.01218828 0.02806972 0.00935900 0.00111459 
0.00804859 0.03090259 0.00440683 0.00401672 0.00883198 0.00225733 0.00596300 0.00708268 0.05579491 0.01029443 0.01740993 0.00192177 0.01263226 0.02773079 0.00923807 0.00113566 
0.00805565 0.03105149 0.00441346 0.00402868 0.00880484 0.00228186 0.00599677 0.00724628 0.05590651 0.01030857 0.01714941 0.00194636 0.01310313 0.02745964 0.00913246 0.00115928 
0.00808210 0.03118174 0.00441693 0.00403677 0.00877470 0.00230410 0.00603333 0.00741147 0.05596583 0.01030778 0.01686502 0.00197030 0.01359881 0.02725546 0.00904195 0.00118540 
0.00812806 0.03129280 0.00441715 0.00404087 0.00874164 0.00232394 0.00607261 0.00757763 0.05597376 0.01029199 0.01655751 0.00199352 0.01411712 0.02711718 0.00896626 0.00121402 
0.00819354 0.03138424 0.00441407 0.00404088 0.00870574 0.00234129 0.00611452 0.00774413 0.05593145 0.01026119 0.01622774 0.00201590 0.01465579 0.02704351 0.00890510 0.00124508 
0.00827850 0.03145574 0.00440762 0.00403673 0.00866711 0.00235604 0.00615896 0.00791031 0.05584022 0.01021544 0.01587664 0.00203737 0.01521242 0.02703293 0.00885815 0.00127854 
0.00838283 0.03150709 0.00439778 0.00402836 0.00862585 0.00236812 0.00620582 0.00807554 0.05570166 0.01015488 0.01550527 0.00205785 0.01578457 0.02708370 0.00882506 0.00131435 
0.00850630 0.03153817 0.00438455 0.00401573 0.00858207 0.00237746 0.00625498 0.00823915 0.05551754 0.01007969 0.01511475 0.00207723 0.01636971 0.02719390 0.00880544 0.00135243 
0.00864866 0.03154898 0.00436795 0.00399883 0.00853587 0.00238401 0.00630630 0.00840051 0.05528983 0.00999013 0.01470630 0.00209547 0.01696526 0.02736143 0.00879891 0.00139271 
0.00880954 0.03153959 0.00434802 0.00397768 0.00848738 0.00238774 0.00635964 0.00855894 0.05502071 0.00988653 0.01428123 0.00211247 0.01756860 0.02758401 0.00880506 0.00143511 
0.00898851 0.03151018 0.00432483 0.00395229 0.00843671 0.00238861 0.00641484 0.00871382 0.05471254 0.00976928 0.01384091 0.00212817 0.01817709 0.02785925 0.00882349 0.00147954 
0.00918508 0.03146101 0.00429848 0.00392273 0.00838398 0.00238661 0.00647174 0.00886451 0.05436784 0.00963880 0.01338679 0.00214253 0.01878807 0.02818459 0.00885375 0.00152588 
0.00939867 0.03139241 0.00426908 0.00388906 0.00832931 0.00238176 0.00653017 0.00901039 0.05398928 0.00949562 0.01292037 0.00215547 0.01939889 0.02855736 0.00889544 0.00157403 
0.00962864 0.03130480 0.00423677 0.00385138 0.00827283 0.00237405 0.00658995 0.00915084 0.05357971 0.00934029 0.01244324 0.00216697 0.02000689 0.02897482 0.00894812 0.00162387 
0.00987429 0.03119867 0.00420172 0.00380981 0.00821466 0.00236353 0.00665090 0.00928527 0.05314206 0.00917341 0.01195701 0.00217697 0.02060947 0.02943410 0.00901137 0.00167526 
0.01013485 0.03107456 0.00416411 0.00376448 0.00815493 0.00235023 0.00671282 0.00941312 0.05267940 0.00899566 0.01146337 0.00218546 0.02120404 0.02993229 0.00908475 0.00172807 
0.01040949 0.03093307 0.00412416 0.00371555 0.00809375 0.00233423 0.00677552 0.00953384 0.05219488 0.00880775 0.01096401 0.00219240 0.02178806 0.03046643 0.00916785 0.00178216 
0.01069732 0.03077488 0.00408208 0.00366319 0.00803126 0.00231558 0.00683880 0.00964691 0.05169174 0.00861042 0.01046069 0.00219779 0.02235906 0.03103349 0.00926026 0.00183735 
0.01099742 0.03060067 0.00403813 0.00360759 0.00796757 0.00229437 0.00690244 0.00975182 0.05117326 0.00840447 0.00995517 0.00220162 0.02291464 0.03163045 0.00936156 0.00189351 
0.01130880 0.03041120 0.00399257 0.00354898 0.00790280 0.00227071 0.00696624 0.00984813 0.05064275 0.00819073 0.00944926 0.00220390 0.02345248 0.03225425 0.00947136 0.00195044 
0.01163043 0.03020726 0.00394569 0.00348756 0.00783707 0.00224469 0.00702999 0.00993539 0.05010355 0.00797006 0.00894475 0.00220463 0.02397036 0.03290184 0.00958926 0.00200798 
0.01196126 0.02998965 0.00389778 0.00342359 0.00777050 0.00221645 0.00709345 0.01001321 0.04955899 0.00774335 0.00844346 0.00220385 0.02446614 0.03357020 0.00971487 0.00206595 
0.01230019 0.02975922 0.00384916 0.00335731 0.00770320 0.00218612 0.00715642 0.01008124 0.04901237 0.00751152 0.00794719 0.00220157 0.02493780 0.03425632 0.00984783 0.00212415 
0.01264610 0.02951683 0.00380014 0.00328900 0.00763527 0.00215383 0.00721867 0.01013914 0.04846693 0.00727551 0.00745775 0.00219783 0.02538345 0.03495724 0.00998777 0.00218240 
0.01299783 0.02926335 0.00375106 0.00321892 0.00756683 0.00211975 0.00727997 0.01018664 0.04792588 0.00703625 0.00697691 0.00219269 0.02580131 0.03567003 0.01013432 0.00224049 
0.01335423 0.02899967 0.00370227 0.00314736 0.00749796 0.00208403 0.00734012 0.01022350 0.04739229 0.00679473 0.00650644 0.00218620 0.02618972 0.03639185 0.01028713 0.00229822 
0.01371412 0.02872669 0.00365410 0.00307462 0.00742876 0.00204685 0.00739887 0.01024951 0.04686916 0.00655189 0.00604807 0.00217840 0.02654718 0.03711991 0.01044585 0.00235539 
0.01407631 0.02844530 0.00360690 0.00300099 0.00735933 0.00200838 0.00745600 0.01026453 0.04635935 0.00630872 0.00560349 0.00216938 0.02687231 0.03785150 0.01061014 0.00241180 
0.01443961 0.02815641 0.00356102 0.00292677 0.00728974 0.00196880 0.00751130 0.01026843 0.04586555 0.00606619 0.00517435 0.00215921 0.02716389 0.03858402 0.01077966 0.00246722 
0.01480286 0.02786090 0.00351682 0.00285226 0.00722008 0.00192831 0.00756454 0.01026116 0.04539032 0.00582525 0.00476225 0.00214797 0.02742084 0.03931494 0.01095407 0.00252146 
0.01516487 0.02755966 0.00347463 0.00277777 0.00715042 0.00188709 0.00761550 0.01024269 0.04493600 0.00558687 0.00436873 0.00213573 0.02764222 0.04004185 0.01113305 0.00257430 
0.01552448 0.02725357 0.00343480 0.00270361 0.00708082 0.00184535 0.00766397 0.01021303 0.04450478 0.00535198 0.00399528 0.00212260 0.02782728 0.04076243 0.01131626 0.00262555 
0.01588056 0.02694350 0.00339766 0.00263007 0.00701135 0.00180329 0.00770973 0.01017226 0.04409858 0.00512149 0.00364330 0.00210866 0.02797538 0.04147450 0.01150336 0.00267499 
0.01623198 0.02663029 0.00336353 0.00255744 0.00694207 0.00176110 0.00775258 0.01012048 0.04371914 0.00489631 0.00331412 0.00209401 0.02808606 0.04217599 0.01169403 0.00272241 
0.01657768 0.02631479 0.00333273 0.00248602 0.00687301 0.00171898 0.00779231 0.01005785 0.04336795 0.00467730 0.00300899 0.00207875 0.02815902 0.04286494 0.01188791 0.00276764 
0.01691658 0.02599781 0.00330554 0.00241609 0.00680423 0.00167714 0.00782871 0.00998455 0.04304624 0.00446531 0.00272910 0.00206298 0.02819409 0.04353953 0.01208468 0.00281046 
0.01724768 0.02568015 0.00328225 0.00234792 0.00673575 0.00163578 0.00786161 0.00990084 0.04275501 0.00426114 0.00247550 0.00204681 0.02819128 0.04419808 0.01228397 0.00285070 
0.01757000 0.02536261 0.00326312 0.00228176 0.00666762 0.00159508 0.00789082 0.00980699 0.04249497 0.00406555 0.00224918 0.00203033 0.02815073 0.04483903 0.01248544 0.00288818 
0.01788261 0.02504594 0.00324839 0.00221788 0.00659985 0.00155525 0.00791615 0.00970331 0.04226660 0.00387928 0.00205103 0.00201365 0.02807273 0.04546095 0.01268873 0.00292272 
0.01818464 0.02473088 0.00323828 0.00215650 0.00653247 0.00151648 0.00793745 0.00959016 0.04207010 0.00370301 0.00188182 0.00199687 0.02795774 0.04606256 0.01289347 0.00295417 
0.01847526 0.02441816 0.00323300 0.00209785 0.00646549 0.00147893 0.00795455 0.00946793 0.04190539 0.00353737 0.00174223 0.00198009 0.02780633 0.04664269 0.01309928 0.00298236 
0.01875370 0.02410849 0.00323271 0.00204213 0.00639892 0.00144280 0.00796731 0.00933705 0.04177216 0.00338297 0.00163281 0.00196341 0.02761922 0.04720034 0.01330579 0.00300717 
0.01901924 0.02380254 0.00323756 0.00198952 0.00633277 0.00140825 0.00797558 0.00919797 0.04166981 0.00324032 0.00155403 0.00194691 0.02739728 0.04773461 0.01351260 0.00302846 
0.01927124 0.02350100 0.00324766 0.00194021 0.00626703 0.00137544 0.00797926 0.00905119 0.04159751 0.00310993 0.00150621 0.00193070 0.02714147 0.04824476 0.01371931 0.00304611 
0.01950909 0.02320450 0.00326312 0.00189434 0.00620171 0.00134452 0.00797822 0.00889722 0.04155417 0.00299221 0.00148958 0.00191485 0.02685291 0.04873015 0.01392551 0.00306002 
0.01973228 0.02291367 0.00328400 0.00185204 0.00613681 0.00131565 0.00797237 0.00873660 0.04153847 0.00288756 0.00150426 0.00189944 0.02653281 0.04919030 0.01413080 0.00307011 
0.01994033 0.02262914 0.00331032 0.00181343 0.00607231 0.00128894 0.00796163 0.00856991 0.04154889 0.00279627 0.00155022 0.00188456 0.02618252 0.04962483 0.01433476 0.00307629 
0.02013285 0.02235151 0.00334209 0.00177860 0.00600820 0.00126452 0.00794593 0.00839773 0.04158368 0.00271861 0.00162736 0.00187026 0.02580347 0.05003350 0.01453696 0.00307852 
0.02030950 0.02208136 0.00337929 0.00174762 0.00594449 0.00124251 0.00792522 0.00822068 0.04164089 0.00265478 0.00173542 0.00185661 0.02539720 0.05041617 0.01473698 0.00307674 
0.02047001 0.02181926 0.00342185 0.00172055 0.00588115 0.00122300 0.00789947 0.00803937 0.04171842 0.00260492 0.00187406 0.00184368 0.02496533 0.05077284 0.01493439 0.00307094 
0.02061418 0.02156579 0.00346970 0.00169741 0.00581818 0.00120608 0.00786867 0.00785445 0.04181401 0.00256911 0.00204280 0.00183150 0.02450958 0.05110359 0.01512876 0.00306111 
0.02074186 0.02132148 0.00352270 0.00167821 0.00575558 0.00119183 0.00783281 0.00766656 0.04192523 0.00254737 0.00224108 0.00182012 0.02403174 0.05140863 0.01531965 0.00304725 
0.02085298 0.02108689 0.00358073 0.00166295 0.00569332 0.00118030 0.00779193 0.00747637 0.04204959 0.00253966 0.00246822 0.00180957 0.02353367 0.05168826 0.01550666 0.00302939 
0.02094751 0.02086255 0.00364360 0.00165159 0.00563141 0.00117156 0.00774606 0.00728455 0.04218445 0.00254588 0.00272341 0.00179989 0.02301729 0.05194286 0.01568936 0.00300758 
0.02102551 0.02064898 0.00371110 0.00164409 0.00556985 0.00116563 0.00769527 0.00709175 0.04232713 0.00256588 0.00300577 0.00179109 0.02248459 0.05217294 0.01586734 0.00298188 
0.02108706 0.02044672 0.00378301 0.00164038 0.00550863 0.00116254 0.00763964 0.00689866 0.04247490 0.00259945 0.00331432 0.00178318 0.02193759 0.05237905 0.01604021 0.00295238 
0.02113233 0.02025628 0.00385908 0.00164037 0.00544776 0.00116230 0.00757927 0.00670595 0.04262500 0.00264632 0.00364798 0.00177618 0.02137837 0.05256186 0.01620757 0.00291917 
0.02116151 0.02007817 0.00393901 0.00164395 0.00538725 0.00116491 0.00751428 0.00651428 0.04277466 0.00270618 0.00400559 0.00177007 0.02080901 0.05272209 0.01636905 0.00288237 
0.02117487 0.01991290 0.00402252 0.00165101 0.00532712 0.00117035 0.00744482 0.00632431 0.04292115 0.00277864 0.00438589 0.00176486 0.02023166 0.05286053 0.01652432 0.00284211 
0.02117271 0.01976098 0.00410926 0.00166141 0.00526738 0.00117860 0.00737105 0.00613670 0.04306176 0.00286330 0.00478756 0.00176053 0.01964845 0.05297805 0.01667302 0.00279855 
0.02115538 0.01962291 0.00419891 0.00167499 0.00520806 0.00118961 0.00729316 0.00595208 0.04319388 0.00295967 0.00520921 0.00175705 0.01906154 0.05307556 0.01681487 0.00275186 
0.02112325 0.01949921 0.00429109 0.00169161 0.00514920 0.00120334 0.00721135 0.00577110 0.04331497 0.00306726 0.00564938 0.00175441 0.01847309 0.05315403 0.01694957 0.00270221 
0.02107676 0.01939036 0.00438542 0.00171107 0.00509082 0.00121973 0.00712584 0.00559435 0.04342259 0.00318551 0.00610655 0.00175257 0.01788525 0.05321447 0.01707689 0.00264983 
0.02101637 0.01929688 0.00448153 0.00173319 0.00503298 0.00123869 0.00703687 0.00542245 0.04351446 0.00331381 0.00657917 0.00175149 0.01730018 0.05325796 0.01719659 0.00259490 
0.02094255 0.01921925 0.00457899 0.00175779 0.00497573 0.00126014 0.00694471 0.00525597 0.04358844 0.00345155 0.00706561 0.00175114 0.01672000 0.05328558 0.01730851 0.00253768 
0.02085583 0.01915797 0.00467741 0.00178464 0.00491912 0.00128400 0.00684963 0.00509548 0.04364256 0.00359806 0.00756424 0.00175147 0.01614680 0.05329847 0.01741248 0.00247840 
0.02075674 0.01911352 0.00477636 0.00181356 0.00486323 0.00131016 0.00675192 0.00494150 0.04367503 0.00375265 0.00807339 0.00175244 0.01558266 0.05329777 0.01750841 0.00241730 
0.02064583 0.01908641 0.00487541 0.00184431 0.00480811 0.00133849 0.00665189 0.00479456 0.04368428 0.00391459 0.00859134 0.00175400 0.01502961 0.05328467 0.01759623 0.00235467 
0.02052367 0.01907710 0.00497414 0.00187668 0.00475386 0.00136889 0.00654986 0.00465514 0.04366893 0.00408316 0.00911641 0.00175609 0.01448964 0.05326035 0.01767591 0.00229078 
0.02039086 0.01908607 0.00507212 0.00191045 0.00470056 0.00140123 0.00644616 0.00452370 0.04362784 0.00425758 0.00964686 0.00175867 0.01396468 0.05322604 0.01774747 0.00222589 
0.02024798 0.01911380 0.00516892 0.00194540 0.00464829 0.00143536 0.00634114 0.00440069 0.04356010 0.00443708 0.01018098 0.00176168 0.01345661 0.05318295 0.01781098 0.00216032 
0.02009563 0.01916072 0.00526413 0.00198131 0.00459716 0.00147115 0.00623516 0.00428650 0.04346507 0.00462087 0.01071708 0.00176506 0.01296724 0.05313230 0.01786655 0.00209436 
0.01993442 0.01922730 0.00535732 0.00201796 0.00454725 0.00150846 0.00612857 0.00418153 0.04334231 0.00480816 0.01125345 0.00176878 0.01249831 0.05307532 0.01791434 0.00202829 
0.01976494 0.01931395 0.00544810 0.00205514 0.00449869 0.00154713 0.00602173 0.00408611 0.04319168 0.00499815 0.01178843 0.00177278 0.01205149 0.05301323 0.01795455 0.00196244 
0.01958781 0.01942111 0.00553607 0.00209264 0.00445157 0.00158700 0.00591504 0.00400057 0.04301325 0.00519002 0.01232038 0.00177700 0.01162838 0.05294725 0.01798744 0.00189711 
0.01940360 0.01954915 0.00562085 0.00213025 0.00440600 0.00162793 0.00580885 0.00392518 0.04280739 0.00538299 0.01284770 0.00178141 0.01123047 0.05287860 0.01801332 0.00183259 
0.01921293 0.01969847 0.00570207 0.00216778 0.00436210 0.00166975 0.00570354 0.00386021 0.04257467 0.00557626 0.01336883 0.00178595 0.01085918 0.05280847 0.01803251 0.00176921 
0.01901636 0.01986940 0.00577939 0.00220505 0.00431997 0.00171230 0.00559949 0.00380588 0.04231595 0.00576906 0.01388227 0.00179060 0.01051582 0.05273806 0.01804543 0.00170725 
0.01881447 0.02006229 0.00585247 0.00224188 0.00427974 0.00175542 0.00549707 0.00376238 0.04203229 0.00596061 0.01438656 0.00179532 0.01020160 0.05266854 0.01805251 0.00164701 
0.01860782 0.02027742 0.00592100 0.00227809 0.00424151 0.00179896 0.00539664 0.00372987 0.04172501 0.00615016 0.01488031 0.00180006 0.00991764 0.05260107 0.01805423 0.00158879 
0.01839696 0.02051505 0.00598469 0.00231355 0.00420539 0.00184275 0.00529856 0.00370847 0.04139561 0.00633699 0.01536219 0.00180481 0.00966494 0.05253678 0.01805111 0.00153287 
0.01818242 0.02077543 0.00604328 0.00234810 0.00417149 0.00188663 0.00520319 0.00369828 0.04104583 0.00652040 0.01583095 0.00180955 0.00944439 0.05247680 0.01804371 0.00147953 
0.01796472 0.02105874 0.00609654 0.00238162 0.00413991 0.00193046 0.00511086 0.00369937 0.04067758 0.00669970 0.01628542 0.00181425 0.00925676 0.05242221 0.01803262 0.00142903 
0.01774437 0.02136512 0.00614423 0.00241399 0.00411074 0.00197407 0.00502191 0.00371177 0.04029294 0.00687425 0.01672450 0.00181890 0.00910271 0.05237410 0.01801847 0.00138161 
0.01752185 0.02169469 0.00618618 0.00244512 0.00408407 0.00201733 0.00493663 0.00373548 0.03989417 0.00704344 0.01714717 0.00182350 0.00898277 0.05233350 0.01800193 0.00133753 
0.01729765 0.02204748 0.00622223 0.00247492 0.00405998 0.00206009 0.00485534 0.00377048 0.03948363 0.00720669 0.01755252 0.00182805 0.00889735 0.05230144 0.01798367 0.00129701 
0.01707223 0.02242352 0.00625223 0.00250331 0.00403854 0.00210221 0.00477830 0.00381671 0.03906383 0.00736348 0.01793969 0.00183255 0.00884673 0.05227892 0.01796440 0.00126025 
0.01684602 0.02282274 0.00627609 0.00253024 0.00401982 0.00214356 0.00470579 0.00387408 0.03863736 0.00751330 0.01830795 0.00183701 0.00883107 0.05226690 0.01794485 0.00122746 
0.01661947 0.02324504 0.00629373 0.00255568 0.00400387 0.00218401 0.00463803 0.00394248 0.03820688 0.00765570 0.01865666 0.00184144 0.00885038 0.05226633 0.01792575 0.00119880 
0.01639300 0.02369024 0.00630510 0.00257959 0.00399072 0.00222345 0.00457524 0.00402178 0.03777512 0.00779029 0.01898525 0.00184587 0.00890456 0.05227811 0.01790785 0.00117444 
0.01616701 0.02415812 0.00631017 0.00260196 0.00398040 0.00226176 0.00451763 0.00411181 0.03734480 0.00791669 0.01929328 0.00185032 0.00899336 0.05230314 0.01789189 0.00115450 
0.01594191 0.02464837 0.00630896 0.00262280 0.00397292 0.00229884 0.00446535 0.00421239 0.03691870 0.00803461 0.01958038 0.00185482 0.00911643 0.05234225 0.01787865 0.00113912 
0.01571808 0.02516062 0.00630150 0.00264213 0.00396827 0.00233460 0.00441856 0.00432329 0.03649953 0.00814379 0.01984629 0.00185940 0.00927324 0.05239627 0.01786885 0.00112838 
0.01549589 0.02569443 0.00628785 0.00265997 0.00396645 0.00236894 0.00437737 0.00444429 0.03608999 0.00824401 0.02009084 0.00186410 0.00946316 0.05246598 0.01786323 0.00112236 
0.01527573 0.02624930 0.00626811 0.00267638 0.00396740 0.00240178 0.00434187 0.00457512 0.03569270 0.00833513 0.02031397 0.00186897 0.00968544 0.05255213 0.01786253 0.00112111 
0.01505794 0.02682464 0.00624238 0.00269140 0.00397109 0.00243306 0.00431213 0.00471552 0.03531021 0.00841705 0.02051571 0.00187404 0.00993917 0.05265544 0.01786743 0.00112467 
0.01484290 0.02741977 0.00621080 0.00270510 0.00397744 0.00246270 0.00428819 0.00486517 0.03494496 0.00848971 0.02069618 0.00187937 0.01022333 0.05277657 0.01787862 0.00113304 
0.01463096 0.02803398 0.00617355 0.00271757 0.00398636 0.00249066 0.00427005 0.00502377 0.03459924 0.00855313 0.02085558 0.00188500 0.01053677 0.05291618 0.01789675 0.00114620 
0.01442246 0.02866643 0.00613080 0.00272888 0.00399775 0.00251689 0.00425770 0.00519097 0.03427521 0.00860735 0.02099422 0.00189098 0.01087823 0.05307484 0.01792242 0.00116413 
0.01421775 0.02931624 0.00608275 0.00273915 0.00401150 0.00254136 0.00425108 0.00536644 0.03397487 0.00865249 0.02111249 0.00189737 0.01124632 0.05325311 0.01795620 0.00118675 
0.01401719 0.02998243 0.00602964 0.00274845 0.00402745 0.00256403 0.00425014 0.00554980 0.03370003 0.00868872 0.02121085 0.00190421 0.01163955 0.05345149 0.01799863 0.00121400 
0.01382111 0.03066396 0.00597170 0.00275692 0.00404545 0.00258489 0.00425476 0.00574067 0.03345229 0.00871623 0.02128986 0.00191155 0.01205630 0.05367043 0.01805018 0.00124577 
0.01362986 0.03135970 0.00590920 0.00276466 0.00406534 0.00260392 0.00426482 0.00593865 0.03323305 0.00873529 0.02135015 0.00191945 0.01249487 0.05391032 0.01811127 0.00128193 
0.01344379 0.03206845 0.00584241 0.00277180 0.00408691 0.00262114 0.00428018 0.00614334 0.03304350 0.00874621 0.02139242 0.00192796 0.01295344 0.05417149 0.01818228 0.00132234 
0.01326325 0.03278894 0.00577162 0.00277844 0.00410995 0.00263653 0.00430064 0.00635432 0.03288456 0.00874934 0.02141743 0.00193711 0.01343013 0.05445422 0.01826350 0.00136684 
0.01308857 0.03351983 0.00569712 0.00278473 0.00413426 0.00265012 0.00432602 0.00657114 0.03275693 0.00874508 0.02142601 0.00194695 0.01392293 0.05475872 0.01835519 0.00141525 
0.01292012 0.03425971 0.00561923 0.00279077 0.00415958 0.00266192 0.00435609 0.00679337 0.03266106 0.00873386 0.02141907 0.00195753 0.01442978 0.05508511 0.01845751 0.00146737 
0.01275824 0.03500710 0.00553826 0.00279669 0.00418567 0.00267197 0.00439061 0.00702055 0.03259715 0.00871615 0.02139753 0.00196887 0.01494856 0.05543345 0.01857056 0.00152298 
0.01260328 0.03576046 0.00545454 0.00280261 0.00421225 0.00268029 0.00442932 0.00725221 0.03256512 0.00869246 0.02136241 0.00198100 0.01547707 0.05580371 0.01869439 0.00158185 
0.01245559 0.03651821 0.00536840 0.00280865 0.00423906 0.00268694 0.00447194 0.00748788 0.03256468 0.00866334 0.02131473 0.00199396 0.01601306 0.05619579 0.01882892 0.00164374 
0.01231552 0.03727869 0.00528016 0.00281492 0.00426580 0.00269196 0.00451817 0.00772707 0.03259523 0.00862936 0.02125558 0.00200775 0.01655423 0.05660947 0.01897406 0.00170838 
0.01218343 0.03804022 0.00519017 0.00282152 0.00429218 0.00269540 0.00456771 0.00796929 0.03265598 0.00859111 0.02118607 0.00202239 0.01709827 0.05704444 0.01912959 0.00177552 
0.01205965 0.03880105 0.00509874 0.00282855 0.00431789 0.00269731 0.00462022 0.00821403 0.03274585 0.00854920 0.02110733 0.00203790 0.01764282 0.05750029 0.01929523 0.00184487 
0.01194453 0.03955943 0.00500623 0.00283611 0.00434262 0.00269777 0.00467539 0.00846079 0.03286356 0.00850427 0.02102055 0.00205425 0.01818551 0.05797651 0.01947063 0.00191615 
0.01183842 0.04031354 0.00491295 0.00284427 0.00436606 0.00269683 0.00473286 0.00870905 0.03300759 0.00845697 0.02092688 0.00207146 0.01872399 0.05847245 0.01965533 0.00198906 
0.01174163 0.04106157 0.00481922 0.00285311 0.00438787 0.00269458 0.00479230 0.00895827 0.03317621 0.00840795 0.02082754 0.00208949 0.01925588 0.05898735 0.01984884 0.00206331 
0.01165450 0.04180167 0.00472538 0.00286270 0.00440775 0.00269106 0.00485334 0.00920792 0.03336750 0.00835788 0.02072372 0.00210833 0.01977885 0.05952034 0.02005054 0.00213860 
0.01157735 0.04253199 0.00463173 0.00287307 0.00442538 0.00268638 0.00491565 0.00945747 0.03357936 0.00830743 0.02061662 0.00212793 0.02029058 0.06007040 0.02025976 0.00221462 
0.01151047 0.04325069 0.00453857 0.00288428 0.00444042 0.00268059 0.00497885 0.00970635 0.03380953 0.00825725 0.02050745 0.00214827 0.02078881 0.06063638 0.02047577 0.00229108 
0.01145417 0.04395592 0.00444620 0.00289635 0.00445257 0.00267377 0.00504261 0.00995401 0.03405561 0.00820800 0.02039740 0.00216928 0.02127132 0.06121701 0.02069774 0.00236768 
0.01140872 0.04464585 0.00435491 0.00290929 0.00446153 0.00266601 0.00510657 0.01019988 0.03431506 0.00816033 0.02028765 0.00219092 0.02173595 0.06181084 0.02092478 0.00244413 
0.01137439 0.04531866 0.00426497 0.00292310 0.00446698 0.00265738 0.00517040 0.01044340 0.03458528 0.00811487 0.02017935 0.00221310 0.02218062 0.06241633 0.02115594 0.00252013 
0.01135142 0.04597258 0.00417664 0.00293779 0.00446864 0.00264796 0.00523376 0.01068399 0.03486354 0.00807221 0.02007364 0.00223576 0.02260334 0.06303176 0.02139021 0.00259540 
0.01134003 0.04660588 0.00409018 0.00295331 0.00446623 0.00263783 0.00529633 0.01092106 0.03514711 0.00803296 0.01997164 0.00225881 0.02300222 0.06365527 0.02162652 0.00266967 
0.01134043 0.04721685 0.00400583 0.00296964 0.00445948 0.00262705 0.00535781 0.01115402 0.03543320 0.00799767 0.01987443 0.00228216 0.02337548 0.06428489 0.02186375 0.00274268 
0.01135280 0.04780385 0.00392381 0.00298672 0.00444814 0.00261571 0.00541788 0.01138228 0.03571902 0.00796687 0.01978304 0.00230571 0.02372144 0.06491847 0.02210073 0.00281418 
0.01137730 0.04836532 0.00384434 0.00300449 0.00443198 0.00260387 0.00547629 0.01160524 0.03600181 0.00794105 0.01969850 0.00232936 0.02403857 0.06555374 0.02233624 0.00288393 
0.01141406 0.04889974 0.00376762 0.00302287 0.00441078 0.00259160 0.00553276 0.01182230 0.03627885 0.00792066 0.01962175 0.00235298 0.02432548 0.06618830 0.02256905 0.00295171 
0.01146318 0.04940568 0.00369384 0.00304179 0.00438436 0.00257896 0.00558706 0.01203286 0.03654751 0.00790613 0.01955373 0.00237646 0.02458090 0.06681962 0.02279789 0.00301730 
0.01152473 0.04988182 0.00362316 0.00306114 0.00435253 0.00256602 0.00563896 0.01223631 0.03680524 0.00789782 0.01949529 0.00239968 0.02480376 0.06744505 0.02302145 0.00308053 
0.01159876 0.05032689 0.00355576 0.00308081 0.00431515 0.00255284 0.00568825 0.01243205 0.03704961 0.00789605 0.01944728 0.00242251 0.02499311 0.06806183 0.02323842 0.00314121 
0.01168528 0.05073976 0.00349177 0.00310069 0.00427210 0.00253946 0.00573477 0.01261947 0.03727835 0.00790111 0.01941045 0.00244480 0.02514820 0.06866711 0.02344750 0.00319919 
0.01178426 0.05111938 0.00343134 0.00312066 0.00422328 0.00252594 0.00577837 0.01279798 0.03748936 0.00791320 0.01938552 0.00246643 0.02526846 0.06925792 0.02364735 0.00325435 
0.01189566 0.05146484 0.00337458 0.00314056 0.00416864 0.00251232 0.00581890 0.01296697 0.03768070 0.00793251 0.01937316 0.00248725 0.02535347 0.06983123 0.02383668 0.00330656 
0.01201939 0.05177531 0.00332161 0.00316028 0.00410811 0.00249864 0.00585627 0.01312586 0.03785069 0.00795915 0.01937396 0.00250712 0.02540305 0.07038395 0.02401417 0.00335573 
0.01215533 0.05205013 0.00327251 0.00317965 0.00404172 0.00248494 0.00589041 0.01327408 0.03799784 0.00799318 0.01938849 0.00252589 0.02541716 0.07091294 0.02417856 0.00340179 
0.01230332 0.05228874 0.00322739 0.00319853 0.00396947 0.00247125 0.00592125 0.01341105 0.03812092 0.00803460 0.01941723 0.00254343 0.02539599 0.07141501 0.02432860 0.00344468 
0.01246317 0.05249072 0.00318630 0.00321677 0.00389142 0.00245759 0.00594878 0.01353622 0.03821897 0.00808335 0.01946063 0.00255960 0.02533991 0.07188697 0.02446309 0.00348438 
0.01263465 0.05265580 0.00314932 0.00323420 0.00380767 0.00244398 0.00597300 0.01364905 0.03829131 0.00813933 0.01951906 0.00257424 0.02524950 0.07232563 0.02458086 0.00352088 
0.01281752 0.05278383 0.00311649 0.00325068 0.00371834 0.00243045 0.00599393 0.01374902 0.03833753 0.00820237 0.01959285 0.00258723 0.02512551 0.07272781 0.02468081 0.00355419 
0.01301148 0.05287482 0.00308786 0.00326604 0.00362359 0.00241701 0.00601162 0.01383565 0.03835753 0.00827225 0.01968229 0.00259844 0.02496892 0.07309039 0.02476189 0.00358434 
0.01321620 0.05292892 0.00306347 0.00328012 0.00352362 0.00240366 0.00602617 0.01390845 0.03835152 0.00834869 0.01978759 0.00260773 0.02478087 0.07341030 0.02482311 0.00361139 
0.01343133 0.05294642 0.00304333 0.00329279 0.00341865 0.00239040 0.00603766 0.01396699 0.03832001 0.00843135 0.01990893 0.00261499 0.02456272 0.07368455 0.02486358 0.00363540 
0.01365648 0.05292777 0.00302747 0.00330389 0.00330894 0.00237725 0.00604622 0.01401086 0.03826384 0.00851986 0.02004644 0.00262011 0.02431598 0.07391027 0.02488247 0.00365647 
0.01389123 0.05287356 0.00301588 0.00331327 0.00319481 0.00236419 0.00605199 0.01403968 0.03818413 0.00861378 0.02020021 0.00262297 0.02404237 0.07408470 0.02487904 0.00367470 
0.01413514 0.05278452 0.00300858 0.00332082 0.00307658 0.00235121 0.00605516 0.01405313 0.03808236 0.00871263 0.02037027 0.00262348 0.02374377 0.07420526 0.02485265 0.00369023 
0.01438771 0.05266154 0.00300556 0.00332638 0.00295462 0.00233832 0.00605589 0.01405091 0.03796027 0.00881590 0.02055665 0.00262157 0.02342220 0.07426951 0.02480276 0.00370319 
0.01464846 0.05250563 0.00300679 0.00332986 0.00282933 0.00232549 0.00605441 0.01403277 0.03781992 0.00892301 0.02075931 0.00261715 0.02307986 0.07427523 0.02472891 0.00371375 
0.01491684 0.05231796 0.00301226 0.00333114 0.00270116 0.00231272 0.00605092 0.01399853 0.03766365 0.00903338 0.02097819 0.00261017 0.02271909 0.07422040 0.02463079 0.00372207 
0.01519232 0.05209982 0.00302195 0.00333012 0.00257057 0.00229997 0.00604566 0.01394804 0.03749409 0.00914636 0.02121321 0.00260057 0.02234235 0.07410324 0.02450818 0.00372833 
0.01547429 0.05185265 0.00303581 0.00332673 0.00243806 0.00228725 0.00603887 0.01388122 0.03731410 0.00926130 0.02146426 0.00258834 0.02195223 0.07392223 0.02436095 0.00373274 
0.01576218 0.05157800 0.00305382 0.00332089 0.00230416 0.00227451 0.00603082 0.01379805 0.03712682 0.00937750 0.02173122 0.00257344 0.02155142 0.07367613 0.02418914 0.00373548 
0.01605536 0.05127754 0.00307592 0.00331253 0.00216943 0.00226176 0.00602176 0.01369858 0.03693559 0.00949426 0.02201395 0.00255588 0.02114271 0.07336400 0.02399288 0.00373678 
0.01635319 0.05095307 0.00310207 0.00330163 0.00203445 0.00224895 0.00601196 0.01358290 0.03674395 0.00961086 0.02231229 0.00253567 0.02072896 0.07298519 0.02377241 0.00373684 
0.01665501 0.05060649 0.00313221 0.00328815 0.00189985 0.00223607 0.00600169 0.01345121 0.03655563 0.00972656 0.02262608 0.00251284 0.02031310 0.07253941 0.02352812 0.00373590 
0.01696016 0.05023979 0.00316629 0.00327208 0.00176625 0.00222311 0.00599122 0.01330376 0.03637451 0.00984063 0.02295516 0.00248744 0.01989810 0.07202667 0.02326051 0.00373417 
0.01726795 0.04985506 0.00320423 0.00325341 0.00163431 0.00221003 0.00598083 0.01314088 0.03620457 0.00995233 0.02329936 0.00245954 0.01948696 0.07144738 0.02297020 0.00373188 
0.01757767 0.04945449 0.00324597 0.00323217 0.00150472 0.00219681 0.00597077 0.01296297 0.03604993 0.01006093 0.02365852 0.00242923 0.01908272 0.07080227 0.02265794 0.00372926 
0.01788863 0.04904033 0.00329143 0.00320840 0.00137816 0.00218345 0.00596131 0.01277053 0.03591474 0.01016569 0.02403249 0.00239659 0.01868837 0.07009247 0.02232458 0.00372653 
0.01820009 0.04861490 0.00334053 0.00318214 0.00125534 0.00216991 0.00595270 0.01256411 0.03580320 0.01026592 0.02442111 0.00236177 0.01830692 0.06931947 0.02197111 0.00372391 
0.01851134 0.04818056 0.00339318 0.00315345 0.00113699 0.00215619 0.00594517 0.01234438 0.03571950 0.01036093 0.02482426 0.00232489 0.01794133 0.06848515 0.02159862 0.00372161 
0.01882162 0.04773975 0.00344930 0.00312242 0.00102385 0.00214226 0.00593894 0.01211207 0.03566781 0.01045006 0.02524181 0.00228611 0.01759450 0.06759176 0.02120830 0.00371985 
0.01913021 0.04729491 0.00350878 0.00308915 0.00091664 0.00212812 0.00593424 0.01186799 0.03565223 0.01053268 0.02567365 0.00224561 0.01726928 0.06664194 0.02080147 0.00371882 
0.01943635 0.04684854 0.00357154 0.00305375 0.00081612 0.00211375 0.00593125 0.01161304 0.03567677 0.01060820 0.02611969 0.00220358 0.01696840 0.06563870 0.02037951 0.00371871 
0.01973929 0.04640313 0.00363744 0.00301633 0.00072302 0.00209915 0.00593014 0.01134821 0.03574530 0.01067607 0.02657986 0.00216023 0.01669450 0.06458542 0.01994393 0.00371972 
0.02003828 0.04596119 0.00370640 0.00297705 0.00063810 0.00208431 0.00593107 0.01107455 0.03586153 0.01073579 0.02705410 0.00211578 0.01645012 0.06348585 0.01949631 0.00372200 
0.02033256 0.04552519 0.00377828 0.00293605 0.00056209 0.00206924 0.00593416 0.01079321 0.03602896 0.01078689 0.02754236 0.00207047 0.01623762 0.06234407 0.01903831 0.00372571 
0.02062138 0.04509763 0.00385296 0.00289350 0.00049571 0.00205392 0.00593953 0.01050541 0.03625088 0.01082898 0.02804463 0.00202456 0.01605926 0.06116452 0.01857166 0.00373100 
0.02090398 0.04468095 0.00393032 0.00284956 0.00043968 0.00203837 0.00594726 0.01021242 0.03653031 0.01086172 0.02856089 0.00197831 0.01591708 0.05995192 0.01809815 0.00373799 
0.02117962 0.04427753 0.00401021 0.00280443 0.00039471 0.00202258 0.00595740 0.00991561 0.03686997 0.01088483 0.02909114 0.00193200 0.01581298 0.05871133 0.01761963 0.00374680 
0.02144754 0.04388975 0.00409250 0.00275829 0.00036148 0.00200658 0.00596999 0.00961641 0.03727228 0.01089809 0.02963540 0.00188592 0.01574867 0.05744808 0.01713800 0.00375752 
0.02170701 0.04351988 0.00417704 0.00271136 0.00034065 0.00199037 0.00598502 0.00931630 0.03773932 0.01090136 0.03019369 0.00184037 0.01572562 0.05616773 0.01665518 0.00377024 
0.02195729 0.04317013 0.00426366 0.00266383 0.00033285 0.00197396 0.00600249 0.00901682 0.03827277 0.01089456 0.03076603 0.00179565 0.01574513 0.05487609 0.01617316 0.00378501 
0.02219766 0.04284263 0.00435223 0.00261591 0.00033870 0.00195737 0.00602233 0.00871956 0.03887396 0.01087768 0.03135246 0.00175209 0.01580826 0.05357918 0.01569388 0.00380188 
0.02242739 0.04253941 0.00444256 0.00256783 0.00035876 0.00194063 0.00604447 0.00842615 0.03954379 0.01085079 0.03195298 0.00170999 0.01591582 0.05228316 0.01521936 0.00382088 
0.02264580 0.04226238 0.00453449 0.00251981 0.00039357 0.00192376 0.00606882 0.00813825 0.04028273 0.01081405 0.03256761 0.00166969 0.01606841 0.05099438 0.01475156 0.00384203 
0.02285218 0.04201337 0.00462785 0.00247207 0.00044364 0.00190677 0.00609524 0.00785757 0.04109083 0.01076765 0.03319635 0.00163148 0.01626638 0.04971925 0.01429247 0.00386531 
0.02304586 0.04179405 0.00472245 0.00242482 0.00050941 0.00188970 0.00612359 0.00758581 0.04196766 0.01071191 0.03383917 0.00159571 0.01650983 0.04846428 0.01384402 0.00389070 
0.02322619 0.04160597 0.00481810 0.00237829 0.00059130 0.00187258 0.00615369 0.00732472 0.04291235 0.01064719 0.03449602 0.00156269 0.01679862 0.04723602 0.01340815 0.00391816 
0.02339253 0.04145054 0.00491462 0.00233270 0.00068968 0.00185543 0.00618536 0.00707602 0.04392356 0.01057394 0.03516681 0.00153272 0.01713233 0.04604101 0.01298672 0.00394763 
0.02354426 0.04132902 0.00501182 0.00228827 0.00080485 0.00183829 0.00621837 0.00684143 0.04499949 0.01049266 0.03585143 0.00150612 0.01751033 0.04488577 0.01258157 0.00397905 
0.02368079 0.04124251 0.00510948 0.00224520 0.00093708 0.00182119 0.00625250 0.00662268 0.04613786 0.01040395 0.03654970 0.00148318 0.01793170 0.04377674 0.01219445 0.00401232 
0.02380155 0.04119195 0.00520741 0.00220369 0.00108656 0.00180417 0.00628750 0.00642144 0.04733594 0.01030847 0.03726140 0.00146418 0.01839532 0.04272025 0.01182705 0.00404735 
0.02390602 0.04117811 0.00530541 0.00216396 0.00125343 0.00178726 0.00632311 0.00623938 0.04859055 0.01020693 0.03798624 0.00144941 0.01889979 0.04172248 0.01148101 0.00408401 
0.02399368 0.04120159 0.00540326 0.00212617 0.00143778 0.00177049 0.00635906 0.00607811 0.04989806 0.01010011 0.03872386 0.00143912 0.01944348 0.04078945 0.01115783 0.00412219 
0.02406407 0.04126281 0.00550076 0.00209053 0.00163962 0.00175390 0.00639508 0.00593917 0.05125441 0.00998886 0.03947385 0.00143355 0.02002455 0.03992692 0.01085895 0.00416173 
0.02411675 0.04136203 0.00559768 0.00205718 0.00185891 0.00173753 0.00643088 0.00582407 0.05265515 0.00987407 0.04023569 0.00143293 0.02064093 0.03914043 0.01058570 0.00420251 
0.02415132 0.04149930 0.00569383 0.00202630 0.00209554 0.00172141 0.00646617 0.00573423 0.05409541 0.00975668 0.04100877 0.00143746 0.02129033 0.03843520 0.01033930 0.00424434 
0.02416745 0.04167449 0.00578898 0.00199803 0.00234931 0.00170558 0.00650067 0.00567097 0.05556998 0.00963768 0.04179242 0.00144731 0.02197028 0.03781613 0.01012084 0.00428708 
0.02416481 0.04188732 0.00588291 0.00197251 0.00261999 0.00169008 0.00653408 0.00563555 0.05707330 0.00951810 0.04258582 0.00146265 0.02267811 0.03728775 0.00993131 0.00433054 
0.02414316 0.04213728 0.00597543 0.00194985 0.00290725 0.00167492 0.00656614 0.00562910 0.05859949 0.00939898 0.04338809 0.00148362 0.02341098 0.03685422 0.00977154 0.00437456 
0.02410229 0.04242372 0.00606630 0.00193016 0.00321070 0.00166016 0.00659658 0.00565266 0.06014242 0.00928142 0.04419821 0.00151031 0.02416590 0.03651926 0.00964226 0.00441894 
0.02404204 0.04274579 0.00615533 0.00191353 0.00352990 0.00164581 0.00662513 0.00570713 0.06169569 0.00916651 0.04501506 0.00154280 0.02493972 0.03628614 0.00954404 0.00446350 
0.02396231 0.04310246 0.00624231 0.00190005 0.00386431 0.00163192 0.00665154 0.00579330 0.06325270 0.00905537 0.04583737 0.00158114 0.02572919 0.03615766 0.00947732 0.00450806 
0.02386307 0.04349255 0.00632702 0.00188977 0.00421334 0.00161850 0.00667559 0.00591181 0.06480666 0.00894911 0.04666380 0.00162535 0.02653091 0.03613612 0.00944239 0.00455243 
0.02374434 0.04391470 0.00640927 0.00188273 0.00457633 0.00160559 0.00669708 0.00606317 0.06635067 0.00884885 0.04749284 0.00167542 0.02734143 0.03622329 0.00943939 0.00459642 
0.02360620 0.04436739 0.00648887 0.00187898 0.00495255 0.00159320 0.00671580 0.00624773 0.06787773 0.00875570 0.04832287 0.00173130 0.02815720 0.03642042 0.00946833 0.00463985 
0.02344880 0.04484895 0.00656562 0.00187852 0.00534121 0.00158138 0.00673160 0.00646569 0.06938077 0.00867076 0.04915215 0.00179291 0.02897464 0.03672820 0.00952906 0.00468254 
0.02327235 0.04535757 0.00663933 0.00188136 0.00574146 0.00157012 0.00674434 0.00671709 0.07085273 0.00859507 0.04997881 0.00186016 0.02979010 0.03714675 0.00962128 0.00472431 
0.02307715 0.04589131 0.00670983 0.00188747 0.00615239 0.00155946 0.00675390 0.00700181 0.07228657 0.00852969 0.05080085 0.00193289 0.03059995 0.03767562 0.00974456 0.00476500 
0.02286355 0.04644809 0.00677695 0.00189683 0.00657302 0.00154942 0.00676020 0.00731955 0.07367533 0.00847560 0.05161615 0.00201093 0.03140054 0.03831379 0.00989832 0.00480444 
0.02263196 0.04702573 0.00684052 0.00190938 0.00700234 0.00154000 0.00676318 0.00766985 0.07501216 0.00843376 0.05242249 0.00209408 0.03218826 0.03905966 0.01008182 0.00484247 
0.02238289 0.04762193 0.00690038 0.00192507 0.00743927 0.00153122 0.00676283 0.00805208 0.07629035 0.00840506 0.05321752 0.00218211 0.03295954 0.03991103 0.01029421 0.00487896 
0.02211690 0.04823430 0.00695639 0.00194381 0.00788270 0.00152310 0.00675916 0.00846542 0.07750343 0.00839033 0.05399879 0.00227473 0.03371087 0.04086514 0.01053449 0.00491376 
0.02183463 0.04886039 0.00700841 0.00196553 0.00833145 0.00151564 0.00675220 0.00890891 0.07864512 0.00839036 0.05476374 0.00237166 0.03443881 0.04191866 0.01080154 0.00494674 
0.02153678 0.04949765 0.00705631 0.00199010 0.00878433 0.00150885 0.00674203 0.00938139 0.07970943 0.00840582 0.05550975 0.00247257 0.03514005 0.04306770 0.01109410 0.00497780 
0.02122413 0.05014351 0.00709997 0.00201742 0.00924011 0.00150274 0.00672876 0.00988154 0.08069070 0.00843735 0.05623409 0.00257711 0.03581138 0.04430784 0.01141082 0.00500682 
0.02089753 0.05079534 0.00713929 0.00204736 0.00969752 0.00149731 0.00671253 0.01040789 0.08158358 0.00848547 0.05693397 0.00268488 0.03644973 0.04563411 0.01175021 0.00503371 
0.02055790 0.05145047 0.00717418 0.00207977 0.01015528 0.00149257 0.00669351 0.01095879 0.08238313 0.00855063 0.05760655 0.00279549 0.03705218 0.04704106 0.01211069 0.00505840 
0.02020620 0.05210625 0.00720453 0.00211451 0.01061208 0.00148851 0.00667190 0.01153244 0.08308480 0.00863319 0.05824894 0.00290852 0.03761599 0.04852274 0.01249059 0.00508081 
0.01984349 0.05276000 0.00723030 0.00215140 0.01106661 0.00148514 0.00664793 0.01212691 0.08368446 0.00873338 0.05885821 0.00302350 0.03813861 0.05007276 0.01288813 0.00510088 
0.01947085 0.05340906 0.00725140 0.00219029 0.01151753 0.00148246 0.00662187 0.01274010 0.08417848 0.00885138 0.05943142 0.00313998 0.03861766 0.05168430 0.01330149 0.00511859 
0.01908945 0.05405082 0.00726780 0.00223098 0.01196353 0.00148046 0.00659399 0.01336979 0.08456368 0.00898722 0.05996565 0.00325746 0.03905101 0.05335015 0.01372873 0.00513389 
0.01870050 0.05468268 0.00727946 0.00227331 0.01240327 0.00147914 0.00656461 0.01401365 0.08483738 0.00914086 0.06045796 0.00337546 0.03943673 0.05506274 0.01416790 0.00514677 
0.01830524 0.05530212 0.00728636 0.00231706 0.01283544 0.00147850 0.00653406 0.01466922 0.08499743 0.00931212 0.06090547 0.00349347 0.03977313 0.05681418 0.01461696 0.00515723 
0.01790499 0.05590668 0.00728848 0.00236205 0.01325876 0.00147853 0.00650268 0.01533394 0.08504221 0.00950074 0.06130535 0.00361096 0.04005877 0.05859631 0.01507384 0.00516527 
0.01750108 0.05649397 0.00728583 0.00240808 0.01367193 0.00147923 0.00647084 0.01600516 0.08497062 0.00970633 0.06165481 0.00372742 0.04029245 0.06040070 0.01553646 0.00517091 
0.01709488 0.05706170 0.00727843 0.00245493 0.01407372 0.00148059 0.00643892 0.01668017 0.08478212 0.00992841 0.06195120 0.00384232 0.04047323 0.06221876 0.01600269 0.00517420 
0.01668780 0.05760769 0.00726630 0.00250240 0.01446291 0.00148260 0.00640731 0.01735617 0.08447670 0.01016639 0.06219193 0.00395514 0.04060044 0.06404173 0.01647041 0.00517516 
0.01628127 0.05812985 0.00724948 0.00255028 0.01483831 0.00148527 0.00637640 0.01803033 0.08405492 0.01041956 0.06237455 0.00406535 0.04067368 0.06586073 0.01693748 0.00517385 
0.01587672 0.05862625 0.00722803 0.00259836 0.01519880 0.00148858 0.00634660 0.01869977 0.08351784 0.01068714 0.06249678 0.00417243 0.04069281 0.06766684 0.01740181 0.00517034 
0.01547560 0.05909506 0.00720201 0.00264643 0.01554330 0.00149252 0.00631831 0.01936160 0.08286710 0.01096821 0.06255646 0.00427588 0.04065794 0.06945111 0.01786128 0.00516470 
0.01507939 0.05953460 0.00717151 0.00269429 0.01587077 0.00149710 0.00629193 0.02001291 0.08210484 0.01126179 0.06255165 0.00437521 0.04056948 0.07120462 0.01831385 0.00515701 
0.01468953 0.05994334 0.00713661 0.00274173 0.01618025 0.00150230 0.00626784 0.02065082 0.08123370 0.01156680 0.06248059 0.00446993 0.04042809 0.07291854 0.01875747 0.00514736 
0.01430747 0.06031990 0.00709741 0.00278854 0.01647083 0.00150811 0.00624643 0.02127245 0.08025683 0.01188208 0.06234174 0.00455958 0.04023467 0.07458417 0.01919019 0.00513585 
0.01393464 0.06066305 0.00705404 0.00283453 0.01674168 0.00151454 0.00622807 0.02187498 0.07917785 0.01220637 0.06213379 0.00464371 0.03999040 0.07619295 0.01961009 0.00512258 
0.01357245 0.06097174 0.00700661 0.00287951 0.01699204 0.00152157 0.00621311 0.02245564 0.07800082 0.01253837 0.06185571 0.00472191 0.03969670 0.07773657 0.02001531 0.00510766 
0.01322229 0.06124506 0.00695525 0.00292329 0.01722120 0.00152920 0.00620189 0.02301173 0.07673025 0.01287669 0.06150668 0.00479378 0.03935521 0.07920696 0.02040411 0.00509119 
0.01288549 0.06148227 0.00690012 0.00296569 0.01742858 0.00153741 0.00619471 0.02354064 0.07537102 0.01321989 0.06108621 0.00485896 0.03896780 0.08059637 0.02077478 0.00507331 
0.01256337 0.06168281 0.00684136 0.00300653 0.01761363 0.00154622 0.00619187 0.02403986 0.07392841 0.01356650 0.06059407 0.00491711 0.03853658 0.08189739 0.02112575 0.00505413 
0.01225717 0.06184627 0.00677915 0.00304566 0.01777592 0.00155560 0.00619361 0.02450700 0.07240803 0.01391497 0.06003033 0.00496792 0.03806382 0.08310299 0.02145552 0.00503377 
0.01196810 0.06197240 0.00671364 0.00308292 0.01791509 0.00156555 0.00620018 0.02493979 0.07081579 0.01426375 0.05939538 0.00501113 0.03755201 0.08420657 0.02176271 0.00501235 
0.01169730 0.06206112 0.00664503 0.00311816 0.01803087 0.00157606 0.00621175 0.02533613 0.06915790 0.01461125 0.05868992 0.00504650 0.03700380 0.08520199 0.02204603 0.00499000 
0.01144584 0.06211249 0.00657349 0.00315125 0.01812308 0.00158713 0.00622850 0.02569403 0.06744078 0.01495588 0.05791497 0.00507385 0.03642198 0.08608359 0.02230435 0.00496684 
0.01121472 0.06212673 0.00649922 0.00318206 0.01819163 0.00159874 0.00625054 0.02601172 0.06567108 0.01529602 0.05707189 0.00509300 0.03580949 0.08684624 0.02253661 0.00494300 
0.01100487 0.06210420 0.00642241 0.00321047 0.01823652 0.00161090 0.00627796 0.02628758 0.06385561 0.01563009 0.05616234 0.00510385 0.03516940 0.08748537 0.02274191 0.00491860 
0.01081714 0.06204539 0.00634328 0.00323638 0.01825783 0.00162357 0.00631081 0.02652019 0.06200131 0.01595647 0.05518833 0.00510632 0.03450487 0.08799698 0.02291947 0.00489375 
0.01065227 0.06195093 0.00626201 0.00325971 0.01825574 0.00163677 0.00634909 0.02670832 0.06011522 0.01627362 0.05415217 0.00510037 0.03381913 0.08837765 0.02306863 0.00486857 
0.01051093 0.06182157 0.00617883 0.00328037 0.01823050 0.00165046 0.00639277 0.02685096 0.05820443 0.01658000 0.05305650 0.00508601 0.03311549 0.08862460 0.02318889 0.00484318 
0.01039370 0.06165815 0.00609395 0.00329828 0.01818248 0.00166465 0.00644178 0.02694730 0.05627607 0.01687411 0.05190428 0.00506330 0.03239730 0.08873567 0.02327984 0.00481768 
0.01030104 0.06146163 0.00600757 0.00331341 0.01811208 0.00167930 0.00649599 0.02699677 0.05433724 0.01715451 0.05069876 0.00503231 0.03166792 0.08870934 0.02334126 0.00479217 
0.01023335 0.06123306 0.00591991 0.00332570 0.01801983 0.00169441 0.00655526 0.02699899 0.05239501 0.01741981 0.04944348 0.00499320 0.03093071 0.08854474 0.02337301 0.00476675 
0.01019088 0.06097356 0.00583119 0.00333512 0.01790629 0.00170996 0.00661939 0.02695384 0.05045633 0.01766869 0.04814226 0.00494611 0.03018904 0.08824168 0.02337512 0.00474151 
0.01017381 0.06068433 0.00574161 0.00334165 0.01777214 0.00172592 0.00668815 0.02686142 0.04852807 0.01789991 0.04679919 0.00489128 0.02944621 0.08780061 0.02334775 0.00471655 
0.01018220 0.06036662 0.00565139 0.00334529 0.01761810 0.00174228 0.00676126 0.02672205 0.04661694 0.01811230 0.04541859 0.00482895 0.02870548 0.08722265 0.02329116 0.00469193 
0.01021601 0.06002173 0.00556073 0.00334605 0.01744495 0.00175900 0.00683842 0.02653629 0.04472946 0.01830478 0.04400501 0.00475940 0.02797002 0.08650957 0.02320578 0.00466774 
0.01027510 0.05965099 0.00546985 0.00334393 0.01725354 0.00177606 0.00691930 0.02630493 0.04287197 0.01847639 0.04256323 0.00468297 0.02724293 0.08566378 0.02309213 0.00464403 
0.01035922 0.05925577 0.00537893 0.00333898 0.01704478 0.00179342 0.00700352 0.02602896 0.04105053 0.01862622 0.04109817 0.00460000 0.02652717 0.08468835 0.02295088 0.00462087 
0.01046801 0.05883744 0.00528817 0.00333122 0.01681963 0.00181106 0.00709068 0.02570962 0.03927099 0.01875352 0.03961493 0.00451090 0.02582560 0.08358695 0.02278278 0.00459831 
0.01060100 0.05839738 0.00519777 0.00332072 0.01657909 0.00182893 0.00718037 0.02534833 0.03753889 0.01885760 0.03811875 0.00441607 0.02514090 0.08236388 0.02258873 0.00457639 
0.01075766 0.05793696 0.00510790 0.00330754 0.01632419 0.00184701 0.00727213 0.02494676 0.03585945 0.01893793 0.03661496 0.00431597 0.02447564 0.08102400 0.02236972 0.00455516 
0.01093730 0.05745755 0.00501874 0.00329174 0.01605601 0.00186524 0.00736550 0.02450672 0.03423762 0.01899407 0.03510899 0.00421107 0.02383219 0.07957277 0.02212683 0.00453464 
0.01113920 0.05696048 0.00493046 0.00327341 0.01577564 0.00188358 0.00745998 0.02403026 0.03267795 0.01902569 0.03360629 0.00410185 0.02321273 0.07801616 0.02186126 0.00451486 
0.01136249 0.05644705 0.00484321 0.00325265 0.01548421 0.00190199 0.00755509 0.02351958 0.03118467 0.01903262 0.03211235 0.00398883 0.02261928 0.07636067 0.02157429 0.00449584 
0.01160626 0.05591853 0.00475715 0.00322955 0.01518286 0.00192042 0.00765032 0.02297705 0.02976164 0.01901476 0.03063266 0.00387255 0.02205362 0.07461327 0.02126727 0.00447758 
0.01186947 0.05537615 0.00467241 0.00320422 0.01487273 0.00193881 0.00774514 0.02240520 0.02841235 0.01897218 0.02917265 0.00375353 0.02151735 0.07278140 0.02094165 0.00446009 
0.01215105 0.05482107 0.00458913 0.00317678 0.01455498 0.00195712 0.00783904 0.02180667 0.02713988 0.01890503 0.02773769 0.00363234 0.02101184 0.07087291 0.02059893 0.00444337 
0.01244980 0.05425442 0.00450742 0.00314736 0.01423075 0.00197528 0.00793151 0.02118427 0.02594696 0.01881362 0.02633306 0.00350954 0.02053824 0.06889601 0.02024067 0.00442741 
0.01276451 0.05367725 0.00442739 0.00311607 0.01390120 0.00199324 0.00802202 0.02054088 0.02483589 0.01869834 0.02496390 0.00338569 0.02009750 0.06685929 0.01986852 0.00441220 
0.01309386 0.05309056 0.00434915 0.00308306 0.01356745 0.00201093 0.00811007 0.01987951 0.02380861 0.01855972 0.02363520 0.00326135 0.01969030 0.06477162 0.01948413 0.00439773 
0.01343649 0.05249530 0.00427278 0.00304847 0.01323061 0.00202831 0.00819516 0.01920321 0.02286665 0.01839838 0.02235176 0.00313709 0.01931715 0.06264215 0.01908923 0.00438396 
0.01379099 0.05189233 0.00419835 0.00301244 0.01289179 0.00204529 0.00827681 0.01851512 0.02201117 0.01821507 0.02111819 0.00301348 0.01897830 0.06048026 0.01868556 0.00437087 
0.01415590 0.05128248 0.00412594 0.00297511 0.01255204 0.00206183 0.00835455 0.01781842 0.02124292 0.01801063 0.01993883 0.00289105 0.01867380 0.05829548 0.01827489 0.00435844 
0.01452973 0.05066649 0.00405558 0.00293665 0.01221239 0.00207785 0.00842794 0.01711631 0.02056231 0.01778599 0.01881778 0.00277036 0.01840347 0.05609753 0.01785903 0.00434662 
0.01491093 0.05004508 0.00398732 0.00289719 0.01187385 0.00209329 0.00849655 0.01641200 0.01996935 0.01754218 0.01775885 0.00265192 0.01816694 0.05389617 0.01743976 0.00433539 
0.01529796 0.04941888 0.00392120 0.00285690 0.01153737 0.00210809 0.00855999 0.01570871 0.01946374 0.01728032 0.01676554 0.00253625 0.01796364 0.05170127 0.01701889 0.00432470 
0.01568924 0.04878850 0.00385724 0.00281593 0.01120385 0.00212217 0.00861787 0.01500961 0.01904479 0.01700158 0.01584104 0.00242385 0.01779278 0.04952267 0.01659824 0.00431452 
0.01608318 0.04815449 0.00379543 0.00277442 0.01087418 0.00213549 0.00866987 0.01431785 0.01871152 0.01670724 0.01498819 0.00231518 0.01765343 0.04737019 0.01617959 0.00430480 
0.01647819 0.04751736 0.00373578 0.00273255 0.01054917 0.00214798 0.00871568 0.01363652 0.01846262 0.01639861 0.01420946 0.00221068 0.01754447 0.04525358 0.01576472 0.00429550 
0.01687266 0.04687761 0.00367828 0.00269044 0.01022958 0.00215957 0.00875501 0.01296864 0.01829648 0.01607706 0.01350696 0.00211078 0.01746461 0.04318245 0.01535539 0.00428658 
0.01726502 0.04623569 0.00362290 0.00264827 0.00991614 0.00217020 0.00878763 0.01231712 0.01821122 0.01574402 0.01288244 0.00201588 0.01741244 0.04116626 0.01495330 0.00427799 
0.01765369 0.04559207 0.00356962 0.00260617 0.00960949 0.00217983 0.00881334 0.01168479 0.01820469 0.01540095 0.01233722 0.00192633 0.01738640 0.03921426 0.01456015 0.00426971 
0.01803712 0.04494719 0.00351839 0.00256428 0.00931025 0.00218840 0.00883197 0.01107435 0.01827452 0.01504933 0.01187227 0.00184247 0.01738483 0.03733548 0.01417758 0.00426168 
0.01841378 0.04430149 0.00346917 0.00252275 0.00901897 0.00219585 0.00884338 0.01048838 0.01841810 0.01469067 0.01148812 0.00176459 0.01740596 0.03553862 0.01380718 0.00425387 
0.01878218 0.04365543 0.00342190 0.00248171 0.00873612 0.00220215 0.00884749 0.00992930 0.01863262 0.01432650 0.01118495 0.00169296 0.01744794 0.03383210 0.01345048 0.00424626 
0.01914086 0.04300950 0.00337652 0.00244129 0.00846216 0.00220724 0.00884425 0.00939939 0.01891509 0.01395833 0.01096250 0.00162782 0.01750884 0.03222396 0.01310897 0.00423880 
0.01948841 0.04236420 0.00333296 0.00240162 0.00819746 0.00221109 0.00883364 0.00890073 0.01926237 0.01358769 0.01082014 0.00156934 0.01758670 0.03072184 0.01278405 0.00423147 
0.01982347 0.04172010 0.00329116 0.00236281 0.00794234 0.00221367 0.00881567 0.00843527 0.01967117 0.01321609 0.01075687 0.00151770 0.01767949 0.02933297 0.01247707 0.00422424 
0.02014474 0.04107779 0.00325104 0.00232497 0.00769707 0.00221495 0.00879042 0.00800474 0.02013810 0.01284501 0.01077130 0.00147301 0.01778519 0.02806411 0.01218929 0.00421711 
0.02045098 0.04043792 0.00321251 0.00228822 0.00746187 0.00221491 0.00875797 0.00761067 0.02065966 0.01247591 0.01086168 0.00143535 0.01790176 0.02692152 0.01192191 0.00421004 
0.02074100 0.03980123 0.00317549 0.00225265 0.00723691 0.00221352 0.00871846 0.00725442 0.02123227 0.01211022 0.01102591 0.00140478 0.01802718 0.02591096 0.01167601 0.00420305 
0.02101369 0.03916850 0.00313991 0.00221835 0.00702231 0.00221078 0.00867204 0.00693712 0.02185232 0.01174930 0.01126157 0.00138129 0.01815945 0.02503764 0.01145263 0.00419612 
0.02126801 0.03854063 0.00310567 0.00218541 0.00681813 0.00220669 0.00861890 0.00665970 0.02251615 0.01139450 0.01156594 0.00136486 0.01829662 0.02430620 0.01125269 0.00418926 
0.02150302 0.03791856 0.00307270 0.00215390 0.00662442 0.00220124 0.00855928 0.00642286 0.02322009 0.01104710 0.01193598 0.00135542 0.01843678 0.02372069 0.01107701 0.00418248 
0.02171783 0.03730336 0.00304090 0.00212389 0.00644115 0.00219444 0.00849342 0.00622711 0.02396048 0.01070829 0.01236840 0.00135289 0.01857810 0.02328456 0.01092634 0.00417579 
0.02191164 0.03669619 0.00301020 0.00209545 0.00626829 0.00218631 0.00842159 0.00607271 0.02473368 0.01037925 0.01285967 0.00135712 0.01871884 0.02300065 0.01080131 0.00416923 
0.02208377 0.03609829 0.00298053 0.00206862 0.00610574 0.00217686 0.00834410 0.00595974 0.02553610 0.01006103 0.01340604 0.00136794 0.01885734 0.02287115 0.01070247 0.00416281 
0.02223358 0.03551103 0.00295180 0.00204346 0.00595340 0.00216613 0.00826127 0.00588804 0.02636421 0.00975466 0.01400356 0.00138517 0.01899204 0.02289760 0.01063023 0.00415660 
0.02236057 0.03493588 0.00292395 0.00202000 0.00581112 0.00215416 0.00817343 0.00585725 0.02721455 0.00946104 0.01464814 0.00140857 0.01912151 0.02308091 0.01058494 0.00415061 
0.02246430 0.03437438 0.00289691 0.00199827 0.00567873 0.00214098 0.00808095 0.00586681 0.02808376 0.00918105 0.01533554 0.00143788 0.01924444 0.02342131 0.01056682 0.00414493 
0.02254445 0.03382823 0.00287064 0.00197830 0.00555606 0.00212665 0.00798419 0.00591594 0.02896859 0.00891542 0.01606143 0.00147283 0.01935964 0.02391838 0.01057598 0.00413959 
0.02260078 0.03329920 0.00284507 0.00196009 0.00544290 0.00211122 0.00788354 0.00600367 0.02986590 0.00866485 0.01682139 0.00151309 0.01946605 0.02457105 0.01061244 0.00413469 
0.02263318 0.03278915 0.00282016 0.00194368 0.00533902 0.00209475 0.00777939 0.00612886 0.03077269 0.00842993 0.01761097 0.00155835 0.01956278 0.02537758 0.01067609 0.00413028 
0.02264159 0.03230005 0.00279589 0.00192904 0.00524421 0.00207731 0.00767213 0.00629018 0.03168610 0.00821116 0.01842571 0.00160825 0.01964905 0.02633560 0.01076675 0.00412647 
0.02262611 0.03183395 0.00277222 0.00191618 0.00515823 0.00205899 0.00756217 0.00648612 0.03260345 0.00800897 0.01926118 0.00166241 0.01972426 0.02744209 0.01088409 0.00412333 
0.02258688 0.03139299 0.00274915 0.00190510 0.00508084 0.00203986 0.00744992 0.00671502 0.03352219 0.00782370 0.02011298 0.00172045 0.01978794 0.02869339 0.01102772 0.00412098 
0.02252420 0.03097936 0.00272667 0.00189577 0.00501179 0.00202001 0.00733578 0.00697507 0.03443997 0.00765559 0.02097680 0.00178198 0.01983976 0.03008525 0.01119711 0.00411952 
0.02243843 0.03059534 0.00270478 0.00188818 0.00495086 0.00199954 0.00722015 0.00726433 0.03535459 0.00750482 0.02184844 0.00184656 0.01987957 0.03161283 0.01139165 0.00411905 
0.02233003 0.03024324 0.00268350 0.00188229 0.00489780 0.00197853 0.00710344 0.00758073 0.03626408 0.00737148 0.02272383 0.00191379 0.01990733 0.03327070 0.01161063 0.00411971 
0.02219959 0.02992540 0.00266286 0.00187809 0.00485239 0.00195711 0.00698604 0.00792208 0.03716661 0.00725558 0.02359907 0.00198322 0.01992316 0.03505289 0.01185323 0.00412162 
0.02204777 0.02964420 0.00264291 0.00187553 0.00481441 0.00193537 0.00686834 0.00828610 0.03806058 0.00715705 0.02447044 0.00205444 0.01992732 0.03695290 0.01211854 0.00412490 
0.02187533 0.02940203 0.00262368 0.00187458 0.00478365 0.00191344 0.00675071 0.00867044 0.03894457 0.00707577 0.02533444 0.00212699 0.01992019 0.03896373 0.01240558 0.00412970 
0.02168313 0.02920125 0.00260526 0.00187520 0.00475993 0.00189141 0.00663353 0.00907265 0.03981734 0.00701153 0.02618779 0.00220045 0.01990230 0.04107794 0.01271326 0.00413615 
0.02147211 0.02904424 0.00258770 0.00187734 0.00474305 0.00186942 0.00651716 0.00949026 0.04067788 0.00696406 0.02702746 0.00227437 0.01987426 0.04328762 0.01304042 0.00414441 
0.02124332 0.02893330 0.00257110 0.00188097 0.00473286 0.00184759 0.00640194 0.00992073 0.04152534 0.00693305 0.02785072 0.00234834 0.01983683 0.04558448 0.01338581 0.00415461 
0.02099788 0.02887069 0.00255555 0.00188603 0.00472921 0.00182603 0.00628819 0.01036151 0.04235909 0.00691812 0.02865508 0.00242192 0.01979084 0.04795988 0.01374813 0.00416690 
0.02073698 0.02885861 0.00254116 0.00189248 0.00473197 0.00180489 0.00617626 0.01081003 0.04317865 0.00691882 0.02943839 0.00249470 0.01973723 0.05040482 0.01412598 0.00418145 
0.02046192 0.02889913 0.00252806 0.00190026 0.00474103 0.00178427 0.00606643 0.01126373 0.04398375 0.00693470 0.03019878 0.00256629 0.01967701 0.05291006 0.01451792 0.00419839 
0.02017406 0.02899425 0.00251636 0.00190934 0.00475630 0.00176431 0.00595899 0.01172007 0.04477428 0.00696523 0.03093471 0.00263630 0.01961127 0.05546609 0.01492245 0.00421789 
0.01987481 0.02914580 0.00250621 0.00191966 0.00477769 0.00174513 0.00585423 0.01217654 0.04555031 0.00700987 0.03164495 0.00270434 0.01954115 0.05806320 0.01533802 0.00424009 
0.01956569 0.02935550 0.00249775 0.00193118 0.00480515 0.00172687 0.00575240 0.01263066 0.04631204 0.00706802 0.03232861 0.00277008 0.01946784 0.06069153 0.01576302 0.00426515 
0.01924824 0.02962488 0.00249113 0.00194384 0.00483863 0.00170963 0.00565374 0.01308004 0.04705985 0.00713908 0.03298512 0.00283316 0.01939258 0.06334111 0.01619583 0.00429320 
0.01892408 0.02995527 0.00248653 0.00195760 0.00487812 0.00169355 0.00555849 0.01352233 0.04779424 0.00722242 0.03361422 0.00289328 0.01931661 0.06600189 0.01663476 0.00432440 
0.01859488 0.03034784 0.00248409 0.00197241 0.00492359 0.00167875 0.00546686 0.01395528 0.04851584 0.00731740 0.03421599 0.00295014 0.01924120 0.06866382 0.01707814 0.00435887 
0.01826235 0.03080351 0.00248400 0.00198824 0.00497506 0.00166533 0.00537906 0.01437673 0.04922539 0.00742335 0.03479080 0.00300347 0.01916763 0.07131685 0.01752426 0.00439676 
0.01792824 0.03132296 0.00248642 0.00200504 0.00503252 0.00165342 0.00529526 0.01478464 0.04992374 0.00753960 0.03533934 0.00305301 0.01909713 0.07395102 0.01797139 0.00443819 
0.01759434 0.03190663 0.00249154 0.00202278 0.00509602 0.00164311 0.00521565 0.01517706 0.05061183 0.00766549 0.03586258 0.00309856 0.01903096 0.07655647 0.01841782 0.00448328 
0.01726245 0.03255471 0.00249954 0.00204140 0.00516557 0.00163450 0.00514039 0.01555219 0.05129065 0.00780034 0.03636176 0.00313991 0.01897031 0.07912350 0.01886183 0.00453213 
0.01693440 0.03326708 0.00251059 0.00206089 0.00524121 0.00162770 0.00506962 0.01590834 0.05196128 0.00794349 0.03683838 0.00317689 0.01891633 0.08164264 0.01930172 0.00458485 
0.01661205 0.03404336 0.00252486 0.00208121 0.00532300 0.00162280 0.00500348 0.01624399 0.05262483 0.00809427 0.03729418 0.00320937 0.01887014 0.08410463 0.01973582 0.00464152 
0.01629723 0.03488285 0.00254255 0.00210232 0.00541096 0.00161986 0.00494210 0.01655775 0.05328242 0.00825203 0.03773111 0.00323722 0.01883278 0.08650053 0.02016247 0.00470222 
0.01599180 0.03578457 0.00256380 0.00212421 0.00550515 0.00161898 0.00488561 0.01684837 0.05393522 0.00841614 0.03815133 0.00326037 0.01880521 0.08882172 0.02058006 0.00476701 
0.01569759 0.03674719 0.00258880 0.00214684 0.00560560 0.00162020 0.00483410 0.01711477 0.05458437 0.00858596 0.03855716 0.00327875 0.01878832 0.09105994 0.02098701 0.00483595 
0.01541641 0.03776909 0.00261769 0.00217020 0.00571234 0.00162360 0.00478767 0.01735605 0.05523099 0.00876090 0.03895106 0.00329233 0.01878292 0.09320735 0.02138182 0.00490907 
0.01515008 0.03884832 0.00265063 0.00219426 0.00582541 0.00162922 0.00474643 0.01757143 0.05587618 0.00894037 0.03933563 0.00330112 0.01878971 0.09525656 0.02176301 0.00498638 
0.01490033 0.03998260 0.00268776 0.00221900 0.00594481 0.00163709 0.00471044 0.01776034 0.05652097 0.00912380 0.03971355 0.00330513 0.01880930 0.09720063 0.02212919 0.00506790 
0.01466889 0.04116936 0.00272920 0.00224441 0.00607056 0.00164726 0.00467979 0.01792234 0.05716636 0.00931064 0.04008755 0.00330442 0.01884219 0.09903317 0.02247904 0.00515360 
0.01445741 0.04240567 0.00277507 0.00227047 0.00620263 0.00165973 0.00465455 0.01805718 0.05781323 0.00950038 0.04046042 0.00329907 0.01888876 0.10074828 0.02281132 0.00524346 
0.01426752 0.04368831 0.00282547 0.00229717 0.00634100 0.00167452 0.00463477 0.01816474 0.05846240 0.00969252 0.04083495 0.00328917 0.01894930 0.10234065 0.02312486 0.00533742 
0.01410073 0.04501377 0.00288048 0.00232449 0.00648563 0.00169162 0.00462052 0.01824510 0.05911455 0.00988658 0.04121389 0.00327486 0.01902396 0.10380556 0.02341859 0.00543542 
0.01395851 0.04637822 0.00294018 0.00235243 0.00663644 0.00171103 0.00461185 0.01829847 0.05977026 0.01008211 0.04159996 0.00325628 0.01911279 0.10513886 0.02369155 0.00553735 
0.01384224 0.04777756 0.00300462 0.00238096 0.00679334 0.00173271 0.00460880 0.01832521 0.06042998 0.01027868 0.04199579 0.00323362 0.01921571 0.10633706 0.02394286 0.00564313 
0.01375319 0.04920741 0.00307382 0.00241008 0.00695621 0.00175664 0.00461140 0.01832585 0.06109401 0.01047589 0.04240392 0.00320705 0.01933252 0.10739727 0.02417176 0.00575260 
0.01369254 0.05066316 0.00314780 0.00243977 0.00712491 0.00178277 0.00461970 0.01830103 0.06176250 0.01067337 0.04282672 0.00317679 0.01946292 0.10831729 0.02437758 0.00586563 
0.01366136 0.05213995 0.00322656 0.00247003 0.00729928 0.00181104 0.00463371 0.01825156 0.06243545 0.01087074 0.04326645 0.00314307 0.01960647 0.10909552 0.02455979 0.00598204 
0.01366060 0.05363270 0.00331005 0.00250083 0.00747912 0.00184139 0.00465345 0.01817834 0.06311266 0.01106768 0.04372514 0.00310614 0.01976264 0.10973105 0.02471795 0.00610163 
0.01369110 0.05513614 0.00339823 0.00253216 0.00766420 0.00187374 0.00467893 0.01808241 0.06379379 0.01126386 0.04420465 0.00306626 0.01993078 0.11022362 0.02485175 0.00622420 
0.01375354 0.05664484 0.00349102 0.00256400 0.00785427 0.00190799 0.00471016 0.01796491 0.06447831 0.01145898 0.04470660 0.00302370 0.02011013 0.11057361 0.02496101 0.00634950 
0.01384848 0.05815322 0.00358831 0.00259634 0.00804904 0.00194406 0.00474712 0.01782710 0.06516551 0.01165277 0.04523236 0.00297874 0.02029984 0.11078205 0.02504564 0.00647729 
0.01397635 0.05965557 0.00368999 0.00262915 0.00824820 0.00198184 0.00478980 0.01767030 0.06585449 0.01184496 0.04578305 0.00293169 0.02049897 0.11085062 0.02510569 0.00660729 
0.01413741 0.06114611 0.00379591 0.00266241 0.00845141 0.00202120 0.00483816 0.01749594 0.06654418 0.01203529 0.04635951 0.00288283 0.02070648 0.11078160 0.02514134 0.00673920 
0.01433176 0.06261899 0.00390589 0.00269608 0.00865830 0.00206202 0.00489218 0.01730550 0.06723331 0.01222353 0.04696228 0.00283248 0.02092126 0.11057788 0.02515287 0.00687272 
0.01455936 0.06406832 0.00401973 0.00273014 0.00886847 0.00210417 0.00495179 0.01710052 0.06792044 0.01240945 0.04759161 0.00278095 0.02114213 0.11024294 0.02514069 0.00700750 
0.01482001 0.06548822 0.00413722 0.00276456 0.00908149 0.00214751 0.00501693 0.01688260 0.06860398 0.01259284 0.04824745 0.00272855 0.02136782 0.10978081 0.02510530 0.00714321 
0.01511333 0.06687283 0.00425810 0.00279929 0.00929693 0.00219187 0.00508752 0.01665339 0.06928213 0.01277348 0.04892942 0.00267560 0.02159705 0.10919608 0.02504736 0.00727947 
0.01543879 0.06821636 0.00438211 0.00283429 0.00951430 0.00223712 0.00516347 0.01641453 0.06995297 0.01295118 0.04963684 0.00262240 0.02182846 0.10849381 0.02496758 0.00741591 
0.01579568 0.06951311 0.00450897 0.00286952 0.00973310 0.00228308 0.00524466 0.01616770 0.07061440 0.01312575 0.05036870 0.00256927 0.02206065 0.10767957 0.02486682 0.00755214 
0.01618314 0.07075750 0.00463835 0.00290493 0.00995283 0.00232959 0.00533096 0.01591460 0.07126421 0.01329699 0.05112370 0.00251651 0.02229222 0.10675934 0.02474601 0.00768775 
0.01660011 0.07194412 0.00476992 0.00294045 0.01017295 0.00237648 0.00542224 0.01565689 0.07190003 0.01346473 0.05190021 0.00246441 0.02252172 0.10573953 0.02460620 0.00782233 
0.01704541 0.07306775 0.00490333 0.00297604 0.01039291 0.00242356 0.00551831 0.01539624 0.07251942 0.01362878 0.05269632 0.00241327 0.02274772 0.10462690 0.02444849 0.00795544 
0.01751767 0.07412336 0.00503821 0.00301163 0.01061214 0.00247067 0.00561900 0.01513430 0.07311979 0.01378897 0.05350980 0.00236336 0.02296877 0.10342854 0.02427410 0.00808666 
0.01801536 0.07510620 0.00517417 0.00304715 0.01083007 0.00251762 0.00572411 0.01487267 0.07369852 0.01394511 0.05433818 0.00231495 0.02318344 0.10215183 0.02408430 0.00821555 
0.01853682 0.07601177 0.00531081 0.00308253 0.01104613 0.00256423 0.00583340 0.01461291 0.07425289 0.01409703 0.05517871 0.00226830 0.02339033 0.10080441 0.02388042 0.00834166 
0.01908021 0.07683590 0.00544771 0.00311769 0.01125971 0.00261032 0.00594663 0.01435653 0.07478014 0.01424456 0.05602839 0.00222364 0.02358805 0.09939407 0.02366387 0.00846455 
0.01964358 0.07757474 0.00558444 0.00315256 0.01147023 0.00265570 0.00606354 0.01410498 0.07527748 0.01438751 0.05688399 0.00218122 0.02377527 0.09792881 0.02343609 0.00858378 
0.02022484 0.07822477 0.00572056 0.00318706 0.01167710 0.00270021 0.00618383 0.01385964 0.07574213 0.01452572 0.05774208 0.00214122 0.02395071 0.09641670 0.02319857 0.00869889 
0.02082175 0.07878288 0.00585562 0.00322110 0.01187973 0.00274366 0.00630719 0.01362184 0.07617130 0.01465901 0.05859905 0.00210386 0.02411314 0.09486589 0.02295283 0.00880945 
0.02143199 0.07924633 0.00598917 0.00325459 0.01207754 0.00278588 0.00643330 0.01339278 0.07656222 0.01478720 0.05945112 0.00206930 0.02426140 0.09328456 0.02270041 0.00891503 
0.02205311 0.07961281 0.00612076 0.00328744 0.01226995 0.00282670 0.00656180 0.01317362 0.07691219 0.01491012 0.06029438 0.00203771 0.02439439 0.09168085 0.02244286 0.00901520 
0.02268259 0.07988042 0.00624991 0.00331956 0.01245639 0.00286595 0.00669232 0.01296540 0.07721859 0.01502760 0.06112480 0.00200922 0.02451114 0.09006282 0.02218175 0.00910954 
0.02331781 0.08004772 0.00637618 0.00335085 0.01263632 0.00290349 0.00682449 0.01276908 0.07747886 0.01513944 0.06193827 0.00198395 0.02461071 0.08843845 0.02191863 0.00919766 
0.02395610 0.08011372 0.00649910 0.00338123 0.01280920 0.00293915 0.00695788 0.01258552 0.07769056 0.01524550 0.06273064 0.00196200 0.02469231 0.08681553 0.02165502 0.00927916 
0.02459472 0.08007787 0.00661822 0.00341059 0.01297451 0.00297279 0.00709209 0.01241546 0.07785140 0.01534559 0.06349771 0.00194344 0.02475522 0.08520167 0.02139245 0.00935368 
0.02523091 0.07994011 0.00673310 0.00343885 0.01313176 0.00300428 0.00722667 0.01225957 0.07795921 0.01543955 0.06423529 0.00192835 0.02479884 0.08360426 0.02113240 0.00942086 
0.02586187 0.07970084 0.00684330 0.00346590 0.01328047 0.00303349 0.00736118 0.01211839 0.07801200 0.01552722 0.06493923 0.00191675 0.02482270 0.08203038 0.02087629 0.00948038 
0.02648480 0.07936092 0.00694840 0.00349165 0.01342019 0.00306031 0.00749515 0.01199235 0.07800795 0.01560843 0.06560541 0.00190867 0.02482641 0.08048682 0.02062552 0.00953192 
0.02709691 0.07892168 0.00704798 0.00351600 0.01355049 0.00308462 0.00762813 0.01188179 0.07794546 0.01568303 0.06622982 0.00190410 0.02480974 0.07898005 0.02038141 0.00957521 
0.02769543 0.07838491 0.00714166 0.00353888 0.01367098 0.00310632 0.00775962 0.01178695 0.07782313 0.01575088 0.06680856 0.00190302 0.02477255 0.07751612 0.02014521 0.00960998 
0.02827764 0.07775286 0.00722906 0.00356019 0.01378128 0.00312534 0.00788917 0.01170794 0.07763977 0.01581184 0.06733786 0.00190539 0.02471487 0.07610073 0.01991811 0.00963602 
0.02884088 0.07702819 0.00730982 0.00357984 0.01388105 0.00314160 0.00801627 0.01164479 0.07739446 0.01586578 0.06781411 0.00191115 0.02463681 0.07473910 0.01970120 0.00965312 
0.02938254 0.07621402 0.00738361 0.00359777 0.01396999 0.00315504 0.00814047 0.01159743 0.07708651 0.01591257 0.06823392 0.00192022 0.02453863 0.07343606 0.01949550 0.00966113 
0.02990014 0.07531384 0.00745012 0.00361388 0.01404780 0.00316559 0.00826126 0.01156569 0.07671549 0.01595211 0.06859409 0.00193252 0.02442072 0.07219592 0.01930192 0.00965991 
0.03039128 0.07433157 0.00750907 0.00362812 0.01411424 0.00317324 0.00837820 0.01154932 0.07628123 0.01598429 0.06889165 0.00194791 0.02428358 0.07102253 0.01912128 0.00964936 
0.03085369 0.07327148 0.00756020 0.00364041 0.01416909 0.00317794 0.00849082 0.01154796 0.07578383 0.01600903 0.06912389 0.00196629 0.02412786 0.06991923 0.01895428 0.00962943 
0.03128525 0.07213817 0.00760329 0.00365070 0.01421216 0.00317969 0.00859866 0.01156118 0.07522368 0.01602626 0.06928840 0.00198751 0.02395430 0.06888887 0.01880154 0.00960009 
0.03168399 0.07093658 0.00763814 0.00365893 0.01424328 0.00317848 0.00870130 0.01158850 0.07460144 0.01603591 0.06938302 0.00201142 0.02376377 0.06793377 0.01866353 0.00956136 
0.03204811 0.06967194 0.00766458 0.00366507 0.01426233 0.00317433 0.00879832 0.01162932 0.07391802 0.01603795 0.06940593 0.00203784 0.02355727 0.06705574 0.01854064 0.00951328 
0.03237598 0.06834974 0.00768250 0.00366906 0.01426919 0.00316726 0.00888933 0.01168301 0.07317465 0.01603233 0.06935561 0.00206660 0.02333588 0.06625605 0.01843312 0.00945594 
0.03266620 0.06697570 0.00769178 0.00367090 0.01426380 0.00315731 0.00897395 0.01174888 0.07237279 0.01601906 0.06923089 0.00209751 0.02310079 0.06553547 0.01834112 0.00938947 
0.03291754 0.06555575 0.00769238 0.00367055 0.01424611 0.00314452 0.00905184 0.01182618 0.07151418 0.01599812 0.06903093 0.00213038 0.02285331 0.06489427 0.01826468 0.00931405 
0.03312903 0.06409598 0.00768426 0.00366800 0.01421609 0.00312895 0.00912268 0.01191411 0.07060084 0.01596955 0.06875523 0.00216500 0.02259480 0.06433220 0.01820368 0.00922986 
0.03329988 0.06260263 0.00766743 0.00366325 0.01417373 0.00311068 0.00918619 0.01201185 0.06963501 0.01593337 0.06840366 0.00220116 0.02232674 0.06384852 0.01815795 0.00913715 
0.03342958 0.06108203 0.00764194 0.00365631 0.01411907 0.00308978 0.00924212 0.01211853 0.06861919 0.01588964 0.06797643 0.00223865 0.02205064 0.06344204 0.01812715 0.00903620 
0.03351785 0.05954059 0.00760786 0.00364719 0.01405214 0.00306636 0.00929025 0.01223328 0.06755610 0.01583844 0.06747411 0.00227724 0.02176813 0.06311109 0.01811087 0.00892732 
0.03356464 0.05798474 0.00756533 0.00363592 0.01397301 0.00304050 0.00933040 0.01235519 0.06644868 0.01577984 0.06689763 0.00231673 0.02148084 0.06285358 0.01810857 0.00881086 
