0.01574927 0.02337384 0.00332774 0.00167270 0.01713115 0.00114909 0.01431345 0.00390965 0.02310877 0.00296654 0.01456412 0.00126453 0.01806526 0.06568912 0.01979440 0.00217131 
0.01620481 0.02263123 0.00326171 0.00167180 0.01700578 0.00115833 0.01446746 0.00403775 0.02361440 0.00299752 0.01429791 0.00128614 0.01841416 0.06496321 0.01956466 0.00217218 
0.01666041 0.02189332 0.00319403 0.00167219 0.01686211 0.00116835 0.01462393 0.00417024 0.02409305 0.00302733 0.01403129 0.00130697 0.01874495 0.06419618 0.01931519 0.00216846 
0.01711395 0.02116322 0.00312503 0.00167395 0.01670091 0.00117913 0.01478191 0.00430660 0.02454347 0.00305590 0.01376581 0.00132690 0.01905621 0.06339319 0.01904749 0.00216030 
0.01756330 0.02044402 0.00305506 0.00167716 0.01652301 0.00119063 0.01494044 0.00444634 0.02496459 0.00308313 0.01350301 0.00134579 0.01934654 0.06255960 0.01876319 0.00214786 
0.01800638 0.01973881 0.00298445 0.00168188 0.01632929 0.00120283 0.01509853 0.00458889 0.02535552 0.00310899 0.01324445 0.00136354 0.01961463 0.06170092 0.01846398 0.00213139 
0.01844116 0.01905061 0.00291354 0.00168819 0.01612068 0.00121569 0.01525520 0.00473367 0.02571553 0.00313341 0.01299168 0.00138004 0.01985923 0.06082281 0.01815167 0.00211116 
0.01886564 0.01838243 0.00284266 0.00169615 0.01589814 0.00122917 0.01540944 0.00488010 0.02604408 0.00315636 0.01274624 0.00139519 0.02007916 0.05993105 0.01782812 0.00208749 
0.01927793 0.01773717 0.00277215 0.00170582 0.01566267 0.00124323 0.01556027 0.00502753 0.02634081 0.00317782 0.01250964 0.00140888 0.02027332 0.05903147 0.01749524 0.00206076 
0.01967620 0.01711766 0.00270232 0.00171726 0.01541532 0.00125781 0.01570670 0.00517534 0.02660555 0.00319778 0.01228337 0.00142103 0.02044072 0.05812998 0.01715502 0.00203138 
0.02005870 0.01652662 0.00263349 0.00173050 0.01515713 0.00127288 0.01584775 0.00532286 0.02683831 0.00321624 0.01206887 0.00143157 0.02058045 0.05723250 0.01680948 0.00199983 
0.02042382 0.01596666 0.00256596 0.00174559 0.01488920 0.00128836 0.01598247 0.00546943 0.02703927 0.00323321 0.01186752 0.00144041 0.02069173 0.05634492 0.01646067 0.00196663 
0.02077003 0.01544023 0.00250002 0.00176257 0.01461261 0.00130422 0.01610993 0.00561438 0.02720880 0.00324872 0.01168068 0.00144750 0.02077387 0.05547310 0.01611066 0.00193232 
0.02109593 0.01494967 0.00243596 0.00178147 0.01432848 0.00132039 0.01622923 0.00575704 0.02734744 0.00326282 0.01150959 0.00145279 0.02082633 0.05462282 0.01576152 0.00189752 
0.02140028 0.01449712 0.00237404 0.00180231 0.01403791 0.00133681 0.01633951 0.00589672 0.02745591 0.00327556 0.01135547 0.00145622 0.02084867 0.05379976 0.01541533 0.00186287 
0.02168194 0.01408455 0.00231452 0.00182510 0.01374201 0.00135341 0.01643994 0.00603277 0.02753509 0.00328701 0.01121943 0.00145778 0.02084060 0.05300947 0.01507416 0.00182904 
0.02193993 0.01371375 0.00225764 0.00184986 0.01344188 0.00137013 0.01652976 0.00616453 0.02758599 0.00329724 0.01110249 0.00145742 0.02080196 0.05225731 0.01474002 0.00179678 
0.02217343 0.01338629 0.00220363 0.00187659 0.01313863 0.00138691 0.01660823 0.00629134 0.02760980 0.00330635 0.01100560 0.00145516 0.02073272 0.05154847 0.01441493 0.00176681 
0.02238173 0.01310355 0.00215269 0.00190527 0.01283333 0.00140367 0.01667469 0.00641259 0.02760783 0.00331445 0.01092959 0.00145097 0.02063302 0.05088792 0.01410083 0.00173994 
0.02256433 0.01286666 0.00210501 0.00193590 0.01252704 0.00142036 0.01672853 0.00652767 0.02758154 0.00332164 0.01087520 0.00144487 0.02050313 0.05028038 0.01379960 0.00171697 
0.02272085 0.01267654 0.00206078 0.00196846 0.01222080 0.00143689 0.01676919 0.00663599 0.02753247 0.00332804 0.01084305 0.00143689 0.02034346 0.04973029 0.01351308 0.00169874 
0.02285108 0.01253386 0.00202015 0.00200291 0.01191564 0.00145322 0.01679619 0.00673701 0.02746229 0.00333379 0.01083365 0.00142705 0.02015457 0.04924180 0.01324301 0.00168610 
0.02295495 0.01243904 0.00198325 0.00203922 0.01161253 0.00146926 0.01680911 0.00683020 0.02737277 0.00333902 0.01084742 0.00141539 0.01993719 0.04881877 0.01299104 0.00167992 
0.02303255 0.01239225 0.00195022 0.00207734 0.01131242 0.00148496 0.01680762 0.00691509 0.02726573 0.00334388 0.01088463 0.00140197 0.01969216 0.04846471 0.01275874 0.00168106 
0.02308415 0.01239343 0.00192116 0.00211723 0.01101623 0.00150025 0.01679143 0.00699123 0.02714309 0.00334851 0.01094544 0.00138684 0.01942050 0.04818276 0.01254756 0.00169042 
0.02311011 0.01244223 0.00189615 0.00215882 0.01072483 0.00151508 0.01676035 0.00705821 0.02700678 0.00335309 0.01102991 0.00137009 0.01912335 0.04797572 0.01235884 0.00170887 
0.02311097 0.01253806 0.00187525 0.00220205 0.01043907 0.00152937 0.01671425 0.00711569 0.02685880 0.00335775 0.01113796 0.00135179 0.01880200 0.04784601 0.01219382 0.00173728 
0.02308740 0.01268008 0.00185852 0.00224684 0.01015974 0.00154308 0.01665310 0.00716334 0.02670116 0.00336266 0.01126939 0.00133202 0.01845785 0.04779565 0.01205360 0.00177652 
0.02304020 0.01286720 0.00184599 0.00229310 0.00988759 0.00155616 0.01657691 0.00720090 0.02653588 0.00336799 0.01142389 0.00131090 0.01809247 0.04782626 0.01193914 0.00182742 
0.02297026 0.01309807 0.00183766 0.00234076 0.00962332 0.00156855 0.01648580 0.00722817 0.02636497 0.00337389 0.01160103 0.00128852 0.01770751 0.04793907 0.01185129 0.00189079 
0.02287862 0.01337111 0.00183353 0.00238970 0.00936761 0.00158021 0.01637995 0.00724498 0.02619040 0.00338052 0.01180026 0.00126501 0.01730477 0.04813487 0.01179075 0.00196744 
0.02276639 0.01368449 0.00183357 0.00243983 0.00912105 0.00159110 0.01625961 0.00725124 0.02601415 0.00338804 0.01202094 0.00124048 0.01688612 0.04841408 0.01175808 0.00205811 
0.02263481 0.01403616 0.00183773 0.00249104 0.00888423 0.00160118 0.01612511 0.00724688 0.02583809 0.00339660 0.01226229 0.00121506 0.01645357 0.04877666 0.01175369 0.00216351 
0.02248515 0.01442387 0.00184597 0.00254321 0.00865766 0.00161042 0.01597686 0.00723192 0.02566407 0.00340635 0.01252346 0.00118889 0.01600920 0.04922221 0.01177787 0.00228430 
0.02231880 0.01484514 0.00185820 0.00259621 0.00844182 0.00161880 0.01581531 0.00720641 0.02549384 0.00341743 0.01280347 0.00116210 0.01555516 0.04974990 0.01183073 0.00242109 
0.02213718 0.01529731 0.00187432 0.00264993 0.00823715 0.00162629 0.01564102 0.00717048 0.02532907 0.00342996 0.01310126 0.00113483 0.01509369 0.05035850 0.01191228 0.00257443 
0.02194177 0.01577754 0.00189423 0.00270421 0.00804402 0.00163287 0.01545459 0.00712428 0.02517131 0.00344407 0.01341570 0.00110723 0.01462708 0.05104640 0.01202235 0.00274480 
0.02173408 0.01628284 0.00191780 0.00275892 0.00786279 0.00163854 0.01525666 0.00706805 0.02502201 0.00345988 0.01374554 0.00107945 0.01415767 0.05181164 0.01216065 0.00293263 
0.02151564 0.01681005 0.00194489 0.00281392 0.00769376 0.00164328 0.01504798 0.00700206 0.02488251 0.00347748 0.01408949 0.00105163 0.01368784 0.05265185 0.01232674 0.00313824 
0.02128801 0.01735590 0.00197534 0.00286906 0.00753720 0.00164711 0.01482929 0.00692663 0.02475398 0.00349696 0.01444617 0.00102393 0.01321999 0.05356436 0.01252007 0.00336190 
0.02105275 0.01791699 0.00200899 0.00292417 0.00739332 0.00165001 0.01460144 0.00684215 0.02463747 0.00351841 0.01481416 0.00099649 0.01275654 0.05454614 0.01273995 0.00360378 
0.02081139 0.01848986 0.00204565 0.00297910 0.00726231 0.00165201 0.01436528 0.00674903 0.02453389 0.00354188 0.01519195 0.00096947 0.01229992 0.05559387 0.01298554 0.00386397 
0.02056547 0.01907095 0.00208512 0.00303370 0.00714434 0.00165312 0.01412172 0.00664775 0.02444398 0.00356741 0.01557804 0.00094300 0.01185251 0.05670392 0.01325592 0.00414247 
0.02031646 0.01965667 0.00212720 0.00308778 0.00703953 0.00165336 0.01387172 0.00653882 0.02436832 0.00359505 0.01597083 0.00091724 0.01141672 0.05787243 0.01355005 0.00443918 
0.02006584 0.02024338 0.00217168 0.00314119 0.00694797 0.00165275 0.01361623 0.00642278 0.02430734 0.00362480 0.01636874 0.00089233 0.01099487 0.05909524 0.01386676 0.00475390 
0.01981500 0.02082744 0.00221832 0.00319376 0.00686973 0.00165133 0.01335627 0.00630023 0.02426129 0.00365667 0.01677014 0.00086839 0.01058928 0.06036802 0.01420482 0.00508633 
0.01956529 0.02140524 0.00226688 0.00324531 0.00680485 0.00164913 0.01309286 0.00617177 0.02423027 0.00369063 0.01717340 0.00084557 0.01020218 0.06168622 0.01456288 0.00543607 
0.01931799 0.02197318 0.00231712 0.00329568 0.00675335 0.00164619 0.01282704 0.00603807 0.02421420 0.00372666 0.01757688 0.00082398 0.00983572 0.06304512 0.01493952 0.00580264 
0.01907431 0.02252774 0.00236878 0.00334468 0.00671523 0.00164254 0.01255986 0.00589978 0.02421283 0.00376469 0.01797893 0.00080374 0.00949200 0.06443984 0.01533325 0.00618543 
0.01883536 0.02306546 0.00242160 0.00339214 0.00669047 0.00163825 0.01229238 0.00575761 0.02422577 0.00380466 0.01837795 0.00078497 0.00917300 0.06586541 0.01574250 0.00658373 
0.01860220 0.02358299 0.00247531 0.00343790 0.00667903 0.00163336 0.01202566 0.00561227 0.02425247 0.00384648 0.01877230 0.00076777 0.00888058 0.06731675 0.01616567 0.00699674 
0.01837576 0.02407710 0.00252964 0.00348177 0.00668086 0.00162791 0.01176076 0.00546449 0.02429220 0.00389005 0.01916042 0.00075223 0.00861652 0.06878871 0.01660108 0.00742356 
0.01815690 0.02454471 0.00258431 0.00352360 0.00669590 0.00162198 0.01149872 0.00531499 0.02434411 0.00393523 0.01954075 0.00073844 0.00838243 0.07027611 0.01704705 0.00786319 
0.01794637 0.02498287 0.00263904 0.00356321 0.00672407 0.00161561 0.01124058 0.00516451 0.02440721 0.00398190 0.01991179 0.00072648 0.00817983 0.07177374 0.01750183 0.00831454 
0.01774483 0.02538885 0.00269355 0.00360044 0.00676528 0.00160886 0.01098737 0.00501381 0.02448038 0.00402989 0.02027207 0.00071641 0.00801005 0.07327641 0.01796367 0.00877642 
0.01755282 0.02576009 0.00274754 0.00363513 0.00681945 0.00160179 0.01074007 0.00486360 0.02456238 0.00407904 0.02062018 0.00070828 0.00787430 0.07477895 0.01843081 0.00924755 
0.01737080 0.02609425 0.00280073 0.00366712 0.00688648 0.00159447 0.01049966 0.00471463 0.02465184 0.00412915 0.02095477 0.00070215 0.00777362 0.07627626 0.01890148 0.00972659 
0.01719910 0.02638923 0.00285284 0.00369626 0.00696625 0.00158695 0.01026709 0.00456760 0.02474734 0.00418002 0.02127456 0.00069804 0.00770887 0.07776331 0.01937393 0.01021211 
0.01703797 0.02664315 0.00290358 0.00372242 0.00705865 0.00157930 0.01004326 0.00442322 0.02484733 0.00423145 0.02157835 0.00069598 0.00768075 0.07923517 0.01984639 0.01070261 
0.01688755 0.02685440 0.00295267 0.00374543 0.00716357 0.00157157 0.00982904 0.00428217 0.02495021 0.00428320 0.02186498 0.00069599 0.00768979 0.08068705 0.02031714 0.01119653 
0.01674788 0.02702164 0.00299982 0.00376519 0.00728087 0.00156384 0.00962526 0.00414511 0.02505433 0.00433504 0.02213342 0.00069806 0.00773632 0.08211428 0.02078449 0.01169225 
0.01661891 0.02714380 0.00304477 0.00378156 0.00741043 0.00155614 0.00943272 0.00401266 0.02515798 0.00438671 0.02238267 0.00070218 0.00782051 0.08351234 0.02124676 0.01218810 
0.01650049 0.02722009 0.00308725 0.00379442 0.00755211 0.00154855 0.00925216 0.00388543 0.02525942 0.00443797 0.02261187 0.00070834 0.00794232 0.08487691 0.02170234 0.01268238 
0.01639241 0.02725003 0.00312699 0.00380368 0.00770577 0.00154112 0.00908428 0.00376398 0.02535691 0.00448854 0.02282021 0.00071650 0.00810154 0.08620383 0.02214966 0.01317336 
0.01629435 0.02723339 0.00316375 0.00380923 0.00787125 0.00153390 0.00892971 0.00364884 0.02544870 0.00453816 0.02300700 0.00072661 0.00829778 0.08748917 0.02258718 0.01365926 
0.01620593 0.02717029 0.00319726 0.00381100 0.00804840 0.00152693 0.00878905 0.00354050 0.02553307 0.00458655 0.02317162 0.00073864 0.00853044 0.08872919 0.02301346 0.01413832 
0.01612670 0.02706111 0.00322731 0.00380889 0.00823703 0.00152026 0.00866284 0.00343940 0.02560831 0.00463345 0.02331358 0.00075250 0.00879876 0.08992040 0.02342710 0.01460875 
0.01605613 0.02690654 0.00325367 0.00380286 0.00843698 0.00151395 0.00855156 0.00334595 0.02567277 0.00467856 0.02343246 0.00076814 0.00910179 0.09105953 0.02382679 0.01506879 
0.01599367 0.02670755 0.00327612 0.00379285 0.00864804 0.00150802 0.00845563 0.00326051 0.02572485 0.00472161 0.02352795 0.00078546 0.00943840 0.09214354 0.02421126 0.01551668 
0.01593868 0.02646542 0.00329447 0.00377883 0.00887000 0.00150251 0.00837543 0.00318338 0.02576303 0.00476232 0.02359983 0.00080439 0.00980731 0.09316966 0.02457935 0.01595067 
0.01589052 0.02618168 0.00330853 0.00376076 0.00910264 0.00149745 0.00831127 0.00311483 0.02578588 0.00480043 0.02364800 0.00082481 0.01020704 0.09413536 0.02492996 0.01636907 
0.01584847 0.02585815 0.00331814 0.00373865 0.00934571 0.00149287 0.00826340 0.00305505 0.02579206 0.00483566 0.02367243 0.00084663 0.01063597 0.09503837 0.02526209 0.01677023 
0.01581182 0.02549692 0.00332315 0.00371249 0.00959894 0.00148879 0.00823201 0.00300422 0.02578035 0.00486777 0.02367321 0.00086973 0.01109234 0.09587668 0.02557482 0.01715254 
0.01577983 0.02510029 0.00332342 0.00368230 0.00986203 0.00148524 0.00821725 0.00296243 0.02574964 0.00489649 0.02365050 0.00089400 0.01157423 0.09664854 0.02586731 0.01751447 
0.01575174 0.02467085 0.00331883 0.00364813 0.01013468 0.00148222 0.00821918 0.00292974 0.02569899 0.00492160 0.02360456 0.00091931 0.01207958 0.09735246 0.02613882 0.01785454 
0.01572680 0.02421136 0.00330930 0.00361002 0.01041653 0.00147975 0.00823783 0.00290616 0.02562755 0.00494286 0.02353576 0.00094553 0.01260624 0.09798719 0.02638868 0.01817137 
0.01570424 0.02372480 0.00329475 0.00356805 0.01070722 0.00147784 0.00827316 0.00289163 0.02553466 0.00496006 0.02344453 0.00097253 0.01315192 0.09855177 0.02661634 0.01846366 
0.01568331 0.02321435 0.00327513 0.00352228 0.01100634 0.00147648 0.00832509 0.00288606 0.02541981 0.00497301 0.02333140 0.00100018 0.01371422 0.09904546 0.02682131 0.01873020 
0.01566329 0.02268332 0.00325040 0.00347283 0.01131345 0.00147567 0.00839345 0.00288931 0.02528265 0.00498153 0.02319697 0.00102833 0.01429068 0.09946778 0.02700322 0.01896991 
0.01564346 0.02213519 0.00322056 0.00341982 0.01162807 0.00147542 0.00847806 0.00290118 0.02512300 0.00498546 0.02304191 0.00105685 0.01487875 0.09981851 0.02716176 0.01918178 
0.01562314 0.02157357 0.00318563 0.00336337 0.01194969 0.00147572 0.00857865 0.00292143 0.02494085 0.00498465 0.02286698 0.00108559 0.01547580 0.10009765 0.02729672 0.01936495 
0.01560167 0.02100214 0.00314565 0.00330365 0.01227777 0.00147654 0.00869492 0.00294978 0.02473637 0.00497900 0.02267299 0.00111443 0.01607917 0.10030542 0.02740800 0.01951865 
0.01557845 0.02042468 0.00310068 0.00324082 0.01261171 0.00147789 0.00882652 0.00298591 0.02450991 0.00496840 0.02246081 0.00114322 0.01668617 0.10044230 0.02749555 0.01964227 
0.01555289 0.01984501 0.00305082 0.00317506 0.01295088 0.00147975 0.00897303 0.00302944 0.02426198 0.00495279 0.02223138 0.00117181 0.01729405 0.10050896 0.02755943 0.01973530 
0.01552448 0.01926699 0.00299619 0.00310658 0.01329462 0.00148209 0.00913402 0.00307999 0.02399329 0.00493212 0.02198569 0.00120009 0.01790009 0.10050628 0.02759977 0.01979738 
0.01549274 0.01869449 0.00293693 0.00303561 0.01364221 0.00148490 0.00930897 0.00313712 0.02370469 0.00490636 0.02172476 0.00122791 0.01850157 0.10043535 0.02761677 0.01982827 
0.01545724 0.01813134 0.00287321 0.00296236 0.01399291 0.00148817 0.00949735 0.00320037 0.02339722 0.00487554 0.02144967 0.00125515 0.01909576 0.10029745 0.02761074 0.01982788 
0.01541761 0.01758134 0.00280523 0.00288711 0.01434591 0.00149187 0.00969858 0.00326924 0.02307206 0.00483966 0.02116151 0.00128168 0.01968001 0.10009406 0.02758204 0.01979624 
0.01537354 0.01704824 0.00273321 0.00281010 0.01470039 0.00149598 0.00991203 0.00334323 0.02273057 0.00479881 0.02086143 0.00130740 0.02025167 0.09982680 0.02753109 0.01973352 
0.01532478 0.01653566 0.00265740 0.00273164 0.01505548 0.00150049 0.01013704 0.00342179 0.02237423 0.00475307 0.02055059 0.00133218 0.02080819 0.09949747 0.02745842 0.01964004 
0.01527113 0.01604715 0.00257808 0.00265200 0.01541026 0.00150537 0.01037292 0.00350437 0.02200468 0.00470256 0.02023015 0.00135592 0.02134709 0.09910804 0.02736458 0.01951623 
0.01521244 0.01558609 0.00249556 0.00257150 0.01576379 0.00151060 0.01061894 0.00359042 0.02162366 0.00464742 0.01990131 0.00137852 0.02186596 0.09866061 0.02725020 0.01936266 
0.01514865 0.01515573 0.00241014 0.00249045 0.01611510 0.00151618 0.01087432 0.00367936 0.02123305 0.00458783 0.01956527 0.00139989 0.02236251 0.09815742 0.02711599 0.01918001 
0.01507974 0.01475912 0.00232219 0.00240920 0.01646319 0.00152209 0.01113827 0.00377060 0.02083482 0.00452399 0.01922321 0.00141995 0.02283457 0.09760083 0.02696268 0.01896911 
0.01500573 0.01439914 0.00223208 0.00232808 0.01680701 0.00152832 0.01140998 0.00386356 0.02043102 0.00445612 0.01887633 0.00143862 0.02328008 0.09699331 0.02679106 0.01873088 
0.01492671 0.01407843 0.00214020 0.00224744 0.01714552 0.00153487 0.01168858 0.00395767 0.02002381 0.00438449 0.01852582 0.00145584 0.02369714 0.09633746 0.02660198 0.01846636 
0.01484285 0.01379942 0.00204697 0.00216764 0.01747763 0.00154172 0.01197320 0.00405235 0.01961538 0.00430938 0.01817284 0.00147154 0.02408397 0.09563594 0.02639633 0.01817669 
0.01475432 0.01356429 0.00195283 0.00208905 0.01780226 0.00154887 0.01226295 0.00414703 0.01920797 0.00423110 0.01781854 0.00148567 0.02443898 0.09489152 0.02617501 0.01786311 
0.01466137 0.01337496 0.00185822 0.00201204 0.01811831 0.00155634 0.01255691 0.00424116 0.01880386 0.00414997 0.01746405 0.00149820 0.02476074 0.09410703 0.02593899 0.01752693 
0.01456428 0.01323307 0.00176361 0.00193698 0.01842466 0.00156413 0.01285413 0.00433419 0.01840536 0.00406635 0.01711046 0.00150909 0.02504799 0.09328535 0.02568925 0.01716958 
0.01446339 0.01314000 0.00166950 0.00186425 0.01872022 0.00157226 0.01315368 0.00442561 0.01801474 0.00398061 0.01675884 0.00151832 0.02529966 0.09242944 0.02542681 0.01679252 
0.01435907 0.01309683 0.00157638 0.00179422 0.01900387 0.00158073 0.01345459 0.00451492 0.01763430 0.00389316 0.01641022 0.00152588 0.02551488 0.09154228 0.02515269 0.01639729 
0.01425170 0.01310434 0.00148476 0.00172727 0.01927452 0.00158957 0.01375587 0.00460164 0.01726627 0.00380439 0.01606558 0.00153176 0.02569295 0.09062687 0.02486794 0.01598548 
0.01414172 0.01316304 0.00139515 0.00166376 0.01953111 0.00159882 0.01405656 0.00468533 0.01691285 0.00371474 0.01572588 0.00153596 0.02583340 0.08968626 0.02457362 0.01555875 
0.01402959 0.01327310 0.00130807 0.00160408 0.01977256 0.00160849 0.01435564 0.00476557 0.01657619 0.00362466 0.01539200 0.00153851 0.02593595 0.08872347 0.02427079 0.01511875 
0.01391577 0.01343442 0.00122406 0.00154857 0.01999786 0.00161863 0.01465214 0.00484198 0.01625832 0.00353460 0.01506482 0.00153941 0.02600054 0.08774155 0.02396054 0.01466719 
0.01380077 0.01364658 0.00114364 0.00149759 0.02020602 0.00162928 0.01494506 0.00491419 0.01596123 0.00344502 0.01474513 0.00153869 0.02602730 0.08674352 0.02364392 0.01420579 
0.01368507 0.01390887 0.00106734 0.00145149 0.02039606 0.00164047 0.01523341 0.00498191 0.01568676 0.00335639 0.01443367 0.00153640 0.02601659 0.08573237 0.02332200 0.01373626 
0.01356921 0.01422030 0.00099568 0.00141058 0.02056710 0.00165227 0.01551621 0.00504485 0.01543665 0.00326920 0.01413116 0.00153258 0.02596896 0.08471106 0.02299584 0.01326033 
0.01345368 0.01457958 0.00092918 0.00137519 0.02071827 0.00166472 0.01579246 0.00510277 0.01521250 0.00318392 0.01383823 0.00152728 0.02588518 0.08368251 0.02266648 0.01277971 
0.01333901 0.01498515 0.00086835 0.00134562 0.02084876 0.00167788 0.01606122 0.00515548 0.01501576 0.00310103 0.01355547 0.00152055 0.02576620 0.08264958 0.02233493 0.01229609 
0.01322571 0.01543518 0.00081367 0.00132214 0.02095785 0.00169181 0.01632152 0.00520281 0.01484773 0.00302102 0.01328343 0.00151246 0.02561320 0.08161506 0.02200220 0.01181112 
0.01311427 0.01592760 0.00076564 0.00130503 0.02104486 0.00170656 0.01657244 0.00524465 0.01470956 0.00294435 0.01302256 0.00150308 0.02542753 0.08058168 0.02166926 0.01132644 
0.01300519 0.01646010 0.00072471 0.00129451 0.02110920 0.00172221 0.01681305 0.00528092 0.01460219 0.00287151 0.01277331 0.00149248 0.02521073 0.07955206 0.02133707 0.01084362 
0.01289893 0.01703013 0.00069132 0.00129081 0.02115034 0.00173881 0.01704247 0.00531158 0.01452640 0.00280293 0.01253605 0.00148075 0.02496453 0.07852876 0.02100654 0.01036419 
0.01279595 0.01763494 0.00066590 0.00129413 0.02116785 0.00175644 0.01725983 0.00533665 0.01448278 0.00273908 0.01231108 0.00146796 0.02469081 0.07751420 0.02067854 0.00988964 
0.01269668 0.01827159 0.00064883 0.00130462 0.02116138 0.00177515 0.01746430 0.00535616 0.01447174 0.00268038 0.01209868 0.00145420 0.02439162 0.07651073 0.02035392 0.00942135 
0.01260153 0.01893698 0.00064048 0.00132243 0.02113066 0.00179501 0.01765509 0.00537021 0.01449346 0.00262724 0.01189907 0.00143956 0.02406918 0.07552055 0.02003347 0.00896069 
0.01251086 0.01962783 0.00064118 0.00134767 0.02107552 0.00181608 0.01783143 0.00537892 0.01454796 0.00258006 0.01171241 0.00142413 0.02372581 0.07454576 0.01971795 0.00850891 
0.01242503 0.02034077 0.00065123 0.00138041 0.02099589 0.00183842 0.01799259 0.00538246 0.01463503 0.00253921 0.01153883 0.00140801 0.02336398 0.07358831 0.01940807 0.00806721 
0.01234434 0.02107228 0.00067088 0.00142072 0.02089178 0.00186210 0.01813790 0.00538101 0.01475428 0.00250504 0.01137842 0.00139129 0.02298627 0.07265003 0.01910450 0.00763669 
0.01226908 0.02181878 0.00070036 0.00146860 0.02076332 0.00188716 0.01826673 0.00537481 0.01490512 0.00247787 0.01123120 0.00137406 0.02259535 0.07173261 0.01880784 0.00721838 
0.01219948 0.02257660 0.00073986 0.00152404 0.02061072 0.00191365 0.01837850 0.00536413 0.01508677 0.00245801 0.01109720 0.00135644 0.02219398 0.07083757 0.01851865 0.00681323 
0.01213577 0.02334204 0.00078950 0.00158699 0.02043431 0.00194161 0.01847266 0.00534926 0.01529826 0.00244570 0.01097637 0.00133849 0.02178500 0.06996630 0.01823744 0.00642208 
0.01207809 0.02411137 0.00084939 0.00165736 0.02023450 0.00197109 0.01854875 0.00533053 0.01553843 0.00244119 0.01086865 0.00132034 0.02137127 0.06912006 0.01796467 0.00604570 
0.01202660 0.02488087 0.00091957 0.00173503 0.02001180 0.00200211 0.01860635 0.00530829 0.01580597 0.00244468 0.01077395 0.00130206 0.02095573 0.06829990 0.01770073 0.00568478 
0.01198137 0.02564683 0.00100005 0.00181986 0.01976684 0.00203469 0.01864510 0.00528290 0.01609939 0.00245633 0.01069216 0.00128376 0.02054132 0.06750678 0.01744598 0.00533990 
0.01194247 0.02640559 0.00109077 0.00191165 0.01950031 0.00206886 0.01866469 0.00525476 0.01641705 0.00247627 0.01062314 0.00126552 0.02013096 0.06674144 0.01720071 0.00501157 
0.01190993 0.02715355 0.00119164 0.00201018 0.01921303 0.00210460 0.01866491 0.00522429 0.01675717 0.00250459 0.01056672 0.00124743 0.01972761 0.06600452 0.01696516 0.00470022 
0.01188372 0.02788720 0.00130251 0.00211520 0.01890588 0.00214193 0.01864557 0.00519191 0.01711783 0.00254136 0.01052274 0.00122958 0.01933415 0.06529647 0.01673950 0.00440620 
0.01186379 0.02860312 0.00142318 0.00222640 0.01857984 0.00218082 0.01860658 0.00515806 0.01749701 0.00258658 0.01049100 0.00121204 0.01895344 0.06461760 0.01652388 0.00412976 
0.01185007 0.02929803 0.00155341 0.00234347 0.01823597 0.00222125 0.01854790 0.00512319 0.01789259 0.00264023 0.01047131 0.00119491 0.01858827 0.06396806 0.01631837 0.00387110 
0.01184244 0.02996878 0.00169290 0.00246606 0.01787541 0.00226318 0.01846958 0.00508776 0.01830235 0.00270226 0.01046346 0.00117824 0.01824136 0.06334788 0.01612302 0.00363034 
0.01184075 0.03061237 0.00184130 0.00259377 0.01749938 0.00230657 0.01837170 0.00505223 0.01872400 0.00277256 0.01046725 0.00116213 0.01791531 0.06275690 0.01593779 0.00340753 
0.01184484 0.03122599 0.00199822 0.00272620 0.01710914 0.00235135 0.01825446 0.00501707 0.01915520 0.00285099 0.01048245 0.00114662 0.01761264 0.06219486 0.01576263 0.00320268 
0.01185451 0.03180700 0.00216322 0.00286289 0.01670604 0.00239745 0.01811809 0.00498273 0.01959360 0.00293738 0.01050887 0.00113179 0.01733572 0.06166135 0.01559743 0.00301573 
0.01186954 0.03235297 0.00233579 0.00300338 0.01629147 0.00244480 0.01796291 0.00494969 0.02003678 0.00303151 0.01054627 0.00111770 0.01708679 0.06115584 0.01544203 0.00284656 
0.01188970 0.03286166 0.00251542 0.00314719 0.01586687 0.00249329 0.01778930 0.00491838 0.02048236 0.00313312 0.01059447 0.00110439 0.01686792 0.06067765 0.01529625 0.00269501 
0.01191472 0.03333107 0.00270152 0.00329378 0.01543373 0.00254281 0.01759771 0.00488925 0.02092796 0.00324192 0.01065325 0.00109192 0.01668103 0.06022602 0.01515985 0.00256091 
0.01194434 0.03375941 0.00289347 0.00344263 0.01499357 0.00259326 0.01738866 0.00486274 0.02137123 0.00335760 0.01072241 0.00108034 0.01652785 0.05980007 0.01503257 0.00244401 
0.01197826 0.03414515 0.00309063 0.00359318 0.01454793 0.00264449 0.01716271 0.00483927 0.02180989 0.00347978 0.01080176 0.00106967 0.01640992 0.05939880 0.01491412 0.00234407 
0.01201621 0.03448696 0.00329230 0.00374486 0.01409838 0.00269637 0.01692052 0.00481924 0.02224169 0.00360808 0.01089112 0.00105995 0.01632857 0.05902113 0.01480416 0.00226082 
0.01205789 0.03478379 0.00349776 0.00389711 0.01364649 0.00274873 0.01666278 0.00480303 0.02266451 0.00374207 0.01099031 0.00105123 0.01628494 0.05866590 0.01470234 0.00219396 
0.01210298 0.03503481 0.00370626 0.00404932 0.01319385 0.00280143 0.01639025 0.00479102 0.02307631 0.00388131 0.01109915 0.00104351 0.01627993 0.05833186 0.01460828 0.00214321 
0.01215120 0.03523946 0.00391704 0.00420089 0.01274204 0.00285428 0.01610375 0.00478354 0.02347514 0.00402531 0.01121748 0.00103682 0.01631423 0.05801771 0.01452159 0.00210825 
0.01220223 0.03539738 0.00412929 0.00435124 0.01229263 0.00290711 0.01580413 0.00478092 0.02385923 0.00417356 0.01134515 0.00103117 0.01638828 0.05772206 0.01444184 0.00208879 
0.01225579 0.03550851 0.00434219 0.00449974 0.01184716 0.00295972 0.01549230 0.00478346 0.02422693 0.00432554 0.01148199 0.00102658 0.01650230 0.05744349 0.01436861 0.00208454 
0.01231159 0.03557297 0.00455494 0.00464582 0.01140717 0.00301192 0.01516922 0.00479143 0.02457672 0.00448071 0.01162785 0.00102305 0.01665627 0.05718053 0.01430144 0.00209522 
0.01236934 0.03559116 0.00476668 0.00478886 0.01097414 0.00306351 0.01483587 0.00480508 0.02490730 0.00463849 0.01178259 0.00102058 0.01684994 0.05693168 0.01423990 0.00212056 
0.01242878 0.03556369 0.00497659 0.00492828 0.01054953 0.00311427 0.01449328 0.00482462 0.02521751 0.00479832 0.01194604 0.00101916 0.01708281 0.05669540 0.01418351 0.00216033 
0.01248966 0.03549137 0.00518382 0.00506351 0.01013475 0.00316399 0.01414250 0.00485024 0.02550638 0.00495958 0.01211807 0.00101880 0.01735414 0.05647016 0.01413181 0.00221429 
0.01255175 0.03537524 0.00538754 0.00519399 0.00973116 0.00321245 0.01378463 0.00488211 0.02577316 0.00512168 0.01229850 0.00101948 0.01766297 0.05625440 0.01408434 0.00228226 
0.01261481 0.03521655 0.00558693 0.00531915 0.00934004 0.00325945 0.01342075 0.00492036 0.02601726 0.00528401 0.01248717 0.00102117 0.01800809 0.05604656 0.01404063 0.00236407 
0.01267864 0.03501671 0.00578117 0.00543849 0.00896263 0.00330475 0.01305199 0.00496508 0.02623834 0.00544595 0.01268390 0.00102388 0.01838810 0.05584509 0.01400024 0.00245959 
0.01274308 0.03477734 0.00596947 0.00555149 0.00860010 0.00334814 0.01267949 0.00501635 0.02643622 0.00560689 0.01288851 0.00102757 0.01880135 0.05564847 0.01396271 0.00256872 
0.01280794 0.03450020 0.00615106 0.00565768 0.00825353 0.00338941 0.01230437 0.00507421 0.02661096 0.00576620 0.01310079 0.00103221 0.01924600 0.05545519 0.01392759 0.00269140 
0.01287310 0.03418722 0.00632519 0.00575660 0.00792393 0.00342833 0.01192778 0.00513868 0.02676282 0.00592328 0.01332051 0.00103778 0.01972002 0.05526376 0.01389446 0.00282759 
0.01293843 0.03384047 0.00649117 0.00584784 0.00761221 0.00346471 0.01155085 0.00520973 0.02689227 0.00607751 0.01354742 0.00104424 0.02022118 0.05507276 0.01386290 0.00297730 
0.01300383 0.03346213 0.00664830 0.00593101 0.00731923 0.00349833 0.01117471 0.00528731 0.02699997 0.00622831 0.01378126 0.00105157 0.02074708 0.05488079 0.01383252 0.00314057 
0.01306923 0.03305451 0.00679595 0.00600574 0.00704573 0.00352899 0.01080047 0.00537136 0.02708678 0.00637507 0.01402172 0.00105972 0.02129517 0.05468652 0.01380292 0.00331746 
0.01313457 0.03262002 0.00693354 0.00607173 0.00679236 0.00355652 0.01042924 0.00546177 0.02715378 0.00651724 0.01426847 0.00106865 0.02186274 0.05448867 0.01377374 0.00350806 
0.01319982 0.03216114 0.00706051 0.00612869 0.00655969 0.00358073 0.01006209 0.00555840 0.02720218 0.00665424 0.01452115 0.00107833 0.02244697 0.05428601 0.01374465 0.00371251 
0.01326497 0.03168043 0.00717637 0.00617638 0.00634817 0.00360144 0.00970006 0.00566111 0.02723342 0.00678556 0.01477936 0.00108871 0.02304491 0.05407742 0.01371532 0.00393096 
0.01333002 0.03118051 0.00728068 0.00621460 0.00615818 0.00361851 0.00934417 0.00576970 0.02724905 0.00691066 0.01504266 0.00109974 0.02365351 0.05386182 0.01368546 0.00416357 
0.01339498 0.03066403 0.00737305 0.00624320 0.00598998 0.00363179 0.00899541 0.00588398 0.02725081 0.00702906 0.01531058 0.00111138 0.02426967 0.05363823 0.01365478 0.00441053 
0.01345991 0.03013367 0.00745316 0.00626206 0.00584375 0.00364114 0.00865472 0.00600371 0.02724056 0.00714029 0.01558259 0.00112357 0.02489021 0.05340577 0.01362306 0.00467203 
0.01352485 0.02959214 0.00752074 0.00627111 0.00571956 0.00364646 0.00832299 0.00612863 0.02722027 0.00724391 0.01585813 0.00113628 0.02551192 0.05316363 0.01359006 0.00494829 
0.01358986 0.02904213 0.00757559 0.00627031 0.00561739 0.00364764 0.00800109 0.00625848 0.02719203 0.00733950 0.01613660 0.00114946 0.02613155 0.05291110 0.01355559 0.00523951 
0.01365502 0.02848633 0.00761757 0.00625970 0.00553712 0.00364459 0.00768981 0.00639296 0.02715803 0.00742669 0.01641735 0.00116304 0.02674588 0.05264758 0.01351950 0.00554589 
0.01372041 0.02792742 0.00764660 0.00623932 0.00547854 0.00363726 0.00738991 0.00653175 0.02712051 0.00750512 0.01669967 0.00117698 0.02735169 0.05237259 0.01348164 0.00586762 
0.01378613 0.02736801 0.00766269 0.00620928 0.00544136 0.00362558 0.00710209 0.00667454 0.02708177 0.00757448 0.01698283 0.00119124 0.02794579 0.05208574 0.01344192 0.00620487 
0.01385227 0.02681070 0.00766588 0.00616972 0.00542517 0.00360954 0.00682698 0.00682096 0.02704414 0.00763449 0.01726604 0.00120575 0.02852507 0.05178675 0.01340027 0.00655781 
0.01391892 0.02625802 0.00765630 0.00612084 0.00542952 0.00358912 0.00656516 0.00697066 0.02700999 0.00768489 0.01754848 0.00122047 0.02908649 0.05147548 0.01335662 0.00692654 
0.01398617 0.02571243 0.00763414 0.00606286 0.00545385 0.00356432 0.00631716 0.00712327 0.02698167 0.00772547 0.01782927 0.00123535 0.02962709 0.05115189 0.01331099 0.00731117 
0.01405412 0.02517632 0.00759965 0.00599604 0.00549753 0.00353518 0.00608342 0.00727840 0.02696149 0.00775606 0.01810751 0.00125033 0.03014404 0.05081607 0.01326337 0.00771172 
0.01412286 0.02465201 0.00755316 0.00592070 0.00555985 0.00350173 0.00586435 0.00743564 0.02695176 0.00777653 0.01838227 0.00126538 0.03063465 0.05046825 0.01321383 0.00812819 
0.01419245 0.02414172 0.00749503 0.00583716 0.00564004 0.00346406 0.00566027 0.00759461 0.02695469 0.00778676 0.01865255 0.00128043 0.03109635 0.05010877 0.01316244 0.00856053 
0.01426297 0.02364756 0.00742571 0.00574582 0.00573726 0.00342223 0.00547143 0.00775487 0.02697243 0.00778669 0.01891736 0.00129544 0.03152676 0.04973812 0.01310931 0.00900861 
0.01433447 0.02317155 0.00734569 0.00564707 0.00585063 0.00337635 0.00529805 0.00791602 0.02700702 0.00777631 0.01917566 0.00131036 0.03192367 0.04935690 0.01305459 0.00947224 
0.01440700 0.02271562 0.00725551 0.00554135 0.00597918 0.00332655 0.00514024 0.00807761 0.02706041 0.00775561 0.01942641 0.00132515 0.03228506 0.04896587 0.01299844 0.00995114 
0.01448057 0.02228156 0.00715578 0.00542913 0.00612194 0.00327297 0.00499808 0.00823924 0.02713439 0.00772465 0.01966855 0.00133975 0.03260914 0.04856593 0.01294108 0.01044498 
0.01455519 0.02187106 0.00704714 0.00531089 0.00627785 0.00321577 0.00487157 0.00840046 0.02723060 0.00768351 0.01990100 0.00135414 0.03289429 0.04815809 0.01288273 0.01095332 
0.01463085 0.02148567 0.00693028 0.00518715 0.00644583 0.00315511 0.00476064 0.00856083 0.02735054 0.00763231 0.02012267 0.00136827 0.03313917 0.04774353 0.01282365 0.01147565 
0.01470751 0.02112684 0.00680592 0.00505843 0.00662479 0.00309121 0.00466518 0.00871994 0.02749552 0.00757122 0.02033251 0.00138209 0.03334265 0.04732355 0.01276415 0.01201136 
0.01478512 0.02079589 0.00667483 0.00492529 0.00681359 0.00302425 0.00458500 0.00887734 0.02766665 0.00750041 0.02052945 0.00139557 0.03350385 0.04689962 0.01270454 0.01255974 
0.01486359 0.02049401 0.00653780 0.00478827 0.00701107 0.00295448 0.00451987 0.00903262 0.02786485 0.00742012 0.02071243 0.00140866 0.03362213 0.04647333 0.01264516 0.01311999 
0.01494283 0.02022225 0.00639564 0.00464795 0.00721606 0.00288211 0.00446948 0.00918534 0.02809082 0.00733060 0.02088045 0.00142135 0.03369712 0.04604641 0.01258640 0.01369120 
0.01502270 0.01998156 0.00624921 0.00450491 0.00742739 0.00280741 0.00443349 0.00933510 0.02834504 0.00723214 0.02103250 0.00143358 0.03372870 0.04562074 0.01252866 0.01427236 
0.01510306 0.01977273 0.00609935 0.00435973 0.00764387 0.00273063 0.00441148 0.00948148 0.02862777 0.00712507 0.02116765 0.00144534 0.03371701 0.04519836 0.01247237 0.01486237 
0.01518373 0.01959646 0.00594692 0.00421300 0.00786433 0.00265205 0.00440302 0.00962408 0.02893904 0.00700973 0.02128499 0.00145659 0.03366244 0.04478140 0.01241798 0.01546001 
0.01526452 0.01945328 0.00579281 0.00406529 0.00808758 0.00257194 0.00440760 0.00976251 0.02927862 0.00688650 0.02138367 0.00146731 0.03356566 0.04437219 0.01236598 0.01606397 
0.01534519 0.01934362 0.00563787 0.00391719 0.00831247 0.00249060 0.00442469 0.00989639 0.02964606 0.00675579 0.02146290 0.00147747 0.03342757 0.04397313 0.01231685 0.01667285 
0.01542551 0.01926778 0.00548299 0.00376926 0.00853786 0.00240832 0.00445370 0.01002536 0.03004068 0.00661804 0.02152198 0.00148704 0.03324932 0.04358680 0.01227113 0.01728512 
0.01550522 0.01922593 0.00532901 0.00362208 0.00876262 0.00232539 0.00449401 0.01014906 0.03046155 0.00647368 0.02156027 0.00149602 0.03303231 0.04321589 0.01222935 0.01789920 
0.01558404 0.01921812 0.00517679 0.00347618 0.00898566 0.00224214 0.00454500 0.01026716 0.03090751 0.00632321 0.02157722 0.00150438 0.03277816 0.04286321 0.01219209 0.01851339 
0.01566166 0.01924428 0.00502714 0.00333210 0.00920591 0.00215885 0.00460596 0.01037933 0.03137718 0.00616713 0.02157238 0.00151211 0.03248872 0.04253170 0.01215992 0.01912592 
0.01573777 0.01930422 0.00488086 0.00319037 0.00942234 0.00207584 0.00467622 0.01048527 0.03186895 0.00600594 0.02154538 0.00151919 0.03216604 0.04222438 0.01213343 0.01973493 
0.01581206 0.01939764 0.00473873 0.00305148 0.00963395 0.00199343 0.00475503 0.01058469 0.03238101 0.00584018 0.02149597 0.00152562 0.03181240 0.04194442 0.01211323 0.02033850 
0.01588418 0.01952412 0.00460148 0.00291591 0.00983980 0.00191190 0.00484166 0.01067734 0.03291133 0.00567042 0.02142402 0.00153139 0.03143023 0.04169504 0.01209995 0.02093464 
0.01595380 0.01968313 0.00446981 0.00278411 0.01003898 0.00183158 0.00493537 0.01076296 0.03345773 0.00549720 0.02132949 0.00153650 0.03102215 0.04147959 0.01209422 0.02152132 
0.01602056 0.01987402 0.00434438 0.00265651 0.01023062 0.00175275 0.00503537 0.01084134 0.03401781 0.00532112 0.02121248 0.00154093 0.03059092 0.04130146 0.01209667 0.02209645 
0.01608412 0.02009605 0.00422581 0.00253353 0.01041393 0.00167572 0.00514091 0.01091229 0.03458904 0.00514276 0.02107322 0.00154470 0.03013945 0.04116414 0.01210795 0.02265789 
0.01614413 0.02034837 0.00411466 0.00241553 0.01058813 0.00160076 0.00525120 0.01097562 0.03516874 0.00496271 0.02091205 0.00154781 0.02967076 0.04107115 0.01212871 0.02320349 
0.01620026 0.02063003 0.00401144 0.00230285 0.01075254 0.00152816 0.00536548 0.01103118 0.03575412 0.00478159 0.02072946 0.00155026 0.02918799 0.04102607 0.01215960 0.02373108 
0.01625216 0.02093996 0.00391661 0.00219583 0.01090649 0.00145818 0.00548299 0.01107887 0.03634225 0.00460001 0.02052605 0.00155206 0.02869433 0.04103250 0.01220125 0.02423849 
0.01629953 0.02127704 0.00383059 0.00209474 0.01104942 0.00139109 0.00560295 0.01111859 0.03693016 0.00441858 0.02030257 0.00155322 0.02819306 0.04109405 0.01225431 0.02472354 
0.01634206 0.02164001 0.00375371 0.00199985 0.01118077 0.00132713 0.00572464 0.01115026 0.03751477 0.00423792 0.02005991 0.00155377 0.02768748 0.04121434 0.01231942 0.02518408 
0.01637946 0.02202755 0.00368626 0.00191136 0.01130009 0.00126654 0.00584730 0.01117385 0.03809299 0.00405863 0.01979908 0.00155370 0.02718093 0.04139698 0.01239718 0.02561798 
0.01641146 0.02243825 0.00362847 0.00182949 0.01140695 0.00120954 0.00597025 0.01118936 0.03866170 0.00388135 0.01952121 0.00155305 0.02667674 0.04164551 0.01248820 0.02602317 
0.01643784 0.02287061 0.00358050 0.00175438 0.01150101 0.00115634 0.00609277 0.01119680 0.03921777 0.00370667 0.01922760 0.00155183 0.02617822 0.04196345 0.01259307 0.02639760 
0.01645837 0.02332305 0.00354246 0.00168617 0.01158197 0.00110712 0.00621420 0.01119623 0.03975810 0.00353520 0.01891962 0.00155008 0.02568864 0.04235424 0.01271235 0.02673931 
0.01647287 0.02379392 0.00351438 0.00162495 0.01164960 0.00106207 0.00633391 0.01118772 0.04027966 0.00336754 0.01859881 0.00154781 0.02521121 0.04282122 0.01284657 0.02704641 
0.01648121 0.02428150 0.00349625 0.00157078 0.01170373 0.00102134 0.00645128 0.01117140 0.04077946 0.00320427 0.01826680 0.00154505 0.02474905 0.04336762 0.01299625 0.02731711 
0.01648326 0.02478400 0.00348798 0.00152371 0.01174423 0.00098508 0.00656574 0.01114740 0.04125461 0.00304598 0.01792533 0.00154184 0.02430520 0.04399654 0.01316187 0.02754971 
0.01647896 0.02529956 0.00348942 0.00148374 0.01177105 0.00095341 0.00667673 0.01111589 0.04170233 0.00289321 0.01757624 0.00153821 0.02388255 0.04471091 0.01334385 0.02774262 
0.01646828 0.02582626 0.00350039 0.00145084 0.01178418 0.00092643 0.00678376 0.01107708 0.04212000 0.00274652 0.01722149 0.00153419 0.02348389 0.04551350 0.01354260 0.02789438 
0.01645123 0.02636213 0.00352062 0.00142496 0.01178367 0.00090424 0.00688634 0.01103121 0.04250513 0.00260644 0.01686310 0.00152983 0.02311182 0.04640687 0.01375847 0.02800367 
0.01642787 0.02690517 0.00354981 0.00140602 0.01176963 0.00088690 0.00698404 0.01097852 0.04285540 0.00247347 0.01650316 0.00152516 0.02276878 0.04739335 0.01399176 0.02806930 
0.01639829 0.02745329 0.00358758 0.00139392 0.01174219 0.00087446 0.00707647 0.01091932 0.04316872 0.00234811 0.01614386 0.00152022 0.02245704 0.04847504 0.01424273 0.02809024 
0.01636264 0.02800440 0.00363353 0.00138853 0.01170157 0.00086696 0.00716328 0.01085392 0.04344318 0.00223082 0.01578740 0.00151505 0.02217864 0.04965375 0.01451157 0.02806562 
0.01632112 0.02855636 0.00368721 0.00138970 0.01164801 0.00086439 0.00724416 0.01078266 0.04367709 0.00212204 0.01543607 0.00150971 0.02193542 0.05093102 0.01479843 0.02799476 
0.01627397 0.02910701 0.00374810 0.00139724 0.01158181 0.00086677 0.00731882 0.01070592 0.04386905 0.00202219 0.01509216 0.00150423 0.02172901 0.05230807 0.01510338 0.02787713 
0.01622147 0.02965414 0.00381568 0.00141097 0.01150328 0.00087405 0.00738705 0.01062408 0.04401785 0.00193165 0.01475798 0.00149866 0.02156078 0.05378578 0.01542642 0.02771239 
0.01616396 0.03019557 0.00388937 0.00143068 0.01141282 0.00088620 0.00744867 0.01053756 0.04412259 0.00185079 0.01443586 0.00149304 0.02143187 0.05536467 0.01576751 0.02750041 
0.01610181 0.03072907 0.00396856 0.00145612 0.01131083 0.00090315 0.00750352 0.01044680 0.04418263 0.00177993 0.01412813 0.00148744 0.02134316 0.05704491 0.01612651 0.02724123 
0.01603544 0.03125244 0.00405262 0.00148706 0.01119775 0.00092482 0.00755151 0.01035226 0.04419761 0.00171935 0.01383707 0.00148188 0.02129529 0.05882626 0.01650321 0.02693510 
0.01596532 0.03176346 0.00414090 0.00152323 0.01107406 0.00095110 0.00759257 0.01025441 0.04416745 0.00166933 0.01356496 0.00147643 0.02128862 0.06070806 0.01689733 0.02658246 
0.01589195 0.03225993 0.00423272 0.00156435 0.01094027 0.00098189 0.00762668 0.01015373 0.04409237 0.00163008 0.01331400 0.00147113 0.02132326 0.06268924 0.01730852 0.02618397 
0.01581586 0.03273967 0.00432740 0.00161015 0.01079692 0.00101704 0.00765386 0.01005072 0.04397288 0.00160179 0.01308635 0.00146602 0.02139907 0.06476829 0.01773633 0.02574047 
0.01573764 0.03320055 0.00442424 0.00166032 0.01064456 0.00105641 0.00767417 0.00994591 0.04380976 0.00158460 0.01288409 0.00146116 0.02151562 0.06694323 0.01818024 0.02525303 
0.01565788 0.03364043 0.00452253 0.00171457 0.01048377 0.00109984 0.00768769 0.00983980 0.04360410 0.00157862 0.01270922 0.00145660 0.02167225 0.06921164 0.01863964 0.02472288 
0.01557723 0.03405726 0.00462158 0.00177257 0.01031516 0.00114713 0.00769456 0.00973292 0.04335725 0.00158393 0.01256362 0.00145238 0.02186803 0.07157060 0.01911383 0.02415150 
0.01549633 0.03444903 0.00472068 0.00183403 0.01013934 0.00119810 0.00769493 0.00962580 0.04307084 0.00160053 0.01244907 0.00144854 0.02210180 0.07401674 0.01960205 0.02354052 
0.01541587 0.03481376 0.00481915 0.00189860 0.00995696 0.00125254 0.00768900 0.00951897 0.04274675 0.00162843 0.01236723 0.00144513 0.02237215 0.07654618 0.02010343 0.02289177 
0.01533654 0.03514958 0.00491629 0.00196598 0.00976864 0.00131023 0.00767698 0.00941295 0.04238712 0.00166755 0.01231961 0.00144220 0.02267745 0.07915458 0.02061702 0.02220728 
0.01525905 0.03545469 0.00501146 0.00203584 0.00957507 0.00137095 0.00765913 0.00930827 0.04199433 0.00171781 0.01230758 0.00143977 0.02301586 0.08183709 0.02114180 0.02148926 
0.01518411 0.03572736 0.00510401 0.00210785 0.00937689 0.00143443 0.00763572 0.00920544 0.04157098 0.00177904 0.01233234 0.00143790 0.02338531 0.08458841 0.02167666 0.02074005 
0.01511243 0.03596596 0.00519332 0.00218170 0.00917478 0.00150045 0.00760704 0.00910496 0.04111985 0.00185106 0.01239494 0.00143662 0.02378357 0.08740273 0.02222040 0.01996220 
0.01504474 0.03616898 0.00527880 0.00225705 0.00896942 0.00156874 0.00757342 0.00900732 0.04064392 0.00193364 0.01249625 0.00143595 0.02420822 0.09027382 0.02277175 0.01915839 
0.01498172 0.03633501 0.00535989 0.00233359 0.00876149 0.00163902 0.00753519 0.00891298 0.04014635 0.00202651 0.01263693 0.00143594 0.02465670 0.09319497 0.02332937 0.01833143 
0.01492409 0.03646275 0.00543606 0.00241102 0.00855166 0.00171104 0.00749271 0.00882242 0.03963040 0.00212933 0.01281750 0.00143660 0.02512629 0.09615904 0.02389185 0.01748430 
0.01487251 0.03655105 0.00550684 0.00248901 0.00834061 0.00178450 0.00744635 0.00873604 0.03909949 0.00224176 0.01303823 0.00143797 0.02561415 0.09915848 0.02445770 0.01662005 
0.01482764 0.03659888 0.00557175 0.00256727 0.00812902 0.00185914 0.00739650 0.00865427 0.03855710 0.00236339 0.01329922 0.00144006 0.02611737 0.10218533 0.02502537 0.01574188 
0.01479011 0.03660535 0.00563041 0.00264550 0.00791755 0.00193466 0.00734353 0.00857749 0.03800680 0.00249377 0.01360036 0.00144290 0.02663292 0.10523127 0.02559325 0.01485307 
0.01476051 0.03656972 0.00568245 0.00272341 0.00770688 0.00201077 0.00728787 0.00850604 0.03745220 0.00263242 0.01394135 0.00144650 0.02715772 0.10828763 0.02615968 0.01395696 
0.01473941 0.03649143 0.00572755 0.00280073 0.00749765 0.00208719 0.00722991 0.00844026 0.03689692 0.00277883 0.01432164 0.00145086 0.02768867 0.11134545 0.02672295 0.01305700 
0.01472731 0.03637005 0.00576543 0.00287717 0.00729052 0.00216363 0.00717008 0.00838042 0.03634459 0.00293244 0.01474053 0.00145600 0.02822263 0.11439545 0.02728131 0.01215666 
0.01472469 0.03620532 0.00579589 0.00295247 0.00708611 0.00223980 0.00710878 0.00832678 0.03579877 0.00309265 0.01519706 0.00146191 0.02875647 0.11742814 0.02783296 0.01125945 
0.01473198 0.03599718 0.00581873 0.00302640 0.00688506 0.00231542 0.00704643 0.00827956 0.03526301 0.00325884 0.01569010 0.00146860 0.02928709 0.12043382 0.02837610 0.01036893 
0.01474954 0.03574570 0.00583384 0.00309869 0.00668798 0.00239021 0.00698346 0.00823894 0.03474072 0.00343037 0.01621831 0.00147606 0.02981142 0.12340261 0.02890888 0.00948864 
0.01477768 0.03545117 0.00584114 0.00316911 0.00649546 0.00246389 0.00692027 0.00820506 0.03423523 0.00360655 0.01678017 0.00148428 0.03032646 0.12632453 0.02942946 0.00862213 
0.01481667 0.03511404 0.00584061 0.00323746 0.00630808 0.00253619 0.00685727 0.00817801 0.03374974 0.00378667 0.01737394 0.00149324 0.03082930 0.12918951 0.02993596 0.00777292 
0.01486669 0.03473495 0.00583226 0.00330351 0.00612642 0.00260684 0.00679487 0.00815787 0.03328728 0.00397001 0.01799773 0.00150293 0.03131714 0.13198748 0.03042655 0.00694449 
0.01492786 0.03431472 0.00581617 0.00336707 0.00595101 0.00267559 0.00673347 0.00814465 0.03285069 0.00415582 0.01864947 0.00151333 0.03178729 0.13470836 0.03089938 0.00614029 
0.01500025 0.03385436 0.00579244 0.00342794 0.00578240 0.00274220 0.00667346 0.00813833 0.03244262 0.00434334 0.01932692 0.00152440 0.03223721 0.13734217 0.03135261 0.00536367 
0.01508384 0.03335507 0.00576124 0.00348596 0.00562108 0.00280641 0.00661522 0.00813885 0.03206550 0.00453180 0.02002769 0.00153612 0.03266450 0.13987905 0.03178447 0.00461791 
0.01517855 0.03281822 0.00572278 0.00354096 0.00546754 0.00286801 0.00655911 0.00814609 0.03172152 0.00472041 0.02074925 0.00154845 0.03306696 0.14230933 0.03219320 0.00390621 
0.01528424 0.03224536 0.00567729 0.00359280 0.00532225 0.00292677 0.00650551 0.00815993 0.03141261 0.00490837 0.02148895 0.00156135 0.03344255 0.14462357 0.03257709 0.00323163 
0.01540067 0.03163824 0.00562506 0.00364132 0.00518566 0.00298249 0.00645476 0.00818017 0.03114044 0.00509491 0.02224400 0.00157478 0.03378943 0.14681260 0.03293450 0.00259713 
0.01552755 0.03099877 0.00556641 0.00368640 0.00505817 0.00303497 0.00640719 0.00820660 0.03090639 0.00527921 0.02301152 0.00158869 0.03410598 0.14886764 0.03326384 0.00200550 
0.01566451 0.03032903 0.00550168 0.00372794 0.00494019 0.00308404 0.00636314 0.00823895 0.03071155 0.00546052 0.02378856 0.00160303 0.03439080 0.15078026 0.03356361 0.00145942 
0.01581114 0.02963126 0.00543128 0.00376583 0.00483208 0.00312953 0.00632289 0.00827693 0.03055673 0.00563803 0.02457208 0.00161776 0.03464269 0.15254252 0.03383240 0.00096136 
0.01596691 0.02890786 0.00535560 0.00379997 0.00473418 0.00317128 0.00628676 0.00832023 0.03044241 0.00581101 0.02535897 0.00163281 0.03486070 0.15414698 0.03406888 0.00051365 
0.01613126 0.02816140 0.00527508 0.00383030 0.00464679 0.00320916 0.00625502 0.00836847 0.03036878 0.00597869 0.02614611 0.00164813 0.03504413 0.15558673 0.03427183 0.00011841 
0.01630357 0.02739456 0.00519018 0.00385675 0.00457020 0.00324304 0.00622792 0.00842127 0.03033571 0.00614036 0.02693033 0.00166366 0.03519247 0.15685551 0.03444015 0.00022242 
0.01648313 0.02661018 0.00510139 0.00387927 0.00450466 0.00327283 0.00620572 0.00847821 0.03034279 0.00629532 0.02770845 0.00167932 0.03530550 0.15794767 0.03457286 0.00050714 
0.01666920 0.02581121 0.00500918 0.00389781 0.00445039 0.00329842 0.00618865 0.00853887 0.03038926 0.00644289 0.02847732 0.00169507 0.03538319 0.15885830 0.03466909 0.00073422 
0.01686097 0.02500071 0.00491407 0.00391236 0.00440756 0.00331975 0.00617691 0.00860277 0.03047412 0.00658246 0.02923379 0.00171082 0.03542578 0.15958322 0.03472813 0.00090239 
0.01705759 0.02418185 0.00481657 0.00392289 0.00437633 0.00333675 0.00617071 0.00866945 0.03059603 0.00671340 0.02997475 0.00172652 0.03543371 0.16011901 0.03474941 0.00101060 
0.01725817 0.02335788 0.00471718 0.00392942 0.00435682 0.00334940 0.00617021 0.00873840 0.03075341 0.00683517 0.03069717 0.00174210 0.03540765 0.16046311 0.03473249 0.00105803 
0.01746176 0.02253215 0.00461643 0.00393194 0.00434910 0.00335765 0.00617558 0.00880913 0.03094440 0.00694726 0.03139807 0.00175748 0.03534849 0.16061377 0.03467710 0.00104411 
0.01766738 0.02170804 0.00451484 0.00393047 0.00435322 0.00336151 0.00618695 0.00888111 0.03116687 0.00704918 0.03207455 0.00177261 0.03525732 0.16057014 0.03458315 0.00096851 
0.01787404 0.02088900 0.00441290 0.00392507 0.00436918 0.00336099 0.00620444 0.00895383 0.03141849 0.00714054 0.03272384 0.00178740 0.03513541 0.16033228 0.03445067 0.00083117 
0.01808071 0.02007852 0.00431113 0.00391576 0.00439694 0.00335611 0.00622816 0.00902677 0.03169669 0.00722095 0.03334327 0.00180179 0.03498422 0.15990115 0.03427989 0.00063224 
0.01828633 0.01928010 0.00421001 0.00390262 0.00443644 0.00334691 0.00625817 0.00909940 0.03199871 0.00729013 0.03393028 0.00181573 0.03480537 0.15927865 0.03407122 0.00037216 
0.01848985 0.01849724 0.00411002 0.00388571 0.00448756 0.00333346 0.00629454 0.00917121 0.03232160 0.00734781 0.03448249 0.00182913 0.03460065 0.15846765 0.03382520 0.00005161 
0.01869019 0.01773346 0.00401161 0.00386511 0.00455015 0.00331582 0.00633730 0.00924169 0.03266227 0.00739382 0.03499765 0.00184194 0.03437195 0.15747192 0.03354260 0.00032849 
0.01888631 0.01699221 0.00391523 0.00384092 0.00462400 0.00329409 0.00638647 0.00931033 0.03301749 0.00742802 0.03547368 0.00185409 0.03412131 0.15629620 0.03322431 0.00076697 
0.01907712 0.01627693 0.00382128 0.00381324 0.00470890 0.00326837 0.00644204 0.00937665 0.03338393 0.00745036 0.03590869 0.00186554 0.03385084 0.15494619 0.03287142 0.00126241 
0.01926159 0.01559101 0.00373016 0.00378219 0.00480455 0.00323878 0.00650398 0.00944018 0.03375817 0.00746084 0.03630095 0.00187622 0.03356277 0.15342847 0.03248520 0.00181316 
0.01943868 0.01493774 0.00364223 0.00374789 0.00491065 0.00320546 0.00657222 0.00950048 0.03413673 0.00745955 0.03664894 0.00188608 0.03325937 0.15175054 0.03206707 0.00241732 
0.01960738 0.01432035 0.00355784 0.00371049 0.00502682 0.00316855 0.00664671 0.00955710 0.03451611 0.00744663 0.03695136 0.00189507 0.03294295 0.14992078 0.03161862 0.00307278 
0.01976673 0.01374194 0.00347728 0.00367013 0.00515267 0.00312822 0.00672732 0.00960966 0.03489279 0.00742228 0.03720707 0.00190314 0.03261586 0.14794843 0.03114159 0.00377722 
0.01991579 0.01320551 0.00340084 0.00362697 0.00528777 0.00308463 0.00681395 0.00965776 0.03526329 0.00738678 0.03741519 0.00191027 0.03228047 0.14584350 0.03063789 0.00452809 
0.02005365 0.01271391 0.00332876 0.00358118 0.00543163 0.00303797 0.00690642 0.00970107 0.03562415 0.00734050 0.03757504 0.00191640 0.03193910 0.14361680 0.03010955 0.00532266 
0.02017948 0.01226986 0.00326126 0.00353293 0.00558372 0.00298844 0.00700458 0.00973926 0.03597199 0.00728384 0.03768614 0.00192152 0.03159409 0.14127985 0.02955877 0.00615801 
0.02029248 0.01187591 0.00319850 0.00348241 0.00574350 0.00293623 0.00710821 0.00977205 0.03630353 0.00721729 0.03774825 0.00192559 0.03124770 0.13884481 0.02898785 0.00703103 
0.02039191 0.01153442 0.00314065 0.00342982 0.00591038 0.00288157 0.00721710 0.00979920 0.03661561 0.00714139 0.03776137 0.00192859 0.03090213 0.13632448 0.02839922 0.00793848 
0.02047710 0.01124757 0.00308781 0.00337535 0.00608372 0.00282468 0.00733097 0.00982048 0.03690521 0.00705677 0.03772568 0.00193050 0.03055953 0.13373218 0.02779541 0.00887693 
0.02054744 0.01101735 0.00304006 0.00331922 0.00626286 0.00276577 0.00744957 0.00983572 0.03716946 0.00696410 0.03764161 0.00193132 0.03022193 0.13108169 0.02717906 0.00984287 
0.02060241 0.01084552 0.00299746 0.00326165 0.00644712 0.00270510 0.00757258 0.00984477 0.03740569 0.00686411 0.03750979 0.00193105 0.02989125 0.12838721 0.02655288 0.01083262 
0.02064154 0.01073361 0.00296001 0.00320286 0.00663577 0.00264289 0.00769969 0.00984754 0.03761143 0.00675759 0.03733108 0.00192967 0.02956931 0.12566325 0.02591965 0.01184245 
0.02066446 0.01068294 0.00292770 0.00314309 0.00682806 0.00257940 0.00783052 0.00984394 0.03778442 0.00664538 0.03710652 0.00192719 0.02925776 0.12292458 0.02528221 0.01286850 
0.02067085 0.01069456 0.00290049 0.00308255 0.00702324 0.00251488 0.00796472 0.00983396 0.03792264 0.00652838 0.03683737 0.00192364 0.02895815 0.12018611 0.02464345 0.01390688 
0.02066050 0.01076930 0.00287830 0.00302151 0.00722050 0.00244956 0.00810188 0.00981759 0.03802432 0.00640752 0.03652508 0.00191902 0.02867184 0.11746283 0.02400626 0.01495363 
0.02063329 0.01090769 0.00286103 0.00296020 0.00741903 0.00238372 0.00824158 0.00979489 0.03808797 0.00628379 0.03617130 0.00191335 0.02840006 0.11476973 0.02337358 0.01600476 
0.02058915 0.01111005 0.00284857 0.00289887 0.00761801 0.00231759 0.00838337 0.00976592 0.03811236 0.00615819 0.03577782 0.00190667 0.02814384 0.11212170 0.02274830 0.01705630 
0.02052812 0.01137638 0.00284075 0.00283776 0.00781661 0.00225144 0.00852680 0.00973081 0.03809652 0.00603178 0.03534663 0.00189900 0.02790406 0.10953343 0.02213333 0.01810424 
0.02045034 0.01170644 0.00283740 0.00277714 0.00801398 0.00218551 0.00867139 0.00968970 0.03803980 0.00590562 0.03487987 0.00189039 0.02768142 0.10701935 0.02153153 0.01914462 
0.02035599 0.01209971 0.00283835 0.00271726 0.00820927 0.00212004 0.00881664 0.00964276 0.03794184 0.00578081 0.03437983 0.00188087 0.02747643 0.10459353 0.02094569 0.02017354 
0.02024539 0.01255541 0.00284336 0.00265836 0.00840163 0.00205530 0.00896203 0.00959020 0.03780255 0.00565846 0.03384890 0.00187050 0.02728942 0.10226957 0.02037856 0.02118714 
0.02011890 0.01307245 0.00285223 0.00260071 0.00859021 0.00199151 0.00910704 0.00953227 0.03762217 0.00553968 0.03328965 0.00185931 0.02712057 0.10006057 0.01983278 0.02218164 
0.01997698 0.01364951 0.00286472 0.00254455 0.00877418 0.00192891 0.00925113 0.00946921 0.03740121 0.00542559 0.03270470 0.00184737 0.02696985 0.09797899 0.01931092 0.02315338 
0.01982016 0.01428498 0.00288057 0.00249013 0.00895270 0.00186773 0.00939376 0.00940132 0.03714049 0.00531732 0.03209681 0.00183473 0.02683707 0.09603660 0.01881541 0.02409881 
0.01964905 0.01497699 0.00289953 0.00243769 0.00912497 0.00180819 0.00953436 0.00932889 0.03684111 0.00521597 0.03146880 0.00182146 0.02672188 0.09424440 0.01834857 0.02501451 
0.01946435 0.01572342 0.00292133 0.00238748 0.00929018 0.00175050 0.00967239 0.00925226 0.03650443 0.00512263 0.03082355 0.00180760 0.02662375 0.09261257 0.01791257 0.02589721 
0.01926679 0.01652189 0.00294571 0.00233973 0.00944757 0.00169487 0.00980729 0.00917177 0.03613211 0.00503838 0.03016402 0.00179324 0.02654201 0.09115036 0.01750941 0.02674383 
0.01905720 0.01736980 0.00297240 0.00229467 0.00959638 0.00164149 0.00993848 0.00908776 0.03572606 0.00496425 0.02949319 0.00177844 0.02647586 0.08986606 0.01714096 0.02755145 
0.01883645 0.01826429 0.00300113 0.00225252 0.00973592 0.00159055 0.01006542 0.00900061 0.03528844 0.00490126 0.02881408 0.00176327 0.02642432 0.08876694 0.01680887 0.02831736 
0.01860546 0.01920230 0.00303163 0.00221348 0.00986550 0.00154221 0.01018755 0.00891069 0.03482163 0.00485036 0.02812969 0.00174778 0.02638632 0.08785920 0.01651464 0.02903906 
0.01836523 0.02018055 0.00306364 0.00217777 0.00998447 0.00149664 0.01030434 0.00881838 0.03432824 0.00481249 0.02744306 0.00173206 0.02636068 0.08714794 0.01625955 0.02971427 
0.01811676 0.02119557 0.00309690 0.00214558 0.01009225 0.00145399 0.01041525 0.00872407 0.03381110 0.00478851 0.02675718 0.00171618 0.02634608 0.08663708 0.01604468 0.03034094 
0.01786113 0.02224373 0.00313117 0.00211709 0.01018827 0.00141439 0.01051977 0.00862813 0.03327318 0.00477922 0.02607503 0.00170019 0.02634115 0.08632940 0.01587089 0.03091729 
0.01759942 0.02332119 0.00316620 0.00209246 0.01027204 0.00137796 0.01061740 0.00853095 0.03271767 0.00478537 0.02539952 0.00168417 0.02634442 0.08622647 0.01573884 0.03144177 
0.01733276 0.02442401 0.00320178 0.00207185 0.01034311 0.00134482 0.01070766 0.00843290 0.03214787 0.00480763 0.02473352 0.00166819 0.02635437 0.08632867 0.01564895 0.03191310 
0.01706227 0.02554809 0.00323768 0.00205540 0.01040107 0.00131506 0.01079010 0.00833437 0.03156721 0.00484659 0.02407982 0.00165231 0.02636941 0.08663514 0.01560144 0.03233026 
0.01678912 0.02668923 0.00327371 0.00204324 0.01044558 0.00128874 0.01086429 0.00823569 0.03097923 0.00490278 0.02344115 0.00163659 0.02638793 0.08714386 0.01559628 0.03269252 
0.01651445 0.02784312 0.00330968 0.00203548 0.01047638 0.00126595 0.01092984 0.00813724 0.03038757 0.00497663 0.02282010 0.00162110 0.02640831 0.08785158 0.01563322 0.03299940 
0.01623944 0.02900540 0.00334542 0.00203222 0.01049323 0.00124673 0.01098636 0.00803935 0.02979591 0.00506848 0.02221919 0.00160587 0.02642889 0.08875391 0.01571181 0.03325073 
0.01596521 0.03017163 0.00338078 0.00203352 0.01049599 0.00123111 0.01103354 0.00794233 0.02920797 0.00517859 0.02164081 0.00159098 0.02644803 0.08984530 0.01583135 0.03344659 
0.01569293 0.03133737 0.00341563 0.00203945 0.01048456 0.00121912 0.01107106 0.00784649 0.02862749 0.00530712 0.02108721 0.00157647 0.02646412 0.09111910 0.01599094 0.03358734 
0.01542370 0.03249813 0.00344986 0.00205004 0.01045891 0.00121074 0.01109867 0.00775212 0.02805820 0.00545413 0.02056051 0.00156238 0.02647556 0.09256761 0.01618947 0.03367362 
0.01515861 0.03364946 0.00348335 0.00206532 0.01041908 0.00120599 0.01111614 0.00765949 0.02750381 0.00561958 0.02006270 0.00154875 0.02648081 0.09418212 0.01642563 0.03370633 
0.01489874 0.03478691 0.00351603 0.00208529 0.01036519 0.00120482 0.01112331 0.00756884 0.02696797 0.00580334 0.01959557 0.00153563 0.02647838 0.09595297 0.01669790 0.03368665 
0.01464511 0.03590610 0.00354785 0.00210993 0.01029740 0.00120719 0.01112001 0.00748041 0.02645426 0.00600517 0.01916079 0.00152303 0.02646683 0.09786962 0.01700461 0.03361600 
0.01439869 0.03700271 0.00357875 0.00213920 0.01021595 0.00121306 0.01110618 0.00739439 0.02596618 0.00622474 0.01875984 0.00151099 0.02644482 0.09992072 0.01734387 0.03349605 
0.01416044 0.03807252 0.00360870 0.00217304 0.01012114 0.00122234 0.01108175 0.00731096 0.02550708 0.00646159 0.01839401 0.00149952 0.02641110 0.10209419 0.01771368 0.03332870 
0.01393124 0.03911142 0.00363770 0.00221136 0.01001334 0.00123496 0.01104672 0.00723029 0.02508020 0.00671520 0.01806445 0.00148865 0.02636448 0.10437731 0.01811186 0.03311609 
0.01371191 0.04011543 0.00366576 0.00225408 0.00989297 0.00125081 0.01100115 0.00715250 0.02468864 0.00698492 0.01777208 0.00147838 0.02630391 0.10675679 0.01853610 0.03286055 
0.01350323 0.04108073 0.00369289 0.00230106 0.00976052 0.00126979 0.01094511 0.00707770 0.02433529 0.00727001 0.01751765 0.00146872 0.02622843 0.10921887 0.01898400 0.03256464 
0.01330590 0.04200365 0.00371912 0.00235217 0.00961654 0.00129178 0.01087875 0.00700599 0.02402288 0.00756965 0.01730172 0.00145967 0.02613721 0.11174941 0.01945302 0.03223106 
0.01312056 0.04288073 0.00374452 0.00240724 0.00946162 0.00131663 0.01080225 0.00693743 0.02375393 0.00788292 0.01712466 0.00145121 0.02602953 0.11433401 0.01994055 0.03186272 
0.01294778 0.04370869 0.00376912 0.00246610 0.00929642 0.00134420 0.01071584 0.00687205 0.02353073 0.00820882 0.01698662 0.00144335 0.02590480 0.11695808 0.02044393 0.03146264 
0.01278806 0.04448450 0.00379301 0.00252853 0.00912162 0.00137434 0.01061979 0.00680989 0.02335535 0.00854624 0.01688760 0.00143606 0.02576257 0.11960694 0.02096042 0.03103401 
0.01264183 0.04520534 0.00381627 0.00259432 0.00893799 0.00140688 0.01051442 0.00675093 0.02322960 0.00889403 0.01682736 0.00142933 0.02560251 0.12226595 0.02148727 0.03058011 
0.01250943 0.04586867 0.00383898 0.00266323 0.00874630 0.00144165 0.01040009 0.00669516 0.02315505 0.00925096 0.01680550 0.00142313 0.02542441 0.12492057 0.02202169 0.03010431 
0.01239114 0.04647217 0.00386123 0.00273502 0.00854738 0.00147845 0.01027720 0.00664253 0.02313299 0.00961571 0.01682141 0.00141743 0.02522823 0.12755649 0.02256092 0.02961007 
0.01228716 0.04701382 0.00388313 0.00280939 0.00834208 0.00151710 0.01014619 0.00659300 0.02316444 0.00998693 0.01687432 0.00141220 0.02501402 0.13015970 0.02310219 0.02910090 
0.01219761 0.04749188 0.00390477 0.00288608 0.00813128 0.00155741 0.01000752 0.00654647 0.02325015 0.01036320 0.01696326 0.00140741 0.02478199 0.13271661 0.02364278 0.02858033 
0.01212254 0.04790490 0.00392626 0.00296477 0.00791590 0.00159917 0.00986172 0.00650287 0.02339058 0.01074307 0.01708709 0.00140301 0.02453247 0.13521412 0.02418003 0.02805193 
0.01206193 0.04825172 0.00394770 0.00304516 0.00769685 0.00164218 0.00970932 0.00646208 0.02358588 0.01112505 0.01724450 0.00139896 0.02426591 0.13763969 0.02471134 0.02751923 
0.01201567 0.04853150 0.00396919 0.00312692 0.00747508 0.00168621 0.00955090 0.00642400 0.02383595 0.01150760 0.01743401 0.00139523 0.02398288 0.13998148 0.02523420 0.02698577 
0.01198360 0.04874369 0.00399084 0.00320971 0.00725153 0.00173108 0.00938704 0.00638848 0.02414037 0.01188919 0.01765401 0.00139176 0.02368408 0.14222834 0.02574618 0.02645501 
0.01196548 0.04888804 0.00401272 0.00329319 0.00702716 0.00177654 0.00921836 0.00635539 0.02449844 0.01226825 0.01790271 0.00138851 0.02337031 0.14436995 0.02624499 0.02593036 
0.01196100 0.04896464 0.00403494 0.00337700 0.00680292 0.00182241 0.00904551 0.00632459 0.02490919 0.01264324 0.01817821 0.00138542 0.02304248 0.14639684 0.02672845 0.02541514 
0.01196981 0.04897386 0.00405757 0.00346079 0.00657975 0.00186844 0.00886914 0.00629591 0.02537134 0.01301259 0.01847846 0.00138247 0.02270157 0.14830047 0.02719452 0.02491257 
0.01199148 0.04891640 0.00408070 0.00354419 0.00635859 0.00191445 0.00868992 0.00626921 0.02588336 0.01337475 0.01880132 0.00137958 0.02234869 0.15007326 0.02764132 0.02442573 
0.01202553 0.04879322 0.00410437 0.00362683 0.00614035 0.00196020 0.00850853 0.00624430 0.02644344 0.01372823 0.01914453 0.00137673 0.02198501 0.15170862 0.02806711 0.02395759 
0.01207143 0.04860562 0.00412864 0.00370836 0.00592592 0.00200550 0.00832564 0.00622104 0.02704951 0.01407151 0.01950573 0.00137385 0.02161177 0.15320102 0.02847033 0.02351093 
0.01212860 0.04835516 0.00415357 0.00378841 0.00571619 0.00205014 0.00814196 0.00619924 0.02769927 0.01440316 0.01988248 0.00137092 0.02123029 0.15454596 0.02884958 0.02308839 
0.01219642 0.04804369 0.00417917 0.00386661 0.00551198 0.00209391 0.00795817 0.00617874 0.02839015 0.01472178 0.02027228 0.00136788 0.02084194 0.15574004 0.02920365 0.02269241 
0.01227423 0.04767331 0.00420547 0.00394261 0.00531411 0.00213664 0.00777495 0.00615937 0.02911940 0.01502602 0.02067257 0.00136470 0.02044812 0.15678091 0.02953150 0.02232523 
0.01236134 0.04724640 0.00423246 0.00401605 0.00512334 0.00217812 0.00759298 0.00614097 0.02988402 0.01531459 0.02108074 0.00136134 0.02005029 0.15766731 0.02983228 0.02198888 
0.01245703 0.04676557 0.00426015 0.00408659 0.00494039 0.00221819 0.00741293 0.00612337 0.03068084 0.01558630 0.02149417 0.00135778 0.01964993 0.15839903 0.03010533 0.02168518 
0.01256056 0.04623366 0.00428850 0.00415390 0.00476594 0.00225666 0.00723545 0.00610643 0.03150650 0.01584000 0.02191020 0.00135397 0.01924854 0.15897691 0.03035017 0.02141572 
0.01267115 0.04565372 0.00431749 0.00421766 0.00460063 0.00229337 0.00706118 0.00608997 0.03235748 0.01607466 0.02232619 0.00134991 0.01884763 0.15940280 0.03056650 0.02118186 
0.01278803 0.04502899 0.00434705 0.00427755 0.00444502 0.00232818 0.00689073 0.00607386 0.03323013 0.01628932 0.02273950 0.00134557 0.01844870 0.15967953 0.03075420 0.02098471 
0.01291042 0.04436291 0.00437714 0.00433328 0.00429963 0.00236093 0.00672471 0.00605797 0.03412067 0.01648311 0.02314753 0.00134094 0.01805326 0.15981085 0.03091334 0.02082513 
0.01303751 0.04365906 0.00440767 0.00438458 0.00416493 0.00239150 0.00656368 0.00604215 0.03502520 0.01665529 0.02354771 0.00133601 0.01766279 0.15980142 0.03104413 0.02070375 
0.01316852 0.04292118 0.00443855 0.00443119 0.00404132 0.00241976 0.00640819 0.00602628 0.03593975 0.01680519 0.02393753 0.00133078 0.01727874 0.15965671 0.03114697 0.02062095 
0.01330266 0.04215311 0.00446969 0.00447286 0.00392915 0.00244560 0.00625876 0.00601026 0.03686030 0.01693229 0.02431455 0.00132525 0.01690254 0.15938295 0.03122240 0.02057685 
0.01343914 0.04135881 0.00450097 0.00450939 0.00382868 0.00246892 0.00611586 0.00599398 0.03778276 0.01703614 0.02467644 0.00131944 0.01653557 0.15898709 0.03127110 0.02057133 
0.01357721 0.04054231 0.00453228 0.00454057 0.00374013 0.00248964 0.00597995 0.00597733 0.03870303 0.01711645 0.02502091 0.00131335 0.01617915 0.15847668 0.03129392 0.02060405 
0.01371611 0.03970772 0.00456347 0.00456623 0.00366366 0.00250769 0.00585144 0.00596025 0.03961703 0.01717301 0.02534585 0.00130703 0.01583456 0.15785983 0.03129178 0.02067441 
0.01385511 0.03885917 0.00459442 0.00458623 0.00359935 0.00252299 0.00573072 0.00594265 0.04052067 0.01720574 0.02564922 0.00130048 0.01550300 0.15714512 0.03126575 0.02078159 
0.01399351 0.03800081 0.00462499 0.00460044 0.00354722 0.00253551 0.00561812 0.00592447 0.04140994 0.01721470 0.02592914 0.00129376 0.01518562 0.15634152 0.03121699 0.02092454 
0.01413062 0.03713680 0.00465502 0.00460877 0.00350722 0.00254521 0.00551396 0.00590565 0.04228085 0.01720003 0.02618389 0.00128690 0.01488348 0.15545829 0.03114676 0.02110203 
0.01426581 0.03627126 0.00468435 0.00461114 0.00347926 0.00255207 0.00541849 0.00588617 0.04312954 0.01716201 0.02641187 0.00127994 0.01459757 0.15450493 0.03105636 0.02131260 
0.01439845 0.03540830 0.00471284 0.00460753 0.00346316 0.00255607 0.00533194 0.00586597 0.04395225 0.01710105 0.02661168 0.00127296 0.01432878 0.15349103 0.03094719 0.02155461 
0.01452795 0.03455193 0.00474033 0.00459791 0.00345869 0.00255722 0.00525449 0.00584505 0.04474532 0.01701763 0.02678210 0.00126600 0.01407792 0.15242628 0.03082067 0.02182627 
0.01465379 0.03370610 0.00476667 0.00458229 0.00346557 0.00255554 0.00518630 0.00582340 0.04550528 0.01691238 0.02692208 0.00125913 0.01384571 0.15132031 0.03067828 0.02212560 
0.01477545 0.03287465 0.00479170 0.00456073 0.00348346 0.00255106 0.00512747 0.00580101 0.04622879 0.01678602 0.02703077 0.00125243 0.01363277 0.15018261 0.03052150 0.02245050 
0.01489247 0.03206132 0.00481527 0.00453329 0.00351196 0.00254381 0.00507807 0.00577790 0.04691272 0.01663937 0.02710752 0.00124597 0.01343964 0.14902252 0.03035181 0.02279874 
0.01500442 0.03126968 0.00483724 0.00450007 0.00355062 0.00253385 0.00503812 0.00575409 0.04755414 0.01647334 0.02715189 0.00123983 0.01326675 0.14784907 0.03017072 0.02316797 
0.01511092 0.03050319 0.00485748 0.00446120 0.00359895 0.00252125 0.00500762 0.00572961 0.04815033 0.01628895 0.02716365 0.00123409 0.01311441 0.14667096 0.02997970 0.02355575 
0.01521162 0.02976512 0.00487586 0.00441683 0.00365641 0.00250608 0.00498651 0.00570450 0.04869881 0.01608728 0.02714279 0.00122885 0.01298286 0.14549649 0.02978019 0.02395960 
0.01530624 0.02905856 0.00489227 0.00436714 0.00372243 0.00248843 0.00497473 0.00567882 0.04919736 0.01586951 0.02708950 0.00122420 0.01287223 0.14433347 0.02957360 0.02437693 
0.01539451 0.02838642 0.00490659 0.00431233 0.00379639 0.00246840 0.00497214 0.00565263 0.04964401 0.01563687 0.02700421 0.00122022 0.01278256 0.14318919 0.02936129 0.02480518 
0.01547622 0.02775138 0.00491874 0.00425264 0.00387763 0.00244609 0.00497860 0.00562599 0.05003707 0.01539067 0.02688754 0.00121703 0.01271378 0.14207037 0.02914455 0.02524172 
0.01555120 0.02715594 0.00492863 0.00418832 0.00396548 0.00242161 0.00499393 0.00559898 0.05037514 0.01513226 0.02674035 0.00121470 0.01266572 0.14098309 0.02892462 0.02568396 
0.01561930 0.02660235 0.00493621 0.00411965 0.00405925 0.00239510 0.00501791 0.00557170 0.05065710 0.01486306 0.02656369 0.00121335 0.01263813 0.13993279 0.02870265 0.02612930 
0.01568044 0.02609264 0.00494143 0.00404691 0.00415821 0.00236669 0.00505030 0.00554424 0.05088214 0.01458450 0.02635885 0.00121307 0.01263068 0.13892420 0.02847973 0.02657522 
0.01573457 0.02562860 0.00494426 0.00397043 0.00426162 0.00233652 0.00509082 0.00551670 0.05104976 0.01429806 0.02612730 0.00121396 0.01264291 0.13796135 0.02825684 0.02701924 
0.01578165 0.02521177 0.00494468 0.00389053 0.00436873 0.00230472 0.00513920 0.00548919 0.05115976 0.01400523 0.02587071 0.00121610 0.01267433 0.13704756 0.02803488 0.02745895 
0.01582171 0.02484345 0.00494270 0.00380757 0.00447879 0.00227147 0.00519509 0.00546183 0.05121226 0.01370752 0.02559094 0.00121961 0.01272434 0.13618538 0.02781466 0.02789205 
0.01585478 0.02452470 0.00493835 0.00372192 0.00459104 0.00223691 0.00525818 0.00543475 0.05120770 0.01340643 0.02529004 0.00122457 0.01279225 0.13537664 0.02759690 0.02831634 
0.01588095 0.02425632 0.00493167 0.00363393 0.00470473 0.00220121 0.00532808 0.00540807 0.05114682 0.01310347 0.02497022 0.00123106 0.01287734 0.13462245 0.02738222 0.02872975 
0.01590033 0.02403885 0.00492272 0.00354401 0.00481911 0.00216454 0.00540444 0.00538194 0.05103067 0.01280014 0.02463386 0.00123917 0.01297879 0.13392319 0.02717112 0.02913035 
0.01591304 0.02387261 0.00491158 0.00345254 0.00493345 0.00212706 0.00548685 0.00535649 0.05086062 0.01249789 0.02428347 0.00124898 0.01309574 0.13327855 0.02696405 0.02951638 
0.01591924 0.02375766 0.00489835 0.00335994 0.00504701 0.00208895 0.00557490 0.00533187 0.05063833 0.01219816 0.02392171 0.00126057 0.01322726 0.13268754 0.02676133 0.02988620 
0.01591911 0.02369381 0.00488315 0.00326659 0.00515910 0.00205037 0.00566817 0.00530825 0.05036574 0.01190235 0.02355136 0.00127399 0.01337238 0.13214854 0.02656321 0.03023840 
0.01591286 0.02368066 0.00486613 0.00317292 0.00526904 0.00201152 0.00576623 0.00528576 0.05004510 0.01161182 0.02317529 0.00128932 0.01353009 0.13165934 0.02636984 0.03057172 
0.01590068 0.02371756 0.00484742 0.00307932 0.00537618 0.00197255 0.00586865 0.00526459 0.04967891 0.01132785 0.02279647 0.00130659 0.01369932 0.13121716 0.02618132 0.03088510 
0.01588283 0.02380365 0.00482720 0.00298621 0.00547989 0.00193365 0.00597497 0.00524488 0.04926994 0.01105168 0.02241795 0.00132587 0.01387899 0.13081872 0.02599763 0.03117768 
0.01585955 0.02393787 0.00480566 0.00289399 0.00557960 0.00189499 0.00608475 0.00522681 0.04882118 0.01078448 0.02204282 0.00134719 0.01406798 0.13046030 0.02581872 0.03144879 
0.01583108 0.02411893 0.00478298 0.00280306 0.00567474 0.00185673 0.00619751 0.00521055 0.04833589 0.01052734 0.02167422 0.00137056 0.01426517 0.13013775 0.02564447 0.03169799 
0.01579771 0.02434539 0.00475940 0.00271380 0.00576481 0.00181905 0.00631282 0.00519628 0.04781751 0.01028127 0.02131529 0.00139602 0.01446941 0.12984662 0.02547468 0.03192500 
0.01575969 0.02461559 0.00473512 0.00262659 0.00584935 0.00178211 0.00643020 0.00518415 0.04726968 0.01004721 0.02096920 0.00142357 0.01467954 0.12958216 0.02530915 0.03212980 
0.01571732 0.02492772 0.00471038 0.00254180 0.00592792 0.00174608 0.00654921 0.00517435 0.04669622 0.00982598 0.02063907 0.00145321 0.01489441 0.12933943 0.02514759 0.03231252 
0.01567088 0.02527982 0.00468542 0.00245980 0.00600016 0.00171110 0.00666937 0.00516705 0.04610110 0.00961833 0.02032801 0.00148493 0.01511286 0.12911333 0.02498973 0.03247352 
0.01562065 0.02566979 0.00466050 0.00238090 0.00606575 0.00167733 0.00679025 0.00516243 0.04548843 0.00942492 0.02003906 0.00151870 0.01533375 0.12889869 0.02483523 0.03261333 
0.01556693 0.02609539 0.00463585 0.00230544 0.00612439 0.00164491 0.00691138 0.00516065 0.04486243 0.00924630 0.01977519 0.00155449 0.01555595 0.12869031 0.02468379 0.03273267 
0.01550999 0.02655428 0.00461174 0.00223372 0.00617587 0.00161398 0.00703234 0.00516188 0.04422739 0.00908291 0.01953927 0.00159225 0.01577835 0.12848307 0.02453505 0.03283243 
0.01545013 0.02704400 0.00458842 0.00216603 0.00622001 0.00158468 0.00715267 0.00516630 0.04358769 0.00893510 0.01933407 0.00163194 0.01599988 0.12827194 0.02438871 0.03291367 
0.01538763 0.02756202 0.00456616 0.00210262 0.00625670 0.00155713 0.00727195 0.00517406 0.04294774 0.00880312 0.01916223 0.00167348 0.01621949 0.12805208 0.02424442 0.03297758 
0.01532277 0.02810574 0.00454519 0.00204373 0.00628587 0.00153144 0.00738976 0.00518531 0.04231195 0.00868711 0.01902622 0.00171679 0.01643615 0.12781887 0.02410191 0.03302550 
0.01525583 0.02867250 0.00452578 0.00198959 0.00630750 0.00150773 0.00750570 0.00520022 0.04168476 0.00858712 0.01892838 0.00176179 0.01664890 0.12756800 0.02396089 0.03305889 
0.01518708 0.02925959 0.00450816 0.00194038 0.00632163 0.00148608 0.00761934 0.00521892 0.04107053 0.00850307 0.01887084 0.00180838 0.01685680 0.12729548 0.02382113 0.03307931 
0.01511679 0.02986428 0.00449257 0.00189628 0.00632834 0.00146660 0.00773032 0.00524156 0.04047361 0.00843481 0.01885557 0.00185644 0.01705899 0.12699775 0.02368242 0.03308840 
0.01504521 0.03048382 0.00447923 0.00185741 0.00632778 0.00144936 0.00783824 0.00526826 0.03989824 0.00838209 0.01888430 0.00190585 0.01725462 0.12667163 0.02354461 0.03308788 
0.01497261 0.03111546 0.00446836 0.00182390 0.00632014 0.00143444 0.00794275 0.00529913 0.03934855 0.00834455 0.01895855 0.00195649 0.01744294 0.12631446 0.02340759 0.03307952 
0.01489924 0.03175646 0.00446015 0.00179584 0.00630564 0.00142189 0.00804348 0.00533429 0.03882857 0.00832177 0.01907961 0.00200821 0.01762322 0.12592407 0.02327131 0.03306510 
0.01482533 0.03240410 0.00445478 0.00177327 0.00628457 0.00141177 0.00814010 0.00537384 0.03834215 0.00831320 0.01924853 0.00206087 0.01779482 0.12549881 0.02313576 0.03304644 
0.01475113 0.03305569 0.00445243 0.00175624 0.00625724 0.00140412 0.00823228 0.00541785 0.03789299 0.00831826 0.01946609 0.00211431 0.01795716 0.12503760 0.02300100 0.03302532 
0.01467687 0.03370861 0.00445324 0.00174475 0.00622403 0.00139896 0.00831971 0.00546640 0.03748458 0.00833626 0.01973282 0.00216837 0.01810972 0.12453993 0.02286715 0.03300352 
0.01460278 0.03436027 0.00445735 0.00173878 0.00618533 0.00139633 0.00840210 0.00551953 0.03712022 0.00836645 0.02004898 0.00222286 0.01825205 0.12400586 0.02273440 0.03298275 
0.01452906 0.03500815 0.00446485 0.00173827 0.00614158 0.00139622 0.00847916 0.00557729 0.03680294 0.00840802 0.02041456 0.00227762 0.01838377 0.12343606 0.02260298 0.03296466 
0.01445595 0.03564982 0.00447585 0.00174317 0.00609324 0.00139864 0.00855064 0.00563970 0.03653555 0.00846010 0.02082927 0.00233246 0.01850459 0.12283175 0.02247319 0.03295079 
0.01438364 0.03628290 0.00449041 0.00175335 0.00604082 0.00140357 0.00861628 0.00570676 0.03632059 0.00852176 0.02129255 0.00238720 0.01861425 0.12219475 0.02234539 0.03294260 
0.01431235 0.03690515 0.00450858 0.00176870 0.00598482 0.00141099 0.00867585 0.00577845 0.03616031 0.00859205 0.02180354 0.00244164 0.01871262 0.12152742 0.02222000 0.03294142 
0.01424226 0.03751437 0.00453036 0.00178907 0.00592580 0.00142086 0.00872914 0.00585475 0.03605667 0.00866995 0.02236113 0.00249558 0.01879960 0.12083269 0.02209748 0.03294843 
0.01417357 0.03810851 0.00455578 0.00181428 0.00586431 0.00143315 0.00877597 0.00593559 0.03601133 0.00875445 0.02296391 0.00254884 0.01887519 0.12011397 0.02197834 0.03296464 
0.01410647 0.03868559 0.00458478 0.00184413 0.00580093 0.00144780 0.00881615 0.00602090 0.03602562 0.00884447 0.02361021 0.00260121 0.01893943 0.11937518 0.02186316 0.03299092 
0.01404114 0.03924377 0.00461734 0.00187842 0.00573624 0.00146474 0.00884953 0.00611058 0.03610056 0.00893896 0.02429812 0.00265250 0.01899248 0.11862068 0.02175251 0.03302793 
0.01397775 0.03978130 0.00465338 0.00191690 0.00567084 0.00148390 0.00887597 0.00620450 0.03623684 0.00903683 0.02502543 0.00270250 0.01903453 0.11785524 0.02164705 0.03307613 
0.01391649 0.04029656 0.00469279 0.00195931 0.00560531 0.00150520 0.00889537 0.00630254 0.03643480 0.00913701 0.02578971 0.00275103 0.01906587 0.11708401 0.02154742 0.03313579 
0.01385751 0.04078805 0.00473547 0.00200539 0.00554025 0.00152854 0.00890762 0.00640451 0.03669446 0.00923843 0.02658830 0.00279790 0.01908684 0.11631244 0.02145431 0.03320697 
0.01380098 0.04125437 0.00478128 0.00205484 0.00547625 0.00155382 0.00891266 0.00651024 0.03701550 0.00934002 0.02741830 0.00284290 0.01909785 0.11554626 0.02136842 0.03328948 
0.01374705 0.04169427 0.00483005 0.00210737 0.00541389 0.00158093 0.00891043 0.00661950 0.03739723 0.00944076 0.02827661 0.00288587 0.01909939 0.11479142 0.02129044 0.03338294 
0.01369587 0.04210660 0.00488160 0.00216266 0.00535372 0.00160975 0.00890091 0.00673207 0.03783867 0.00953963 0.02915993 0.00292663 0.01909199 0.11405401 0.02122109 0.03348673 
0.01364759 0.04249031 0.00493574 0.00222039 0.00529630 0.00164016 0.00888410 0.00684768 0.03833849 0.00963566 0.03006480 0.00296499 0.01907625 0.11334026 0.02116105 0.03360000 
0.01360235 0.04284451 0.00499226 0.00228021 0.00524217 0.00167203 0.00886002 0.00696605 0.03889502 0.00972791 0.03098758 0.00300081 0.01905282 0.11265641 0.02111101 0.03372169 
0.01356027 0.04316838 0.00505091 0.00234180 0.00519182 0.00170521 0.00882870 0.00708689 0.03950631 0.00981549 0.03192450 0.00303393 0.01902243 0.11200872 0.02107163 0.03385050 
0.01352147 0.04346124 0.00511145 0.00240481 0.00514574 0.00173955 0.00879022 0.00720986 0.04017008 0.00989758 0.03287166 0.00306420 0.01898583 0.11140335 0.02104353 0.03398495 
0.01348607 0.04372252 0.00517363 0.00246888 0.00510437 0.00177492 0.00874466 0.00733463 0.04088376 0.00997338 0.03382507 0.00309150 0.01894383 0.11084636 0.02102731 0.03412333 
0.01345418 0.04395172 0.00523717 0.00253367 0.00506815 0.00181115 0.00869216 0.00746083 0.04164450 0.01004217 0.03478065 0.00311569 0.01889728 0.11034361 0.02102352 0.03426376 
0.01342589 0.04414849 0.00530179 0.00259883 0.00503746 0.00184809 0.00863285 0.00758808 0.04244919 0.01010330 0.03573428 0.00313666 0.01884706 0.10990071 0.02103266 0.03440418 
0.01340129 0.04431255 0.00536720 0.00266401 0.00501264 0.00188556 0.00856689 0.00771597 0.04329447 0.01015618 0.03668179 0.00315432 0.01879411 0.10952301 0.02105518 0.03454235 
0.01338045 0.04444371 0.00543311 0.00272886 0.00499401 0.00192342 0.00849450 0.00784411 0.04417676 0.01020030 0.03761900 0.00316858 0.01873936 0.10921549 0.02109146 0.03467592 
0.01336344 0.04454190 0.00549923 0.00279305 0.00498184 0.00196149 0.00841588 0.00797205 0.04509224 0.01023522 0.03854175 0.00317937 0.01868381 0.10898274 0.02114181 0.03480238 
0.01335032 0.04460711 0.00556524 0.00285625 0.00497635 0.00199961 0.00833129 0.00809935 0.04603693 0.01026056 0.03944592 0.00318663 0.01862844 0.10882894 0.02120650 0.03491914 
0.01334112 0.04463942 0.00563086 0.00291813 0.00497773 0.00203760 0.00824100 0.00822557 0.04700667 0.01027605 0.04032743 0.00319032 0.01857427 0.10875777 0.02128567 0.03502353 
0.01333588 0.04463899 0.00569578 0.00297838 0.00498612 0.00207531 0.00814531 0.00835025 0.04799715 0.01028147 0.04118229 0.00319040 0.01852233 0.10877241 0.02137944 0.03511282 
0.01333461 0.04460606 0.00575970 0.00303671 0.00500162 0.00211256 0.00804455 0.00847291 0.04900395 0.01027669 0.04200663 0.00318687 0.01847365 0.10887549 0.02148781 0.03518424 
0.01333731 0.04454093 0.00582234 0.00309282 0.00502428 0.00214919 0.00793907 0.00859310 0.05002253 0.01026167 0.04279669 0.00317971 0.01842925 0.10906908 0.02161072 0.03523504 
0.01334399 0.04444399 0.00588341 0.00314645 0.00505410 0.00218506 0.00782924 0.00871033 0.05104832 0.01023644 0.04354886 0.00316895 0.01839016 0.10935464 0.02174801 0.03526246 
0.01335461 0.04431566 0.00594265 0.00319735 0.00509105 0.00221999 0.00771546 0.00882415 0.05207665 0.01020110 0.04425970 0.00315462 0.01835740 0.10973306 0.02189944 0.03526383 
0.01336914 0.04415645 0.00599978 0.00324527 0.00513504 0.00225384 0.00759817 0.00893407 0.05310286 0.01015584 0.04492598 0.00313676 0.01833196 0.11020455 0.02206469 0.03523653 
0.01338754 0.04396693 0.00605456 0.00329000 0.00518594 0.00228646 0.00747780 0.00903965 0.05412230 0.01010092 0.04554465 0.00311543 0.01831481 0.11076873 0.02224335 0.03517807 
0.01340973 0.04374770 0.00610675 0.00333134 0.00524359 0.00231772 0.00735483 0.00914042 0.05513034 0.01003665 0.04611291 0.00309070 0.01830692 0.11142457 0.02243494 0.03508609 
0.01343564 0.04349944 0.00615613 0.00336912 0.00530778 0.00234748 0.00722976 0.00923594 0.05612239 0.00996345 0.04662818 0.00306267 0.01830919 0.11217043 0.02263888 0.03495841 
0.01346518 0.04322288 0.00620249 0.00340318 0.00537825 0.00237562 0.00710308 0.00932578 0.05709398 0.00988177 0.04708818 0.00303143 0.01832251 0.11300403 0.02285453 0.03479301 
0.01349825 0.04291879 0.00624564 0.00343338 0.00545472 0.00240203 0.00697533 0.00940954 0.05804073 0.00979214 0.04749087 0.00299710 0.01834770 0.11392248 0.02308117 0.03458814 
0.01353475 0.04258799 0.00628542 0.00345961 0.00553687 0.00242660 0.00684706 0.00948681 0.05895839 0.00969514 0.04783451 0.00295981 0.01838557 0.11492231 0.02331800 0.03434227 
0.01357454 0.04223136 0.00632167 0.00348180 0.00562434 0.00244924 0.00671882 0.00955722 0.05984287 0.00959140 0.04811765 0.00291969 0.01843685 0.11599948 0.02356418 0.03405415 
0.01361749 0.04184982 0.00635426 0.00349986 0.00571674 0.00246985 0.00659120 0.00962041 0.06069027 0.00948161 0.04833917 0.00287690 0.01850220 0.11714941 0.02381878 0.03372284 
0.01366346 0.04144434 0.00638309 0.00351377 0.00581367 0.00248837 0.00646478 0.00967607 0.06149690 0.00936648 0.04849823 0.00283160 0.01858225 0.11836700 0.02408083 0.03334770 
0.01371230 0.04101593 0.00640807 0.00352351 0.00591469 0.00250473 0.00634016 0.00972390 0.06225929 0.00924678 0.04859434 0.00278395 0.01867753 0.11964667 0.02434932 0.03292846 
0.01376385 0.04056567 0.00642913 0.00352909 0.00601934 0.00251889 0.00621794 0.00976363 0.06297420 0.00912331 0.04862733 0.00273414 0.01878852 0.12098242 0.02462319 0.03246517 
0.01381794 0.04009467 0.00644622 0.00353053 0.00612715 0.00253080 0.00609873 0.00979502 0.06363870 0.00899688 0.04859734 0.00268235 0.01891560 0.12236785 0.02490134 0.03195829 
0.01387442 0.03960408 0.00645933 0.00352790 0.00623762 0.00254045 0.00598315 0.00981788 0.06425011 0.00886833 0.04850486 0.00262878 0.01905910 0.12379617 0.02518264 0.03140865 
0.01393309 0.03909512 0.00646845 0.00352127 0.00635025 0.00254781 0.00587181 0.00983203 0.06480606 0.00873852 0.04835068 0.00257363 0.01921923 0.12526034 0.02546594 0.03081747 
0.01399381 0.03856906 0.00647361 0.00351074 0.00646453 0.00255290 0.00576532 0.00983736 0.06530450 0.00860831 0.04813595 0.00251710 0.01939613 0.12675301 0.02575009 0.03018639 
0.01405638 0.03802720 0.00647486 0.00349644 0.00657996 0.00255572 0.00566428 0.00983377 0.06574372 0.00847857 0.04786209 0.00245941 0.01958986 0.12826664 0.02603392 0.02951746 
0.01412064 0.03747091 0.00647224 0.00347851 0.00669600 0.00255631 0.00556929 0.00982121 0.06612233 0.00835016 0.04753087 0.00240077 0.01980036 0.12979352 0.02631625 0.02881312 
0.01418642 0.03690160 0.00646586 0.00345712 0.00681216 0.00255471 0.00548094 0.00979967 0.06643930 0.00822394 0.04714433 0.00234138 0.02002748 0.13132585 0.02659592 0.02807623 
0.01425356 0.03632076 0.00645581 0.00343245 0.00692792 0.00255096 0.00539980 0.00976919 0.06669397 0.00810074 0.04670482 0.00228147 0.02027098 0.13285575 0.02687179 0.02731005 
0.01432189 0.03572989 0.00644222 0.00340471 0.00704280 0.00254515 0.00532643 0.00972984 0.06688603 0.00798139 0.04621496 0.00222126 0.02053052 0.13437534 0.02714272 0.02651824 
0.01439126 0.03513059 0.00642523 0.00337411 0.00715630 0.00253734 0.00526136 0.00968173 0.06701552 0.00786668 0.04567761 0.00216094 0.02080564 0.13587678 0.02740762 0.02570483 
0.01446154 0.03452448 0.00640500 0.00334090 0.00726797 0.00252764 0.00520511 0.00962503 0.06708289 0.00775737 0.04509593 0.00210075 0.02109581 0.13735232 0.02766541 0.02487422 
0.01453260 0.03391324 0.00638171 0.00330533 0.00737735 0.00251614 0.00515817 0.00955994 0.06708890 0.00765420 0.04447325 0.00204089 0.02140037 0.13879436 0.02791507 0.02403116 
0.01460430 0.03329862 0.00635554 0.00326765 0.00748402 0.00250297 0.00512099 0.00948668 0.06703473 0.00755785 0.04381315 0.00198156 0.02171858 0.14019547 0.02815562 0.02318070 
0.01467656 0.03268242 0.00632669 0.00322816 0.00758757 0.00248825 0.00509402 0.00940556 0.06692187 0.00746897 0.04311938 0.00192296 0.02204957 0.14154845 0.02838612 0.02232822 
0.01474927 0.03206647 0.00629540 0.00318714 0.00768764 0.00247212 0.00507763 0.00931688 0.06675219 0.00738816 0.04239588 0.00186530 0.02239241 0.14284639 0.02860570 0.02147936 
0.01482236 0.03145266 0.00626187 0.00314488 0.00778389 0.00245472 0.00507220 0.00922100 0.06652787 0.00731597 0.04164673 0.00180875 0.02274606 0.14408267 0.02881354 0.02063997 
0.01489577 0.03084295 0.00622635 0.00310170 0.00787599 0.00243622 0.00507803 0.00911833 0.06625144 0.00725288 0.04087612 0.00175350 0.02310937 0.14525102 0.02900888 0.01981615 
0.01496946 0.03023931 0.00618908 0.00305790 0.00796367 0.00241677 0.00509541 0.00900928 0.06592574 0.00719933 0.04008836 0.00169972 0.02348113 0.14634557 0.02919102 0.01901412 
0.01504341 0.02964377 0.00615031 0.00301380 0.00804669 0.00239654 0.00512457 0.00889433 0.06555389 0.00715570 0.03928783 0.00164757 0.02386004 0.14736083 0.02935936 0.01824027 
0.01511761 0.02905839 0.00611031 0.00296972 0.00812484 0.00237572 0.00516569 0.00877397 0.06513931 0.00712230 0.03847896 0.00159722 0.02424472 0.14829177 0.02951334 0.01750103 
0.01519208 0.02848527 0.00606932 0.00292597 0.00819796 0.00235447 0.00521892 0.00864872 0.06468565 0.00709938 0.03766623 0.00154880 0.02463370 0.14913380 0.02965248 0.01680292 
0.01526686 0.02792653 0.00602760 0.00288287 0.00826590 0.00233299 0.00528434 0.00851913 0.06419683 0.00708713 0.03685408 0.00150245 0.02502547 0.14988282 0.02977637 0.01615242 
0.01534200 0.02738431 0.00598543 0.00284075 0.00832858 0.00231146 0.00536199 0.00838576 0.06367695 0.00708567 0.03604698 0.00145829 0.02541845 0.15053522 0.02988470 0.01555597 
0.01541758 0.02686078 0.00594307 0.00279990 0.00838595 0.00229006 0.00545187 0.00824922 0.06313032 0.00709506 0.03524931 0.00141644 0.02581102 0.15108792 0.02997721 0.01501993 
0.01549369 0.02635810 0.00590076 0.00276063 0.00843798 0.00226900 0.00555389 0.00811010 0.06256141 0.00711529 0.03446539 0.00137699 0.02620151 0.15153831 0.03005370 0.01455051 
0.01557044 0.02587844 0.00585876 0.00272325 0.00848471 0.00224844 0.00566793 0.00796903 0.06197482 0.00714630 0.03369945 0.00134003 0.02658821 0.15188434 0.03011409 0.01415372 
0.01564797 0.02542396 0.00581732 0.00268803 0.00852618 0.00222859 0.00579383 0.00782664 0.06137525 0.00718795 0.03295559 0.00130563 0.02696940 0.15212447 0.03015832 0.01383536 
0.01572643 0.02499679 0.00577669 0.00265526 0.00856250 0.00220961 0.00593135 0.00768358 0.06076750 0.00724005 0.03223779 0.00127387 0.02734335 0.15225769 0.03018645 0.01360090 
0.01580599 0.02459906 0.00573709 0.00262519 0.00859380 0.00219169 0.00608020 0.00754047 0.06015640 0.00730236 0.03154982 0.00124479 0.02770833 0.15228348 0.03019856 0.01345552 
0.01588683 0.02423283 0.00569874 0.00259808 0.00862024 0.00217499 0.00624005 0.00739798 0.05954679 0.00737457 0.03089530 0.00121843 0.02806259 0.15220188 0.03019484 0.01340401 
0.01596915 0.02390015 0.00566186 0.00257416 0.00864202 0.00215968 0.00641050 0.00725672 0.05894353 0.00745632 0.03027762 0.00119482 0.02840444 0.15201338 0.03017550 0.01345075 
0.01605315 0.02360297 0.00562665 0.00255366 0.00865937 0.00214592 0.00659111 0.00711735 0.05835140 0.00754720 0.02969997 0.00117397 0.02873219 0.15171898 0.03014086 0.01359965 
0.01613906 0.02334321 0.00559329 0.00253676 0.00867253 0.00213385 0.00678139 0.00698048 0.05777515 0.00764677 0.02916526 0.00115588 0.02904423 0.15132015 0.03009125 0.01385412 
0.01622710 0.02312268 0.00556195 0.00252364 0.00868179 0.00212361 0.00698078 0.00684672 0.05721939 0.00775453 0.02867615 0.00114054 0.02933897 0.15081883 0.03002709 0.01421706 
0.01631751 0.02294310 0.00553279 0.00251448 0.00868745 0.00211531 0.00718871 0.00671667 0.05668862 0.00786995 0.02823505 0.00112793 0.02961491 0.15021735 0.02994882 0.01469076 
0.01641054 0.02280611 0.00550595 0.00250941 0.00868982 0.00210908 0.00740454 0.00659089 0.05618717 0.00799247 0.02784405 0.00111802 0.02987063 0.14951851 0.02985696 0.01527695 
0.01650642 0.02271321 0.00548154 0.00250854 0.00868924 0.00210500 0.00762759 0.00646993 0.05571920 0.00812149 0.02750494 0.00111076 0.03010479 0.14872547 0.02975204 0.01597673 
0.01660539 0.02266577 0.00545968 0.00251197 0.00868607 0.00210317 0.00785715 0.00635432 0.05528864 0.00825640 0.02721921 0.00110610 0.03031618 0.14784175 0.02963465 0.01679054 
0.01670770 0.02266502 0.00544043 0.00251978 0.00868065 0.00210365 0.00809247 0.00624454 0.05489918 0.00839656 0.02698804 0.00110398 0.03050367 0.14687124 0.02950542 0.01771817 
0.01681358 0.02271206 0.00542388 0.00253200 0.00867335 0.00210650 0.00833276 0.00614107 0.05455427 0.00854132 0.02681226 0.00110431 0.03066629 0.14581814 0.02936501 0.01875872 
0.01692325 0.02280778 0.00541005 0.00254866 0.00866454 0.00211175 0.00857722 0.00604432 0.05425706 0.00869004 0.02669240 0.00110701 0.03080320 0.14468692 0.02921408 0.01991061 
0.01703692 0.02295294 0.00539899 0.00256976 0.00865460 0.00211943 0.00882500 0.00595469 0.05401039 0.00884205 0.02662863 0.00111200 0.03091369 0.14348236 0.02905336 0.02117156 
0.01715479 0.02314808 0.00539068 0.00259527 0.00864387 0.00212954 0.00907526 0.00587252 0.05381680 0.00899669 0.02662080 0.00111917 0.03099723 0.14220945 0.02888358 0.02253861 
0.01727704 0.02339357 0.00538512 0.00262513 0.00863273 0.00214207 0.00932712 0.00579814 0.05367847 0.00915332 0.02666845 0.00112842 0.03105344 0.14087340 0.02870549 0.02400809 
0.01740384 0.02368956 0.00538227 0.00265929 0.00862152 0.00215699 0.00957970 0.00573181 0.05359725 0.00931130 0.02677075 0.00113962 0.03108213 0.13947961 0.02851985 0.02557568 
0.01753531 0.02403599 0.00538207 0.00269762 0.00861056 0.00217425 0.00983209 0.00567376 0.05357461 0.00947001 0.02692660 0.00115267 0.03108328 0.13803365 0.02832746 0.02723638 
0.01767158 0.02443257 0.00538444 0.00274002 0.00860019 0.00219380 0.01008341 0.00562417 0.05361165 0.00962885 0.02713454 0.00116742 0.03105705 0.13654122 0.02812910 0.02898452 
0.01781272 0.02487879 0.00538928 0.00278633 0.00859068 0.00221554 0.01033276 0.00558319 0.05370910 0.00978726 0.02739283 0.00118376 0.03100379 0.13500815 0.02792557 0.03081386 
0.01795878 0.02537391 0.00539648 0.00283637 0.00858233 0.00223938 0.01057925 0.00555090 0.05386728 0.00994469 0.02769944 0.00120155 0.03092407 0.13344034 0.02771769 0.03271752 
0.01810978 0.02591695 0.00540589 0.00288997 0.00857537 0.00226522 0.01082199 0.00552735 0.05408616 0.01010064 0.02805206 0.00122064 0.03081863 0.13184377 0.02750626 0.03468809 
0.01826571 0.02650667 0.00541738 0.00294691 0.00857004 0.00229292 0.01106012 0.00551256 0.05436529 0.01025465 0.02844809 0.00124090 0.03068841 0.13022448 0.02729210 0.03671762 
0.01842650 0.02714162 0.00543075 0.00300695 0.00856651 0.00232233 0.01129279 0.00550648 0.05470384 0.01040629 0.02888470 0.00126218 0.03053456 0.12858852 0.02707603 0.03879769 
0.01859205 0.02782008 0.00544582 0.00306984 0.00856495 0.00235331 0.01151918 0.00550903 0.05510061 0.01055518 0.02935884 0.00128433 0.03035840 0.12694196 0.02685886 0.04091943 
0.01876222 0.02854009 0.00546239 0.00313531 0.00856549 0.00238568 0.01173848 0.00552008 0.05555402 0.01070099 0.02986721 0.00130722 0.03016147 0.12529085 0.02664140 0.04307360 
0.01893683 0.02929947 0.00548024 0.00320308 0.00856822 0.00241926 0.01194993 0.00553948 0.05606213 0.01084344 0.03040636 0.00133069 0.02994547 0.12364122 0.02642446 0.04525063 
0.01911565 0.03009578 0.00549913 0.00327284 0.00857318 0.00245386 0.01215280 0.00556701 0.05662265 0.01098230 0.03097263 0.00135460 0.02971230 0.12199905 0.02620885 0.04744064 
0.01929840 0.03092637 0.00551882 0.00334428 0.00858040 0.00248927 0.01234638 0.00560243 0.05723292 0.01111741 0.03156223 0.00137881 0.02946402 0.12037027 0.02599536 0.04963355 
0.01948475 0.03178834 0.00553905 0.00341709 0.00858986 0.00252528 0.01253004 0.00564547 0.05789001 0.01124863 0.03217125 0.00140316 0.02920286 0.11876071 0.02578478 0.05181914 
0.01967435 0.03267861 0.00555956 0.00349091 0.00860149 0.00256167 0.01270315 0.00569581 0.05859062 0.01137589 0.03279566 0.00142753 0.02893118 0.11717614 0.02557789 0.05398705 
0.01986676 0.03359387 0.00558007 0.00356541 0.00861520 0.00259822 0.01286516 0.00575312 0.05933122 0.01149920 0.03343135 0.00145177 0.02865151 0.11562222 0.02537548 0.05612690 
0.02006153 0.03453063 0.00560031 0.00364024 0.00863086 0.00263469 0.01301555 0.00581702 0.06010798 0.01161857 0.03407418 0.00147575 0.02836650 0.11410448 0.02517829 0.05822834 
0.02025815 0.03548521 0.00561999 0.00371504 0.00864829 0.00267086 0.01315387 0.00588712 0.06091682 0.01173412 0.03471996 0.00149933 0.02807889 0.11262835 0.02498710 0.06028113 
0.02045606 0.03645378 0.00563883 0.00378946 0.00866729 0.00270649 0.01327971 0.00596301 0.06175347 0.01184598 0.03536451 0.00152239 0.02779153 0.11119909 0.02480263 0.06227514 
0.02065467 0.03743235 0.00565653 0.00386313 0.00868761 0.00274133 0.01339273 0.00604425 0.06261343 0.01195436 0.03600365 0.00154482 0.02750736 0.10982186 0.02462562 0.06420050 
0.02085333 0.03841680 0.00567281 0.00393571 0.00870898 0.00277517 0.01349262 0.00613038 0.06349204 0.01205947 0.03663328 0.00156648 0.02722936 0.10850161 0.02445679 0.06604762 
0.02105138 0.03940291 0.00568739 0.00400684 0.00873111 0.00280777 0.01357916 0.00622094 0.06438450 0.01216163 0.03724935 0.00158728 0.02696057 0.10724315 0.02429682 0.06780722 
0.02124808 0.04038635 0.00569999 0.00407616 0.00875366 0.00283890 0.01365217 0.00631547 0.06528590 0.01226114 0.03784790 0.00160710 0.02670404 0.10605112 0.02414642 0.06947046 
0.02144271 0.04136274 0.00571034 0.00414334 0.00877626 0.00286834 0.01371154 0.00641348 0.06619121 0.01235838 0.03842511 0.00162585 0.02646283 0.10492994 0.02400625 0.07102894 
0.02163448 0.04232763 0.00571816 0.00420804 0.00879856 0.00289587 0.01375720 0.00651450 0.06709538 0.01245374 0.03897728 0.00164344 0.02623998 0.10388387 0.02387695 0.07247479 
0.02182258 0.04327656 0.00572322 0.00426994 0.00882014 0.00292131 0.01378916 0.00661803 0.06799329 0.01254764 0.03950090 0.00165978 0.02603848 0.10291695 0.02375915 0.07380069 
0.02200620 0.04420505 0.00572526 0.00432873 0.00884060 0.00294444 0.01380747 0.00672360 0.06887983 0.01264053 0.03999261 0.00167480 0.02586128 0.10203299 0.02365347 0.07499993 
0.02218450 0.04510866 0.00572405 0.00438411 0.00885952 0.00296509 0.01381226 0.00683075 0.06974993 0.01273289 0.04044928 0.00168842 0.02571122 0.10123561 0.02356048 0.07606648 
0.02235661 0.04598298 0.00571939 0.00443580 0.00887646 0.00298309 0.01380369 0.00693901 0.07059853 0.01282520 0.04086798 0.00170058 0.02559106 0.10052817 0.02348075 0.07699498 
0.02252168 0.04682368 0.00571108 0.00448354 0.00889099 0.00299829 0.01378199 0.00704794 0.07142070 0.01291795 0.04124605 0.00171123 0.02550342 0.09991380 0.02341480 0.07778081 
0.02267885 0.04762652 0.00569894 0.00452707 0.00890267 0.00301053 0.01374743 0.00715710 0.07221158 0.01301165 0.04158104 0.00172031 0.02545077 0.09939538 0.02336314 0.07842012 
0.02282725 0.04838738 0.00568281 0.00456618 0.00891109 0.00301971 0.01370034 0.00726608 0.07296646 0.01310678 0.04187081 0.00172780 0.02543543 0.09897553 0.02332624 0.07890981 
0.02296603 0.04910228 0.00566255 0.00460065 0.00891582 0.00302571 0.01364110 0.00737450 0.07368079 0.01320383 0.04211347 0.00173365 0.02545952 0.09865662 0.02330453 0.07924763 
0.02309435 0.04976741 0.00563806 0.00463031 0.00891645 0.00302844 0.01357012 0.00748197 0.07435020 0.01330330 0.04230742 0.00173786 0.02552495 0.09844073 0.02329842 0.07943211 
0.02321141 0.05037916 0.00560924 0.00465498 0.00891261 0.00302783 0.01348788 0.00758816 0.07497054 0.01340562 0.04245137 0.00174039 0.02563342 0.09832965 0.02330828 0.07946262 
0.02331641 0.05093411 0.00557603 0.00467454 0.00890392 0.00302383 0.01339486 0.00769275 0.07553788 0.01351125 0.04254433 0.00174125 0.02578638 0.09832490 0.02333443 0.07933936 
0.02340858 0.05142910 0.00553838 0.00468887 0.00889007 0.00301641 0.01329161 0.00779545 0.07604855 0.01362059 0.04258560 0.00174043 0.02598503 0.09842771 0.02337715 0.07906336 
0.02348721 0.05186122 0.00549629 0.00469789 0.00887073 0.00300555 0.01317870 0.00789600 0.07649916 0.01373402 0.04257483 0.00173795 0.02623029 0.09863898 0.02343669 0.07863645 
0.02355163 0.05222783 0.00544977 0.00470152 0.00884565 0.00299127 0.01305672 0.00799417 0.07688661 0.01385188 0.04251194 0.00173383 0.02652280 0.09895932 0.02351324 0.07806127 
0.02360120 0.05252658 0.00539886 0.00469974 0.00881459 0.00297358 0.01292632 0.00808977 0.07720812 0.01397445 0.04239719 0.00172808 0.02686292 0.09938903 0.02360695 0.07734126 
0.02363536 0.05275546 0.00534363 0.00469253 0.00877738 0.00295254 0.01278814 0.00818263 0.07746124 0.01410201 0.04223113 0.00172074 0.02725068 0.09992807 0.02371791 0.07648060 
0.02365358 0.05291276 0.00528417 0.00467991 0.00873388 0.00292820 0.01264284 0.00827261 0.07764387 0.01423473 0.04201462 0.00171185 0.02768583 0.10057612 0.02384618 0.07548421 
0.02365543 0.05299711 0.00522061 0.00466192 0.00868400 0.00290067 0.01249113 0.00835963 0.07775427 0.01437277 0.04174882 0.00170146 0.02816779 0.10133248 0.02399174 0.07435769 
0.02364051 0.05300751 0.00515310 0.00463863 0.00862770 0.00287004 0.01233369 0.00844361 0.07779105 0.01451623 0.04143519 0.00168962 0.02869566 0.10219618 0.02415455 0.07310732 
0.02360854 0.05294333 0.00508181 0.00461012 0.00856502 0.00283643 0.01217124 0.00852452 0.07775324 0.01466512 0.04107544 0.00167640 0.02926822 0.10316587 0.02433448 0.07173997 
0.02355927 0.05280427 0.00500695 0.00457651 0.00849603 0.00279999 0.01200450 0.00860236 0.07764025 0.01481941 0.04067158 0.00166186 0.02988394 0.10423991 0.02453138 0.07026310 
0.02349257 0.05259047 0.00492875 0.00453795 0.00842087 0.00276086 0.01183417 0.00867714 0.07745187 0.01497903 0.04022586 0.00164608 0.03054097 0.10541632 0.02474500 0.06868466 
0.02340837 0.05230239 0.00484745 0.00449458 0.00833974 0.00271923 0.01166099 0.00874893 0.07718832 0.01514379 0.03974078 0.00162914 0.03123713 0.10669280 0.02497509 0.06701307 
0.02330668 0.05194093 0.00476333 0.00444661 0.00825292 0.00267527 0.01148567 0.00881781 0.07685023 0.01531349 0.03921905 0.00161112 0.03196998 0.10806673 0.02522128 0.06525717 
0.02318763 0.05150734 0.00467669 0.00439422 0.00816073 0.00262920 0.01130891 0.00888389 0.07643861 0.01548784 0.03866362 0.00159212 0.03273675 0.10953518 0.02548320 0.06342613 
0.02305142 0.05100326 0.00458784 0.00433764 0.00806356 0.00258121 0.01113142 0.00894730 0.07595492 0.01566647 0.03807760 0.00157224 0.03353440 0.11109490 0.02576040 0.06152941 
0.02289832 0.05043072 0.00449712 0.00427712 0.00796186 0.00253153 0.01095388 0.00900821 0.07540101 0.01584899 0.03746431 0.00155158 0.03435963 0.11274236 0.02605236 0.05957670 
0.02272874 0.04979212 0.00440488 0.00421292 0.00785615 0.00248040 0.01077696 0.00906679 0.07477913 0.01603490 0.03682719 0.00153024 0.03520889 0.11447373 0.02635852 0.05757783 
0.02254313 0.04909020 0.00431148 0.00414530 0.00774701 0.00242805 0.01060133 0.00912323 0.07409194 0.01622368 0.03616984 0.00150834 0.03607838 0.11628489 0.02667829 0.05554276 
0.02234207 0.04832809 0.00421730 0.00407457 0.00763506 0.00237473 0.01042761 0.00917776 0.07334249 0.01641473 0.03549598 0.00148600 0.03696410 0.11817148 0.02701098 0.05348147 
0.02212620 0.04750923 0.00412274 0.00400101 0.00752100 0.00232069 0.01025642 0.00923059 0.07253422 0.01660740 0.03480940 0.00146333 0.03786186 0.12012885 0.02735589 0.05140390 
0.02189626 0.04663741 0.00402817 0.00392494 0.00740557 0.00226619 0.01008835 0.00928197 0.07167091 0.01680100 0.03411397 0.00144046 0.03876730 0.12215213 0.02771225 0.04931992 
0.02165307 0.04571671 0.00393402 0.00384668 0.00728957 0.00221147 0.00992396 0.00933214 0.07075673 0.01699479 0.03341364 0.00141751 0.03967592 0.12423623 0.02807927 0.04723925 
0.02139752 0.04475152 0.00384067 0.00376656 0.00717382 0.00215680 0.00976380 0.00938137 0.06979619 0.01718797 0.03271235 0.00139461 0.04058309 0.12637584 0.02845607 0.04517139 
0.02113061 0.04374648 0.00374855 0.00368491 0.00705922 0.00210243 0.00960837 0.00942991 0.06879409 0.01737973 0.03201407 0.00137189 0.04148410 0.12856545 0.02884178 0.04312558 
0.02085338 0.04270650 0.00365806 0.00360207 0.00694667 0.00204861 0.00945815 0.00947802 0.06775558 0.01756922 0.03132276 0.00134948 0.04237417 0.13079939 0.02923546 0.04111077 
0.02056695 0.04163670 0.00356959 0.00351837 0.00683713 0.00199559 0.00931359 0.00952597 0.06668605 0.01775556 0.03064233 0.00132751 0.04324850 0.13307184 0.02963615 0.03913551 
0.02027250 0.04054241 0.00348354 0.00343417 0.00673156 0.00194361 0.00917511 0.00957401 0.06559118 0.01793786 0.02997666 0.00130612 0.04410227 0.13537681 0.03004285 0.03720796 
0.01997127 0.03942914 0.00340030 0.00334979 0.00663097 0.00189290 0.00904309 0.00962240 0.06447686 0.01811520 0.02932953 0.00128544 0.04493070 0.13770822 0.03045454 0.03533581 
0.01966455 0.03830254 0.00332024 0.00326557 0.00653636 0.00184369 0.00891788 0.00967138 0.06334920 0.01828668 0.02870464 0.00126560 0.04572907 0.14005991 0.03087016 0.03352628 
0.01935368 0.03716839 0.00324373 0.00318185 0.00644875 0.00179619 0.00879979 0.00972120 0.06221450 0.01845136 0.02810558 0.00124674 0.04649273 0.14242559 0.03128865 0.03178603 
0.01904003 0.03603256 0.00317110 0.00309893 0.00636915 0.00175061 0.00868911 0.00977206 0.06107917 0.01860836 0.02753579 0.00122899 0.04721715 0.14479897 0.03170890 0.03012118 
0.01872501 0.03490096 0.00310270 0.00301716 0.00629859 0.00170713 0.00858608 0.00982419 0.05994976 0.01875677 0.02699857 0.00121247 0.04789795 0.14717368 0.03212982 0.02853727 
0.01841006 0.03377958 0.00303881 0.00293681 0.00623806 0.00166593 0.00849092 0.00987778 0.05883291 0.01889571 0.02649708 0.00119732 0.04853094 0.14954338 0.03255027 0.02703923 
0.01809661 0.03267437 0.00297973 0.00285821 0.00618854 0.00162716 0.00840380 0.00993301 0.05773529 0.01902436 0.02603426 0.00118365 0.04911210 0.15190170 0.03296915 0.02563137 
0.01778614 0.03159127 0.00292572 0.00278162 0.00615099 0.00159099 0.00832486 0.00999004 0.05666357 0.01914188 0.02561287 0.00117159 0.04963767 0.15424230 0.03338530 0.02431736 
0.01748011 0.03053617 0.00287700 0.00270732 0.00612634 0.00155753 0.00825421 0.01004900 0.05562442 0.01924752 0.02523546 0.00116127 0.05010412 0.15655890 0.03379760 0.02310025 
0.01717996 0.02951486 0.00283379 0.00263556 0.00611546 0.00152691 0.00819192 0.01011003 0.05462442 0.01934055 0.02490438 0.00115278 0.05050821 0.15884529 0.03420492 0.02198243 
0.01688715 0.02853301 0.00279626 0.00256659 0.00611921 0.00149920 0.00813803 0.01017320 0.05367008 0.01942030 0.02462172 0.00114624 0.05084700 0.16109532 0.03460612 0.02096567 
0.01660310 0.02759616 0.00276456 0.00250063 0.00613835 0.00147450 0.00809255 0.01023860 0.05276772 0.01948617 0.02438933 0.00114176 0.05111788 0.16330295 0.03500009 0.02005111 
0.01632920 0.02670965 0.00273880 0.00243788 0.00617363 0.00145286 0.00805544 0.01030627 0.05192353 0.01953760 0.02420883 0.00113943 0.05131856 0.16546228 0.03538571 0.01923926 
0.01606683 0.02587864 0.00271906 0.00237853 0.00622569 0.00143432 0.00802665 0.01037623 0.05114345 0.01957413 0.02408157 0.00113934 0.05144711 0.16756752 0.03576190 0.01853005 
0.01581731 0.02510803 0.00270539 0.00232275 0.00629514 0.00141890 0.00800609 0.01044849 0.05043315 0.01959535 0.02400865 0.00114159 0.05150199 0.16961304 0.03612757 0.01792281 
0.01558190 0.02440249 0.00269781 0.00227069 0.00638248 0.00140660 0.00799364 0.01052301 0.04979804 0.01960095 0.02399087 0.00114624 0.05148201 0.17159339 0.03648167 0.01741635 
0.01536182 0.02376641 0.00269629 0.00222248 0.00648816 0.00139742 0.00798914 0.01059975 0.04924315 0.01959069 0.02402880 0.00115337 0.05138638 0.17350329 0.03682316 0.01700891 
0.01515824 0.02320384 0.00270078 0.00217823 0.00661252 0.00139132 0.00799242 0.01067862 0.04877317 0.01956443 0.02412272 0.00116303 0.05121473 0.17533765 0.03715102 0.01669828 
0.01497223 0.02271855 0.00271119 0.00213802 0.00675582 0.00138824 0.00800327 0.01075953 0.04839236 0.01952209 0.02427263 0.00117530 0.05096705 0.17709160 0.03746428 0.01648176 
0.01480483 0.02231393 0.00272740 0.00210193 0.00691823 0.00138813 0.00802147 0.01084233 0.04810456 0.01946371 0.02447827 0.00119020 0.05064376 0.17876049 0.03776199 0.01635624 
0.01465696 0.02199302 0.00274925 0.00207000 0.00709982 0.00139090 0.00804674 0.01092689 0.04791311 0.01938941 0.02473912 0.00120777 0.05024567 0.18033990 0.03804322 0.01631822 
0.01452948 0.02175848 0.00277656 0.00204226 0.00730056 0.00139645 0.00807883 0.01101302 0.04782086 0.01929941 0.02505436 0.00122805 0.04977397 0.18182564 0.03830708 0.01636386 
0.01442316 0.02161257 0.00280910 0.00201872 0.00752034 0.00140467 0.00811741 0.01110052 0.04783013 0.01919402 0.02542295 0.00125105 0.04923027 0.18321378 0.03855273 0.01648902 
0.01433868 0.02155713 0.00284663 0.00199936 0.00775893 0.00141543 0.00816218 0.01118917 0.04794266 0.01907362 0.02584356 0.00127676 0.04861654 0.18450065 0.03877936 0.01668931 
0.01427661 0.02159362 0.00288886 0.00198415 0.00801600 0.00142860 0.00821280 0.01127873 0.04815963 0.01893873 0.02631464 0.00130519 0.04793510 0.18568285 0.03898619 0.01696012 
0.01423744 0.02172303 0.00293549 0.00197303 0.00829113 0.00144402 0.00826890 0.01136893 0.04848161 0.01878992 0.02683439 0.00133633 0.04718866 0.18675726 0.03917250 0.01729667 
0.01422156 0.02194595 0.00298619 0.00196595 0.00858379 0.00146154 0.00833011 0.01145950 0.04890855 0.01862785 0.02740077 0.00137014 0.04638023 0.18772101 0.03933760 0.01769405 
0.01422924 0.02226251 0.00304059 0.00196280 0.00889337 0.00148098 0.00839606 0.01155013 0.04943980 0.01845328 0.02801154 0.00140658 0.04551315 0.18857156 0.03948087 0.01814729 
0.01426067 0.02267243 0.00309833 0.00196349 0.00921913 0.00150217 0.00846633 0.01164051 0.05007402 0.01826704 0.02866424 0.00144562 0.04459106 0.18930663 0.03960171 0.01865136 
0.01431591 0.02317497 0.00315900 0.00196789 0.00956027 0.00152493 0.00854053 0.01173032 0.05080927 0.01807004 0.02935622 0.00148717 0.04361787 0.18992425 0.03969960 0.01920126 
0.01439492 0.02376896 0.00322218 0.00197587 0.00991588 0.00154906 0.00861825 0.01181920 0.05164295 0.01786326 0.03008464 0.00153119 0.04259772 0.19042276 0.03977403 0.01979201 
0.01449758 0.02445283 0.00328746 0.00198727 0.01028498 0.00157437 0.00869905 0.01190680 0.05257182 0.01764774 0.03084650 0.00157757 0.04153499 0.19080079 0.03982459 0.02041873 
0.01462364 0.02522455 0.00335438 0.00200193 0.01066650 0.00160067 0.00878252 0.01199278 0.05359200 0.01742458 0.03163866 0.00162622 0.04043426 0.19105728 0.03985091 0.02107665 
0.01477274 0.02608170 0.00342250 0.00201968 0.01105928 0.00162777 0.00886823 0.01207675 0.05469900 0.01719493 0.03245782 0.00167705 0.03930024 0.19119149 0.03985266 0.02176116 
0.01494444 0.02702148 0.00349134 0.00204032 0.01146213 0.00165546 0.00895576 0.01215834 0.05588771 0.01696001 0.03330058 0.00172992 0.03813781 0.19120299 0.03982958 0.02246783 
0.01513819 0.02804067 0.00356047 0.00206366 0.01187375 0.00168355 0.00904468 0.01223717 0.05715245 0.01672103 0.03416342 0.00178472 0.03695193 0.19109165 0.03978149 0.02319245 
0.01535333 0.02913571 0.00362940 0.00208949 0.01229280 0.00171186 0.00913457 0.01231287 0.05848697 0.01647929 0.03504276 0.00184129 0.03574765 0.19085767 0.03970824 0.02393102 
0.01558913 0.03030268 0.00369767 0.00211760 0.01271789 0.00174019 0.00922502 0.01238505 0.05988448 0.01623605 0.03593494 0.00189951 0.03453005 0.19050157 0.03960976 0.02467983 
0.01584475 0.03153733 0.00376483 0.00214777 0.01314759 0.00176837 0.00931562 0.01245335 0.06133771 0.01599265 0.03683624 0.00195919 0.03330422 0.19002416 0.03948605 0.02543545 
0.01611926 0.03283511 0.00383042 0.00217976 0.01358042 0.00179621 0.00940599 0.01251738 0.06283892 0.01575038 0.03774294 0.00202019 0.03207523 0.18942660 0.03933717 0.02619471 
0.01641166 0.03419117 0.00389400 0.00221336 0.01401489 0.00182357 0.00949573 0.01257678 0.06437994 0.01551056 0.03865127 0.00208231 0.03084810 0.18871033 0.03916325 0.02695477 
0.01672085 0.03560043 0.00395514 0.00224832 0.01444946 0.00185027 0.00958449 0.01263120 0.06595222 0.01527450 0.03955751 0.00214538 0.02962777 0.18787711 0.03896447 0.02771309 
0.01704567 0.03705754 0.00401343 0.00228442 0.01488261 0.00187617 0.00967190 0.01268029 0.06754691 0.01504348 0.04045793 0.00220920 0.02841906 0.18692903 0.03874111 0.02846746 
0.01738489 0.03855696 0.00406847 0.00232141 0.01531279 0.00190113 0.00975764 0.01272372 0.06915486 0.01481875 0.04134888 0.00227357 0.02722666 0.18586844 0.03849350 0.02921597 
0.01773721 0.04009298 0.00411987 0.00235907 0.01573846 0.00192503 0.00984138 0.01276116 0.07076669 0.01460154 0.04222675 0.00233829 0.02605508 0.18469804 0.03822204 0.02995702 
0.01810128 0.04165973 0.00416728 0.00239717 0.01615809 0.00194775 0.00992284 0.01279232 0.07237286 0.01439304 0.04308803 0.00240315 0.02490865 0.18342077 0.03792721 0.03068935 
0.01847568 0.04325122 0.00421038 0.00243547 0.01657018 0.00196920 0.01000173 0.01281691 0.07396374 0.01419437 0.04392928 0.00246792 0.02379148 0.18203991 0.03760954 0.03141196 
0.01885897 0.04486138 0.00424884 0.00247376 0.01697324 0.00198928 0.01007780 0.01283467 0.07552964 0.01400660 0.04474722 0.00253240 0.02270744 0.18055897 0.03726967 0.03212416 
0.01924965 0.04648408 0.00428240 0.00251182 0.01736581 0.00200793 0.01015083 0.01284536 0.07706086 0.01383076 0.04553868 0.00259635 0.02166012 0.17898177 0.03690826 0.03282552 
0.01964619 0.04811314 0.00431081 0.00254943 0.01774651 0.00202508 0.01022062 0.01284875 0.07854782 0.01366777 0.04630065 0.00265956 0.02065287 0.17731236 0.03652607 0.03351587 
0.02004704 0.04974243 0.00433384 0.00258640 0.01811395 0.00204069 0.01028697 0.01284467 0.07998106 0.01351850 0.04703028 0.00272180 0.01968871 0.17555506 0.03612391 0.03419528 
0.02045062 0.05136582 0.00435131 0.00262252 0.01846685 0.00205474 0.01034975 0.01283293 0.08135132 0.01338373 0.04772490 0.00278285 0.01877037 0.17371442 0.03570268 0.03486401 
0.02085535 0.05297726 0.00436306 0.00265762 0.01880396 0.00206719 0.01040881 0.01281342 0.08264962 0.01326416 0.04838204 0.00284248 0.01790025 0.17179521 0.03526332 0.03552254 
0.02125964 0.05457078 0.00436899 0.00269152 0.01912411 0.00207806 0.01046406 0.01278601 0.08386730 0.01316038 0.04899945 0.00290048 0.01708043 0.16980242 0.03480683 0.03617149 
0.02166191 0.05614057 0.00436900 0.00272407 0.01942619 0.00208735 0.01051543 0.01275065 0.08499611 0.01307290 0.04957509 0.00295662 0.01631265 0.16774122 0.03433429 0.03681162 
0.02206056 0.05768095 0.00436304 0.00275510 0.01970918 0.00209510 0.01056285 0.01270728 0.08602824 0.01300213 0.05010714 0.00301070 0.01559828 0.16561697 0.03384681 0.03744379 
0.02245405 0.05918643 0.00435111 0.00278448 0.01997215 0.00210134 0.01060630 0.01265589 0.08695641 0.01294837 0.05059402 0.00306250 0.01493839 0.16343518 0.03334556 0.03806896 
0.02284083 0.06065172 0.00433322 0.00281208 0.02021425 0.00210612 0.01064577 0.01259652 0.08777387 0.01291182 0.05103443 0.00311184 0.01433368 0.16120150 0.03283178 0.03868812 
0.02321939 0.06207180 0.00430943 0.00283781 0.02043471 0.00210951 0.01068129 0.01252923 0.08847452 0.01289258 0.05142729 0.00315851 0.01378450 0.15892171 0.03230673 0.03930229 
0.02358826 0.06344186 0.00427983 0.00286155 0.02063286 0.00211158 0.01071289 0.01245410 0.08905293 0.01289064 0.05177180 0.00320233 0.01329089 0.15660167 0.03177170 0.03991249 
0.02394602 0.06475743 0.00424455 0.00288323 0.02080813 0.00211243 0.01074064 0.01237128 0.08950437 0.01290589 0.05206741 0.00324314 0.01285253 0.15424734 0.03122805 0.04051970 
0.02429129 0.06601431 0.00420375 0.00290278 0.02096005 0.00211214 0.01076461 0.01228094 0.08982486 0.01293810 0.05231384 0.00328076 0.01246879 0.15186471 0.03067714 0.04112483 
0.02462276 0.06720863 0.00415762 0.00292016 0.02108824 0.00211084 0.01078490 0.01218329 0.09001124 0.01298695 0.05251110 0.00331505 0.01213875 0.14945983 0.03012037 0.04172871 
0.02493918 0.06833688 0.00410639 0.00293531 0.02119243 0.00210862 0.01080161 0.01207856 0.09006114 0.01305203 0.05265943 0.00334586 0.01186116 0.14703872 0.02955916 0.04233207 
0.02523936 0.06939588 0.00405030 0.00294823 0.02127243 0.00210562 0.01081488 0.01196704 0.08997305 0.01313282 0.05275938 0.00337308 0.01163452 0.14460742 0.02899492 0.04293549 
0.02552219 0.07038286 0.00398965 0.00295891 0.02132817 0.00210195 0.01082483 0.01184906 0.08974635 0.01322869 0.05281172 0.00339659 0.01145704 0.14217191 0.02842909 0.04353940 
0.02578666 0.07129540 0.00392474 0.00296736 0.02135966 0.00209776 0.01083161 0.01172496 0.08938130 0.01333894 0.05281751 0.00341631 0.01132671 0.13973810 0.02786311 0.04414405 
0.02603182 0.07213150 0.00385590 0.00297359 0.02136703 0.00209319 0.01083538 0.01159514 0.08887903 0.01346279 0.05277805 0.00343214 0.01124127 0.13731182 0.02729840 0.04474952 
0.02625684 0.07288955 0.00378350 0.00297766 0.02135047 0.00208836 0.01083628 0.01146002 0.08824162 0.01359936 0.05269488 0.00344402 0.01119828 0.13489878 0.02673639 0.04535567 
0.02646095 0.07356837 0.00370792 0.00297961 0.02131029 0.00208342 0.01083448 0.01132006 0.08747201 0.01374770 0.05256978 0.00345192 0.01119510 0.13250456 0.02617846 0.04596215 
0.02664351 0.07416716 0.00362954 0.00297952 0.02124687 0.00207852 0.01083014 0.01117575 0.08657406 0.01390680 0.05240476 0.00345580 0.01122894 0.13013456 0.02562600 0.04656840 
0.02680397 0.07468556 0.00354879 0.00297746 0.02116069 0.00207379 0.01082340 0.01102762 0.08555249 0.01407559 0.05220203 0.00345565 0.01129688 0.12779403 0.02508034 0.04717362 
0.02694190 0.07512360 0.00346610 0.00297353 0.02105229 0.00206937 0.01081443 0.01087622 0.08441290 0.01425292 0.05196401 0.00345148 0.01139588 0.12548797 0.02454280 0.04777679 
0.02705695 0.07548174 0.00338191 0.00296783 0.02092231 0.00206540 0.01080337 0.01072212 0.08316172 0.01443763 0.05169331 0.00344331 0.01152283 0.12322118 0.02401462 0.04837665 
0.02714892 0.07576085 0.00329667 0.00296048 0.02077144 0.00206202 0.01079036 0.01056595 0.08180616 0.01462848 0.05139269 0.00343118 0.01167454 0.12099823 0.02349702 0.04897175 
0.02721769 0.07596215 0.00321084 0.00295161 0.02060045 0.00205935 0.01077552 0.01040832 0.08035424 0.01482424 0.05106509 0.00341516 0.01184781 0.11882338 0.02299116 0.04956037 
0.02726327 0.07608731 0.00312489 0.00294136 0.02041018 0.00205750 0.01075898 0.01024989 0.07881467 0.01502361 0.05071356 0.00339532 0.01203941 0.11670066 0.02249812 0.05014064 
0.02728577 0.07613832 0.00303927 0.00292987 0.02020150 0.00205660 0.01074084 0.01009133 0.07719684 0.01522530 0.05034129 0.00337177 0.01224614 0.11463376 0.02201895 0.05071046 
0.02728543 0.07611757 0.00295447 0.00291729 0.01997534 0.00205675 0.01072119 0.00993333 0.07551079 0.01542802 0.04995155 0.00334462 0.01246484 0.11262610 0.02155459 0.05126756 
0.02726260 0.07602778 0.00287093 0.00290378 0.01973270 0.00205805 0.01070010 0.00977659 0.07376711 0.01563047 0.04954772 0.00331399 0.01269241 0.11068074 0.02110593 0.05180953 
0.02721773 0.07587199 0.00278913 0.00288952 0.01947459 0.00206059 0.01067763 0.00962183 0.07197688 0.01583135 0.04913320 0.00328004 0.01292582 0.10880045 0.02067377 0.05233379 
0.02715138 0.07565357 0.00270951 0.00287467 0.01920206 0.00206443 0.01065382 0.00946977 0.07015166 0.01602938 0.04871146 0.00324293 0.01316216 0.10698763 0.02025883 0.05283766 
0.02706422 0.07537617 0.00263251 0.00285941 0.01891620 0.00206966 0.01062869 0.00932113 0.06830336 0.01622332 0.04828597 0.00320284 0.01339866 0.10524436 0.01986175 0.05331838 
0.02695704 0.07504370 0.00255856 0.00284391 0.01861812 0.00207631 0.01060224 0.00917665 0.06644419 0.01641194 0.04786022 0.00315997 0.01363267 0.10357235 0.01948308 0.05377311 
0.02683071 0.07466032 0.00248808 0.00282834 0.01830892 0.00208445 0.01057448 0.00903705 0.06458659 0.01659407 0.04743764 0.00311451 0.01386171 0.10197298 0.01912326 0.05419898 
0.02668618 0.07423042 0.00242147 0.00281289 0.01798976 0.00209409 0.01054535 0.00890305 0.06274315 0.01676858 0.04702164 0.00306670 0.01408350 0.10044727 0.01878267 0.05459310 
0.02652453 0.07375857 0.00235910 0.00279773 0.01766177 0.00210525 0.01051482 0.00877536 0.06092654 0.01693438 0.04661556 0.00301676 0.01429593 0.09899592 0.01846159 0.05495263 
0.02634688 0.07324952 0.00230135 0.00278303 0.01732608 0.00211794 0.01048283 0.00865470 0.05914942 0.01709047 0.04622266 0.00296494 0.01449710 0.09761927 0.01816019 0.05527476 
0.02615447 0.07270814 0.00224854 0.00276896 0.01698384 0.00213215 0.01044929 0.00854174 0.05742435 0.01723588 0.04584609 0.00291149 0.01468533 0.09631732 0.01787858 0.05555679 
0.02594857 0.07213943 0.00220099 0.00275569 0.01663618 0.00214786 0.01041412 0.00843715 0.05576374 0.01736975 0.04548886 0.00285666 0.01485915 0.09508978 0.01761674 0.05579612 
0.02573054 0.07154847 0.00215899 0.00274336 0.01628421 0.00216504 0.01037720 0.00834158 0.05417974 0.01749127 0.04515385 0.00280072 0.01501735 0.09393602 0.01737461 0.05599031 
0.02550180 0.07094040 0.00212281 0.00273214 0.01592904 0.00218363 0.01033843 0.00825564 0.05268420 0.01759973 0.04484379 0.00274395 0.01515894 0.09285514 0.01715200 0.05613710 
0.02526379 0.07032036 0.00209267 0.00272216 0.01557174 0.00220359 0.01029769 0.00817992 0.05128853 0.01769448 0.04456121 0.00268663 0.01528315 0.09184593 0.01694866 0.05623444 
0.02501801 0.06969352 0.00206879 0.00271356 0.01521336 0.00222483 0.01025484 0.00811498 0.05000370 0.01777499 0.04430845 0.00262902 0.01538949 0.09090695 0.01676427 0.05628052 
0.02476600 0.06906500 0.00205133 0.00270645 0.01485494 0.00224728 0.01020976 0.00806134 0.04884009 0.01784080 0.04408764 0.00257141 0.01547767 0.09003649 0.01659842 0.05627379 
0.02450928 0.06843986 0.00204045 0.00270095 0.01449747 0.00227084 0.01016231 0.00801946 0.04780751 0.01789156 0.04390072 0.00251409 0.01554766 0.08923263 0.01645063 0.05621300 
0.02424944 0.06782307 0.00203626 0.00269715 0.01414192 0.00229540 0.01011237 0.00798979 0.04691503 0.01792700 0.04374934 0.00245733 0.01559966 0.08849325 0.01632037 0.05609723 
0.02398802 0.06721949 0.00203884 0.00269515 0.01378922 0.00232087 0.01005981 0.00797272 0.04617101 0.01794695 0.04363496 0.00240140 0.01563409 0.08781604 0.01620703 0.05592587 
0.02372658 0.06663383 0.00204824 0.00269501 0.01344026 0.00234710 0.01000451 0.00796857 0.04558298 0.01795135 0.04355875 0.00234658 0.01565158 0.08719856 0.01610997 0.05569869 
0.02346667 0.06607062 0.00206448 0.00269679 0.01309589 0.00237397 0.00994637 0.00797765 0.04515761 0.01794022 0.04352163 0.00229313 0.01565297 0.08663822 0.01602849 0.05541581 
0.02320978 0.06553421 0.00208754 0.00270053 0.01275694 0.00240135 0.00988529 0.00800016 0.04490067 0.01791368 0.04352426 0.00224131 0.01563930 0.08613235 0.01596186 0.05507775 
0.02295741 0.06502872 0.00211738 0.00270627 0.01242418 0.00242908 0.00982121 0.00803630 0.04481697 0.01787195 0.04356703 0.00219138 0.01561179 0.08567819 0.01590932 0.05468543 
0.02271097 0.06455803 0.00215392 0.00271401 0.01209834 0.00245702 0.00975406 0.00808617 0.04491032 0.01781532 0.04365006 0.00214356 0.01557182 0.08527293 0.01587007 0.05424015 
0.02247185 0.06412575 0.00219704 0.00272376 0.01178012 0.00248502 0.00968380 0.00814983 0.04518352 0.01774419 0.04377318 0.00209810 0.01552094 0.08491376 0.01584332 0.05374364 
0.02224135 0.06373522 0.00224662 0.00273550 0.01147017 0.00251292 0.00961045 0.00822727 0.04563832 0.01765902 0.04393597 0.00205520 0.01546081 0.08459788 0.01582825 0.05319802 
0.02202071 0.06338945 0.00230247 0.00274919 0.01116912 0.00254055 0.00953401 0.00831841 0.04627538 0.01756038 0.04413772 0.00201507 0.01539323 0.08432250 0.01582405 0.05260580 
0.02181110 0.06309115 0.00236440 0.00276478 0.01087753 0.00256777 0.00945453 0.00842312 0.04709431 0.01744889 0.04437749 0.00197791 0.01532008 0.08408492 0.01582991 0.05196991 
0.02161359 0.06284269 0.00243219 0.00278223 0.01059593 0.00259440 0.00937212 0.00854118 0.04809362 0.01732525 0.04465406 0.00194387 0.01524334 0.08388251 0.01584504 0.05129364 
0.02142914 0.06264608 0.00250558 0.00280144 0.01032483 0.00262030 0.00928687 0.00867234 0.04927072 0.01719022 0.04496595 0.00191313 0.01516504 0.08371276 0.01586868 0.05058066 
0.02125863 0.06250299 0.00258429 0.00282232 0.01006468 0.00264531 0.00919896 0.00881625 0.05062197 0.01704461 0.04531148 0.00188581 0.01508725 0.08357331 0.01590010 0.04983497 
0.02110283 0.06241468 0.00266803 0.00284478 0.00981591 0.00266927 0.00910858 0.00897251 0.05214264 0.01688931 0.04568870 0.00186205 0.01501206 0.08346195 0.01593859 0.04906093 
