0.06090547 0.01944150 0.00558025 0.00313675 0.00085502 0.00204618 0.00792474 0.00294595 0.02647412 0.00204433 0.00245343 0.00026225 0.00350822 0.00033399 0.00099470 0.00125669 
0.06188217 0.01963502 0.00561372 0.00320731 0.00085742 0.00207782 0.00807386 0.00291997 0.02681263 0.00204493 0.00242268 0.00025975 0.00349732 0.00033991 0.00098372 0.00125551 
0.06280573 0.01980959 0.00564200 0.00327800 0.00085971 0.00210964 0.00821896 0.00289550 0.02715377 0.00204514 0.00239155 0.00025856 0.00348576 0.00034631 0.00097406 0.00125429 
0.06367334 0.01996518 0.00566513 0.00334851 0.00086186 0.00214150 0.00835953 0.00287252 0.02749536 0.00204495 0.00236014 0.00025871 0.00347351 0.00035318 0.00096578 0.00125304 
0.06448260 0.02010185 0.00568319 0.00341855 0.00086386 0.00217325 0.00849511 0.00285102 0.02783523 0.00204435 0.00232857 0.00026024 0.00346054 0.00036053 0.00095895 0.00125176 
0.06523149 0.02021972 0.00569632 0.00348783 0.00086570 0.00220474 0.00862522 0.00283100 0.02817123 0.00204332 0.00229695 0.00026318 0.00344684 0.00036835 0.00095363 0.00125045 
0.06591841 0.02031902 0.00570466 0.00355606 0.00086735 0.00223583 0.00874943 0.00281243 0.02850125 0.00204186 0.00226537 0.00026756 0.00343238 0.00037661 0.00094988 0.00124911 
0.06654217 0.02040005 0.00570842 0.00362296 0.00086881 0.00226636 0.00886731 0.00279527 0.02882319 0.00203997 0.00223395 0.00027339 0.00341719 0.00038532 0.00094776 0.00124774 
0.06710201 0.02046316 0.00570782 0.00368822 0.00087007 0.00229621 0.00897845 0.00277947 0.02913506 0.00203764 0.00220276 0.00028070 0.00340125 0.00039446 0.00094732 0.00124635 
0.06759755 0.02050881 0.00570313 0.00375159 0.00087112 0.00232524 0.00908250 0.00276501 0.02943491 0.00203486 0.00217190 0.00028951 0.00338460 0.00040400 0.00094860 0.00124494 
0.06802885 0.02053751 0.00569462 0.00381278 0.00087194 0.00235331 0.00917909 0.00275182 0.02972088 0.00203163 0.00214145 0.00029980 0.00336727 0.00041393 0.00095167 0.00124352 
0.06839634 0.02054983 0.00568262 0.00387155 0.00087255 0.00238030 0.00926791 0.00273985 0.02999121 0.00202794 0.00211149 0.00031160 0.00334929 0.00042422 0.00095654 0.00124210 
0.06870085 0.02054641 0.00566746 0.00392763 0.00087292 0.00240608 0.00934868 0.00272904 0.03024425 0.00202379 0.00208208 0.00032488 0.00333072 0.00043486 0.00096327 0.00124068 
0.06894357 0.02052794 0.00564949 0.00398078 0.00087307 0.00243054 0.00942114 0.00271933 0.03047844 0.00201918 0.00205329 0.00033965 0.00331162 0.00044581 0.00097186 0.00123927 
0.06912603 0.02049516 0.00562910 0.00403077 0.00087299 0.00245357 0.00948507 0.00271066 0.03069235 0.00201410 0.00202518 0.00035589 0.00329206 0.00045705 0.00098234 0.00123788 
0.06925012 0.02044884 0.00560668 0.00407740 0.00087268 0.00247506 0.00954027 0.00270298 0.03088469 0.00200856 0.00199779 0.00037357 0.00327212 0.00046855 0.00099472 0.00123652 
0.06931802 0.02038980 0.00558261 0.00412044 0.00087215 0.00249493 0.00958660 0.00269621 0.03105428 0.00200255 0.00197117 0.00039267 0.00325191 0.00048027 0.00100901 0.00123520 
0.06933218 0.02031890 0.00555732 0.00415973 0.00087140 0.00251308 0.00962393 0.00269031 0.03120010 0.00199608 0.00194535 0.00041314 0.00323152 0.00049218 0.00102519 0.00123392 
0.06929533 0.02023701 0.00553122 0.00419507 0.00087045 0.00252943 0.00965218 0.00268521 0.03132124 0.00198914 0.00192037 0.00043496 0.00321106 0.00050425 0.00104326 0.00123270 
0.06921041 0.02014503 0.00550472 0.00422632 0.00086929 0.00254390 0.00967131 0.00268087 0.03141695 0.00198175 0.00189624 0.00045808 0.00319065 0.00051643 0.00106320 0.00123154 
0.06908057 0.02004386 0.00547823 0.00425333 0.00086795 0.00255644 0.00968131 0.00267724 0.03148662 0.00197391 0.00187300 0.00048243 0.00317043 0.00052870 0.00108496 0.00123047 
0.06890911 0.01993442 0.00545217 0.00427598 0.00086643 0.00256699 0.00968221 0.00267427 0.03152978 0.00196562 0.00185063 0.00050797 0.00315053 0.00054101 0.00110851 0.00122948 
0.06869948 0.01981762 0.00542693 0.00429416 0.00086475 0.00257550 0.00967406 0.00267193 0.03154611 0.00195690 0.00182916 0.00053461 0.00313109 0.00055332 0.00113381 0.00122858 
0.06845521 0.01969437 0.00540291 0.00430778 0.00086292 0.00258194 0.00965698 0.00267019 0.03153542 0.00194774 0.00180859 0.00056231 0.00311227 0.00056560 0.00116078 0.00122780 
0.06817991 0.01956557 0.00538047 0.00431677 0.00086097 0.00258626 0.00963109 0.00266902 0.03149766 0.00193817 0.00178890 0.00059097 0.00309422 0.00057779 0.00118937 0.00122713 
0.06787722 0.01943211 0.00535998 0.00432107 0.00085890 0.00258845 0.00959658 0.00266841 0.03143291 0.00192819 0.00177009 0.00062052 0.00307710 0.00058987 0.00121949 0.00122659 
0.06755079 0.01929485 0.00534177 0.00432065 0.00085673 0.00258850 0.00955364 0.00266835 0.03134139 0.00191783 0.00175214 0.00065086 0.00306108 0.00060178 0.00125106 0.00122619 
0.06720422 0.01915462 0.00532615 0.00431549 0.00085450 0.00258640 0.00950253 0.00266883 0.03122343 0.00190709 0.00173505 0.00068191 0.00304633 0.00061349 0.00128398 0.00122593 
0.06684105 0.01901222 0.00531343 0.00430560 0.00085221 0.00258217 0.00944350 0.00266986 0.03107951 0.00189600 0.00171878 0.00071357 0.00303301 0.00062496 0.00131815 0.00122582 
0.06646473 0.01886842 0.00530385 0.00429098 0.00084989 0.00257581 0.00937687 0.00267145 0.03091017 0.00188457 0.00170332 0.00074573 0.00302130 0.00063614 0.00135346 0.00122588 
0.06607858 0.01872394 0.00529766 0.00427168 0.00084757 0.00256734 0.00930296 0.00267362 0.03071611 0.00187282 0.00168864 0.00077831 0.00301136 0.00064700 0.00138979 0.00122609 
0.06568577 0.01857947 0.00529505 0.00424775 0.00084525 0.00255680 0.00922215 0.00267640 0.03049810 0.00186079 0.00167470 0.00081118 0.00300336 0.00065749 0.00142701 0.00122648 
0.06528928 0.01843565 0.00529620 0.00421926 0.00084298 0.00254423 0.00913483 0.00267982 0.03025701 0.00184849 0.00166150 0.00084423 0.00299748 0.00066759 0.00146499 0.00122705 
0.06489191 0.01829306 0.00530125 0.00418630 0.00084077 0.00252967 0.00904140 0.00268393 0.02999379 0.00183595 0.00164898 0.00087737 0.00299387 0.00067724 0.00150360 0.00122779 
0.06449621 0.01815224 0.00531028 0.00414896 0.00083864 0.00251318 0.00894230 0.00268876 0.02970948 0.00182320 0.00163713 0.00091046 0.00299270 0.00068642 0.00154270 0.00122871 
0.06410450 0.01801367 0.00532338 0.00410738 0.00083662 0.00249483 0.00883800 0.00269438 0.02940516 0.00181027 0.00162591 0.00094340 0.00299411 0.00069509 0.00158212 0.00122981 
0.06371883 0.01787777 0.00534058 0.00406168 0.00083473 0.00247468 0.00872898 0.00270084 0.02908202 0.00179720 0.00161529 0.00097607 0.00299824 0.00070322 0.00162174 0.00123110 
0.06334097 0.01774493 0.00536186 0.00401202 0.00083300 0.00245281 0.00861573 0.00270819 0.02874124 0.00178401 0.00160525 0.00100835 0.00300525 0.00071078 0.00166139 0.00123257 
0.06297243 0.01761544 0.00538718 0.00395856 0.00083145 0.00242931 0.00849876 0.00271651 0.02838411 0.00177073 0.00159575 0.00104013 0.00301524 0.00071774 0.00170091 0.00123421 
0.06261439 0.01748959 0.00541647 0.00390147 0.00083010 0.00240427 0.00837860 0.00272586 0.02801191 0.00175741 0.00158677 0.00107130 0.00302835 0.00072408 0.00174016 0.00123603 
0.06226775 0.01736756 0.00544961 0.00384094 0.00082897 0.00237779 0.00825577 0.00273631 0.02762596 0.00174409 0.00157828 0.00110174 0.00304467 0.00072977 0.00177898 0.00123802 
0.06193310 0.01724952 0.00548645 0.00377717 0.00082809 0.00234996 0.00813083 0.00274793 0.02722762 0.00173079 0.00157027 0.00113135 0.00306429 0.00073480 0.00181721 0.00124017 
0.06161073 0.01713556 0.00552681 0.00371038 0.00082747 0.00232091 0.00800432 0.00276078 0.02681826 0.00171757 0.00156270 0.00116001 0.00308730 0.00073913 0.00185471 0.00124247 
0.06130063 0.01702572 0.00557047 0.00364079 0.00082714 0.00229073 0.00787678 0.00277494 0.02639924 0.00170445 0.00155556 0.00118763 0.00311377 0.00074277 0.00189131 0.00124493 
0.06100251 0.01692002 0.00561718 0.00356862 0.00082711 0.00225955 0.00774878 0.00279047 0.02597194 0.00169148 0.00154884 0.00121409 0.00314373 0.00074568 0.00192688 0.00124751 
0.06071578 0.01681840 0.00566668 0.00349412 0.00082740 0.00222749 0.00762084 0.00280743 0.02553773 0.00167869 0.00154253 0.00123932 0.00317723 0.00074788 0.00196128 0.00125023 
0.06043958 0.01672078 0.00571864 0.00341753 0.00082803 0.00219468 0.00749353 0.00282588 0.02509798 0.00166614 0.00153660 0.00126322 0.00321427 0.00074934 0.00199436 0.00125305 
0.06017283 0.01662702 0.00577275 0.00333910 0.00082902 0.00216124 0.00736736 0.00284587 0.02465403 0.00165385 0.00153106 0.00128570 0.00325486 0.00075006 0.00202600 0.00125598 
0.05991416 0.01653696 0.00582865 0.00325909 0.00083036 0.00212731 0.00724286 0.00286745 0.02420722 0.00164187 0.00152591 0.00130668 0.00329898 0.00075004 0.00205607 0.00125898 
0.05966204 0.01645040 0.00588595 0.00317776 0.00083209 0.00209301 0.00712055 0.00289066 0.02375885 0.00163024 0.00152113 0.00132611 0.00334659 0.00074928 0.00208446 0.00126206 
0.05941470 0.01636712 0.00594427 0.00309538 0.00083421 0.00205849 0.00700092 0.00291552 0.02331019 0.00161900 0.00151673 0.00134390 0.00339764 0.00074779 0.00211105 0.00126519 
0.05917023 0.01628686 0.00600319 0.00301221 0.00083673 0.00202387 0.00688444 0.00294206 0.02286249 0.00160817 0.00151271 0.00136001 0.00345204 0.00074557 0.00213576 0.00126836 
0.05892656 0.01620935 0.00606229 0.00292852 0.00083965 0.00198929 0.00677157 0.00297030 0.02241696 0.00159781 0.00150909 0.00137439 0.00350972 0.00074263 0.00215848 0.00127154 
0.05868151 0.01613430 0.00612113 0.00284457 0.00084299 0.00195488 0.00666275 0.00300023 0.02197478 0.00158794 0.00150585 0.00138699 0.00357054 0.00073899 0.00217914 0.00127473 
0.05843282 0.01606140 0.00617926 0.00276064 0.00084675 0.00192079 0.00655839 0.00303184 0.02153708 0.00157859 0.00150303 0.00139778 0.00363439 0.00073466 0.00219767 0.00127789 
0.05817816 0.01599034 0.00623623 0.00267699 0.00085093 0.00188713 0.00645886 0.00306512 0.02110495 0.00156981 0.00150061 0.00140673 0.00370111 0.00072965 0.00221401 0.00128102 
0.05791518 0.01592080 0.00629160 0.00259388 0.00085553 0.00185404 0.00636452 0.00310003 0.02067943 0.00156160 0.00149863 0.00141384 0.00377053 0.00072399 0.00222812 0.00128409 
0.05764153 0.01585247 0.00634489 0.00251156 0.00086055 0.00182165 0.00627569 0.00313653 0.02026152 0.00155401 0.00149709 0.00141909 0.00384248 0.00071770 0.00223994 0.00128708 
0.05735490 0.01578502 0.00639567 0.00243029 0.00086599 0.00179008 0.00619266 0.00317456 0.01985219 0.00154705 0.00149600 0.00142249 0.00391673 0.00071080 0.00224947 0.00128998 
0.05705305 0.01571813 0.00644349 0.00235032 0.00087185 0.00175946 0.00611569 0.00321404 0.01945233 0.00154074 0.00149538 0.00142404 0.00399308 0.00070332 0.00225668 0.00129276 
0.05673382 0.01565152 0.00648791 0.00227187 0.00087812 0.00172988 0.00604500 0.00325491 0.01906280 0.00153511 0.00149525 0.00142377 0.00407130 0.00069529 0.00226157 0.00129541 
0.05639518 0.01558487 0.00652850 0.00219519 0.00088480 0.00170148 0.00598076 0.00329705 0.01868442 0.00153016 0.00149561 0.00142170 0.00415112 0.00068674 0.00226415 0.00129791 
0.05603528 0.01551792 0.00656486 0.00212049 0.00089186 0.00167435 0.00592313 0.00334037 0.01831794 0.00152591 0.00149648 0.00141786 0.00423230 0.00067770 0.00226443 0.00130024 
0.05565242 0.01545040 0.00659659 0.00204798 0.00089932 0.00164858 0.00587222 0.00338474 0.01796408 0.00152236 0.00149787 0.00141231 0.00431454 0.00066820 0.00226245 0.00130238 
0.05524511 0.01538206 0.00662331 0.00197786 0.00090714 0.00162428 0.00582809 0.00343003 0.01762349 0.00151952 0.00149979 0.00140509 0.00439758 0.00065828 0.00225824 0.00130433 
0.05481213 0.01531268 0.00664468 0.00191033 0.00091532 0.00160154 0.00579078 0.00347610 0.01729679 0.00151739 0.00150226 0.00139626 0.00448110 0.00064797 0.00225186 0.00130605 
0.05435246 0.01524205 0.00666035 0.00184555 0.00092384 0.00158041 0.00576027 0.00352279 0.01698455 0.00151596 0.00150527 0.00138589 0.00456481 0.00063731 0.00224337 0.00130754 
0.05386539 0.01517001 0.00667003 0.00178368 0.00093269 0.00156099 0.00573653 0.00356994 0.01668728 0.00151522 0.00150883 0.00137406 0.00464839 0.00062633 0.00223282 0.00130879 
0.05335050 0.01509638 0.00667344 0.00172488 0.00094185 0.00154333 0.00571946 0.00361737 0.01640545 0.00151517 0.00151294 0.00136084 0.00473152 0.00061508 0.00222030 0.00130978 
0.05280765 0.01502104 0.00667033 0.00166927 0.00095130 0.00152748 0.00570895 0.00366491 0.01613949 0.00151579 0.00151760 0.00134631 0.00481389 0.00060358 0.00220589 0.00131050 
0.05223706 0.01494387 0.00666048 0.00161697 0.00096101 0.00151349 0.00570484 0.00371236 0.01588977 0.00151706 0.00152281 0.00133058 0.00489517 0.00059189 0.00218968 0.00131095 
0.05163925 0.01486479 0.00664372 0.00156810 0.00097097 0.00150140 0.00570693 0.00375953 0.01565662 0.00151896 0.00152856 0.00131374 0.00497504 0.00058003 0.00217178 0.00131112 
0.05101508 0.01478373 0.00661990 0.00152272 0.00098115 0.00149123 0.00571500 0.00380622 0.01544034 0.00152146 0.00153484 0.00129588 0.00505316 0.00056803 0.00215228 0.00131100 
0.05036575 0.01470066 0.00658890 0.00148091 0.00099153 0.00148301 0.00572879 0.00385222 0.01524116 0.00152453 0.00154163 0.00127711 0.00512923 0.00055595 0.00213129 0.00131058 
0.04969280 0.01461555 0.00655065 0.00144272 0.00100209 0.00147673 0.00574802 0.00389734 0.01505928 0.00152814 0.00154891 0.00125754 0.00520292 0.00054382 0.00210893 0.00130987 
0.04899811 0.01452840 0.00650511 0.00140819 0.00101279 0.00147241 0.00577236 0.00394134 0.01489487 0.00153224 0.00155667 0.00123728 0.00527393 0.00053166 0.00208531 0.00130887 
0.04828388 0.01443922 0.00645229 0.00137734 0.00102360 0.00147002 0.00580149 0.00398404 0.01474803 0.00153681 0.00156487 0.00121644 0.00534196 0.00051952 0.00206055 0.00130757 
0.04755264 0.01434806 0.00639221 0.00135016 0.00103451 0.00146955 0.00583503 0.00402523 0.01461885 0.00154179 0.00157350 0.00119512 0.00540670 0.00050742 0.00203478 0.00130599 
0.04680723 0.01425495 0.00632497 0.00132663 0.00104549 0.00147098 0.00587261 0.00406469 0.01450736 0.00154715 0.00158251 0.00117344 0.00546788 0.00049541 0.00200811 0.00130411 
0.04605078 0.01415996 0.00625068 0.00130674 0.00105649 0.00147425 0.00591382 0.00410222 0.01441356 0.00155283 0.00159188 0.00115152 0.00552524 0.00048350 0.00198067 0.00130196 
0.04528670 0.01406316 0.00616950 0.00129042 0.00106750 0.00147933 0.00595826 0.00413764 0.01433741 0.00155878 0.00160157 0.00112946 0.00557851 0.00047174 0.00195258 0.00129954 
0.04451865 0.01396463 0.00608163 0.00127762 0.00107849 0.00148616 0.00600550 0.00417075 0.01427883 0.00156496 0.00161152 0.00110737 0.00562746 0.00046014 0.00192397 0.00129686 
0.04375054 0.01386444 0.00598729 0.00126824 0.00108942 0.00149467 0.00605512 0.00420137 0.01423771 0.00157130 0.00162172 0.00108535 0.00567187 0.00044874 0.00189496 0.00129393 
0.04298647 0.01376271 0.00588677 0.00126220 0.00110026 0.00150480 0.00610669 0.00422933 0.01421390 0.00157776 0.00163209 0.00106352 0.00571153 0.00043755 0.00186566 0.00129077 
0.04223073 0.01365950 0.00578038 0.00125937 0.00111098 0.00151646 0.00615976 0.00425447 0.01420721 0.00158427 0.00164261 0.00104197 0.00574626 0.00042661 0.00183620 0.00128739 
0.04148777 0.01355493 0.00566847 0.00125964 0.00112156 0.00152957 0.00621392 0.00427663 0.01421744 0.00159079 0.00165323 0.00102080 0.00577590 0.00041593 0.00180668 0.00128380 
0.04076214 0.01344908 0.00555142 0.00126287 0.00113196 0.00154403 0.00626874 0.00429568 0.01424433 0.00159724 0.00166388 0.00100009 0.00580030 0.00040553 0.00177721 0.00128004 
0.04005849 0.01334205 0.00542965 0.00126890 0.00114215 0.00155974 0.00632382 0.00431150 0.01428760 0.00160359 0.00167453 0.00097993 0.00581935 0.00039542 0.00174792 0.00127611 
0.03938152 0.01323391 0.00530362 0.00127757 0.00115211 0.00157660 0.00637875 0.00432397 0.01434695 0.00160976 0.00168512 0.00096041 0.00583294 0.00038563 0.00171888 0.00127204 
0.03873594 0.01312476 0.00517380 0.00128870 0.00116179 0.00159450 0.00643316 0.00433299 0.01442203 0.00161571 0.00169561 0.00094159 0.00584100 0.00037616 0.00169021 0.00126786 
0.03812646 0.01301467 0.00504071 0.00130212 0.00117118 0.00161332 0.00648669 0.00433850 0.01451249 0.00162138 0.00170594 0.00092355 0.00584349 0.00036703 0.00166200 0.00126357 
0.03755771 0.01290371 0.00490490 0.00131764 0.00118025 0.00163295 0.00653902 0.00434042 0.01461793 0.00162672 0.00171607 0.00090633 0.00584038 0.00035825 0.00163433 0.00125921 
0.03703425 0.01279195 0.00476693 0.00133505 0.00118896 0.00165327 0.00658982 0.00433871 0.01473794 0.00163168 0.00172596 0.00089001 0.00583166 0.00034981 0.00160729 0.00125481 
0.03656049 0.01267944 0.00462739 0.00135415 0.00119730 0.00167414 0.00663884 0.00433335 0.01487206 0.00163620 0.00173555 0.00087462 0.00581737 0.00034174 0.00158095 0.00125039 
0.03614071 0.01256625 0.00448690 0.00137473 0.00120522 0.00169545 0.00668582 0.00432432 0.01501985 0.00164025 0.00174481 0.00086020 0.00579755 0.00033403 0.00155540 0.00124596 
0.03577894 0.01245240 0.00434608 0.00139658 0.00121272 0.00171707 0.00673055 0.00431162 0.01518082 0.00164378 0.00175370 0.00084679 0.00577226 0.00032668 0.00153068 0.00124157 
0.03547901 0.01233796 0.00420560 0.00141948 0.00121977 0.00173888 0.00677286 0.00429529 0.01535445 0.00164674 0.00176218 0.00083441 0.00574162 0.00031970 0.00150688 0.00123724 
0.03524447 0.01222296 0.00406611 0.00144322 0.00122634 0.00176074 0.00681262 0.00427537 0.01554024 0.00164910 0.00177024 0.00082306 0.00570572 0.00031308 0.00148404 0.00123299 
0.03507858 0.01210744 0.00392829 0.00146760 0.00123241 0.00178255 0.00684974 0.00425191 0.01573763 0.00165084 0.00177783 0.00081278 0.00566472 0.00030682 0.00146221 0.00122886 
0.03498424 0.01199144 0.00379282 0.00149238 0.00123796 0.00180416 0.00688415 0.00422500 0.01594608 0.00165191 0.00178493 0.00080354 0.00561878 0.00030092 0.00144145 0.00122485 
0.03496402 0.01187501 0.00366040 0.00151737 0.00124298 0.00182547 0.00691585 0.00419472 0.01616501 0.00165229 0.00179154 0.00079536 0.00556807 0.00029537 0.00142180 0.00122102 
0.03502008 0.01175818 0.00353171 0.00154237 0.00124744 0.00184637 0.00694488 0.00416119 0.01639384 0.00165197 0.00179764 0.00078821 0.00551280 0.00029016 0.00140329 0.00121736 
0.03515419 0.01164102 0.00340745 0.00156716 0.00125134 0.00186673 0.00697129 0.00412454 0.01663197 0.00165092 0.00180321 0.00078207 0.00545319 0.00028529 0.00138597 0.00121392 
0.03536768 0.01152359 0.00328830 0.00159157 0.00125466 0.00188645 0.00699522 0.00408491 0.01687880 0.00164913 0.00180827 0.00077693 0.00538947 0.00028075 0.00136985 0.00121072 
0.03566142 0.01140597 0.00317496 0.00161541 0.00125738 0.00190543 0.00701681 0.00404244 0.01713372 0.00164661 0.00181281 0.00077275 0.00532190 0.00027653 0.00135498 0.00120777 
0.03603582 0.01128824 0.00306809 0.00163850 0.00125950 0.00192358 0.00703626 0.00399733 0.01739610 0.00164333 0.00181685 0.00076949 0.00525075 0.00027262 0.00134137 0.00120510 
0.03649082 0.01117053 0.00296835 0.00166069 0.00126101 0.00194080 0.00705381 0.00394973 0.01766531 0.00163932 0.00182040 0.00076712 0.00517629 0.00026900 0.00132904 0.00120273 
0.03702587 0.01105296 0.00287639 0.00168183 0.00126191 0.00195702 0.00706974 0.00389986 0.01794072 0.00163456 0.00182348 0.00076557 0.00509882 0.00026568 0.00131801 0.00120067 
0.03763990 0.01093569 0.00279284 0.00170178 0.00126218 0.00197216 0.00708434 0.00384791 0.01822169 0.00162908 0.00182612 0.00076481 0.00501862 0.00026263 0.00130831 0.00119895 
0.03833138 0.01081890 0.00271829 0.00172040 0.00126183 0.00198614 0.00709796 0.00379410 0.01850757 0.00162290 0.00182835 0.00076478 0.00493602 0.00025985 0.00129993 0.00119757 
0.03909826 0.01070281 0.00265332 0.00173761 0.00126086 0.00199892 0.00711097 0.00373864 0.01879773 0.00161603 0.00183020 0.00076542 0.00485132 0.00025733 0.00129290 0.00119656 
0.03993799 0.01058767 0.00259849 0.00175329 0.00125927 0.00201044 0.00712376 0.00368177 0.01909151 0.00160850 0.00183172 0.00076668 0.00476485 0.00025504 0.00128722 0.00119592 
0.04084755 0.01047377 0.00255431 0.00176737 0.00125707 0.00202065 0.00713676 0.00362373 0.01938826 0.00160034 0.00183296 0.00076848 0.00467691 0.00025299 0.00128290 0.00119566 
0.04182345 0.01036141 0.00252126 0.00177979 0.00125425 0.00202953 0.00715040 0.00356475 0.01968735 0.00159159 0.00183396 0.00077077 0.00458784 0.00025116 0.00127995 0.00119578 
0.04286172 0.01025096 0.00249979 0.00179050 0.00125084 0.00203704 0.00716513 0.00350507 0.01998811 0.00158229 0.00183478 0.00077348 0.00449795 0.00024953 0.00127838 0.00119630 
0.04395794 0.01014282 0.00249029 0.00179947 0.00124684 0.00204317 0.00718143 0.00344495 0.02028991 0.00157247 0.00183547 0.00077656 0.00440756 0.00024811 0.00127818 0.00119722 
0.04510729 0.01003743 0.00249315 0.00180669 0.00124226 0.00204791 0.00719976 0.00338462 0.02059209 0.00156219 0.00183609 0.00077994 0.00431698 0.00024687 0.00127937 0.00119854 
0.04630453 0.00993527 0.00250866 0.00181216 0.00123712 0.00205127 0.00722059 0.00332434 0.02089402 0.00155149 0.00183671 0.00078355 0.00422652 0.00024581 0.00128194 0.00120024 
0.04754404 0.00983688 0.00253711 0.00181591 0.00123143 0.00205323 0.00724440 0.00326435 0.02119505 0.00154043 0.00183739 0.00078734 0.00413648 0.00024492 0.00128589 0.00120234 
0.04881987 0.00974283 0.00257870 0.00181796 0.00122523 0.00205384 0.00727165 0.00320489 0.02149453 0.00152906 0.00183819 0.00079125 0.00404715 0.00024420 0.00129123 0.00120483 
0.05012575 0.00965372 0.00263361 0.00181838 0.00121852 0.00205309 0.00730279 0.00314621 0.02179184 0.00151744 0.00183917 0.00079523 0.00395880 0.00024363 0.00129795 0.00120769 
0.05145512 0.00957020 0.00270194 0.00181724 0.00121132 0.00205104 0.00733826 0.00308854 0.02208634 0.00150563 0.00184041 0.00079922 0.00387171 0.00024321 0.00130606 0.00121092 
0.05280117 0.00949299 0.00278376 0.00181461 0.00120367 0.00204771 0.00737848 0.00303210 0.02237738 0.00149369 0.00184196 0.00080317 0.00378613 0.00024293 0.00131554 0.00121450 
0.05415689 0.00942279 0.00287907 0.00181060 0.00119560 0.00204316 0.00742382 0.00297713 0.02266435 0.00148168 0.00184389 0.00080705 0.00370229 0.00024279 0.00132639 0.00121842 
0.05551511 0.00936039 0.00298781 0.00180532 0.00118712 0.00203743 0.00747465 0.00292383 0.02294660 0.00146967 0.00184626 0.00081081 0.00362043 0.00024278 0.00133860 0.00122266 
0.05686850 0.00930657 0.00310986 0.00179889 0.00117827 0.00203057 0.00753130 0.00287242 0.02322353 0.00145771 0.00184911 0.00081442 0.00354075 0.00024291 0.00135216 0.00122720 
0.05820968 0.00926216 0.00324506 0.00179147 0.00116908 0.00202266 0.00759404 0.00282310 0.02349450 0.00144588 0.00185251 0.00081785 0.00346343 0.00024316 0.00136706 0.00123202 
0.05953120 0.00922801 0.00339316 0.00178318 0.00115957 0.00201376 0.00766313 0.00277605 0.02375889 0.00143422 0.00185651 0.00082107 0.00338866 0.00024353 0.00138329 0.00123710 
0.06082563 0.00920497 0.00355388 0.00177420 0.00114980 0.00200393 0.00773875 0.00273146 0.02401609 0.00142281 0.00186115 0.00082407 0.00331658 0.00024403 0.00140082 0.00124242 
0.06208556 0.00919394 0.00372686 0.00176468 0.00113978 0.00199326 0.00782105 0.00268949 0.02426548 0.00141170 0.00186647 0.00082683 0.00324732 0.00024466 0.00141963 0.00124795 
0.06330368 0.00919579 0.00391169 0.00175481 0.00112956 0.00198181 0.00791013 0.00265030 0.02450645 0.00140095 0.00187250 0.00082935 0.00318100 0.00024541 0.00143971 0.00125366 
0.06447281 0.00921141 0.00410790 0.00174477 0.00111916 0.00196968 0.00800603 0.00261403 0.02473839 0.00139061 0.00187928 0.00083162 0.00311771 0.00024629 0.00146101 0.00125952 
0.06558596 0.00924169 0.00431496 0.00173473 0.00110863 0.00195693 0.00810873 0.00258082 0.02496070 0.00138073 0.00188682 0.00083364 0.00305752 0.00024730 0.00148350 0.00126551 
0.06663633 0.00928748 0.00453229 0.00172489 0.00109800 0.00194365 0.00821814 0.00255079 0.02517277 0.00137137 0.00189514 0.00083544 0.00300048 0.00024844 0.00150716 0.00127160 
0.06761738 0.00934964 0.00475926 0.00171543 0.00108731 0.00192992 0.00833414 0.00252404 0.02537402 0.00136257 0.00190425 0.00083701 0.00294663 0.00024971 0.00153193 0.00127775 
0.06852290 0.00942900 0.00499518 0.00170656 0.00107659 0.00191582 0.00845653 0.00250067 0.02556386 0.00135436 0.00191414 0.00083838 0.00289597 0.00025113 0.00155778 0.00128393 
0.06934698 0.00952633 0.00523931 0.00169845 0.00106588 0.00190144 0.00858504 0.00248076 0.02574169 0.00134679 0.00192481 0.00083958 0.00284849 0.00025268 0.00158464 0.00129011 
0.07008411 0.00964238 0.00549088 0.00169129 0.00105521 0.00188684 0.00871936 0.00246437 0.02590695 0.00133988 0.00193624 0.00084064 0.00280417 0.00025438 0.00161245 0.00129626 
0.07072916 0.00977785 0.00574905 0.00168527 0.00104463 0.00187211 0.00885910 0.00245155 0.02605907 0.00133367 0.00194841 0.00084158 0.00276295 0.00025624 0.00164117 0.00130234 
0.07127748 0.00993338 0.00601296 0.00168055 0.00103416 0.00185732 0.00900383 0.00244235 0.02619750 0.00132816 0.00196129 0.00084245 0.00272476 0.00025825 0.00167071 0.00130834 
0.07172486 0.01010953 0.00628172 0.00167732 0.00102383 0.00184253 0.00915304 0.00243680 0.02632168 0.00132339 0.00197483 0.00084330 0.00268953 0.00026042 0.00170101 0.00131420 
0.07206761 0.01030681 0.00655437 0.00167573 0.00101368 0.00182782 0.00930617 0.00243490 0.02643109 0.00131936 0.00198900 0.00084416 0.00265715 0.00026276 0.00173198 0.00131991 
0.07230254 0.01052564 0.00682996 0.00167593 0.00100374 0.00181325 0.00946263 0.00243664 0.02652521 0.00131606 0.00200373 0.00084508 0.00262750 0.00026527 0.00176355 0.00132543 
0.07242703 0.01076635 0.00710750 0.00167806 0.00099404 0.00179886 0.00962175 0.00244203 0.02660353 0.00131351 0.00201897 0.00084612 0.00260045 0.00026796 0.00179561 0.00133074 
0.07243902 0.01102918 0.00738597 0.00168225 0.00098461 0.00178472 0.00978282 0.00245102 0.02666558 0.00131168 0.00203464 0.00084732 0.00257585 0.00027084 0.00182808 0.00133580 
0.07233700 0.01131428 0.00766435 0.00168862 0.00097546 0.00177087 0.00994510 0.00246357 0.02671089 0.00131058 0.00205067 0.00084875 0.00255355 0.00027390 0.00186084 0.00134059 
0.07212010 0.01162168 0.00794161 0.00169727 0.00096662 0.00175736 0.01010780 0.00247964 0.02673901 0.00131016 0.00206698 0.00085046 0.00253336 0.00027715 0.00189381 0.00134508 
0.07178802 0.01195131 0.00821670 0.00170828 0.00095812 0.00174421 0.01027009 0.00249915 0.02674954 0.00131042 0.00208347 0.00085250 0.00251512 0.00028060 0.00192686 0.00134925 
0.07134106 0.01230298 0.00848857 0.00172172 0.00094997 0.00173146 0.01043113 0.00252202 0.02674209 0.00131131 0.00210006 0.00085492 0.00249862 0.00028425 0.00195989 0.00135308 
0.07078016 0.01267640 0.00875618 0.00173765 0.00094219 0.00171913 0.01059004 0.00254816 0.02671629 0.00131280 0.00211664 0.00085780 0.00248368 0.00028810 0.00199277 0.00135655 
0.07010683 0.01307114 0.00901849 0.00175609 0.00093480 0.00170724 0.01074592 0.00257747 0.02667181 0.00131483 0.00213312 0.00086117 0.00247009 0.00029216 0.00202538 0.00135964 
0.06932320 0.01348666 0.00927450 0.00177708 0.00092779 0.00169579 0.01089787 0.00260983 0.02660837 0.00131737 0.00214938 0.00086509 0.00245765 0.00029644 0.00205761 0.00136234 
0.06843200 0.01392228 0.00952319 0.00180061 0.00092120 0.00168480 0.01104498 0.00264512 0.02652571 0.00132035 0.00216532 0.00086962 0.00244615 0.00030092 0.00208931 0.00136462 
0.06743653 0.01437722 0.00976359 0.00182666 0.00091501 0.00167426 0.01118632 0.00268319 0.02642361 0.00132372 0.00218083 0.00087480 0.00243537 0.00030562 0.00212037 0.00136648 
0.06634064 0.01485056 0.00999475 0.00185519 0.00090924 0.00166417 0.01132100 0.00272390 0.02630190 0.00132741 0.00219580 0.00088068 0.00242510 0.00031054 0.00215066 0.00136791 
0.06514876 0.01534126 0.01021575 0.00188615 0.00090389 0.00165451 0.01144810 0.00276709 0.02616045 0.00133134 0.00221010 0.00088730 0.00241515 0.00031567 0.00218005 0.00136890 
0.06386583 0.01584816 0.01042573 0.00191947 0.00089895 0.00164526 0.01156676 0.00281260 0.02599917 0.00133545 0.00222364 0.00089470 0.00240530 0.00032101 0.00220841 0.00136946 
0.06249727 0.01637000 0.01062383 0.00195505 0.00089442 0.00163641 0.01167612 0.00286025 0.02581803 0.00133966 0.00223629 0.00090293 0.00239536 0.00032658 0.00223561 0.00136956 
0.06104900 0.01690539 0.01080928 0.00199278 0.00089029 0.00162793 0.01177534 0.00290985 0.02561705 0.00134389 0.00224794 0.00091200 0.00238513 0.00033235 0.00226152 0.00136923 
0.05952739 0.01745282 0.01098135 0.00203254 0.00088657 0.00161978 0.01186364 0.00296122 0.02539631 0.00134806 0.00225849 0.00092195 0.00237443 0.00033834 0.00228604 0.00136845 
0.05793919 0.01801072 0.01113934 0.00207419 0.00088323 0.00161192 0.01194027 0.00301414 0.02515594 0.00135208 0.00226784 0.00093281 0.00236309 0.00034454 0.00230903 0.00136724 
0.05629154 0.01857739 0.01128264 0.00211757 0.00088026 0.00160433 0.01200453 0.00306843 0.02489612 0.00135586 0.00227587 0.00094460 0.00235095 0.00035095 0.00233038 0.00136561 
0.05459193 0.01915105 0.01141069 0.00216250 0.00087765 0.00159695 0.01205576 0.00312387 0.02461710 0.00135933 0.00228250 0.00095733 0.00233785 0.00035756 0.00234998 0.00136356 
0.05284812 0.01972985 0.01152300 0.00220879 0.00087539 0.00158974 0.01209337 0.00318023 0.02431920 0.00136240 0.00228763 0.00097101 0.00232366 0.00036437 0.00236773 0.00136110 
0.05106817 0.02031187 0.01161914 0.00225626 0.00087344 0.00158265 0.01211684 0.00323731 0.02400279 0.00136497 0.00229117 0.00098565 0.00230825 0.00037137 0.00238353 0.00135826 
0.04926033 0.02089512 0.01169875 0.00230468 0.00087180 0.00157564 0.01212570 0.00329487 0.02366830 0.00136697 0.00229305 0.00100126 0.00229153 0.00037856 0.00239729 0.00135504 
0.04743301 0.02147756 0.01176155 0.00235384 0.00087043 0.00156865 0.01211956 0.00335268 0.02331624 0.00136832 0.00229320 0.00101784 0.00227339 0.00038594 0.00240893 0.00135148 
0.04559479 0.02205714 0.01180733 0.00240350 0.00086932 0.00156164 0.01209809 0.00341052 0.02294719 0.00136892 0.00229154 0.00103538 0.00225377 0.00039349 0.00241838 0.00134758 
0.04375429 0.02263175 0.01183595 0.00245342 0.00086844 0.00155455 0.01206105 0.00346815 0.02256178 0.00136872 0.00228802 0.00105387 0.00223262 0.00040121 0.00242556 0.00134337 
0.04192020 0.02319928 0.01184736 0.00250337 0.00086777 0.00154733 0.01200828 0.00352535 0.02216073 0.00136762 0.00228259 0.00107332 0.00220990 0.00040910 0.00243044 0.00133889 
0.04010119 0.02375761 0.01184156 0.00255310 0.00086727 0.00153994 0.01193969 0.00358187 0.02174479 0.00136557 0.00227522 0.00109369 0.00218560 0.00041714 0.00243295 0.00133414 
0.03830589 0.02430465 0.01181866 0.00260235 0.00086693 0.00153233 0.01185528 0.00363749 0.02131483 0.00136250 0.00226587 0.00111499 0.00215971 0.00042533 0.00243307 0.00132916 
0.03654281 0.02483831 0.01177882 0.00265087 0.00086671 0.00152446 0.01175514 0.00369198 0.02087174 0.00135835 0.00225452 0.00113720 0.00213228 0.00043366 0.00243077 0.00132398 
0.03482033 0.02535654 0.01172227 0.00269841 0.00086658 0.00151628 0.01163943 0.00374512 0.02041651 0.00135307 0.00224115 0.00116029 0.00210334 0.00044212 0.00242605 0.00131863 
0.03314665 0.02585736 0.01164933 0.00274471 0.00086653 0.00150775 0.01150840 0.00379667 0.01995018 0.00134660 0.00222577 0.00118425 0.00207296 0.00045070 0.00241889 0.00131313 
0.03152973 0.02633881 0.01156038 0.00278954 0.00086651 0.00149884 0.01136239 0.00384643 0.01947384 0.00133892 0.00220839 0.00120907 0.00204124 0.00045940 0.00240932 0.00130753 
0.02997725 0.02679905 0.01145588 0.00283264 0.00086651 0.00148952 0.01120182 0.00389419 0.01898868 0.00132998 0.00218901 0.00123473 0.00200826 0.00046819 0.00239735 0.00130184 
0.02849661 0.02723630 0.01133634 0.00287379 0.00086650 0.00147976 0.01102717 0.00393974 0.01849591 0.00131976 0.00216768 0.00126121 0.00197418 0.00047709 0.00238303 0.00129611 
0.02709482 0.02764887 0.01120234 0.00291276 0.00086644 0.00146954 0.01083903 0.00398289 0.01799683 0.00130826 0.00214442 0.00128850 0.00193912 0.00048607 0.00236639 0.00129036 
0.02577853 0.02803520 0.01105452 0.00294933 0.00086633 0.00145884 0.01063804 0.00402344 0.01749278 0.00129545 0.00211928 0.00131658 0.00190325 0.00049512 0.00234749 0.00128462 
0.02455395 0.02839384 0.01089357 0.00298329 0.00086612 0.00144766 0.01042493 0.00406123 0.01698515 0.00128134 0.00209232 0.00134546 0.00186677 0.00050424 0.00232641 0.00127894 
0.02342685 0.02872347 0.01072025 0.00301445 0.00086580 0.00143598 0.01020049 0.00409609 0.01647538 0.00126595 0.00206360 0.00137512 0.00182986 0.00051342 0.00230322 0.00127333 
0.02240251 0.02902290 0.01053534 0.00304263 0.00086535 0.00142381 0.00996558 0.00412786 0.01596496 0.00124928 0.00203321 0.00140557 0.00179274 0.00052264 0.00227802 0.00126783 
0.02148568 0.02929112 0.01033968 0.00306767 0.00086474 0.00141115 0.00972110 0.00415640 0.01545541 0.00123137 0.00200121 0.00143681 0.00175564 0.00053189 0.00225091 0.00126248 
0.02068060 0.02952723 0.01013414 0.00308941 0.00086397 0.00139803 0.00946804 0.00418158 0.01494830 0.00121225 0.00196770 0.00146884 0.00171881 0.00054118 0.00222199 0.00125729 
0.01999093 0.02973052 0.00991964 0.00310773 0.00086300 0.00138445 0.00920742 0.00420329 0.01444523 0.00119198 0.00193278 0.00150170 0.00168249 0.00055048 0.00219140 0.00125229 
0.01941975 0.02990046 0.00969709 0.00312251 0.00086182 0.00137044 0.00894029 0.00422143 0.01394782 0.00117060 0.00189655 0.00153539 0.00164696 0.00055979 0.00215925 0.00124752 
0.01896956 0.03003667 0.00946746 0.00313366 0.00086043 0.00135603 0.00866776 0.00423592 0.01345770 0.00114819 0.00185913 0.00156995 0.00161248 0.00056909 0.00212569 0.00124299 
0.01864223 0.03013895 0.00923173 0.00314110 0.00085880 0.00134126 0.00839096 0.00424668 0.01297654 0.00112482 0.00182064 0.00160542 0.00157934 0.00057838 0.00209087 0.00123874 
0.01843902 0.03020729 0.00899086 0.00314478 0.00085694 0.00132617 0.00811107 0.00425366 0.01250600 0.00110057 0.00178119 0.00164183 0.00154783 0.00058765 0.00205492 0.00123478 
0.01836057 0.03024186 0.00874586 0.00314466 0.00085482 0.00131082 0.00782925 0.00425684 0.01204775 0.00107553 0.00174092 0.00167925 0.00151823 0.00059689 0.00201801 0.00123113 
0.01840688 0.03024300 0.00849772 0.00314073 0.00085244 0.00129525 0.00754669 0.00425619 0.01160345 0.00104981 0.00169996 0.00171772 0.00149083 0.00060609 0.00198031 0.00122781 
0.01857732 0.03021126 0.00824741 0.00313299 0.00084980 0.00127953 0.00726460 0.00425171 0.01117476 0.00102351 0.00165845 0.00175732 0.00146592 0.00061524 0.00194197 0.00122484 
0.01887063 0.03014734 0.00799592 0.00312148 0.00084690 0.00126372 0.00698418 0.00424342 0.01076331 0.00099674 0.00161653 0.00179812 0.00144380 0.00062433 0.00190317 0.00122223 
0.01928493 0.03005212 0.00774420 0.00310623 0.00084372 0.00124789 0.00670660 0.00423136 0.01037070 0.00096964 0.00157433 0.00184021 0.00142474 0.00063336 0.00186407 0.00122000 
0.01981774 0.02992668 0.00749320 0.00308732 0.00084028 0.00123210 0.00643306 0.00421557 0.00999853 0.00094233 0.00153201 0.00188368 0.00140903 0.00064231 0.00182485 0.00121815 
0.02046595 0.02977223 0.00724381 0.00306484 0.00083657 0.00121645 0.00616468 0.00419614 0.00964832 0.00091493 0.00148971 0.00192862 0.00139694 0.00065118 0.00178569 0.00121669 
0.02122589 0.02959017 0.00699694 0.00303889 0.00083260 0.00120100 0.00590261 0.00417315 0.00932155 0.00088760 0.00144757 0.00197514 0.00138872 0.00065996 0.00174675 0.00121563 
0.02209330 0.02938204 0.00675342 0.00300961 0.00082837 0.00118584 0.00564794 0.00414669 0.00901967 0.00086048 0.00140574 0.00202335 0.00138462 0.00066865 0.00170821 0.00121497 
0.02306339 0.02914953 0.00651406 0.00297713 0.00082388 0.00117105 0.00540170 0.00411690 0.00874404 0.00083371 0.00136436 0.00207338 0.00138487 0.00067723 0.00167023 0.00121471 
0.02413085 0.02889445 0.00627964 0.00294162 0.00081915 0.00115671 0.00516490 0.00408391 0.00849596 0.00080744 0.00132358 0.00212534 0.00138970 0.00068570 0.00163298 0.00121485 
0.02528985 0.02861877 0.00605088 0.00290325 0.00081418 0.00114292 0.00493850 0.00404788 0.00827664 0.00078183 0.00128354 0.00217937 0.00139931 0.00069407 0.00159662 0.00121539 
0.02653411 0.02832453 0.00582844 0.00286223 0.00080898 0.00112975 0.00472339 0.00400896 0.00808721 0.00075704 0.00124437 0.00223560 0.00141387 0.00070231 0.00156130 0.00121633 
0.02785692 0.02801392 0.00561295 0.00281876 0.00080357 0.00111729 0.00452038 0.00396734 0.00792871 0.00073321 0.00120621 0.00229417 0.00143355 0.00071043 0.00152718 0.00121765 
0.02925114 0.02768918 0.00540497 0.00277306 0.00079794 0.00110563 0.00433025 0.00392321 0.00780208 0.00071050 0.00116919 0.00235521 0.00145849 0.00071842 0.00149440 0.00121934 
0.03070930 0.02735265 0.00520502 0.00272537 0.00079211 0.00109484 0.00415369 0.00387677 0.00770814 0.00068907 0.00113343 0.00241888 0.00148879 0.00072628 0.00146309 0.00122140 
0.03222358 0.02700673 0.00501355 0.00267592 0.00078610 0.00108500 0.00399131 0.00382824 0.00764761 0.00066907 0.00109906 0.00248530 0.00152456 0.00073402 0.00143338 0.00122382 
0.03378586 0.02665385 0.00483095 0.00262497 0.00077992 0.00107619 0.00384364 0.00377784 0.00762108 0.00065064 0.00106619 0.00255463 0.00156585 0.00074161 0.00140540 0.00122657 
0.03538779 0.02629651 0.00465755 0.00257278 0.00077357 0.00106848 0.00371114 0.00372581 0.00762902 0.00063393 0.00103493 0.00262701 0.00161270 0.00074908 0.00137925 0.00122964 
0.03702081 0.02593719 0.00449363 0.00251961 0.00076708 0.00106193 0.00359417 0.00367237 0.00767175 0.00061909 0.00100538 0.00270256 0.00166513 0.00075641 0.00135503 0.00123301 
0.03867618 0.02557840 0.00433940 0.00246573 0.00076045 0.00105660 0.00349302 0.00361777 0.00774947 0.00060624 0.00097764 0.00278143 0.00172311 0.00076361 0.00133283 0.00123666 
0.04034506 0.02522264 0.00419501 0.00241141 0.00075370 0.00105255 0.00340788 0.00356226 0.00786224 0.00059552 0.00095181 0.00286374 0.00178659 0.00077068 0.00131274 0.00124058 
0.04201852 0.02487237 0.00406056 0.00235693 0.00074684 0.00104983 0.00333885 0.00350609 0.00800998 0.00058705 0.00092795 0.00294962 0.00185551 0.00077762 0.00129482 0.00124473 
0.04368761 0.02453003 0.00393609 0.00230256 0.00073988 0.00104847 0.00328596 0.00344949 0.00819244 0.00058095 0.00090614 0.00303917 0.00192974 0.00078444 0.00127913 0.00124910 
0.04534340 0.02419799 0.00382156 0.00224857 0.00073284 0.00104851 0.00324913 0.00339273 0.00840924 0.00057731 0.00088646 0.00313251 0.00200917 0.00079114 0.00126571 0.00125366 
0.04697699 0.02387855 0.00371691 0.00219522 0.00072572 0.00104998 0.00322819 0.00333605 0.00865984 0.00057624 0.00086895 0.00322973 0.00209362 0.00079774 0.00125461 0.00125839 
0.04857963 0.02357393 0.00362202 0.00214279 0.00071854 0.00105289 0.00322291 0.00327968 0.00894356 0.00057782 0.00085367 0.00333092 0.00218291 0.00080423 0.00124585 0.00126327 
0.05014268 0.02328626 0.00353670 0.00209152 0.00071132 0.00105724 0.00323295 0.00322387 0.00925954 0.00058213 0.00084065 0.00343614 0.00227680 0.00081063 0.00123943 0.00126826 
0.05165772 0.02301757 0.00346073 0.00204168 0.00070405 0.00106304 0.00325790 0.00316884 0.00960681 0.00058923 0.00082994 0.00354546 0.00237505 0.00081695 0.00123537 0.00127334 
0.05311655 0.02276974 0.00339385 0.00199349 0.00069676 0.00107027 0.00329726 0.00311483 0.00998423 0.00059918 0.00082155 0.00365891 0.00247740 0.00082319 0.00123364 0.00127848 
0.05451127 0.02254454 0.00333575 0.00194718 0.00068945 0.00107891 0.00335045 0.00306203 0.01039049 0.00061201 0.00081550 0.00377653 0.00258353 0.00082938 0.00123424 0.00128366 
0.05583428 0.02234360 0.00328608 0.00190298 0.00068213 0.00108893 0.00341685 0.00301066 0.01082418 0.00062776 0.00081179 0.00389834 0.00269312 0.00083552 0.00123712 0.00128885 
0.05707834 0.02216838 0.00324447 0.00186110 0.00067482 0.00110029 0.00349573 0.00296090 0.01128373 0.00064643 0.00081043 0.00402431 0.00280583 0.00084163 0.00124225 0.00129403 
0.05823661 0.02202019 0.00321052 0.00182173 0.00066751 0.00111293 0.00358632 0.00291294 0.01176744 0.00066804 0.00081140 0.00415445 0.00292129 0.00084773 0.00124957 0.00129917 
0.05930269 0.02190017 0.00318379 0.00178504 0.00066023 0.00112680 0.00368779 0.00286693 0.01227347 0.00069256 0.00081468 0.00428869 0.00303910 0.00085383 0.00125903 0.00130425 
0.06027062 0.02180929 0.00316383 0.00175120 0.00065297 0.00114182 0.00379925 0.00282304 0.01279988 0.00071998 0.00082026 0.00442698 0.00315888 0.00085995 0.00127055 0.00130924 
0.06113496 0.02174832 0.00315019 0.00172036 0.00064576 0.00115792 0.00391976 0.00278139 0.01334461 0.00075025 0.00082808 0.00456925 0.00328019 0.00086611 0.00128405 0.00131411 
0.06189079 0.02171787 0.00314237 0.00169265 0.00063858 0.00117500 0.00404835 0.00274211 0.01390549 0.00078331 0.00083811 0.00471540 0.00340259 0.00087233 0.00129945 0.00131886 
0.06253371 0.02171834 0.00313990 0.00166819 0.00063146 0.00119296 0.00418401 0.00270529 0.01448027 0.00081911 0.00085031 0.00486530 0.00352566 0.00087863 0.00131665 0.00132345 
0.06305994 0.02174996 0.00314228 0.00164708 0.00062440 0.00121170 0.00432571 0.00267104 0.01506660 0.00085756 0.00086460 0.00501882 0.00364893 0.00088503 0.00133555 0.00132786 
0.06346624 0.02181274 0.00314903 0.00162939 0.00061742 0.00123110 0.00447237 0.00263940 0.01566207 0.00089856 0.00088094 0.00517580 0.00377194 0.00089156 0.00135605 0.00133209 
0.06375003 0.02190653 0.00315966 0.00161519 0.00061050 0.00125103 0.00462294 0.00261045 0.01626420 0.00094201 0.00089924 0.00533607 0.00389422 0.00089823 0.00137803 0.00133610 
0.06390932 0.02203097 0.00317370 0.00160453 0.00060368 0.00127138 0.00477632 0.00258421 0.01687045 0.00098779 0.00091943 0.00549944 0.00401531 0.00090506 0.00140139 0.00133989 
0.06394278 0.02218552 0.00319068 0.00159743 0.00059695 0.00129200 0.00493143 0.00256070 0.01747827 0.00103577 0.00094143 0.00566568 0.00413475 0.00091209 0.00142598 0.00134344 
0.06384969 0.02236945 0.00321016 0.00159390 0.00059032 0.00131275 0.00508721 0.00253993 0.01808506 0.00108579 0.00096515 0.00583458 0.00425207 0.00091932 0.00145171 0.00134674 
0.06363002 0.02258186 0.00323172 0.00159393 0.00058380 0.00133349 0.00524258 0.00252188 0.01868822 0.00113771 0.00099050 0.00600588 0.00436682 0.00092679 0.00147843 0.00134977 
0.06328436 0.02282167 0.00325496 0.00159750 0.00057740 0.00135407 0.00539652 0.00250652 0.01928514 0.00119136 0.00101737 0.00617932 0.00447855 0.00093452 0.00150603 0.00135254 
0.06281397 0.02308765 0.00327950 0.00160456 0.00057114 0.00137434 0.00554800 0.00249380 0.01987324 0.00124657 0.00104567 0.00635463 0.00458682 0.00094252 0.00153438 0.00135502 
0.06222074 0.02337840 0.00330499 0.00161506 0.00056502 0.00139414 0.00569605 0.00248366 0.02044996 0.00130314 0.00107529 0.00653152 0.00469122 0.00095081 0.00156334 0.00135722 
0.06150720 0.02369237 0.00333113 0.00162892 0.00055905 0.00141333 0.00583974 0.00247604 0.02101279 0.00136089 0.00110613 0.00670968 0.00479133 0.00095942 0.00159280 0.00135913 
0.06067653 0.02402788 0.00335764 0.00164605 0.00055324 0.00143175 0.00597818 0.00247084 0.02155925 0.00141962 0.00113806 0.00688881 0.00488677 0.00096837 0.00162263 0.00136075 
0.05973248 0.02438312 0.00338427 0.00166635 0.00054761 0.00144925 0.00611052 0.00246796 0.02208696 0.00147912 0.00117099 0.00706857 0.00497717 0.00097767 0.00165270 0.00136208 
0.05867942 0.02475617 0.00341083 0.00168969 0.00054218 0.00146569 0.00623601 0.00246730 0.02259362 0.00153918 0.00120479 0.00724865 0.00506219 0.00098733 0.00168291 0.00136312 
0.05752231 0.02514499 0.00343715 0.00171594 0.00053694 0.00148091 0.00635392 0.00246873 0.02307699 0.00159958 0.00123934 0.00742871 0.00514152 0.00099737 0.00171313 0.00136387 
0.05626663 0.02554748 0.00346311 0.00174496 0.00053193 0.00149478 0.00646363 0.00247214 0.02353498 0.00166011 0.00127454 0.00760840 0.00521486 0.00100780 0.00174325 0.00136434 
0.05491842 0.02596142 0.00348863 0.00177660 0.00052715 0.00150717 0.00656455 0.00247739 0.02396560 0.00172055 0.00131025 0.00778740 0.00528195 0.00101864 0.00177317 0.00136454 
0.05348420 0.02638458 0.00351367 0.00181068 0.00052261 0.00151795 0.00665621 0.00248433 0.02436697 0.00178067 0.00134637 0.00796536 0.00534255 0.00102988 0.00180279 0.00136447 
0.05197096 0.02681464 0.00353823 0.00184703 0.00051834 0.00152700 0.00673819 0.00249283 0.02473738 0.00184026 0.00138278 0.00814194 0.00539649 0.00104153 0.00183201 0.00136414 
0.05038614 0.02724927 0.00356236 0.00188547 0.00051435 0.00153422 0.00681017 0.00250273 0.02507525 0.00189911 0.00141937 0.00831681 0.00544357 0.00105360 0.00186075 0.00136357 
0.04873759 0.02768610 0.00358615 0.00192580 0.00051066 0.00153950 0.00687193 0.00251390 0.02537917 0.00195699 0.00145601 0.00848963 0.00548369 0.00106608 0.00188894 0.00136276 
0.04703349 0.02812277 0.00360972 0.00196783 0.00050729 0.00154277 0.00692331 0.00252618 0.02564789 0.00201369 0.00149261 0.00866009 0.00551674 0.00107898 0.00191648 0.00136173 
0.04528240 0.02855692 0.00363325 0.00201135 0.00050424 0.00154394 0.00696426 0.00253943 0.02588032 0.00206901 0.00152905 0.00882788 0.00554268 0.00109228 0.00194334 0.00136050 
0.04349313 0.02898623 0.00365693 0.00205615 0.00050155 0.00154295 0.00699481 0.00255350 0.02607556 0.00212276 0.00156522 0.00899269 0.00556147 0.00110597 0.00196944 0.00135908 
0.04167475 0.02940841 0.00368101 0.00210203 0.00049922 0.00153976 0.00701510 0.00256825 0.02623290 0.00217474 0.00160103 0.00915423 0.00557314 0.00112006 0.00199474 0.00135748 
0.03983657 0.02982121 0.00370576 0.00214877 0.00049727 0.00153433 0.00702532 0.00258356 0.02635179 0.00222476 0.00163637 0.00931224 0.00557775 0.00113451 0.00201920 0.00135572 
0.03798801 0.03022245 0.00373149 0.00219615 0.00049573 0.00152665 0.00702580 0.00259928 0.02643188 0.00227267 0.00167115 0.00946645 0.00557539 0.00114932 0.00204280 0.00135383 
0.03613864 0.03061005 0.00375854 0.00224397 0.00049461 0.00151671 0.00701692 0.00261531 0.02647302 0.00231829 0.00170529 0.00961664 0.00556620 0.00116446 0.00206551 0.00135181 
0.03429813 0.03098201 0.00378726 0.00229200 0.00049392 0.00150454 0.00699917 0.00263152 0.02647524 0.00236148 0.00173870 0.00976259 0.00555034 0.00117990 0.00208732 0.00134970 
0.03247614 0.03133640 0.00381803 0.00234004 0.00049368 0.00149015 0.00697309 0.00264782 0.02643874 0.00240211 0.00177130 0.00990409 0.00552803 0.00119563 0.00210822 0.00134751 
0.03068234 0.03167146 0.00385128 0.00238788 0.00049390 0.00147360 0.00693933 0.00266411 0.02636393 0.00244005 0.00180301 0.01004099 0.00549951 0.00121161 0.00212823 0.00134525 
0.02892635 0.03198550 0.00388741 0.00243531 0.00049460 0.00145495 0.00689860 0.00268032 0.02625139 0.00247519 0.00183377 0.01017313 0.00546505 0.00122781 0.00214736 0.00134295 
0.02721769 0.03227701 0.00392686 0.00248213 0.00049579 0.00143429 0.00685167 0.00269637 0.02610189 0.00250744 0.00186352 0.01030040 0.00542498 0.00124420 0.00216563 0.00134063 
0.02556573 0.03254458 0.00397008 0.00252816 0.00049748 0.00141172 0.00679940 0.00271220 0.02591634 0.00253673 0.00189219 0.01042269 0.00537963 0.00126073 0.00218308 0.00133830 
0.02397966 0.03278698 0.00401751 0.00257320 0.00049967 0.00138734 0.00674268 0.00272778 0.02569586 0.00256300 0.00191975 0.01053994 0.00532939 0.00127738 0.00219973 0.00133599 
0.02246846 0.03300310 0.00406962 0.00261707 0.00050239 0.00136131 0.00668247 0.00274307 0.02544168 0.00258620 0.00194614 0.01065211 0.00527465 0.00129408 0.00221565 0.00133371 
0.02104081 0.03319203 0.00412685 0.00265960 0.00050562 0.00133375 0.00661976 0.00275805 0.02515521 0.00260631 0.00197133 0.01075919 0.00521585 0.00131082 0.00223087 0.00133148 
0.01970513 0.03335300 0.00418964 0.00270062 0.00050938 0.00130485 0.00655560 0.00277273 0.02483799 0.00262331 0.00199529 0.01086120 0.00515346 0.00132753 0.00224547 0.00132933 
0.01846946 0.03348540 0.00425844 0.00273999 0.00051367 0.00127478 0.00649104 0.00278710 0.02449170 0.00263722 0.00201799 0.01095818 0.00508793 0.00134417 0.00225951 0.00132725 
0.01734148 0.03358880 0.00433366 0.00277755 0.00051849 0.00124373 0.00642718 0.00280119 0.02411812 0.00264806 0.00203942 0.01105022 0.00501979 0.00136070 0.00227305 0.00132528 
0.01632846 0.03366295 0.00441571 0.00281318 0.00052382 0.00121192 0.00636514 0.00281503 0.02371915 0.00265588 0.00205957 0.01113740 0.00494953 0.00137706 0.00228618 0.00132341 
0.01543723 0.03370773 0.00450498 0.00284674 0.00052967 0.00117956 0.00630601 0.00282868 0.02329679 0.00266074 0.00207842 0.01121988 0.00487771 0.00139321 0.00229898 0.00132168 
0.01467412 0.03372323 0.00460183 0.00287813 0.00053604 0.00114689 0.00625091 0.00284218 0.02285310 0.00266271 0.00209599 0.01129780 0.00480484 0.00140910 0.00231153 0.00132008 
0.01404498 0.03370967 0.00470659 0.00290724 0.00054289 0.00111416 0.00620094 0.00285561 0.02239025 0.00266189 0.00211227 0.01137135 0.00473150 0.00142468 0.00232391 0.00131864 
0.01355514 0.03366746 0.00481956 0.00293399 0.00055023 0.00108160 0.00615720 0.00286905 0.02191043 0.00265838 0.00212729 0.01144075 0.00465824 0.00143991 0.00233621 0.00131735 
0.01320935 0.03359714 0.00494101 0.00295830 0.00055804 0.00104949 0.00612073 0.00288259 0.02141591 0.00265232 0.00214105 0.01150623 0.00458561 0.00145473 0.00234852 0.00131622 
0.01301180 0.03349941 0.00507118 0.00298010 0.00056629 0.00101809 0.00609257 0.00289632 0.02090896 0.00264383 0.00215359 0.01156805 0.00451419 0.00146909 0.00236094 0.00131527 
0.01296611 0.03337511 0.00521024 0.00299934 0.00057496 0.00098767 0.00607370 0.00291036 0.02039191 0.00263308 0.00216493 0.01162649 0.00444451 0.00148296 0.00237354 0.00131450 
0.01307526 0.03322521 0.00535835 0.00301598 0.00058404 0.00095850 0.00606505 0.00292480 0.01986705 0.00262023 0.00217511 0.01168184 0.00437714 0.00149629 0.00238643 0.00131390 
0.01334162 0.03305082 0.00551561 0.00302999 0.00059348 0.00093086 0.00606751 0.00293977 0.01933670 0.00260546 0.00218416 0.01173443 0.00431262 0.00150904 0.00239967 0.00131349 
0.01376694 0.03285316 0.00568207 0.00304135 0.00060327 0.00090502 0.00608188 0.00295539 0.01880317 0.00258895 0.00219214 0.01178459 0.00425147 0.00152116 0.00241336 0.00131326 
0.01435232 0.03263354 0.00585775 0.00305006 0.00061336 0.00088126 0.00610891 0.00297179 0.01826870 0.00257090 0.00219908 0.01183265 0.00419419 0.00153263 0.00242757 0.00131321 
0.01509821 0.03239339 0.00604258 0.00305612 0.00062372 0.00085985 0.00614926 0.00298908 0.01773554 0.00255153 0.00220503 0.01187898 0.00414129 0.00154341 0.00244237 0.00131333 
0.01600442 0.03213421 0.00623649 0.00305955 0.00063431 0.00084105 0.00620351 0.00300739 0.01720586 0.00253103 0.00221006 0.01192392 0.00409323 0.00155346 0.00245784 0.00131363 
0.01707011 0.03185759 0.00643932 0.00306038 0.00064510 0.00082512 0.00627217 0.00302684 0.01668178 0.00250963 0.00221420 0.01196786 0.00405044 0.00156276 0.00247404 0.00131410 
0.01829380 0.03156516 0.00665087 0.00305866 0.00065604 0.00081231 0.00635562 0.00304756 0.01616534 0.00248756 0.00221753 0.01201114 0.00401335 0.00157129 0.00249102 0.00131473 
0.01967335 0.03125861 0.00687087 0.00305442 0.00066708 0.00080285 0.00645417 0.00306966 0.01565853 0.00246504 0.00222011 0.01205413 0.00398234 0.00157903 0.00250883 0.00131550 
0.02120601 0.03093967 0.00709902 0.00304773 0.00067818 0.00079697 0.00656802 0.00309326 0.01516323 0.00244230 0.00222199 0.01209721 0.00395776 0.00158595 0.00252751 0.00131642 
0.02288839 0.03061009 0.00733496 0.00303867 0.00068929 0.00079488 0.00669727 0.00311845 0.01468124 0.00241956 0.00222324 0.01214070 0.00393991 0.00159204 0.00254709 0.00131746 
0.02471650 0.03027164 0.00757826 0.00302730 0.00070037 0.00079678 0.00684190 0.00314533 0.01421426 0.00239705 0.00222392 0.01218496 0.00392908 0.00159729 0.00256760 0.00131863 
0.02668575 0.02992606 0.00782846 0.00301371 0.00071136 0.00080285 0.00700182 0.00317399 0.01376388 0.00237501 0.00222409 0.01223031 0.00392549 0.00160171 0.00258904 0.00131989 
0.02879099 0.02957513 0.00808503 0.00299801 0.00072222 0.00081324 0.00717677 0.00320450 0.01333159 0.00235364 0.00222382 0.01227706 0.00392935 0.00160527 0.00261143 0.00132124 
0.03102647 0.02922055 0.00834741 0.00298028 0.00073289 0.00082809 0.00736644 0.00323694 0.01291879 0.00233316 0.00222317 0.01232549 0.00394079 0.00160800 0.00263475 0.00132267 
0.03338596 0.02886403 0.00861497 0.00296064 0.00074332 0.00084753 0.00757038 0.00327136 0.01252672 0.00231378 0.00222221 0.01237587 0.00395992 0.00160988 0.00265898 0.00132415 
0.03586267 0.02850721 0.00888705 0.00293920 0.00075346 0.00087164 0.00778804 0.00330779 0.01215655 0.00229570 0.00222098 0.01242843 0.00398679 0.00161093 0.00268409 0.00132567 
0.03844936 0.02815168 0.00916294 0.00291607 0.00076327 0.00090050 0.00801878 0.00334626 0.01180931 0.00227911 0.00221956 0.01248337 0.00402142 0.00161117 0.00271005 0.00132721 
0.04113830 0.02779895 0.00944189 0.00289139 0.00077269 0.00093416 0.00826182 0.00338679 0.01148592 0.00226419 0.00221800 0.01254088 0.00406377 0.00161059 0.00273679 0.00132876 
0.04392136 0.02745048 0.00972312 0.00286527 0.00078167 0.00097263 0.00851634 0.00342936 0.01118719 0.00225111 0.00221635 0.01260109 0.00411373 0.00160924 0.00276427 0.00133029 
0.04679001 0.02710763 0.01000581 0.00283785 0.00079017 0.00101591 0.00878137 0.00347397 0.01091381 0.00224003 0.00221466 0.01266409 0.00417119 0.00160712 0.00279240 0.00133180 
0.04973533 0.02677167 0.01028909 0.00280925 0.00079815 0.00106398 0.00905589 0.00352057 0.01066637 0.00223108 0.00221299 0.01272995 0.00423595 0.00160426 0.00282110 0.00133325 
0.05274810 0.02644377 0.01057209 0.00277961 0.00080556 0.00111677 0.00933877 0.00356912 0.01044533 0.00222440 0.00221138 0.01279868 0.00430777 0.00160068 0.00285028 0.00133463 
0.05581879 0.02612500 0.01085391 0.00274906 0.00081235 0.00117420 0.00962884 0.00361954 0.01025107 0.00222009 0.00220986 0.01287026 0.00438639 0.00159642 0.00287983 0.00133593 
0.05893762 0.02581632 0.01113360 0.00271774 0.00081850 0.00123616 0.00992483 0.00367176 0.01008385 0.00221825 0.00220848 0.01294462 0.00447147 0.00159150 0.00290963 0.00133713 
0.06209459 0.02551857 0.01141025 0.00268578 0.00082397 0.00130250 0.01022540 0.00372566 0.00994384 0.00221896 0.00220727 0.01302164 0.00456264 0.00158596 0.00293955 0.00133821 
0.06527951 0.02523249 0.01168288 0.00265331 0.00082872 0.00137307 0.01052919 0.00378115 0.00983112 0.00222229 0.00220627 0.01310116 0.00465949 0.00157982 0.00296947 0.00133915 
0.06848205 0.02495868 0.01195053 0.00262046 0.00083273 0.00144767 0.01083477 0.00383808 0.00974569 0.00222828 0.00220549 0.01318296 0.00476155 0.00157313 0.00299925 0.00133994 
0.07169179 0.02469764 0.01221224 0.00258735 0.00083598 0.00152607 0.01114068 0.00389630 0.00968744 0.00223695 0.00220497 0.01326678 0.00486835 0.00156591 0.00302872 0.00134057 
0.07489824 0.02444973 0.01246705 0.00255411 0.00083843 0.00160805 0.01144542 0.00395567 0.00965621 0.00224832 0.00220471 0.01335231 0.00497933 0.00155820 0.00305774 0.00134103 
0.07809087 0.02421521 0.01271398 0.00252086 0.00084008 0.00169333 0.01174749 0.00401601 0.00965177 0.00226237 0.00220473 0.01343921 0.00509395 0.00155003 0.00308614 0.00134129 
0.08125919 0.02399421 0.01295211 0.00248772 0.00084092 0.00178162 0.01204536 0.00407713 0.00967381 0.00227909 0.00220505 0.01352706 0.00521160 0.00154144 0.00311375 0.00134135 
0.08439276 0.02378675 0.01318048 0.00245478 0.00084093 0.00187262 0.01233751 0.00413884 0.00972197 0.00229842 0.00220566 0.01361543 0.00533166 0.00153246 0.00314039 0.00134121 
0.08748124 0.02359273 0.01339818 0.00242217 0.00084011 0.00196599 0.01262242 0.00420092 0.00979583 0.00232031 0.00220657 0.01370381 0.00545348 0.00152312 0.00316591 0.00134085 
0.09051443 0.02341195 0.01360432 0.00238998 0.00083845 0.00206139 0.01289861 0.00426317 0.00989492 0.00234468 0.00220778 0.01379169 0.00557640 0.00151345 0.00319010 0.00134026 
0.09348231 0.02324410 0.01379804 0.00235830 0.00083598 0.00215845 0.01316459 0.00432537 0.01001874 0.00237143 0.00220927 0.01387850 0.00569972 0.00150348 0.00321280 0.00133945 
0.09637506 0.02308879 0.01397850 0.00232721 0.00083269 0.00225679 0.01341894 0.00438727 0.01016673 0.00240046 0.00221105 0.01396362 0.00582275 0.00149324 0.00323381 0.00133841 
0.09918312 0.02294551 0.01414492 0.00229681 0.00082860 0.00235602 0.01366027 0.00444866 0.01033831 0.00243164 0.00221308 0.01404642 0.00594478 0.00148276 0.00325297 0.00133714 
0.10189723 0.02281369 0.01429653 0.00226715 0.00082374 0.00245573 0.01388725 0.00450928 0.01053288 0.00246484 0.00221536 0.01412623 0.00606509 0.00147205 0.00327009 0.00133563 
0.10450844 0.02269266 0.01443263 0.00223831 0.00081811 0.00255552 0.01409860 0.00456891 0.01074978 0.00249989 0.00221787 0.01420236 0.00618298 0.00146113 0.00328500 0.00133390 
0.10700817 0.02258171 0.01455256 0.00221035 0.00081175 0.00265495 0.01429313 0.00462730 0.01098837 0.00253665 0.00222059 0.01427410 0.00629773 0.00145004 0.00329752 0.00133194 
0.10938823 0.02248003 0.01465572 0.00218330 0.00080470 0.00275363 0.01446971 0.00468422 0.01124796 0.00257493 0.00222348 0.01434072 0.00640864 0.00143877 0.00330749 0.00132977 
0.11164085 0.02238679 0.01474154 0.00215722 0.00079698 0.00285111 0.01462731 0.00473943 0.01152785 0.00261455 0.00222652 0.01440146 0.00651502 0.00142735 0.00331475 0.00132738 
0.11375872 0.02230110 0.01480955 0.00213215 0.00078865 0.00294697 0.01476498 0.00479270 0.01182734 0.00265532 0.00222969 0.01445558 0.00661619 0.00141579 0.00331914 0.00132479 
0.11573498 0.02222203 0.01485930 0.00210809 0.00077973 0.00304079 0.01488187 0.00484380 0.01214570 0.00269704 0.00223294 0.01450234 0.00671151 0.00140409 0.00332053 0.00132201 
0.11756332 0.02214862 0.01489044 0.00208509 0.00077029 0.00313217 0.01497724 0.00489252 0.01248219 0.00273950 0.00223626 0.01454096 0.00680034 0.00139226 0.00331877 0.00131906 
0.11923792 0.02207992 0.01490266 0.00206314 0.00076037 0.00322068 0.01505045 0.00493864 0.01283606 0.00278250 0.00223959 0.01457072 0.00688208 0.00138030 0.00331374 0.00131594 
0.12075353 0.02201493 0.01489574 0.00204226 0.00075002 0.00330593 0.01510098 0.00498198 0.01320657 0.00282581 0.00224292 0.01459088 0.00695616 0.00136822 0.00330533 0.00131267 
0.12210547 0.02195267 0.01486953 0.00202243 0.00073930 0.00338754 0.01512840 0.00502234 0.01359293 0.00286922 0.00224620 0.01460073 0.00702206 0.00135601 0.00329344 0.00130926 
0.12328963 0.02189216 0.01482392 0.00200365 0.00072827 0.00346513 0.01513243 0.00505955 0.01399438 0.00291251 0.00224940 0.01459958 0.00707929 0.00134367 0.00327799 0.00130575 
0.12430252 0.02183245 0.01475893 0.00198591 0.00071699 0.00353835 0.01511289 0.00509344 0.01441011 0.00295547 0.00225249 0.01458679 0.00712738 0.00133120 0.00325889 0.00130214 
0.12514124 0.02177257 0.01467460 0.00196917 0.00070552 0.00360687 0.01506972 0.00512388 0.01483934 0.00299788 0.00225543 0.01456172 0.00716595 0.00131859 0.00323611 0.00129846 
0.12580353 0.02171163 0.01457108 0.00195342 0.00069393 0.00367037 0.01500299 0.00515074 0.01528123 0.00303952 0.00225819 0.01452381 0.00719464 0.00130583 0.00320958 0.00129473 
0.12628774 0.02164875 0.01444858 0.00193861 0.00068228 0.00372855 0.01491287 0.00517389 0.01573496 0.00308021 0.00226074 0.01447251 0.00721314 0.00129292 0.00317930 0.00129097 
0.12659286 0.02158308 0.01430739 0.00192471 0.00067064 0.00378115 0.01479967 0.00519325 0.01619967 0.00311972 0.00226305 0.01440734 0.00722121 0.00127984 0.00314525 0.00128720 
0.12671852 0.02151385 0.01414788 0.00191167 0.00065906 0.00382793 0.01466380 0.00520873 0.01667449 0.00315786 0.00226509 0.01432788 0.00721866 0.00126659 0.00310746 0.00128345 
0.12666495 0.02144031 0.01397049 0.00189945 0.00064762 0.00386868 0.01450579 0.00522028 0.01715854 0.00319445 0.00226682 0.01423375 0.00720536 0.00125315 0.00306593 0.00127974 
0.12643304 0.02136178 0.01377572 0.00188798 0.00063639 0.00390319 0.01432627 0.00522786 0.01765090 0.00322932 0.00226824 0.01412466 0.00718122 0.00123953 0.00302074 0.00127610 
0.12602429 0.02127765 0.01356417 0.00187722 0.00062541 0.00393134 0.01412599 0.00523145 0.01815062 0.00326228 0.00226931 0.01400038 0.00714623 0.00122570 0.00297194 0.00127254 
0.12544078 0.02118736 0.01333647 0.00186710 0.00061476 0.00395297 0.01390579 0.00523104 0.01865674 0.00329319 0.00227002 0.01386073 0.00710045 0.00121167 0.00291962 0.00126909 
0.12468524 0.02109043 0.01309335 0.00185757 0.00060450 0.00396801 0.01366661 0.00522665 0.01916827 0.00332190 0.00227034 0.01370563 0.00704396 0.00119742 0.00286389 0.00126579 
0.12376093 0.02098643 0.01283558 0.00184856 0.00059469 0.00397639 0.01340948 0.00521831 0.01968418 0.00334828 0.00227027 0.01353508 0.00697694 0.00118296 0.00280488 0.00126263 
0.12267171 0.02087501 0.01256402 0.00184000 0.00058538 0.00397807 0.01313551 0.00520609 0.02020341 0.00337220 0.00226979 0.01334914 0.00689961 0.00116827 0.00274273 0.00125966 
0.12142198 0.02075589 0.01227957 0.00183183 0.00057662 0.00397308 0.01284587 0.00519004 0.02072488 0.00339356 0.00226889 0.01314797 0.00681225 0.00115337 0.00267760 0.00125690 
0.12001665 0.02062886 0.01198317 0.00182399 0.00056846 0.00396143 0.01254184 0.00517026 0.02124747 0.00341227 0.00226756 0.01293179 0.00671521 0.00113825 0.00260969 0.00125435 
0.11846114 0.02049378 0.01167584 0.00181641 0.00056096 0.00394321 0.01222472 0.00514685 0.02177003 0.00342825 0.00226581 0.01270094 0.00660888 0.00112291 0.00253919 0.00125204 
0.11676134 0.02035058 0.01135863 0.00180903 0.00055415 0.00391851 0.01189588 0.00511993 0.02229138 0.00344144 0.00226363 0.01245580 0.00649372 0.00110737 0.00246633 0.00125000 
0.11492359 0.02019923 0.01103264 0.00180177 0.00054808 0.00388746 0.01155674 0.00508965 0.02281030 0.00345178 0.00226102 0.01219687 0.00637023 0.00109164 0.00239135 0.00124822 
0.11295464 0.02003980 0.01069899 0.00179459 0.00054278 0.00385023 0.01120875 0.00505614 0.02332555 0.00345926 0.00225799 0.01192472 0.00623895 0.00107573 0.00231449 0.00124674 
0.11086164 0.01987240 0.01035887 0.00178743 0.00053827 0.00380701 0.01085338 0.00501957 0.02383587 0.00346385 0.00225454 0.01163998 0.00610049 0.00105965 0.00223604 0.00124556 
0.10865208 0.01969721 0.01001345 0.00178022 0.00053459 0.00375802 0.01049214 0.00498011 0.02433996 0.00346554 0.00225069 0.01134340 0.00595549 0.00104343 0.00215628 0.00124469 
0.10633375 0.01951443 0.00966396 0.00177291 0.00053176 0.00370352 0.01012654 0.00493795 0.02483650 0.00346436 0.00224644 0.01103578 0.00580463 0.00102710 0.00207552 0.00124414 
0.10391476 0.01932436 0.00931164 0.00176546 0.00052980 0.00364378 0.00975808 0.00489328 0.02532416 0.00346033 0.00224182 0.01071798 0.00564863 0.00101068 0.00199406 0.00124392 
0.10140343 0.01912730 0.00895773 0.00175782 0.00052871 0.00357911 0.00938829 0.00484630 0.02580160 0.00345348 0.00223684 0.01039097 0.00548823 0.00099420 0.00191223 0.00124403 
0.09880831 0.01892362 0.00860350 0.00174995 0.00052850 0.00350982 0.00901864 0.00479721 0.02626747 0.00344388 0.00223151 0.01005575 0.00532421 0.00097770 0.00183038 0.00124447 
0.09613811 0.01871370 0.00825020 0.00174181 0.00052918 0.00343626 0.00865062 0.00474624 0.02672039 0.00343159 0.00222586 0.00971341 0.00515737 0.00096123 0.00174886 0.00124525 
0.09340169 0.01849798 0.00789908 0.00173338 0.00053074 0.00335880 0.00828566 0.00469359 0.02715901 0.00341670 0.00221991 0.00936506 0.00498853 0.00094481 0.00166801 0.00124635 
0.09060798 0.01827688 0.00755140 0.00172461 0.00053317 0.00327782 0.00792517 0.00463948 0.02758198 0.00339929 0.00221367 0.00901190 0.00481852 0.00092849 0.00158820 0.00124778 
0.08776599 0.01805090 0.00720839 0.00171550 0.00053647 0.00319371 0.00757052 0.00458413 0.02798796 0.00337948 0.00220719 0.00865515 0.00464819 0.00091233 0.00150980 0.00124953 
0.08488474 0.01782049 0.00687126 0.00170603 0.00054061 0.00310689 0.00722301 0.00452777 0.02837563 0.00335738 0.00220047 0.00829607 0.00447837 0.00089638 0.00143318 0.00125158 
0.08197323 0.01758616 0.00654121 0.00169619 0.00054557 0.00301778 0.00688391 0.00447060 0.02874370 0.00333311 0.00219355 0.00793597 0.00430991 0.00088067 0.00135872 0.00125393 
0.07904039 0.01734841 0.00621938 0.00168597 0.00055132 0.00292680 0.00655439 0.00441285 0.02909092 0.00330680 0.00218645 0.00757617 0.00414365 0.00086528 0.00128679 0.00125656 
0.07609510 0.01710772 0.00590690 0.00167538 0.00055784 0.00283439 0.00623559 0.00435473 0.02941606 0.00327860 0.00217919 0.00721802 0.00398044 0.00085026 0.00121776 0.00125944 
0.07314607 0.01686458 0.00560486 0.00166442 0.00056509 0.00274098 0.00592856 0.00429643 0.02971796 0.00324867 0.00217181 0.00686286 0.00382107 0.00083566 0.00115200 0.00126256 
0.07020188 0.01661949 0.00531430 0.00165310 0.00057303 0.00264703 0.00563426 0.00423817 0.02999551 0.00321714 0.00216433 0.00651206 0.00366635 0.00082155 0.00108987 0.00126590 
0.06727090 0.01637289 0.00503621 0.00164145 0.00058161 0.00255296 0.00535360 0.00418013 0.03024767 0.00318419 0.00215677 0.00616697 0.00351704 0.00080797 0.00103174 0.00126944 
0.06436128 0.01612525 0.00477152 0.00162949 0.00059080 0.00245921 0.00508738 0.00412250 0.03047346 0.00314997 0.00214916 0.00582894 0.00337390 0.00079500 0.00097795 0.00127313 
0.06148091 0.01587699 0.00452112 0.00161725 0.00060053 0.00236621 0.00483632 0.00406546 0.03067197 0.00311466 0.00214153 0.00549930 0.00323764 0.00078268 0.00092883 0.00127697 
0.05863743 0.01562852 0.00428582 0.00160476 0.00061076 0.00227439 0.00460105 0.00400917 0.03084241 0.00307842 0.00213388 0.00517936 0.00310892 0.00077107 0.00088472 0.00128091 
0.05583813 0.01538021 0.00406638 0.00159206 0.00062143 0.00218415 0.00438212 0.00395379 0.03098403 0.00304143 0.00212626 0.00487037 0.00298837 0.00076024 0.00084592 0.00128492 
0.05309000 0.01513241 0.00386349 0.00157920 0.00063249 0.00209589 0.00417998 0.00389947 0.03109623 0.00300386 0.00211867 0.00457358 0.00287660 0.00075022 0.00081273 0.00128897 
0.05039966 0.01488543 0.00367775 0.00156623 0.00064388 0.00201000 0.00399498 0.00384635 0.03117848 0.00296588 0.00211113 0.00429017 0.00277413 0.00074107 0.00078543 0.00129303 
0.04777336 0.01463956 0.00350972 0.00155320 0.00065553 0.00192684 0.00382740 0.00379455 0.03123037 0.00292765 0.00210367 0.00402127 0.00268145 0.00073284 0.00076426 0.00129705 
0.04521697 0.01439505 0.00335986 0.00154017 0.00066739 0.00184677 0.00367740 0.00374418 0.03125159 0.00288934 0.00209630 0.00376795 0.00259901 0.00072557 0.00074947 0.00130101 
0.04273595 0.01415210 0.00322856 0.00152719 0.00067939 0.00177012 0.00354509 0.00369535 0.03124196 0.00285113 0.00208903 0.00353122 0.00252717 0.00071929 0.00074128 0.00130485 
0.04033533 0.01391091 0.00311613 0.00151434 0.00069147 0.00169720 0.00343044 0.00364815 0.03120141 0.00281315 0.00208187 0.00331203 0.00246625 0.00071406 0.00073985 0.00130855 
0.03801973 0.01367159 0.00302279 0.00150168 0.00070357 0.00162830 0.00333339 0.00360267 0.03113001 0.00277558 0.00207484 0.00311122 0.00241651 0.00070988 0.00074537 0.00131206 
0.03579331 0.01343427 0.00294871 0.00148927 0.00071562 0.00156367 0.00325375 0.00355896 0.03102794 0.00273855 0.00206794 0.00292958 0.00237815 0.00070679 0.00075796 0.00131535 
0.03365982 0.01319902 0.00289394 0.00147719 0.00072756 0.00150355 0.00319129 0.00351710 0.03089549 0.00270220 0.00206118 0.00276780 0.00235129 0.00070481 0.00077774 0.00131838 
0.03162253 0.01296586 0.00285847 0.00146551 0.00073933 0.00144816 0.00314566 0.00347712 0.03073310 0.00266668 0.00205456 0.00262648 0.00233601 0.00070394 0.00080477 0.00132110 
0.02968428 0.01273481 0.00284221 0.00145431 0.00075087 0.00139769 0.00311648 0.00343906 0.03054132 0.00263211 0.00204808 0.00250615 0.00233231 0.00070420 0.00083910 0.00132348 
0.02784746 0.01250585 0.00284498 0.00144365 0.00076212 0.00135227 0.00310328 0.00340296 0.03032084 0.00259860 0.00204175 0.00240721 0.00234012 0.00070559 0.00088076 0.00132549 
0.02611402 0.01227892 0.00286653 0.00143361 0.00077303 0.00131206 0.00310552 0.00336883 0.03007246 0.00256627 0.00203557 0.00232999 0.00235931 0.00070809 0.00092972 0.00132708 
0.02448547 0.01205393 0.00290652 0.00142427 0.00078353 0.00127714 0.00312262 0.00333668 0.02979708 0.00253521 0.00202952 0.00227470 0.00238970 0.00071169 0.00098593 0.00132823 
0.02296288 0.01183080 0.00296454 0.00141569 0.00079359 0.00124758 0.00315394 0.00330652 0.02949573 0.00250551 0.00202361 0.00224146 0.00243104 0.00071637 0.00104931 0.00132889 
0.02154690 0.01160940 0.00304012 0.00140795 0.00080314 0.00122343 0.00319877 0.00327833 0.02916957 0.00247726 0.00201782 0.00223031 0.00248301 0.00072211 0.00111975 0.00132905 
0.02023780 0.01138959 0.00313269 0.00140111 0.00081215 0.00120469 0.00325639 0.00325212 0.02881982 0.00245053 0.00201216 0.00224114 0.00254523 0.00072886 0.00119710 0.00132867 
0.01903540 0.01117122 0.00324163 0.00139525 0.00082057 0.00119136 0.00332602 0.00322785 0.02844783 0.00242537 0.00200660 0.00227380 0.00261729 0.00073659 0.00128118 0.00132772 
0.01793918 0.01095412 0.00336625 0.00139042 0.00082836 0.00118338 0.00340685 0.00320550 0.02805504 0.00240184 0.00200114 0.00232800 0.00269868 0.00074524 0.00137176 0.00132619 
0.01694824 0.01073813 0.00350579 0.00138668 0.00083549 0.00118069 0.00349805 0.00318505 0.02764295 0.00237997 0.00199577 0.00240336 0.00278889 0.00075477 0.00146862 0.00132404 
0.01606131 0.01052306 0.00365945 0.00138411 0.00084191 0.00118318 0.00359876 0.00316646 0.02721316 0.00235979 0.00199047 0.00249944 0.00288733 0.00076511 0.00157146 0.00132127 
0.01527682 0.01030876 0.00382634 0.00138274 0.00084762 0.00119072 0.00370812 0.00314970 0.02676733 0.00234133 0.00198522 0.00261566 0.00299337 0.00077619 0.00167999 0.00131785 
0.01459286 0.01009503 0.00400557 0.00138262 0.00085257 0.00120317 0.00382525 0.00313472 0.02630718 0.00232458 0.00198001 0.00275139 0.00310635 0.00078794 0.00179386 0.00131377 
0.01400725 0.00988174 0.00419615 0.00138381 0.00085675 0.00122035 0.00394926 0.00312148 0.02583448 0.00230955 0.00197482 0.00290590 0.00322555 0.00080028 0.00191271 0.00130903 
0.01351753 0.00966871 0.00439708 0.00138634 0.00086014 0.00124206 0.00407926 0.00310993 0.02535103 0.00229622 0.00196964 0.00307841 0.00335026 0.00081312 0.00203614 0.00130362 
0.01312098 0.00945581 0.00460732 0.00139024 0.00086273 0.00126808 0.00421438 0.00310004 0.02485868 0.00228458 0.00196445 0.00326804 0.00347969 0.00082639 0.00216375 0.00129754 
0.01281468 0.00924293 0.00482578 0.00139555 0.00086452 0.00129818 0.00435376 0.00309175 0.02435929 0.00227458 0.00195923 0.00347384 0.00361307 0.00083999 0.00229508 0.00129079 
0.01259548 0.00902995 0.00505137 0.00140228 0.00086549 0.00133208 0.00449653 0.00308502 0.02385474 0.00226620 0.00195396 0.00369484 0.00374960 0.00085382 0.00242967 0.00128338 
0.01246007 0.00881682 0.00528295 0.00141046 0.00086565 0.00136951 0.00464188 0.00307979 0.02334691 0.00225938 0.00194862 0.00392999 0.00388846 0.00086779 0.00256705 0.00127532 
0.01240496 0.00860348 0.00551938 0.00142009 0.00086501 0.00141018 0.00478899 0.00307602 0.02283765 0.00225407 0.00194319 0.00417817 0.00402881 0.00088181 0.00270672 0.00126662 
0.01242654 0.00838991 0.00575950 0.00143118 0.00086356 0.00145379 0.00493710 0.00307366 0.02232883 0.00225019 0.00193766 0.00443828 0.00416985 0.00089577 0.00284816 0.00125729 
0.01252108 0.00817612 0.00600215 0.00144373 0.00086133 0.00150002 0.00508545 0.00307267 0.02182227 0.00224769 0.00193201 0.00470914 0.00431074 0.00090957 0.00299084 0.00124737 
0.01268478 0.00796217 0.00624617 0.00145774 0.00085832 0.00154853 0.00523335 0.00307298 0.02131976 0.00224648 0.00192622 0.00498955 0.00445067 0.00092313 0.00313423 0.00123687 
0.01291374 0.00774815 0.00649039 0.00147317 0.00085456 0.00159900 0.00538012 0.00307457 0.02082305 0.00224648 0.00192028 0.00527833 0.00458883 0.00093633 0.00327780 0.00122582 
0.01320403 0.00753418 0.00673368 0.00149002 0.00085007 0.00165108 0.00552515 0.00307737 0.02033383 0.00224760 0.00191416 0.00557425 0.00472444 0.00094910 0.00342099 0.00121426 
0.01355170 0.00732042 0.00697489 0.00150826 0.00084487 0.00170442 0.00566785 0.00308135 0.01985373 0.00224974 0.00190786 0.00587611 0.00485675 0.00096133 0.00356325 0.00120222 
0.01395277 0.00710709 0.00721292 0.00152784 0.00083900 0.00175867 0.00580771 0.00308646 0.01938432 0.00225282 0.00190137 0.00618268 0.00498500 0.00097294 0.00370404 0.00118974 
0.01440331 0.00689444 0.00744667 0.00154874 0.00083248 0.00181349 0.00594423 0.00309264 0.01892709 0.00225672 0.00189466 0.00649279 0.00510852 0.00098384 0.00384282 0.00117687 
0.01489938 0.00668276 0.00767509 0.00157090 0.00082534 0.00186852 0.00607700 0.00309987 0.01848343 0.00226134 0.00188773 0.00680526 0.00522663 0.00099397 0.00397906 0.00116364 
0.01543712 0.00647239 0.00789716 0.00159426 0.00081764 0.00192342 0.00620563 0.00310807 0.01805468 0.00226658 0.00188058 0.00711894 0.00533871 0.00100325 0.00411223 0.00115012 
0.01601272 0.00626372 0.00811189 0.00161878 0.00080939 0.00197785 0.00632980 0.00311722 0.01764205 0.00227234 0.00187319 0.00743274 0.00544419 0.00101161 0.00424182 0.00113634 
0.01662244 0.00605719 0.00831837 0.00164438 0.00080065 0.00203147 0.00644926 0.00312726 0.01724668 0.00227849 0.00186556 0.00774559 0.00554254 0.00101899 0.00436734 0.00112236 
0.01726266 0.00585325 0.00851569 0.00167099 0.00079146 0.00208396 0.00656378 0.00313813 0.01686960 0.00228494 0.00185769 0.00805649 0.00563329 0.00102536 0.00448832 0.00110825 
0.01792984 0.00565243 0.00870302 0.00169853 0.00078185 0.00213501 0.00667321 0.00314979 0.01651172 0.00229158 0.00184957 0.00836446 0.00571603 0.00103066 0.00460430 0.00109405 
0.01862057 0.00545528 0.00887960 0.00172693 0.00077188 0.00218430 0.00677744 0.00316218 0.01617387 0.00229830 0.00184121 0.00866863 0.00579039 0.00103486 0.00471486 0.00107983 
0.01933157 0.00526241 0.00904470 0.00175609 0.00076159 0.00223155 0.00687643 0.00317525 0.01585675 0.00230500 0.00183261 0.00896816 0.00585608 0.00103795 0.00481958 0.00106564 
0.02005970 0.00507446 0.00919768 0.00178592 0.00075103 0.00227648 0.00697018 0.00318892 0.01556095 0.00231157 0.00182377 0.00926231 0.00591286 0.00103991 0.00491811 0.00105155 
0.02080195 0.00489210 0.00933795 0.00181633 0.00074023 0.00231884 0.00705874 0.00320314 0.01528697 0.00231792 0.00181472 0.00955038 0.00596058 0.00104074 0.00501010 0.00103762 
0.02155548 0.00471605 0.00946499 0.00184722 0.00072926 0.00235838 0.00714221 0.00321783 0.01503517 0.00232396 0.00180544 0.00983179 0.00599913 0.00104045 0.00509524 0.00102392 
0.02231760 0.00454704 0.00957838 0.00187848 0.00071815 0.00239488 0.00722076 0.00323292 0.01480582 0.00232959 0.00179597 0.01010601 0.00602848 0.00103905 0.00517327 0.00101050 
0.02308578 0.00438585 0.00967773 0.00191002 0.00070696 0.00242813 0.00729456 0.00324835 0.01459907 0.00233474 0.00178632 0.01037262 0.00604866 0.00103657 0.00524393 0.00099744 
0.02385766 0.00423329 0.00976277 0.00194171 0.00069573 0.00245794 0.00736387 0.00326401 0.01441498 0.00233931 0.00177650 0.01063127 0.00605977 0.00103305 0.00530705 0.00098478 
0.02463106 0.00409019 0.00983326 0.00197345 0.00068450 0.00248417 0.00742897 0.00327982 0.01425348 0.00234324 0.00176655 0.01088171 0.00606199 0.00102855 0.00536246 0.00097259 
0.02540394 0.00395738 0.00988907 0.00200513 0.00067332 0.00250665 0.00749017 0.00329569 0.01411441 0.00234647 0.00175647 0.01112376 0.00605555 0.00102311 0.00541005 0.00096094 
0.02617445 0.00383573 0.00993015 0.00203662 0.00066223 0.00252529 0.00754783 0.00331153 0.01399751 0.00234892 0.00174631 0.01135735 0.00604075 0.00101682 0.00544974 0.00094988 
0.02694092 0.00372613 0.00995651 0.00206783 0.00065128 0.00253997 0.00760233 0.00332722 0.01390243 0.00235056 0.00173610 0.01158248 0.00601795 0.00100974 0.00548149 0.00093946 
0.02770181 0.00362945 0.00996825 0.00209863 0.00064050 0.00255063 0.00765408 0.00334265 0.01382873 0.00235133 0.00172586 0.01179926 0.00598757 0.00100197 0.00550532 0.00092974 
0.02845578 0.00354660 0.00996553 0.00212891 0.00062993 0.00255722 0.00770353 0.00335771 0.01377587 0.00235120 0.00171564 0.01200784 0.00595011 0.00099361 0.00552127 0.00092077 
0.02920162 0.00347846 0.00994861 0.00215856 0.00061961 0.00255971 0.00775114 0.00337229 0.01374325 0.00235014 0.00170547 0.01220850 0.00590609 0.00098475 0.00552943 0.00091260 
0.02993831 0.00342593 0.00991780 0.00218746 0.00060958 0.00255809 0.00779738 0.00338625 0.01373017 0.00234813 0.00169539 0.01240156 0.00585610 0.00097550 0.00552994 0.00090527 
0.03066495 0.00338989 0.00987351 0.00221551 0.00059987 0.00255240 0.00784275 0.00339947 0.01373588 0.00234515 0.00168546 0.01258743 0.00580078 0.00096600 0.00552297 0.00089883 
0.03138081 0.00337122 0.00981619 0.00224260 0.00059051 0.00254267 0.00788774 0.00341181 0.01375957 0.00234122 0.00167572 0.01276659 0.00574080 0.00095634 0.00550873 0.00089331 
0.03208527 0.00337077 0.00974638 0.00226862 0.00058153 0.00252896 0.00793288 0.00342313 0.01380034 0.00233633 0.00166621 0.01293956 0.00567690 0.00094668 0.00548747 0.00088874 
0.03277787 0.00338939 0.00966467 0.00229347 0.00057296 0.00251137 0.00797866 0.00343331 0.01385727 0.00233049 0.00165700 0.01310694 0.00560981 0.00093712 0.00545947 0.00088516 
0.03345825 0.00342788 0.00957172 0.00231706 0.00056482 0.00249001 0.00802559 0.00344219 0.01392938 0.00232375 0.00164813 0.01326937 0.00554033 0.00092782 0.00542504 0.00088258 
0.03412619 0.00348703 0.00946824 0.00233930 0.00055713 0.00246499 0.00807420 0.00344963 0.01401565 0.00231611 0.00163966 0.01342754 0.00546925 0.00091890 0.00538455 0.00088103 
0.03478156 0.00356760 0.00935499 0.00236010 0.00054991 0.00243648 0.00812496 0.00345549 0.01411504 0.00230764 0.00163165 0.01358217 0.00539741 0.00091050 0.00533836 0.00088053 
0.03542435 0.00367029 0.00923280 0.00237937 0.00054318 0.00240463 0.00817836 0.00345964 0.01422645 0.00229838 0.00162416 0.01373399 0.00532565 0.00090276 0.00528689 0.00088108 
0.03605461 0.00379578 0.00910252 0.00239704 0.00053696 0.00236963 0.00823487 0.00346193 0.01434881 0.00228838 0.00161725 0.01388379 0.00525480 0.00089580 0.00523056 0.00088269 
0.03667249 0.00394469 0.00896505 0.00241305 0.00053125 0.00233169 0.00829495 0.00346222 0.01448099 0.00227772 0.00161098 0.01403234 0.00518573 0.00088977 0.00516982 0.00088536 
0.03727822 0.00411761 0.00882132 0.00242732 0.00052607 0.00229101 0.00835900 0.00346038 0.01462187 0.00226647 0.00160540 0.01418042 0.00511927 0.00088478 0.00510516 0.00088909 
0.03787208 0.00431505 0.00867228 0.00243982 0.00052142 0.00224782 0.00842743 0.00345630 0.01477033 0.00225471 0.00160060 0.01432883 0.00505625 0.00088096 0.00503705 0.00089385 
0.03845441 0.00453748 0.00851893 0.00245047 0.00051732 0.00220238 0.00850062 0.00344984 0.01492525 0.00224254 0.00159662 0.01447831 0.00499751 0.00087843 0.00496600 0.00089965 
0.03902559 0.00478530 0.00836226 0.00245926 0.00051375 0.00215492 0.00857889 0.00344089 0.01508552 0.00223004 0.00159353 0.01462963 0.00494383 0.00087730 0.00489250 0.00090645 
0.03958603 0.00505886 0.00820329 0.00246614 0.00051073 0.00210572 0.00866254 0.00342937 0.01525004 0.00221731 0.00159139 0.01478350 0.00489598 0.00087766 0.00481708 0.00091424 
0.04013618 0.00535842 0.00804303 0.00247110 0.00050826 0.00205503 0.00875185 0.00341517 0.01541775 0.00220447 0.00159027 0.01494060 0.00485471 0.00087961 0.00474026 0.00092298 
0.04067649 0.00568420 0.00788251 0.00247411 0.00050632 0.00200315 0.00884704 0.00339821 0.01558758 0.00219162 0.00159021 0.01510158 0.00482072 0.00088323 0.00466254 0.00093264 
0.04120742 0.00603632 0.00772273 0.00247517 0.00050491 0.00195034 0.00894828 0.00337844 0.01575853 0.00217888 0.00159128 0.01526701 0.00479467 0.00088860 0.00458443 0.00094317 
0.04172944 0.00641484 0.00756469 0.00247428 0.00050404 0.00189689 0.00905571 0.00335581 0.01592961 0.00216636 0.00159353 0.01543742 0.00477716 0.00089578 0.00450645 0.00095455 
0.04224300 0.00681974 0.00740938 0.00247146 0.00050367 0.00184309 0.00916944 0.00333028 0.01609987 0.00215419 0.00159702 0.01561328 0.00476875 0.00090482 0.00442908 0.00096671 
0.04274852 0.00725090 0.00725776 0.00246672 0.00050382 0.00178922 0.00928950 0.00330185 0.01626842 0.00214248 0.00160178 0.01579499 0.00476996 0.00091574 0.00435281 0.00097960 
0.04324641 0.00770817 0.00711076 0.00246008 0.00050446 0.00173557 0.00941590 0.00327051 0.01643440 0.00213136 0.00160788 0.01598285 0.00478121 0.00092859 0.00427809 0.00099318 
0.04373703 0.00819126 0.00696927 0.00245160 0.00050558 0.00168242 0.00954858 0.00323629 0.01659701 0.00212094 0.00161534 0.01617711 0.00480289 0.00094336 0.00420537 0.00100737 
0.04422072 0.00869983 0.00683415 0.00244130 0.00050716 0.00163003 0.00968745 0.00319925 0.01675551 0.00211136 0.00162421 0.01637792 0.00483532 0.00096006 0.00413506 0.00102213 
0.04469775 0.00923345 0.00670621 0.00242925 0.00050919 0.00157869 0.00983236 0.00315944 0.01690919 0.00210273 0.00163452 0.01658535 0.00487873 0.00097867 0.00406756 0.00103738 
0.04516834 0.00979161 0.00658620 0.00241550 0.00051164 0.00152864 0.00998311 0.00311698 0.01705743 0.00209515 0.00164629 0.01679937 0.00493329 0.00099916 0.00400324 0.00105307 
0.04563264 0.01037371 0.00647485 0.00240012 0.00051451 0.00148016 0.01013947 0.00307197 0.01719966 0.00208876 0.00165954 0.01701987 0.00499911 0.00102148 0.00394243 0.00106911 
0.04609074 0.01097905 0.00637278 0.00238320 0.00051777 0.00143347 0.01030114 0.00302457 0.01733537 0.00208364 0.00167430 0.01724664 0.00507621 0.00104557 0.00388544 0.00108545 
0.04654267 0.01160689 0.00628059 0.00236481 0.00052140 0.00138880 0.01046778 0.00297493 0.01746412 0.00207992 0.00169056 0.01747938 0.00516454 0.00107137 0.00383253 0.00110201 
0.04698836 0.01225635 0.00619880 0.00234504 0.00052537 0.00134639 0.01063901 0.00292326 0.01758553 0.00207767 0.00170834 0.01771771 0.00526396 0.00109879 0.00378396 0.00111872 
0.04742768 0.01292653 0.00612785 0.00232399 0.00052966 0.00130642 0.01081440 0.00286979 0.01769929 0.00207699 0.00172762 0.01796115 0.00537427 0.00112774 0.00373991 0.00113551 
0.04786041 0.01361640 0.00606812 0.00230176 0.00053426 0.00126909 0.01099348 0.00281476 0.01780516 0.00207796 0.00174840 0.01820913 0.00549521 0.00115810 0.00370056 0.00115231 
0.04828622 0.01432487 0.00601991 0.00227846 0.00053914 0.00123457 0.01117575 0.00275845 0.01790297 0.00208066 0.00177065 0.01846101 0.00562641 0.00118976 0.00366602 0.00116904 
0.04870474 0.01505079 0.00598345 0.00225420 0.00054427 0.00120301 0.01136067 0.00270116 0.01799260 0.00208513 0.00179434 0.01871607 0.00576745 0.00122258 0.00363638 0.00118563 
0.04911547 0.01579291 0.00595888 0.00222909 0.00054962 0.00117456 0.01154764 0.00264323 0.01807402 0.00209144 0.00181945 0.01897350 0.00591784 0.00125643 0.00361171 0.00120203 
0.04951784 0.01654994 0.00594628 0.00220326 0.00055519 0.00114934 0.01173606 0.00258501 0.01814725 0.00209963 0.00184592 0.01923245 0.00607703 0.00129117 0.00359200 0.00121815 
0.04991120 0.01732050 0.00594563 0.00217682 0.00056093 0.00112745 0.01192530 0.00252688 0.01821237 0.00210972 0.00187371 0.01949200 0.00624437 0.00132663 0.00357723 0.00123393 
0.05029478 0.01810315 0.00595685 0.00214991 0.00056684 0.00110897 0.01211467 0.00246924 0.01826955 0.00212173 0.00190276 0.01975116 0.00641920 0.00136266 0.00356734 0.00124932 
0.05066776 0.01889639 0.00597977 0.00212265 0.00057287 0.00109396 0.01230351 0.00241253 0.01831900 0.00213567 0.00193300 0.02000892 0.00660076 0.00139908 0.00356223 0.00126425 
0.05102922 0.01969870 0.00601413 0.00209516 0.00057902 0.00108248 0.01249109 0.00235719 0.01836098 0.00215153 0.00196435 0.02026422 0.00678827 0.00143574 0.00356177 0.00127866 
0.05137817 0.02050845 0.00605963 0.00206758 0.00058525 0.00107456 0.01267671 0.00230369 0.01839583 0.00216929 0.00199673 0.02051598 0.00698089 0.00147245 0.00356580 0.00129250 
0.05171353 0.02132401 0.00611586 0.00204002 0.00059154 0.00107019 0.01285962 0.00225251 0.01842394 0.00218891 0.00203005 0.02076310 0.00717772 0.00150904 0.00357410 0.00130572 
0.05203417 0.02214370 0.00618235 0.00201263 0.00059788 0.00106936 0.01303910 0.00220417 0.01844573 0.00221035 0.00206420 0.02100447 0.00737786 0.00154535 0.00358647 0.00131827 
0.05233887 0.02296579 0.00625857 0.00198551 0.00060423 0.00107206 0.01321440 0.00215918 0.01846169 0.00223354 0.00209909 0.02123899 0.00758035 0.00158119 0.00360264 0.00133011 
0.05262638 0.02378853 0.00634392 0.00195880 0.00061059 0.00107822 0.01338478 0.00211807 0.01847235 0.00225841 0.00213461 0.02146556 0.00778420 0.00161640 0.00362233 0.00134121 
0.05289538 0.02461017 0.00643773 0.00193262 0.00061691 0.00108779 0.01354951 0.00208138 0.01847827 0.00228487 0.00217062 0.02168311 0.00798844 0.00165082 0.00364524 0.00135153 
0.05314452 0.02542890 0.00653929 0.00190707 0.00062320 0.00110069 0.01370787 0.00204965 0.01848006 0.00231283 0.00220700 0.02189060 0.00819203 0.00168428 0.00367105 0.00136103 
0.05337240 0.02624293 0.00664781 0.00188228 0.00062942 0.00111681 0.01385914 0.00202343 0.01847835 0.00234216 0.00224363 0.02208704 0.00839397 0.00171663 0.00369942 0.00136970 
0.05357761 0.02705045 0.00676248 0.00185835 0.00063557 0.00113604 0.01400263 0.00200328 0.01847382 0.00237274 0.00228036 0.02227148 0.00859324 0.00174773 0.00372999 0.00137752 
0.05375872 0.02784967 0.00688243 0.00183538 0.00064162 0.00115825 0.01413768 0.00198975 0.01846714 0.00240443 0.00231706 0.02244304 0.00878881 0.00177744 0.00376240 0.00138447 
0.05391428 0.02863879 0.00700677 0.00181348 0.00064755 0.00118331 0.01426362 0.00198337 0.01845902 0.00243709 0.00235358 0.02260091 0.00897970 0.00180564 0.00379627 0.00139054 
0.05404287 0.02941602 0.00713456 0.00179271 0.00065336 0.00121105 0.01437985 0.00198469 0.01845019 0.00247056 0.00238976 0.02274436 0.00916491 0.00183220 0.00383122 0.00139573 
0.05414306 0.03017962 0.00726484 0.00177319 0.00065903 0.00124132 0.01448579 0.00199424 0.01844138 0.00250466 0.00242547 0.02287273 0.00934348 0.00185704 0.00386688 0.00140003 
0.05421346 0.03092786 0.00739664 0.00175497 0.00066454 0.00127394 0.01458087 0.00201251 0.01843332 0.00253922 0.00246053 0.02298549 0.00951448 0.00188006 0.00390284 0.00140346 
0.05425272 0.03165905 0.00752897 0.00173812 0.00066989 0.00130873 0.01466459 0.00204001 0.01842674 0.00257405 0.00249481 0.02308217 0.00967703 0.00190119 0.00393875 0.00140601 
0.05425954 0.03237153 0.00766083 0.00172272 0.00067505 0.00134548 0.01473649 0.00207721 0.01842238 0.00260897 0.00252814 0.02316243 0.00983026 0.00192036 0.00397421 0.00140771 
0.05423267 0.03306371 0.00779124 0.00170881 0.00068004 0.00138401 0.01479613 0.00212455 0.01842096 0.00264378 0.00256036 0.02322604 0.00997337 0.00193754 0.00400887 0.00140856 
0.05417094 0.03373405 0.00791920 0.00169643 0.00068482 0.00142412 0.01484314 0.00218245 0.01842316 0.00267826 0.00259133 0.02327287 0.01010560 0.00195269 0.00404238 0.00140860 
0.05407327 0.03438106 0.00804375 0.00168563 0.00068941 0.00146558 0.01487719 0.00225129 0.01842969 0.00271223 0.00262090 0.02330294 0.01022626 0.00196579 0.00407439 0.00140785 
0.05393868 0.03500332 0.00816394 0.00167643 0.00069378 0.00150821 0.01489800 0.00233143 0.01844118 0.00274547 0.00264890 0.02331635 0.01033470 0.00197686 0.00410458 0.00140634 
0.05376629 0.03559951 0.00827884 0.00166884 0.00069795 0.00155177 0.01490534 0.00242318 0.01845827 0.00277777 0.00267520 0.02331334 0.01043036 0.00198591 0.00413266 0.00140410 
0.05355535 0.03616836 0.00838756 0.00166288 0.00070189 0.00159607 0.01489904 0.00252682 0.01848155 0.00280893 0.00269966 0.02329428 0.01051274 0.00199297 0.00415833 0.00140116 
0.05330523 0.03670870 0.00848925 0.00165856 0.00070561 0.00164089 0.01487898 0.00264256 0.01851157 0.00283874 0.00272213 0.02325964 0.01058139 0.00199810 0.00418134 0.00139758 
0.05301544 0.03721944 0.00858310 0.00165585 0.00070912 0.00168603 0.01484510 0.00277061 0.01854883 0.00286701 0.00274250 0.02321001 0.01063597 0.00200136 0.00420146 0.00139338 
0.05268567 0.03769960 0.00866837 0.00165475 0.00071239 0.00173128 0.01479739 0.00291108 0.01859380 0.00289353 0.00276063 0.02314611 0.01067618 0.00200283 0.00421847 0.00138862 
0.05231574 0.03814829 0.00874436 0.00165523 0.00071545 0.00177644 0.01473588 0.00306406 0.01864688 0.00291812 0.00277641 0.02306875 0.01070183 0.00200261 0.00423221 0.00138335 
0.05190565 0.03856472 0.00881042 0.00165726 0.00071828 0.00182132 0.01466068 0.00322958 0.01870843 0.00294060 0.00278973 0.02297885 0.01071278 0.00200081 0.00424251 0.00137760 
0.05145558 0.03894823 0.00886600 0.00166080 0.00072089 0.00186574 0.01457194 0.00340761 0.01877874 0.00296078 0.00280050 0.02287743 0.01070900 0.00199755 0.00424926 0.00137143 
0.05096591 0.03929823 0.00891060 0.00166580 0.00072329 0.00190951 0.01446987 0.00359808 0.01885804 0.00297851 0.00280862 0.02276561 0.01069052 0.00199297 0.00425236 0.00136490 
0.05043719 0.03961430 0.00894380 0.00167220 0.00072547 0.00195248 0.01435471 0.00380083 0.01894651 0.00299363 0.00281402 0.02264457 0.01065746 0.00198721 0.00425176 0.00135805 
0.04987018 0.03989607 0.00896524 0.00167994 0.00072744 0.00199447 0.01422678 0.00401568 0.01904425 0.00300600 0.00281663 0.02251559 0.01061000 0.00198043 0.00424743 0.00135093 
0.04926585 0.04014335 0.00897467 0.00168895 0.00072920 0.00203534 0.01408642 0.00424237 0.01915130 0.00301550 0.00281640 0.02238000 0.01054842 0.00197280 0.00423937 0.00134361 
0.04862534 0.04035602 0.00897191 0.00169917 0.00073077 0.00207496 0.01393403 0.00448057 0.01926763 0.00302201 0.00281327 0.02223918 0.01047307 0.00196449 0.00422762 0.00133613 
0.04795005 0.04053410 0.00895687 0.00171050 0.00073214 0.00211319 0.01377005 0.00472992 0.01939313 0.00302544 0.00280723 0.02209456 0.01038437 0.00195567 0.00421223 0.00132855 
0.04724156 0.04067774 0.00892955 0.00172286 0.00073333 0.00214993 0.01359495 0.00498997 0.01952765 0.00302571 0.00279824 0.02194763 0.01028281 0.00194654 0.00419330 0.00132091 
0.04650165 0.04078717 0.00889001 0.00173617 0.00073433 0.00218506 0.01340925 0.00526024 0.01967095 0.00302276 0.00278630 0.02179986 0.01016896 0.00193727 0.00417095 0.00131328 
0.04573234 0.04086279 0.00883844 0.00175032 0.00073517 0.00221851 0.01321349 0.00554017 0.01982271 0.00301653 0.00277143 0.02165275 0.01004344 0.00192807 0.00414533 0.00130569 
0.04493582 0.04090507 0.00877510 0.00176524 0.00073583 0.00225020 0.01300825 0.00582916 0.01998258 0.00300700 0.00275364 0.02150781 0.00990693 0.00191912 0.00411661 0.00129820 
0.04411453 0.04091461 0.00870032 0.00178080 0.00073635 0.00228007 0.01279414 0.00612655 0.02015010 0.00299416 0.00273296 0.02136653 0.00976019 0.00191062 0.00408499 0.00129086 
0.04327106 0.04089214 0.00861455 0.00179692 0.00073671 0.00230807 0.01257178 0.00643164 0.02032479 0.00297803 0.00270944 0.02123038 0.00960400 0.00190274 0.00405070 0.00128371 
0.04240821 0.04083846 0.00851830 0.00181350 0.00073693 0.00233416 0.01234182 0.00674366 0.02050607 0.00295862 0.00268314 0.02110078 0.00943922 0.00189568 0.00401397 0.00127679 
0.04152899 0.04075452 0.00841216 0.00183043 0.00073702 0.00235832 0.01210492 0.00706183 0.02069334 0.00293601 0.00265414 0.02097912 0.00926672 0.00188961 0.00397507 0.00127014 
0.04063656 0.04064132 0.00829682 0.00184761 0.00073699 0.00238055 0.01186177 0.00738528 0.02088591 0.00291024 0.00262251 0.02086674 0.00908743 0.00188470 0.00393428 0.00126380 
0.03973424 0.04049999 0.00817303 0.00186495 0.00073684 0.00240084 0.01161303 0.00771315 0.02108308 0.00288140 0.00258837 0.02076490 0.00890230 0.00188113 0.00389188 0.00125781 
0.03882555 0.04033175 0.00804160 0.00188233 0.00073659 0.00241922 0.01135942 0.00804452 0.02128407 0.00284961 0.00255182 0.02067479 0.00871232 0.00187903 0.00384820 0.00125220 
0.03791410 0.04013790 0.00790343 0.00189967 0.00073623 0.00243572 0.01110161 0.00837845 0.02148809 0.00281499 0.00251298 0.02059750 0.00851848 0.00187856 0.00380353 0.00124699 
0.03700368 0.03991980 0.00775947 0.00191688 0.00073578 0.00245037 0.01084030 0.00871396 0.02169428 0.00277768 0.00247200 0.02053406 0.00832180 0.00187985 0.00375821 0.00124222 
0.03609819 0.03967892 0.00761072 0.00193385 0.00073525 0.00246322 0.01057619 0.00905006 0.02190179 0.00273784 0.00242901 0.02048537 0.00812330 0.00188301 0.00371256 0.00123791 
0.03520161 0.03941677 0.00745824 0.00195051 0.00073465 0.00247434 0.01030995 0.00938576 0.02210973 0.00269564 0.00238416 0.02045222 0.00792401 0.00188815 0.00366692 0.00123408 
0.03431804 0.03913493 0.00730312 0.00196677 0.00073397 0.00248380 0.01004225 0.00972003 0.02231717 0.00265128 0.00233764 0.02043529 0.00772496 0.00189536 0.00362161 0.00123074 
0.03345165 0.03883504 0.00714651 0.00198256 0.00073324 0.00249168 0.00977376 0.01005185 0.02252322 0.00260496 0.00228961 0.02043516 0.00752715 0.00190471 0.00357698 0.00122791 
0.03260665 0.03851877 0.00698957 0.00199781 0.00073245 0.00249806 0.00950512 0.01038021 0.02272696 0.00255691 0.00224025 0.02045226 0.00733159 0.00191626 0.00353334 0.00122560 
0.03178732 0.03818786 0.00683348 0.00201244 0.00073161 0.00250305 0.00923696 0.01070409 0.02292745 0.00250735 0.00218976 0.02048689 0.00713926 0.00193003 0.00349101 0.00122382 
0.03099794 0.03784406 0.00667947 0.00202641 0.00073073 0.00250674 0.00896989 0.01102249 0.02312381 0.00245654 0.00213833 0.02053923 0.00695112 0.00194607 0.00345032 0.00122257 
0.03024279 0.03748915 0.00652873 0.00203966 0.00072981 0.00250925 0.00870450 0.01133441 0.02331515 0.00240471 0.00208616 0.02060933 0.00676808 0.00196435 0.00341155 0.00122186 
0.02952617 0.03712493 0.00638248 0.00205214 0.00072886 0.00251068 0.00844137 0.01163890 0.02350059 0.00235214 0.00203346 0.02069711 0.00659105 0.00198488 0.00337499 0.00122168 
0.02885231 0.03675321 0.00624194 0.00206381 0.00072789 0.00251116 0.00818103 0.01193501 0.02367932 0.00229909 0.00198045 0.02080233 0.00642087 0.00200761 0.00334092 0.00122202 
0.02822540 0.03637581 0.00610828 0.00207465 0.00072689 0.00251080 0.00792402 0.01222184 0.02385055 0.00224585 0.00192734 0.02092466 0.00625834 0.00203248 0.00330960 0.00122289 
0.02764958 0.03599454 0.00598269 0.00208463 0.00072588 0.00250972 0.00767084 0.01249852 0.02401351 0.00219268 0.00187434 0.02106359 0.00610423 0.00205943 0.00328126 0.00122427 
0.02712887 0.03561120 0.00586631 0.00209374 0.00072485 0.00250806 0.00742196 0.01276423 0.02416753 0.00213987 0.00182167 0.02121853 0.00595924 0.00208836 0.00325612 0.00122614 
0.02666719 0.03522757 0.00576022 0.00210196 0.00072382 0.00250593 0.00717785 0.01301818 0.02431196 0.00208770 0.00176955 0.02138875 0.00582402 0.00211917 0.00323438 0.00122850 
0.02626834 0.03484543 0.00566550 0.00210930 0.00072278 0.00250346 0.00693893 0.01325965 0.02444624 0.00203645 0.00171819 0.02157340 0.00569916 0.00215172 0.00321622 0.00123133 
0.02593596 0.03446649 0.00558315 0.00211576 0.00072174 0.00250078 0.00670562 0.01348795 0.02456984 0.00198641 0.00166782 0.02177151 0.00558520 0.00218586 0.00320178 0.00123460 
0.02567354 0.03409246 0.00551412 0.00212135 0.00072070 0.00249800 0.00647831 0.01370248 0.02468235 0.00193785 0.00161864 0.02198203 0.00548261 0.00222145 0.00319121 0.00123830 
0.02548437 0.03372497 0.00545928 0.00212609 0.00071967 0.00249524 0.00625736 0.01390268 0.02478341 0.00189104 0.00157087 0.02220378 0.00539178 0.00225829 0.00318459 0.00124240 
0.02537156 0.03336564 0.00541944 0.00213002 0.00071864 0.00249263 0.00604312 0.01408806 0.02487274 0.00184625 0.00152470 0.02243552 0.00531305 0.00229621 0.00318203 0.00124688 
0.02533796 0.03301600 0.00539535 0.00213315 0.00071763 0.00249027 0.00583594 0.01425820 0.02495016 0.00180372 0.00148034 0.02267590 0.00524670 0.00233499 0.00318356 0.00125172 
0.02538624 0.03267754 0.00538764 0.00213554 0.00071663 0.00248827 0.00563613 0.01441274 0.02501558 0.00176371 0.00143797 0.02292352 0.00519292 0.00237442 0.00318922 0.00125687 
0.02551879 0.03235168 0.00539689 0.00213722 0.00071565 0.00248673 0.00544399 0.01455140 0.02506897 0.00172646 0.00139778 0.02317689 0.00515184 0.00241426 0.00319901 0.00126233 
0.02573772 0.03203977 0.00542356 0.00213824 0.00071468 0.00248575 0.00525981 0.01467396 0.02511043 0.00169218 0.00135996 0.02343448 0.00512354 0.00245430 0.00321293 0.00126805 
0.02604489 0.03174307 0.00546803 0.00213866 0.00071374 0.00248542 0.00508388 0.01478030 0.02514012 0.00166108 0.00132466 0.02369473 0.00510800 0.00249427 0.00323092 0.00127401 
0.02644186 0.03146280 0.00553057 0.00213852 0.00071282 0.00248583 0.00491647 0.01487034 0.02515831 0.00163337 0.00129206 0.02395600 0.00510516 0.00253392 0.00325292 0.00128018 
0.02692988 0.03120004 0.00561137 0.00213790 0.00071193 0.00248705 0.00475785 0.01494409 0.02516537 0.00160921 0.00126229 0.02421668 0.00511488 0.00257301 0.00327884 0.00128653 
0.02750988 0.03095583 0.00571050 0.00213685 0.00071107 0.00248915 0.00460828 0.01500162 0.02516172 0.00158877 0.00123549 0.02447509 0.00513696 0.00261126 0.00330858 0.00129302 
0.02818249 0.03073111 0.00582792 0.00213544 0.00071025 0.00249220 0.00446801 0.01504308 0.02514792 0.00157219 0.00121180 0.02472960 0.00517114 0.00264842 0.00334200 0.00129963 
0.02894797 0.03052671 0.00596350 0.00213373 0.00070946 0.00249625 0.00433731 0.01506869 0.02512458 0.00155960 0.00119132 0.02497853 0.00521710 0.00268422 0.00337896 0.00130633 
0.02980627 0.03034337 0.00611700 0.00213179 0.00070870 0.00250135 0.00421644 0.01507873 0.02509240 0.00155110 0.00117417 0.02522025 0.00527445 0.00271840 0.00341928 0.00131309 
0.03075697 0.03018174 0.00628806 0.00212969 0.00070799 0.00250753 0.00410565 0.01507355 0.02505217 0.00154678 0.00116043 0.02545316 0.00534277 0.00275071 0.00346279 0.00131987 
0.03179932 0.03004238 0.00647625 0.00212749 0.00070733 0.00251484 0.00400522 0.01505354 0.02500472 0.00154670 0.00115018 0.02567567 0.00542157 0.00278089 0.00350930 0.00132665 
0.03293218 0.02992572 0.00668100 0.00212526 0.00070671 0.00252330 0.00391542 0.01501919 0.02495098 0.00155091 0.00114349 0.02588625 0.00551031 0.00280871 0.00355858 0.00133341 
0.03415409 0.02983210 0.00690166 0.00212306 0.00070615 0.00253291 0.00383651 0.01497100 0.02489194 0.00155943 0.00114040 0.02608343 0.00560844 0.00283391 0.00361043 0.00134011 
0.03546320 0.02976178 0.00713750 0.00212096 0.00070564 0.00254370 0.00376878 0.01490954 0.02482862 0.00157226 0.00114096 0.02626578 0.00571532 0.00285627 0.00366461 0.00134673 
0.03685731 0.02971487 0.00738767 0.00211900 0.00070520 0.00255565 0.00371252 0.01483543 0.02476211 0.00158938 0.00114518 0.02643197 0.00583031 0.00287559 0.00372089 0.00135324 
0.03833386 0.02969141 0.00765124 0.00211725 0.00070481 0.00256877 0.00366804 0.01474933 0.02469354 0.00161076 0.00115308 0.02658072 0.00595272 0.00289166 0.00377903 0.00135963 
0.03988993 0.02969133 0.00792721 0.00211576 0.00070450 0.00258304 0.00363562 0.01465192 0.02462405 0.00163633 0.00116466 0.02671086 0.00608184 0.00290428 0.00383878 0.00136586 
0.04152227 0.02971444 0.00821449 0.00211457 0.00070425 0.00259844 0.00361558 0.01454394 0.02455484 0.00166601 0.00117989 0.02682131 0.00621693 0.00291331 0.00389989 0.00137192 
0.04322725 0.02976047 0.00851193 0.00211373 0.00070408 0.00261495 0.00360823 0.01442614 0.02448709 0.00169970 0.00119875 0.02691107 0.00635724 0.00291857 0.00396212 0.00137780 
0.04500093 0.02982903 0.00881829 0.00211327 0.00070399 0.00263252 0.00361391 0.01429928 0.02442201 0.00173728 0.00122118 0.02697926 0.00650200 0.00291994 0.00402523 0.00138347 
0.04683903 0.02991964 0.00913230 0.00211322 0.00070398 0.00265113 0.00363292 0.01416418 0.02436081 0.00177860 0.00124714 0.02702513 0.00665042 0.00291730 0.00408897 0.00138891 
0.04873695 0.03003171 0.00945264 0.00211362 0.00070405 0.00267072 0.00366561 0.01402162 0.02430467 0.00182352 0.00127655 0.02704800 0.00680173 0.00291058 0.00415311 0.00139412 
0.05068978 0.03016457 0.00977791 0.00211448 0.00070421 0.00269125 0.00371228 0.01387243 0.02425477 0.00187185 0.00130932 0.02704736 0.00695512 0.00289968 0.00421742 0.00139908 
0.05269232 0.03031743 0.01010672 0.00211581 0.00070447 0.00271266 0.00377329 0.01371741 0.02421226 0.00192340 0.00134537 0.02702279 0.00710981 0.00288458 0.00428169 0.00140377 
0.05473909 0.03048945 0.01043763 0.00211763 0.00070482 0.00273489 0.00384893 0.01355739 0.02417824 0.00197797 0.00138457 0.02697400 0.00726503 0.00286524 0.00434570 0.00140820 
0.05682435 0.03067965 0.01076918 0.00211994 0.00070526 0.00275789 0.00393953 0.01339316 0.02415378 0.00203533 0.00142682 0.02690085 0.00741999 0.00284168 0.00440926 0.00141235 
0.05894209 0.03088702 0.01109990 0.00212273 0.00070581 0.00278158 0.00404540 0.01322553 0.02413988 0.00209525 0.00147198 0.02680330 0.00757395 0.00281391 0.00447220 0.00141621 
0.06108609 0.03111042 0.01142833 0.00212600 0.00070645 0.00280590 0.00416682 0.01305528 0.02413749 0.00215750 0.00151991 0.02668146 0.00772617 0.00278199 0.00453433 0.00141979 
0.06324992 0.03134868 0.01175300 0.00212972 0.00070720 0.00283078 0.00430407 0.01288317 0.02414750 0.00222181 0.00157046 0.02653556 0.00787593 0.00274601 0.00459550 0.00142307 
0.06542695 0.03160052 0.01207246 0.00213388 0.00070804 0.00285614 0.00445742 0.01270993 0.02417070 0.00228791 0.00162347 0.02636598 0.00802254 0.00270605 0.00465558 0.00142606 
0.06761039 0.03186463 0.01238528 0.00213845 0.00070899 0.00288191 0.00462709 0.01253630 0.02420781 0.00235555 0.00167876 0.02617322 0.00816533 0.00266226 0.00471444 0.00142876 
0.06979331 0.03213962 0.01269007 0.00214340 0.00071004 0.00290802 0.00481329 0.01236294 0.02425945 0.00242444 0.00173617 0.02595790 0.00830368 0.00261478 0.00477198 0.00143116 
0.07196864 0.03242404 0.01298548 0.00214869 0.00071119 0.00293439 0.00501620 0.01219052 0.02432617 0.00249430 0.00179550 0.02572076 0.00843699 0.00256380 0.00482811 0.00143327 
0.07412923 0.03271642 0.01327019 0.00215428 0.00071243 0.00296095 0.00523597 0.01201966 0.02440839 0.00256485 0.00185657 0.02546271 0.00856470 0.00250952 0.00488277 0.00143509 
0.07626787 0.03301522 0.01354295 0.00216013 0.00071376 0.00298762 0.00547270 0.01185096 0.02450644 0.00263580 0.00191918 0.02518471 0.00868628 0.00245216 0.00493589 0.00143663 
0.07837728 0.03331889 0.01380255 0.00216619 0.00071519 0.00301433 0.00572646 0.01168495 0.02462054 0.00270686 0.00198312 0.02488791 0.00880126 0.00239196 0.00498744 0.00143790 
0.08045018 0.03362585 0.01404788 0.00217240 0.00071670 0.00304102 0.00599726 0.01152215 0.02475080 0.00277776 0.00204818 0.02457351 0.00890919 0.00232921 0.00503741 0.00143889 
0.08247931 0.03393449 0.01427789 0.00217871 0.00071829 0.00306760 0.00628508 0.01136304 0.02489721 0.00284822 0.00211417 0.02424287 0.00900969 0.00226418 0.00508579 0.00143961 
0.08445744 0.03424320 0.01449159 0.00218507 0.00071994 0.00309401 0.00658983 0.01120806 0.02505966 0.00291795 0.00218086 0.02389740 0.00910241 0.00219719 0.00513259 0.00144009 
0.08637741 0.03455038 0.01468809 0.00219142 0.00072167 0.00312019 0.00691139 0.01105761 0.02523791 0.00298670 0.00224803 0.02353866 0.00918704 0.00212856 0.00517786 0.00144031 
0.08823218 0.03485441 0.01486661 0.00219770 0.00072344 0.00314608 0.00724956 0.01091204 0.02543161 0.00305418 0.00231548 0.02316826 0.00926332 0.00205864 0.00522163 0.00144030 
0.09001483 0.03515371 0.01502642 0.00220385 0.00072527 0.00317161 0.00760408 0.01077167 0.02564030 0.00312017 0.00238298 0.02278791 0.00933107 0.00198777 0.00526395 0.00144006 
0.09171858 0.03544673 0.01516693 0.00220982 0.00072713 0.00319675 0.00797463 0.01063679 0.02586340 0.00318440 0.00245032 0.02239939 0.00939010 0.00191632 0.00530491 0.00143960 
0.09333687 0.03573193 0.01528763 0.00221554 0.00072901 0.00322143 0.00836084 0.01050765 0.02610024 0.00324665 0.00251728 0.02200456 0.00944032 0.00184468 0.00534458 0.00143894 
0.09486335 0.03600782 0.01538811 0.00222096 0.00073091 0.00324561 0.00876225 0.01038447 0.02635002 0.00330670 0.00258364 0.02160532 0.00948165 0.00177322 0.00538304 0.00143808 
0.09629193 0.03627299 0.01546806 0.00222603 0.00073281 0.00326925 0.00917835 0.01026742 0.02661186 0.00336434 0.00264920 0.02120365 0.00951409 0.00170235 0.00542041 0.00143703 
0.09761679 0.03652606 0.01552730 0.00223068 0.00073470 0.00329232 0.00960855 0.01015666 0.02688476 0.00341938 0.00271375 0.02080155 0.00953766 0.00163245 0.00545679 0.00143581 
0.09883243 0.03676573 0.01556572 0.00223489 0.00073655 0.00331479 0.01005218 0.01005231 0.02716767 0.00347164 0.00277708 0.02040106 0.00955244 0.00156394 0.00549228 0.00143443 
0.09993367 0.03699079 0.01558336 0.00223859 0.00073837 0.00333663 0.01050854 0.00995447 0.02745941 0.00352096 0.00283900 0.02000425 0.00955854 0.00149720 0.00552700 0.00143291 
0.10091571 0.03720011 0.01558031 0.00224176 0.00074013 0.00335783 0.01097680 0.00986320 0.02775875 0.00356719 0.00289930 0.01961321 0.00955613 0.00143263 0.00556107 0.00143124 
0.10177415 0.03739265 0.01555682 0.00224434 0.00074182 0.00337837 0.01145612 0.00977855 0.02806439 0.00361021 0.00295781 0.01923002 0.00954541 0.00137063 0.00559460 0.00142944 
0.10250500 0.03756749 0.01551320 0.00224631 0.00074342 0.00339824 0.01194556 0.00970057 0.02837496 0.00364991 0.00301434 0.01885676 0.00952661 0.00131158 0.00562770 0.00142752 
0.10310471 0.03772382 0.01544986 0.00224765 0.00074492 0.00341746 0.01244411 0.00962925 0.02868904 0.00368618 0.00306873 0.01849552 0.00950002 0.00125587 0.00566050 0.00142550 
0.10357021 0.03786092 0.01536734 0.00224833 0.00074629 0.00343601 0.01295072 0.00956460 0.02900517 0.00371896 0.00312080 0.01814833 0.00946595 0.00120384 0.00569309 0.00142339 
0.10389889 0.03797824 0.01526624 0.00224834 0.00074754 0.00345393 0.01346425 0.00950660 0.02932186 0.00374819 0.00317040 0.01781721 0.00942474 0.00115587 0.00572558 0.00142118 
0.10408868 0.03807534 0.01514725 0.00224766 0.00074863 0.00347121 0.01398353 0.00945523 0.02963757 0.00377383 0.00321739 0.01750413 0.00937677 0.00111228 0.00575806 0.00141891 
0.10413801 0.03815190 0.01501115 0.00224629 0.00074955 0.00348790 0.01450731 0.00941046 0.02995079 0.00379586 0.00326162 0.01721100 0.00932244 0.00107340 0.00579061 0.00141656 
0.10404587 0.03820776 0.01485879 0.00224423 0.00075030 0.00350401 0.01503430 0.00937225 0.03025997 0.00381427 0.00330298 0.01693968 0.00926218 0.00103952 0.00582331 0.00141416 
0.10381180 0.03824290 0.01469110 0.00224150 0.00075085 0.00351959 0.01556318 0.00934056 0.03056357 0.00382908 0.00334135 0.01669193 0.00919643 0.00101093 0.00585621 0.00141171 
0.10343591 0.03825745 0.01450907 0.00223811 0.00075119 0.00353468 0.01609256 0.00931535 0.03086007 0.00384032 0.00337662 0.01646945 0.00912567 0.00098788 0.00588937 0.00140922 
0.10291888 0.03825167 0.01431376 0.00223407 0.00075132 0.00354932 0.01662102 0.00929657 0.03114797 0.00384804 0.00340869 0.01627383 0.00905037 0.00097060 0.00592281 0.00140670 
0.10226197 0.03822600 0.01410626 0.00222941 0.00075121 0.00356357 0.01714714 0.00928420 0.03142583 0.00385230 0.00343750 0.01610656 0.00897105 0.00095929 0.00595657 0.00140416 
0.10146705 0.03818098 0.01388773 0.00222417 0.00075086 0.00357749 0.01766942 0.00927819 0.03169221 0.00385319 0.00346297 0.01596904 0.00888819 0.00095414 0.00599063 0.00140160 
0.10053657 0.03811735 0.01365935 0.00221839 0.00075025 0.00359114 0.01818640 0.00927850 0.03194575 0.00385078 0.00348504 0.01586250 0.00880233 0.00095529 0.00602499 0.00139903 
0.09947355 0.03803595 0.01342234 0.00221210 0.00074939 0.00360459 0.01869656 0.00928512 0.03218517 0.00384521 0.00350367 0.01578810 0.00871397 0.00096285 0.00605963 0.00139645 
0.09828163 0.03793779 0.01317796 0.00220536 0.00074827 0.00361792 0.01919841 0.00929803 0.03240921 0.00383657 0.00351883 0.01574681 0.00862365 0.00097692 0.00609448 0.00139388 
0.09696500 0.03782399 0.01292746 0.00219821 0.00074687 0.00363118 0.01969043 0.00931720 0.03261673 0.00382501 0.00353050 0.01573949 0.00853188 0.00099755 0.00612950 0.00139132 
0.09552843 0.03769582 0.01267212 0.00219072 0.00074521 0.00364447 0.02017113 0.00934264 0.03280666 0.00381067 0.00353866 0.01576682 0.00843919 0.00102476 0.00616460 0.00138878 
0.09397725 0.03755465 0.01241321 0.00218295 0.00074327 0.00365787 0.02063902 0.00937433 0.03297803 0.00379371 0.00354333 0.01582935 0.00834607 0.00105853 0.00619969 0.00138625 
0.09231732 0.03740199 0.01215202 0.00217495 0.00074106 0.00367146 0.02109264 0.00941230 0.03312997 0.00377428 0.00354452 0.01592746 0.00825303 0.00109882 0.00623466 0.00138376 
0.09055503 0.03723945 0.01188980 0.00216681 0.00073858 0.00368533 0.02153057 0.00945656 0.03326169 0.00375256 0.00354227 0.01606134 0.00816055 0.00114555 0.00626938 0.00138129 
0.08869727 0.03706870 0.01162780 0.00215857 0.00073584 0.00369955 0.02195141 0.00950711 0.03337253 0.00372872 0.00353662 0.01623103 0.00806911 0.00119861 0.00630370 0.00137885 
0.08675140 0.03689155 0.01136724 0.00215033 0.00073284 0.00371423 0.02235381 0.00956400 0.03346196 0.00370294 0.00352761 0.01643639 0.00797917 0.00125786 0.00633749 0.00137646 
0.08472522 0.03670984 0.01110932 0.00214214 0.00072960 0.00372944 0.02273646 0.00962725 0.03352952 0.00367542 0.00351533 0.01667709 0.00789116 0.00132310 0.00637056 0.00137411 
0.08262696 0.03652548 0.01085520 0.00213408 0.00072613 0.00374528 0.02309812 0.00969689 0.03357491 0.00364635 0.00349984 0.01695264 0.00780549 0.00139413 0.00640275 0.00137180 
0.08046524 0.03634043 0.01060600 0.00212623 0.00072243 0.00376182 0.02343762 0.00977297 0.03359793 0.00361590 0.00348123 0.01726234 0.00772255 0.00147071 0.00643387 0.00136955 
0.07824901 0.03615669 0.01036277 0.00211865 0.00071852 0.00377915 0.02375385 0.00985552 0.03359850 0.00358429 0.00345961 0.01760533 0.00764271 0.00155255 0.00646372 0.00136736 
0.07598753 0.03597625 0.01012656 0.00211141 0.00071443 0.00379735 0.02404576 0.00994457 0.03357668 0.00355170 0.00343508 0.01798058 0.00756630 0.00163937 0.00649211 0.00136522 
0.07369035 0.03580114 0.00989831 0.00210458 0.00071017 0.00381650 0.02431242 0.01004017 0.03353263 0.00351833 0.00340776 0.01838684 0.00749364 0.00173081 0.00651883 0.00136314 
0.07136722 0.03563334 0.00967893 0.00209823 0.00070577 0.00383666 0.02455296 0.01014235 0.03346664 0.00348436 0.00337779 0.01882272 0.00742500 0.00182654 0.00654368 0.00136113 
0.06902810 0.03547483 0.00946926 0.00209242 0.00070123 0.00385791 0.02476662 0.01025115 0.03337910 0.00344999 0.00334529 0.01928665 0.00736063 0.00192615 0.00656644 0.00135919 
0.06668306 0.03532752 0.00927009 0.00208721 0.00069660 0.00388030 0.02495272 0.01036657 0.03327054 0.00341539 0.00331041 0.01977689 0.00730074 0.00202925 0.00658692 0.00135732 
0.06434227 0.03519327 0.00908211 0.00208266 0.00069190 0.00390390 0.02511070 0.01048865 0.03314158 0.00338074 0.00327331 0.02029153 0.00724552 0.00213540 0.00660491 0.00135552 
0.06201595 0.03507388 0.00890597 0.00207880 0.00068715 0.00392874 0.02524010 0.01061738 0.03299295 0.00334622 0.00323414 0.02082853 0.00719510 0.00224417 0.00662022 0.00135380 
0.05971428 0.03497102 0.00874221 0.00207569 0.00068239 0.00395487 0.02534057 0.01075277 0.03282549 0.00331200 0.00319307 0.02138567 0.00714962 0.00235507 0.00663266 0.00135216 
0.05744741 0.03488629 0.00859135 0.00207337 0.00067764 0.00398233 0.02541187 0.01089481 0.03264012 0.00327823 0.00315028 0.02196062 0.00710914 0.00246764 0.00664205 0.00135060 
0.05522535 0.03482115 0.00845378 0.00207186 0.00067293 0.00401114 0.02545388 0.01104345 0.03243787 0.00324506 0.00310594 0.02255091 0.00707370 0.00258137 0.00664822 0.00134913 
0.05305796 0.03477692 0.00832985 0.00207120 0.00066830 0.00404130 0.02546661 0.01119866 0.03221981 0.00321264 0.00306022 0.02315394 0.00704333 0.00269578 0.00665103 0.00134774 
0.05095488 0.03475479 0.00821983 0.00207141 0.00066378 0.00407284 0.02545016 0.01136039 0.03198713 0.00318110 0.00301333 0.02376704 0.00701801 0.00281035 0.00665033 0.00134645 
0.04892548 0.03475576 0.00812390 0.00207249 0.00065940 0.00410574 0.02540477 0.01152855 0.03174108 0.00315057 0.00296543 0.02438740 0.00699766 0.00292456 0.00664601 0.00134524 
0.04697882 0.03478069 0.00804219 0.00207445 0.00065519 0.00413998 0.02533080 0.01170305 0.03148293 0.00312116 0.00291672 0.02501216 0.00698222 0.00303790 0.00663798 0.00134413 
0.04512359 0.03483024 0.00797474 0.00207730 0.00065119 0.00417555 0.02522872 0.01188379 0.03121406 0.00309297 0.00286740 0.02563840 0.00697156 0.00314986 0.00662614 0.00134311 
0.04336806 0.03490487 0.00792154 0.00208102 0.00064743 0.00421240 0.02509912 0.01207062 0.03093584 0.00306612 0.00281765 0.02626311 0.00696553 0.00325992 0.00661044 0.00134218 
0.04172005 0.03500486 0.00788249 0.00208560 0.00064393 0.00425050 0.02494273 0.01226340 0.03064972 0.00304067 0.00276767 0.02688327 0.00696397 0.00336757 0.00659086 0.00134135 
0.04018686 0.03513027 0.00785745 0.00209102 0.00064074 0.00428977 0.02476036 0.01246196 0.03035714 0.00301671 0.00271765 0.02749584 0.00696666 0.00347232 0.00656739 0.00134061 
0.03877525 0.03528095 0.00784619 0.00209723 0.00063787 0.00433016 0.02455295 0.01266610 0.03005958 0.00299431 0.00266777 0.02809777 0.00697339 0.00357369 0.00654003 0.00133997 
0.03749142 0.03545654 0.00784845 0.00210422 0.00063536 0.00437157 0.02432154 0.01287563 0.02975851 0.00297352 0.00261823 0.02868602 0.00698391 0.00367120 0.00650885 0.00133942 
0.03634092 0.03565647 0.00786390 0.00211193 0.00063323 0.00441393 0.02406730 0.01309030 0.02945544 0.00295439 0.00256921 0.02925757 0.00699794 0.00376439 0.00647390 0.00133897 
0.03532864 0.03587994 0.00789216 0.00212032 0.00063151 0.00445712 0.02379146 0.01330986 0.02915182 0.00293695 0.00252090 0.02980945 0.00701521 0.00385284 0.00643530 0.00133860 
0.03445880 0.03612595 0.00793281 0.00212932 0.00063022 0.00450103 0.02349537 0.01353405 0.02884912 0.00292124 0.00247347 0.03033877 0.00703541 0.00393612 0.00639316 0.00133833 
0.03373492 0.03639328 0.00798537 0.00213889 0.00062939 0.00454555 0.02318048 0.01376258 0.02854878 0.00290728 0.00242710 0.03084268 0.00705823 0.00401385 0.00634764 0.00133815 
0.03315976 0.03668051 0.00804934 0.00214895 0.00062902 0.00459054 0.02284830 0.01399515 0.02825220 0.00289508 0.00238196 0.03131848 0.00708333 0.00408566 0.00629893 0.00133805 
0.03273535 0.03698601 0.00812418 0.00215942 0.00062915 0.00463586 0.02250041 0.01423144 0.02796076 0.00288465 0.00233821 0.03176353 0.00711040 0.00415122 0.00624723 0.00133803 
0.03246294 0.03730797 0.00820932 0.00217025 0.00062978 0.00468136 0.02213850 0.01447110 0.02767578 0.00287598 0.00229602 0.03217535 0.00713908 0.00421022 0.00619278 0.00133808 
0.03234300 0.03764439 0.00830414 0.00218134 0.00063092 0.00472689 0.02176428 0.01471381 0.02739855 0.00286906 0.00225553 0.03255160 0.00716904 0.00426237 0.00613585 0.00133821 
0.03237525 0.03799312 0.00840805 0.00219263 0.00063259 0.00477228 0.02137953 0.01495919 0.02713027 0.00286388 0.00221689 0.03289010 0.00719995 0.00430746 0.00607671 0.00133841 
0.03255858 0.03835182 0.00852038 0.00220401 0.00063479 0.00481736 0.02098608 0.01520687 0.02687210 0.00286042 0.00218025 0.03318884 0.00723146 0.00434525 0.00601568 0.00133866 
0.03289113 0.03871803 0.00864051 0.00221542 0.00063752 0.00486196 0.02058579 0.01545649 0.02662515 0.00285865 0.00214572 0.03344601 0.00726325 0.00437559 0.00595308 0.00133897 
0.03337027 0.03908917 0.00876776 0.00222677 0.00064078 0.00490590 0.02018056 0.01570765 0.02639042 0.00285854 0.00211344 0.03366000 0.00729499 0.00439835 0.00588928 0.00133933 
0.03399260 0.03946253 0.00890147 0.00223797 0.00064457 0.00494901 0.01977229 0.01595996 0.02616887 0.00286007 0.00208352 0.03382941 0.00732639 0.00441341 0.00582464 0.00133973 
0.03475396 0.03983533 0.00904098 0.00224895 0.00064889 0.00499109 0.01936290 0.01621304 0.02596136 0.00286319 0.00205607 0.03395306 0.00735715 0.00442073 0.00575954 0.00134016 
0.03564951 0.04020470 0.00918562 0.00225961 0.00065372 0.00503197 0.01895432 0.01646648 0.02576869 0.00286786 0.00203119 0.03403003 0.00738700 0.00442030 0.00569438 0.00134061 
0.03667368 0.04056774 0.00933473 0.00226988 0.00065906 0.00507146 0.01854846 0.01671990 0.02559155 0.00287405 0.00200897 0.03405963 0.00741569 0.00441211 0.00562958 0.00134108 
0.03782025 0.04092149 0.00948768 0.00227969 0.00066490 0.00510938 0.01814721 0.01697290 0.02543057 0.00288171 0.00198948 0.03404142 0.00744299 0.00439625 0.00556555 0.00134155 
0.03908236 0.04126302 0.00964381 0.00228896 0.00067120 0.00514555 0.01775244 0.01722511 0.02528628 0.00289079 0.00197280 0.03397522 0.00746869 0.00437280 0.00550272 0.00134201 
0.04045257 0.04158938 0.00980253 0.00229762 0.00067796 0.00517980 0.01736599 0.01747613 0.02515913 0.00290126 0.00195900 0.03386112 0.00749261 0.00434190 0.00544153 0.00134246 
0.04192286 0.04189768 0.00996321 0.00230563 0.00068515 0.00521195 0.01698962 0.01772560 0.02504948 0.00291306 0.00194812 0.03369948 0.00751462 0.00430373 0.00538241 0.00134288 
0.04348474 0.04218508 0.01012530 0.00231291 0.00069275 0.00524183 0.01662509 0.01797315 0.02495761 0.00292616 0.00194020 0.03349091 0.00753459 0.00425849 0.00532578 0.00134326 
0.04512923 0.04244882 0.01028821 0.00231943 0.00070073 0.00526930 0.01627404 0.01821844 0.02488371 0.00294051 0.00193529 0.03323629 0.00755245 0.00420643 0.00527209 0.00134359 
0.04684694 0.04268625 0.01045144 0.00232515 0.00070905 0.00529420 0.01593809 0.01846111 0.02482789 0.00295607 0.00193341 0.03293679 0.00756815 0.00414783 0.00522175 0.00134386 
0.04862815 0.04289485 0.01061446 0.00233002 0.00071770 0.00531639 0.01561873 0.01870085 0.02479016 0.00297279 0.00193457 0.03259381 0.00758166 0.00408301 0.00517516 0.00134405 
0.05046281 0.04307225 0.01077680 0.00233404 0.00072664 0.00533574 0.01531741 0.01893735 0.02477048 0.00299064 0.00193877 0.03220903 0.00759303 0.00401230 0.00513275 0.00134417 
0.05234065 0.04321623 0.01093801 0.00233717 0.00073582 0.00535213 0.01503547 0.01917030 0.02476870 0.00300958 0.00194602 0.03178437 0.00760230 0.00393609 0.00509488 0.00134418 
0.05425120 0.04332479 0.01109766 0.00233943 0.00074522 0.00536546 0.01477412 0.01939942 0.02478462 0.00302956 0.00195629 0.03132198 0.00760959 0.00385477 0.00506193 0.00134409 
0.05618387 0.04339612 0.01125537 0.00234080 0.00075480 0.00537563 0.01453451 0.01962445 0.02481796 0.00305056 0.00196956 0.03082428 0.00761501 0.00376877 0.00503424 0.00134388 
0.05812801 0.04342866 0.01141077 0.00234132 0.00076452 0.00538257 0.01431765 0.01984513 0.02486836 0.00307255 0.00198581 0.03029386 0.00761875 0.00367854 0.00501214 0.00134353 
0.06007295 0.04342107 0.01156354 0.00234099 0.00077434 0.00538621 0.01412444 0.02006123 0.02493541 0.00309548 0.00200498 0.02973354 0.00762102 0.00358455 0.00499594 0.00134305 
0.06200810 0.04337229 0.01171336 0.00233986 0.00078422 0.00538649 0.01395567 0.02027254 0.02501862 0.00311932 0.00202703 0.02914635 0.00762206 0.00348728 0.00498591 0.00134242 
0.06392296 0.04328153 0.01185997 0.00233797 0.00079412 0.00538340 0.01381199 0.02047885 0.02511747 0.00314405 0.00205189 0.02853547 0.00762216 0.00338725 0.00498228 0.00134163 
0.06580724 0.04314828 0.01200313 0.00233538 0.00080400 0.00537690 0.01369393 0.02067998 0.02523135 0.00316964 0.00207950 0.02790425 0.00762162 0.00328495 0.00498529 0.00134066 
0.06765085 0.04297234 0.01214263 0.00233216 0.00081382 0.00536700 0.01360191 0.02087575 0.02535964 0.00319606 0.00210978 0.02725618 0.00762079 0.00318092 0.00499510 0.00133952 
0.06944402 0.04275381 0.01227827 0.00232836 0.00082355 0.00535372 0.01353620 0.02106600 0.02550164 0.00322328 0.00214264 0.02659486 0.00762004 0.00307568 0.00501187 0.00133820 
0.07117730 0.04249311 0.01240990 0.00232409 0.00083314 0.00533709 0.01349694 0.02125060 0.02565663 0.00325127 0.00217798 0.02592401 0.00761979 0.00296977 0.00503571 0.00133669 
0.07284165 0.04219097 0.01253738 0.00231944 0.00084255 0.00531715 0.01348415 0.02142940 0.02582385 0.00328000 0.00221571 0.02524741 0.00762046 0.00286373 0.00506670 0.00133497 
0.07442849 0.04184844 0.01266061 0.00231450 0.00085176 0.00529399 0.01349774 0.02160228 0.02600249 0.00330944 0.00225570 0.02456892 0.00762249 0.00275809 0.00510487 0.00133306 
0.07592970 0.04146689 0.01277950 0.00230939 0.00086072 0.00526767 0.01353746 0.02176913 0.02619173 0.00333957 0.00229784 0.02389241 0.00762637 0.00265338 0.00515023 0.00133094 
0.07733772 0.04104801 0.01289399 0.00230423 0.00086940 0.00523831 0.01360296 0.02192984 0.02639073 0.00337035 0.00234201 0.02322179 0.00763257 0.00255011 0.00520275 0.00132861 
0.07864556 0.04059382 0.01300404 0.00229913 0.00087777 0.00520602 0.01369377 0.02208432 0.02659862 0.00340175 0.00238807 0.02256092 0.00764161 0.00244880 0.00526234 0.00132608 
0.07984684 0.04010661 0.01310963 0.00229423 0.00088580 0.00517093 0.01380930 0.02223246 0.02681451 0.00343373 0.00243587 0.02191367 0.00765398 0.00234994 0.00532889 0.00132334 
0.08093583 0.03958899 0.01321075 0.00228967 0.00089347 0.00513320 0.01394886 0.02237418 0.02703751 0.00346626 0.00248528 0.02128383 0.00767021 0.00225401 0.00540226 0.00132039 
0.08190746 0.03904387 0.01330742 0.00228559 0.00090074 0.00509298 0.01411164 0.02250939 0.02726672 0.00349928 0.00253613 0.02067511 0.00769082 0.00216148 0.00548224 0.00131724 
0.08275735 0.03847441 0.01339967 0.00228212 0.00090760 0.00505045 0.01429675 0.02263799 0.02750122 0.00353276 0.00258827 0.02009111 0.00771633 0.00207277 0.00556863 0.00131388 
