0.04067206 0.01288074 0.00511626 0.00153673 0.00154179 0.00364126 0.00707325 0.00877476 0.04670883 0.00310006 0.00315499 0.00095061 0.00553897 0.00058858 0.00242567 0.00126357 
0.04071564 0.01294934 0.00514372 0.00152480 0.00155293 0.00370615 0.00695760 0.00883381 0.04627081 0.00315318 0.00318142 0.00095664 0.00557494 0.00058198 0.00241705 0.00126748 
0.04072365 0.01301934 0.00517247 0.00151551 0.00156386 0.00377224 0.00684463 0.00888350 0.04579335 0.00320725 0.00321007 0.00096321 0.00560678 0.00057545 0.00240951 0.00127148 
0.04069649 0.01309042 0.00520245 0.00150890 0.00157450 0.00383922 0.00673497 0.00892384 0.04527952 0.00326210 0.00324078 0.00097024 0.00563438 0.00056904 0.00240309 0.00127557 
0.04063470 0.01316221 0.00523360 0.00150499 0.00158480 0.00390676 0.00662920 0.00895489 0.04473267 0.00331752 0.00327341 0.00097766 0.00565769 0.00056276 0.00239784 0.00127973 
0.04053893 0.01323431 0.00526585 0.00150379 0.00159470 0.00397453 0.00652794 0.00897675 0.04415639 0.00337332 0.00330779 0.00098539 0.00567662 0.00055665 0.00239375 0.00128392 
0.04040998 0.01330633 0.00529913 0.00150530 0.00160413 0.00404219 0.00643177 0.00898956 0.04355447 0.00342934 0.00334377 0.00099333 0.00569114 0.00055076 0.00239085 0.00128814 
0.04024875 0.01337782 0.00533335 0.00150950 0.00161302 0.00410942 0.00634129 0.00899352 0.04293094 0.00348537 0.00338118 0.00100140 0.00570121 0.00054510 0.00238913 0.00129236 
0.04005627 0.01344835 0.00536840 0.00151636 0.00162133 0.00417587 0.00625707 0.00898887 0.04228999 0.00354126 0.00341986 0.00100951 0.00570680 0.00053972 0.00238858 0.00129657 
0.03983369 0.01351743 0.00540418 0.00152585 0.00162899 0.00424122 0.00617969 0.00897587 0.04163596 0.00359682 0.00345965 0.00101756 0.00570792 0.00053464 0.00238917 0.00130073 
0.03958227 0.01358460 0.00544058 0.00153792 0.00163595 0.00430514 0.00610970 0.00895485 0.04097333 0.00365190 0.00350038 0.00102544 0.00570459 0.00052989 0.00239087 0.00130483 
0.03930338 0.01364937 0.00547746 0.00155251 0.00164214 0.00436730 0.00604763 0.00892617 0.04030668 0.00370635 0.00354191 0.00103307 0.00569682 0.00052550 0.00239363 0.00130885 
0.03899850 0.01371126 0.00551469 0.00156954 0.00164753 0.00442739 0.00599400 0.00889021 0.03964067 0.00376002 0.00358407 0.00104033 0.00568468 0.00052149 0.00239739 0.00131277 
0.03866923 0.01376978 0.00555211 0.00158893 0.00165206 0.00448511 0.00594932 0.00884741 0.03897998 0.00381278 0.00362673 0.00104713 0.00566822 0.00051788 0.00240209 0.00131656 
0.03831725 0.01382445 0.00558958 0.00161060 0.00165569 0.00454018 0.00591406 0.00879821 0.03832932 0.00386450 0.00366975 0.00105337 0.00564754 0.00051470 0.00240764 0.00132022 
0.03794434 0.01387481 0.00562693 0.00163442 0.00165838 0.00459231 0.00588866 0.00874311 0.03769336 0.00391507 0.00371298 0.00105895 0.00562272 0.00051196 0.00241396 0.00132371 
0.03755237 0.01392038 0.00566399 0.00166030 0.00166009 0.00464124 0.00587355 0.00868261 0.03707675 0.00396437 0.00375632 0.00106377 0.00559390 0.00050967 0.00242095 0.00132702 
0.03714331 0.01396073 0.00570057 0.00168811 0.00166078 0.00468673 0.00586911 0.00861724 0.03648403 0.00401232 0.00379965 0.00106773 0.00556120 0.00050786 0.00242851 0.00133014 
0.03671920 0.01399544 0.00573649 0.00171773 0.00166044 0.00472855 0.00587569 0.00854754 0.03591963 0.00405884 0.00384287 0.00107076 0.00552479 0.00050652 0.00243652 0.00133304 
0.03628214 0.01402412 0.00577155 0.00174900 0.00165903 0.00476649 0.00589362 0.00847408 0.03538783 0.00410384 0.00388588 0.00107276 0.00548482 0.00050567 0.00244487 0.00133572 
0.03583432 0.01404638 0.00580554 0.00178180 0.00165654 0.00480035 0.00592318 0.00839743 0.03489274 0.00414727 0.00392860 0.00107365 0.00544150 0.00050531 0.00245342 0.00133816 
0.03537798 0.01406191 0.00583827 0.00181596 0.00165296 0.00482997 0.00596460 0.00831815 0.03443825 0.00418907 0.00397097 0.00107337 0.00539502 0.00050543 0.00246205 0.00134034 
0.03491543 0.01407040 0.00586952 0.00185133 0.00164827 0.00485520 0.00601808 0.00823684 0.03402803 0.00422920 0.00401292 0.00107185 0.00534559 0.00050603 0.00247062 0.00134226 
0.03444900 0.01407160 0.00589907 0.00188775 0.00164247 0.00487592 0.00608378 0.00815406 0.03366545 0.00426762 0.00405440 0.00106903 0.00529346 0.00050711 0.00247899 0.00134391 
0.03398110 0.01406529 0.00592670 0.00192504 0.00163556 0.00489202 0.00616179 0.00807039 0.03335363 0.00430432 0.00409538 0.00106486 0.00523887 0.00050866 0.00248702 0.00134527 
0.03351412 0.01405131 0.00595220 0.00196305 0.00162755 0.00490342 0.00625219 0.00798639 0.03309534 0.00433927 0.00413582 0.00105931 0.00518207 0.00051066 0.00249457 0.00134635 
0.03305054 0.01402955 0.00597534 0.00200160 0.00161846 0.00491006 0.00635497 0.00790260 0.03289302 0.00437246 0.00417571 0.00105233 0.00512333 0.00051310 0.00250148 0.00134713 
0.03259280 0.01399993 0.00599590 0.00204051 0.00160829 0.00491191 0.00647010 0.00781956 0.03274875 0.00440390 0.00421503 0.00104392 0.00506293 0.00051595 0.00250763 0.00134762 
0.03214340 0.01396245 0.00601366 0.00207961 0.00159707 0.00490895 0.00659748 0.00773778 0.03266421 0.00443359 0.00425378 0.00103407 0.00500117 0.00051920 0.00251286 0.00134781 
0.03170481 0.01391716 0.00602841 0.00211872 0.00158483 0.00490120 0.00673695 0.00765773 0.03264072 0.00446154 0.00429197 0.00102277 0.00493832 0.00052283 0.00251704 0.00134771 
0.03127950 0.01386418 0.00603992 0.00215766 0.00157160 0.00488870 0.00688832 0.00757989 0.03267915 0.00448777 0.00432960 0.00101004 0.00487469 0.00052680 0.00252004 0.00134731 
0.03086993 0.01380367 0.00604800 0.00219627 0.00155742 0.00487148 0.00705132 0.00750468 0.03277997 0.00451230 0.00436669 0.00099591 0.00481059 0.00053109 0.00252171 0.00134662 
0.03047855 0.01373587 0.00605243 0.00223438 0.00154233 0.00484964 0.00722565 0.00743249 0.03294322 0.00453516 0.00440326 0.00098041 0.00474633 0.00053567 0.00252195 0.00134565 
0.03010777 0.01366107 0.00605302 0.00227180 0.00152637 0.00482326 0.00741092 0.00736368 0.03316849 0.00455636 0.00443934 0.00096359 0.00468219 0.00054050 0.00252062 0.00134440 
0.02975995 0.01357963 0.00604958 0.00230839 0.00150960 0.00479247 0.00760673 0.00729857 0.03345496 0.00457595 0.00447494 0.00094552 0.00461850 0.00054555 0.00251761 0.00134289 
0.02943741 0.01349198 0.00604193 0.00234398 0.00149207 0.00475740 0.00781258 0.00723744 0.03380134 0.00459395 0.00451009 0.00092626 0.00455555 0.00055078 0.00251284 0.00134112 
0.02914242 0.01339860 0.00602990 0.00237841 0.00147383 0.00471820 0.00802795 0.00718053 0.03420592 0.00461039 0.00454482 0.00090590 0.00449365 0.00055617 0.00250619 0.00133910 
0.02887720 0.01330006 0.00601333 0.00241155 0.00145496 0.00467503 0.00825224 0.00712803 0.03466658 0.00462530 0.00457915 0.00088453 0.00443307 0.00056167 0.00249759 0.00133686 
0.02864385 0.01319695 0.00599207 0.00244324 0.00143551 0.00462810 0.00848481 0.00708010 0.03518076 0.00463872 0.00461309 0.00086227 0.00437412 0.00056724 0.00248697 0.00133440 
0.02844444 0.01308995 0.00596599 0.00247336 0.00141556 0.00457758 0.00872498 0.00703682 0.03574550 0.00465066 0.00464667 0.00083923 0.00431705 0.00057284 0.00247426 0.00133174 
0.02828092 0.01297979 0.00593497 0.00250177 0.00139516 0.00452369 0.00897201 0.00699826 0.03635748 0.00466116 0.00467989 0.00081553 0.00426213 0.00057845 0.00245941 0.00132891 
0.02815516 0.01286726 0.00589891 0.00252837 0.00137441 0.00446666 0.00922511 0.00696444 0.03701298 0.00467024 0.00471276 0.00079132 0.00420960 0.00058401 0.00244239 0.00132591 
0.02806890 0.01275319 0.00585770 0.00255305 0.00135336 0.00440672 0.00948345 0.00693530 0.03770794 0.00467792 0.00474527 0.00076673 0.00415971 0.00058951 0.00242317 0.00132278 
0.02802379 0.01263847 0.00581129 0.00257570 0.00133211 0.00434410 0.00974616 0.00691078 0.03843800 0.00468420 0.00477742 0.00074193 0.00411267 0.00059489 0.00240174 0.00131952 
0.02802134 0.01252402 0.00575961 0.00259625 0.00131071 0.00427905 0.01001233 0.00689073 0.03919846 0.00468911 0.00480918 0.00071706 0.00406867 0.00060013 0.00237810 0.00131618 
0.02806296 0.01241083 0.00570263 0.00261460 0.00128926 0.00421182 0.01028101 0.00687500 0.03998441 0.00469265 0.00484051 0.00069230 0.00402790 0.00060519 0.00235227 0.00131275 
0.02814987 0.01229990 0.00564032 0.00263070 0.00126783 0.00414267 0.01055122 0.00686337 0.04079064 0.00469481 0.00487139 0.00066781 0.00399051 0.00061004 0.00232428 0.00130928 
0.02828320 0.01219227 0.00557269 0.00264449 0.00124650 0.00407185 0.01082197 0.00685558 0.04161179 0.00469561 0.00490175 0.00064377 0.00395664 0.00061466 0.00229416 0.00130579 
0.02846389 0.01208900 0.00549974 0.00265593 0.00122534 0.00399962 0.01109221 0.00685135 0.04244230 0.00469501 0.00493153 0.00062036 0.00392641 0.00061901 0.00226198 0.00130229 
0.02869275 0.01199119 0.00542152 0.00266497 0.00120443 0.00392624 0.01136089 0.00685034 0.04327649 0.00469302 0.00496066 0.00059775 0.00389991 0.00062307 0.00222780 0.00129881 
0.02897040 0.01189993 0.00533809 0.00267160 0.00118386 0.00385196 0.01162696 0.00685219 0.04410858 0.00468960 0.00498905 0.00057613 0.00387721 0.00062682 0.00219171 0.00129538 
0.02929730 0.01181633 0.00524951 0.00267580 0.00116369 0.00377702 0.01188933 0.00685652 0.04493272 0.00468474 0.00501660 0.00055566 0.00385834 0.00063024 0.00215381 0.00129203 
0.02967373 0.01174151 0.00515588 0.00267758 0.00114399 0.00370169 0.01214691 0.00686290 0.04574304 0.00467841 0.00504320 0.00053652 0.00384333 0.00063330 0.00211419 0.00128876 
0.03009979 0.01167656 0.00505732 0.00267694 0.00112484 0.00362619 0.01239862 0.00687089 0.04653371 0.00467056 0.00506873 0.00051889 0.00383217 0.00063601 0.00207299 0.00128562 
0.03057541 0.01162260 0.00495397 0.00267390 0.00110631 0.00355075 0.01264338 0.00688002 0.04729893 0.00466116 0.00509306 0.00050292 0.00382483 0.00063834 0.00203034 0.00128262 
0.03110029 0.01158068 0.00484597 0.00266850 0.00108845 0.00347560 0.01288010 0.00688983 0.04803300 0.00465016 0.00511603 0.00048879 0.00382126 0.00064028 0.00198638 0.00127978 
0.03167396 0.01155187 0.00473350 0.00266076 0.00107134 0.00340095 0.01310773 0.00689980 0.04873036 0.00463752 0.00513751 0.00047662 0.00382136 0.00064183 0.00194125 0.00127713 
0.03229575 0.01153718 0.00461675 0.00265076 0.00105502 0.00332700 0.01332522 0.00690945 0.04938561 0.00462318 0.00515732 0.00046658 0.00382504 0.00064299 0.00189513 0.00127468 
0.03296480 0.01153760 0.00449593 0.00263853 0.00103956 0.00325394 0.01353155 0.00691826 0.04999355 0.00460709 0.00517530 0.00045879 0.00383217 0.00064376 0.00184819 0.00127246 
0.03368001 0.01155407 0.00437128 0.00262416 0.00102500 0.00318195 0.01372573 0.00692573 0.05054921 0.00458920 0.00519128 0.00045336 0.00384259 0.00064413 0.00180061 0.00127049 
0.03444012 0.01158745 0.00424304 0.00260772 0.00101140 0.00311119 0.01390680 0.00693135 0.05104793 0.00456944 0.00520506 0.00045041 0.00385614 0.00064411 0.00175256 0.00126877 
0.03524364 0.01163859 0.00411147 0.00258929 0.00099878 0.00304182 0.01407385 0.00693462 0.05148530 0.00454776 0.00521647 0.00045001 0.00387262 0.00064372 0.00170425 0.00126733 
0.03608888 0.01170824 0.00397686 0.00256896 0.00098720 0.00297397 0.01422598 0.00693505 0.05185727 0.00452409 0.00522531 0.00045226 0.00389181 0.00064295 0.00165587 0.00126618 
0.03697394 0.01179709 0.00383950 0.00254683 0.00097667 0.00290776 0.01436239 0.00693217 0.05216014 0.00449839 0.00523140 0.00045721 0.00391349 0.00064182 0.00160763 0.00126533 
0.03789674 0.01190575 0.00369971 0.00252301 0.00096724 0.00284331 0.01448228 0.00692552 0.05239059 0.00447058 0.00523454 0.00046490 0.00393742 0.00064034 0.00155972 0.00126479 
0.03885499 0.01203474 0.00355781 0.00249760 0.00095891 0.00278070 0.01458495 0.00691468 0.05254570 0.00444062 0.00523454 0.00047536 0.00396332 0.00063853 0.00151235 0.00126457 
0.03984620 0.01218452 0.00341415 0.00247072 0.00095172 0.00272000 0.01466975 0.00689922 0.05262298 0.00440846 0.00523123 0.00048858 0.00399094 0.00063641 0.00146573 0.00126468 
0.04086772 0.01235543 0.00326908 0.00244249 0.00094567 0.00266130 0.01473608 0.00687877 0.05262036 0.00437404 0.00522441 0.00050456 0.00401998 0.00063399 0.00142006 0.00126512 
0.04191668 0.01254772 0.00312296 0.00241302 0.00094076 0.00260463 0.01478342 0.00685299 0.05253622 0.00433732 0.00521392 0.00052326 0.00405015 0.00063130 0.00137555 0.00126590 
0.04299005 0.01276155 0.00297618 0.00238244 0.00093701 0.00255002 0.01481132 0.00682155 0.05236942 0.00429826 0.00519958 0.00054462 0.00408115 0.00062834 0.00133240 0.00126701 
0.04408466 0.01299697 0.00282912 0.00235088 0.00093440 0.00249750 0.01481942 0.00678418 0.05211926 0.00425682 0.00518125 0.00056857 0.00411269 0.00062515 0.00129080 0.00126845 
0.04519716 0.01325392 0.00268218 0.00231847 0.00093293 0.00244707 0.01480743 0.00674064 0.05178553 0.00421298 0.00515877 0.00059500 0.00414444 0.00062175 0.00125095 0.00127023 
0.04632404 0.01353226 0.00253576 0.00228532 0.00093258 0.00239873 0.01477512 0.00669073 0.05136847 0.00416672 0.00513201 0.00062381 0.00417612 0.00061814 0.00121304 0.00127234 
0.04746170 0.01383169 0.00239029 0.00225158 0.00093334 0.00235246 0.01472238 0.00663430 0.05086879 0.00411802 0.00510085 0.00065486 0.00420740 0.00061437 0.00117725 0.00127476 
0.04860638 0.01415186 0.00224617 0.00221736 0.00093518 0.00230822 0.01464915 0.00657124 0.05028767 0.00406688 0.00506520 0.00068797 0.00423799 0.00061044 0.00114373 0.00127750 
0.04975423 0.01449227 0.00210384 0.00218280 0.00093808 0.00226598 0.01455548 0.00650148 0.04962673 0.00401330 0.00502495 0.00072298 0.00426759 0.00060637 0.00111267 0.00128053 
0.05090133 0.01485233 0.00196372 0.00214801 0.00094199 0.00222567 0.01444150 0.00642500 0.04888804 0.00395729 0.00498005 0.00075969 0.00429591 0.00060219 0.00108420 0.00128386 
0.05204365 0.01523134 0.00182625 0.00211314 0.00094689 0.00218725 0.01430741 0.00634183 0.04807408 0.00389888 0.00493045 0.00079787 0.00432267 0.00059792 0.00105847 0.00128746 
0.05317714 0.01562848 0.00169185 0.00207828 0.00095272 0.00215063 0.01415353 0.00625203 0.04718774 0.00383809 0.00487611 0.00083730 0.00434761 0.00059356 0.00103561 0.00129131 
0.05429769 0.01604286 0.00156097 0.00204357 0.00095946 0.00211574 0.01398022 0.00615574 0.04623231 0.00377498 0.00481703 0.00087773 0.00437046 0.00058914 0.00101574 0.00129540 
0.05540119 0.01647346 0.00143403 0.00200912 0.00096704 0.00208250 0.01378797 0.00605311 0.04521142 0.00370959 0.00475322 0.00091888 0.00439099 0.00058467 0.00099895 0.00129972 
0.05648351 0.01691919 0.00131146 0.00197505 0.00097541 0.00205082 0.01357732 0.00594436 0.04412907 0.00364199 0.00468472 0.00096048 0.00440898 0.00058017 0.00098534 0.00130423 
0.05754059 0.01737884 0.00119370 0.00194145 0.00098453 0.00202059 0.01334891 0.00582973 0.04298954 0.00357225 0.00461158 0.00100224 0.00442421 0.00057563 0.00097497 0.00130892 
0.05856839 0.01785115 0.00108116 0.00190843 0.00099432 0.00199173 0.01310345 0.00570952 0.04179743 0.00350045 0.00453389 0.00104386 0.00443650 0.00057108 0.00096792 0.00131377 
0.05956293 0.01833475 0.00097427 0.00187609 0.00100474 0.00196413 0.01284173 0.00558407 0.04055755 0.00342670 0.00445175 0.00108502 0.00444569 0.00056652 0.00096421 0.00131875 
0.06052037 0.01882822 0.00087343 0.00184454 0.00101571 0.00193768 0.01256459 0.00545374 0.03927497 0.00335109 0.00436528 0.00112541 0.00445162 0.00056195 0.00096389 0.00132383 
0.06143694 0.01933006 0.00077904 0.00181385 0.00102717 0.00191229 0.01227298 0.00531896 0.03795494 0.00327375 0.00427463 0.00116471 0.00445417 0.00055738 0.00096696 0.00132899 
0.06230906 0.01983872 0.00069149 0.00178412 0.00103906 0.00188785 0.01196788 0.00518015 0.03660286 0.00319480 0.00417998 0.00120260 0.00445325 0.00055281 0.00097341 0.00133421 
0.06313330 0.02035258 0.00061116 0.00175542 0.00105130 0.00186425 0.01165035 0.00503780 0.03522426 0.00311438 0.00408151 0.00123874 0.00444876 0.00054823 0.00098322 0.00133946 
0.06390643 0.02087001 0.00053842 0.00172784 0.00106384 0.00184141 0.01132148 0.00489239 0.03382475 0.00303263 0.00397945 0.00127281 0.00444066 0.00054366 0.00099636 0.00134470 
0.06462542 0.02138932 0.00047362 0.00170145 0.00107659 0.00181921 0.01098245 0.00474447 0.03241001 0.00294971 0.00387402 0.00130451 0.00442891 0.00053908 0.00101278 0.00134992 
0.06528752 0.02190880 0.00041710 0.00167631 0.00108949 0.00179758 0.01063443 0.00459456 0.03098571 0.00286578 0.00376547 0.00133351 0.00441351 0.00053449 0.00103240 0.00135509 
0.06589024 0.02242672 0.00036916 0.00165248 0.00110247 0.00177641 0.01027869 0.00444324 0.02955754 0.00278100 0.00365408 0.00135952 0.00439446 0.00052988 0.00105514 0.00136018 
0.06643135 0.02294135 0.00033011 0.00163003 0.00111547 0.00175562 0.00991648 0.00429107 0.02813112 0.00269557 0.00354014 0.00138225 0.00437181 0.00052525 0.00108089 0.00136515 
0.06690897 0.02345096 0.00030023 0.00160901 0.00112841 0.00173514 0.00954911 0.00413866 0.02671199 0.00260966 0.00342394 0.00140141 0.00434562 0.00052059 0.00110955 0.00137000 
0.06732155 0.02395382 0.00027978 0.00158947 0.00114123 0.00171490 0.00917790 0.00398658 0.02530557 0.00252347 0.00330580 0.00141676 0.00431597 0.00051589 0.00114098 0.00137469 
0.06766789 0.02444824 0.00026898 0.00157146 0.00115386 0.00169482 0.00880418 0.00383543 0.02391716 0.00243718 0.00318605 0.00142805 0.00428297 0.00051114 0.00117504 0.00137919 
0.06794716 0.02493254 0.00026805 0.00155501 0.00116625 0.00167486 0.00842929 0.00368582 0.02255187 0.00235100 0.00306504 0.00143507 0.00424673 0.00050633 0.00121158 0.00138349 
0.06815894 0.02540508 0.00027717 0.00154018 0.00117833 0.00165496 0.00805459 0.00353832 0.02121459 0.00226514 0.00294309 0.00143762 0.00420741 0.00050145 0.00125043 0.00138756 
0.06830319 0.02586428 0.00029650 0.00152698 0.00119004 0.00163507 0.00768140 0.00339353 0.01991001 0.00217978 0.00282059 0.00143554 0.00416515 0.00049651 0.00129140 0.00139138 
0.06838032 0.02630860 0.00032617 0.00151546 0.00120132 0.00161517 0.00731106 0.00325201 0.01864256 0.00209515 0.00269787 0.00142867 0.00412015 0.00049147 0.00133432 0.00139493 
0.06839116 0.02673659 0.00036626 0.00150565 0.00121213 0.00159523 0.00694488 0.00311431 0.01741639 0.00201145 0.00257531 0.00141692 0.00407260 0.00048635 0.00137898 0.00139819 
0.06833697 0.02714683 0.00041686 0.00149756 0.00122242 0.00157522 0.00658413 0.00298097 0.01623536 0.00192888 0.00245326 0.00140021 0.00402270 0.00048114 0.00142519 0.00140114 
0.06821949 0.02753802 0.00047799 0.00149122 0.00123213 0.00155515 0.00623008 0.00285251 0.01510300 0.00184765 0.00233210 0.00137848 0.00397067 0.00047583 0.00147272 0.00140378 
0.06804088 0.02790893 0.00054966 0.00148666 0.00124123 0.00153500 0.00588395 0.00272942 0.01402253 0.00176796 0.00221219 0.00135174 0.00391676 0.00047041 0.00152136 0.00140607 
0.06780376 0.02825842 0.00063183 0.00148388 0.00124968 0.00151479 0.00554690 0.00261214 0.01299682 0.00169001 0.00209388 0.00132001 0.00386119 0.00046490 0.00157089 0.00140803 
0.06751121 0.02858545 0.00072444 0.00148290 0.00125745 0.00149452 0.00522007 0.00250112 0.01202839 0.00161401 0.00197752 0.00128335 0.00380423 0.00045928 0.00162109 0.00140962 
0.06716676 0.02888910 0.00082738 0.00148375 0.00126449 0.00147422 0.00490453 0.00239674 0.01111940 0.00154013 0.00186345 0.00124187 0.00374613 0.00045358 0.00167173 0.00141086 
0.06677436 0.02916854 0.00094053 0.00148641 0.00127079 0.00145392 0.00460130 0.00229937 0.01027163 0.00146857 0.00175202 0.00119571 0.00368715 0.00044778 0.00172259 0.00141172 
0.06633840 0.02942306 0.00106370 0.00149091 0.00127633 0.00143365 0.00431133 0.00220933 0.00948648 0.00139950 0.00164353 0.00114504 0.00362756 0.00044191 0.00177343 0.00141221 
0.06586368 0.02965208 0.00119668 0.00149725 0.00128109 0.00141345 0.00403550 0.00212689 0.00876501 0.00133309 0.00153831 0.00109010 0.00356763 0.00043598 0.00182404 0.00141233 
0.06535540 0.02985512 0.00133923 0.00150543 0.00128505 0.00139338 0.00377463 0.00205231 0.00810789 0.00126951 0.00143663 0.00103114 0.00350761 0.00043001 0.00187420 0.00141207 
0.06481913 0.03003185 0.00149106 0.00151545 0.00128820 0.00137347 0.00352946 0.00198578 0.00751539 0.00120891 0.00133878 0.00096846 0.00344779 0.00042400 0.00192370 0.00141144 
0.06426079 0.03018203 0.00165184 0.00152730 0.00129055 0.00135379 0.00330065 0.00192744 0.00698747 0.00115143 0.00124502 0.00090240 0.00338841 0.00041800 0.00197232 0.00141045 
0.06368664 0.03030558 0.00182123 0.00154099 0.00129209 0.00133441 0.00308877 0.00187742 0.00652370 0.00109721 0.00115559 0.00083333 0.00332975 0.00041202 0.00201987 0.00140909 
0.06310321 0.03040252 0.00199882 0.00155651 0.00129282 0.00131537 0.00289433 0.00183578 0.00612332 0.00104636 0.00107070 0.00076166 0.00327204 0.00040610 0.00206614 0.00140738 
0.06251731 0.03047301 0.00218418 0.00157384 0.00129275 0.00129676 0.00271772 0.00180253 0.00578521 0.00099900 0.00099055 0.00068784 0.00321555 0.00040027 0.00211097 0.00140533 
0.06193599 0.03051731 0.00237685 0.00159298 0.00129190 0.00127863 0.00255928 0.00177765 0.00550797 0.00095522 0.00091533 0.00061235 0.00316049 0.00039456 0.00215418 0.00140295 
0.06136646 0.03053583 0.00257633 0.00161390 0.00129028 0.00126107 0.00241924 0.00176108 0.00528987 0.00091511 0.00084518 0.00053569 0.00310711 0.00038902 0.00219561 0.00140026 
0.06081610 0.03052908 0.00278208 0.00163659 0.00128791 0.00124414 0.00229774 0.00175269 0.00512890 0.00087874 0.00078023 0.00045840 0.00305561 0.00038369 0.00223511 0.00139727 
0.06029240 0.03049768 0.00299354 0.00166101 0.00128482 0.00122791 0.00219484 0.00175234 0.00502278 0.00084617 0.00072060 0.00038104 0.00300620 0.00037861 0.00227255 0.00139400 
0.05980289 0.03044238 0.00321011 0.00168715 0.00128103 0.00121245 0.00211050 0.00175981 0.00496899 0.00081745 0.00066635 0.00030420 0.00295908 0.00037383 0.00230780 0.00139046 
0.05935515 0.03036400 0.00343117 0.00171498 0.00127657 0.00119783 0.00204462 0.00177489 0.00496477 0.00079260 0.00061756 0.00022849 0.00291441 0.00036941 0.00234076 0.00138669 
0.05895669 0.03026350 0.00365608 0.00174445 0.00127149 0.00118412 0.00199698 0.00179727 0.00500718 0.00077164 0.00057424 0.00015451 0.00287237 0.00036540 0.00237135 0.00138270 
0.05861499 0.03014191 0.00388415 0.00177553 0.00126580 0.00117139 0.00196729 0.00182666 0.00509307 0.00075457 0.00053641 0.00008291 0.00283309 0.00036185 0.00239949 0.00137851 
0.05833735 0.03000035 0.00411469 0.00180816 0.00125956 0.00115969 0.00195518 0.00186269 0.00521916 0.00074139 0.00050405 0.00001432 0.00279672 0.00035881 0.00242512 0.00137415 
0.05813094 0.02984002 0.00434698 0.00184231 0.00125280 0.00114909 0.00196021 0.00190500 0.00538203 0.00073206 0.00047712 0.00005060 0.00276337 0.00035635 0.00244820 0.00136965 
0.05800266 0.02966219 0.00458029 0.00187792 0.00124556 0.00113963 0.00198183 0.00195316 0.00557815 0.00072655 0.00045556 0.00011121 0.00273314 0.00035451 0.00246871 0.00136502 
0.05795915 0.02946819 0.00481386 0.00191492 0.00123790 0.00113137 0.00201946 0.00200673 0.00580391 0.00072480 0.00043927 0.00016687 0.00270611 0.00035337 0.00248663 0.00136030 
0.05800674 0.02925943 0.00504694 0.00195326 0.00122986 0.00112436 0.00207241 0.00206526 0.00605565 0.00072675 0.00042814 0.00021694 0.00268234 0.00035296 0.00250199 0.00135552 
0.05815135 0.02903735 0.00527874 0.00199285 0.00122149 0.00111862 0.00213996 0.00212825 0.00632968 0.00073231 0.00042205 0.00026079 0.00266189 0.00035335 0.00251480 0.00135069 
0.05839851 0.02880343 0.00550850 0.00203362 0.00121283 0.00111419 0.00222130 0.00219520 0.00662230 0.00074140 0.00042084 0.00029783 0.00264478 0.00035459 0.00252511 0.00134585 
0.05875325 0.02855917 0.00573543 0.00207550 0.00120394 0.00111109 0.00231559 0.00226559 0.00692983 0.00075390 0.00042433 0.00032746 0.00263104 0.00035673 0.00253297 0.00134103 
0.05922011 0.02830613 0.00595875 0.00211838 0.00119486 0.00110936 0.00242192 0.00233889 0.00724865 0.00076969 0.00043235 0.00034912 0.00262065 0.00035981 0.00253846 0.00133625 
0.05980308 0.02804584 0.00617768 0.00216218 0.00118565 0.00110899 0.00253934 0.00241455 0.00757518 0.00078866 0.00044467 0.00036229 0.00261360 0.00036389 0.00254166 0.00133155 
0.06050555 0.02777987 0.00639145 0.00220680 0.00117636 0.00111000 0.00266687 0.00249203 0.00790596 0.00081065 0.00046108 0.00036647 0.00260985 0.00036901 0.00254268 0.00132693 
0.06133027 0.02750976 0.00659929 0.00225213 0.00116703 0.00111238 0.00280346 0.00257078 0.00823763 0.00083552 0.00048134 0.00036119 0.00260935 0.00037519 0.00254163 0.00132244 
0.06227935 0.02723706 0.00680046 0.00229807 0.00115772 0.00111613 0.00294809 0.00265025 0.00856694 0.00086311 0.00050519 0.00034605 0.00261203 0.00038248 0.00253863 0.00131810 
0.06335421 0.02696327 0.00699422 0.00234448 0.00114847 0.00112122 0.00309966 0.00272989 0.00889083 0.00089325 0.00053238 0.00032068 0.00261782 0.00039090 0.00253384 0.00131393 
0.06455555 0.02668991 0.00717987 0.00239126 0.00113932 0.00112765 0.00325708 0.00280917 0.00920640 0.00092576 0.00056263 0.00028477 0.00262660 0.00040046 0.00252738 0.00130996 
0.06588334 0.02641840 0.00735671 0.00243828 0.00113033 0.00113537 0.00341926 0.00288756 0.00951092 0.00096046 0.00059566 0.00023803 0.00263829 0.00041119 0.00251944 0.00130620 
0.06733680 0.02615018 0.00752409 0.00248540 0.00112154 0.00114435 0.00358508 0.00296455 0.00980188 0.00099716 0.00063119 0.00018028 0.00265274 0.00042309 0.00251016 0.00130268 
0.06891438 0.02588659 0.00768136 0.00253250 0.00111298 0.00115455 0.00375343 0.00303965 0.01007698 0.00103566 0.00066891 0.00011136 0.00266982 0.00043616 0.00249972 0.00129942 
0.07061378 0.02562895 0.00782794 0.00257943 0.00110470 0.00116592 0.00392323 0.00311237 0.01033417 0.00107575 0.00070854 0.00003119 0.00268939 0.00045039 0.00248830 0.00129643 
0.07243189 0.02537848 0.00796326 0.00262606 0.00109674 0.00117840 0.00409337 0.00318227 0.01057160 0.00111725 0.00074978 0.00006026 0.00271129 0.00046577 0.00247609 0.00129374 
0.07436488 0.02513636 0.00808680 0.00267224 0.00108912 0.00119194 0.00426279 0.00324891 0.01078770 0.00115993 0.00079233 0.00016293 0.00273535 0.00048228 0.00246327 0.00129135 
0.07640812 0.02490369 0.00819809 0.00271782 0.00108188 0.00120646 0.00443046 0.00331190 0.01098116 0.00120359 0.00083588 0.00027671 0.00276139 0.00049988 0.00245002 0.00128928 
0.07855624 0.02468147 0.00829668 0.00276266 0.00107505 0.00122190 0.00459535 0.00337087 0.01115091 0.00124802 0.00088016 0.00040142 0.00278923 0.00051853 0.00243655 0.00128755 
0.08080314 0.02447065 0.00838218 0.00280661 0.00106866 0.00123817 0.00475650 0.00342547 0.01129616 0.00129301 0.00092487 0.00053681 0.00281868 0.00053819 0.00242302 0.00128615 
0.08314200 0.02427206 0.00845428 0.00284953 0.00106272 0.00125520 0.00491296 0.00347540 0.01141638 0.00133834 0.00096972 0.00068255 0.00284954 0.00055879 0.00240963 0.00128510 
0.08556531 0.02408647 0.00851267 0.00289126 0.00105726 0.00127291 0.00506384 0.00352039 0.01151133 0.00138381 0.00101445 0.00083825 0.00288161 0.00058028 0.00239656 0.00128440 
0.08806493 0.02391453 0.00855712 0.00293167 0.00105229 0.00129121 0.00520831 0.00356020 0.01158101 0.00142922 0.00105877 0.00100346 0.00291467 0.00060258 0.00238399 0.00128406 
0.09063208 0.02375682 0.00858748 0.00297060 0.00104782 0.00131000 0.00534557 0.00359465 0.01162569 0.00147435 0.00110245 0.00117764 0.00294853 0.00062560 0.00237208 0.00128407 
0.09325741 0.02361380 0.00860361 0.00300792 0.00104387 0.00132920 0.00547490 0.00362357 0.01164591 0.00151902 0.00114523 0.00136021 0.00298296 0.00064927 0.00236101 0.00128445 
0.09593103 0.02348585 0.00860546 0.00304350 0.00104045 0.00134872 0.00559563 0.00364685 0.01164247 0.00156302 0.00118688 0.00155050 0.00301776 0.00067347 0.00235092 0.00128517 
0.09864256 0.02337325 0.00859303 0.00307719 0.00103754 0.00136846 0.00570715 0.00366441 0.01161638 0.00160618 0.00122718 0.00174781 0.00305271 0.00069812 0.00234197 0.00128625 
0.10138122 0.02327619 0.00856639 0.00310888 0.00103517 0.00138833 0.00580893 0.00367621 0.01156892 0.00164830 0.00126593 0.00195136 0.00308761 0.00072310 0.00233428 0.00128767 
0.10413580 0.02319475 0.00852565 0.00313845 0.00103331 0.00140823 0.00590051 0.00368226 0.01150158 0.00168923 0.00130293 0.00216033 0.00312224 0.00074828 0.00232799 0.00128943 
0.10689480 0.02312891 0.00847101 0.00316578 0.00103197 0.00142808 0.00598149 0.00368260 0.01141606 0.00172878 0.00133802 0.00237384 0.00315639 0.00077356 0.00232321 0.00129151 
0.10964646 0.02307859 0.00840271 0.00319077 0.00103113 0.00144778 0.00605155 0.00367732 0.01131426 0.00176681 0.00137104 0.00259099 0.00318987 0.00079880 0.00232003 0.00129390 
0.11237882 0.02304358 0.00832106 0.00321332 0.00103079 0.00146724 0.00611045 0.00366653 0.01119828 0.00180316 0.00140185 0.00281080 0.00322247 0.00082388 0.00231855 0.00129659 
0.11507977 0.02302362 0.00822643 0.00323334 0.00103092 0.00148638 0.00615800 0.00365040 0.01107036 0.00183771 0.00143033 0.00303231 0.00325401 0.00084865 0.00231884 0.00129957 
0.11773716 0.02301833 0.00811925 0.00325075 0.00103151 0.00150511 0.00619413 0.00362912 0.01093290 0.00187032 0.00145637 0.00325448 0.00328430 0.00087299 0.00232095 0.00130282 
0.12033883 0.02302726 0.00800000 0.00326550 0.00103254 0.00152336 0.00621880 0.00360292 0.01078845 0.00190087 0.00147989 0.00347628 0.00331316 0.00089676 0.00232494 0.00130631 
0.12287267 0.02304990 0.00786922 0.00327751 0.00103399 0.00154105 0.00623207 0.00357208 0.01063966 0.00192927 0.00150083 0.00369666 0.00334043 0.00091981 0.00233083 0.00131004 
0.12532673 0.02308564 0.00772753 0.00328675 0.00103582 0.00155810 0.00623406 0.00353688 0.01048927 0.00195541 0.00151913 0.00391457 0.00336595 0.00094202 0.00233863 0.00131398 
0.12768925 0.02313381 0.00757556 0.00329319 0.00103801 0.00157446 0.00622499 0.00349765 0.01034011 0.00197923 0.00153478 0.00412893 0.00338956 0.00096324 0.00234836 0.00131810 
0.12994874 0.02319368 0.00741403 0.00329679 0.00104053 0.00159005 0.00620512 0.00345475 0.01019506 0.00200064 0.00154775 0.00433870 0.00341113 0.00098335 0.00235998 0.00132240 
0.13209406 0.02326445 0.00724368 0.00329755 0.00104334 0.00160483 0.00617478 0.00340855 0.01005702 0.00201959 0.00155805 0.00454283 0.00343053 0.00100221 0.00237348 0.00132684 
0.13411445 0.02334525 0.00706532 0.00329548 0.00104643 0.00161875 0.00613439 0.00335946 0.00992893 0.00203605 0.00156571 0.00474031 0.00344765 0.00101971 0.00238882 0.00133140 
0.13599962 0.02343520 0.00687980 0.00329059 0.00104974 0.00163176 0.00608442 0.00330790 0.00981370 0.00204997 0.00157077 0.00493014 0.00346238 0.00103571 0.00240593 0.00133605 
0.13773981 0.02353332 0.00668798 0.00328291 0.00105324 0.00164383 0.00602538 0.00325431 0.00971423 0.00206133 0.00157329 0.00511137 0.00347463 0.00105011 0.00242474 0.00134078 
0.13932582 0.02363863 0.00649080 0.00327248 0.00105691 0.00165492 0.00595787 0.00319914 0.00963337 0.00207014 0.00157334 0.00528309 0.00348434 0.00106280 0.00244518 0.00134555 
0.14074909 0.02375008 0.00628921 0.00325935 0.00106069 0.00166502 0.00588252 0.00314286 0.00957388 0.00207640 0.00157100 0.00544443 0.00349143 0.00107369 0.00246716 0.00135034 
0.14200175 0.02386661 0.00608418 0.00324360 0.00106456 0.00167410 0.00580001 0.00308594 0.00953846 0.00208013 0.00156639 0.00559459 0.00349586 0.00108269 0.00249056 0.00135513 
0.14307665 0.02398713 0.00587672 0.00322530 0.00106847 0.00168216 0.00571108 0.00302887 0.00952968 0.00208135 0.00155961 0.00573283 0.00349760 0.00108973 0.00251527 0.00135989 
0.14396743 0.02411051 0.00566787 0.00320453 0.00107238 0.00168919 0.00561650 0.00297212 0.00955001 0.00208011 0.00155079 0.00585848 0.00349663 0.00109475 0.00254118 0.00136460 
0.14466851 0.02423562 0.00545867 0.00318141 0.00107626 0.00169521 0.00551705 0.00291618 0.00960175 0.00207647 0.00154008 0.00597095 0.00349295 0.00109769 0.00256814 0.00136923 
0.14517519 0.02436131 0.00525018 0.00315605 0.00108008 0.00170021 0.00541359 0.00286153 0.00968705 0.00207049 0.00152762 0.00606972 0.00348656 0.00109851 0.00259602 0.00137376 
0.14548360 0.02448641 0.00504347 0.00312856 0.00108379 0.00170422 0.00530695 0.00280863 0.00980787 0.00206225 0.00151356 0.00615436 0.00347751 0.00109720 0.00262469 0.00137816 
0.14559082 0.02460977 0.00483961 0.00309907 0.00108735 0.00170726 0.00519802 0.00275797 0.00996601 0.00205183 0.00149808 0.00622456 0.00346582 0.00109375 0.00265398 0.00138242 
0.14549482 0.02473022 0.00463968 0.00306774 0.00109074 0.00170937 0.00508769 0.00270998 0.01016301 0.00203934 0.00148135 0.00628007 0.00345156 0.00108815 0.00268375 0.00138650 
0.14519448 0.02484661 0.00444473 0.00303471 0.00109392 0.00171058 0.00497686 0.00266511 0.01040025 0.00202487 0.00146354 0.00632075 0.00343480 0.00108044 0.00271385 0.00139040 
0.14468967 0.02495778 0.00425584 0.00300012 0.00109686 0.00171094 0.00486641 0.00262377 0.01067882 0.00200854 0.00144484 0.00634657 0.00341563 0.00107065 0.00274412 0.00139410 
0.14398117 0.02506260 0.00407404 0.00296416 0.00109953 0.00171049 0.00475726 0.00258637 0.01099962 0.00199048 0.00142543 0.00635761 0.00339415 0.00105883 0.00277441 0.00139756 
0.14307071 0.02515995 0.00390036 0.00292697 0.00110189 0.00170929 0.00465030 0.00255329 0.01136326 0.00197082 0.00140551 0.00635404 0.00337047 0.00104507 0.00280457 0.00140078 
0.14196095 0.02524875 0.00373581 0.00288874 0.00110394 0.00170740 0.00454640 0.00252488 0.01177010 0.00194969 0.00138525 0.00633614 0.00334474 0.00102943 0.00283445 0.00140374 
0.14065549 0.02532791 0.00358135 0.00284963 0.00110563 0.00170489 0.00444642 0.00250146 0.01222027 0.00192724 0.00136484 0.00630432 0.00331709 0.00101204 0.00286390 0.00140643 
0.13915884 0.02539641 0.00343794 0.00280983 0.00110695 0.00170182 0.00435120 0.00248335 0.01271358 0.00190361 0.00134448 0.00625906 0.00328768 0.00099300 0.00289278 0.00140883 
0.13747637 0.02545323 0.00330648 0.00276952 0.00110788 0.00169827 0.00426155 0.00247080 0.01324959 0.00187895 0.00132435 0.00620098 0.00325668 0.00097245 0.00292097 0.00141094 
0.13561432 0.02549740 0.00318785 0.00272886 0.00110840 0.00169431 0.00417825 0.00246405 0.01382761 0.00185344 0.00130462 0.00613078 0.00322426 0.00095054 0.00294834 0.00141274 
0.13357978 0.02552801 0.00308286 0.00268803 0.00110851 0.00169003 0.00410204 0.00246331 0.01444664 0.00182722 0.00128546 0.00604927 0.00319064 0.00092745 0.00297477 0.00141422 
0.13138060 0.02554418 0.00299231 0.00264722 0.00110818 0.00168550 0.00403362 0.00246875 0.01510542 0.00180045 0.00126706 0.00595736 0.00315599 0.00090333 0.00300015 0.00141537 
0.12902540 0.02554506 0.00291690 0.00260660 0.00110741 0.00168082 0.00397364 0.00248051 0.01580245 0.00177330 0.00124957 0.00585603 0.00312055 0.00087839 0.00302439 0.00141620 
0.12652351 0.02552988 0.00285733 0.00256632 0.00110620 0.00167606 0.00392270 0.00249868 0.01653594 0.00174594 0.00123314 0.00574638 0.00308452 0.00085284 0.00304740 0.00141670 
0.12388492 0.02549793 0.00281419 0.00252657 0.00110454 0.00167132 0.00388137 0.00252332 0.01730384 0.00171852 0.00121792 0.00562956 0.00304814 0.00082688 0.00306910 0.00141686 
0.12112022 0.02544853 0.00278806 0.00248748 0.00110243 0.00166668 0.00385013 0.00255447 0.01810388 0.00169121 0.00120405 0.00550680 0.00301164 0.00080074 0.00308944 0.00141669 
0.11824057 0.02538108 0.00277941 0.00244922 0.00109988 0.00166224 0.00382943 0.00259211 0.01893353 0.00166417 0.00119165 0.00537941 0.00297526 0.00077465 0.00310837 0.00141618 
0.11525764 0.02529506 0.00278868 0.00241193 0.00109690 0.00165807 0.00381965 0.00263620 0.01979005 0.00163755 0.00118084 0.00524874 0.00293926 0.00074886 0.00312585 0.00141534 
0.11218351 0.02519000 0.00281623 0.00237574 0.00109348 0.00165428 0.00382110 0.00268665 0.02067047 0.00161151 0.00117173 0.00511621 0.00290388 0.00072361 0.00314185 0.00141418 
0.10903069 0.02506552 0.00286234 0.00234077 0.00108965 0.00165093 0.00383403 0.00274334 0.02157164 0.00158620 0.00116440 0.00498325 0.00286937 0.00069915 0.00315637 0.00141269 
0.10581198 0.02492130 0.00292722 0.00230715 0.00108542 0.00164813 0.00385864 0.00280612 0.02249021 0.00156175 0.00115893 0.00485134 0.00283599 0.00067574 0.00316940 0.00141089 
0.10254044 0.02475712 0.00301104 0.00227499 0.00108080 0.00164594 0.00389503 0.00287481 0.02342268 0.00153832 0.00115541 0.00472198 0.00280399 0.00065362 0.00318097 0.00140878 
0.09922932 0.02457282 0.00311385 0.00224437 0.00107582 0.00164445 0.00394328 0.00294917 0.02436538 0.00151602 0.00115388 0.00459668 0.00277363 0.00063305 0.00319110 0.00140638 
0.09589201 0.02436835 0.00323565 0.00221538 0.00107050 0.00164373 0.00400335 0.00302896 0.02531451 0.00149500 0.00115438 0.00447693 0.00274516 0.00061429 0.00319984 0.00140368 
0.09254197 0.02414373 0.00337636 0.00218809 0.00106485 0.00164386 0.00407517 0.00311390 0.02626619 0.00147535 0.00115695 0.00436424 0.00271882 0.00059758 0.00320724 0.00140072 
0.08919263 0.02389909 0.00353584 0.00216258 0.00105891 0.00164490 0.00415859 0.00320366 0.02721641 0.00145719 0.00116160 0.00426007 0.00269487 0.00058315 0.00321336 0.00139749 
0.08585739 0.02363465 0.00371385 0.00213888 0.00105271 0.00164691 0.00425340 0.00329793 0.02816111 0.00144063 0.00116835 0.00416585 0.00267354 0.00057125 0.00321827 0.00139401 
0.08254948 0.02335072 0.00391009 0.00211704 0.00104628 0.00164996 0.00435932 0.00339633 0.02909618 0.00142574 0.00117717 0.00408297 0.00265506 0.00056209 0.00322207 0.00139030 
0.07928197 0.02304771 0.00412419 0.00209708 0.00103963 0.00165409 0.00447601 0.00349847 0.03001748 0.00141261 0.00118806 0.00401277 0.00263966 0.00055588 0.00322485 0.00138638 
0.07606768 0.02272614 0.00435570 0.00207902 0.00103282 0.00165935 0.00460307 0.00360396 0.03092087 0.00140132 0.00120098 0.00395652 0.00262755 0.00055283 0.00322671 0.00138225 
0.07291909 0.02238663 0.00460409 0.00206287 0.00102587 0.00166578 0.00474004 0.00371236 0.03180223 0.00139191 0.00121589 0.00391540 0.00261893 0.00055312 0.00322776 0.00137795 
0.06984833 0.02202989 0.00486879 0.00204861 0.00101881 0.00167341 0.00488642 0.00382324 0.03265748 0.00138445 0.00123273 0.00389051 0.00261400 0.00055690 0.00322811 0.00137348 
0.06686711 0.02165677 0.00514913 0.00203624 0.00101169 0.00168227 0.00504163 0.00393614 0.03348260 0.00137896 0.00125143 0.00388287 0.00261292 0.00056434 0.00322788 0.00136886 
0.06398666 0.02126819 0.00544440 0.00202571 0.00100453 0.00169239 0.00520506 0.00405061 0.03427366 0.00137548 0.00127193 0.00389338 0.00261588 0.00057557 0.00322720 0.00136411 
0.06121768 0.02086518 0.00575381 0.00201700 0.00099737 0.00170377 0.00537606 0.00416615 0.03502686 0.00137402 0.00129414 0.00392281 0.00262301 0.00059068 0.00322619 0.00135926 
0.05857033 0.02044890 0.00607653 0.00201006 0.00099025 0.00171641 0.00555392 0.00428231 0.03573850 0.00137459 0.00131796 0.00397184 0.00263446 0.00060977 0.00322498 0.00135432 
0.05605411 0.02002059 0.00641165 0.00200483 0.00098320 0.00173032 0.00573791 0.00439859 0.03640506 0.00137718 0.00134330 0.00404100 0.00265032 0.00063290 0.00322369 0.00134931 
0.05367791 0.01958159 0.00675822 0.00200124 0.00097626 0.00174549 0.00592726 0.00451451 0.03702319 0.00138178 0.00137004 0.00413069 0.00267072 0.00066011 0.00322245 0.00134425 
0.05144992 0.01913337 0.00711525 0.00199924 0.00096947 0.00176189 0.00612116 0.00462959 0.03758971 0.00138836 0.00139807 0.00424118 0.00269571 0.00069141 0.00322138 0.00133917 
0.04937760 0.01867747 0.00748168 0.00199873 0.00096284 0.00177951 0.00631881 0.00474336 0.03810170 0.00139687 0.00142726 0.00437259 0.00272536 0.00072680 0.00322059 0.00133408 
0.04746769 0.01821553 0.00785642 0.00199963 0.00095643 0.00179830 0.00651934 0.00485534 0.03855643 0.00140728 0.00145749 0.00452488 0.00275971 0.00076624 0.00322020 0.00132899 
0.04572612 0.01774929 0.00823835 0.00200187 0.00095025 0.00181822 0.00672192 0.00496507 0.03895145 0.00141953 0.00148863 0.00469788 0.00279878 0.00080967 0.00322030 0.00132394 
0.04415808 0.01728057 0.00862630 0.00200534 0.00094433 0.00183923 0.00692568 0.00507210 0.03928454 0.00143354 0.00152054 0.00489126 0.00284257 0.00085700 0.00322100 0.00131894 
0.04276791 0.01681127 0.00901909 0.00200994 0.00093871 0.00186127 0.00712974 0.00517600 0.03955380 0.00144925 0.00155309 0.00510454 0.00289104 0.00090810 0.00322238 0.00131401 
0.04155916 0.01634336 0.00941550 0.00201558 0.00093342 0.00188426 0.00733323 0.00527636 0.03975759 0.00146657 0.00158614 0.00533709 0.00294415 0.00096285 0.00322452 0.00130916 
0.04053454 0.01587890 0.00981428 0.00202216 0.00092846 0.00190815 0.00753530 0.00537276 0.03989458 0.00148540 0.00161955 0.00558814 0.00300183 0.00102108 0.00322749 0.00130442 
0.03969593 0.01541999 0.01021419 0.00202957 0.00092387 0.00193285 0.00773508 0.00546482 0.03996377 0.00150565 0.00165318 0.00585676 0.00306399 0.00108258 0.00323133 0.00129981 
0.03904440 0.01496881 0.01061397 0.00203771 0.00091966 0.00195827 0.00793174 0.00555220 0.03996445 0.00152720 0.00168689 0.00614190 0.00313051 0.00114716 0.00323609 0.00129533 
0.03858017 0.01452755 0.01101234 0.00204647 0.00091586 0.00198432 0.00812446 0.00563455 0.03989627 0.00154996 0.00172054 0.00644237 0.00320126 0.00121456 0.00324180 0.00129101 
0.03830266 0.01409847 0.01140802 0.00205576 0.00091247 0.00201090 0.00831243 0.00571157 0.03975917 0.00157380 0.00175400 0.00675684 0.00327607 0.00128453 0.00324847 0.00128685 
0.03821048 0.01368384 0.01179976 0.00206546 0.00090951 0.00203790 0.00849490 0.00578297 0.03955346 0.00159860 0.00178714 0.00708388 0.00335477 0.00135678 0.00325610 0.00128289 
0.03830145 0.01328597 0.01218628 0.00207549 0.00090699 0.00206522 0.00867112 0.00584850 0.03927976 0.00162423 0.00181984 0.00742194 0.00343715 0.00143102 0.00326468 0.00127912 
0.03857262 0.01290716 0.01256634 0.00208574 0.00090491 0.00209273 0.00884039 0.00590794 0.03893904 0.00165057 0.00185196 0.00776936 0.00352300 0.00150692 0.00327418 0.00127556 
0.03902030 0.01254971 0.01293869 0.00209613 0.00090328 0.00212032 0.00900205 0.00596109 0.03853258 0.00167749 0.00188339 0.00812441 0.00361207 0.00158414 0.00328455 0.00127223 
0.03964005 0.01221591 0.01330214 0.00210655 0.00090210 0.00214787 0.00915548 0.00600779 0.03806199 0.00170485 0.00191401 0.00848526 0.00370409 0.00166235 0.00329574 0.00126913 
0.04042677 0.01190803 0.01365549 0.00211692 0.00090137 0.00217523 0.00930011 0.00604792 0.03752920 0.00173253 0.00194373 0.00885003 0.00379880 0.00174118 0.00330767 0.00126627 
0.04137468 0.01162831 0.01399759 0.00212717 0.00090109 0.00220230 0.00943542 0.00608136 0.03693644 0.00176038 0.00197244 0.00921678 0.00389590 0.00182025 0.00332026 0.00126366 
0.04247737 0.01137892 0.01432731 0.00213721 0.00090125 0.00222892 0.00956094 0.00610806 0.03628623 0.00178830 0.00200005 0.00958353 0.00399507 0.00189920 0.00333341 0.00126132 
0.04372783 0.01116199 0.01464358 0.00214697 0.00090184 0.00225496 0.00967624 0.00612799 0.03558139 0.00181613 0.00202647 0.00994827 0.00409600 0.00197763 0.00334700 0.00125924 
0.04511851 0.01097958 0.01494534 0.00215638 0.00090286 0.00228030 0.00978097 0.00614114 0.03482499 0.00184377 0.00205163 0.01030897 0.00419834 0.00205517 0.00336091 0.00125743 
0.04664135 0.01083366 0.01523161 0.00216538 0.00090428 0.00230479 0.00987483 0.00614755 0.03402037 0.00187108 0.00207546 0.01066364 0.00430176 0.00213142 0.00337501 0.00125589 
0.04828779 0.01072610 0.01550144 0.00217390 0.00090610 0.00232830 0.00995757 0.00614730 0.03317109 0.00189795 0.00209790 0.01101026 0.00440588 0.00220600 0.00338916 0.00125464 
0.05004886 0.01065867 0.01575394 0.00218189 0.00090830 0.00235069 0.01002901 0.00614047 0.03228093 0.00192427 0.00211889 0.01134686 0.00451034 0.00227854 0.00340318 0.00125367 
0.05191521 0.01063304 0.01598827 0.00218931 0.00091086 0.00237184 0.01008901 0.00612719 0.03135387 0.00194994 0.00213839 0.01167154 0.00461477 0.00234866 0.00341693 0.00125298 
0.05387715 0.01065072 0.01620366 0.00219611 0.00091375 0.00239162 0.01013752 0.00610764 0.03039406 0.00197484 0.00215637 0.01198243 0.00471880 0.00241600 0.00343024 0.00125257 
0.05592468 0.01071309 0.01639939 0.00220224 0.00091697 0.00240989 0.01017453 0.00608200 0.02940580 0.00199889 0.00217280 0.01227775 0.00482204 0.00248022 0.00344292 0.00125244 
0.05804758 0.01082140 0.01657482 0.00220768 0.00092048 0.00242655 0.01020010 0.00605048 0.02839352 0.00202200 0.00218765 0.01255581 0.00492411 0.00254098 0.00345481 0.00125259 
0.06023541 0.01097672 0.01672937 0.00221238 0.00092427 0.00244147 0.01021434 0.00601334 0.02736177 0.00204409 0.00220093 0.01281503 0.00502463 0.00259797 0.00346572 0.00125301 
0.06247760 0.01117996 0.01686252 0.00221633 0.00092830 0.00245454 0.01021743 0.00597085 0.02631515 0.00206510 0.00221263 0.01305393 0.00512323 0.00265088 0.00347548 0.00125371 
0.06476348 0.01143186 0.01697382 0.00221948 0.00093255 0.00246567 0.01020959 0.00592330 0.02525833 0.00208496 0.00222275 0.01327119 0.00521952 0.00269944 0.00348390 0.00125466 
0.06708231 0.01173295 0.01706292 0.00222183 0.00093699 0.00247475 0.01019112 0.00587103 0.02419602 0.00210361 0.00223131 0.01346559 0.00531315 0.00274341 0.00349080 0.00125588 
0.06942334 0.01208360 0.01712952 0.00222336 0.00094160 0.00248171 0.01016235 0.00581436 0.02313292 0.00212102 0.00223832 0.01363609 0.00540375 0.00278255 0.00349601 0.00125735 
0.07177588 0.01248396 0.01717340 0.00222404 0.00094635 0.00248646 0.01012366 0.00575366 0.02207370 0.00213715 0.00224382 0.01378181 0.00549098 0.00281667 0.00349937 0.00125906 
0.07412931 0.01293400 0.01719442 0.00222387 0.00095121 0.00248893 0.01007550 0.00568931 0.02102299 0.00215197 0.00224784 0.01390203 0.00557449 0.00284560 0.00350071 0.00126101 
0.07647313 0.01343346 0.01719251 0.00222282 0.00095615 0.00248906 0.01001835 0.00562170 0.01998536 0.00216547 0.00225041 0.01399622 0.00565397 0.00286921 0.00349989 0.00126317 
0.07879703 0.01398188 0.01716768 0.00222089 0.00096115 0.00248682 0.00995273 0.00555124 0.01896527 0.00217765 0.00225159 0.01406402 0.00572911 0.00288737 0.00349675 0.00126556 
0.08109089 0.01457860 0.01712001 0.00221807 0.00096618 0.00248216 0.00987920 0.00547834 0.01796705 0.00218850 0.00225143 0.01410526 0.00579961 0.00290002 0.00349117 0.00126814 
0.08334485 0.01522273 0.01704969 0.00221436 0.00097121 0.00247506 0.00979837 0.00540345 0.01699490 0.00219803 0.00224997 0.01411997 0.00586520 0.00290712 0.00348304 0.00127091 
0.08554935 0.01591317 0.01695694 0.00220973 0.00097622 0.00246551 0.00971088 0.00532698 0.01605285 0.00220628 0.00224728 0.01410837 0.00592563 0.00290865 0.00347226 0.00127386 
0.08769514 0.01664862 0.01684208 0.00220419 0.00098118 0.00245350 0.00961737 0.00524937 0.01514473 0.00221326 0.00224342 0.01407087 0.00598067 0.00290465 0.00345873 0.00127697 
0.08977334 0.01742755 0.01670550 0.00219773 0.00098607 0.00243906 0.00951853 0.00517108 0.01427418 0.00221901 0.00223846 0.01400807 0.00603009 0.00289517 0.00344238 0.00128024 
0.09177545 0.01824823 0.01654768 0.00219034 0.00099086 0.00242221 0.00941509 0.00509253 0.01344460 0.00222359 0.00223247 0.01392078 0.00607372 0.00288031 0.00342318 0.00128364 
0.09369340 0.01910875 0.01636914 0.00218202 0.00099554 0.00240299 0.00930775 0.00501418 0.01265915 0.00222703 0.00222550 0.01380998 0.00611140 0.00286020 0.00340108 0.00128716 
0.09551957 0.02000697 0.01617050 0.00217276 0.00100008 0.00238146 0.00919726 0.00493644 0.01192072 0.00222941 0.00221764 0.01367684 0.00614298 0.00283499 0.00337607 0.00129079 
0.09724682 0.02094058 0.01595244 0.00216255 0.00100446 0.00235768 0.00908436 0.00485975 0.01123195 0.00223079 0.00220896 0.01352270 0.00616835 0.00280488 0.00334816 0.00129451 
0.09886850 0.02190708 0.01571569 0.00215139 0.00100866 0.00233174 0.00896981 0.00478452 0.01059518 0.00223123 0.00219953 0.01334908 0.00618742 0.00277009 0.00331738 0.00129831 
0.10037847 0.02290378 0.01546106 0.00213928 0.00101267 0.00230373 0.00885437 0.00471116 0.01001244 0.00223082 0.00218941 0.01315765 0.00620015 0.00273088 0.00328377 0.00130217 
0.10177116 0.02392787 0.01518942 0.00212620 0.00101647 0.00227376 0.00873879 0.00464006 0.00948548 0.00222963 0.00217869 0.01295023 0.00620649 0.00268753 0.00324742 0.00130608 
0.10304151 0.02497633 0.01490171 0.00211216 0.00102005 0.00224195 0.00862381 0.00457160 0.00901572 0.00222776 0.00216742 0.01272878 0.00620644 0.00264034 0.00320842 0.00131003 
0.10418507 0.02604603 0.01459890 0.00209716 0.00102339 0.00220844 0.00851018 0.00450614 0.00860427 0.00222528 0.00215569 0.01249539 0.00620003 0.00258965 0.00316687 0.00131399 
0.10519793 0.02713370 0.01428203 0.00208118 0.00102649 0.00217337 0.00839861 0.00444401 0.00825192 0.00222229 0.00214354 0.01225224 0.00618732 0.00253581 0.00312293 0.00131795 
0.10607680 0.02823595 0.01395218 0.00206424 0.00102933 0.00213691 0.00828982 0.00438554 0.00795912 0.00221888 0.00213105 0.01200162 0.00616838 0.00247920 0.00307674 0.00132190 
0.10681896 0.02934930 0.01361050 0.00204633 0.00103191 0.00209922 0.00818449 0.00433101 0.00772604 0.00221515 0.00211828 0.01174591 0.00614331 0.00242021 0.00302848 0.00132583 
0.10742229 0.03047014 0.01325814 0.00202746 0.00103422 0.00206048 0.00808329 0.00428071 0.00755248 0.00221118 0.00210527 0.01148753 0.00611227 0.00235924 0.00297837 0.00132972 
0.10788528 0.03159483 0.01289633 0.00200764 0.00103625 0.00202088 0.00798685 0.00423488 0.00743798 0.00220706 0.00209209 0.01122897 0.00607540 0.00229672 0.00292660 0.00133356 
0.10820701 0.03271964 0.01252631 0.00198687 0.00103801 0.00198062 0.00789579 0.00419373 0.00738173 0.00220290 0.00207879 0.01097273 0.00603291 0.00223307 0.00287342 0.00133733 
0.10838714 0.03384080 0.01214936 0.00196518 0.00103948 0.00193990 0.00781069 0.00415745 0.00738264 0.00219877 0.00206541 0.01072133 0.00598499 0.00216874 0.00281909 0.00134102 
0.10842594 0.03495453 0.01176679 0.00194259 0.00104068 0.00189894 0.00773207 0.00412622 0.00743934 0.00219477 0.00205198 0.01047729 0.00593190 0.00210415 0.00276388 0.00134463 
0.10832424 0.03605700 0.01137991 0.00191910 0.00104159 0.00185796 0.00766046 0.00410015 0.00755015 0.00219098 0.00203856 0.01024309 0.00587390 0.00203976 0.00270806 0.00134813 
0.10808347 0.03714442 0.01099008 0.00189477 0.00104223 0.00181718 0.00759633 0.00407935 0.00771317 0.00218748 0.00202517 0.01002118 0.00581128 0.00197601 0.00265194 0.00135152 
0.10770558 0.03821301 0.01059864 0.00186962 0.00104259 0.00177683 0.00754008 0.00406390 0.00792621 0.00218434 0.00201184 0.00981394 0.00574434 0.00191331 0.00259583 0.00135479 
0.10719309 0.03925901 0.01020698 0.00184369 0.00104268 0.00173714 0.00749213 0.00405382 0.00818687 0.00218164 0.00199859 0.00962366 0.00567343 0.00185211 0.00254005 0.00135793 
0.10654905 0.04027873 0.00981645 0.00181703 0.00104250 0.00169833 0.00745279 0.00404913 0.00849252 0.00217944 0.00198545 0.00945257 0.00559888 0.00179282 0.00248492 0.00136093 
0.10577701 0.04126854 0.00942842 0.00178970 0.00104206 0.00166065 0.00742238 0.00404982 0.00884034 0.00217780 0.00197244 0.00930275 0.00552107 0.00173583 0.00243079 0.00136378 
0.10488101 0.04222491 0.00904428 0.00176176 0.00104136 0.00162432 0.00740114 0.00405581 0.00922733 0.00217677 0.00195956 0.00917617 0.00544040 0.00168154 0.00237798 0.00136648 
0.10386558 0.04314439 0.00866536 0.00173328 0.00104042 0.00158957 0.00738928 0.00406704 0.00965032 0.00217641 0.00194682 0.00907464 0.00535725 0.00163031 0.00232684 0.00136901 
0.10273567 0.04402367 0.00829301 0.00170434 0.00103924 0.00155661 0.00738695 0.00408338 0.01010600 0.00217674 0.00193423 0.00899982 0.00527207 0.00158248 0.00227772 0.00137138 
0.10149668 0.04485955 0.00792856 0.00167504 0.00103783 0.00152569 0.00739426 0.00410470 0.01059096 0.00217782 0.00192180 0.00895321 0.00518526 0.00153837 0.00223094 0.00137357 
0.10015439 0.04564899 0.00757331 0.00164546 0.00103620 0.00149699 0.00741128 0.00413083 0.01110167 0.00217966 0.00190952 0.00893610 0.00509730 0.00149829 0.00218685 0.00137558 
0.09871498 0.04638910 0.00722853 0.00161572 0.00103436 0.00147073 0.00743802 0.00416156 0.01163455 0.00218228 0.00189738 0.00894960 0.00500862 0.00146248 0.00214578 0.00137742 
0.09718493 0.04707716 0.00689546 0.00158592 0.00103231 0.00144711 0.00747444 0.00419669 0.01218594 0.00218570 0.00188538 0.00899460 0.00491970 0.00143120 0.00210804 0.00137906 
0.09557108 0.04771064 0.00657532 0.00155619 0.00103008 0.00142631 0.00752047 0.00423595 0.01275216 0.00218991 0.00187352 0.00907180 0.00483101 0.00140464 0.00207396 0.00138053 
0.09388053 0.04828720 0.00626926 0.00152667 0.00102767 0.00140850 0.00757597 0.00427909 0.01332955 0.00219493 0.00186179 0.00918167 0.00474303 0.00138297 0.00204382 0.00138180 
0.09212063 0.04880470 0.00597841 0.00149749 0.00102509 0.00139386 0.00764078 0.00432582 0.01391441 0.00220073 0.00185016 0.00932443 0.00465624 0.00136634 0.00201791 0.00138288 
0.09029897 0.04926124 0.00570385 0.00146881 0.00102235 0.00138252 0.00771466 0.00437582 0.01450311 0.00220731 0.00183864 0.00950009 0.00457113 0.00135483 0.00199650 0.00138377 
0.08842333 0.04965511 0.00544659 0.00144077 0.00101946 0.00137463 0.00779738 0.00442877 0.01509207 0.00221464 0.00182721 0.00970845 0.00448818 0.00134853 0.00197983 0.00138447 
0.08650162 0.04998485 0.00520761 0.00141355 0.00101644 0.00137030 0.00788860 0.00448434 0.01567779 0.00222268 0.00181586 0.00994903 0.00440789 0.00134745 0.00196815 0.00138498 
0.08454190 0.05024922 0.00498780 0.00138732 0.00101329 0.00136963 0.00798800 0.00454216 0.01625684 0.00223141 0.00180457 0.01022116 0.00433074 0.00135159 0.00196165 0.00138530 
0.08255231 0.05044724 0.00478802 0.00136225 0.00101003 0.00137272 0.00809519 0.00460188 0.01682593 0.00224078 0.00179333 0.01052392 0.00425721 0.00136090 0.00196051 0.00138543 
0.08054104 0.05057817 0.00460903 0.00133852 0.00100667 0.00137963 0.00820975 0.00466312 0.01738189 0.00225075 0.00178214 0.01085616 0.00418777 0.00137530 0.00196491 0.00138538 
0.07851631 0.05064150 0.00445156 0.00131633 0.00100321 0.00139042 0.00833121 0.00472551 0.01792168 0.00226126 0.00177097 0.01121655 0.00412289 0.00139467 0.00197496 0.00138514 
0.07648633 0.05063700 0.00431623 0.00129587 0.00099967 0.00140511 0.00845908 0.00478865 0.01844246 0.00227225 0.00175983 0.01160350 0.00406303 0.00141887 0.00199078 0.00138473 
0.07445923 0.05056468 0.00420362 0.00127733 0.00099606 0.00142371 0.00859284 0.00485217 0.01894154 0.00228367 0.00174871 0.01201524 0.00400863 0.00144770 0.00201244 0.00138414 
0.07244310 0.05042480 0.00411420 0.00126090 0.00099238 0.00144623 0.00873194 0.00491569 0.01941641 0.00229545 0.00173760 0.01244984 0.00396013 0.00148095 0.00203998 0.00138337 
0.07044589 0.05021785 0.00404839 0.00124678 0.00098865 0.00147264 0.00887580 0.00497881 0.01986477 0.00230751 0.00172650 0.01290513 0.00391795 0.00151836 0.00207343 0.00138244 
0.06847539 0.04994461 0.00400652 0.00123518 0.00098488 0.00150289 0.00902380 0.00504116 0.02028454 0.00231979 0.00171542 0.01337884 0.00388248 0.00155966 0.00211276 0.00138135 
0.06653922 0.04960606 0.00398883 0.00122628 0.00098106 0.00153690 0.00917533 0.00510238 0.02067385 0.00233221 0.00170434 0.01386849 0.00385411 0.00160454 0.00215793 0.00138009 
0.06464479 0.04920346 0.00399549 0.00122026 0.00097722 0.00157461 0.00932973 0.00516210 0.02103103 0.00234470 0.00169329 0.01437152 0.00383321 0.00165265 0.00220887 0.00137868 
0.06279926 0.04873826 0.00402656 0.00121733 0.00097336 0.00161590 0.00948634 0.00521998 0.02135468 0.00235718 0.00168226 0.01488521 0.00382011 0.00170366 0.00226546 0.00137712 
0.06100948 0.04821218 0.00408206 0.00121766 0.00096949 0.00166064 0.00964449 0.00527568 0.02164361 0.00236956 0.00167127 0.01540676 0.00381513 0.00175717 0.00232756 0.00137542 
0.05928205 0.04762712 0.00416187 0.00122142 0.00096562 0.00170870 0.00980347 0.00532888 0.02189686 0.00238178 0.00166034 0.01593329 0.00381856 0.00181280 0.00239501 0.00137358 
0.05762317 0.04698522 0.00426584 0.00122878 0.00096174 0.00175992 0.00996260 0.00537927 0.02211372 0.00239376 0.00164948 0.01646185 0.00383065 0.00187014 0.00246759 0.00137161 
0.05603872 0.04628880 0.00439368 0.00123989 0.00095788 0.00181410 0.01012116 0.00542658 0.02229370 0.00240541 0.00163871 0.01698945 0.00385166 0.00192875 0.00254507 0.00136951 
0.05453418 0.04554039 0.00454506 0.00125488 0.00095403 0.00187107 0.01027846 0.00547054 0.02243656 0.00241666 0.00162805 0.01751307 0.00388176 0.00198821 0.00262720 0.00136729 
0.05311460 0.04474270 0.00471954 0.00127390 0.00095021 0.00193060 0.01043378 0.00551091 0.02254227 0.00242743 0.00161753 0.01802971 0.00392115 0.00204808 0.00271369 0.00136496 
0.05178462 0.04389858 0.00491660 0.00129706 0.00094641 0.00199246 0.01058643 0.00554747 0.02261103 0.00243766 0.00160719 0.01853636 0.00396994 0.00210792 0.00280422 0.00136252 
0.05054839 0.04301107 0.00513564 0.00132445 0.00094265 0.00205643 0.01073569 0.00558002 0.02264328 0.00244727 0.00159704 0.01903006 0.00402824 0.00216728 0.00289845 0.00135998 
0.04940961 0.04208334 0.00537598 0.00135616 0.00093893 0.00212223 0.01088089 0.00560840 0.02263963 0.00245620 0.00158712 0.01950792 0.00409611 0.00222572 0.00299602 0.00135734 
0.04837147 0.04111868 0.00563687 0.00139225 0.00093526 0.00218962 0.01102135 0.00563246 0.02260091 0.00246437 0.00157748 0.01996711 0.00417357 0.00228281 0.00309654 0.00135462 
0.04743666 0.04012052 0.00591746 0.00143277 0.00093164 0.00225830 0.01115640 0.00565209 0.02252815 0.00247174 0.00156813 0.02040490 0.00426061 0.00233813 0.00319961 0.00135181 
0.04660734 0.03909236 0.00621684 0.00147774 0.00092807 0.00232799 0.01128540 0.00566720 0.02242254 0.00247825 0.00155913 0.02081870 0.00435716 0.00239125 0.00330481 0.00134893 
0.04588514 0.03803783 0.00653405 0.00152715 0.00092457 0.00239840 0.01140772 0.00567772 0.02228546 0.00248383 0.00155050 0.02120601 0.00446313 0.00244178 0.00341171 0.00134597 
0.04527117 0.03696058 0.00686802 0.00158101 0.00092114 0.00246922 0.01152278 0.00568362 0.02211842 0.00248846 0.00154229 0.02156452 0.00457836 0.00248934 0.00351985 0.00134296 
0.04476596 0.03586437 0.00721764 0.00163925 0.00091779 0.00254016 0.01162998 0.00568489 0.02192310 0.00249208 0.00153455 0.02189207 0.00470268 0.00253358 0.00362877 0.00133989 
0.04436951 0.03475296 0.00758175 0.00170182 0.00091451 0.00261089 0.01172878 0.00568156 0.02170129 0.00249466 0.00152730 0.02218669 0.00483585 0.00257414 0.00373802 0.00133677 
0.04408128 0.03363017 0.00795910 0.00176863 0.00091132 0.00268111 0.01181867 0.00567368 0.02145490 0.00249617 0.00152058 0.02244660 0.00497760 0.00261072 0.00384711 0.00133360 
0.04390017 0.03249980 0.00834842 0.00183957 0.00090822 0.00275051 0.01189916 0.00566132 0.02118593 0.00249657 0.00151444 0.02267023 0.00512759 0.00264304 0.00395557 0.00133040 
0.04382454 0.03136568 0.00874837 0.00191449 0.00090522 0.00281876 0.01196981 0.00564458 0.02089647 0.00249585 0.00150891 0.02285622 0.00528548 0.00267084 0.00406294 0.00132718 
0.04385223 0.03023160 0.00915759 0.00199323 0.00090232 0.00288558 0.01203020 0.00562359 0.02058870 0.00249400 0.00150403 0.02300347 0.00545084 0.00269389 0.00416873 0.00132392 
0.04398054 0.02910132 0.00957464 0.00207562 0.00089952 0.00295064 0.01207997 0.00559851 0.02026482 0.00249100 0.00149982 0.02311108 0.00562322 0.00271202 0.00427248 0.00132066 
0.04420627 0.02797856 0.00999810 0.00216143 0.00089684 0.00301365 0.01211877 0.00556951 0.01992708 0.00248685 0.00149633 0.02317841 0.00580213 0.00272505 0.00437375 0.00131738 
0.04452574 0.02686697 0.01042648 0.00225045 0.00089428 0.00307431 0.01214633 0.00553678 0.01957777 0.00248155 0.00149357 0.02320508 0.00598702 0.00273287 0.00447207 0.00131410 
0.04493476 0.02577013 0.01085829 0.00234240 0.00089184 0.00313235 0.01216241 0.00550056 0.01921916 0.00247511 0.00149157 0.02319095 0.00617731 0.00273540 0.00456702 0.00131082 
0.04542872 0.02469155 0.01129201 0.00243701 0.00088953 0.00318749 0.01216679 0.00546109 0.01885354 0.00246754 0.00149036 0.02313612 0.00637239 0.00273259 0.00465819 0.00130756 
0.04600258 0.02363459 0.01172612 0.00253400 0.00088735 0.00323947 0.01215933 0.00541862 0.01848317 0.00245886 0.00148994 0.02304097 0.00657159 0.00272444 0.00474518 0.00130430 
0.04665088 0.02260256 0.01215909 0.00263303 0.00088532 0.00328803 0.01213992 0.00537343 0.01811026 0.00244909 0.00149034 0.02290611 0.00677421 0.00271097 0.00482760 0.00130108 
0.04736779 0.02159860 0.01258939 0.00273377 0.00088343 0.00333294 0.01210851 0.00532582 0.01773700 0.00243826 0.00149156 0.02273240 0.00697954 0.00269226 0.00490512 0.00129788 
0.04814715 0.02062573 0.01301550 0.00283587 0.00088169 0.00337399 0.01206508 0.00527610 0.01736550 0.00242640 0.00149361 0.02252095 0.00718680 0.00266840 0.00497741 0.00129471 
0.04898249 0.01968682 0.01343590 0.00293896 0.00088011 0.00341097 0.01200968 0.00522458 0.01699781 0.00241356 0.00149648 0.02227310 0.00739522 0.00263955 0.00504417 0.00129159 
0.04986706 0.01878462 0.01384912 0.00304267 0.00087868 0.00344368 0.01194239 0.00517160 0.01663590 0.00239977 0.00150017 0.02199041 0.00760398 0.00260588 0.00510512 0.00128851 
0.05079387 0.01792166 0.01425368 0.00314659 0.00087742 0.00347198 0.01186335 0.00511751 0.01628164 0.00238508 0.00150468 0.02167466 0.00781224 0.00256760 0.00516004 0.00128549 
0.05175575 0.01710035 0.01464815 0.00325032 0.00087633 0.00349570 0.01177274 0.00506265 0.01593680 0.00236955 0.00150997 0.02132784 0.00801915 0.00252496 0.00520873 0.00128252 
0.05274535 0.01632291 0.01503114 0.00335345 0.00087540 0.00351472 0.01167080 0.00500737 0.01560304 0.00235322 0.00151604 0.02095212 0.00822384 0.00247825 0.00525100 0.00127962 
0.05375523 0.01559136 0.01540129 0.00345558 0.00087465 0.00352893 0.01155779 0.00495204 0.01528191 0.00233616 0.00152286 0.02054985 0.00842543 0.00242777 0.00528673 0.00127679 
0.05477786 0.01490755 0.01575730 0.00355627 0.00087408 0.00353826 0.01143405 0.00489703 0.01497483 0.00231843 0.00153040 0.02012354 0.00862304 0.00237386 0.00531582 0.00127403 
0.05580570 0.01427314 0.01609792 0.00365512 0.00087368 0.00354263 0.01129995 0.00484268 0.01468308 0.00230010 0.00153862 0.01967586 0.00881578 0.00231688 0.00533820 0.00127135 
0.05683121 0.01368961 0.01642196 0.00375169 0.00087347 0.00354201 0.01115588 0.00478936 0.01440783 0.00228123 0.00154748 0.01920958 0.00900277 0.00225723 0.00535386 0.00126875 
0.05784691 0.01315821 0.01672829 0.00384559 0.00087343 0.00353637 0.01100231 0.00473743 0.01415010 0.00226190 0.00155695 0.01872761 0.00918312 0.00219532 0.00536280 0.00126624 
0.05884544 0.01268002 0.01701585 0.00393640 0.00087357 0.00352573 0.01083972 0.00468725 0.01391076 0.00224217 0.00156695 0.01823292 0.00935597 0.00213156 0.00536509 0.00126382 
0.05981958 0.01225593 0.01728366 0.00402372 0.00087389 0.00351012 0.01066865 0.00463916 0.01369057 0.00222213 0.00157746 0.01772857 0.00952047 0.00206641 0.00536080 0.00126150 
0.06076231 0.01188661 0.01753081 0.00410717 0.00087438 0.00348958 0.01048966 0.00459349 0.01349010 0.00220184 0.00158840 0.01721766 0.00967579 0.00200033 0.00535006 0.00125927 
0.06166683 0.01157256 0.01775649 0.00418637 0.00087505 0.00346419 0.01030334 0.00455058 0.01330983 0.00218140 0.00159972 0.01670333 0.00982113 0.00193377 0.00533303 0.00125715 
0.06252666 0.01131407 0.01795995 0.00426098 0.00087589 0.00343404 0.01011033 0.00451075 0.01315006 0.00216087 0.00161136 0.01618873 0.00995573 0.00186721 0.00530991 0.00125514 
0.06333559 0.01111127 0.01814055 0.00433064 0.00087689 0.00339926 0.00991128 0.00447430 0.01301097 0.00214035 0.00162325 0.01567699 0.01007884 0.00180114 0.00528093 0.00125323 
0.06408780 0.01096407 0.01829772 0.00439505 0.00087805 0.00335999 0.00970687 0.00444151 0.01289260 0.00211990 0.00163531 0.01517122 0.01018978 0.00173602 0.00524636 0.00125143 
0.06477787 0.01087223 0.01843100 0.00445390 0.00087937 0.00331638 0.00949781 0.00441267 0.01279485 0.00209961 0.00164749 0.01467448 0.01028790 0.00167233 0.00520647 0.00124974 
0.06540080 0.01083534 0.01854002 0.00450693 0.00088083 0.00326863 0.00928483 0.00438804 0.01271751 0.00207957 0.00165971 0.01418974 0.01037260 0.00161054 0.00516161 0.00124816 
0.06595207 0.01085281 0.01862452 0.00455390 0.00088243 0.00321693 0.00906866 0.00436784 0.01266023 0.00205985 0.00167189 0.01371992 0.01044335 0.00155111 0.00511211 0.00124670 
0.06642765 0.01092389 0.01868431 0.00459458 0.00088415 0.00316150 0.00885007 0.00435231 0.01262255 0.00204054 0.00168397 0.01326780 0.01049967 0.00149448 0.00505836 0.00124535 
0.06682402 0.01104769 0.01871932 0.00462880 0.00088599 0.00310258 0.00862982 0.00434163 0.01260389 0.00202171 0.00169588 0.01283605 0.01054114 0.00144109 0.00500075 0.00124412 
0.06713825 0.01122316 0.01872958 0.00465639 0.00088794 0.00304043 0.00840869 0.00433599 0.01260357 0.00200345 0.00170754 0.01242721 0.01056741 0.00139136 0.00493971 0.00124300 
0.06736794 0.01144915 0.01871520 0.00467724 0.00088999 0.00297531 0.00818745 0.00433554 0.01262082 0.00198584 0.00171888 0.01204364 0.01057821 0.00134568 0.00487566 0.00124200 
0.06751130 0.01172435 0.01867641 0.00469125 0.00089211 0.00290752 0.00796690 0.00434040 0.01265476 0.00196895 0.00172985 0.01168756 0.01057333 0.00130441 0.00480907 0.00124111 
0.06756715 0.01204734 0.01861351 0.00469838 0.00089430 0.00283734 0.00774781 0.00435069 0.01270445 0.00195285 0.00174037 0.01136099 0.01055265 0.00126790 0.00474039 0.00124033 
0.06753490 0.01241661 0.01852692 0.00469860 0.00089655 0.00276509 0.00753096 0.00436648 0.01276886 0.00193763 0.00175038 0.01106575 0.01051612 0.00123648 0.00467011 0.00123966 
0.06741461 0.01283053 0.01841714 0.00469192 0.00089883 0.00269109 0.00731711 0.00438783 0.01284689 0.00192335 0.00175982 0.01080348 0.01046378 0.00121043 0.00459870 0.00123910 
0.06720694 0.01328740 0.01828476 0.00467840 0.00090113 0.00261565 0.00710704 0.00441476 0.01293738 0.00191008 0.00176864 0.01057558 0.01039575 0.00119000 0.00452664 0.00123865 
0.06691318 0.01378543 0.01813045 0.00465812 0.00090345 0.00253913 0.00690147 0.00444727 0.01303915 0.00189790 0.00177679 0.01038326 0.01031222 0.00117542 0.00445444 0.00123830 
0.06653526 0.01432277 0.01795497 0.00463120 0.00090575 0.00246186 0.00670115 0.00448532 0.01315093 0.00188686 0.00178423 0.01022747 0.01021349 0.00116687 0.00438257 0.00123806 
0.06607568 0.01489751 0.01775917 0.00459779 0.00090802 0.00238418 0.00650678 0.00452887 0.01327146 0.00187703 0.00179092 0.01010896 0.01009993 0.00116450 0.00431152 0.00123791 
0.06553755 0.01550768 0.01754394 0.00455808 0.00091026 0.00230644 0.00631906 0.00457783 0.01339944 0.00186848 0.00179682 0.01002824 0.00997200 0.00116843 0.00424175 0.00123786 
0.06492458 0.01615128 0.01731028 0.00451228 0.00091243 0.00222899 0.00613863 0.00463207 0.01353353 0.00186124 0.00180190 0.00998557 0.00983025 0.00117874 0.00417374 0.00123790 
0.06424099 0.01682628 0.01705924 0.00446066 0.00091453 0.00215218 0.00596615 0.00469147 0.01367243 0.00185539 0.00180614 0.00998100 0.00967529 0.00119545 0.00410792 0.00123803 
0.06349157 0.01753062 0.01679192 0.00440349 0.00091653 0.00207635 0.00580221 0.00475584 0.01381479 0.00185097 0.00180954 0.01001434 0.00950784 0.00121857 0.00404475 0.00123824 
0.06268158 0.01826224 0.01650948 0.00434108 0.00091843 0.00200185 0.00564740 0.00482499 0.01395930 0.00184801 0.00181207 0.01008517 0.00932868 0.00124806 0.00398464 0.00123853 
0.06181677 0.01901904 0.01621314 0.00427377 0.00092020 0.00192900 0.00550225 0.00489868 0.01410465 0.00184658 0.00181373 0.01019284 0.00913868 0.00128384 0.00392798 0.00123890 
0.06090331 0.01979896 0.01590415 0.00420192 0.00092182 0.00185814 0.00536728 0.00497667 0.01424957 0.00184670 0.00181454 0.01033651 0.00893876 0.00132579 0.00387515 0.00123934 
0.05994775 0.02059992 0.01558381 0.00412591 0.00092330 0.00178959 0.00524294 0.00505867 0.01439279 0.00184841 0.00181450 0.01051512 0.00872994 0.00137375 0.00382650 0.00123985 
0.05895700 0.02141988 0.01525344 0.00404614 0.00092460 0.00172365 0.00512966 0.00514438 0.01453311 0.00185174 0.00181364 0.01072740 0.00851327 0.00142755 0.00378236 0.00124043 
0.05793828 0.02225678 0.01491439 0.00396305 0.00092572 0.00166063 0.00502784 0.00523346 0.01466934 0.00185671 0.00181196 0.01097190 0.00828988 0.00148695 0.00374302 0.00124106 
0.05689904 0.02310863 0.01456803 0.00387707 0.00092665 0.00160082 0.00493782 0.00532556 0.01480037 0.00186334 0.00180951 0.01124700 0.00806096 0.00155170 0.00370876 0.00124175 
0.05584695 0.02397343 0.01421575 0.00378865 0.00092738 0.00154447 0.00485989 0.00542029 0.01492511 0.00187166 0.00180633 0.01155090 0.00782773 0.00162150 0.00367980 0.00124249 
0.05478984 0.02484924 0.01385893 0.00369825 0.00092789 0.00149185 0.00479432 0.00551726 0.01504256 0.00188166 0.00180245 0.01188168 0.00759147 0.00169604 0.00365636 0.00124328 
0.05373562 0.02573416 0.01349897 0.00360635 0.00092817 0.00144320 0.00474131 0.00561605 0.01515176 0.00189336 0.00179793 0.01223724 0.00735347 0.00177497 0.00363861 0.00124411 
0.05269225 0.02662630 0.01313725 0.00351342 0.00092823 0.00139874 0.00470103 0.00571621 0.01525183 0.00190675 0.00179281 0.01261540 0.00711508 0.00185791 0.00362668 0.00124497 
0.05166768 0.02752384 0.01277515 0.00341995 0.00092805 0.00135867 0.00467360 0.00581729 0.01534196 0.00192182 0.00178717 0.01301384 0.00687766 0.00194447 0.00362068 0.00124587 
0.05066981 0.02842500 0.01241402 0.00332640 0.00092764 0.00132317 0.00465909 0.00591882 0.01542140 0.00193858 0.00178105 0.01343017 0.00664257 0.00203424 0.00362069 0.00124681 
0.04970638 0.02932804 0.01205520 0.00323326 0.00092698 0.00129241 0.00465751 0.00602033 0.01548950 0.00195699 0.00177454 0.01386192 0.00641121 0.00212677 0.00362674 0.00124777 
0.04878499 0.03023127 0.01169999 0.00314101 0.00092609 0.00126652 0.00466884 0.00612130 0.01554567 0.00197703 0.00176769 0.01430656 0.00618495 0.00222162 0.00363884 0.00124875 
0.04791299 0.03113304 0.01134968 0.00305009 0.00092495 0.00124562 0.00469301 0.00622125 0.01558942 0.00199869 0.00176059 0.01476152 0.00596516 0.00231831 0.00365695 0.00124976 
0.04709744 0.03203177 0.01100549 0.00296097 0.00092358 0.00122982 0.00472990 0.00631967 0.01562033 0.00202191 0.00175331 0.01522421 0.00575321 0.00241639 0.00368101 0.00125078 
0.04634507 0.03292589 0.01066863 0.00287407 0.00092197 0.00121917 0.00477935 0.00641604 0.01563806 0.00204666 0.00174592 0.01569202 0.00555043 0.00251537 0.00371093 0.00125182 
0.04566223 0.03381390 0.01034023 0.00278984 0.00092014 0.00121374 0.00484113 0.00650985 0.01564238 0.00207289 0.00173851 0.01616236 0.00535811 0.00261475 0.00374659 0.00125287 
0.04505482 0.03469435 0.01002139 0.00270866 0.00091809 0.00121354 0.00491500 0.00660059 0.01563312 0.00210055 0.00173116 0.01663266 0.00517754 0.00271407 0.00378782 0.00125393 
0.04452828 0.03556583 0.00971315 0.00263093 0.00091583 0.00121858 0.00500064 0.00668776 0.01561021 0.00212958 0.00172394 0.01710039 0.00500992 0.00281284 0.00383444 0.00125499 
0.04408751 0.03642695 0.00941650 0.00255701 0.00091337 0.00122883 0.00509772 0.00677086 0.01557365 0.00215991 0.00171693 0.01756307 0.00485641 0.00291057 0.00388623 0.00125607 
0.04373686 0.03727639 0.00913235 0.00248724 0.00091073 0.00124425 0.00520586 0.00684940 0.01552353 0.00219147 0.00171021 0.01801830 0.00471814 0.00300680 0.00394297 0.00125715 
0.04348011 0.03811286 0.00886154 0.00242193 0.00090792 0.00126477 0.00532461 0.00692291 0.01546004 0.00222418 0.00170386 0.01846373 0.00459612 0.00310106 0.00400438 0.00125823 
0.04332037 0.03893510 0.00860488 0.00236137 0.00090496 0.00129029 0.00545352 0.00699093 0.01538343 0.00225796 0.00169794 0.01889714 0.00449133 0.00319290 0.00407017 0.00125932 
0.04326014 0.03974188 0.00836308 0.00230582 0.00090186 0.00132071 0.00559208 0.00705302 0.01529403 0.00229272 0.00169252 0.01931640 0.00440464 0.00328190 0.00414005 0.00126041 
0.04330124 0.04053203 0.00813677 0.00225549 0.00089864 0.00135588 0.00573976 0.00710875 0.01519226 0.00232837 0.00168768 0.01971950 0.00433685 0.00336764 0.00421368 0.00126150 
0.04344477 0.04130438 0.00792653 0.00221060 0.00089533 0.00139564 0.00589599 0.00715775 0.01507860 0.00236481 0.00168346 0.02010455 0.00428866 0.00344972 0.00429072 0.00126259 
0.04369117 0.04205781 0.00773287 0.00217130 0.00089194 0.00143982 0.00606017 0.00719964 0.01495361 0.00240193 0.00167993 0.02046981 0.00426069 0.00352777 0.00437081 0.00126369 
0.04404014 0.04279122 0.00755619 0.00213774 0.00088849 0.00148820 0.00623166 0.00723408 0.01481791 0.00243963 0.00167713 0.02081366 0.00425343 0.00360145 0.00445359 0.00126478 
0.04449069 0.04350355 0.00739685 0.00211000 0.00088501 0.00154059 0.00640982 0.00726077 0.01467220 0.00247779 0.00167511 0.02113466 0.00426729 0.00367041 0.00453868 0.00126588 
0.04504109 0.04419375 0.00725512 0.00208816 0.00088152 0.00159673 0.00659396 0.00727945 0.01451722 0.00251629 0.00167391 0.02143150 0.00430257 0.00373438 0.00462568 0.00126698 
0.04568893 0.04486080 0.00713120 0.00207225 0.00087805 0.00165637 0.00678338 0.00728988 0.01435378 0.00255503 0.00167355 0.02170303 0.00435945 0.00379308 0.00471419 0.00126809 
0.04643110 0.04550371 0.00702519 0.00206227 0.00087462 0.00171925 0.00697737 0.00729187 0.01418275 0.00259387 0.00167407 0.02194828 0.00443799 0.00384627 0.00480383 0.00126920 
0.04726381 0.04612153 0.00693716 0.00205821 0.00087125 0.00178509 0.00717520 0.00728527 0.01400502 0.00263269 0.00167547 0.02216644 0.00453816 0.00389374 0.00489418 0.00127031 
0.04818262 0.04671330 0.00686706 0.00205998 0.00086796 0.00185357 0.00737612 0.00726998 0.01382155 0.00267137 0.00167777 0.02235686 0.00465979 0.00393533 0.00498484 0.00127143 
0.04918245 0.04727811 0.00681481 0.00206751 0.00086479 0.00192441 0.00757937 0.00724593 0.01363334 0.00270978 0.00168097 0.02251905 0.00480261 0.00397088 0.00507542 0.00127257 
0.05025764 0.04781509 0.00678023 0.00208067 0.00086176 0.00199727 0.00778421 0.00721310 0.01344140 0.00274778 0.00168506 0.02265270 0.00496624 0.00400029 0.00516551 0.00127371 
0.05140197 0.04832336 0.00676309 0.00209930 0.00085888 0.00207184 0.00798986 0.00717153 0.01324679 0.00278526 0.00169003 0.02275764 0.00515017 0.00402347 0.00525473 0.00127486 
0.05260866 0.04880210 0.00676308 0.00212324 0.00085619 0.00214778 0.00819556 0.00712131 0.01305058 0.00282207 0.00169586 0.02283390 0.00535379 0.00404038 0.00534269 0.00127602 
0.05387050 0.04925052 0.00677983 0.00215226 0.00085371 0.00222476 0.00840055 0.00706255 0.01285388 0.00285811 0.00170252 0.02288163 0.00557638 0.00405099 0.00542901 0.00127720 
0.05517981 0.04966786 0.00681292 0.00218615 0.00085145 0.00230243 0.00860409 0.00699544 0.01265780 0.00289323 0.00170998 0.02290113 0.00581711 0.00405533 0.00551333 0.00127839 
0.05652853 0.05005339 0.00686185 0.00222465 0.00084943 0.00238044 0.00880543 0.00692020 0.01246345 0.00292732 0.00171818 0.02289287 0.00607505 0.00405345 0.00559530 0.00127961 
0.05790829 0.05040644 0.00692609 0.00226749 0.00084769 0.00245846 0.00900385 0.00683712 0.01227195 0.00296026 0.00172709 0.02285745 0.00634918 0.00404541 0.00567457 0.00128083 
0.05931041 0.05072636 0.00700504 0.00231437 0.00084622 0.00253614 0.00919863 0.00674652 0.01208444 0.00299193 0.00173663 0.02279558 0.00663837 0.00403132 0.00575083 0.00128208 
0.06072600 0.05101257 0.00709806 0.00236497 0.00084506 0.00261315 0.00938907 0.00664876 0.01190201 0.00302221 0.00174676 0.02270812 0.00694141 0.00401132 0.00582375 0.00128335 
0.06214603 0.05126453 0.00720446 0.00241898 0.00084422 0.00268915 0.00957452 0.00654429 0.01172577 0.00305100 0.00175740 0.02259604 0.00725702 0.00398557 0.00589305 0.00128465 
0.06356132 0.05148175 0.00732351 0.00247605 0.00084370 0.00276380 0.00975433 0.00643355 0.01155680 0.00307820 0.00176848 0.02246041 0.00758383 0.00395423 0.00595845 0.00128596 
0.06496268 0.05166382 0.00745443 0.00253582 0.00084352 0.00283680 0.00992789 0.00631706 0.01139616 0.00310371 0.00177992 0.02230241 0.00792042 0.00391753 0.00601970 0.00128730 
0.06634093 0.05181037 0.00759644 0.00259793 0.00084369 0.00290784 0.01009462 0.00619537 0.01124488 0.00312744 0.00179163 0.02212329 0.00826529 0.00387569 0.00607655 0.00128866 
0.06768696 0.05192112 0.00774869 0.00266202 0.00084422 0.00297660 0.01025397 0.00606906 0.01110396 0.00314930 0.00180353 0.02192440 0.00861690 0.00382895 0.00612879 0.00129005 
0.06899181 0.05199585 0.00791032 0.00272771 0.00084512 0.00304281 0.01040544 0.00593878 0.01097435 0.00316923 0.00181553 0.02170715 0.00897366 0.00377757 0.00617622 0.00129146 
0.07024671 0.05203442 0.00808046 0.00279461 0.00084637 0.00310620 0.01054856 0.00580518 0.01085697 0.00318715 0.00182753 0.02147301 0.00933394 0.00372185 0.00621866 0.00129290 
0.07144313 0.05203677 0.00825821 0.00286236 0.00084800 0.00316650 0.01068292 0.00566895 0.01075268 0.00320301 0.00183945 0.02122349 0.00969610 0.00366206 0.00625594 0.00129436 
0.07257287 0.05200293 0.00844264 0.00293056 0.00084999 0.00322347 0.01080813 0.00553080 0.01066232 0.00321674 0.00185119 0.02096017 0.01005846 0.00359852 0.00628794 0.00129584 
0.07362808 0.05193303 0.00863284 0.00299885 0.00085235 0.00327689 0.01092386 0.00539150 0.01058662 0.00322832 0.00186264 0.02068464 0.01041935 0.00353153 0.00631455 0.00129735 
0.07460134 0.05182726 0.00882787 0.00306686 0.00085506 0.00332657 0.01102985 0.00525179 0.01052630 0.00323771 0.00187372 0.02039850 0.01077709 0.00346142 0.00633565 0.00129888 
0.07548568 0.05168595 0.00902681 0.00313422 0.00085812 0.00337230 0.01112585 0.00511247 0.01048200 0.00324489 0.00188434 0.02010339 0.01112999 0.00338851 0.00635118 0.00130043 
0.07627464 0.05150950 0.00922872 0.00320057 0.00086153 0.00341393 0.01121170 0.00497432 0.01045426 0.00324985 0.00189439 0.01980094 0.01147642 0.00331314 0.00636109 0.00130199 
0.07696231 0.05129843 0.00943267 0.00326558 0.00086526 0.00345131 0.01128728 0.00483815 0.01044361 0.00325258 0.00190380 0.01949276 0.01181474 0.00323562 0.00636534 0.00130358 
0.07754338 0.05105335 0.00963776 0.00332891 0.00086931 0.00348432 0.01135252 0.00470476 0.01045045 0.00325309 0.00191246 0.01918048 0.01214335 0.00315630 0.00636393 0.00130517 
0.07801315 0.05077500 0.00984307 0.00339025 0.00087366 0.00351286 0.01140742 0.00457495 0.01047514 0.00325140 0.00192031 0.01886568 0.01246071 0.00307550 0.00635684 0.00130678 
0.07836756 0.05046422 0.01004773 0.00344928 0.00087829 0.00353686 0.01145202 0.00444954 0.01051794 0.00324753 0.00192726 0.01854992 0.01276533 0.00299354 0.00634412 0.00130840 
0.07860325 0.05012195 0.01025087 0.00350573 0.00088318 0.00355625 0.01148642 0.00432931 0.01057905 0.00324154 0.00193323 0.01823473 0.01305576 0.00291073 0.00632581 0.00131003 
0.07871754 0.04974925 0.01045164 0.00355932 0.00088831 0.00357102 0.01151080 0.00421503 0.01065857 0.00323345 0.00193816 0.01792159 0.01333063 0.00282740 0.00630197 0.00131165 
0.07870847 0.04934729 0.01064923 0.00360981 0.00089366 0.00358115 0.01152536 0.00410747 0.01075652 0.00322334 0.00194198 0.01761194 0.01358866 0.00274383 0.00627268 0.00131328 
0.07857479 0.04891737 0.01084287 0.00365696 0.00089920 0.00358665 0.01153038 0.00400736 0.01087284 0.00321126 0.00194465 0.01730716 0.01382863 0.00266031 0.00623805 0.00131490 
0.07831599 0.04846087 0.01103179 0.00370056 0.00090491 0.00358757 0.01152619 0.00391542 0.01100739 0.00319729 0.00194611 0.01700857 0.01404941 0.00257713 0.00619818 0.00131651 
0.07793229 0.04797929 0.01121528 0.00374043 0.00091075 0.00358397 0.01151316 0.00383232 0.01115992 0.00318152 0.00194631 0.01671743 0.01424998 0.00249455 0.00615321 0.00131811 
0.07742463 0.04747424 0.01139266 0.00377640 0.00091671 0.00357593 0.01149173 0.00375870 0.01133014 0.00316405 0.00194524 0.01643495 0.01442941 0.00241282 0.00610329 0.00131969 
0.07679466 0.04694743 0.01156330 0.00380832 0.00092275 0.00356354 0.01146237 0.00369517 0.01151762 0.00314496 0.00194285 0.01616223 0.01458687 0.00233217 0.00604858 0.00132125 
0.07604476 0.04640066 0.01172660 0.00383607 0.00092884 0.00354695 0.01142561 0.00364230 0.01172190 0.00312436 0.00193913 0.01590034 0.01472165 0.00225283 0.00598925 0.00132278 
0.07517798 0.04583583 0.01188200 0.00385956 0.00093495 0.00352628 0.01138202 0.00360059 0.01194240 0.00310238 0.00193408 0.01565025 0.01483314 0.00217500 0.00592550 0.00132428 
0.07419802 0.04525493 0.01202901 0.00387869 0.00094105 0.00350171 0.01133220 0.00357051 0.01217849 0.00307913 0.00192770 0.01541286 0.01492086 0.00209887 0.00585753 0.00132574 
0.07310925 0.04466003 0.01216715 0.00389343 0.00094711 0.00347342 0.01127682 0.00355247 0.01242943 0.00305473 0.00191998 0.01518898 0.01498443 0.00202461 0.00578555 0.00132717 
0.07191662 0.04405329 0.01229602 0.00390374 0.00095309 0.00344160 0.01121653 0.00354683 0.01269444 0.00302932 0.00191095 0.01497937 0.01502360 0.00195238 0.00570978 0.00132854 
0.07062567 0.04343692 0.01241526 0.00390960 0.00095897 0.00340647 0.01115207 0.00355389 0.01297264 0.00300302 0.00190064 0.01478469 0.01503825 0.00188231 0.00563047 0.00132987 
0.06924248 0.04281320 0.01252455 0.00391104 0.00096472 0.00336825 0.01108416 0.00357389 0.01326310 0.00297599 0.00188908 0.01460551 0.01502835 0.00181452 0.00554785 0.00133114 
0.06777360 0.04218446 0.01262363 0.00390807 0.00097030 0.00332719 0.01101357 0.00360700 0.01356483 0.00294835 0.00187630 0.01444234 0.01499402 0.00174911 0.00546219 0.00133234 
0.06622608 0.04155309 0.01271227 0.00390077 0.00097568 0.00328354 0.01094106 0.00365334 0.01387676 0.00292024 0.00186237 0.01429560 0.01493547 0.00168618 0.00537374 0.00133348 
0.06460733 0.04092151 0.01279032 0.00388919 0.00098084 0.00323756 0.01086743 0.00371295 0.01419779 0.00289181 0.00184733 0.01416563 0.01485307 0.00162579 0.00528278 0.00133455 
0.06292516 0.04029216 0.01285765 0.00387343 0.00098574 0.00318952 0.01079348 0.00378583 0.01452676 0.00286321 0.00183125 0.01405271 0.01474725 0.00156800 0.00518957 0.00133554 
0.06118765 0.03966749 0.01291420 0.00385360 0.00099036 0.00313971 0.01072000 0.00387189 0.01486246 0.00283457 0.00181422 0.01395703 0.01461858 0.00151285 0.00509441 0.00133646 
0.05940318 0.03904999 0.01295993 0.00382982 0.00099468 0.00308839 0.01064780 0.00397098 0.01520364 0.00280603 0.00179629 0.01387871 0.01446775 0.00146035 0.00499757 0.00133728 
0.05758031 0.03844211 0.01299487 0.00380225 0.00099866 0.00303587 0.01057765 0.00408289 0.01554904 0.00277773 0.00177757 0.01381779 0.01429553 0.00141053 0.00489934 0.00133802 
0.05572776 0.03784632 0.01301908 0.00377103 0.00100230 0.00298243 0.01051034 0.00420735 0.01589736 0.00274981 0.00175813 0.01377426 0.01410279 0.00136339 0.00480002 0.00133867 
0.05385436 0.03726502 0.01303266 0.00373634 0.00100556 0.00292835 0.01044663 0.00434401 0.01624726 0.00272239 0.00173809 0.01374802 0.01389049 0.00131890 0.00469990 0.00133922 
0.05196899 0.03670063 0.01303577 0.00369836 0.00100843 0.00287394 0.01038726 0.00449248 0.01659743 0.00269562 0.00171752 0.01373893 0.01365970 0.00127704 0.00459927 0.00133967 
0.05008050 0.03615547 0.01302858 0.00365729 0.00101088 0.00281947 0.01033293 0.00465230 0.01694652 0.00266960 0.00169655 0.01374678 0.01341155 0.00123778 0.00449843 0.00134002 
0.04819771 0.03563184 0.01301131 0.00361333 0.00101291 0.00276523 0.01028433 0.00482295 0.01729320 0.00264446 0.00167527 0.01377128 0.01314724 0.00120107 0.00439766 0.00134026 
0.04632932 0.03513196 0.01298420 0.00356669 0.00101451 0.00271149 0.01024209 0.00500385 0.01763613 0.00262031 0.00165380 0.01381211 0.01286804 0.00116686 0.00429726 0.00134040 
0.04448389 0.03465797 0.01294755 0.00351760 0.00101565 0.00265853 0.01020681 0.00519439 0.01797400 0.00259725 0.00163224 0.01386889 0.01257530 0.00113508 0.00419752 0.00134042 
0.04266975 0.03421191 0.01290166 0.00346628 0.00101634 0.00260661 0.01017906 0.00539389 0.01830552 0.00257538 0.00161071 0.01394120 0.01227039 0.00110567 0.00409871 0.00134034 
0.04089499 0.03379574 0.01284685 0.00341297 0.00101657 0.00255597 0.01015932 0.00560164 0.01862942 0.00255480 0.00158933 0.01402855 0.01195474 0.00107856 0.00400112 0.00134014 
0.03916743 0.03341129 0.01278349 0.00335789 0.00101632 0.00250686 0.01014806 0.00581688 0.01894446 0.00253558 0.00156819 0.01413042 0.01162981 0.00105367 0.00390501 0.00133983 
0.03749451 0.03306028 0.01271194 0.00330130 0.00101561 0.00245951 0.01014566 0.00603881 0.01924946 0.00251780 0.00154742 0.01424626 0.01129709 0.00103091 0.00381066 0.00133941 
0.03588333 0.03274430 0.01263258 0.00324343 0.00101443 0.00241413 0.01015246 0.00626661 0.01954329 0.00250154 0.00152712 0.01437546 0.01095809 0.00101021 0.00371831 0.00133887 
0.03434057 0.03246480 0.01254583 0.00318451 0.00101278 0.00237093 0.01016873 0.00649943 0.01982484 0.00248684 0.00150741 0.01451740 0.01061433 0.00099147 0.00362821 0.00133823 
0.03287248 0.03222308 0.01245208 0.00312479 0.00101067 0.00233009 0.01019467 0.00673638 0.02009311 0.00247375 0.00148837 0.01467141 0.01026733 0.00097462 0.00354060 0.00133747 
0.03148482 0.03202031 0.01235175 0.00306451 0.00100811 0.00229178 0.01023042 0.00697656 0.02034712 0.00246232 0.00147012 0.01483682 0.00991860 0.00095955 0.00345571 0.00133660 
0.03018287 0.03185747 0.01224525 0.00300389 0.00100510 0.00225617 0.01027604 0.00721908 0.02058599 0.00245259 0.00145275 0.01501289 0.00956965 0.00094619 0.00337374 0.00133562 
0.02897139 0.03173538 0.01213301 0.00294316 0.00100166 0.00222338 0.01033153 0.00746300 0.02080891 0.00244456 0.00143634 0.01519891 0.00922196 0.00093446 0.00329490 0.00133454 
0.02785460 0.03165470 0.01201543 0.00288255 0.00099780 0.00219354 0.01039683 0.00770740 0.02101514 0.00243827 0.00142099 0.01539412 0.00887698 0.00092425 0.00321938 0.00133336 
0.02683617 0.03161590 0.01189293 0.00282227 0.00099353 0.00216676 0.01047177 0.00795136 0.02120404 0.00243370 0.00140677 0.01559775 0.00853613 0.00091551 0.00314734 0.00133208 
0.02591922 0.03161928 0.01176591 0.00276253 0.00098887 0.00214311 0.01055615 0.00819396 0.02137505 0.00243087 0.00139375 0.01580904 0.00820077 0.00090814 0.00307895 0.00133071 
0.02510628 0.03166495 0.01163476 0.00270354 0.00098384 0.00212266 0.01064968 0.00843430 0.02152770 0.00242976 0.00138201 0.01602718 0.00787224 0.00090207 0.00301434 0.00132924 
0.02439931 0.03175282 0.01149985 0.00264549 0.00097847 0.00210547 0.01075201 0.00867148 0.02166162 0.00243035 0.00137158 0.01625141 0.00755180 0.00089723 0.00295365 0.00132769 
0.02379970 0.03188264 0.01136156 0.00258856 0.00097276 0.00209156 0.01086270 0.00890464 0.02177653 0.00243261 0.00136254 0.01648091 0.00724066 0.00089355 0.00289698 0.00132606 
0.02330827 0.03205394 0.01122023 0.00253292 0.00096675 0.00208096 0.01098128 0.00913292 0.02187224 0.00243651 0.00135491 0.01671491 0.00693995 0.00089097 0.00284442 0.00132436 
0.02292526 0.03226610 0.01107619 0.00247874 0.00096045 0.00207365 0.01110718 0.00935551 0.02194867 0.00244201 0.00134873 0.01695261 0.00665074 0.00088944 0.00279604 0.00132258 
0.02265036 0.03251827 0.01092975 0.00242618 0.00095389 0.00206961 0.01123980 0.00957163 0.02200584 0.00244907 0.00134402 0.01719323 0.00637402 0.00088888 0.00275191 0.00132075 
0.02248271 0.03280944 0.01078119 0.00237537 0.00094709 0.00206882 0.01137848 0.00978053 0.02204386 0.00245761 0.00134080 0.01743600 0.00611071 0.00088926 0.00271206 0.00131886 
0.02242094 0.03313842 0.01063080 0.00232644 0.00094008 0.00207121 0.01152248 0.00998150 0.02206294 0.00246760 0.00133908 0.01768015 0.00586163 0.00089053 0.00267651 0.00131692 
0.02246312 0.03350383 0.01047882 0.00227952 0.00093289 0.00207672 0.01167104 0.01017389 0.02206338 0.00247895 0.00133885 0.01792494 0.00562752 0.00089265 0.00264526 0.00131493 
0.02260688 0.03390412 0.01032546 0.00223472 0.00092554 0.00208526 0.01182336 0.01035706 0.02204559 0.00249160 0.00134011 0.01816963 0.00540904 0.00089557 0.00261829 0.00131292 
0.02284934 0.03433757 0.01017093 0.00219213 0.00091806 0.00209675 0.01197856 0.01053046 0.02201004 0.00250547 0.00134282 0.01841352 0.00520674 0.00089928 0.00259557 0.00131087 
0.02318720 0.03480229 0.01001542 0.00215182 0.00091046 0.00211106 0.01213578 0.01069357 0.02195732 0.00252049 0.00134698 0.01865591 0.00502109 0.00090373 0.00257705 0.00130881 
0.02361672 0.03529626 0.00985907 0.00211389 0.00090279 0.00212809 0.01229409 0.01084592 0.02188809 0.00253656 0.00135253 0.01889614 0.00485248 0.00090891 0.00256266 0.00130674 
0.02413377 0.03581729 0.00970201 0.00207838 0.00089506 0.00214769 0.01245257 0.01098712 0.02180309 0.00255360 0.00135944 0.01913356 0.00470120 0.00091479 0.00255231 0.00130466 
0.02473388 0.03636305 0.00954437 0.00204535 0.00088729 0.00216973 0.01261025 0.01111681 0.02170313 0.00257153 0.00136765 0.01936755 0.00456742 0.00092135 0.00254590 0.00130259 
0.02541223 0.03693110 0.00938623 0.00201483 0.00087951 0.00219405 0.01276618 0.01123469 0.02158910 0.00259025 0.00137710 0.01959753 0.00445127 0.00092858 0.00254331 0.00130054 
0.02616371 0.03751886 0.00922766 0.00198686 0.00087175 0.00222050 0.01291938 0.01134053 0.02146196 0.00260967 0.00138773 0.01982295 0.00435275 0.00093646 0.00254441 0.00129850 
0.02698292 0.03812365 0.00906873 0.00196144 0.00086402 0.00224891 0.01306889 0.01143416 0.02132271 0.00262969 0.00139946 0.02004327 0.00427179 0.00094498 0.00254905 0.00129650 
0.02786426 0.03874271 0.00890946 0.00193859 0.00085634 0.00227911 0.01321376 0.01151544 0.02117242 0.00265022 0.00141221 0.02025801 0.00420822 0.00095414 0.00255708 0.00129453 
0.02880192 0.03937316 0.00874990 0.00191829 0.00084874 0.00231091 0.01335303 0.01158432 0.02101221 0.00267116 0.00142590 0.02046671 0.00416182 0.00096391 0.00256832 0.00129261 
0.02978990 0.04001208 0.00859004 0.00190055 0.00084124 0.00234415 0.01348579 0.01164078 0.02084322 0.00269241 0.00144044 0.02066896 0.00413225 0.00097429 0.00258259 0.00129074 
0.03082211 0.04065646 0.00842989 0.00188532 0.00083384 0.00237864 0.01361113 0.01168487 0.02066665 0.00271389 0.00145573 0.02086436 0.00411913 0.00098528 0.00259970 0.00128893 
0.03189232 0.04130327 0.00826944 0.00187259 0.00082657 0.00241419 0.01372820 0.01171670 0.02048371 0.00273549 0.00147168 0.02105257 0.00412198 0.00099686 0.00261945 0.00128719 
0.03299426 0.04194944 0.00810868 0.00186231 0.00081944 0.00245062 0.01383616 0.01173640 0.02029563 0.00275712 0.00148819 0.02123329 0.00414027 0.00100902 0.00264163 0.00128553 
0.03412160 0.04259186 0.00794760 0.00185443 0.00081247 0.00248774 0.01393424 0.01174418 0.02010367 0.00277870 0.00150514 0.02140625 0.00417340 0.00102177 0.00266603 0.00128395 
0.03526805 0.04322744 0.00778618 0.00184890 0.00080566 0.00252537 0.01402170 0.01174027 0.01990909 0.00280013 0.00152245 0.02157120 0.00422071 0.00103507 0.00269243 0.00128247 
0.03642729 0.04385308 0.00762440 0.00184565 0.00079902 0.00256332 0.01409786 0.01172497 0.01971313 0.00282131 0.00153999 0.02172797 0.00428151 0.00104892 0.00272061 0.00128107 
0.03759310 0.04446572 0.00746224 0.00184462 0.00079257 0.00260142 0.01416210 0.01169861 0.01951706 0.00284218 0.00155768 0.02187639 0.00435502 0.00106331 0.00275035 0.00127978 
0.03875933 0.04506234 0.00729971 0.00184573 0.00078631 0.00263949 0.01421387 0.01166154 0.01932210 0.00286264 0.00157539 0.02201635 0.00444046 0.00107822 0.00278142 0.00127860 
0.03991995 0.04563994 0.00713680 0.00184891 0.00078024 0.00267735 0.01425268 0.01161417 0.01912947 0.00288262 0.00159303 0.02214778 0.00453699 0.00109363 0.00281360 0.00127753 
0.04106904 0.04619561 0.00697352 0.00185406 0.00077438 0.00271485 0.01427810 0.01155693 0.01894038 0.00290204 0.00161050 0.02227063 0.00464374 0.00110951 0.00284667 0.00127658 
0.04220088 0.04672654 0.00680991 0.00186110 0.00076872 0.00275182 0.01428980 0.01149028 0.01875597 0.00292083 0.00162770 0.02238490 0.00475982 0.00112584 0.00288042 0.00127575 
0.04330990 0.04722996 0.00664600 0.00186994 0.00076326 0.00278810 0.01428749 0.01141470 0.01857736 0.00293892 0.00164452 0.02249062 0.00488432 0.00114260 0.00291464 0.00127504 
0.04439075 0.04770327 0.00648184 0.00188048 0.00075801 0.00282355 0.01427100 0.01133070 0.01840565 0.00295624 0.00166089 0.02258786 0.00501631 0.00115974 0.00294913 0.00127446 
0.04543830 0.04814394 0.00631753 0.00189261 0.00075296 0.00285803 0.01424021 0.01123879 0.01824186 0.00297273 0.00167671 0.02267673 0.00515487 0.00117725 0.00298368 0.00127402 
0.04644766 0.04854960 0.00615315 0.00190624 0.00074812 0.00289140 0.01419508 0.01113952 0.01808696 0.00298835 0.00169190 0.02275735 0.00529905 0.00119508 0.00301812 0.00127371 
0.04741419 0.04891802 0.00598884 0.00192126 0.00074348 0.00292354 0.01413568 0.01103342 0.01794189 0.00300303 0.00170638 0.02282989 0.00544791 0.00121319 0.00305227 0.00127353 
0.04833354 0.04924713 0.00582472 0.00193757 0.00073903 0.00295433 0.01406213 0.01092107 0.01780750 0.00301673 0.00172009 0.02289455 0.00560054 0.00123154 0.00308596 0.00127349 
0.04920162 0.04953502 0.00566099 0.00195505 0.00073478 0.00298366 0.01397465 0.01080301 0.01768459 0.00302940 0.00173295 0.02295156 0.00575602 0.00125008 0.00311905 0.00127359 
0.05001465 0.04977997 0.00549783 0.00197359 0.00073071 0.00301142 0.01387352 0.01067980 0.01757390 0.00304101 0.00174493 0.02300116 0.00591344 0.00126876 0.00315140 0.00127383 
0.05076912 0.04998043 0.00533547 0.00199309 0.00072683 0.00303754 0.01375913 0.01055202 0.01747607 0.00305153 0.00175595 0.02304363 0.00607194 0.00128755 0.00318288 0.00127420 
0.05146188 0.05013508 0.00517417 0.00201344 0.00072312 0.00306191 0.01363192 0.01042021 0.01739170 0.00306092 0.00176600 0.02307927 0.00623066 0.00130637 0.00321340 0.00127471 
0.05209005 0.05024278 0.00501421 0.00203452 0.00071959 0.00308448 0.01349241 0.01028492 0.01732130 0.00306916 0.00177503 0.02310840 0.00638880 0.00132518 0.00324285 0.00127535 
0.05265109 0.05030260 0.00485590 0.00205622 0.00071621 0.00310517 0.01334119 0.01014671 0.01726532 0.00307623 0.00178301 0.02313137 0.00654556 0.00134393 0.00327117 0.00127613 
0.05314278 0.05031383 0.00469957 0.00207844 0.00071299 0.00312392 0.01317892 0.01000611 0.01722411 0.00308213 0.00178994 0.02314853 0.00670019 0.00136255 0.00329831 0.00127703 
0.05356322 0.05027600 0.00454561 0.00210105 0.00070992 0.00314069 0.01300633 0.00986362 0.01719796 0.00308683 0.00179581 0.02316027 0.00685200 0.00138099 0.00332422 0.00127806 
0.05391083 0.05018886 0.00439439 0.00212396 0.00070699 0.00315543 0.01282419 0.00971978 0.01718709 0.00309034 0.00180061 0.02316697 0.00700032 0.00139919 0.00334889 0.00127922 
0.05418436 0.05005237 0.00424635 0.00214705 0.00070420 0.00316811 0.01263334 0.00957507 0.01719162 0.00309266 0.00180435 0.02316904 0.00714454 0.00141709 0.00337230 0.00128049 
0.05438288 0.04986673 0.00410193 0.00217022 0.00070153 0.00317871 0.01243467 0.00942996 0.01721161 0.00309379 0.00180706 0.02316689 0.00728408 0.00143463 0.00339450 0.00128188 
0.05450575 0.04963240 0.00396160 0.00219335 0.00069899 0.00318721 0.01222909 0.00928492 0.01724705 0.00309375 0.00180876 0.02316095 0.00741843 0.00145177 0.00341549 0.00128337 
0.05455267 0.04935002 0.00382584 0.00221636 0.00069656 0.00319359 0.01201758 0.00914041 0.01729785 0.00309254 0.00180948 0.02315165 0.00754713 0.00146843 0.00343535 0.00128497 
0.05452364 0.04902051 0.00369518 0.00223912 0.00069424 0.00319787 0.01180113 0.00899684 0.01736385 0.00309019 0.00180926 0.02313943 0.00766975 0.00148458 0.00345415 0.00128667 
0.05441894 0.04864498 0.00357013 0.00226156 0.00069202 0.00320004 0.01158076 0.00885462 0.01744483 0.00308672 0.00180816 0.02312472 0.00778594 0.00150016 0.00347196 0.00128846 
0.05423916 0.04822477 0.00345124 0.00228356 0.00068990 0.00320011 0.01135751 0.00871416 0.01754048 0.00308216 0.00180622 0.02310797 0.00789540 0.00151511 0.00348890 0.00129033 
0.05398516 0.04776145 0.00333908 0.00230503 0.00068788 0.00319811 0.01113244 0.00857582 0.01765047 0.00307654 0.00180351 0.02308963 0.00799785 0.00152940 0.00350509 0.00129228 
0.05365807 0.04725679 0.00323419 0.00232589 0.00068595 0.00319406 0.01090661 0.00843997 0.01777436 0.00306990 0.00180010 0.02307013 0.00809311 0.00154298 0.00352066 0.00129431 
0.05325931 0.04671276 0.00313716 0.00234603 0.00068410 0.00318799 0.01068107 0.00830695 0.01791170 0.00306228 0.00179606 0.02304991 0.00818101 0.00155582 0.00353578 0.00129639 
0.05279052 0.04613151 0.00304856 0.00236539 0.00068234 0.00317994 0.01045688 0.00817708 0.01806195 0.00305372 0.00179147 0.02302942 0.00826147 0.00156788 0.00355059 0.00129853 
0.05225360 0.04551541 0.00296896 0.00238387 0.00068066 0.00316995 0.01023508 0.00805069 0.01822454 0.00304427 0.00178641 0.02300907 0.00833442 0.00157912 0.00356528 0.00130072 
0.05165067 0.04486697 0.00289892 0.00240140 0.00067905 0.00315807 0.01001669 0.00792807 0.01839886 0.00303398 0.00178096 0.02298929 0.00839987 0.00158954 0.00358003 0.00130295 
0.05098410 0.04418887 0.00283903 0.00241790 0.00067753 0.00314435 0.00980270 0.00780950 0.01858424 0.00302290 0.00177522 0.02297049 0.00845786 0.00159911 0.00359505 0.00130521 
0.05025643 0.04348394 0.00278981 0.00243331 0.00067609 0.00312885 0.00959409 0.00769525 0.01877999 0.00301109 0.00176927 0.02295309 0.00850846 0.00160781 0.00361054 0.00130749 
0.04947042 0.04275515 0.00275182 0.00244756 0.00067472 0.00311164 0.00939177 0.00758560 0.01898539 0.00299860 0.00176321 0.02293746 0.00855182 0.00161564 0.00362670 0.00130979 
0.04862902 0.04200557 0.00272556 0.00246058 0.00067344 0.00309279 0.00919664 0.00748078 0.01919969 0.00298550 0.00175712 0.02292399 0.00858808 0.00162259 0.00364377 0.00131209 
0.04773534 0.04123839 0.00271153 0.00247234 0.00067223 0.00307236 0.00900952 0.00738104 0.01942210 0.00297185 0.00175111 0.02291304 0.00861746 0.00162868 0.00366195 0.00131439 
0.04679266 0.04045688 0.00271020 0.00248276 0.00067111 0.00305044 0.00883121 0.00728661 0.01965184 0.00295771 0.00174526 0.02290497 0.00864018 0.00163391 0.00368147 0.00131668 
0.04580441 0.03966439 0.00272200 0.00249182 0.00067006 0.00302711 0.00866243 0.00719772 0.01988810 0.00294315 0.00173966 0.02290012 0.00865651 0.00163829 0.00370255 0.00131896 
0.04477414 0.03886433 0.00274733 0.00249947 0.00066911 0.00300244 0.00850384 0.00711458 0.02013006 0.00292822 0.00173441 0.02289880 0.00866674 0.00164185 0.00372541 0.00132120 
0.04370556 0.03806012 0.00278656 0.00250568 0.00066824 0.00297654 0.00835606 0.00703740 0.02037691 0.00291300 0.00172958 0.02290131 0.00867117 0.00164461 0.00375028 0.00132342 
0.04260246 0.03725523 0.00284001 0.00251043 0.00066746 0.00294949 0.00821961 0.00696639 0.02062783 0.00289755 0.00172526 0.02290795 0.00867014 0.00164662 0.00377736 0.00132559 
0.04146874 0.03645313 0.00290796 0.00251369 0.00066677 0.00292140 0.00809497 0.00690174 0.02088201 0.00288194 0.00172153 0.02291897 0.00866399 0.00164791 0.00380687 0.00132771 
0.04030841 0.03565725 0.00299064 0.00251546 0.00066618 0.00289235 0.00798253 0.00684365 0.02113865 0.00286623 0.00171847 0.02293461 0.00865309 0.00164852 0.00383899 0.00132977 
0.03912553 0.03487100 0.00308822 0.00251572 0.00066568 0.00286246 0.00788260 0.00679231 0.02139696 0.00285048 0.00171613 0.02295511 0.00863779 0.00164851 0.00387392 0.00133177 
0.03792424 0.03409776 0.00320083 0.00251449 0.00066529 0.00283184 0.00779543 0.00674789 0.02165619 0.00283476 0.00171458 0.02298065 0.00861848 0.00164792 0.00391183 0.00133370 
0.03670874 0.03334080 0.00332854 0.00251176 0.00066500 0.00280058 0.00772119 0.00671058 0.02191558 0.00281913 0.00171388 0.02301143 0.00859554 0.00164683 0.00395289 0.00133556 
0.03548327 0.03260335 0.00347135 0.00250755 0.00066482 0.00276881 0.00765999 0.00668055 0.02217442 0.00280365 0.00171408 0.02304759 0.00856934 0.00164530 0.00399725 0.00133733 
0.03425209 0.03188849 0.00362922 0.00250189 0.00066474 0.00273664 0.00761183 0.00665796 0.02243203 0.00278838 0.00171522 0.02308927 0.00854026 0.00164339 0.00404503 0.00133902 
0.03301950 0.03119921 0.00380202 0.00249481 0.00066477 0.00270419 0.00757666 0.00664297 0.02268776 0.00277337 0.00171733 0.02313658 0.00850866 0.00164117 0.00409635 0.00134061 
0.03178980 0.03053837 0.00398959 0.00248634 0.00066491 0.00267158 0.00755437 0.00663574 0.02294100 0.00275866 0.00172045 0.02318960 0.00847491 0.00163872 0.00415132 0.00134211 
0.03056729 0.02990866 0.00419167 0.00247653 0.00066517 0.00263892 0.00754474 0.00663641 0.02319118 0.00274432 0.00172460 0.02324838 0.00843935 0.00163612 0.00420999 0.00134350 
0.02935627 0.02931260 0.00440795 0.00246544 0.00066554 0.00260635 0.00754753 0.00664511 0.02343776 0.00273039 0.00172977 0.02331297 0.00840232 0.00163344 0.00427244 0.00134479 
0.02816100 0.02875256 0.00463807 0.00245311 0.00066602 0.00257399 0.00756239 0.00666197 0.02368029 0.00271691 0.00173599 0.02338337 0.00836414 0.00163077 0.00433870 0.00134598 
0.02698573 0.02823070 0.00488157 0.00243963 0.00066661 0.00254196 0.00758895 0.00668711 0.02391832 0.00270391 0.00174325 0.02345955 0.00832510 0.00162818 0.00440877 0.00134705 
0.02583464 0.02774898 0.00513794 0.00242505 0.00066731 0.00251040 0.00762674 0.00672062 0.02415147 0.00269145 0.00175152 0.02354149 0.00828550 0.00162576 0.00448264 0.00134802 
0.02471189 0.02730915 0.00540662 0.00240947 0.00066813 0.00247942 0.00767527 0.00676260 0.02437943 0.00267953 0.00176080 0.02362909 0.00824558 0.00162359 0.00456029 0.00134887 
0.02362154 0.02691272 0.00568697 0.00239297 0.00066905 0.00244917 0.00773400 0.00681313 0.02460193 0.00266820 0.00177106 0.02372228 0.00820559 0.00162174 0.00464165 0.00134961 
0.02256762 0.02656101 0.00597829 0.00237564 0.00067007 0.00241977 0.00780231 0.00687225 0.02481874 0.00265748 0.00178225 0.02382092 0.00816574 0.00162029 0.00472664 0.00135023 
0.02155403 0.02625505 0.00627981 0.00235757 0.00067119 0.00239135 0.00787958 0.00694002 0.02502971 0.00264739 0.00179435 0.02392487 0.00812623 0.00161933 0.00481516 0.00135075 
0.02058460 0.02599568 0.00659072 0.00233888 0.00067241 0.00236403 0.00796514 0.00701645 0.02523473 0.00263793 0.00180729 0.02403394 0.00808723 0.00161892 0.00490707 0.00135115 
0.01966306 0.02578344 0.00691014 0.00231966 0.00067372 0.00233793 0.00805828 0.00710155 0.02543376 0.00262913 0.00182103 0.02414795 0.00804886 0.00161913 0.00500223 0.00135144 
0.01879302 0.02561865 0.00723716 0.00230002 0.00067512 0.00231320 0.00815829 0.00719529 0.02562679 0.00262100 0.00183549 0.02426666 0.00801126 0.00162004 0.00510045 0.00135163 
0.01797795 0.02550139 0.00757079 0.00228009 0.00067659 0.00228994 0.00826443 0.00729764 0.02581390 0.00261352 0.00185062 0.02438983 0.00797453 0.00162169 0.00520154 0.00135171 
0.01722120 0.02543145 0.00791001 0.00225998 0.00067814 0.00226827 0.00837594 0.00740853 0.02599519 0.00260672 0.00186634 0.02451718 0.00793872 0.00162416 0.00530528 0.00135169 
0.01652596 0.02540839 0.00825377 0.00223981 0.00067975 0.00224831 0.00849207 0.00752787 0.02617083 0.00260057 0.00188257 0.02464842 0.00790389 0.00162749 0.00541144 0.00135157 
0.01589529 0.02543153 0.00860097 0.00221970 0.00068141 0.00223017 0.00861205 0.00765554 0.02634103 0.00259508 0.00189923 0.02478323 0.00787006 0.00163173 0.00551974 0.00135136 
0.01533205 0.02549993 0.00895048 0.00219977 0.00068312 0.00221397 0.00873514 0.00779139 0.02650605 0.00259023 0.00191623 0.02492126 0.00783725 0.00163692 0.00562993 0.00135106 
0.01483893 0.02561240 0.00930116 0.00218014 0.00068487 0.00219979 0.00886058 0.00793527 0.02666619 0.00258602 0.00193349 0.02506215 0.00780543 0.00164309 0.00574169 0.00135068 
0.01441846 0.02576755 0.00965181 0.00216095 0.00068665 0.00218774 0.00898766 0.00808695 0.02682178 0.00258242 0.00195092 0.02520554 0.00777459 0.00165028 0.00585473 0.00135022 
0.01407292 0.02596373 0.01000127 0.00214230 0.00068845 0.00217792 0.00911567 0.00824622 0.02697320 0.00257941 0.00196843 0.02535101 0.00774467 0.00165850 0.00596872 0.00134969 
0.01380443 0.02619910 0.01034831 0.00212433 0.00069025 0.00217039 0.00924393 0.00841282 0.02712087 0.00257698 0.00198592 0.02549815 0.00771562 0.00166777 0.00608333 0.00134909 
0.01361486 0.02647159 0.01069176 0.00210713 0.00069205 0.00216525 0.00937179 0.00858645 0.02726520 0.00257510 0.00200330 0.02564653 0.00768736 0.00167810 0.00619821 0.00134844 
0.01350587 0.02677896 0.01103040 0.00209084 0.00069384 0.00216257 0.00949863 0.00876681 0.02740666 0.00257375 0.00202047 0.02579570 0.00765981 0.00168948 0.00631301 0.00134773 
0.01347886 0.02711878 0.01136304 0.00207556 0.00069561 0.00216239 0.00962389 0.00895354 0.02754572 0.00257290 0.00203736 0.02594520 0.00763289 0.00170192 0.00642737 0.00134698 
0.01353500 0.02748843 0.01168851 0.00206139 0.00069734 0.00216479 0.00974703 0.00914626 0.02768286 0.00257253 0.00205386 0.02609457 0.00760651 0.00171539 0.00654092 0.00134620 
0.01367521 0.02788517 0.01200565 0.00204843 0.00069902 0.00216981 0.00986756 0.00934458 0.02781857 0.00257260 0.00206989 0.02624331 0.00758057 0.00172987 0.00665330 0.00134538 
0.01390011 0.02830610 0.01231334 0.00203679 0.00070064 0.00217747 0.00998507 0.00954806 0.02795334 0.00257308 0.00208537 0.02639094 0.00755497 0.00174533 0.00676415 0.00134454 
0.01421009 0.02874821 0.01261048 0.00202653 0.00070220 0.00218782 0.01009915 0.00975624 0.02808765 0.00257396 0.00210022 0.02653697 0.00752962 0.00176175 0.00687309 0.00134368 
0.01460521 0.02920836 0.01289603 0.00201776 0.00070368 0.00220086 0.01020948 0.00996863 0.02822197 0.00257519 0.00211435 0.02668088 0.00750445 0.00177906 0.00697976 0.00134281 
0.01508528 0.02968336 0.01316897 0.00201054 0.00070508 0.00221660 0.01031580 0.01018474 0.02835676 0.00257675 0.00212770 0.02682217 0.00747935 0.00179723 0.00708381 0.00134195 
0.01564981 0.03016991 0.01342835 0.00200493 0.00070637 0.00223504 0.01041788 0.01040401 0.02849245 0.00257862 0.00214021 0.02696033 0.00745428 0.00181620 0.00718489 0.00134109 
0.01629797 0.03066470 0.01367327 0.00200099 0.00070756 0.00225617 0.01051556 0.01062591 0.02862943 0.00258077 0.00215181 0.02709485 0.00742916 0.00183590 0.00728265 0.00134024 
0.01702868 0.03116434 0.01390291 0.00199877 0.00070864 0.00227995 0.01060875 0.01084984 0.02876806 0.00258317 0.00216244 0.02722522 0.00740396 0.00185627 0.00737677 0.00133941 
0.01784050 0.03166546 0.01411649 0.00199831 0.00070959 0.00230636 0.01069740 0.01107523 0.02890868 0.00258579 0.00217205 0.02735093 0.00737864 0.00187723 0.00746693 0.00133860 
0.01873171 0.03216468 0.01431332 0.00199964 0.00071041 0.00233535 0.01078153 0.01130146 0.02905154 0.00258862 0.00218062 0.02747147 0.00735319 0.00189870 0.00755282 0.00133782 
0.01970026 0.03265865 0.01449279 0.00200277 0.00071110 0.00236686 0.01086120 0.01152791 0.02919687 0.00259163 0.00218808 0.02758635 0.00732762 0.00192060 0.00763416 0.00133708 
0.02074378 0.03314405 0.01465437 0.00200772 0.00071164 0.00240082 0.01093654 0.01175395 0.02934483 0.00259480 0.00219443 0.02769508 0.00730196 0.00194284 0.00771068 0.00133638 
0.02185958 0.03361763 0.01479761 0.00201449 0.00071204 0.00243715 0.01100772 0.01197892 0.02949552 0.00259812 0.00219963 0.02779717 0.00727626 0.00196533 0.00778212 0.00133572 
0.02304467 0.03407621 0.01492215 0.00202306 0.00071229 0.00247577 0.01107497 0.01220218 0.02964896 0.00260157 0.00220367 0.02789214 0.00725059 0.00198796 0.00784827 0.00133511 
0.02429574 0.03451672 0.01502771 0.00203342 0.00071238 0.00251657 0.01113856 0.01242306 0.02980510 0.00260514 0.00220654 0.02797954 0.00722506 0.00201066 0.00790889 0.00133455 
0.02560916 0.03493619 0.01511413 0.00204553 0.00071232 0.00255945 0.01119880 0.01264092 0.02996384 0.00260881 0.00220824 0.02805892 0.00719978 0.00203330 0.00796382 0.00133405 
0.02698101 0.03533178 0.01518133 0.00205935 0.00071210 0.00260428 0.01125605 0.01285507 0.03012497 0.00261257 0.00220878 0.02812983 0.00717491 0.00205579 0.00801288 0.00133360 
0.02840707 0.03570081 0.01522931 0.00207484 0.00071173 0.00265093 0.01131069 0.01306488 0.03028822 0.00261642 0.00220817 0.02819186 0.00715061 0.00207803 0.00805592 0.00133321 
0.02988283 0.03604073 0.01525820 0.00209194 0.00071120 0.00269928 0.01136315 0.01326967 0.03045321 0.00262035 0.00220642 0.02824461 0.00712708 0.00209992 0.00809284 0.00133287 
0.03140351 0.03634919 0.01526818 0.00211058 0.00071052 0.00274917 0.01141387 0.01346880 0.03061951 0.00262435 0.00220356 0.02828768 0.00710455 0.00212134 0.00812352 0.00133259 
0.03296404 0.03662402 0.01525958 0.00213069 0.00070969 0.00280044 0.01146333 0.01366164 0.03078658 0.00262842 0.00219962 0.02832071 0.00708326 0.00214219 0.00814792 0.00133237 
0.03455913 0.03686326 0.01523278 0.00215217 0.00070871 0.00285294 0.01151200 0.01384755 0.03095381 0.00263256 0.00219464 0.02834336 0.00706347 0.00216238 0.00816596 0.00133220 
0.03618324 0.03706514 0.01518826 0.00217494 0.00070759 0.00290650 0.01156039 0.01402592 0.03112049 0.00263676 0.00218866 0.02835528 0.00704548 0.00218179 0.00817764 0.00133208 
0.03783059 0.03722812 0.01512662 0.00219890 0.00070634 0.00296095 0.01160900 0.01419616 0.03128585 0.00264103 0.00218172 0.02835619 0.00702959 0.00220034 0.00818295 0.00133201 
0.03949523 0.03735090 0.01504849 0.00222394 0.00070496 0.00301610 0.01165834 0.01435767 0.03144903 0.00264536 0.00217387 0.02834579 0.00701613 0.00221791 0.00818192 0.00133199 
0.04117099 0.03743240 0.01495464 0.00224996 0.00070346 0.00307177 0.01170891 0.01450991 0.03160908 0.00264976 0.00216516 0.02832382 0.00700544 0.00223443 0.00817459 0.00133201 
0.04285156 0.03747179 0.01484588 0.00227683 0.00070186 0.00312778 0.01176121 0.01465233 0.03176500 0.00265422 0.00215566 0.02829006 0.00699787 0.00224980 0.00816104 0.00133206 
0.04453050 0.03746851 0.01472310 0.00230444 0.00070015 0.00318392 0.01181571 0.01478441 0.03191572 0.00265874 0.00214542 0.02824429 0.00699380 0.00226392 0.00814134 0.00133215 
0.04620124 0.03742220 0.01458727 0.00233265 0.00069835 0.00324002 0.01187287 0.01490568 0.03206009 0.00266332 0.00213450 0.02818633 0.00699358 0.00227673 0.00811562 0.00133226 
0.04785711 0.03733281 0.01443941 0.00236134 0.00069647 0.00329586 0.01193314 0.01501566 0.03219693 0.00266796 0.00212296 0.02811603 0.00699761 0.00228815 0.00808399 0.00133240 
0.04949140 0.03720051 0.01428059 0.00239037 0.00069453 0.00335126 0.01199692 0.01511394 0.03232499 0.00267265 0.00211087 0.02803324 0.00700627 0.00229810 0.00804662 0.00133255 
0.05109736 0.03702572 0.01411195 0.00241962 0.00069253 0.00340602 0.01206458 0.01520009 0.03244300 0.00267739 0.00209830 0.02793788 0.00701992 0.00230652 0.00800365 0.00133270 
0.05266823 0.03680915 0.01393464 0.00244894 0.00069049 0.00345994 0.01213646 0.01527377 0.03254964 0.00268217 0.00208530 0.02782987 0.00703895 0.00231335 0.00795528 0.00133286 
0.05419727 0.03655172 0.01374987 0.00247821 0.00068841 0.00351284 0.01221285 0.01533462 0.03264359 0.00268698 0.00207193 0.02770917 0.00706372 0.00231853 0.00790169 0.00133300 
0.05567781 0.03625462 0.01355887 0.00250728 0.00068633 0.00356451 0.01229400 0.01538235 0.03272349 0.00269181 0.00205827 0.02757575 0.00709459 0.00232203 0.00784309 0.00133314 
0.05710327 0.03591925 0.01336288 0.00253602 0.00068424 0.00361476 0.01238012 0.01541670 0.03278799 0.00269664 0.00204438 0.02742965 0.00713188 0.00232380 0.00777970 0.00133324 
0.05846717 0.03554728 0.01316315 0.00256429 0.00068215 0.00366343 0.01247134 0.01543743 0.03283576 0.00270145 0.00203030 0.02727089 0.00717593 0.00232381 0.00771174 0.00133332 
0.05976322 0.03514056 0.01296095 0.00259197 0.00068010 0.00371031 0.01256776 0.01544435 0.03286548 0.00270623 0.00201609 0.02709957 0.00722703 0.00232204 0.00763946 0.00133336 
0.06098528 0.03470119 0.01275752 0.00261892 0.00067807 0.00375525 0.01266942 0.01543731 0.03287586 0.00271094 0.00200182 0.02691578 0.00728546 0.00231846 0.00756308 0.00133336 
0.06212746 0.03423146 0.01255410 0.00264502 0.00067610 0.00379806 0.01277630 0.01541619 0.03286564 0.00271556 0.00198752 0.02671966 0.00735144 0.00231308 0.00748287 0.00133330 
0.06318411 0.03373383 0.01235189 0.00267015 0.00067419 0.00383860 0.01288831 0.01538092 0.03283364 0.00272006 0.00197324 0.02651139 0.00742519 0.00230589 0.00739906 0.00133319 
0.06414986 0.03321097 0.01215209 0.00269419 0.00067235 0.00387670 0.01300531 0.01533146 0.03277873 0.00272441 0.00195903 0.02629117 0.00750688 0.00229690 0.00731193 0.00133301 
0.06501969 0.03266570 0.01195584 0.00271702 0.00067060 0.00391222 0.01312710 0.01526783 0.03269985 0.00272856 0.00194492 0.02605922 0.00759664 0.00228611 0.00722171 0.00133276 
0.06578889 0.03210099 0.01176423 0.00273855 0.00066894 0.00394502 0.01325341 0.01519006 0.03259604 0.00273247 0.00193094 0.02581581 0.00769456 0.00227357 0.00712867 0.00133243 
0.06645317 0.03151993 0.01157830 0.00275867 0.00066739 0.00397497 0.01338393 0.01509825 0.03246645 0.00273609 0.00191713 0.02556123 0.00780069 0.00225929 0.00703305 0.00133202 
0.06700864 0.03092576 0.01139905 0.00277728 0.00066595 0.00400196 0.01351828 0.01499252 0.03231032 0.00273939 0.00190351 0.02529582 0.00791502 0.00224332 0.00693512 0.00133153 
0.06745184 0.03032178 0.01122738 0.00279429 0.00066464 0.00402588 0.01365601 0.01487305 0.03212702 0.00274231 0.00189009 0.02501992 0.00803751 0.00222569 0.00683511 0.00133094 
0.06777979 0.02971140 0.01106414 0.00280964 0.00066346 0.00404664 0.01379664 0.01474004 0.03191607 0.00274479 0.00187690 0.02473392 0.00816804 0.00220648 0.00673326 0.00133027 
0.06799002 0.02909808 0.01091009 0.00282323 0.00066241 0.00406414 0.01393962 0.01459376 0.03167710 0.00274678 0.00186394 0.02443825 0.00830647 0.00218573 0.00662981 0.00132950 
0.06808055 0.02848534 0.01076591 0.00283501 0.00066150 0.00407833 0.01408436 0.01443449 0.03140990 0.00274821 0.00185121 0.02413334 0.00845258 0.00216351 0.00652500 0.00132863 
0.06804996 0.02787672 0.01063220 0.00284491 0.00066074 0.00408912 0.01423022 0.01426257 0.03111445 0.00274904 0.00183873 0.02381967 0.00860611 0.00213990 0.00641904 0.00132767 
0.06789739 0.02727577 0.01050946 0.00285289 0.00066013 0.00409648 0.01437652 0.01407838 0.03079086 0.00274920 0.00182648 0.02349775 0.00876675 0.00211499 0.00631214 0.00132661 
0.06762254 0.02668600 0.01039809 0.00285890 0.00065967 0.00410038 0.01452255 0.01388233 0.03043941 0.00274863 0.00181446 0.02316810 0.00893411 0.00208885 0.00620452 0.00132547 
0.06722573 0.02611095 0.01029840 0.00286291 0.00065936 0.00410078 0.01466756 0.01367488 0.03006060 0.00274727 0.00180266 0.02283129 0.00910777 0.00206159 0.00609637 0.00132423 
0.06670787 0.02555404 0.01021059 0.00286488 0.00065919 0.00409768 0.01481077 0.01345651 0.02965506 0.00274506 0.00179107 0.02248789 0.00928725 0.00203329 0.00598787 0.00132290 
0.06607049 0.02501867 0.01013478 0.00286481 0.00065918 0.00409108 0.01495139 0.01322777 0.02922365 0.00274193 0.00177967 0.02213852 0.00947202 0.00200407 0.00587922 0.00132149 
0.06531573 0.02450814 0.01007097 0.00286267 0.00065930 0.00408101 0.01508859 0.01298921 0.02876738 0.00273784 0.00176845 0.02178381 0.00966148 0.00197404 0.00577057 0.00132000 
0.06444637 0.02402562 0.01001907 0.00285847 0.00065957 0.00406748 0.01522156 0.01274144 0.02828749 0.00273272 0.00175738 0.02142440 0.00985500 0.00194330 0.00566209 0.00131844 
0.06346581 0.02357418 0.00997888 0.00285221 0.00065996 0.00405055 0.01534945 0.01248510 0.02778536 0.00272652 0.00174644 0.02106098 0.01005191 0.00191197 0.00555394 0.00131682 
0.06237806 0.02315675 0.00995011 0.00284389 0.00066049 0.00403027 0.01547145 0.01222085 0.02726260 0.00271920 0.00173561 0.02069424 0.01025148 0.00188017 0.00544625 0.00131514 
0.06118777 0.02277606 0.00993237 0.00283355 0.00066113 0.00400671 0.01558672 0.01194940 0.02672099 0.00271072 0.00172486 0.02032489 0.01045295 0.00184803 0.00533917 0.00131341 
0.05990017 0.02243472 0.00992519 0.00282120 0.00066187 0.00397995 0.01569446 0.01167148 0.02616247 0.00270102 0.00171418 0.01995365 0.01065551 0.00181566 0.00523282 0.00131165 
0.05852111 0.02213510 0.00992799 0.00280687 0.00066272 0.00395010 0.01579387 0.01138785 0.02558918 0.00269009 0.00170354 0.01958128 0.01085832 0.00178319 0.00512734 0.00130986 
0.05705698 0.02187938 0.00994012 0.00279062 0.00066365 0.00391726 0.01588419 0.01109929 0.02500342 0.00267789 0.00169291 0.01920853 0.01106054 0.00175076 0.00502283 0.00130805 
0.05551477 0.02166952 0.00996085 0.00277248 0.00066465 0.00388155 0.01596468 0.01080661 0.02440765 0.00266441 0.00168229 0.01883616 0.01126126 0.00171847 0.00491940 0.00130623 
0.05390198 0.02150725 0.00998937 0.00275250 0.00066572 0.00384310 0.01603465 0.01051065 0.02380448 0.00264963 0.00167164 0.01846495 0.01145958 0.00168647 0.00481718 0.00130442 
0.05222661 0.02139402 0.01002480 0.00273074 0.00066683 0.00380206 0.01609343 0.01021226 0.02319667 0.00263355 0.00166096 0.01809569 0.01165458 0.00165488 0.00471626 0.00130263 
0.05049715 0.02133107 0.01006621 0.00270727 0.00066798 0.00375859 0.01614042 0.00991231 0.02258708 0.00261617 0.00165023 0.01772917 0.01184533 0.00162381 0.00461674 0.00130087 
0.04872254 0.02131935 0.01011260 0.00268215 0.00066915 0.00371284 0.01617508 0.00961168 0.02197873 0.00259751 0.00163944 0.01736617 0.01203089 0.00159341 0.00451872 0.00129916 
0.04691212 0.02135952 0.01016293 0.00265546 0.00067033 0.00366501 0.01619690 0.00931127 0.02137470 0.00257760 0.00162859 0.01700750 0.01221032 0.00156377 0.00442231 0.00129750 
0.04507559 0.02145198 0.01021614 0.00262728 0.00067149 0.00361526 0.01620546 0.00901199 0.02077820 0.00255647 0.00161767 0.01665395 0.01238269 0.00153504 0.00432760 0.00129592 
0.04322300 0.02159682 0.01027110 0.00259768 0.00067264 0.00356379 0.01620040 0.00871474 0.02019248 0.00253416 0.00160670 0.01630631 0.01254710 0.00150731 0.00423470 0.00129441 
0.04136467 0.02179387 0.01032668 0.00256675 0.00067375 0.00351082 0.01618142 0.00842045 0.01962085 0.00251072 0.00159566 0.01596536 0.01270263 0.00148070 0.00414370 0.00129301 
0.03951116 0.02204263 0.01038174 0.00253458 0.00067480 0.00345653 0.01614833 0.00813003 0.01906669 0.00248623 0.00158459 0.01563188 0.01284842 0.00145531 0.00405472 0.00129171 
0.03767322 0.02234233 0.01043511 0.00250126 0.00067580 0.00340116 0.01610098 0.00784440 0.01853337 0.00246076 0.00157350 0.01530665 0.01298362 0.00143126 0.00396786 0.00129054 
0.03586173 0.02269189 0.01048564 0.00246689 0.00067671 0.00334492 0.01603932 0.00756447 0.01802427 0.00243439 0.00156241 0.01499042 0.01310741 0.00140863 0.00388325 0.00128949 
0.03408767 0.02308993 0.01053218 0.00243157 0.00067754 0.00328804 0.01596339 0.00729113 0.01754277 0.00240722 0.00155135 0.01468394 0.01321902 0.00138752 0.00380099 0.00128860 
0.03236203 0.02353479 0.01057360 0.00239538 0.00067826 0.00323075 0.01587332 0.00702528 0.01709221 0.00237937 0.00154035 0.01438793 0.01331771 0.00136801 0.00372121 0.00128785 
0.03069579 0.02402453 0.01060881 0.00235845 0.00067887 0.00317328 0.01576930 0.00676778 0.01667586 0.00235095 0.00152947 0.01410311 0.01340282 0.00135019 0.00364405 0.00128728 
0.02909985 0.02455693 0.01063674 0.00232085 0.00067936 0.00311587 0.01565163 0.00651948 0.01629695 0.00232208 0.00151873 0.01383016 0.01347371 0.00133412 0.00356963 0.00128688 
0.02758496 0.02512947 0.01065636 0.00228271 0.00067972 0.00305875 0.01552071 0.00628123 0.01595860 0.00229291 0.00150821 0.01356975 0.01352980 0.00131989 0.00349811 0.00128666 
0.02616168 0.02573942 0.01066668 0.00224413 0.00067994 0.00300216 0.01537700 0.00605382 0.01566382 0.00226358 0.00149795 0.01332254 0.01357060 0.00130753 0.00342964 0.00128663 
0.02484032 0.02638375 0.01066681 0.00220520 0.00068002 0.00294633 0.01522107 0.00583802 0.01541549 0.00223425 0.00148801 0.01308913 0.01359566 0.00129712 0.00336437 0.00128680 
0.02363087 0.02705923 0.01065586 0.00216605 0.00067996 0.00289151 0.01505357 0.00563457 0.01521635 0.00220507 0.00147847 0.01287012 0.01360459 0.00128869 0.00330246 0.00128717 
0.02254296 0.02776239 0.01063307 0.00212676 0.00067974 0.00283791 0.01487522 0.00544419 0.01506898 0.00217622 0.00146940 0.01266606 0.01359711 0.00128229 0.00324410 0.00128774 
0.02158580 0.02848956 0.01059772 0.00208746 0.00067938 0.00278578 0.01468685 0.00526754 0.01497576 0.00214787 0.00146087 0.01247749 0.01357298 0.00127795 0.00318944 0.00128852 
0.02076811 0.02923688 0.01054917 0.00204824 0.00067886 0.00273533 0.01448933 0.00510524 0.01493889 0.00212020 0.00145296 0.01230489 0.01353204 0.00127568 0.00313868 0.00128952 
0.02009809 0.03000032 0.01048688 0.00200922 0.00067820 0.00268678 0.01428365 0.00495788 0.01496034 0.00209339 0.00144576 0.01214873 0.01347422 0.00127551 0.00309200 0.00129072 
0.01958335 0.03077569 0.01041040 0.00197049 0.00067740 0.00264034 0.01407083 0.00482597 0.01504186 0.00206764 0.00143935 0.01200943 0.01339951 0.00127746 0.00304959 0.00129214 
0.01923088 0.03155869 0.01031936 0.00193216 0.00067646 0.00259621 0.01385198 0.00471002 0.01518495 0.00204312 0.00143382 0.01188737 0.01330799 0.00128151 0.00301164 0.00129376 
0.01904698 0.03234489 0.01021349 0.00189433 0.00067539 0.00255459 0.01362827 0.00461044 0.01539087 0.00202003 0.00142927 0.01178289 0.01319982 0.00128766 0.00297835 0.00129558 
0.01903724 0.03312979 0.01009264 0.00185711 0.00067420 0.00251567 0.01340091 0.00452760 0.01566058 0.00199855 0.00142579 0.01169629 0.01307523 0.00129590 0.00294991 0.00129760 
0.01920649 0.03390881 0.00995672 0.00182059 0.00067290 0.00247961 0.01317117 0.00446183 0.01599478 0.00197888 0.00142346 0.01162783 0.01293454 0.00130621 0.00292652 0.00129982 
