0.01055284 0.01291787 0.00485277 0.00114710 0.00798956 0.00133469 0.00588931 0.00286387 0.04747366 0.00210098 0.00668569 0.00207416 0.00899722 0.05298365 0.01839639 0.00045098 
0.01041563 0.01267721 0.00479683 0.00116096 0.00754636 0.00132918 0.00554091 0.00292744 0.04768620 0.00211840 0.00695735 0.00208139 0.00902742 0.05311565 0.01856505 0.00046869 
0.01028805 0.01243605 0.00473706 0.00117639 0.00711409 0.00132430 0.00520326 0.00299520 0.04782860 0.00213595 0.00724132 0.00208514 0.00905397 0.05319823 0.01871466 0.00048787 
0.01016984 0.01219533 0.00467377 0.00119332 0.00669388 0.00132008 0.00487778 0.00306674 0.04790056 0.00215349 0.00753636 0.00208538 0.00907653 0.05322988 0.01884424 0.00050849 
0.01006066 0.01195596 0.00460729 0.00121168 0.00628680 0.00131651 0.00456586 0.00314166 0.04790217 0.00217088 0.00784115 0.00208207 0.00909476 0.05320939 0.01895295 0.00053049 
0.00996008 0.01171888 0.00453797 0.00123139 0.00589383 0.00131360 0.00426882 0.00321953 0.04783396 0.00218797 0.00815433 0.00207518 0.00910835 0.05313590 0.01904003 0.00055384 
0.00986760 0.01148500 0.00446616 0.00125236 0.00551592 0.00131134 0.00398796 0.00329994 0.04769682 0.00220463 0.00847446 0.00206474 0.00911697 0.05300892 0.01910488 0.00057847 
0.00978267 0.01125520 0.00439221 0.00127450 0.00515392 0.00130974 0.00372450 0.00338248 0.04749205 0.00222071 0.00880009 0.00205076 0.00912035 0.05282832 0.01914700 0.00060433 
0.00970468 0.01103037 0.00431650 0.00129772 0.00480860 0.00130878 0.00347958 0.00346674 0.04722130 0.00223609 0.00912971 0.00203329 0.00911819 0.05259433 0.01916604 0.00063135 
0.00963297 0.01081134 0.00423940 0.00132191 0.00448069 0.00130845 0.00325431 0.00355229 0.04688662 0.00225062 0.00946179 0.00201241 0.00911026 0.05230757 0.01916180 0.00065945 
0.00956682 0.01059894 0.00416129 0.00134697 0.00417082 0.00130873 0.00304967 0.00363874 0.04649034 0.00226420 0.00979479 0.00198820 0.00909630 0.05196905 0.01913420 0.00068856 
0.00950548 0.01039394 0.00408255 0.00137279 0.00387952 0.00130960 0.00286661 0.00372571 0.04603518 0.00227669 0.01012713 0.00196076 0.00907611 0.05158015 0.01908331 0.00071858 
0.00944818 0.01019708 0.00400353 0.00139926 0.00360729 0.00131104 0.00270596 0.00381279 0.04552411 0.00228799 0.01045727 0.00193023 0.00904950 0.05114265 0.01900936 0.00074944 
0.00939412 0.01000906 0.00392463 0.00142627 0.00335450 0.00131301 0.00256848 0.00389962 0.04496040 0.00229799 0.01078365 0.00189674 0.00901632 0.05065867 0.01891271 0.00078103 
0.00934249 0.00983051 0.00384619 0.00145370 0.00312147 0.00131549 0.00245483 0.00398585 0.04434756 0.00230660 0.01110474 0.00186044 0.00897643 0.05013072 0.01879386 0.00081325 
0.00929246 0.00966204 0.00376857 0.00148143 0.00290844 0.00131844 0.00236556 0.00407112 0.04368935 0.00231372 0.01141904 0.00182153 0.00892973 0.04956164 0.01865347 0.00084600 
0.00924321 0.00950418 0.00369211 0.00150933 0.00271554 0.00132182 0.00230114 0.00415511 0.04298970 0.00231929 0.01172507 0.00178017 0.00887616 0.04895463 0.01849231 0.00087917 
0.00919392 0.00935742 0.00361716 0.00153730 0.00254286 0.00132561 0.00226193 0.00423750 0.04225272 0.00232324 0.01202142 0.00173657 0.00881567 0.04831318 0.01831131 0.00091264 
0.00914380 0.00922219 0.00354401 0.00156521 0.00239038 0.00132975 0.00224819 0.00431800 0.04148268 0.00232550 0.01230671 0.00169094 0.00874826 0.04764108 0.01811151 0.00094630 
0.00909208 0.00909883 0.00347297 0.00159294 0.00225803 0.00133422 0.00226007 0.00439632 0.04068394 0.00232604 0.01257962 0.00164351 0.00867396 0.04694240 0.01789407 0.00098004 
0.00903800 0.00898766 0.00340433 0.00162036 0.00214564 0.00133895 0.00229762 0.00447222 0.03986096 0.00232482 0.01283892 0.00159450 0.00859284 0.04622145 0.01766027 0.00101374 
0.00898085 0.00888892 0.00333834 0.00164737 0.00205300 0.00134392 0.00236076 0.00454545 0.03901822 0.00232182 0.01308344 0.00154415 0.00850500 0.04548275 0.01741150 0.00104726 
0.00891998 0.00880276 0.00327525 0.00167384 0.00197979 0.00134908 0.00244933 0.00461579 0.03816027 0.00231703 0.01331211 0.00149271 0.00841057 0.04473101 0.01714923 0.00108050 
0.00885476 0.00872930 0.00321529 0.00169966 0.00192566 0.00135438 0.00256306 0.00468305 0.03729161 0.00231046 0.01352392 0.00144043 0.00830973 0.04397110 0.01687504 0.00111332 
0.00878462 0.00866858 0.00315864 0.00172472 0.00189018 0.00135977 0.00270155 0.00474703 0.03641673 0.00230211 0.01371798 0.00138755 0.00820269 0.04320800 0.01659055 0.00114561 
0.00870906 0.00862058 0.00310549 0.00174892 0.00187285 0.00136523 0.00286432 0.00480758 0.03554006 0.00229201 0.01389351 0.00133433 0.00808970 0.04244676 0.01629747 0.00117724 
0.00862765 0.00858521 0.00305598 0.00177214 0.00187313 0.00137070 0.00305078 0.00486457 0.03466591 0.00228022 0.01404980 0.00128103 0.00797103 0.04169252 0.01599756 0.00120809 
0.00854000 0.00856233 0.00301025 0.00179430 0.00189042 0.00137614 0.00326023 0.00491786 0.03379850 0.00226677 0.01418630 0.00122790 0.00784701 0.04095039 0.01569262 0.00123805 
0.00844582 0.00855172 0.00296839 0.00181529 0.00192406 0.00138151 0.00349189 0.00496736 0.03294190 0.00225173 0.01430252 0.00117518 0.00771800 0.04022549 0.01538446 0.00126700 
0.00834489 0.00855312 0.00293048 0.00183503 0.00197334 0.00138677 0.00374486 0.00501299 0.03210003 0.00223518 0.01439813 0.00112314 0.00758437 0.03952284 0.01507494 0.00129483 
0.00823705 0.00856621 0.00289658 0.00185344 0.00203754 0.00139189 0.00401818 0.00505467 0.03127661 0.00221721 0.01447290 0.00107199 0.00744656 0.03884740 0.01476589 0.00132142 
0.00812222 0.00859061 0.00286670 0.00187045 0.00211587 0.00139683 0.00431077 0.00509237 0.03047514 0.00219791 0.01452672 0.00102199 0.00730502 0.03820398 0.01445914 0.00134668 
0.00800044 0.00862590 0.00284086 0.00188597 0.00220751 0.00140156 0.00462149 0.00512604 0.02969894 0.00217739 0.01455961 0.00097336 0.00716022 0.03759721 0.01415650 0.00137050 
0.00787177 0.00867161 0.00281902 0.00189996 0.00231162 0.00140604 0.00494912 0.00515569 0.02895107 0.00215577 0.01457168 0.00092631 0.00701268 0.03703153 0.01385975 0.00139280 
0.00773641 0.00872722 0.00280115 0.00191236 0.00242733 0.00141024 0.00529235 0.00518131 0.02823432 0.00213319 0.01456320 0.00088106 0.00686296 0.03651114 0.01357061 0.00141347 
0.00759459 0.00879218 0.00278717 0.00192312 0.00255373 0.00141415 0.00564983 0.00520291 0.02755126 0.00210977 0.01453454 0.00083780 0.00671160 0.03603997 0.01329075 0.00143245 
0.00744665 0.00886591 0.00277699 0.00193220 0.00268992 0.00141774 0.00602013 0.00522053 0.02690415 0.00208567 0.01448617 0.00079670 0.00655920 0.03562164 0.01302176 0.00144965 
0.00729299 0.00894778 0.00277050 0.00193957 0.00283497 0.00142099 0.00640177 0.00523421 0.02629499 0.00206103 0.01441869 0.00075796 0.00640637 0.03525946 0.01276516 0.00146501 
0.00713411 0.00903715 0.00276757 0.00194522 0.00298795 0.00142388 0.00679323 0.00524401 0.02572549 0.00203602 0.01433279 0.00072171 0.00625373 0.03495639 0.01252236 0.00147848 
0.00697055 0.00913336 0.00276805 0.00194912 0.00314790 0.00142640 0.00719292 0.00524999 0.02519710 0.00201079 0.01422929 0.00068812 0.00610194 0.03471500 0.01229469 0.00149000 
0.00680293 0.00923573 0.00277176 0.00195128 0.00331388 0.00142853 0.00759925 0.00525224 0.02471094 0.00198552 0.01410908 0.00065729 0.00595165 0.03453749 0.01208335 0.00149952 
0.00663195 0.00934355 0.00277852 0.00195170 0.00348495 0.00143027 0.00801059 0.00525083 0.02426788 0.00196038 0.01397316 0.00062935 0.00580351 0.03442564 0.01188943 0.00150703 
0.00645835 0.00945614 0.00278813 0.00195039 0.00366017 0.00143162 0.00842528 0.00524587 0.02386850 0.00193554 0.01382259 0.00060440 0.00565822 0.03438078 0.01171390 0.00151249 
0.00628293 0.00957279 0.00280039 0.00194737 0.00383862 0.00143256 0.00884165 0.00523745 0.02351309 0.00191118 0.01365853 0.00058251 0.00551644 0.03440385 0.01155759 0.00151589 
0.00610656 0.00969280 0.00281505 0.00194268 0.00401937 0.00143311 0.00925804 0.00522570 0.02320171 0.00188749 0.01348221 0.00056374 0.00537884 0.03449532 0.01142120 0.00151722 
0.00593011 0.00981547 0.00283190 0.00193635 0.00420153 0.00143326 0.00967277 0.00521072 0.02293412 0.00186462 0.01329489 0.00054815 0.00524611 0.03465522 0.01130528 0.00151650 
0.00575454 0.00994014 0.00285069 0.00192843 0.00438421 0.00143302 0.01008418 0.00519264 0.02270987 0.00184276 0.01309793 0.00053577 0.00511891 0.03488312 0.01121024 0.00151374 
0.00558081 0.01006613 0.00287117 0.00191897 0.00456655 0.00143240 0.01049063 0.00517159 0.02252824 0.00182209 0.01289270 0.00052661 0.00499789 0.03517816 0.01113634 0.00150896 
0.00540991 0.01019281 0.00289308 0.00190804 0.00474772 0.00143140 0.01089049 0.00514769 0.02238834 0.00180277 0.01268062 0.00052066 0.00488370 0.03553903 0.01108372 0.00150221 
0.00524286 0.01031955 0.00291618 0.00189571 0.00492693 0.00143006 0.01128218 0.00512109 0.02228902 0.00178496 0.01246312 0.00051792 0.00477696 0.03596399 0.01105234 0.00149352 
0.00508069 0.01044578 0.00294019 0.00188206 0.00510338 0.00142837 0.01166413 0.00509193 0.02222899 0.00176883 0.01224166 0.00051834 0.00467828 0.03645087 0.01104202 0.00148295 
0.00492442 0.01057094 0.00296487 0.00186716 0.00527633 0.00142635 0.01203483 0.00506033 0.02220675 0.00175452 0.01201772 0.00052188 0.00458823 0.03699711 0.01105246 0.00147057 
0.00477510 0.01069452 0.00298995 0.00185111 0.00544509 0.00142404 0.01239284 0.00502645 0.02222069 0.00174219 0.01179274 0.00052848 0.00450738 0.03759974 0.01108320 0.00145645 
0.00463374 0.01081603 0.00301519 0.00183400 0.00560898 0.00142144 0.01273673 0.00499042 0.02226902 0.00173197 0.01156819 0.00053805 0.00443622 0.03825544 0.01113366 0.00144067 
0.00450135 0.01093505 0.00304033 0.00181594 0.00576737 0.00141858 0.01306518 0.00495240 0.02234988 0.00172398 0.01134548 0.00055051 0.00437526 0.03896054 0.01120311 0.00142333 
0.00437891 0.01105118 0.00306514 0.00179703 0.00591967 0.00141549 0.01337691 0.00491253 0.02246128 0.00171835 0.01112602 0.00056576 0.00432494 0.03971103 0.01129071 0.00140452 
0.00426740 0.01116410 0.00308939 0.00177738 0.00606533 0.00141219 0.01367072 0.00487095 0.02260116 0.00171519 0.01091117 0.00058367 0.00428567 0.04050263 0.01139552 0.00138435 
0.00416772 0.01127350 0.00311284 0.00175711 0.00620385 0.00140871 0.01394550 0.00482782 0.02276743 0.00171459 0.01070224 0.00060411 0.00425779 0.04133079 0.01151645 0.00136294 
0.00408077 0.01137916 0.00313529 0.00173632 0.00633478 0.00140508 0.01420020 0.00478327 0.02295793 0.00171663 0.01050048 0.00062696 0.00424164 0.04219072 0.01165236 0.00134041 
0.00400737 0.01148087 0.00315654 0.00171514 0.00645769 0.00140132 0.01443388 0.00473746 0.02317049 0.00172140 0.01030709 0.00065207 0.00423747 0.04307744 0.01180199 0.00131688 
0.00394830 0.01157852 0.00317640 0.00169369 0.00657222 0.00139747 0.01464568 0.00469053 0.02340294 0.00172894 0.01012319 0.00067928 0.00424550 0.04398580 0.01196399 0.00129249 
0.00390429 0.01167201 0.00319469 0.00167209 0.00667806 0.00139355 0.01483483 0.00464262 0.02365313 0.00173931 0.00994982 0.00070842 0.00426588 0.04491051 0.01213698 0.00126736 
0.00387600 0.01176132 0.00321126 0.00165046 0.00677493 0.00138960 0.01500068 0.00459390 0.02391894 0.00175254 0.00978793 0.00073934 0.00429871 0.04584619 0.01231949 0.00124165 
0.00386400 0.01184648 0.00322597 0.00162892 0.00686261 0.00138564 0.01514264 0.00454449 0.02419828 0.00176865 0.00963842 0.00077185 0.00434404 0.04678742 0.01251000 0.00121550 
0.00386881 0.01192755 0.00323868 0.00160759 0.00694092 0.00138171 0.01526026 0.00449455 0.02448914 0.00178765 0.00950204 0.00080577 0.00440186 0.04772874 0.01270697 0.00118904 
0.00389088 0.01200467 0.00324929 0.00158659 0.00700974 0.00137783 0.01535317 0.00444422 0.02478958 0.00180953 0.00937948 0.00084093 0.00447208 0.04866469 0.01290882 0.00116243 
0.00393055 0.01207801 0.00325771 0.00156604 0.00706899 0.00137405 0.01542110 0.00439366 0.02509773 0.00183428 0.00927132 0.00087715 0.00455457 0.04958989 0.01311398 0.00113582 
0.00398810 0.01214778 0.00326386 0.00154605 0.00711864 0.00137037 0.01546390 0.00434300 0.02541183 0.00186185 0.00917803 0.00091422 0.00464912 0.05049903 0.01332086 0.00110935 
0.00406371 0.01221426 0.00326769 0.00152673 0.00715869 0.00136685 0.01548151 0.00429239 0.02573023 0.00189221 0.00909998 0.00095198 0.00475549 0.05138691 0.01352788 0.00108316 
0.00415748 0.01227773 0.00326916 0.00150819 0.00718922 0.00136349 0.01547398 0.00424199 0.02605137 0.00192529 0.00903743 0.00099024 0.00487334 0.05224850 0.01373347 0.00105741 
0.00426941 0.01233855 0.00326825 0.00149052 0.00721033 0.00136034 0.01544145 0.00419193 0.02637382 0.00196102 0.00899053 0.00102881 0.00500230 0.05307896 0.01393613 0.00103224 
0.00439942 0.01239709 0.00326496 0.00147383 0.00722217 0.00135741 0.01538417 0.00414237 0.02669627 0.00199933 0.00895933 0.00106751 0.00514191 0.05387364 0.01413437 0.00100778 
0.00454733 0.01245374 0.00325932 0.00145820 0.00722493 0.00135474 0.01530249 0.00409346 0.02701753 0.00204011 0.00894377 0.00110617 0.00529168 0.05462816 0.01432675 0.00098416 
0.00471288 0.01250894 0.00325134 0.00144372 0.00721884 0.00135235 0.01519683 0.00404535 0.02733653 0.00208325 0.00894369 0.00114461 0.00545105 0.05533841 0.01451192 0.00096152 
0.00489569 0.01256313 0.00324110 0.00143046 0.00720418 0.00135025 0.01506774 0.00399818 0.02765234 0.00212865 0.00895881 0.00118267 0.00561939 0.05600056 0.01468858 0.00093998 
0.00509533 0.01261678 0.00322865 0.00141850 0.00718126 0.00134848 0.01491583 0.00395212 0.02796414 0.00217618 0.00898878 0.00122018 0.00579605 0.05661111 0.01485552 0.00091966 
0.00531126 0.01267036 0.00321409 0.00140790 0.00715044 0.00134705 0.01474181 0.00390731 0.02827123 0.00222570 0.00903314 0.00125700 0.00598031 0.05716691 0.01501161 0.00090066 
0.00554285 0.01272436 0.00319752 0.00139872 0.00711209 0.00134598 0.01454645 0.00386390 0.02857302 0.00227707 0.00909133 0.00129298 0.00617139 0.05766516 0.01515582 0.00088309 
0.00578940 0.01277927 0.00317905 0.00139099 0.00706663 0.00134529 0.01433061 0.00382206 0.02886906 0.00233015 0.00916273 0.00132797 0.00636850 0.05810343 0.01528722 0.00086705 
0.00605013 0.01283556 0.00315881 0.00138477 0.00701450 0.00134499 0.01409524 0.00378194 0.02915896 0.00238477 0.00924661 0.00136185 0.00657077 0.05847968 0.01540499 0.00085260 
0.00632417 0.01289370 0.00313696 0.00138008 0.00695619 0.00134510 0.01384131 0.00374368 0.02944245 0.00244079 0.00934221 0.00139449 0.00677733 0.05879226 0.01550843 0.00083984 
0.00661060 0.01295416 0.00311364 0.00137693 0.00689219 0.00134563 0.01356990 0.00370746 0.02971935 0.00249802 0.00944866 0.00142579 0.00698725 0.05903993 0.01559695 0.00082883 
0.00690841 0.01301737 0.00308902 0.00137536 0.00682302 0.00134659 0.01328212 0.00367343 0.02998953 0.00255631 0.00956506 0.00145564 0.00719959 0.05922187 0.01567006 0.00081962 
0.00721656 0.01308375 0.00306328 0.00137535 0.00674924 0.00134798 0.01297912 0.00364173 0.03025297 0.00261549 0.00969044 0.00148395 0.00741338 0.05933763 0.01572742 0.00081226 
0.00753392 0.01315369 0.00303661 0.00137690 0.00667140 0.00134982 0.01266212 0.00361254 0.03050967 0.00267537 0.00982380 0.00151064 0.00762763 0.05938721 0.01576880 0.00080678 
0.00785932 0.01322753 0.00300920 0.00138001 0.00659008 0.00135210 0.01233236 0.00358599 0.03075969 0.00273580 0.00996409 0.00153564 0.00784134 0.05937100 0.01579410 0.00080321 
0.00819156 0.01330560 0.00298125 0.00138465 0.00650587 0.00135483 0.01199113 0.00356224 0.03100312 0.00279659 0.01011026 0.00155889 0.00805351 0.05928978 0.01580333 0.00080155 
0.00852939 0.01338818 0.00295295 0.00139078 0.00641938 0.00135800 0.01163973 0.00354144 0.03124009 0.00285757 0.01026120 0.00158033 0.00826311 0.05914473 0.01579662 0.00080183 
0.00887153 0.01347548 0.00292454 0.00139837 0.00633120 0.00136162 0.01127948 0.00352374 0.03147072 0.00291858 0.01041582 0.00159994 0.00846914 0.05893740 0.01577424 0.00080401 
0.00921668 0.01356770 0.00289620 0.00140737 0.00624197 0.00136568 0.01091172 0.00350928 0.03169515 0.00297945 0.01057302 0.00161767 0.00867061 0.05866972 0.01573656 0.00080810 
0.00956351 0.01366495 0.00286815 0.00141772 0.00615228 0.00137017 0.01053781 0.00349820 0.03191351 0.00304001 0.01073168 0.00163352 0.00886652 0.05834396 0.01568407 0.00081405 
0.00991070 0.01376732 0.00284061 0.00142937 0.00606275 0.00137508 0.01015910 0.00349064 0.03212589 0.00310011 0.01089074 0.00164747 0.00905591 0.05796271 0.01561735 0.00082183 
0.01025691 0.01387482 0.00281378 0.00144224 0.00597398 0.00138039 0.00977694 0.00348671 0.03233239 0.00315958 0.01104911 0.00165953 0.00923783 0.05752888 0.01553711 0.00083140 
0.01060082 0.01398741 0.00278787 0.00145625 0.00588658 0.00138610 0.00939266 0.00348654 0.03253304 0.00321829 0.01120576 0.00166970 0.00941137 0.05704569 0.01544414 0.00084268 
0.01094110 0.01410499 0.00276308 0.00147133 0.00580114 0.00139219 0.00900759 0.00349025 0.03272784 0.00327609 0.01135969 0.00167801 0.00957567 0.05651660 0.01533933 0.00085562 
0.01127645 0.01422739 0.00273960 0.00148737 0.00571823 0.00139863 0.00862305 0.00349794 0.03291674 0.00333285 0.01150993 0.00168449 0.00972988 0.05594532 0.01522363 0.00087014 
0.01160561 0.01435438 0.00271763 0.00150430 0.00563840 0.00140541 0.00824031 0.00350969 0.03309964 0.00338843 0.01165557 0.00168917 0.00987321 0.05533578 0.01509810 0.00088617 
0.01192732 0.01448568 0.00269734 0.00152200 0.00556221 0.00141250 0.00786063 0.00352561 0.03327637 0.00344271 0.01179575 0.00169209 0.01000493 0.05469211 0.01496384 0.00090359 
0.01224039 0.01462094 0.00267891 0.00154037 0.00549017 0.00141988 0.00748523 0.00354576 0.03344668 0.00349558 0.01192966 0.00169332 0.01012435 0.05401858 0.01482203 0.00092234 
0.01254366 0.01475976 0.00266250 0.00155931 0.00542277 0.00142752 0.00711529 0.00357020 0.03361028 0.00354694 0.01205658 0.00169290 0.01023086 0.05331962 0.01467389 0.00094229 
0.01283603 0.01490166 0.00264825 0.00157870 0.00536049 0.00143539 0.00675196 0.00359899 0.03376681 0.00359668 0.01217583 0.00169091 0.01032390 0.05259973 0.01452068 0.00096334 
0.01311644 0.01504612 0.00263631 0.00159843 0.00530375 0.00144346 0.00639632 0.00363214 0.03391581 0.00364472 0.01228682 0.00168742 0.01040297 0.05186352 0.01436370 0.00098539 
0.01338391 0.01519258 0.00262680 0.00161839 0.00525298 0.00145170 0.00604942 0.00366970 0.03405679 0.00369097 0.01238903 0.00168249 0.01046765 0.05111563 0.01420427 0.00100831 
0.01363752 0.01534041 0.00261983 0.00163847 0.00520853 0.00146008 0.00571226 0.00371165 0.03418917 0.00373536 0.01248201 0.00167621 0.01051761 0.05036072 0.01404372 0.00103200 
0.01387644 0.01548893 0.00261550 0.00165853 0.00517075 0.00146855 0.00538578 0.00375798 0.03431232 0.00377784 0.01256540 0.00166867 0.01055258 0.04960343 0.01388340 0.00105633 
0.01409990 0.01563744 0.00261388 0.00167847 0.00513994 0.00147709 0.00507085 0.00380867 0.03442556 0.00381833 0.01263894 0.00165995 0.01057236 0.04884836 0.01372464 0.00108119 
0.01430720 0.01578519 0.00261504 0.00169818 0.00511636 0.00148566 0.00476830 0.00386367 0.03452816 0.00385679 0.01270240 0.00165014 0.01057685 0.04810006 0.01356876 0.00110644 
0.01449776 0.01593139 0.00261903 0.00171753 0.00510023 0.00149421 0.00447888 0.00392291 0.03461932 0.00389318 0.01275569 0.00163933 0.01056603 0.04736295 0.01341706 0.00113199 
0.01467106 0.01607524 0.00262588 0.00173642 0.00509172 0.00150272 0.00420329 0.00398630 0.03469824 0.00392747 0.01279876 0.00162762 0.01053995 0.04664136 0.01327080 0.00115770 
0.01482667 0.01621591 0.00263561 0.00175474 0.00509096 0.00151114 0.00394217 0.00405375 0.03476408 0.00395962 0.01283166 0.00161509 0.01049876 0.04593942 0.01313121 0.00118347 
0.01496427 0.01635257 0.00264821 0.00177238 0.00509805 0.00151943 0.00369609 0.00412512 0.03481598 0.00398963 0.01285452 0.00160183 0.01044268 0.04526115 0.01299948 0.00120918 
0.01508361 0.01648436 0.00266367 0.00178925 0.00511303 0.00152756 0.00346553 0.00420028 0.03485309 0.00401746 0.01286753 0.00158795 0.01037202 0.04461031 0.01287670 0.00123473 
0.01518455 0.01661042 0.00268194 0.00180525 0.00513590 0.00153549 0.00325095 0.00427906 0.03487456 0.00404312 0.01287096 0.00157353 0.01028717 0.04399047 0.01276395 0.00126002 
0.01526704 0.01672993 0.00270299 0.00182028 0.00516661 0.00154319 0.00305271 0.00436129 0.03487955 0.00406659 0.01286517 0.00155866 0.01018861 0.04340497 0.01266221 0.00128495 
0.01533113 0.01684203 0.00272673 0.00183427 0.00520506 0.00155062 0.00287111 0.00444675 0.03486726 0.00408789 0.01285055 0.00154342 0.01007687 0.04285685 0.01257238 0.00130942 
0.01537694 0.01694592 0.00275309 0.00184714 0.00525112 0.00155774 0.00270641 0.00453524 0.03483692 0.00410702 0.01282758 0.00152791 0.00995259 0.04234891 0.01249528 0.00133336 
0.01540469 0.01704082 0.00278196 0.00185882 0.00530459 0.00156452 0.00255877 0.00462650 0.03478783 0.00412398 0.01279678 0.00151220 0.00981646 0.04188364 0.01243164 0.00135669 
0.01541471 0.01712596 0.00281323 0.00186924 0.00536526 0.00157094 0.00242831 0.00472028 0.03471935 0.00413879 0.01275873 0.00149637 0.00966926 0.04146322 0.01238211 0.00137935 
0.01540739 0.01720063 0.00284676 0.00187836 0.00543283 0.00157696 0.00231508 0.00481632 0.03463092 0.00415147 0.01271405 0.00148050 0.00951180 0.04108952 0.01234721 0.00140126 
0.01538321 0.01726418 0.00288243 0.00188613 0.00550701 0.00158256 0.00221908 0.00491431 0.03452206 0.00416204 0.01266342 0.00146465 0.00934499 0.04076407 0.01232739 0.00142238 
0.01534273 0.01731597 0.00292006 0.00189252 0.00558742 0.00158772 0.00214024 0.00501395 0.03439241 0.00417051 0.01260752 0.00144889 0.00916978 0.04048808 0.01232297 0.00144266 
0.01528659 0.01735547 0.00295950 0.00189749 0.00567366 0.00159241 0.00207845 0.00511493 0.03424169 0.00417691 0.01254709 0.00143329 0.00898715 0.04026240 0.01233417 0.00146208 
0.01521550 0.01738218 0.00300056 0.00190103 0.00576531 0.00159663 0.00203353 0.00521690 0.03406978 0.00418127 0.01248287 0.00141789 0.00879817 0.04008755 0.01236111 0.00148060 
0.01513022 0.01739569 0.00304306 0.00190313 0.00586188 0.00160035 0.00200525 0.00531952 0.03387666 0.00418361 0.01241563 0.00140274 0.00860392 0.03996370 0.01240378 0.00149820 
0.01503159 0.01739565 0.00308681 0.00190380 0.00596288 0.00160356 0.00199335 0.00542244 0.03366246 0.00418397 0.01234614 0.00138791 0.00840552 0.03989067 0.01246208 0.00151489 
0.01492050 0.01738181 0.00313158 0.00190306 0.00606775 0.00160626 0.00199749 0.00552529 0.03342745 0.00418236 0.01227519 0.00137341 0.00820411 0.03986794 0.01253578 0.00153067 
0.01479789 0.01735399 0.00317719 0.00190091 0.00617594 0.00160845 0.00201733 0.00562770 0.03317206 0.00417882 0.01220355 0.00135930 0.00800086 0.03989464 0.01262457 0.00154554 
0.01466473 0.01731211 0.00322341 0.00189740 0.00628685 0.00161013 0.00205244 0.00572929 0.03289685 0.00417338 0.01213198 0.00134560 0.00779697 0.03996959 0.01272799 0.00155952 
0.01452205 0.01725616 0.00327003 0.00189258 0.00639987 0.00161129 0.00210240 0.00582969 0.03260256 0.00416606 0.01206124 0.00133233 0.00759361 0.04009128 0.01284551 0.00157264 
0.01437088 0.01718626 0.00331682 0.00188649 0.00651436 0.00161196 0.00216671 0.00592851 0.03229008 0.00415690 0.01199205 0.00131952 0.00739198 0.04025789 0.01297649 0.00158495 
0.01421232 0.01710259 0.00336356 0.00187920 0.00662967 0.00161215 0.00224486 0.00602537 0.03196046 0.00414593 0.01192512 0.00130717 0.00719327 0.04046731 0.01312019 0.00159647 
0.01404743 0.01700544 0.00341004 0.00187078 0.00674513 0.00161187 0.00233632 0.00611989 0.03161490 0.00413318 0.01186113 0.00129531 0.00699866 0.04071712 0.01327579 0.00160726 
0.01387733 0.01689520 0.00345603 0.00186131 0.00686008 0.00161114 0.00244051 0.00621169 0.03125476 0.00411867 0.01180071 0.00128393 0.00680928 0.04100468 0.01344236 0.00161738 
0.01370310 0.01677236 0.00350132 0.00185089 0.00697383 0.00160999 0.00255683 0.00630042 0.03088155 0.00410245 0.01174445 0.00127303 0.00662628 0.04132707 0.01361891 0.00162688 
0.01352587 0.01663748 0.00354569 0.00183962 0.00708570 0.00160844 0.00268467 0.00638570 0.03049694 0.00408454 0.01169290 0.00126262 0.00645074 0.04168116 0.01380436 0.00163585 
0.01334670 0.01649125 0.00358896 0.00182760 0.00719502 0.00160654 0.00282340 0.00646720 0.03010270 0.00406497 0.01164656 0.00125268 0.00628371 0.04206362 0.01399759 0.00164434 
0.01316669 0.01633441 0.00363090 0.00181494 0.00730110 0.00160432 0.00297235 0.00654457 0.02970077 0.00404378 0.01160589 0.00124320 0.00612621 0.04247093 0.01419738 0.00165244 
0.01298688 0.01616783 0.00367134 0.00180178 0.00740328 0.00160181 0.00313087 0.00661750 0.02929318 0.00402100 0.01157127 0.00123417 0.00597919 0.04289942 0.01440248 0.00166022 
0.01280828 0.01599242 0.00371010 0.00178824 0.00750092 0.00159907 0.00329827 0.00668567 0.02888208 0.00399667 0.01154303 0.00122557 0.00584354 0.04334531 0.01461162 0.00166776 
0.01263190 0.01580919 0.00374701 0.00177445 0.00759337 0.00159613 0.00347387 0.00674881 0.02846972 0.00397082 0.01152145 0.00121738 0.00572009 0.04380469 0.01482344 0.00167516 
0.01245868 0.01561923 0.00378191 0.00176056 0.00768003 0.00159304 0.00365698 0.00680665 0.02805843 0.00394350 0.01150675 0.00120958 0.00560961 0.04427360 0.01503661 0.00168249 
0.01228953 0.01542367 0.00381465 0.00174670 0.00776029 0.00158986 0.00384689 0.00685894 0.02765060 0.00391474 0.01149905 0.00120214 0.00551280 0.04474803 0.01524975 0.00168984 
0.01212529 0.01522372 0.00384511 0.00173302 0.00783359 0.00158664 0.00404291 0.00690547 0.02724869 0.00388458 0.01149846 0.00119503 0.00543026 0.04522394 0.01546149 0.00169729 
0.01196677 0.01502064 0.00387318 0.00171967 0.00789941 0.00158342 0.00424433 0.00694604 0.02685520 0.00385307 0.01150500 0.00118822 0.00536253 0.04569734 0.01567044 0.00170493 
0.01181471 0.01481573 0.00389875 0.00170680 0.00795723 0.00158027 0.00445047 0.00698049 0.02647262 0.00382026 0.01151860 0.00118170 0.00531005 0.04616426 0.01587526 0.00171283 
0.01166978 0.01461031 0.00392174 0.00169456 0.00800659 0.00157725 0.00466061 0.00700867 0.02610348 0.00378619 0.01153918 0.00117542 0.00527318 0.04662081 0.01607460 0.00172107 
0.01153260 0.01440575 0.00394208 0.00168310 0.00804707 0.00157440 0.00487409 0.00703047 0.02575029 0.00375093 0.01156656 0.00116935 0.00525219 0.04706322 0.01626716 0.00172973 
0.01140370 0.01420344 0.00395973 0.00167257 0.00807827 0.00157178 0.00509020 0.00704581 0.02541551 0.00371452 0.01160051 0.00116347 0.00524726 0.04748783 0.01645168 0.00173888 
0.01128357 0.01400476 0.00397466 0.00166311 0.00809987 0.00156945 0.00530829 0.00705464 0.02510159 0.00367702 0.01164074 0.00115775 0.00525848 0.04789118 0.01662694 0.00174858 
0.01117259 0.01381109 0.00398684 0.00165488 0.00811155 0.00156746 0.00552769 0.00705695 0.02481089 0.00363850 0.01168691 0.00115215 0.00528583 0.04826998 0.01679180 0.00175890 
0.01107110 0.01362382 0.00399630 0.00164800 0.00811307 0.00156586 0.00574775 0.00705274 0.02454568 0.00359903 0.01173862 0.00114666 0.00532922 0.04862117 0.01694518 0.00176990 
0.01097934 0.01344429 0.00400306 0.00164262 0.00810423 0.00156471 0.00596783 0.00704205 0.02430815 0.00355867 0.01179542 0.00114123 0.00538845 0.04894193 0.01708607 0.00178162 
0.01089749 0.01327385 0.00400715 0.00163886 0.00808489 0.00156405 0.00618730 0.00702497 0.02410038 0.00351750 0.01185682 0.00113586 0.00546322 0.04922972 0.01721357 0.00179411 
0.01082564 0.01311376 0.00400864 0.00163685 0.00805492 0.00156393 0.00640557 0.00700159 0.02392431 0.00347559 0.01192229 0.00113050 0.00555317 0.04948230 0.01732685 0.00180741 
0.01076381 0.01296527 0.00400761 0.00163670 0.00801430 0.00156438 0.00662204 0.00697206 0.02378172 0.00343304 0.01199123 0.00112515 0.00565783 0.04969774 0.01742519 0.00182156 
0.01071194 0.01282957 0.00400415 0.00163851 0.00796302 0.00156545 0.00683613 0.00693655 0.02367426 0.00338991 0.01206304 0.00111978 0.00577665 0.04987444 0.01750800 0.00183657 
0.01066993 0.01270775 0.00399839 0.00164238 0.00790113 0.00156717 0.00704730 0.00689525 0.02360339 0.00334630 0.01213708 0.00111437 0.00590898 0.05001118 0.01757477 0.00185248 
0.01063756 0.01260085 0.00399046 0.00164840 0.00782875 0.00156957 0.00725499 0.00684838 0.02357039 0.00330231 0.01221268 0.00110891 0.00605413 0.05010709 0.01762513 0.00186930 
0.01061457 0.01250984 0.00398050 0.00165664 0.00774602 0.00157267 0.00745870 0.00679621 0.02357634 0.00325802 0.01228915 0.00110340 0.00621129 0.05016169 0.01765882 0.00188704 
0.01060063 0.01243555 0.00396867 0.00166717 0.00765315 0.00157649 0.00765793 0.00673901 0.02362212 0.00321353 0.01236577 0.00109781 0.00637963 0.05017488 0.01767573 0.00190571 
0.01059534 0.01237876 0.00395517 0.00168003 0.00755040 0.00158104 0.00785219 0.00667709 0.02370840 0.00316896 0.01244183 0.00109215 0.00655820 0.05014700 0.01767587 0.00192530 
0.01059825 0.01234012 0.00394017 0.00169528 0.00743806 0.00158634 0.00804105 0.00661078 0.02383562 0.00312439 0.01251660 0.00108641 0.00674604 0.05007874 0.01765936 0.00194581 
0.01060886 0.01232016 0.00392388 0.00171292 0.00731649 0.00159237 0.00822405 0.00654042 0.02400400 0.00307993 0.01258935 0.00108059 0.00694210 0.04997126 0.01762649 0.00196724 
0.01062659 0.01231932 0.00390652 0.00173298 0.00718608 0.00159914 0.00840079 0.00646638 0.02421355 0.00303570 0.01265936 0.00107469 0.00714532 0.04982607 0.01757766 0.00198957 
0.01065084 0.01233790 0.00388832 0.00175546 0.00704725 0.00160664 0.00857087 0.00638906 0.02446402 0.00299181 0.01272591 0.00106872 0.00735456 0.04964512 0.01751340 0.00201279 
0.01068097 0.01237608 0.00386951 0.00178033 0.00690049 0.00161484 0.00873395 0.00630884 0.02475493 0.00294835 0.01278829 0.00106269 0.00756867 0.04943075 0.01743439 0.00203688 
0.01071628 0.01243391 0.00385034 0.00180757 0.00674629 0.00162373 0.00888966 0.00622615 0.02508560 0.00290546 0.01284581 0.00105660 0.00778648 0.04918567 0.01734142 0.00206183 
0.01075606 0.01251132 0.00383104 0.00183713 0.00658521 0.00163327 0.00903768 0.00614140 0.02545508 0.00286323 0.01289780 0.00105047 0.00800676 0.04891296 0.01723541 0.00208763 
0.01079955 0.01260810 0.00381189 0.00186896 0.00641781 0.00164342 0.00917773 0.00605503 0.02586223 0.00282179 0.01294362 0.00104431 0.00822833 0.04861608 0.01711739 0.00211424 
0.01084599 0.01272391 0.00379313 0.00190298 0.00624469 0.00165414 0.00930953 0.00596748 0.02630567 0.00278125 0.01298267 0.00103815 0.00844994 0.04829881 0.01698851 0.00214166 
0.01089461 0.01285828 0.00377503 0.00193909 0.00606649 0.00166538 0.00943283 0.00587918 0.02678382 0.00274172 0.01301436 0.00103200 0.00867039 0.04796523 0.01685004 0.00216988 
0.01094459 0.01301063 0.00375783 0.00197721 0.00588384 0.00167709 0.00954740 0.00579058 0.02729488 0.00270331 0.01303815 0.00102588 0.00888846 0.04761972 0.01670331 0.00219888 
0.01099515 0.01318024 0.00374181 0.00201722 0.00569742 0.00168920 0.00965304 0.00570210 0.02783687 0.00266615 0.01305355 0.00101981 0.00910296 0.04726693 0.01654979 0.00222866 
0.01104549 0.01336625 0.00372722 0.00205897 0.00550791 0.00170165 0.00974958 0.00561420 0.02840762 0.00263033 0.01306010 0.00101383 0.00931272 0.04691171 0.01639099 0.00225922 
0.01109482 0.01356772 0.00371430 0.00210235 0.00531599 0.00171436 0.00983685 0.00552728 0.02900479 0.00259596 0.01305740 0.00100795 0.00951661 0.04655913 0.01622851 0.00229056 
0.01114235 0.01378357 0.00370330 0.00214718 0.00512238 0.00172725 0.00991474 0.00544177 0.02962589 0.00256316 0.01304511 0.00100221 0.00971352 0.04621441 0.01606399 0.00232269 
0.01118734 0.01401263 0.00369446 0.00219331 0.00492777 0.00174025 0.00998314 0.00535807 0.03026827 0.00253204 0.01302290 0.00099662 0.00990238 0.04588288 0.01589916 0.00235562 
0.01122903 0.01425361 0.00368799 0.00224056 0.00473287 0.00175326 0.01004196 0.00527656 0.03092916 0.00250268 0.01299056 0.00099122 0.01008220 0.04556996 0.01573574 0.00238938 
0.01126673 0.01450516 0.00368413 0.00228874 0.00453838 0.00176621 0.01009116 0.00519763 0.03160568 0.00247520 0.01294788 0.00098604 0.01025201 0.04528113 0.01557550 0.00242401 
0.01129975 0.01476581 0.00368307 0.00233766 0.00434501 0.00177899 0.01013070 0.00512162 0.03229485 0.00244969 0.01289474 0.00098110 0.01041092 0.04502185 0.01542021 0.00245954 
0.01132745 0.01503404 0.00368500 0.00238711 0.00415345 0.00179152 0.01016057 0.00504887 0.03299360 0.00242624 0.01283108 0.00097643 0.01055810 0.04479755 0.01527165 0.00249602 
0.01134923 0.01530824 0.00369009 0.00243689 0.00396437 0.00180369 0.01018080 0.00497968 0.03369883 0.00240495 0.01275690 0.00097205 0.01069280 0.04461356 0.01513159 0.00253350 
0.01136455 0.01558678 0.00369850 0.00248678 0.00377844 0.00181542 0.01019142 0.00491434 0.03440736 0.00238590 0.01267225 0.00096800 0.01081432 0.04447509 0.01500173 0.00257207 
0.01137291 0.01586795 0.00371038 0.00253655 0.00359632 0.00182659 0.01019250 0.00485311 0.03511601 0.00236918 0.01257726 0.00096430 0.01092207 0.04438718 0.01488379 0.00261179 
0.01137385 0.01615002 0.00372585 0.00258598 0.00341862 0.00183712 0.01018414 0.00479622 0.03582158 0.00235486 0.01247211 0.00096096 0.01101551 0.04435466 0.01477938 0.00265275 
0.01136698 0.01643122 0.00374499 0.00263485 0.00324595 0.00184691 0.01016645 0.00474388 0.03652090 0.00234303 0.01235705 0.00095802 0.01109421 0.04438209 0.01469008 0.00269504 
0.01135197 0.01670979 0.00376791 0.00268292 0.00307890 0.00185586 0.01013957 0.00469626 0.03721081 0.00233375 0.01223240 0.00095550 0.01115780 0.04447375 0.01461737 0.00273878 
0.01132856 0.01698394 0.00379465 0.00272998 0.00291802 0.00186389 0.01010366 0.00465350 0.03788820 0.00232708 0.01209852 0.00095341 0.01120602 0.04463356 0.01456264 0.00278407 
0.01129653 0.01725191 0.00382525 0.00277577 0.00276383 0.00187089 0.01005892 0.00461572 0.03855004 0.00232310 0.01195586 0.00095176 0.01123869 0.04486508 0.01452717 0.00283103 
0.01125575 0.01751195 0.00385973 0.00282010 0.00261683 0.00187679 0.01000555 0.00458300 0.03919338 0.00232186 0.01180491 0.00095059 0.01125571 0.04517146 0.01451214 0.00287980 
0.01120615 0.01776234 0.00389808 0.00286272 0.00247749 0.00188150 0.00994379 0.00455538 0.03981536 0.00232342 0.01164623 0.00094988 0.01125708 0.04555541 0.01451859 0.00293051 
0.01114771 0.01800140 0.00394026 0.00290344 0.00234624 0.00188494 0.00987390 0.00453290 0.04041325 0.00232783 0.01148041 0.00094967 0.01124288 0.04601916 0.01454742 0.00298329 
0.01108052 0.01822752 0.00398621 0.00294203 0.00222346 0.00188704 0.00979615 0.00451552 0.04098444 0.00233512 0.01130812 0.00094995 0.01121329 0.04656443 0.01459939 0.00303830 
0.01100469 0.01843912 0.00403586 0.00297829 0.00210952 0.00188774 0.00971086 0.00450322 0.04152646 0.00234535 0.01113008 0.00095072 0.01116854 0.04719243 0.01467511 0.00309568 
0.01092043 0.01863473 0.00408909 0.00301204 0.00200474 0.00188697 0.00961834 0.00449592 0.04203702 0.00235855 0.01094705 0.00095200 0.01110899 0.04790384 0.01477502 0.00315558 
0.01082800 0.01881293 0.00414579 0.00304308 0.00190940 0.00188469 0.00951895 0.00449351 0.04251398 0.00237475 0.01075983 0.00095377 0.01103505 0.04869874 0.01489941 0.00321817 
0.01072775 0.01897241 0.00420579 0.00307126 0.00182376 0.00188084 0.00941304 0.00449585 0.04295540 0.00239398 0.01056927 0.00095605 0.01094720 0.04957667 0.01504837 0.00328358 
0.01062006 0.01911197 0.00426892 0.00309640 0.00174802 0.00187538 0.00930101 0.00450280 0.04335952 0.00241625 0.01037627 0.00095881 0.01084602 0.05053658 0.01522186 0.00335196 
0.01050540 0.01923049 0.00433499 0.00311836 0.00168235 0.00186830 0.00918326 0.00451416 0.04372479 0.00244159 0.01018175 0.00096206 0.01073213 0.05157683 0.01541961 0.00342348 
0.01038429 0.01932700 0.00440376 0.00313702 0.00162689 0.00185957 0.00906021 0.00452972 0.04404986 0.00247001 0.00998666 0.00096578 0.01060624 0.05269521 0.01564123 0.00349825 
0.01025730 0.01940062 0.00447501 0.00315224 0.00158173 0.00184917 0.00893231 0.00454924 0.04433361 0.00250152 0.00979199 0.00096995 0.01046910 0.05388892 0.01588611 0.00357643 
0.01012507 0.01945063 0.00454846 0.00316394 0.00154692 0.00183711 0.00880000 0.00457248 0.04457512 0.00253611 0.00959874 0.00097457 0.01032152 0.05515459 0.01615348 0.00365814 
0.00998827 0.01947643 0.00462385 0.00317203 0.00152249 0.00182338 0.00866378 0.00459915 0.04477372 0.00257379 0.00940794 0.00097962 0.01016437 0.05648830 0.01644241 0.00374349 
0.00984762 0.01947755 0.00470086 0.00317643 0.00150843 0.00180802 0.00852410 0.00462896 0.04492894 0.00261455 0.00922063 0.00098507 0.00999855 0.05788561 0.01675180 0.00383259 
0.00970389 0.01945369 0.00477919 0.00317711 0.00150467 0.00179104 0.00838148 0.00466160 0.04504057 0.00265836 0.00903786 0.00099090 0.00982500 0.05934154 0.01708037 0.00392552 
0.00955789 0.01940467 0.00485852 0.00317403 0.00151114 0.00177247 0.00823643 0.00469675 0.04510859 0.00270522 0.00886068 0.00099710 0.00964469 0.06085065 0.01742672 0.00402238 
0.00941045 0.01933047 0.00493849 0.00316718 0.00152770 0.00175238 0.00808945 0.00473407 0.04513324 0.00275509 0.00869016 0.00100362 0.00945863 0.06240703 0.01778929 0.00412320 
0.00926243 0.01923123 0.00501875 0.00315656 0.00155421 0.00173080 0.00794108 0.00477323 0.04511496 0.00280794 0.00852735 0.00101046 0.00926785 0.06400438 0.01816637 0.00422804 
0.00911472 0.01910722 0.00509895 0.00314221 0.00159048 0.00170780 0.00779185 0.00481386 0.04505442 0.00286374 0.00837328 0.00101757 0.00907336 0.06563599 0.01855616 0.00433692 
0.00896820 0.01895887 0.00517870 0.00312416 0.00163629 0.00168345 0.00764228 0.00485562 0.04495250 0.00292243 0.00822898 0.00102493 0.00887623 0.06729485 0.01895673 0.00444983 
0.00882380 0.01878676 0.00525764 0.00310248 0.00169140 0.00165784 0.00749293 0.00489815 0.04481027 0.00298397 0.00809547 0.00103251 0.00867749 0.06897364 0.01936606 0.00456676 
0.00868242 0.01859162 0.00533537 0.00307726 0.00175552 0.00163106 0.00734432 0.00494109 0.04462903 0.00304829 0.00797373 0.00104028 0.00847818 0.07066480 0.01978203 0.00468766 
0.00854497 0.01837431 0.00541152 0.00304858 0.00182836 0.00160319 0.00719700 0.00498410 0.04441023 0.00311533 0.00786472 0.00104821 0.00827935 0.07236060 0.02020248 0.00481245 
0.00841236 0.01813585 0.00548571 0.00301658 0.00190959 0.00157435 0.00705150 0.00502681 0.04415554 0.00318501 0.00776936 0.00105626 0.00808201 0.07405317 0.02062517 0.00494105 
0.00828548 0.01787737 0.00555754 0.00298138 0.00199885 0.00154465 0.00690834 0.00506889 0.04386676 0.00325724 0.00768854 0.00106440 0.00788716 0.07573457 0.02104785 0.00507334 
0.00816520 0.01760017 0.00562664 0.00294314 0.00209578 0.00151420 0.00676805 0.00511001 0.04354586 0.00333195 0.00762309 0.00107261 0.00769577 0.07739682 0.02146821 0.00520916 
0.00805236 0.01730563 0.00569263 0.00290202 0.00219998 0.00148313 0.00663113 0.00514985 0.04319495 0.00340902 0.00757381 0.00108084 0.00750879 0.07903199 0.02188399 0.00534834 
0.00794778 0.01699528 0.00575516 0.00285821 0.00231102 0.00145157 0.00649809 0.00518809 0.04281627 0.00348835 0.00754144 0.00108908 0.00732713 0.08063225 0.02229290 0.00549068 
0.00785223 0.01667076 0.00581387 0.00281191 0.00242849 0.00141964 0.00636941 0.00522445 0.04241216 0.00356982 0.00752666 0.00109729 0.00715166 0.08218991 0.02269270 0.00563595 
0.00776645 0.01633379 0.00586841 0.00276333 0.00255192 0.00138748 0.00624556 0.00525864 0.04198508 0.00365330 0.00753010 0.00110544 0.00698322 0.08369751 0.02308120 0.00578390 
0.00769112 0.01598622 0.00591846 0.00271268 0.00268085 0.00135524 0.00612699 0.00529042 0.04153754 0.00373866 0.00755231 0.00111351 0.00682259 0.08514783 0.02345628 0.00593424 
0.00762689 0.01562995 0.00596370 0.00266021 0.00281481 0.00132304 0.00601412 0.00531954 0.04107215 0.00382575 0.00759378 0.00112146 0.00667049 0.08653400 0.02381588 0.00608666 
0.00757431 0.01526698 0.00600384 0.00260615 0.00295330 0.00129105 0.00590738 0.00534578 0.04059154 0.00391442 0.00765494 0.00112928 0.00652763 0.08784950 0.02415805 0.00624084 
0.00753392 0.01489939 0.00603860 0.00255076 0.00309582 0.00125938 0.00580712 0.00536896 0.04009839 0.00400450 0.00773611 0.00113693 0.00639462 0.08908824 0.02448098 0.00639642 
0.00750615 0.01452928 0.00606773 0.00249429 0.00324187 0.00122820 0.00571373 0.00538890 0.03959538 0.00409581 0.00783756 0.00114441 0.00627205 0.09024463 0.02478296 0.00655301 
0.00749139 0.01415883 0.00609101 0.00243700 0.00339092 0.00119763 0.00562751 0.00540546 0.03908521 0.00418819 0.00795948 0.00115168 0.00616043 0.09131355 0.02506242 0.00671022 
0.00748994 0.01379025 0.00610821 0.00237917 0.00354246 0.00116783 0.00554878 0.00541851 0.03857054 0.00428142 0.00810197 0.00115873 0.00606021 0.09229049 0.02531796 0.00686762 
0.00750202 0.01342577 0.00611916 0.00232106 0.00369596 0.00113891 0.00547780 0.00542796 0.03805400 0.00437531 0.00826502 0.00116555 0.00597180 0.09317150 0.02554835 0.00702478 
0.00752780 0.01306764 0.00612372 0.00226294 0.00385088 0.00111102 0.00541479 0.00543374 0.03753818 0.00446965 0.00844858 0.00117212 0.00589553 0.09395327 0.02575254 0.00718125 
0.00756734 0.01271811 0.00612174 0.00220508 0.00400670 0.00108429 0.00535997 0.00543580 0.03702559 0.00456422 0.00865248 0.00117843 0.00583168 0.09463315 0.02592966 0.00733654 
0.00762064 0.01237942 0.00611314 0.00214776 0.00416290 0.00105883 0.00531349 0.00543413 0.03651867 0.00465879 0.00887645 0.00118447 0.00578047 0.09520916 0.02607903 0.00749019 
0.00768758 0.01205381 0.00609784 0.00209123 0.00431895 0.00103477 0.00527548 0.00542873 0.03601976 0.00475313 0.00912018 0.00119023 0.00574205 0.09568004 0.02620020 0.00764171 
0.00776801 0.01174346 0.00607582 0.00203575 0.00447432 0.00101221 0.00524603 0.00541964 0.03553107 0.00484699 0.00938320 0.00119571 0.00571651 0.09604521 0.02629290 0.00779058 
0.00786166 0.01145054 0.00604706 0.00198158 0.00462850 0.00099126 0.00522519 0.00540692 0.03505472 0.00494013 0.00966502 0.00120091 0.00570390 0.09630484 0.02635709 0.00793632 
0.00796818 0.01117715 0.00601159 0.00192896 0.00478099 0.00097202 0.00521296 0.00539064 0.03459267 0.00503229 0.00996501 0.00120581 0.00570420 0.09645980 0.02639293 0.00807842 
0.00808716 0.01092533 0.00596948 0.00187813 0.00493128 0.00095457 0.00520933 0.00537092 0.03414674 0.00512321 0.01028247 0.00121044 0.00571733 0.09651168 0.02640081 0.00821638 
0.00821809 0.01069706 0.00592080 0.00182932 0.00507889 0.00093900 0.00521423 0.00534788 0.03371859 0.00521263 0.01061662 0.00121478 0.00574316 0.09646278 0.02638132 0.00834969 
0.00836039 0.01049421 0.00586567 0.00178273 0.00522335 0.00092538 0.00522753 0.00532168 0.03330971 0.00530028 0.01096659 0.00121884 0.00578151 0.09631611 0.02633526 0.00847786 
0.00851342 0.01031858 0.00580425 0.00173857 0.00536420 0.00091376 0.00524911 0.00529247 0.03292143 0.00538591 0.01133142 0.00122263 0.00583216 0.09607533 0.02626364 0.00860042 
0.00867644 0.01017186 0.00573673 0.00169703 0.00550099 0.00090421 0.00527877 0.00526045 0.03255487 0.00546922 0.01171009 0.00122617 0.00589481 0.09574475 0.02616767 0.00871688 
0.00884867 0.01005563 0.00566329 0.00165827 0.00563330 0.00089676 0.00531629 0.00522584 0.03221098 0.00554997 0.01210148 0.00122945 0.00596916 0.09532932 0.02604874 0.00882679 
0.00902924 0.00997133 0.00558420 0.00162245 0.00576072 0.00089144 0.00536140 0.00518883 0.03189054 0.00562788 0.01250442 0.00123249 0.00605482 0.09483453 0.02590843 0.00892971 
0.00921726 0.00992031 0.00549971 0.00158972 0.00588287 0.00088828 0.00541381 0.00514969 0.03159408 0.00570270 0.01291766 0.00123531 0.00615140 0.09426646 0.02574848 0.00902522 
0.00941176 0.00990373 0.00541011 0.00156019 0.00599939 0.00088730 0.00547319 0.00510865 0.03132199 0.00577415 0.01333990 0.00123792 0.00625845 0.09363165 0.02557079 0.00911291 
0.00961172 0.00992265 0.00531572 0.00153397 0.00610994 0.00088848 0.00553917 0.00506597 0.03107443 0.00584199 0.01376976 0.00124033 0.00637548 0.09293711 0.02537742 0.00919242 
0.00981610 0.00997796 0.00521688 0.00151114 0.00621420 0.00089183 0.00561136 0.00502192 0.03085136 0.00590598 0.01420583 0.00124257 0.00650198 0.09219023 0.02517052 0.00926340 
0.01002380 0.01007039 0.00511396 0.00149177 0.00631190 0.00089732 0.00568931 0.00497678 0.03065258 0.00596587 0.01464665 0.00124465 0.00663742 0.09139875 0.02495239 0.00932552 
0.01023372 0.01020051 0.00500733 0.00147590 0.00640278 0.00090494 0.00577259 0.00493084 0.03047768 0.00602145 0.01509070 0.00124658 0.00678122 0.09057070 0.02472540 0.00937851 
0.01044471 0.01036872 0.00489739 0.00146356 0.00648661 0.00091463 0.00586071 0.00488436 0.03032605 0.00607250 0.01553645 0.00124840 0.00693278 0.08971430 0.02449202 0.00942209 
0.01065561 0.01057525 0.00478456 0.00145476 0.00656320 0.00092636 0.00595316 0.00483765 0.03019692 0.00611882 0.01598233 0.00125011 0.00709149 0.08883796 0.02425474 0.00945606 
0.01086528 0.01082016 0.00466926 0.00144949 0.00663240 0.00094007 0.00604942 0.00479099 0.03008936 0.00616023 0.01642675 0.00125174 0.00725671 0.08795018 0.02401612 0.00948023 
0.01107254 0.01110333 0.00455194 0.00144772 0.00669406 0.00095569 0.00614896 0.00474466 0.03000226 0.00619656 0.01686811 0.00125331 0.00742779 0.08705948 0.02377874 0.00949444 
0.01127625 0.01142444 0.00443305 0.00144939 0.00674811 0.00097315 0.00625121 0.00469894 0.02993437 0.00622767 0.01730481 0.00125484 0.00760406 0.08617435 0.02354516 0.00949859 
0.01147525 0.01178302 0.00431302 0.00145445 0.00679448 0.00099237 0.00635561 0.00465412 0.02988429 0.00625343 0.01773525 0.00125635 0.00778484 0.08530318 0.02331792 0.00949260 
0.01166844 0.01217841 0.00419234 0.00146279 0.00683315 0.00101327 0.00646158 0.00461046 0.02985049 0.00627373 0.01815782 0.00125786 0.00796945 0.08445419 0.02309954 0.00947645 
0.01185471 0.01260976 0.00407145 0.00147433 0.00686413 0.00103575 0.00656853 0.00456823 0.02983135 0.00628849 0.01857096 0.00125940 0.00815719 0.08363539 0.02289245 0.00945012 
0.01203301 0.01307605 0.00395082 0.00148893 0.00688749 0.00105972 0.00667590 0.00452767 0.02982512 0.00629767 0.01897311 0.00126097 0.00834735 0.08285447 0.02269903 0.00941367 
0.01220231 0.01357607 0.00383090 0.00150647 0.00690330 0.00108506 0.00678309 0.00448902 0.02982997 0.00630121 0.01936275 0.00126260 0.00853924 0.08211882 0.02252154 0.00936718 
0.01236165 0.01410848 0.00371214 0.00152679 0.00691169 0.00111166 0.00688952 0.00445252 0.02984401 0.00629914 0.01973841 0.00126432 0.00873216 0.08143537 0.02236213 0.00931077 
0.01251011 0.01467171 0.00359499 0.00154974 0.00691284 0.00113942 0.00699463 0.00441838 0.02986528 0.00629145 0.02009866 0.00126613 0.00892539 0.08081064 0.02222280 0.00924461 
0.01264683 0.01526408 0.00347987 0.00157512 0.00690692 0.00116822 0.00709785 0.00438680 0.02989178 0.00627822 0.02044212 0.00126806 0.00911824 0.08025062 0.02210543 0.00916888 
0.01277102 0.01588373 0.00336721 0.00160276 0.00689420 0.00119793 0.00719864 0.00435797 0.02992150 0.00625953 0.02076749 0.00127012 0.00931003 0.07976075 0.02201170 0.00908382 
0.01288195 0.01652865 0.00325741 0.00163245 0.00687492 0.00122843 0.00729647 0.00433205 0.02995242 0.00623549 0.02107353 0.00127234 0.00950006 0.07934588 0.02194314 0.00898969 
0.01297897 0.01719670 0.00315086 0.00166399 0.00684941 0.00125960 0.00739083 0.00430919 0.02998250 0.00620625 0.02135907 0.00127472 0.00968766 0.07901024 0.02190106 0.00888681 
0.01306151 0.01788558 0.00304792 0.00169716 0.00681799 0.00129132 0.00748122 0.00428953 0.03000977 0.00617199 0.02162304 0.00127728 0.00987216 0.07875737 0.02188658 0.00877550 
0.01312908 0.01859290 0.00294894 0.00173174 0.00678104 0.00132345 0.00756720 0.00427319 0.03003228 0.00613292 0.02186446 0.00128005 0.01005293 0.07859017 0.02190061 0.00865612 
0.01318127 0.01931613 0.00285424 0.00176750 0.00673896 0.00135587 0.00764833 0.00426026 0.03004812 0.00608928 0.02208242 0.00128302 0.01022931 0.07851078 0.02194383 0.00852907 
0.01321777 0.02005264 0.00276412 0.00180421 0.00669217 0.00138846 0.00772420 0.00425083 0.03005547 0.00604134 0.02227615 0.00128622 0.01040071 0.07852066 0.02201670 0.00839477 
0.01323835 0.02079973 0.00267886 0.00184165 0.00664113 0.00142109 0.00779444 0.00424494 0.03005262 0.00598941 0.02244495 0.00128966 0.01056651 0.07862052 0.02211943 0.00825364 
0.01324286 0.02155459 0.00259869 0.00187957 0.00658632 0.00145365 0.00785873 0.00424265 0.03003793 0.00593383 0.02258824 0.00129334 0.01072614 0.07881033 0.02225202 0.00810617 
0.01323126 0.02231436 0.00252384 0.00191774 0.00652823 0.00148601 0.00791675 0.00424398 0.03000987 0.00587496 0.02270558 0.00129729 0.01087905 0.07908934 0.02241421 0.00795283 
0.01320358 0.02307612 0.00245449 0.00195594 0.00646738 0.00151806 0.00796825 0.00424894 0.02996708 0.00581320 0.02279661 0.00130150 0.01102470 0.07945606 0.02260553 0.00779412 
0.01315998 0.02383692 0.00239079 0.00199394 0.00640431 0.00154969 0.00801301 0.00425750 0.02990830 0.00574897 0.02286111 0.00130600 0.01116260 0.07990832 0.02282526 0.00763055 
0.01310066 0.02459377 0.00233287 0.00203151 0.00633956 0.00158078 0.00805085 0.00426964 0.02983243 0.00568271 0.02289898 0.00131078 0.01129227 0.08044321 0.02307245 0.00746266 
0.01302594 0.02534369 0.00228083 0.00206843 0.00627369 0.00161124 0.00808162 0.00428532 0.02973854 0.00561490 0.02291022 0.00131587 0.01141327 0.08105721 0.02334595 0.00729097 
0.01293622 0.02608368 0.00223471 0.00210451 0.00620726 0.00164096 0.00810523 0.00430447 0.02962587 0.00554604 0.02289499 0.00132125 0.01152517 0.08174612 0.02364438 0.00711603 
0.01283197 0.02681076 0.00219456 0.00213954 0.00614084 0.00166985 0.00812162 0.00432701 0.02949382 0.00547663 0.02285354 0.00132695 0.01162760 0.08250516 0.02396616 0.00693839 
0.01271376 0.02752201 0.00216036 0.00217333 0.00607499 0.00169782 0.00813078 0.00435284 0.02934198 0.00540721 0.02278627 0.00133296 0.01172022 0.08332899 0.02430952 0.00675860 
0.01258223 0.02821454 0.00213208 0.00220570 0.00601028 0.00172478 0.00813273 0.00438186 0.02917013 0.00533832 0.02269367 0.00133930 0.01180272 0.08421174 0.02467251 0.00657721 
0.01243809 0.02888552 0.00210966 0.00223648 0.00594726 0.00175065 0.00812754 0.00441395 0.02897823 0.00527053 0.02257637 0.00134596 0.01187483 0.08514710 0.02505302 0.00639477 
0.01228211 0.02953222 0.00209300 0.00226551 0.00588648 0.00177537 0.00811533 0.00444897 0.02876643 0.00520440 0.02243510 0.00135295 0.01193631 0.08612829 0.02544879 0.00621181 
0.01211513 0.03015197 0.00208197 0.00229265 0.00582847 0.00179886 0.00809623 0.00448677 0.02853508 0.00514051 0.02227072 0.00136028 0.01198698 0.08714823 0.02585742 0.00602887 
0.01193805 0.03074225 0.00207642 0.00231778 0.00577375 0.00182107 0.00807045 0.00452721 0.02828470 0.00507943 0.02208418 0.00136794 0.01202670 0.08819950 0.02627642 0.00584649 
0.01175182 0.03130064 0.00207616 0.00234078 0.00572280 0.00184193 0.00803819 0.00457012 0.02801602 0.00502174 0.02187654 0.00137594 0.01205536 0.08927442 0.02670317 0.00566516 
0.01155744 0.03182485 0.00208100 0.00236155 0.00567609 0.00186139 0.00799971 0.00461532 0.02772993 0.00496801 0.02164894 0.00138428 0.01207289 0.09036515 0.02713500 0.00548541 
0.01135594 0.03231277 0.00209069 0.00238000 0.00563407 0.00187942 0.00795531 0.00466264 0.02742751 0.00491882 0.02140264 0.00139296 0.01207931 0.09146373 0.02756917 0.00530770 
0.01114838 0.03276242 0.00210498 0.00239607 0.00559715 0.00189598 0.00790531 0.00471189 0.02711001 0.00487471 0.02113896 0.00140198 0.01207462 0.09256212 0.02800291 0.00513251 
0.01093586 0.03317201 0.00212360 0.00240971 0.00556570 0.00191102 0.00785006 0.00476288 0.02677883 0.00483622 0.02085929 0.00141134 0.01205893 0.09365229 0.02843343 0.00496030 
0.01071950 0.03353994 0.00214626 0.00242088 0.00554007 0.00192454 0.00778992 0.00481541 0.02643552 0.00480387 0.02056512 0.00142102 0.01203235 0.09472627 0.02885796 0.00479150 
0.01050042 0.03386479 0.00217264 0.00242955 0.00552056 0.00193650 0.00772530 0.00486929 0.02608180 0.00477816 0.02025797 0.00143104 0.01199506 0.09577622 0.02927372 0.00462652 
0.01027975 0.03414536 0.00220242 0.00243573 0.00550743 0.00194689 0.00765662 0.00492431 0.02571948 0.00475957 0.01993943 0.00144139 0.01194730 0.09679448 0.02967802 0.00446574 
0.01005863 0.03438065 0.00223527 0.00243942 0.00550089 0.00195570 0.00758432 0.00498028 0.02535052 0.00474854 0.01961112 0.00145205 0.01188933 0.09777365 0.03006820 0.00430955 
0.00983819 0.03456989 0.00227083 0.00244065 0.00550114 0.00196292 0.00750884 0.00503699 0.02497696 0.00474547 0.01927469 0.00146303 0.01182147 0.09870660 0.03044170 0.00415828 
0.00961955 0.03471253 0.00230875 0.00243946 0.00550828 0.00196856 0.00743064 0.00509425 0.02460096 0.00475074 0.01893184 0.00147431 0.01174409 0.09958658 0.03079606 0.00401225 
0.00940378 0.03480823 0.00234868 0.00243591 0.00552241 0.00197263 0.00735021 0.00515185 0.02422471 0.00476467 0.01858426 0.00148588 0.01165761 0.10040722 0.03112894 0.00387177 
0.00919197 0.03485692 0.00239025 0.00243007 0.00554357 0.00197512 0.00726801 0.00520961 0.02385051 0.00478757 0.01823365 0.00149774 0.01156247 0.10116262 0.03143814 0.00373709 
0.00898515 0.03485874 0.00243309 0.00242201 0.00557172 0.00197606 0.00718452 0.00526733 0.02348067 0.00481968 0.01788171 0.00150987 0.01145920 0.10184734 0.03172161 0.00360847 
0.00878433 0.03481406 0.00247686 0.00241183 0.00560683 0.00197546 0.00710023 0.00532482 0.02311753 0.00486118 0.01753014 0.00152226 0.01134831 0.10245650 0.03197747 0.00348614 
0.00859045 0.03472349 0.00252118 0.00239965 0.00564876 0.00197335 0.00701562 0.00538189 0.02276346 0.00491223 0.01718058 0.00153489 0.01123041 0.10298574 0.03220401 0.00337027 
0.00840444 0.03458789 0.00256573 0.00238556 0.00569738 0.00196975 0.00693115 0.00543839 0.02242082 0.00497292 0.01683468 0.00154774 0.01110611 0.10343134 0.03239973 0.00326105 
0.00822714 0.03440832 0.00261014 0.00236971 0.00575247 0.00196469 0.00684728 0.00549412 0.02209194 0.00504328 0.01649402 0.00156081 0.01097606 0.10379015 0.03256332 0.00315861 
0.00805938 0.03418608 0.00265411 0.00235223 0.00581379 0.00195820 0.00676448 0.00554893 0.02177911 0.00512330 0.01616013 0.00157406 0.01084095 0.10405968 0.03269367 0.00306309 
0.00790188 0.03392268 0.00269731 0.00233326 0.00588104 0.00195033 0.00668317 0.00560267 0.02148458 0.00521289 0.01583451 0.00158747 0.01070150 0.10423808 0.03278990 0.00297457 
0.00775533 0.03361984 0.00273945 0.00231295 0.00595391 0.00194110 0.00660378 0.00565517 0.02121053 0.00531193 0.01551855 0.00160103 0.01055846 0.10432413 0.03285135 0.00289313 
0.00762034 0.03327948 0.00278024 0.00229146 0.00603201 0.00193057 0.00652672 0.00570631 0.02095906 0.00542023 0.01521360 0.00161471 0.01041259 0.10431730 0.03287759 0.00281881 
0.00749746 0.03290372 0.00281943 0.00226896 0.00611494 0.00191877 0.00645236 0.00575594 0.02073217 0.00553753 0.01492092 0.00162849 0.01026468 0.10421771 0.03286841 0.00275164 
0.00738718 0.03249484 0.00285678 0.00224560 0.00620226 0.00190576 0.00638108 0.00580395 0.02053174 0.00566352 0.01464167 0.00164233 0.01011552 0.10402610 0.03282382 0.00269163 
0.00728989 0.03205530 0.00289207 0.00222156 0.00629351 0.00189159 0.00631321 0.00585021 0.02035954 0.00579784 0.01437692 0.00165621 0.00996595 0.10374389 0.03274407 0.00263876 
0.00720592 0.03158773 0.00292510 0.00219701 0.00638820 0.00187629 0.00624907 0.00589463 0.02021721 0.00594007 0.01412766 0.00167010 0.00981676 0.10337309 0.03262963 0.00259299 
0.00713555 0.03109485 0.00295571 0.00217211 0.00648580 0.00185994 0.00618895 0.00593710 0.02010623 0.00608973 0.01389475 0.00168398 0.00966880 0.10291631 0.03248118 0.00255427 
0.00707895 0.03057956 0.00298376 0.00214704 0.00658580 0.00184259 0.00613311 0.00597753 0.02002796 0.00624630 0.01367896 0.00169780 0.00952289 0.10237674 0.03229962 0.00252252 
0.00703623 0.03004483 0.00300913 0.00212198 0.00668764 0.00182428 0.00608180 0.00601586 0.01998356 0.00640921 0.01348092 0.00171153 0.00937984 0.10175812 0.03208604 0.00249764 
0.00700745 0.02949374 0.00303174 0.00209708 0.00679077 0.00180510 0.00603521 0.00605200 0.01997405 0.00657782 0.01330119 0.00172516 0.00924046 0.10106469 0.03184174 0.00247954 
0.00699258 0.02892944 0.00305153 0.00207251 0.00689462 0.00178508 0.00599354 0.00608589 0.02000026 0.00675148 0.01314016 0.00173863 0.00910555 0.10030116 0.03156819 0.00246808 
0.00699152 0.02835513 0.00306847 0.00204844 0.00699866 0.00176430 0.00595694 0.00611749 0.02006285 0.00692949 0.01299816 0.00175192 0.00897588 0.09947267 0.03126704 0.00246312 
0.00700410 0.02777406 0.00308255 0.00202501 0.00710230 0.00174283 0.00592553 0.00614676 0.02016231 0.00711111 0.01287535 0.00176500 0.00885221 0.09858476 0.03094010 0.00246451 
0.00703011 0.02718949 0.00309381 0.00200238 0.00720503 0.00172072 0.00589942 0.00617365 0.02029894 0.00729556 0.01277181 0.00177782 0.00873526 0.09764332 0.03058932 0.00247209 
0.00706925 0.02660470 0.00310230 0.00198069 0.00730629 0.00169804 0.00587868 0.00619815 0.02047286 0.00748206 0.01268747 0.00179037 0.00862572 0.09665451 0.03021679 0.00248567 
0.00712118 0.02602293 0.00310810 0.00196009 0.00740558 0.00167488 0.00586335 0.00622024 0.02068400 0.00766978 0.01262218 0.00180260 0.00852425 0.09562477 0.02982469 0.00250507 
0.00718550 0.02544739 0.00311132 0.00194069 0.00750241 0.00165128 0.00585347 0.00623991 0.02093213 0.00785790 0.01257565 0.00181448 0.00843147 0.09456070 0.02941533 0.00253008 
0.00726177 0.02488127 0.00311210 0.00192261 0.00759631 0.00162733 0.00584904 0.00625716 0.02121683 0.00804558 0.01254750 0.00182599 0.00834794 0.09346909 0.02899107 0.00256050 
0.00734947 0.02432764 0.00311058 0.00190598 0.00768685 0.00160310 0.00585003 0.00627201 0.02153754 0.00823197 0.01253721 0.00183709 0.00827420 0.09235679 0.02855437 0.00259611 
0.00744809 0.02378953 0.00310696 0.00189089 0.00777364 0.00157866 0.00585640 0.00628446 0.02189351 0.00841622 0.01254421 0.00184775 0.00821071 0.09123072 0.02810772 0.00263669 
0.00755702 0.02326984 0.00310144 0.00187744 0.00785630 0.00155408 0.00586811 0.00629455 0.02228386 0.00859750 0.01256779 0.00185795 0.00815789 0.09009777 0.02765362 0.00268199 
0.00767568 0.02277134 0.00309425 0.00186570 0.00793453 0.00152945 0.00588505 0.00630230 0.02270753 0.00877498 0.01260718 0.00186766 0.00811611 0.08896481 0.02719463 0.00273180 
0.00780341 0.02229671 0.00308561 0.00185575 0.00800804 0.00150484 0.00590716 0.00630776 0.02316337 0.00894786 0.01266149 0.00187686 0.00808566 0.08783857 0.02673325 0.00278585 
0.00793954 0.02184844 0.00307579 0.00184766 0.00807660 0.00148032 0.00593432 0.00631097 0.02365007 0.00911535 0.01272979 0.00188553 0.00806679 0.08672566 0.02627201 0.00284391 
0.00808339 0.02142887 0.00306507 0.00184147 0.00814004 0.00145599 0.00596642 0.00631198 0.02416622 0.00927669 0.01281107 0.00189365 0.00805967 0.08563247 0.02581338 0.00290573 
0.00823427 0.02104018 0.00305372 0.00183723 0.00819823 0.00143190 0.00600332 0.00631086 0.02471031 0.00943118 0.01290422 0.00190120 0.00806440 0.08456516 0.02535976 0.00297104 
0.00839144 0.02068435 0.00304205 0.00183497 0.00825107 0.00140816 0.00604490 0.00630766 0.02528074 0.00957813 0.01300813 0.00190818 0.00808104 0.08352963 0.02491352 0.00303961 
0.00855420 0.02036317 0.00303034 0.00183470 0.00829856 0.00138483 0.00609101 0.00630246 0.02587584 0.00971692 0.01312161 0.00191456 0.00810956 0.08253144 0.02447691 0.00311115 
0.00872181 0.02007824 0.00301891 0.00183644 0.00834071 0.00136201 0.00614151 0.00629535 0.02649386 0.00984696 0.01324343 0.00192035 0.00814987 0.08157582 0.02405210 0.00318543 
0.00889356 0.01983092 0.00300807 0.00184018 0.00837761 0.00133976 0.00619625 0.00628639 0.02713303 0.00996772 0.01337234 0.00192553 0.00820181 0.08066761 0.02364114 0.00326217 
0.00906873 0.01962240 0.00299812 0.00184591 0.00840938 0.00131818 0.00625509 0.00627568 0.02779151 0.01007875 0.01350707 0.00193011 0.00826514 0.07981123 0.02324599 0.00334111 
0.00924660 0.01945360 0.00298936 0.00185362 0.00843621 0.00129734 0.00631787 0.00626332 0.02846746 0.01017964 0.01364631 0.00193410 0.00833959 0.07901069 0.02286842 0.00342200 
0.00942649 0.01932525 0.00298211 0.00186327 0.00845834 0.00127733 0.00638446 0.00624941 0.02915904 0.01027005 0.01378879 0.00193748 0.00842479 0.07826954 0.02251012 0.00350458 
0.00960772 0.01923785 0.00297664 0.00187483 0.00847604 0.00125823 0.00645470 0.00623405 0.02986441 0.01034972 0.01393320 0.00194028 0.00852033 0.07759085 0.02217257 0.00358858 
0.00978961 0.01919167 0.00297325 0.00188824 0.00848963 0.00124012 0.00652846 0.00621734 0.03058173 0.01041846 0.01407826 0.00194250 0.00862571 0.07697722 0.02185713 0.00367375 
0.00997154 0.01918675 0.00297221 0.00190345 0.00849951 0.00122308 0.00660561 0.00619942 0.03130921 0.01047613 0.01422273 0.00194416 0.00874041 0.07643076 0.02156499 0.00375983 
0.01015290 0.01922293 0.00297377 0.00192040 0.00850606 0.00120719 0.00668602 0.00618038 0.03204511 0.01052270 0.01436536 0.00194528 0.00886383 0.07595307 0.02129715 0.00384658 
0.01033308 0.01929980 0.00297816 0.00193901 0.00850974 0.00119252 0.00676958 0.00616037 0.03278773 0.01055819 0.01450497 0.00194587 0.00899532 0.07554526 0.02105444 0.00393373 
0.01051154 0.01941677 0.00298562 0.00195920 0.00851103 0.00117916 0.00685618 0.00613950 0.03353543 0.01058271 0.01464040 0.00194596 0.00913419 0.07520793 0.02083754 0.00402105 
0.01068774 0.01957302 0.00299633 0.00198089 0.00851043 0.00116717 0.00694570 0.00611791 0.03428666 0.01059645 0.01477056 0.00194558 0.00927969 0.07494120 0.02064692 0.00410829 
0.01086119 0.01976756 0.00301048 0.00200400 0.00850848 0.00115662 0.00703806 0.00609574 0.03503995 0.01059964 0.01489441 0.00194475 0.00943105 0.07474472 0.02048289 0.00419522 
0.01103143 0.01999919 0.00302821 0.00202842 0.00850573 0.00114760 0.00713318 0.00607313 0.03579392 0.01059264 0.01501097 0.00194351 0.00958746 0.07461764 0.02034557 0.00428158 
0.01119801 0.02026653 0.00304966 0.00205405 0.00850275 0.00114016 0.00723096 0.00605021 0.03654727 0.01057583 0.01511934 0.00194188 0.00974805 0.07455867 0.02023491 0.00436717 
0.01136055 0.02056805 0.00307492 0.00208079 0.00850010 0.00113436 0.00733134 0.00602715 0.03729883 0.01054968 0.01521869 0.00193991 0.00991197 0.07456608 0.02015069 0.00445174 
0.01151868 0.02090204 0.00310406 0.00210854 0.00849837 0.00113027 0.00743426 0.00600408 0.03804750 0.01051474 0.01530827 0.00193762 0.01007831 0.07463773 0.02009253 0.00453509 
0.01167206 0.02126669 0.00313712 0.00213718 0.00849814 0.00112793 0.00753966 0.00598116 0.03879233 0.01047158 0.01538742 0.00193505 0.01024617 0.07477107 0.02005987 0.00461699 
0.01182041 0.02166001 0.00317412 0.00216660 0.00849998 0.00112741 0.00764748 0.00595855 0.03953244 0.01042088 0.01545556 0.00193225 0.01041462 0.07496319 0.02005201 0.00469724 
0.01196345 0.02207994 0.00321503 0.00219669 0.00850444 0.00112875 0.00775767 0.00593641 0.04026710 0.01036333 0.01551223 0.00192924 0.01058273 0.07521085 0.02006810 0.00477564 
0.01210096 0.02252429 0.00325980 0.00222733 0.00851207 0.00113198 0.00787020 0.00591490 0.04099564 0.01029970 0.01555703 0.00192608 0.01074959 0.07551049 0.02010714 0.00485199 
0.01223273 0.02299080 0.00330836 0.00225840 0.00852340 0.00113715 0.00798501 0.00589418 0.04171755 0.01023077 0.01558967 0.00192279 0.01091427 0.07585826 0.02016800 0.00492610 
0.01235859 0.02347715 0.00336059 0.00228979 0.00853890 0.00114429 0.00810206 0.00587442 0.04243239 0.01015738 0.01560996 0.00191941 0.01107587 0.07625007 0.02024945 0.00499780 
0.01247839 0.02398096 0.00341636 0.00232139 0.00855906 0.00115342 0.00822131 0.00585578 0.04313981 0.01008040 0.01561782 0.00191599 0.01123348 0.07668163 0.02035013 0.00506692 
0.01259203 0.02449981 0.00347548 0.00235308 0.00858428 0.00116455 0.00834272 0.00583844 0.04383959 0.01000071 0.01561324 0.00191255 0.01138624 0.07714843 0.02046857 0.00513330 
0.01269941 0.02503128 0.00353777 0.00238474 0.00861495 0.00117771 0.00846622 0.00582254 0.04453157 0.00991923 0.01559634 0.00190914 0.01153330 0.07764584 0.02060324 0.00519677 
0.01280046 0.02557293 0.00360299 0.00241627 0.00865140 0.00119289 0.00859176 0.00580828 0.04521566 0.00983686 0.01556731 0.00190579 0.01167385 0.07816911 0.02075251 0.00525721 
0.01289513 0.02612234 0.00367090 0.00244755 0.00869394 0.00121009 0.00871928 0.00579580 0.04589187 0.00975454 0.01552645 0.00190252 0.01180711 0.07871342 0.02091469 0.00531447 
0.01298341 0.02667713 0.00374122 0.00247848 0.00874279 0.00122931 0.00884870 0.00578528 0.04656025 0.00967318 0.01547415 0.00189936 0.01193236 0.07927387 0.02108804 0.00536843 
0.01306529 0.02723494 0.00381365 0.00250896 0.00879814 0.00125053 0.00897994 0.00577688 0.04722091 0.00959368 0.01541088 0.00189635 0.01204889 0.07984559 0.02127078 0.00541898 
0.01314077 0.02779350 0.00388787 0.00253889 0.00886011 0.00127373 0.00911290 0.00577077 0.04787398 0.00951694 0.01533722 0.00189350 0.01215607 0.08042370 0.02146108 0.00546603 
0.01320989 0.02835060 0.00396355 0.00256816 0.00892876 0.00129887 0.00924747 0.00576710 0.04851965 0.00944383 0.01525379 0.00189084 0.01225331 0.08100338 0.02165713 0.00550947 
0.01327268 0.02890412 0.00404032 0.00259669 0.00900411 0.00132591 0.00938353 0.00576602 0.04915810 0.00937519 0.01516132 0.00188838 0.01234007 0.08157989 0.02185708 0.00554924 
0.01332920 0.02945204 0.00411783 0.00262439 0.00908608 0.00135481 0.00952093 0.00576770 0.04978955 0.00931181 0.01506060 0.00188614 0.01241588 0.08214860 0.02205910 0.00558526 
0.01337951 0.02999245 0.00419568 0.00265117 0.00917456 0.00138552 0.00965951 0.00577228 0.05041418 0.00925446 0.01495247 0.00188412 0.01248034 0.08270503 0.02226138 0.00561749 
0.01342369 0.03052358 0.00427351 0.00267695 0.00926936 0.00141797 0.00979909 0.00577991 0.05103216 0.00920384 0.01483786 0.00188233 0.01253308 0.08324483 0.02246213 0.00564589 
0.01346182 0.03104378 0.00435090 0.00270165 0.00937024 0.00145209 0.00993949 0.00579071 0.05164367 0.00916060 0.01471773 0.00188077 0.01257383 0.08376388 0.02265962 0.00567041 
0.01349400 0.03155155 0.00442748 0.00272521 0.00947689 0.00148781 0.01008047 0.00580482 0.05224880 0.00912535 0.01459308 0.00187945 0.01260238 0.08425825 0.02285215 0.00569106 
0.01352033 0.03204553 0.00450283 0.00274755 0.00958895 0.00152504 0.01022180 0.00582238 0.05284763 0.00909862 0.01446496 0.00187835 0.01261857 0.08472422 0.02303808 0.00570783 
0.01354091 0.03252455 0.00457658 0.00276861 0.00970598 0.00156370 0.01036323 0.00584348 0.05344017 0.00908086 0.01433445 0.00187747 0.01262232 0.08515836 0.02321586 0.00572073 
0.01355587 0.03298757 0.00464832 0.00278834 0.00982752 0.00160367 0.01050446 0.00586824 0.05402636 0.00907247 0.01420263 0.00187679 0.01261363 0.08555747 0.02338398 0.00572978 
0.01356531 0.03343372 0.00471769 0.00280668 0.00995302 0.00164487 0.01064519 0.00589677 0.05460607 0.00907377 0.01407063 0.00187629 0.01259255 0.08591865 0.02354105 0.00573502 
0.01356939 0.03386234 0.00478432 0.00282358 0.01008190 0.00168717 0.01078512 0.00592914 0.05517909 0.00908499 0.01393956 0.00187596 0.01255921 0.08623927 0.02368576 0.00573650 
0.01356823 0.03427289 0.00484784 0.00283900 0.01021356 0.00173047 0.01092388 0.00596544 0.05574512 0.00910630 0.01381053 0.00187576 0.01251380 0.08651701 0.02381690 0.00573429 
0.01356198 0.03466504 0.00490794 0.00285290 0.01034730 0.00177464 0.01106112 0.00600574 0.05630377 0.00913776 0.01368466 0.00187568 0.01245659 0.08674987 0.02393337 0.00572845 
0.01355080 0.03503861 0.00496428 0.00286524 0.01048245 0.00181955 0.01119646 0.00605008 0.05685457 0.00917938 0.01356302 0.00187568 0.01238790 0.08693613 0.02403416 0.00571907 
0.01353485 0.03539361 0.00501659 0.00287599 0.01061826 0.00186508 0.01132949 0.00609853 0.05739692 0.00923107 0.01344667 0.00187572 0.01230811 0.08707441 0.02411840 0.00570626 
0.01351432 0.03573021 0.00506458 0.00288513 0.01075399 0.00191108 0.01145981 0.00615110 0.05793016 0.00929266 0.01333665 0.00187577 0.01221768 0.08716363 0.02418532 0.00569012 
0.01348940 0.03604872 0.00510801 0.00289263 0.01088884 0.00195743 0.01158698 0.00620782 0.05845351 0.00936391 0.01323394 0.00187579 0.01211711 0.08720303 0.02423429 0.00567076 
0.01346028 0.03634963 0.00514668 0.00289846 0.01102204 0.00200398 0.01171057 0.00626870 0.05896609 0.00944448 0.01313948 0.00187573 0.01200695 0.08719217 0.02426478 0.00564833 
0.01342718 0.03663358 0.00518039 0.00290262 0.01115279 0.00205059 0.01183012 0.00633371 0.05946695 0.00953398 0.01305414 0.00187556 0.01188783 0.08713089 0.02427639 0.00562295 
0.01339036 0.03690133 0.00520899 0.00290510 0.01128028 0.00209710 0.01194517 0.00640284 0.05995505 0.00963193 0.01297875 0.00187522 0.01176039 0.08701935 0.02426885 0.00559477 
0.01335005 0.03715378 0.00523237 0.00290587 0.01140372 0.00214339 0.01205525 0.00647604 0.06042926 0.00973779 0.01291405 0.00187468 0.01162535 0.08685799 0.02424200 0.00556396 
0.01330653 0.03739196 0.00525043 0.00290495 0.01152233 0.00218930 0.01215991 0.00655327 0.06088837 0.00985094 0.01286072 0.00187388 0.01148345 0.08664751 0.02419583 0.00553066 
0.01326011 0.03761699 0.00526313 0.00290233 0.01163533 0.00223468 0.01225867 0.00663446 0.06133113 0.00997071 0.01281936 0.00187278 0.01133548 0.08638891 0.02413042 0.00549505 
0.01321109 0.03783010 0.00527045 0.00289800 0.01174199 0.00227940 0.01235105 0.00671950 0.06175622 0.01009638 0.01279049 0.00187133 0.01118224 0.08608342 0.02404598 0.00545730 
0.01315982 0.03803259 0.00527240 0.00289197 0.01184158 0.00232330 0.01243661 0.00680831 0.06216230 0.01022716 0.01277452 0.00186948 0.01102459 0.08573249 0.02394283 0.00541759 
0.01310668 0.03822585 0.00526905 0.00288426 0.01193341 0.00236626 0.01251488 0.00690077 0.06254796 0.01036224 0.01277178 0.00186719 0.01086338 0.08533783 0.02382141 0.00537609 
0.01305205 0.03841130 0.00526047 0.00287486 0.01201686 0.00240812 0.01258543 0.00699673 0.06291183 0.01050074 0.01278253 0.00186440 0.01069952 0.08490132 0.02368224 0.00533299 
0.01299635 0.03859043 0.00524681 0.00286379 0.01209131 0.00244876 0.01264783 0.00709606 0.06325248 0.01064179 0.01280689 0.00186109 0.01053390 0.08442504 0.02352598 0.00528848 
0.01294005 0.03876473 0.00522821 0.00285106 0.01215623 0.00248805 0.01270166 0.00719858 0.06356853 0.01078444 0.01284492 0.00185721 0.01036744 0.08391122 0.02335334 0.00524273 
0.01288362 0.03893572 0.00520487 0.00283670 0.01221112 0.00252585 0.01274653 0.00730410 0.06385862 0.01092778 0.01289655 0.00185271 0.01020106 0.08336225 0.02316515 0.00519592 
0.01282758 0.03910489 0.00517701 0.00282071 0.01225554 0.00256206 0.01278208 0.00741244 0.06412143 0.01107084 0.01296164 0.00184756 0.01003569 0.08278064 0.02296232 0.00514825 
0.01277246 0.03927374 0.00514488 0.00280313 0.01228913 0.00259656 0.01280797 0.00752337 0.06435570 0.01121267 0.01303993 0.00184174 0.00987225 0.08216899 0.02274581 0.00509988 
0.01271884 0.03944373 0.00510876 0.00278398 0.01231158 0.00262924 0.01282388 0.00763668 0.06456025 0.01135232 0.01313106 0.00183520 0.00971165 0.08153000 0.02251667 0.00505099 
0.01266732 0.03961624 0.00506895 0.00276327 0.01232267 0.00266000 0.01282954 0.00775211 0.06473397 0.01148884 0.01323460 0.00182792 0.00955480 0.08086643 0.02227599 0.00500174 
0.01261852 0.03979263 0.00502579 0.00274105 0.01232222 0.00268874 0.01282470 0.00786940 0.06487588 0.01162131 0.01335000 0.00181988 0.00940258 0.08018107 0.02202494 0.00495231 
0.01257310 0.03997415 0.00497962 0.00271734 0.01231016 0.00271539 0.01280914 0.00798829 0.06498510 0.01174883 0.01347664 0.00181107 0.00925588 0.07947674 0.02176471 0.00490285 
0.01253174 0.04016196 0.00493081 0.00269217 0.01228646 0.00273987 0.01278271 0.00810850 0.06506089 0.01187052 0.01361380 0.00180146 0.00911553 0.07875624 0.02149653 0.00485350 
0.01249515 0.04035713 0.00487975 0.00266559 0.01225119 0.00276210 0.01274528 0.00822972 0.06510265 0.01198555 0.01376068 0.00179106 0.00898236 0.07802236 0.02122165 0.00480441 
0.01246406 0.04056060 0.00482683 0.00263762 0.01220450 0.00278202 0.01269675 0.00835166 0.06510995 0.01209311 0.01391643 0.00177984 0.00885715 0.07727785 0.02094134 0.00475571 
0.01243921 0.04077319 0.00477245 0.00260830 0.01214660 0.00279960 0.01263710 0.00847398 0.06508251 0.01219247 0.01408008 0.00176783 0.00874065 0.07652540 0.02065690 0.00470753 
0.01242136 0.04099557 0.00471703 0.00257769 0.01207778 0.00281478 0.01256631 0.00859637 0.06502023 0.01228292 0.01425065 0.00175501 0.00863360 0.07576760 0.02036961 0.00465997 
0.01241130 0.04122828 0.00466098 0.00254582 0.01199840 0.00282754 0.01248446 0.00871850 0.06492321 0.01236384 0.01442706 0.00174141 0.00853665 0.07500696 0.02008073 0.00461314 
0.01240979 0.04147170 0.00460472 0.00251274 0.01190890 0.00283785 0.01239163 0.00884001 0.06479171 0.01243464 0.01460821 0.00172703 0.00845044 0.07424587 0.01979154 0.00456713 
0.01241764 0.04172603 0.00454866 0.00247849 0.01180979 0.00284570 0.01228799 0.00896056 0.06462620 0.01249482 0.01479295 0.00171191 0.00837556 0.07348659 0.01950328 0.00452202 
0.01243563 0.04199131 0.00449320 0.00244315 0.01170164 0.00285110 0.01217372 0.00907980 0.06442735 0.01254395 0.01498008 0.00169605 0.00831254 0.07273124 0.01921714 0.00447788 
0.01246456 0.04226743 0.00443875 0.00240675 0.01158509 0.00285403 0.01204907 0.00919736 0.06419602 0.01258165 0.01516838 0.00167950 0.00826186 0.07198177 0.01893430 0.00443476 
0.01250520 0.04255408 0.00438568 0.00236935 0.01146082 0.00285454 0.01191434 0.00931289 0.06393326 0.01260764 0.01535664 0.00166230 0.00822395 0.07123998 0.01865588 0.00439272 
0.01255831 0.04285078 0.00433436 0.00233102 0.01132958 0.00285263 0.01176987 0.00942603 0.06364031 0.01262170 0.01554361 0.00164447 0.00819919 0.07050745 0.01838296 0.00435178 
0.01262465 0.04315688 0.00428514 0.00229182 0.01119216 0.00284835 0.01161604 0.00953640 0.06331861 0.01262369 0.01572804 0.00162607 0.00818788 0.06978563 0.01811654 0.00431197 
0.01270495 0.04347157 0.00423835 0.00225182 0.01104941 0.00284175 0.01145330 0.00964367 0.06296975 0.01261356 0.01590871 0.00160715 0.00819027 0.06907572 0.01785758 0.00427330 
0.01279988 0.04379383 0.00419430 0.00221108 0.01090220 0.00283287 0.01128211 0.00974746 0.06259552 0.01259132 0.01608439 0.00158775 0.00820658 0.06837874 0.01760696 0.00423578 
0.01291013 0.04412252 0.00415327 0.00216969 0.01075144 0.00282178 0.01110301 0.00984742 0.06219784 0.01255706 0.01625390 0.00156794 0.00823692 0.06769552 0.01736548 0.00419938 
0.01303630 0.04445631 0.00411550 0.00212770 0.01059805 0.00280855 0.01091654 0.00994321 0.06177880 0.01251095 0.01641608 0.00154777 0.00828136 0.06702665 0.01713387 0.00416409 
0.01317898 0.04479373 0.00408123 0.00208522 0.01044299 0.00279327 0.01072329 0.01003449 0.06134058 0.01245325 0.01656982 0.00152731 0.00833991 0.06637254 0.01691279 0.00412988 
0.01333869 0.04513316 0.00405063 0.00204231 0.01028722 0.00277602 0.01052391 0.01012093 0.06088553 0.01238425 0.01671405 0.00150663 0.00841252 0.06573337 0.01670279 0.00409671 
0.01351589 0.04547287 0.00402388 0.00199907 0.01013171 0.00275689 0.01031906 0.01020222 0.06041603 0.01230434 0.01684778 0.00148580 0.00849906 0.06510914 0.01650436 0.00406453 
0.01371100 0.04581098 0.00400108 0.00195558 0.00997743 0.00273599 0.01010941 0.01027803 0.05993460 0.01221396 0.01697005 0.00146487 0.00859936 0.06449962 0.01631788 0.00403329 
0.01392435 0.04614552 0.00398233 0.00191194 0.00982533 0.00271342 0.00989569 0.01034808 0.05944376 0.01211362 0.01708001 0.00144394 0.00871317 0.06390442 0.01614366 0.00400291 
0.01415621 0.04647443 0.00396769 0.00186825 0.00967635 0.00268931 0.00967863 0.01041209 0.05894611 0.01200389 0.01717688 0.00142307 0.00884018 0.06332293 0.01598191 0.00397334 
0.01440679 0.04679555 0.00395716 0.00182459 0.00953143 0.00266377 0.00945900 0.01046981 0.05844424 0.01188537 0.01725994 0.00140233 0.00898002 0.06275439 0.01583274 0.00394450 
0.01467618 0.04710667 0.00395074 0.00178108 0.00939144 0.00263692 0.00923755 0.01052097 0.05794073 0.01175871 0.01732860 0.00138181 0.00913229 0.06219787 0.01569620 0.00391631 
0.01496442 0.04740556 0.00394836 0.00173782 0.00925726 0.00260890 0.00901506 0.01056537 0.05743816 0.01162463 0.01738233 0.00136157 0.00929648 0.06165228 0.01557222 0.00388868 
0.01527146 0.04768991 0.00394993 0.00169491 0.00912968 0.00257983 0.00879233 0.01060280 0.05693901 0.01148385 0.01742072 0.00134169 0.00947208 0.06111640 0.01546068 0.00386153 
0.01559715 0.04795743 0.00395534 0.00165248 0.00900949 0.00254987 0.00857015 0.01063308 0.05644573 0.01133714 0.01744346 0.00132225 0.00965849 0.06058889 0.01536135 0.00383476 
0.01594125 0.04820584 0.00396442 0.00161062 0.00889740 0.00251914 0.00834929 0.01065605 0.05596064 0.01118528 0.01745035 0.00130332 0.00985507 0.06006829 0.01527393 0.00380830 
0.01630342 0.04843288 0.00397698 0.00156947 0.00879406 0.00248779 0.00813055 0.01067157 0.05548597 0.01102907 0.01744129 0.00128496 0.01006115 0.05955307 0.01519805 0.00378205 
0.01668325 0.04863634 0.00399282 0.00152912 0.00870009 0.00245596 0.00791469 0.01067955 0.05502378 0.01086934 0.01741629 0.00126725 0.01027599 0.05904162 0.01513327 0.00375592 
0.01708020 0.04881406 0.00401166 0.00148971 0.00861599 0.00242380 0.00770248 0.01067989 0.05457600 0.01070689 0.01737548 0.00125025 0.01049882 0.05853229 0.01507907 0.00372983 
0.01749366 0.04896397 0.00403326 0.00145135 0.00854225 0.00239146 0.00749466 0.01067255 0.05414438 0.01054254 0.01731910 0.00123403 0.01072883 0.05802338 0.01503489 0.00370369 
0.01792291 0.04908412 0.00405729 0.00141416 0.00847923 0.00235908 0.00729196 0.01065750 0.05373047 0.01037711 0.01724748 0.00121865 0.01096520 0.05751320 0.01500009 0.00367742 
0.01836714 0.04917264 0.00408345 0.00137827 0.00842726 0.00232680 0.00709507 0.01063475 0.05333560 0.01021140 0.01716108 0.00120416 0.01120703 0.05700006 0.01497401 0.00365095 
0.01882545 0.04922784 0.00411140 0.00134380 0.00838656 0.00229478 0.00690467 0.01060434 0.05296092 0.01004617 0.01706046 0.00119061 0.01145345 0.05648232 0.01495592 0.00362420 
0.01929684 0.04924815 0.00414077 0.00131086 0.00835728 0.00226315 0.00672139 0.01056631 0.05260730 0.00988219 0.01694628 0.00117806 0.01170353 0.05595837 0.01494506 0.00359711 
0.01978022 0.04923219 0.00417121 0.00127959 0.00833950 0.00223206 0.00654585 0.01052077 0.05227541 0.00972018 0.01681930 0.00116655 0.01195632 0.05542670 0.01494066 0.00356962 
0.02027444 0.04917875 0.00420232 0.00125009 0.00833321 0.00220164 0.00637861 0.01046785 0.05196565 0.00956083 0.01668037 0.00115612 0.01221090 0.05488588 0.01494191 0.00354168 
0.02077824 0.04908682 0.00423373 0.00122250 0.00833831 0.00217203 0.00622021 0.01040770 0.05167818 0.00940480 0.01653044 0.00114680 0.01246629 0.05433459 0.01494797 0.00351324 
0.02129031 0.04895561 0.00426504 0.00119692 0.00835463 0.00214337 0.00607114 0.01034050 0.05141289 0.00925269 0.01637054 0.00113862 0.01272153 0.05377167 0.01495802 0.00348427 
0.02180924 0.04878454 0.00429586 0.00117346 0.00838191 0.00211577 0.00593184 0.01026647 0.05116943 0.00910507 0.01620178 0.00113162 0.01297567 0.05319610 0.01497123 0.00345475 
0.02233359 0.04857327 0.00432579 0.00115224 0.00841984 0.00208936 0.00580271 0.01018586 0.05094720 0.00896245 0.01602532 0.00112581 0.01322774 0.05260702 0.01498676 0.00342466 
0.02286183 0.04832169 0.00435446 0.00113336 0.00846801 0.00206427 0.00568411 0.01009893 0.05074534 0.00882530 0.01584242 0.00112120 0.01347679 0.05200377 0.01500380 0.00339398 
0.02339240 0.04802993 0.00438149 0.00111693 0.00852595 0.00204060 0.00557635 0.01000599 0.05056276 0.00869403 0.01565437 0.00111780 0.01372190 0.05138591 0.01502154 0.00336273 
0.02392369 0.04769838 0.00440651 0.00110304 0.00859312 0.00201845 0.00547967 0.00990737 0.05039815 0.00856899 0.01546251 0.00111562 0.01396215 0.05075319 0.01503922 0.00333091 
0.02445406 0.04732770 0.00442916 0.00109177 0.00866891 0.00199793 0.00539429 0.00980343 0.05024996 0.00845047 0.01526823 0.00111466 0.01419664 0.05010559 0.01505608 0.00329854 
0.02498182 0.04691876 0.00444912 0.00108322 0.00875266 0.00197914 0.00532035 0.00969453 0.05011645 0.00833872 0.01507295 0.00111492 0.01442451 0.04944334 0.01507143 0.00326565 
0.02550529 0.04647272 0.00446606 0.00107747 0.00884366 0.00196215 0.00525796 0.00958110 0.04999571 0.00823390 0.01487810 0.00111637 0.01464492 0.04876692 0.01508460 0.00323230 
0.02602274 0.04599098 0.00447970 0.00107457 0.00894114 0.00194705 0.00520718 0.00946354 0.04988564 0.00813615 0.01468513 0.00111902 0.01485708 0.04807704 0.01509497 0.00319851 
0.02653249 0.04547518 0.00448977 0.00107460 0.00904430 0.00193390 0.00516799 0.00934231 0.04978399 0.00804553 0.01449550 0.00112282 0.01506022 0.04737470 0.01510199 0.00316436 
0.02703281 0.04492722 0.00449602 0.00107761 0.00915230 0.00192278 0.00514036 0.00921787 0.04968840 0.00796203 0.01431066 0.00112777 0.01525363 0.04666112 0.01510514 0.00312991 
0.02752203 0.04434920 0.00449824 0.00108364 0.00926427 0.00191373 0.00512419 0.00909071 0.04959641 0.00788563 0.01413204 0.00113383 0.01543663 0.04593781 0.01510397 0.00309525 
0.02799847 0.04374347 0.00449626 0.00109273 0.00937930 0.00190679 0.00511932 0.00896131 0.04950547 0.00781620 0.01396104 0.00114097 0.01560860 0.04520651 0.01509812 0.00306044 
0.02846051 0.04311259 0.00448991 0.00110490 0.00949650 0.00190202 0.00512556 0.00883018 0.04941297 0.00775361 0.01379906 0.00114916 0.01576896 0.04446922 0.01508725 0.00302559 
0.02890655 0.04245930 0.00447908 0.00112017 0.00961495 0.00189942 0.00514268 0.00869785 0.04931630 0.00769765 0.01364741 0.00115834 0.01591720 0.04372820 0.01507113 0.00299079 
0.02933505 0.04178654 0.00446370 0.00113855 0.00973371 0.00189903 0.00517038 0.00856484 0.04921283 0.00764808 0.01350738 0.00116849 0.01605285 0.04298591 0.01504957 0.00295615 
0.02974454 0.04109742 0.00444371 0.00116003 0.00985188 0.00190085 0.00520834 0.00843167 0.04909998 0.00760461 0.01338021 0.00117954 0.01617550 0.04224504 0.01502248 0.00292178 
0.03013359 0.04039518 0.00441910 0.00118458 0.00996854 0.00190487 0.00525620 0.00829889 0.04897520 0.00756693 0.01326705 0.00119146 0.01628482 0.04150851 0.01498980 0.00288778 
0.03050086 0.03968321 0.00438989 0.00121219 0.01008281 0.00191110 0.00531355 0.00816704 0.04883603 0.00753469 0.01316898 0.00120419 0.01638051 0.04077941 0.01495159 0.00285429 
0.03084510 0.03896501 0.00435615 0.00124281 0.01019383 0.00191951 0.00537995 0.00803664 0.04868014 0.00750749 0.01308702 0.00121767 0.01646234 0.04006100 0.01490794 0.00282142 
0.03116514 0.03824415 0.00431797 0.00127639 0.01030076 0.00193008 0.00545493 0.00790823 0.04850532 0.00748494 0.01302207 0.00123186 0.01653016 0.03935670 0.01485904 0.00278928 
0.03145991 0.03752431 0.00427549 0.00131287 0.01040280 0.00194276 0.00553799 0.00778232 0.04830952 0.00746660 0.01297498 0.00124670 0.01658387 0.03867005 0.01480512 0.00275802 
0.03172843 0.03680916 0.00422886 0.00135218 0.01049922 0.00195750 0.00562859 0.00765945 0.04809089 0.00745204 0.01294645 0.00126213 0.01662341 0.03800472 0.01474648 0.00272774 
0.03196984 0.03610246 0.00417830 0.00139422 0.01058929 0.00197426 0.00572618 0.00754011 0.04784776 0.00744080 0.01293713 0.00127809 0.01664882 0.03736444 0.01468350 0.00269858 
0.03218340 0.03540791 0.00412402 0.00143890 0.01067238 0.00199296 0.00583018 0.00742478 0.04757873 0.00743244 0.01294752 0.00129452 0.01666016 0.03675300 0.01461661 0.00267065 
0.03236846 0.03472922 0.00406630 0.00148611 0.01074790 0.00201353 0.00593999 0.00731396 0.04728262 0.00742648 0.01297804 0.00131136 0.01665759 0.03617422 0.01454627 0.00264408 
0.03252453 0.03407005 0.00400543 0.00153573 0.01081531 0.00203589 0.00605501 0.00720808 0.04695851 0.00742250 0.01302898 0.00132857 0.01664128 0.03563192 0.01447302 0.00261899 
0.03265121 0.03343397 0.00394172 0.00158763 0.01087415 0.00205995 0.00617460 0.00710760 0.04660580 0.00742003 0.01310052 0.00134607 0.01661150 0.03512989 0.01439742 0.00259548 
0.03274823 0.03282450 0.00387551 0.00164168 0.01092405 0.00208561 0.00629812 0.00701292 0.04622416 0.00741866 0.01319273 0.00136382 0.01656855 0.03467187 0.01432010 0.00257366 
0.03281548 0.03224499 0.00380719 0.00169772 0.01096466 0.00211276 0.00642494 0.00692443 0.04581355 0.00741798 0.01330557 0.00138175 0.01651277 0.03426150 0.01424170 0.00255364 
0.03285294 0.03169870 0.00373713 0.00175560 0.01099577 0.00214129 0.00655440 0.00684250 0.04537428 0.00741759 0.01343886 0.00139982 0.01644457 0.03390230 0.01416289 0.00253552 
0.03286074 0.03118869 0.00366574 0.00181515 0.01101719 0.00217109 0.00668584 0.00676746 0.04490695 0.00741714 0.01359234 0.00141797 0.01636438 0.03359766 0.01408436 0.00251938 
0.03283915 0.03071788 0.00359343 0.00187619 0.01102884 0.00220202 0.00681863 0.00669963 0.04441251 0.00741630 0.01376561 0.00143614 0.01627270 0.03335078 0.01400684 0.00250531 
0.03278853 0.03028895 0.00352065 0.00193855 0.01103072 0.00223395 0.00695210 0.00663927 0.04389221 0.00741477 0.01395817 0.00145430 0.01617004 0.03316466 0.01393103 0.00249338 
0.03270941 0.02990440 0.00344784 0.00200203 0.01102288 0.00226676 0.00708562 0.00658664 0.04334762 0.00741230 0.01416943 0.00147238 0.01605696 0.03304207 0.01385768 0.00248367 
0.03260242 0.02956648 0.00337544 0.00206645 0.01100547 0.00230029 0.00721856 0.00654194 0.04278064 0.00740866 0.01439868 0.00149036 0.01593405 0.03298553 0.01378749 0.00247623 
0.03246832 0.02927718 0.00330391 0.00213160 0.01097872 0.00233442 0.00735029 0.00650535 0.04219348 0.00740367 0.01464513 0.00150817 0.01580192 0.03299725 0.01372120 0.00247111 
0.03230798 0.02903825 0.00323370 0.00219729 0.01094291 0.00236898 0.00748021 0.00647703 0.04158862 0.00739722 0.01490787 0.00152579 0.01566121 0.03307918 0.01365950 0.00246835 
0.03212238 0.02885116 0.00316526 0.00226331 0.01089842 0.00240384 0.00760773 0.00645707 0.04096885 0.00738920 0.01518594 0.00154317 0.01551256 0.03323290 0.01360306 0.00246799 
0.03191264 0.02871709 0.00309903 0.00232945 0.01084567 0.00243884 0.00773226 0.00644555 0.04033721 0.00737958 0.01547828 0.00156028 0.01535665 0.03345968 0.01355255 0.00247006 
0.03167993 0.02863692 0.00303546 0.00239551 0.01078518 0.00247384 0.00785327 0.00644252 0.03969701 0.00736836 0.01578376 0.00157708 0.01519416 0.03376041 0.01350859 0.00247455 
0.03142556 0.02861125 0.00297497 0.00246129 0.01071749 0.00250868 0.00797021 0.00644797 0.03905176 0.00735561 0.01610121 0.00159354 0.01502577 0.03413561 0.01347176 0.00248149 
0.03115091 0.02864036 0.00291796 0.00252657 0.01064323 0.00254322 0.00808259 0.00646187 0.03840522 0.00734144 0.01642938 0.00160963 0.01485217 0.03458539 0.01344262 0.00249087 
0.03085745 0.02872423 0.00286484 0.00259115 0.01056305 0.00257730 0.00818991 0.00648417 0.03776128 0.00732598 0.01676697 0.00162533 0.01467405 0.03510950 0.01342164 0.00250267 
0.03054673 0.02886255 0.00281597 0.00265483 0.01047768 0.00261079 0.00829174 0.00651474 0.03712404 0.00730946 0.01711267 0.00164061 0.01449209 0.03570726 0.01340929 0.00251688 
0.03022034 0.02905467 0.00277172 0.00271741 0.01038787 0.00264354 0.00838763 0.00655348 0.03649770 0.00729210 0.01746511 0.00165544 0.01430697 0.03637758 0.01340595 0.00253346 
0.02987997 0.02929966 0.00273239 0.00277869 0.01029440 0.00267541 0.00847722 0.00660020 0.03588657 0.00727421 0.01782293 0.00166980 0.01411934 0.03711896 0.01341196 0.00255239 
0.02952733 0.02959630 0.00269831 0.00283850 0.01019810 0.00270628 0.00856012 0.00665471 0.03529503 0.00725612 0.01818474 0.00168369 0.01392987 0.03792951 0.01342760 0.00257362 
0.02916419 0.02994307 0.00266972 0.00289665 0.01009978 0.00273600 0.00863601 0.00671678 0.03472751 0.00723820 0.01854915 0.00169707 0.01373917 0.03880690 0.01345308 0.00259709 
0.02879234 0.03033816 0.00264689 0.00295296 0.01000032 0.00276447 0.00870461 0.00678615 0.03418845 0.00722087 0.01891478 0.00170994 0.01354787 0.03974842 0.01348853 0.00262275 
0.02841361 0.03077951 0.00263001 0.00300727 0.00990055 0.00279157 0.00876565 0.00686255 0.03368227 0.00720456 0.01928029 0.00172227 0.01335653 0.04075100 0.01353405 0.00265054 
0.02802982 0.03126479 0.00261925 0.00305942 0.00980135 0.00281719 0.00881890 0.00694567 0.03321334 0.00718976 0.01964433 0.00173407 0.01316573 0.04181114 0.01358965 0.00268039 
0.02764282 0.03179144 0.00261476 0.00310927 0.00970357 0.00284123 0.00886418 0.00703516 0.03278596 0.00717696 0.02000562 0.00174532 0.01297599 0.04292501 0.01365526 0.00271223 
0.02725445 0.03235667 0.00261663 0.00315667 0.00960803 0.00286360 0.00890135 0.00713068 0.03240430 0.00716670 0.02036290 0.00175601 0.01278781 0.04408846 0.01373078 0.00274597 
0.02686653 0.03295745 0.00262494 0.00320150 0.00951557 0.00288422 0.00893029 0.00723185 0.03207240 0.00715951 0.02071498 0.00176613 0.01260168 0.04529697 0.01381601 0.00278154 
0.02648085 0.03359061 0.00263970 0.00324364 0.00942697 0.00290302 0.00895092 0.00733828 0.03179414 0.00715594 0.02106073 0.00177568 0.01241801 0.04654576 0.01391070 0.00281885 
0.02609920 0.03425277 0.00266090 0.00328300 0.00934299 0.00291994 0.00896321 0.00744957 0.03157319 0.00715658 0.02139908 0.00178465 0.01223721 0.04782976 0.01401452 0.00285781 
0.02572330 0.03494040 0.00268849 0.00331946 0.00926435 0.00293493 0.00896715 0.00756529 0.03141300 0.00716197 0.02172905 0.00179305 0.01205966 0.04914366 0.01412710 0.00289833 
0.02535482 0.03564985 0.00272240 0.00335297 0.00919172 0.00294795 0.00896280 0.00768501 0.03131678 0.00717270 0.02204973 0.00180086 0.01188568 0.05048193 0.01424800 0.00294032 
0.02499540 0.03637736 0.00276247 0.00338344 0.00912572 0.00295896 0.00895022 0.00780829 0.03128746 0.00718933 0.02236031 0.00180809 0.01171558 0.05183885 0.01437671 0.00298368 
0.02464658 0.03711907 0.00280857 0.00341083 0.00906692 0.00296796 0.00892953 0.00793469 0.03132768 0.00721241 0.02266007 0.00181473 0.01154960 0.05320857 0.01451268 0.00302831 
0.02430985 0.03787108 0.00286047 0.00343510 0.00901581 0.00297492 0.00890087 0.00806376 0.03143976 0.00724247 0.02294838 0.00182080 0.01138798 0.05458508 0.01465532 0.00307413 
0.02398661 0.03862941 0.00291795 0.00345621 0.00897282 0.00297987 0.00886444 0.00819505 0.03162571 0.00728004 0.02322472 0.00182628 0.01123091 0.05596231 0.01480396 0.00312103 
0.02367818 0.03939010 0.00298075 0.00347415 0.00893834 0.00298282 0.00882046 0.00832811 0.03188719 0.00732559 0.02348869 0.00183119 0.01107854 0.05733413 0.01495792 0.00316892 
0.02338576 0.04014916 0.00304854 0.00348893 0.00891263 0.00298378 0.00876917 0.00846250 0.03222549 0.00737958 0.02373997 0.00183553 0.01093101 0.05869439 0.01511646 0.00321769 
0.02311048 0.04090265 0.00312101 0.00350054 0.00889592 0.00298281 0.00871088 0.00859777 0.03264155 0.00744244 0.02397836 0.00183930 0.01078840 0.06003696 0.01527881 0.00326726 
0.02285335 0.04164668 0.00319778 0.00350902 0.00888834 0.00297995 0.00864589 0.00873350 0.03313592 0.00751455 0.02420379 0.00184252 0.01065078 0.06135579 0.01544420 0.00331751 
0.02261526 0.04237740 0.00327847 0.00351439 0.00888995 0.00297526 0.00857457 0.00886926 0.03370879 0.00759624 0.02441626 0.00184519 0.01051818 0.06264487 0.01561178 0.00336836 
0.02239699 0.04309107 0.00336266 0.00351671 0.00890070 0.00296880 0.00849729 0.00900466 0.03435994 0.00768779 0.02461590 0.00184732 0.01039062 0.06389836 0.01578073 0.00341971 
0.02219921 0.04378408 0.00344992 0.00351604 0.00892050 0.00296067 0.00841447 0.00913929 0.03508878 0.00778945 0.02480295 0.00184892 0.01026808 0.06511055 0.01595020 0.00347146 
0.02202246 0.04445291 0.00353978 0.00351245 0.00894914 0.00295095 0.00832655 0.00927279 0.03589435 0.00790138 0.02497775 0.00185001 0.01015052 0.06627595 0.01611931 0.00352352 
0.02186715 0.04509421 0.00363178 0.00350601 0.00898635 0.00293973 0.00823397 0.00940479 0.03677529 0.00802370 0.02514072 0.00185060 0.01003790 0.06738928 0.01628721 0.00357579 
0.02173356 0.04570480 0.00372542 0.00349682 0.00903177 0.00292712 0.00813723 0.00953497 0.03772988 0.00815646 0.02529239 0.00185071 0.00993015 0.06844551 0.01645302 0.00362817 
0.02162186 0.04628165 0.00382020 0.00348498 0.00908497 0.00291323 0.00803684 0.00966300 0.03875603 0.00829965 0.02543337 0.00185035 0.00982718 0.06943990 0.01661590 0.00368057 
0.02153206 0.04682197 0.00391561 0.00347059 0.00914542 0.00289819 0.00793331 0.00978860 0.03985130 0.00845318 0.02556437 0.00184955 0.00972889 0.07036803 0.01677499 0.00373290 
0.02146406 0.04732312 0.00401113 0.00345378 0.00921256 0.00288212 0.00782718 0.00991149 0.04101292 0.00861691 0.02568615 0.00184832 0.00963519 0.07122581 0.01692946 0.00378506 
0.02141763 0.04778274 0.00410624 0.00343467 0.00928571 0.00286514 0.00771902 0.01003146 0.04223778 0.00879060 0.02579955 0.00184670 0.00954596 0.07200953 0.01707850 0.00383696 
0.02139242 0.04819864 0.00420043 0.00341339 0.00936417 0.00284740 0.00760938 0.01014827 0.04352246 0.00897397 0.02590545 0.00184470 0.00946111 0.07271583 0.01722131 0.00388850 
0.02138795 0.04856889 0.00429318 0.00339007 0.00944716 0.00282903 0.00749884 0.01026174 0.04486326 0.00916664 0.02600482 0.00184236 0.00938052 0.07334180 0.01735716 0.00393959 
0.02140359 0.04889182 0.00438397 0.00336486 0.00953385 0.00281017 0.00738798 0.01037172 0.04625618 0.00936817 0.02609862 0.00183971 0.00930408 0.07388490 0.01748530 0.00399012 
0.02143865 0.04916598 0.00447231 0.00333790 0.00962335 0.00279097 0.00727740 0.01047809 0.04769701 0.00957805 0.02618788 0.00183677 0.00923169 0.07434306 0.01760506 0.00404001 
0.02149227 0.04939017 0.00455770 0.00330934 0.00971474 0.00277157 0.00716766 0.01058073 0.04918126 0.00979569 0.02627363 0.00183358 0.00916327 0.07471464 0.01771578 0.00408916 
0.02156350 0.04956347 0.00463967 0.00327933 0.00980706 0.00275210 0.00705937 0.01067958 0.05070427 0.01002044 0.02635690 0.00183019 0.00909873 0.07499847 0.01781688 0.00413747 
0.02165131 0.04968518 0.00471777 0.00324803 0.00989934 0.00273273 0.00695309 0.01077460 0.05226116 0.01025157 0.02643874 0.00182662 0.00903800 0.07519381 0.01790779 0.00418484 
0.02175454 0.04975486 0.00479154 0.00321558 0.00999056 0.00271357 0.00684941 0.01086577 0.05384692 0.01048829 0.02652017 0.00182292 0.00898104 0.07530042 0.01798803 0.00423118 
0.02187196 0.04977232 0.00486059 0.00318214 0.01007970 0.00269477 0.00674888 0.01095311 0.05545636 0.01072976 0.02660220 0.00181913 0.00892780 0.07531851 0.01805713 0.00427637 
0.02200224 0.04973762 0.00492452 0.00314786 0.01016573 0.00267647 0.00665205 0.01103666 0.05708422 0.01097505 0.02668581 0.00181529 0.00887828 0.07524876 0.01811471 0.00432034 
0.02214397 0.04965106 0.00498296 0.00311290 0.01024764 0.00265879 0.00655947 0.01111648 0.05872512 0.01122321 0.02677190 0.00181145 0.00883247 0.07509229 0.01816043 0.00436297 
0.02229571 0.04951314 0.00503558 0.00307739 0.01032440 0.00264185 0.00647163 0.01119267 0.06037360 0.01147321 0.02686136 0.00180767 0.00879039 0.07485071 0.01819403 0.00440416 
0.02245591 0.04932461 0.00508208 0.00304148 0.01039502 0.00262577 0.00638904 0.01126535 0.06202420 0.01172399 0.02695499 0.00180397 0.00875211 0.07452604 0.01821528 0.00444382 
0.02262301 0.04908642 0.00512219 0.00300532 0.01045853 0.00261067 0.00631216 0.01133464 0.06367140 0.01197443 0.02705351 0.00180043 0.00871768 0.07412076 0.01822404 0.00448185 
0.02279537 0.04879975 0.00515567 0.00296904 0.01051399 0.00259664 0.00624143 0.01140071 0.06530971 0.01222340 0.02715758 0.00179708 0.00868721 0.07363776 0.01822022 0.00451815 
0.02297136 0.04846592 0.00518233 0.00293276 0.01056050 0.00258377 0.00617726 0.01146373 0.06693364 0.01246971 0.02726775 0.00179398 0.00866080 0.07308032 0.01820380 0.00455262 
0.02314930 0.04808646 0.00520200 0.00289661 0.01059721 0.00257216 0.00612003 0.01152390 0.06853778 0.01271217 0.02738447 0.00179117 0.00863861 0.07245213 0.01817482 0.00458517 
0.02332750 0.04766308 0.00521455 0.00286071 0.01062334 0.00256187 0.00607008 0.01158143 0.07011677 0.01294956 0.02750808 0.00178872 0.00862079 0.07175722 0.01813337 0.00461571 
0.02350427 0.04719760 0.00521989 0.00282516 0.01063813 0.00255297 0.00602772 0.01163652 0.07166535 0.01318063 0.02763884 0.00178667 0.00860753 0.07099999 0.01807964 0.00464414 
0.02367794 0.04669202 0.00521798 0.00279008 0.01064094 0.00254552 0.00599320 0.01168942 0.07317835 0.01340416 0.02777684 0.00178506 0.00859904 0.07018515 0.01801386 0.00467040 
0.02384682 0.04614844 0.00520882 0.00275555 0.01063116 0.00253955 0.00596677 0.01174035 0.07465076 0.01361889 0.02792208 0.00178396 0.00859554 0.06931769 0.01793631 0.00469438 
0.02400930 0.04556906 0.00519241 0.00272166 0.01060829 0.00253510 0.00594860 0.01178957 0.07607770 0.01382361 0.02807444 0.00178341 0.00859729 0.06840289 0.01784735 0.00471602 
0.02416376 0.04495621 0.00516885 0.00268848 0.01057190 0.00253218 0.00593882 0.01183732 0.07745446 0.01401710 0.02823366 0.00178345 0.00860453 0.06744627 0.01774740 0.00473524 
0.02430865 0.04431227 0.00513822 0.00265610 0.01052164 0.00253081 0.00593754 0.01188384 0.07877650 0.01419816 0.02839934 0.00178413 0.00861755 0.06645356 0.01763693 0.00475199 
0.02444248 0.04363970 0.00510068 0.00262455 0.01045728 0.00253099 0.00594479 0.01192939 0.08003948 0.01436564 0.02857097 0.00178549 0.00863663 0.06543068 0.01751647 0.00476620 
0.02456380 0.04294099 0.00505641 0.00259390 0.01037864 0.00253269 0.00596058 0.01197419 0.08123927 0.01451839 0.02874791 0.00178757 0.00866206 0.06438370 0.01738661 0.00477782 
0.02467125 0.04221871 0.00500561 0.00256419 0.01028569 0.00253589 0.00598486 0.01201849 0.08237198 0.01465534 0.02892940 0.00179041 0.00869415 0.06331882 0.01724797 0.00478682 
0.02476357 0.04147541 0.00494855 0.00253545 0.01017846 0.00254056 0.00601754 0.01206251 0.08343391 0.01477547 0.02911453 0.00179403 0.00873319 0.06224235 0.01710125 0.00479317 
0.02483955 0.04071366 0.00488550 0.00250770 0.01005709 0.00254663 0.00605846 0.01210647 0.08442165 0.01487778 0.02930231 0.00179847 0.00877948 0.06116065 0.01694718 0.00479683 
0.02489810 0.03993606 0.00481677 0.00248096 0.00992182 0.00255405 0.00610745 0.01215055 0.08533201 0.01496137 0.02949163 0.00180375 0.00883333 0.06008011 0.01678652 0.00479780 
0.02493824 0.03914515 0.00474272 0.00245524 0.00977301 0.00256276 0.00616427 0.01219495 0.08616208 0.01502540 0.02968125 0.00180989 0.00889502 0.05900714 0.01662010 0.00479608 
0.02495908 0.03834349 0.00466372 0.00243053 0.00961109 0.00257265 0.00622863 0.01223983 0.08690923 0.01506911 0.02986988 0.00181691 0.00896483 0.05794813 0.01644877 0.00479168 
0.02495985 0.03753356 0.00458015 0.00240682 0.00943659 0.00258365 0.00630021 0.01228534 0.08757108 0.01509181 0.03005610 0.00182481 0.00904302 0.05690940 0.01627342 0.00478463 
0.02493993 0.03671784 0.00449243 0.00238410 0.00925016 0.00259566 0.00637865 0.01233160 0.08814555 0.01509292 0.03023843 0.00183360 0.00912984 0.05589721 0.01609496 0.00477495 
0.02489878 0.03589872 0.00440102 0.00236234 0.00905252 0.00260855 0.00646354 0.01237872 0.08863086 0.01507193 0.03041534 0.00184328 0.00922551 0.05491768 0.01591433 0.00476271 
0.02483601 0.03507856 0.00430636 0.00234152 0.00884449 0.00262222 0.00655444 0.01242677 0.08902551 0.01502843 0.03058522 0.00185385 0.00933023 0.05397681 0.01573250 0.00474795 
0.02475136 0.03425963 0.00420892 0.00232160 0.00862695 0.00263654 0.00665087 0.01247580 0.08932829 0.01496214 0.03074644 0.00186529 0.00944417 0.05308046 0.01555046 0.00473077 
0.02464470 0.03344414 0.00410920 0.00230254 0.00840088 0.00265138 0.00675233 0.01252585 0.08953831 0.01487287 0.03089731 0.00187759 0.00956746 0.05223424 0.01536920 0.00471124 
0.02451605 0.03263421 0.00400768 0.00228429 0.00816734 0.00266660 0.00685826 0.01257691 0.08965496 0.01476051 0.03103617 0.00189072 0.00970020 0.05144362 0.01518974 0.00468947 
0.02436552 0.03183189 0.00390488 0.00226681 0.00792743 0.00268207 0.00696812 0.01262896 0.08967794 0.01462512 0.03116132 0.00190466 0.00984246 0.05071377 0.01501308 0.00466557 
0.02419341 0.03103915 0.00380130 0.00225004 0.00768233 0.00269763 0.00708132 0.01268194 0.08960728 0.01446683 0.03127110 0.00191937 0.00999425 0.05004964 0.01484024 0.00463968 
0.02400011 0.03025786 0.00369745 0.00223392 0.00743327 0.00271313 0.00719726 0.01273576 0.08944327 0.01428590 0.03136384 0.00193482 0.01015556 0.04945589 0.01467224 0.00461194 
0.02378615 0.02948981 0.00359383 0.00221841 0.00718152 0.00272844 0.00731532 0.01279032 0.08918654 0.01408271 0.03143795 0.00195095 0.01032632 0.04893688 0.01451007 0.00458250 
0.02355220 0.02873669 0.00349096 0.00220344 0.00692839 0.00274341 0.00743487 0.01284549 0.08883799 0.01385776 0.03149189 0.00196773 0.01050640 0.04849664 0.01435474 0.00455154 
0.02329905 0.02800011 0.00338933 0.00218896 0.00667523 0.00275787 0.00755530 0.01290110 0.08839885 0.01361166 0.03152417 0.00198510 0.01069564 0.04813890 0.01420721 0.00451922 
0.02302759 0.02728160 0.00328942 0.00217491 0.00642339 0.00277169 0.00767597 0.01295696 0.08787062 0.01334515 0.03153341 0.00200299 0.01089383 0.04786699 0.01406844 0.00448574 
0.02273886 0.02658258 0.00319173 0.00216124 0.00617425 0.00278471 0.00779626 0.01301286 0.08725510 0.01305907 0.03151832 0.00202136 0.01110069 0.04768393 0.01393937 0.00445130 
0.02243397 0.02590442 0.00309670 0.00214788 0.00592919 0.00279681 0.00791555 0.01306857 0.08655440 0.01275438 0.03147771 0.00204012 0.01131591 0.04759232 0.01382088 0.00441611 
0.02211415 0.02524838 0.00300479 0.00213479 0.00568959 0.00280783 0.00803325 0.01312384 0.08577088 0.01243216 0.03141053 0.00205922 0.01153910 0.04759440 0.01371384 0.00438038 
0.02178074 0.02461565 0.00291642 0.00212193 0.00545680 0.00281766 0.00814876 0.01317839 0.08490721 0.01209358 0.03131588 0.00207858 0.01176984 0.04769199 0.01361907 0.00434435 
0.02143514 0.02400734 0.00283201 0.00210924 0.00523218 0.00282615 0.00826153 0.01323193 0.08396630 0.01173993 0.03119298 0.00209814 0.01200765 0.04788652 0.01353735 0.00430822 
0.02107884 0.02342450 0.00275192 0.00209669 0.00501704 0.00283321 0.00837103 0.01328417 0.08295134 0.01137260 0.03104123 0.00211780 0.01225200 0.04817901 0.01346941 0.00427225 
0.02071340 0.02286809 0.00267652 0.00208423 0.00481263 0.00283871 0.00847675 0.01333479 0.08186579 0.01099306 0.03086020 0.00213750 0.01250231 0.04857002 0.01341593 0.00423667 
0.02034046 0.02233902 0.00260614 0.00207185 0.00462021 0.00284255 0.00857822 0.01338346 0.08071334 0.01060288 0.03064963 0.00215716 0.01275795 0.04905975 0.01337752 0.00420172 
0.01996168 0.02183813 0.00254107 0.00205952 0.00444093 0.00284465 0.00867503 0.01342986 0.07949793 0.01020370 0.03040945 0.00217670 0.01301824 0.04964791 0.01335475 0.00416763 
0.01957878 0.02136620 0.00248160 0.00204722 0.00427591 0.00284493 0.00876678 0.01347365 0.07822372 0.00979726 0.03013978 0.00219605 0.01328247 0.05033382 0.01334810 0.00413465 
0.01919351 0.02092397 0.00242795 0.00203493 0.00412619 0.00284331 0.00885314 0.01351450 0.07689510 0.00938535 0.02984094 0.00221513 0.01354988 0.05111637 0.01335800 0.00410300 
0.01880765 0.02051211 0.00238034 0.00202265 0.00399274 0.00283974 0.00893381 0.01355207 0.07551665 0.00896982 0.02951345 0.00223387 0.01381967 0.05199400 0.01338482 0.00407293 
0.01842297 0.02013123 0.00233894 0.00201039 0.00387644 0.00283418 0.00900857 0.01358605 0.07409317 0.00855258 0.02915803 0.00225219 0.01409101 0.05296474 0.01342882 0.00404465 
0.01804127 0.01978191 0.00230388 0.00199815 0.00377810 0.00282658 0.00907723 0.01361611 0.07262962 0.00813557 0.02877560 0.00227002 0.01436305 0.05402621 0.01349020 0.00401838 
0.01766432 0.01946467 0.00227527 0.00198595 0.00369842 0.00281695 0.00913966 0.01364194 0.07113115 0.00772080 0.02836730 0.00228731 0.01463488 0.05517560 0.01356910 0.00399433 
0.01729387 0.01918000 0.00225317 0.00197380 0.00363800 0.00280526 0.00919580 0.01366326 0.06960303 0.00731026 0.02793445 0.00230399 0.01490560 0.05640970 0.01366555 0.00397270 
0.01693167 0.01892832 0.00223763 0.00196174 0.00359735 0.00279153 0.00924564 0.01367980 0.06805071 0.00690600 0.02747858 0.00232000 0.01517429 0.05772490 0.01377950 0.00395368 
0.01657939 0.01871004 0.00222863 0.00194981 0.00357688 0.00277577 0.00928922 0.01369129 0.06647974 0.00651004 0.02700140 0.00233530 0.01544001 0.05911721 0.01391084 0.00393744 
0.01623867 0.01852547 0.00222614 0.00193803 0.00357689 0.00275803 0.00932666 0.01369750 0.06489577 0.00612441 0.02650484 0.00234983 0.01570180 0.06058226 0.01405934 0.00392413 
0.01591111 0.01837493 0.00223009 0.00192647 0.00359756 0.00273836 0.00935812 0.01369824 0.06330456 0.00575115 0.02599096 0.00236355 0.01595872 0.06211533 0.01422470 0.00391389 
0.01559821 0.01825866 0.00224036 0.00191517 0.00363896 0.00271681 0.00938384 0.01369332 0.06171192 0.00539224 0.02546202 0.00237643 0.01620981 0.06371135 0.01440653 0.00390686 
0.01530141 0.01817686 0.00225682 0.00190418 0.00370106 0.00269346 0.00940410 0.01368260 0.06012371 0.00504965 0.02492044 0.00238845 0.01645414 0.06536491 0.01460437 0.00390314 
0.01502207 0.01812966 0.00227929 0.00189358 0.00378372 0.00266840 0.00941923 0.01366595 0.05854586 0.00472531 0.02436878 0.00239957 0.01669076 0.06707032 0.01481765 0.00390281 
0.01476146 0.01811715 0.00230756 0.00188343 0.00388667 0.00264173 0.00942964 0.01364331 0.05698427 0.00442106 0.02380972 0.00240978 0.01691878 0.06882157 0.01504574 0.00390593 
0.01452073 0.01813936 0.00234140 0.00187379 0.00400955 0.00261357 0.00943577 0.01361462 0.05544484 0.00413873 0.02324609 0.00241909 0.01713729 0.07061242 0.01528790 0.00391257 
0.01430096 0.01819625 0.00238055 0.00186474 0.00415190 0.00258402 0.00943811 0.01357987 0.05393347 0.00388004 0.02268079 0.00242747 0.01734543 0.07243636 0.01554333 0.00392273 
0.01410308 0.01828771 0.00242471 0.00185635 0.00431312 0.00255324 0.00943720 0.01353910 0.05245599 0.00364663 0.02211686 0.00243495 0.01754238 0.07428668 0.01581116 0.00393641 
0.01392794 0.01841356 0.00247357 0.00184870 0.00449253 0.00252136 0.00943361 0.01349237 0.05101816 0.00344006 0.02155735 0.00244153 0.01772733 0.07615648 0.01609044 0.00395361 
0.01377625 0.01857353 0.00252678 0.00184186 0.00468938 0.00248852 0.00942796 0.01343978 0.04962564 0.00326179 0.02100541 0.00244723 0.01789953 0.07803870 0.01638014 0.00397426 
0.01364861 0.01876728 0.00258397 0.00183591 0.00490277 0.00245490 0.00942089 0.01338149 0.04828401 0.00311316 0.02046420 0.00245207 0.01805828 0.07992613 0.01667918 0.00399830 
0.01354548 0.01899438 0.00264477 0.00183092 0.00513176 0.00242066 0.00941307 0.01331768 0.04699867 0.00299539 0.01993693 0.00245610 0.01820292 0.08181151 0.01698643 0.00402565 
0.01346719 0.01925430 0.00270876 0.00182696 0.00537530 0.00238597 0.00940519 0.01324856 0.04577491 0.00290960 0.01942676 0.00245934 0.01833285 0.08368745 0.01730067 0.00405617 
0.01341397 0.01954641 0.00277554 0.00182411 0.00563228 0.00235100 0.00939796 0.01317441 0.04461780 0.00285674 0.01893688 0.00246185 0.01844751 0.08554659 0.01762068 0.00408975 
0.01338588 0.01986997 0.00284467 0.00182243 0.00590150 0.00231594 0.00939209 0.01309552 0.04353223 0.00283765 0.01847039 0.00246366 0.01854644 0.08738154 0.01794517 0.00412622 
0.01338288 0.02022415 0.00291570 0.00182199 0.00618173 0.00228096 0.00938830 0.01301222 0.04252288 0.00285301 0.01803036 0.00246484 0.01862919 0.08918495 0.01827282 0.00416540 
0.01340479 0.02060798 0.00298819 0.00182284 0.00647164 0.00224625 0.00938732 0.01292487 0.04159418 0.00290336 0.01761977 0.00246545 0.01869544 0.09094955 0.01860228 0.00420710 
0.01345130 0.02102040 0.00306168 0.00182503 0.00676988 0.00221199 0.00938986 0.01283388 0.04075028 0.00298908 0.01724151 0.00246554 0.01874488 0.09266818 0.01893221 0.00425109 
0.01352199 0.02146020 0.00313569 0.00182862 0.00707506 0.00217837 0.00939660 0.01273967 0.03999508 0.00311039 0.01689832 0.00246518 0.01877731 0.09433383 0.01926122 0.00429714 
0.01361631 0.02192607 0.00320977 0.00183364 0.00738575 0.00214556 0.00940823 0.01264270 0.03933216 0.00326735 0.01659284 0.00246444 0.01879259 0.09593969 0.01958794 0.00434499 
0.01373359 0.02241656 0.00328346 0.00184012 0.00770048 0.00211374 0.00942541 0.01254344 0.03876479 0.00345985 0.01632753 0.00246339 0.01879065 0.09747916 0.01991100 0.00439439 
0.01387305 0.02293010 0.00335629 0.00184809 0.00801778 0.00208307 0.00944874 0.01244238 0.03829590 0.00368763 0.01610468 0.00246210 0.01877151 0.09894591 0.02022905 0.00444505 
0.01403382 0.02346499 0.00342780 0.00185756 0.00833618 0.00205373 0.00947882 0.01234005 0.03792808 0.00395025 0.01592640 0.00246065 0.01873525 0.10033388 0.02054074 0.00449668 
0.01421492 0.02401940 0.00349755 0.00186854 0.00865417 0.00202587 0.00951618 0.01223698 0.03766354 0.00424711 0.01579458 0.00245911 0.01868204 0.10163740 0.02084478 0.00454897 
0.01441525 0.02459139 0.00356511 0.00188103 0.00897030 0.00199964 0.00956133 0.01213370 0.03750412 0.00457744 0.01571089 0.00245755 0.01861212 0.10285111 0.02113990 0.00460163 
0.01463367 0.02517887 0.00363004 0.00189502 0.00928309 0.00197518 0.00961469 0.01203077 0.03745128 0.00494030 0.01567678 0.00245604 0.01852580 0.10397009 0.02142489 0.00465433 
0.01486893 0.02577966 0.00369193 0.00191048 0.00959110 0.00195262 0.00967666 0.01192873 0.03750605 0.00533460 0.01569346 0.00245465 0.01842346 0.10498985 0.02169858 0.00470676 
0.01511972 0.02639145 0.00375039 0.00192739 0.00989294 0.00193207 0.00974755 0.01182814 0.03766906 0.00575910 0.01576185 0.00245346 0.01830558 0.10590634 0.02195987 0.00475860 
0.01538466 0.02701183 0.00380504 0.00194570 0.01018721 0.00191365 0.00982764 0.01172955 0.03794052 0.00621239 0.01588265 0.00245251 0.01817268 0.10671604 0.02220775 0.00480953 
0.01566234 0.02763829 0.00385553 0.00196536 0.01047261 0.00189745 0.00991710 0.01163349 0.03832022 0.00669292 0.01605625 0.00245189 0.01802537 0.10741590 0.02244124 0.00485924 
0.01595126 0.02826822 0.00390152 0.00198632 0.01074786 0.00188355 0.01001607 0.01154049 0.03880752 0.00719899 0.01628279 0.00245163 0.01786431 0.10800346 0.02265951 0.00490741 
0.01624993 0.02889893 0.00394270 0.00200850 0.01101173 0.00187202 0.01012459 0.01145107 0.03940132 0.00772878 0.01656210 0.00245180 0.01769025 0.10847680 0.02286176 0.00495376 
0.01655681 0.02952767 0.00397879 0.00203182 0.01126309 0.00186291 0.01024263 0.01136571 0.04010011 0.00828032 0.01689375 0.00245244 0.01750396 0.10883456 0.02304732 0.00499798 
0.01687035 0.03015163 0.00400953 0.00205619 0.01150085 0.00185625 0.01037010 0.01128489 0.04090194 0.00885155 0.01727702 0.00245359 0.01730631 0.10907601 0.02321561 0.00503980 
0.01718899 0.03076795 0.00403469 0.00208153 0.01172401 0.00185208 0.01050682 0.01120905 0.04180442 0.00944027 0.01771087 0.00245529 0.01709821 0.10920099 0.02336617 0.00507896 
0.01751118 0.03137373 0.00405407 0.00210772 0.01193164 0.00185041 0.01065253 0.01113860 0.04280475 0.01004420 0.01819403 0.00245756 0.01688060 0.10920998 0.02349862 0.00511521 
0.01783536 0.03196606 0.00406751 0.00213464 0.01212291 0.00185121 0.01080692 0.01107393 0.04389968 0.01066095 0.01872492 0.00246043 0.01665448 0.10910404 0.02361273 0.00514831 
0.01816002 0.03254204 0.00407486 0.00216219 0.01229707 0.00185449 0.01096957 0.01101538 0.04508557 0.01128807 0.01930168 0.00246392 0.01642091 0.10888487 0.02370834 0.00517807 
0.01848366 0.03309877 0.00407602 0.00219024 0.01245345 0.00186019 0.01114002 0.01096325 0.04635838 0.01192303 0.01992220 0.00246802 0.01618096 0.10855478 0.02378546 0.00520429 
0.01880483 0.03363339 0.00407092 0.00221865 0.01259150 0.00186826 0.01131771 0.01091782 0.04771366 0.01256324 0.02058411 0.00247275 0.01593574 0.10811665 0.02384415 0.00522681 
0.01912210 0.03414310 0.00405952 0.00224729 0.01271074 0.00187865 0.01150204 0.01087931 0.04914660 0.01320607 0.02128479 0.00247809 0.01568639 0.10757399 0.02388465 0.00524549 
0.01943413 0.03462515 0.00404181 0.00227602 0.01281081 0.00189128 0.01169233 0.01084790 0.05065202 0.01384886 0.02202140 0.00248404 0.01543408 0.10693086 0.02390727 0.00526023 
0.01973963 0.03507690 0.00401783 0.00230471 0.01289144 0.00190604 0.01188784 0.01082372 0.05222442 0.01448893 0.02279086 0.00249056 0.01517999 0.10619186 0.02391246 0.00527094 
0.02003736 0.03549581 0.00398765 0.00233320 0.01295245 0.00192284 0.01208777 0.01080686 0.05385796 0.01512359 0.02358990 0.00249765 0.01492529 0.10536214 0.02390074 0.00527756 
0.02032617 0.03587946 0.00395134 0.00236135 0.01299379 0.00194155 0.01229129 0.01079735 0.05554649 0.01575014 0.02441506 0.00250525 0.01467120 0.10444735 0.02387278 0.00528008 
0.02060501 0.03622559 0.00390906 0.00238902 0.01301547 0.00196206 0.01249750 0.01079519 0.05728360 0.01636593 0.02526270 0.00251334 0.01441890 0.10345359 0.02382933 0.00527849 
0.02087288 0.03653207 0.00386097 0.00241607 0.01301762 0.00198422 0.01270546 0.01080033 0.05906263 0.01696832 0.02612905 0.00252185 0.01416960 0.10238741 0.02377122 0.00527283 
0.02112890 0.03679701 0.00380726 0.00244235 0.01300046 0.00200789 0.01291421 0.01081264 0.06087668 0.01755473 0.02701019 0.00253075 0.01392448 0.10125575 0.02369941 0.00526317 
0.02137227 0.03701866 0.00374817 0.00246774 0.01296431 0.00203291 0.01312276 0.01083199 0.06271866 0.01812261 0.02790211 0.00253996 0.01368471 0.10006589 0.02361489 0.00524960 
0.02160231 0.03719553 0.00368396 0.00249209 0.01290958 0.00205912 0.01333007 0.01085816 0.06458131 0.01866952 0.02880068 0.00254944 0.01345143 0.09882545 0.02351876 0.00523224 
0.02181841 0.03732634 0.00361492 0.00251527 0.01283676 0.00208634 0.01353512 0.01089091 0.06645722 0.01919308 0.02970173 0.00255909 0.01322577 0.09754229 0.02341219 0.00521126 
0.02202009 0.03741006 0.00354139 0.00253718 0.01274643 0.00211442 0.01373686 0.01092996 0.06833889 0.01969099 0.03060104 0.00256886 0.01300883 0.09622449 0.02329638 0.00518684 
0.02220697 0.03744595 0.00346370 0.00255769 0.01263925 0.00214316 0.01393424 0.01097496 0.07021871 0.02016109 0.03149437 0.00257867 0.01280166 0.09488029 0.02317259 0.00515918 
0.02237877 0.03743349 0.00338224 0.00257670 0.01251594 0.00217239 0.01412621 0.01102556 0.07208905 0.02060132 0.03237748 0.00258843 0.01260529 0.09351806 0.02304213 0.00512853 
0.02253532 0.03737250 0.00329742 0.00259412 0.01237732 0.00220194 0.01431175 0.01108133 0.07394228 0.02100974 0.03324615 0.00259807 0.01242069 0.09214621 0.02290633 0.00509514 
0.02267654 0.03726307 0.00320966 0.00260985 0.01222426 0.00223161 0.01448985 0.01114183 0.07577075 0.02138455 0.03409623 0.00260750 0.01224878 0.09077316 0.02276653 0.00505931 
0.02280249 0.03710560 0.00311941 0.00262382 0.01205768 0.00226123 0.01465950 0.01120660 0.07756689 0.02172411 0.03492362 0.00261662 0.01209044 0.08940728 0.02262411 0.00502133 
0.02291330 0.03690078 0.00302715 0.00263598 0.01187857 0.00229063 0.01481976 0.01127514 0.07932323 0.02202691 0.03572433 0.00262537 0.01194647 0.08805684 0.02248040 0.00498155 
0.02300920 0.03664964 0.00293337 0.00264626 0.01168796 0.00231963 0.01496970 0.01134690 0.08103240 0.02229164 0.03649448 0.00263364 0.01181764 0.08672995 0.02233676 0.00494030 
0.02309053 0.03635352 0.00283857 0.00265463 0.01148693 0.00234806 0.01510845 0.01142135 0.08268719 0.02251712 0.03723033 0.00264135 0.01170463 0.08543451 0.02219452 0.00489794 
0.02315770 0.03601406 0.00274327 0.00266107 0.01127658 0.00237576 0.01523518 0.01149793 0.08428058 0.02270236 0.03792832 0.00264842 0.01160806 0.08417816 0.02205496 0.00485485 
0.02321123 0.03563323 0.00264800 0.00266556 0.01105805 0.00240258 0.01534913 0.01157606 0.08580577 0.02284655 0.03858503 0.00265477 0.01152848 0.08296822 0.02191932 0.00481140 
0.02325171 0.03521330 0.00255331 0.00266810 0.01083252 0.00242837 0.01544958 0.01165516 0.08725623 0.02294906 0.03919729 0.00266031 0.01146637 0.08181166 0.02178882 0.00476799 
0.02327979 0.03475685 0.00245975 0.00266872 0.01060115 0.00245299 0.01553590 0.01173464 0.08862568 0.02300945 0.03976211 0.00266496 0.01142211 0.08071503 0.02166459 0.00472501 
0.02329621 0.03426675 0.00236786 0.00266744 0.01036513 0.00247632 0.01560750 0.01181391 0.08990818 0.02302747 0.04027674 0.00266866 0.01139605 0.07968445 0.02154769 0.00468287 
0.02330176 0.03374616 0.00227821 0.00266431 0.01012566 0.00249823 0.01566390 0.01189239 0.09109811 0.02300305 0.04073871 0.00267133 0.01138840 0.07872554 0.02143912 0.00464194 
0.02329729 0.03319850 0.00219135 0.00265940 0.00988392 0.00251863 0.01570467 0.01196951 0.09219024 0.02293632 0.04114577 0.00267291 0.01139934 0.07784340 0.02133979 0.00460264 
0.02328369 0.03262745 0.00210783 0.00265276 0.00964109 0.00253741 0.01572948 0.01204471 0.09317971 0.02282759 0.04149599 0.00267333 0.01142893 0.07704257 0.02125052 0.00456533 
0.02326190 0.03203693 0.00202820 0.00264450 0.00939834 0.00255451 0.01573806 0.01211744 0.09406210 0.02267737 0.04178770 0.00267255 0.01147718 0.07632699 0.02117202 0.00453041 
0.02323288 0.03143108 0.00195300 0.00263471 0.00915681 0.00256984 0.01573025 0.01218719 0.09483340 0.02248633 0.04201953 0.00267051 0.01154398 0.07570003 0.02110492 0.00449822 
0.02319761 0.03081423 0.00188275 0.00262351 0.00891760 0.00258337 0.01570596 0.01225346 0.09549008 0.02225535 0.04219043 0.00266718 0.01162916 0.07516437 0.02104974 0.00446913 
0.02315711 0.03019089 0.00181796 0.00261103 0.00868180 0.00259504 0.01566520 0.01231579 0.09602908 0.02198545 0.04229966 0.00266252 0.01173247 0.07472210 0.02100688 0.00444346 
0.02311238 0.02956573 0.00175913 0.00259740 0.00845046 0.00260484 0.01560804 0.01237374 0.09644783 0.02167786 0.04234678 0.00265650 0.01185355 0.07437461 0.02097663 0.00442152 
0.02306443 0.02894352 0.00170674 0.00258278 0.00822456 0.00261275 0.01553468 0.01242692 0.09674425 0.02133395 0.04233169 0.00264911 0.01199199 0.07412265 0.02095918 0.00440360 
0.02301427 0.02832914 0.00166124 0.00256732 0.00800507 0.00261878 0.01544536 0.01247497 0.09691681 0.02095524 0.04225459 0.00264033 0.01214727 0.07396628 0.02095459 0.00438997 
0.02296287 0.02772753 0.00162306 0.00255120 0.00779286 0.00262294 0.01534045 0.01251759 0.09696447 0.02054341 0.04211601 0.00263016 0.01231882 0.07390492 0.02096283 0.00438086 
0.02291119 0.02714368 0.00159260 0.00253460 0.00758880 0.00262527 0.01522035 0.01255449 0.09688673 0.02010029 0.04191680 0.00261861 0.01250596 0.07393732 0.02098372 0.00437648 
0.02286016 0.02658258 0.00157024 0.00251769 0.00739365 0.00262580 0.01508559 0.01258547 0.09668361 0.01962781 0.04165811 0.00260569 0.01270797 0.07406158 0.02101701 0.00437701 
0.02281066 0.02604918 0.00155632 0.00250068 0.00720813 0.00262460 0.01493674 0.01261035 0.09635569 0.01912805 0.04134140 0.00259141 0.01292403 0.07427519 0.02106231 0.00438259 
0.02276354 0.02554838 0.00155115 0.00248376 0.00703290 0.00262173 0.01477447 0.01262902 0.09590404 0.01860318 0.04096843 0.00257582 0.01315327 0.07457501 0.02111915 0.00439334 
0.02271958 0.02508500 0.00155500 0.00246712 0.00686853 0.00261728 0.01459949 0.01264140 0.09533029 0.01805549 0.04054125 0.00255894 0.01339475 0.07495734 0.02118696 0.00440934 
0.02267950 0.02466373 0.00156809 0.00245098 0.00671553 0.00261133 0.01441259 0.01264750 0.09463656 0.01748733 0.04006218 0.00254083 0.01364745 0.07541792 0.02126505 0.00443062 
0.02264396 0.02428909 0.00159063 0.00243554 0.00657434 0.00260400 0.01421463 0.01264734 0.09382550 0.01690115 0.03953381 0.00252153 0.01391033 0.07595195 0.02135268 0.00445721 
0.02261357 0.02396544 0.00162277 0.00242100 0.00644533 0.00259540 0.01400649 0.01264104 0.09290023 0.01629945 0.03895898 0.00250112 0.01418226 0.07655418 0.02144899 0.00448908 
0.02258883 0.02369690 0.00166462 0.00240757 0.00632877 0.00258564 0.01378914 0.01262874 0.09186435 0.01568478 0.03834077 0.00247965 0.01446208 0.07721891 0.02155309 0.00452616 
0.02257020 0.02348735 0.00171623 0.00239544 0.00622490 0.00257486 0.01356356 0.01261064 0.09072195 0.01505975 0.03768246 0.00245721 0.01474859 0.07794001 0.02166398 0.00456836 
0.02255801 0.02334040 0.00177764 0.00238481 0.00613384 0.00256319 0.01333078 0.01258702 0.08947751 0.01442696 0.03698756 0.00243388 0.01504053 0.07871103 0.02178064 0.00461555 
0.02255257 0.02325933 0.00184880 0.00237588 0.00605567 0.00255077 0.01309186 0.01255818 0.08813598 0.01378906 0.03625974 0.00240975 0.01533664 0.07952521 0.02190199 0.00466756 
0.02255404 0.02324712 0.00192966 0.00236882 0.00599038 0.00253775 0.01284787 0.01252448 0.08670265 0.01314868 0.03550285 0.00238492 0.01563561 0.08037550 0.02202689 0.00472421 
0.02256255 0.02330637 0.00202008 0.00236382 0.00593788 0.00252428 0.01259992 0.01248634 0.08518321 0.01250846 0.03472088 0.00235949 0.01593610 0.08125467 0.02215421 0.00478526 
0.02257810 0.02343932 0.00211990 0.00236103 0.00589803 0.00251051 0.01234912 0.01244422 0.08358368 0.01187098 0.03391793 0.00233358 0.01623678 0.08215534 0.02228276 0.00485047 
0.02260063 0.02364778 0.00222890 0.00236062 0.00587062 0.00249659 0.01209656 0.01239862 0.08191038 0.01123883 0.03309822 0.00230728 0.01653630 0.08307001 0.02241136 0.00491955 
0.02262998 0.02393318 0.00234681 0.00236273 0.00585536 0.00248268 0.01184337 0.01235007 0.08016990 0.01061452 0.03226604 0.00228072 0.01683329 0.08399114 0.02253883 0.00499219 
0.02266591 0.02429649 0.00247332 0.00236750 0.00585191 0.00246892 0.01159063 0.01229917 0.07836907 0.01000053 0.03142573 0.00225403 0.01712641 0.08491119 0.02266400 0.00506808 
0.02270811 0.02473824 0.00260808 0.00237503 0.00585987 0.00245547 0.01133944 0.01224652 0.07651494 0.00939925 0.03058168 0.00222732 0.01741431 0.08582268 0.02278571 0.00514685 
