0.01660661 0.04197949 0.00653978 0.00150129 0.00055965 0.00137351 0.01004548 0.00417218 0.01009575 0.00129701 0.00217012 0.02001108 0.00721777 0.00179498 0.00350777 0.00136049 
0.01601174 0.04129590 0.00646921 0.00149204 0.00055619 0.00136574 0.00979743 0.00401745 0.00982549 0.00130920 0.00217824 0.02039814 0.00728826 0.00179167 0.00354321 0.00136242 
0.01547584 0.04062665 0.00640422 0.00148401 0.00055296 0.00135814 0.00955966 0.00386310 0.00958593 0.00132366 0.00218569 0.02079319 0.00736316 0.00178994 0.00357949 0.00136423 
0.01500203 0.03997473 0.00634460 0.00147724 0.00054995 0.00135085 0.00933377 0.00371023 0.00937805 0.00134039 0.00219250 0.02119423 0.00744226 0.00178978 0.00361661 0.00136592 
0.01459325 0.03934304 0.00629008 0.00147176 0.00054718 0.00134401 0.00912135 0.00355997 0.00920270 0.00135936 0.00219870 0.02159922 0.00752528 0.00179118 0.00365455 0.00136748 
0.01425214 0.03873446 0.00624040 0.00146763 0.00054464 0.00133778 0.00892393 0.00341347 0.00906059 0.00138057 0.00220434 0.02200608 0.00761193 0.00179412 0.00369333 0.00136892 
0.01398114 0.03815180 0.00619524 0.00146488 0.00054235 0.00133229 0.00874302 0.00327188 0.00895226 0.00140398 0.00220946 0.02241270 0.00770185 0.00179857 0.00373295 0.00137023 
0.01378238 0.03759777 0.00615428 0.00146353 0.00054030 0.00132771 0.00858010 0.00313635 0.00887810 0.00142956 0.00221409 0.02281697 0.00779468 0.00180452 0.00377345 0.00137142 
0.01365776 0.03707497 0.00611717 0.00146362 0.00053851 0.00132420 0.00843657 0.00300805 0.00883838 0.00145727 0.00221830 0.02321678 0.00788998 0.00181190 0.00381483 0.00137249 
0.01360886 0.03658590 0.00608355 0.00146518 0.00053696 0.00132190 0.00831378 0.00288812 0.00883317 0.00148707 0.00222213 0.02361003 0.00798733 0.00182068 0.00385715 0.00137343 
0.01363702 0.03613290 0.00605305 0.00146822 0.00053567 0.00132099 0.00821302 0.00277769 0.00886241 0.00151890 0.00222563 0.02399467 0.00808625 0.00183080 0.00390042 0.00137424 
0.01374324 0.03571816 0.00602529 0.00147276 0.00053463 0.00132161 0.00813547 0.00267789 0.00892588 0.00155270 0.00222886 0.02436867 0.00818624 0.00184220 0.00394470 0.00137494 
0.01392825 0.03534372 0.00599989 0.00147882 0.00053385 0.00132392 0.00808226 0.00258979 0.00902321 0.00158841 0.00223185 0.02473007 0.00828676 0.00185480 0.00399005 0.00137551 
0.01419247 0.03501142 0.00597647 0.00148641 0.00053332 0.00132808 0.00805441 0.00251445 0.00915387 0.00162595 0.00223466 0.02507697 0.00838728 0.00186854 0.00403651 0.00137596 
0.01453602 0.03472292 0.00595464 0.00149553 0.00053304 0.00133424 0.00805283 0.00245286 0.00931718 0.00166524 0.00223735 0.02540757 0.00848724 0.00188333 0.00408414 0.00137629 
0.01495871 0.03447965 0.00593403 0.00150618 0.00053300 0.00134254 0.00807835 0.00240600 0.00951232 0.00170619 0.00223994 0.02572013 0.00858605 0.00189908 0.00413302 0.00137651 
0.01546003 0.03428287 0.00591427 0.00151834 0.00053321 0.00135312 0.00813165 0.00237475 0.00973832 0.00174872 0.00224250 0.02601303 0.00868313 0.00191570 0.00418322 0.00137660 
0.01603919 0.03413357 0.00589502 0.00153201 0.00053365 0.00136613 0.00821332 0.00235999 0.00999409 0.00179272 0.00224505 0.02628476 0.00877788 0.00193311 0.00423481 0.00137659 
0.01669506 0.03403254 0.00587594 0.00154718 0.00053432 0.00138168 0.00832382 0.00236247 0.01027839 0.00183810 0.00224763 0.02653394 0.00886971 0.00195119 0.00428785 0.00137646 
0.01742621 0.03398032 0.00585671 0.00156380 0.00053522 0.00139991 0.00846349 0.00238291 0.01058985 0.00188475 0.00225028 0.02675930 0.00895801 0.00196986 0.00434245 0.00137623 
0.01823094 0.03397722 0.00583705 0.00158186 0.00053633 0.00142090 0.00863253 0.00242194 0.01092699 0.00193255 0.00225302 0.02695973 0.00904220 0.00198901 0.00439865 0.00137589 
0.01910720 0.03402328 0.00581669 0.00160131 0.00053764 0.00144478 0.00883100 0.00248011 0.01128822 0.00198139 0.00225588 0.02713424 0.00912168 0.00200853 0.00445656 0.00137544 
0.02005268 0.03411833 0.00579537 0.00162212 0.00053915 0.00147162 0.00905884 0.00255789 0.01167184 0.00203116 0.00225888 0.02728200 0.00919589 0.00202833 0.00451624 0.00137489 
0.02106477 0.03426192 0.00577290 0.00164423 0.00054084 0.00150151 0.00931585 0.00265566 0.01207605 0.00208172 0.00226203 0.02740235 0.00926426 0.00204829 0.00457776 0.00137425 
0.02214058 0.03445338 0.00574909 0.00166758 0.00054271 0.00153451 0.00960168 0.00277369 0.01249896 0.00213295 0.00226533 0.02749478 0.00932626 0.00206831 0.00464119 0.00137351 
0.02327696 0.03469178 0.00572380 0.00169212 0.00054473 0.00157067 0.00991587 0.00291218 0.01293862 0.00218473 0.00226880 0.02755892 0.00938137 0.00208830 0.00470660 0.00137267 
0.02447046 0.03497597 0.00569690 0.00171778 0.00054690 0.00161004 0.01025778 0.00307122 0.01339298 0.00223693 0.00227242 0.02759459 0.00942912 0.00210814 0.00477405 0.00137175 
0.02571742 0.03530457 0.00566832 0.00174449 0.00054919 0.00165264 0.01062668 0.00325081 0.01385996 0.00228941 0.00227619 0.02760177 0.00946904 0.00212775 0.00484358 0.00137074 
0.02701391 0.03567595 0.00563801 0.00177217 0.00055161 0.00169848 0.01102167 0.00345082 0.01433740 0.00234205 0.00228009 0.02758061 0.00950071 0.00214703 0.00491523 0.00136965 
0.02835577 0.03608829 0.00560597 0.00180073 0.00055413 0.00174756 0.01144174 0.00367106 0.01482312 0.00239471 0.00228412 0.02753140 0.00952376 0.00216589 0.00498904 0.00136848 
0.02973865 0.03653955 0.00557222 0.00183010 0.00055673 0.00179985 0.01188575 0.00391120 0.01531491 0.00244726 0.00228823 0.02745461 0.00953784 0.00218424 0.00506502 0.00136724 
0.03115796 0.03702752 0.00553682 0.00186017 0.00055940 0.00185532 0.01235244 0.00417085 0.01581053 0.00249957 0.00229241 0.02735088 0.00954266 0.00220201 0.00514319 0.00136592 
0.03260897 0.03754979 0.00549988 0.00189087 0.00056213 0.00191392 0.01284043 0.00444949 0.01630775 0.00255152 0.00229661 0.02722097 0.00953797 0.00221912 0.00522354 0.00136454 
0.03408673 0.03810378 0.00546152 0.00192208 0.00056490 0.00197558 0.01334821 0.00474651 0.01680433 0.00260297 0.00230081 0.02706583 0.00952357 0.00223551 0.00530604 0.00136309 
0.03558619 0.03868678 0.00542191 0.00195372 0.00056769 0.00204022 0.01387420 0.00506121 0.01729805 0.00265380 0.00230496 0.02688651 0.00949931 0.00225112 0.00539068 0.00136158 
0.03710213 0.03929592 0.00538125 0.00198568 0.00057048 0.00210774 0.01441670 0.00539280 0.01778671 0.00270389 0.00230901 0.02668423 0.00946511 0.00226589 0.00547739 0.00136001 
0.03862924 0.03992823 0.00533976 0.00201785 0.00057327 0.00217802 0.01497392 0.00574039 0.01826816 0.00275312 0.00231292 0.02646034 0.00942093 0.00227977 0.00556611 0.00135840 
0.04016211 0.04058061 0.00529770 0.00205015 0.00057603 0.00225093 0.01554399 0.00610301 0.01874027 0.00280138 0.00231664 0.02621627 0.00936679 0.00229274 0.00565676 0.00135673 
0.04169526 0.04124992 0.00525536 0.00208246 0.00057875 0.00232632 0.01612496 0.00647963 0.01920098 0.00284855 0.00232010 0.02595362 0.00930278 0.00230476 0.00574924 0.00135502 
0.04322317 0.04193292 0.00521303 0.00211468 0.00058142 0.00240404 0.01671484 0.00686911 0.01964832 0.00289454 0.00232326 0.02567405 0.00922904 0.00231582 0.00584343 0.00135328 
0.04474029 0.04262633 0.00517105 0.00214672 0.00058403 0.00248390 0.01731155 0.00727029 0.02008036 0.00293924 0.00232606 0.02537932 0.00914577 0.00232590 0.00593919 0.00135149 
0.04624108 0.04332684 0.00512976 0.00217848 0.00058656 0.00256571 0.01791299 0.00768189 0.02049527 0.00298256 0.00232844 0.02507128 0.00905324 0.00233500 0.00603638 0.00134968 
0.04772001 0.04403114 0.00508953 0.00220986 0.00058899 0.00264927 0.01851700 0.00810263 0.02089132 0.00302440 0.00233034 0.02475185 0.00895178 0.00234312 0.00613483 0.00134784 
0.04917161 0.04473593 0.00505073 0.00224077 0.00059133 0.00273436 0.01912142 0.00853115 0.02126688 0.00306470 0.00233172 0.02442299 0.00884177 0.00235029 0.00623434 0.00134599 
0.05059049 0.04543793 0.00501375 0.00227112 0.00059356 0.00282075 0.01972405 0.00896604 0.02162043 0.00310336 0.00233251 0.02408674 0.00872365 0.00235652 0.00633470 0.00134411 
0.05197135 0.04613392 0.00497898 0.00230084 0.00059566 0.00290821 0.02032271 0.00940589 0.02195056 0.00314032 0.00233266 0.02374513 0.00859794 0.00236185 0.00643571 0.00134223 
0.05330904 0.04682073 0.00494682 0.00232985 0.00059765 0.00299647 0.02091521 0.00984925 0.02225600 0.00317552 0.00233213 0.02340026 0.00846520 0.00236633 0.00653712 0.00134033 
0.05459854 0.04749529 0.00491768 0.00235807 0.00059950 0.00308529 0.02149937 0.01029464 0.02253559 0.00320891 0.00233085 0.02305420 0.00832605 0.00237000 0.00663868 0.00133844 
0.05583503 0.04815462 0.00489194 0.00238544 0.00060122 0.00317438 0.02207306 0.01074057 0.02278834 0.00324042 0.00232879 0.02270904 0.00818115 0.00237291 0.00674012 0.00133655 
0.05701388 0.04879587 0.00487001 0.00241191 0.00060280 0.00326348 0.02263417 0.01118558 0.02301337 0.00327003 0.00232591 0.02236685 0.00803123 0.00237514 0.00684116 0.00133466 
0.05813070 0.04941630 0.00485226 0.00243743 0.00060425 0.00335231 0.02318063 0.01162819 0.02320995 0.00329769 0.00232217 0.02202967 0.00787707 0.00237676 0.00694152 0.00133279 
0.05918137 0.05001335 0.00483908 0.00246196 0.00060555 0.00344057 0.02371046 0.01206693 0.02337751 0.00332338 0.00231754 0.02169951 0.00771948 0.00237783 0.00704090 0.00133093 
0.06016204 0.05058459 0.00483082 0.00248546 0.00060672 0.00352798 0.02422171 0.01250038 0.02351563 0.00334708 0.00231198 0.02137832 0.00755931 0.00237846 0.00713898 0.00132909 
0.06106917 0.05112779 0.00482783 0.00250791 0.00060776 0.00361424 0.02471254 0.01292713 0.02362401 0.00336877 0.00230549 0.02106800 0.00739746 0.00237873 0.00723545 0.00132728 
0.06189954 0.05164089 0.00483043 0.00252930 0.00060867 0.00369906 0.02518116 0.01334581 0.02370254 0.00338845 0.00229804 0.02077037 0.00723486 0.00237873 0.00732998 0.00132550 
0.06265029 0.05212202 0.00483893 0.00254962 0.00060946 0.00378214 0.02562591 0.01375511 0.02375125 0.00340612 0.00228963 0.02048718 0.00707247 0.00237856 0.00742227 0.00132375 
0.06331894 0.05256954 0.00485362 0.00256887 0.00061014 0.00386320 0.02604521 0.01415376 0.02377032 0.00342177 0.00228025 0.02022007 0.00691128 0.00237833 0.00751197 0.00132204 
0.06390339 0.05298198 0.00487474 0.00258707 0.00061072 0.00394195 0.02643760 0.01454056 0.02376006 0.00343543 0.00226991 0.01997061 0.00675228 0.00237814 0.00759878 0.00132037 
0.06440196 0.05335811 0.00490252 0.00260423 0.00061120 0.00401809 0.02680173 0.01491438 0.02372096 0.00344712 0.00225862 0.01974024 0.00659649 0.00237810 0.00768235 0.00131874 
0.06481339 0.05369694 0.00493717 0.00262039 0.00061160 0.00409136 0.02713639 0.01527416 0.02365364 0.00345685 0.00224639 0.01953030 0.00644495 0.00237831 0.00776238 0.00131716 
0.06513685 0.05399765 0.00497886 0.00263559 0.00061193 0.00416147 0.02744047 0.01561891 0.02355883 0.00346465 0.00223325 0.01934199 0.00629869 0.00237888 0.00783856 0.00131563 
0.06537198 0.05425970 0.00502772 0.00264988 0.00061221 0.00422816 0.02771302 0.01594773 0.02343744 0.00347056 0.00221923 0.01917641 0.00615874 0.00237993 0.00791059 0.00131415 
0.06551887 0.05448274 0.00508385 0.00266330 0.00061245 0.00429119 0.02795322 0.01625983 0.02329048 0.00347461 0.00220436 0.01903451 0.00602613 0.00238155 0.00797818 0.00131273 
0.06557808 0.05466665 0.00514734 0.00267592 0.00061267 0.00435030 0.02816040 0.01655448 0.02311908 0.00347686 0.00218870 0.01891711 0.00590188 0.00238386 0.00804104 0.00131136 
0.06555066 0.05481153 0.00521821 0.00268781 0.00061288 0.00440527 0.02833401 0.01683106 0.02292449 0.00347734 0.00217229 0.01882489 0.00578699 0.00238695 0.00809892 0.00131005 
0.06543812 0.05491769 0.00529647 0.00269905 0.00061311 0.00445588 0.02847369 0.01708906 0.02270807 0.00347610 0.00215518 0.01875841 0.00568244 0.00239093 0.00815158 0.00130881 
0.06524246 0.05498566 0.00538209 0.00270971 0.00061336 0.00450192 0.02857918 0.01732806 0.02247127 0.00347320 0.00213745 0.01871804 0.00558918 0.00239589 0.00819878 0.00130762 
0.06496616 0.05501614 0.00547502 0.00271989 0.00061367 0.00454320 0.02865040 0.01754774 0.02221563 0.00346870 0.00211915 0.01870407 0.00550812 0.00240192 0.00824034 0.00130650 
0.06461216 0.05501007 0.00557514 0.00272967 0.00061404 0.00457957 0.02868742 0.01774789 0.02194278 0.00346265 0.00210036 0.01871660 0.00544016 0.00240909 0.00827605 0.00130545 
0.06418387 0.05496852 0.00568233 0.00273915 0.00061449 0.00461086 0.02869044 0.01792840 0.02165440 0.00345512 0.00208115 0.01875561 0.00538613 0.00241750 0.00830577 0.00130445 
0.06368515 0.05489276 0.00579642 0.00274843 0.00061505 0.00463694 0.02865982 0.01808926 0.02135224 0.00344616 0.00206162 0.01882095 0.00534681 0.00242721 0.00832937 0.00130352 
0.06312031 0.05478421 0.00591723 0.00275760 0.00061572 0.00465770 0.02859605 0.01823058 0.02103811 0.00343584 0.00204183 0.01891231 0.00532295 0.00243827 0.00834674 0.00130265 
0.06249408 0.05464443 0.00604452 0.00276676 0.00061654 0.00467304 0.02849977 0.01835256 0.02071383 0.00342423 0.00202189 0.01902928 0.00531522 0.00245075 0.00835780 0.00130185 
0.06181159 0.05447513 0.00617805 0.00277601 0.00061751 0.00468289 0.02837176 0.01845548 0.02038128 0.00341140 0.00200187 0.01917129 0.00532424 0.00246469 0.00836251 0.00130110 
0.06107836 0.05427811 0.00631753 0.00278546 0.00061865 0.00468720 0.02821292 0.01853975 0.02004232 0.00339740 0.00198188 0.01933768 0.00535056 0.00248012 0.00836085 0.00130041 
0.06030026 0.05405528 0.00646265 0.00279518 0.00061998 0.00468594 0.02802427 0.01860583 0.01969886 0.00338232 0.00196201 0.01952765 0.00539467 0.00249707 0.00835284 0.00129979 
0.05948351 0.05380865 0.00661310 0.00280529 0.00062151 0.00467911 0.02780697 0.01865431 0.01935275 0.00336621 0.00194234 0.01974031 0.00545697 0.00251556 0.00833851 0.00129921 
0.05863462 0.05354027 0.00676851 0.00281586 0.00062326 0.00466672 0.02756227 0.01868583 0.01900587 0.00334914 0.00192298 0.01997466 0.00553781 0.00253559 0.00831794 0.00129869 
0.05776037 0.05325227 0.00692852 0.00282699 0.00062523 0.00464881 0.02729153 0.01870113 0.01866004 0.00333119 0.00190403 0.02022959 0.00563742 0.00255715 0.00829125 0.00129822 
0.05686779 0.05294681 0.00709273 0.00283874 0.00062744 0.00462546 0.02699621 0.01870100 0.01831707 0.00331242 0.00188556 0.02050392 0.00575600 0.00258024 0.00825857 0.00129780 
0.05596408 0.05262605 0.00726073 0.00285120 0.00062990 0.00459674 0.02667786 0.01868631 0.01797869 0.00329290 0.00186768 0.02079639 0.00589362 0.00260481 0.00822007 0.00129742 
0.05505665 0.05229218 0.00743212 0.00286443 0.00063261 0.00456276 0.02633810 0.01865799 0.01764660 0.00327270 0.00185047 0.02110567 0.00605030 0.00263084 0.00817595 0.00129709 
0.05415300 0.05194737 0.00760645 0.00287848 0.00063558 0.00452366 0.02597862 0.01861701 0.01732241 0.00325188 0.00183402 0.02143034 0.00622595 0.00265828 0.00812643 0.00129679 
0.05326072 0.05159375 0.00778329 0.00289341 0.00063881 0.00447960 0.02560118 0.01856440 0.01700766 0.00323051 0.00181841 0.02176896 0.00642042 0.00268706 0.00807179 0.00129652 
0.05238743 0.05123341 0.00796218 0.00290925 0.00064231 0.00443074 0.02520757 0.01850123 0.01670380 0.00320866 0.00180372 0.02212003 0.00663345 0.00271711 0.00801229 0.00129629 
0.05154078 0.05086841 0.00814268 0.00292603 0.00064608 0.00437731 0.02479964 0.01842858 0.01641221 0.00318639 0.00179002 0.02248202 0.00686470 0.00274836 0.00794826 0.00129609 
0.05072834 0.05050069 0.00832433 0.00294378 0.00065011 0.00431950 0.02437926 0.01834758 0.01613413 0.00316377 0.00177738 0.02285336 0.00711376 0.00278070 0.00788004 0.00129590 
0.04995760 0.05013216 0.00850666 0.00296250 0.00065441 0.00425756 0.02394830 0.01825934 0.01587072 0.00314087 0.00176586 0.02323246 0.00738011 0.00281405 0.00780797 0.00129574 
0.04923590 0.04976458 0.00868923 0.00298220 0.00065897 0.00419176 0.02350866 0.01816502 0.01562303 0.00311774 0.00175553 0.02361773 0.00766317 0.00284828 0.00773245 0.00129559 
0.04857043 0.04939965 0.00887157 0.00300285 0.00066378 0.00412237 0.02306222 0.01806576 0.01539196 0.00309445 0.00174642 0.02400757 0.00796227 0.00288327 0.00765386 0.00129546 
0.04796812 0.04903892 0.00905325 0.00302444 0.00066884 0.00404968 0.02261087 0.01796268 0.01517832 0.00307107 0.00173858 0.02440038 0.00827667 0.00291890 0.00757264 0.00129533 
0.04743566 0.04868383 0.00923382 0.00304693 0.00067412 0.00397400 0.02215644 0.01785691 0.01498278 0.00304767 0.00173206 0.02479459 0.00860553 0.00295503 0.00748921 0.00129521 
0.04697939 0.04833568 0.00941283 0.00307028 0.00067963 0.00389566 0.02170075 0.01774954 0.01480588 0.00302430 0.00172686 0.02518862 0.00894798 0.00299152 0.00740401 0.00129509 
0.04660533 0.04799562 0.00958988 0.00309442 0.00068535 0.00381499 0.02124557 0.01764164 0.01464804 0.00300103 0.00172303 0.02558094 0.00930305 0.00302821 0.00731750 0.00129497 
0.04631909 0.04766467 0.00976455 0.00311930 0.00069127 0.00373235 0.02079262 0.01753423 0.01450953 0.00297792 0.00172057 0.02597004 0.00966972 0.00306494 0.00723014 0.00129484 
0.04612587 0.04734368 0.00993643 0.00314484 0.00069736 0.00364808 0.02034353 0.01742832 0.01439051 0.00295504 0.00171948 0.02635444 0.01004690 0.00310156 0.00714240 0.00129471 
0.04603036 0.04703337 0.01010515 0.00317094 0.00070361 0.00356256 0.01989990 0.01732483 0.01429100 0.00293246 0.00171976 0.02673274 0.01043347 0.00313790 0.00705474 0.00129457 
0.04603678 0.04673427 0.01027032 0.00319752 0.00071000 0.00347616 0.01946322 0.01722466 0.01421088 0.00291023 0.00172141 0.02710354 0.01082823 0.00317379 0.00696765 0.00129441 
0.04614881 0.04644679 0.01043160 0.00322447 0.00071651 0.00338925 0.01903490 0.01712863 0.01414994 0.00288842 0.00172440 0.02746553 0.01122997 0.00320905 0.00688157 0.00129425 
0.04636957 0.04617115 0.01058865 0.00325167 0.00072312 0.00330222 0.01861626 0.01703750 0.01410781 0.00286709 0.00172871 0.02781743 0.01163742 0.00324352 0.00679698 0.00129406 
0.04670158 0.04590743 0.01074115 0.00327901 0.00072981 0.00321545 0.01820850 0.01695196 0.01408403 0.00284632 0.00173430 0.02815805 0.01204928 0.00327701 0.00671433 0.00129386 
0.04714677 0.04565557 0.01088879 0.00330635 0.00073655 0.00312931 0.01781274 0.01687264 0.01407802 0.00282616 0.00174114 0.02848623 0.01246425 0.00330936 0.00663405 0.00129364 
0.04770642 0.04541533 0.01103129 0.00333358 0.00074332 0.00304418 0.01742998 0.01680007 0.01408909 0.00280668 0.00174917 0.02880089 0.01288097 0.00334038 0.00655658 0.00129341 
0.04838120 0.04518635 0.01116840 0.00336054 0.00075010 0.00296043 0.01706109 0.01673473 0.01411646 0.00278794 0.00175834 0.02910104 0.01329811 0.00336992 0.00648233 0.00129315 
0.04917108 0.04496813 0.01129985 0.00338711 0.00075686 0.00287843 0.01670685 0.01667699 0.01415926 0.00277001 0.00176859 0.02938572 0.01371432 0.00339780 0.00641169 0.00129288 
0.05007541 0.04476002 0.01142543 0.00341313 0.00076358 0.00279854 0.01636788 0.01662715 0.01421653 0.00275295 0.00177986 0.02965407 0.01412823 0.00342386 0.00634503 0.00129258 
0.05109285 0.04456126 0.01154492 0.00343847 0.00077023 0.00272111 0.01604472 0.01658543 0.01428726 0.00273681 0.00179206 0.02990530 0.01453852 0.00344795 0.00628271 0.00129227 
0.05222141 0.04437098 0.01165815 0.00346297 0.00077679 0.00264646 0.01573775 0.01655195 0.01437035 0.00272167 0.00180513 0.03013867 0.01494386 0.00346990 0.00622506 0.00129195 
0.05345842 0.04418819 0.01176494 0.00348650 0.00078324 0.00257492 0.01544726 0.01652676 0.01446466 0.00270759 0.00181897 0.03035354 0.01534294 0.00348959 0.00617237 0.00129161 
0.05480057 0.04401179 0.01186513 0.00350890 0.00078955 0.00250680 0.01517338 0.01650983 0.01456902 0.00269461 0.00183351 0.03054932 0.01573449 0.00350687 0.00612492 0.00129126 
0.05624391 0.04384063 0.01195860 0.00353003 0.00079570 0.00244238 0.01491617 0.01650102 0.01468220 0.00268280 0.00184866 0.03072550 0.01611727 0.00352161 0.00608294 0.00129089 
0.05778386 0.04367344 0.01204523 0.00354976 0.00080167 0.00238194 0.01467552 0.01650014 0.01480298 0.00267222 0.00186431 0.03088165 0.01649009 0.00353370 0.00604665 0.00129052 
0.05941525 0.04350890 0.01212492 0.00356795 0.00080744 0.00232572 0.01445124 0.01650691 0.01493012 0.00266290 0.00188039 0.03101740 0.01685181 0.00354304 0.00601622 0.00129015 
0.06113232 0.04334564 0.01219759 0.00358447 0.00081299 0.00227396 0.01424302 0.01652096 0.01506238 0.00265492 0.00189678 0.03113245 0.01720132 0.00354953 0.00599181 0.00128977 
0.06292874 0.04318224 0.01226317 0.00359920 0.00081830 0.00222686 0.01405045 0.01654186 0.01519853 0.00264830 0.00191340 0.03122656 0.01753761 0.00355308 0.00597352 0.00128939 
0.06479770 0.04301723 0.01232159 0.00361201 0.00082335 0.00218461 0.01387300 0.01656912 0.01533738 0.00264310 0.00193015 0.03129957 0.01785969 0.00355363 0.00596142 0.00128902 
0.06673187 0.04284914 0.01237284 0.00362281 0.00082812 0.00214736 0.01371008 0.01660217 0.01547777 0.00263935 0.00194693 0.03135137 0.01816668 0.00355113 0.00595556 0.00128866 
0.06872348 0.04267647 0.01241686 0.00363148 0.00083261 0.00211525 0.01356098 0.01664039 0.01561859 0.00263710 0.00196365 0.03138193 0.01845774 0.00354552 0.00595594 0.00128831 
0.07076435 0.04249773 0.01245366 0.00363794 0.00083680 0.00208839 0.01342494 0.01668309 0.01575879 0.00263636 0.00198021 0.03139125 0.01873215 0.00353679 0.00596254 0.00128798 
0.07284594 0.04231142 0.01248322 0.00364211 0.00084068 0.00206685 0.01330111 0.01672957 0.01589739 0.00263718 0.00199652 0.03137943 0.01898923 0.00352491 0.00597527 0.00128767 
0.07495939 0.04211610 0.01250554 0.00364390 0.00084423 0.00205071 0.01318859 0.01677904 0.01603348 0.00263956 0.00201249 0.03134659 0.01922841 0.00350990 0.00599405 0.00128739 
0.07709556 0.04191033 0.01252065 0.00364326 0.00084746 0.00203997 0.01308641 0.01683072 0.01616626 0.00264353 0.00202803 0.03129291 0.01944921 0.00349177 0.00601873 0.00128713 
0.07924508 0.04169271 0.01252856 0.00364014 0.00085036 0.00203465 0.01299358 0.01688375 0.01629501 0.00264910 0.00204308 0.03121866 0.01965123 0.00347056 0.00604916 0.00128691 
0.08139843 0.04146191 0.01252930 0.00363449 0.00085292 0.00203472 0.01290904 0.01693729 0.01641912 0.00265628 0.00205754 0.03112411 0.01983416 0.00344631 0.00608512 0.00128673 
0.08354595 0.04121664 0.01252290 0.00362629 0.00085514 0.00204012 0.01283174 0.01699047 0.01653811 0.00266506 0.00207134 0.03100961 0.01999779 0.00341908 0.00612638 0.00128660 
0.08567790 0.04095571 0.01250941 0.00361553 0.00085702 0.00205078 0.01276059 0.01704240 0.01665158 0.00267545 0.00208443 0.03087555 0.02014201 0.00338897 0.00617268 0.00128651 
0.08778456 0.04067798 0.01248886 0.00360218 0.00085857 0.00206659 0.01269450 0.01709222 0.01675930 0.00268742 0.00209673 0.03072236 0.02026680 0.00335606 0.00622374 0.00128648 
0.08985622 0.04038241 0.01246131 0.00358626 0.00085978 0.00208742 0.01263238 0.01713903 0.01686114 0.00270096 0.00210820 0.03055053 0.02037222 0.00332047 0.00627922 0.00128650 
0.09188327 0.04006805 0.01242682 0.00356779 0.00086067 0.00211312 0.01257316 0.01718198 0.01695713 0.00271605 0.00211879 0.03036058 0.02045844 0.00328232 0.00633880 0.00128659 
0.09385624 0.03973407 0.01238543 0.00354679 0.00086124 0.00214351 0.01251579 0.01722023 0.01704739 0.00273265 0.00212846 0.03015308 0.02052570 0.00324175 0.00640210 0.00128673 
0.09576585 0.03937973 0.01233720 0.00352330 0.00086150 0.00217840 0.01245924 0.01725297 0.01713224 0.00275074 0.00213717 0.02992862 0.02057436 0.00319891 0.00646874 0.00128695 
0.09760307 0.03900442 0.01228221 0.00349738 0.00086147 0.00221756 0.01240252 0.01727940 0.01721207 0.00277026 0.00214490 0.02968787 0.02060483 0.00315398 0.00653832 0.00128724 
0.09935918 0.03860764 0.01222050 0.00346907 0.00086115 0.00226076 0.01234471 0.01729880 0.01728746 0.00279117 0.00215163 0.02943148 0.02061763 0.00310713 0.00661041 0.00128760 
0.10102578 0.03818904 0.01215215 0.00343847 0.00086056 0.00230773 0.01228492 0.01731046 0.01735911 0.00281341 0.00215734 0.02916020 0.02061334 0.00305855 0.00668458 0.00128804 
0.10259486 0.03774838 0.01207722 0.00340563 0.00085972 0.00235821 0.01222233 0.01731376 0.01742782 0.00283693 0.00216205 0.02887477 0.02059262 0.00300844 0.00676039 0.00128856 
0.10405885 0.03728557 0.01199579 0.00337065 0.00085864 0.00241190 0.01215620 0.01730810 0.01749456 0.00286165 0.00216574 0.02857597 0.02055619 0.00295703 0.00683739 0.00128917 
0.10541063 0.03680067 0.01190793 0.00333363 0.00085734 0.00246851 0.01208586 0.01729297 0.01756040 0.00288751 0.00216843 0.02826463 0.02050486 0.00290452 0.00691512 0.00128985 
0.10664363 0.03629387 0.01181371 0.00329467 0.00085585 0.00252773 0.01201072 0.01726791 0.01762652 0.00291444 0.00217014 0.02794161 0.02043947 0.00285116 0.00699312 0.00129062 
0.10775176 0.03576553 0.01171322 0.00325389 0.00085418 0.00258924 0.01193027 0.01723255 0.01769421 0.00294235 0.00217089 0.02760777 0.02036092 0.00279717 0.00707092 0.00129148 
0.10872955 0.03521614 0.01160653 0.00321140 0.00085236 0.00265270 0.01184412 0.01718660 0.01776486 0.00297115 0.00217073 0.02726405 0.02027017 0.00274280 0.00714807 0.00129242 
0.10957211 0.03464638 0.01149374 0.00316733 0.00085040 0.00271780 0.01175194 0.01712981 0.01783995 0.00300077 0.00216968 0.02691136 0.02016821 0.00268830 0.00722411 0.00129345 
0.11027518 0.03405704 0.01137495 0.00312181 0.00084833 0.00278419 0.01165353 0.01706206 0.01792102 0.00303111 0.00216780 0.02655069 0.02005605 0.00263393 0.00729861 0.00129456 
0.11083514 0.03344911 0.01125025 0.00307497 0.00084618 0.00285153 0.01154877 0.01698329 0.01800970 0.00306208 0.00216514 0.02618303 0.01993475 0.00257992 0.00737112 0.00129576 
0.11124903 0.03282372 0.01111976 0.00302695 0.00084397 0.00291950 0.01143765 0.01689353 0.01810765 0.00309358 0.00216175 0.02580938 0.01980537 0.00252655 0.00744122 0.00129704 
0.11151456 0.03218216 0.01098359 0.00297789 0.00084172 0.00298777 0.01132027 0.01679289 0.01821657 0.00312551 0.00215770 0.02543079 0.01966900 0.00247407 0.00750851 0.00129841 
0.11163013 0.03152589 0.01084187 0.00292794 0.00083945 0.00305600 0.01119682 0.01668157 0.01833820 0.00315778 0.00215306 0.02504831 0.01952672 0.00242272 0.00757260 0.00129985 
0.11159482 0.03085653 0.01069474 0.00287725 0.00083720 0.00312388 0.01106761 0.01655986 0.01847426 0.00319029 0.00214790 0.02466302 0.01937961 0.00237277 0.00763311 0.00130137 
0.11140838 0.03017584 0.01054235 0.00282596 0.00083497 0.00319110 0.01093302 0.01642812 0.01862650 0.00322294 0.00214229 0.02427600 0.01922876 0.00232447 0.00768971 0.00130297 
0.11107128 0.02948575 0.01038487 0.00277422 0.00083281 0.00325736 0.01079357 0.01628681 0.01879661 0.00325562 0.00213632 0.02388836 0.01907521 0.00227804 0.00774207 0.00130464 
0.11058464 0.02878834 0.01022247 0.00272219 0.00083072 0.00332237 0.01064984 0.01613645 0.01898628 0.00328825 0.00213007 0.02350121 0.01892002 0.00223374 0.00778990 0.00130637 
0.10995024 0.02808586 0.01005537 0.00267001 0.00082874 0.00338586 0.01050251 0.01597765 0.01919713 0.00332072 0.00212361 0.02311568 0.01876419 0.00219180 0.00783292 0.00130817 
0.10917054 0.02738066 0.00988376 0.00261784 0.00082687 0.00344757 0.01035237 0.01581108 0.01943069 0.00335294 0.00211704 0.02273289 0.01860868 0.00215243 0.00787090 0.00131003 
0.10824859 0.02667528 0.00970788 0.00256581 0.00082515 0.00350726 0.01020025 0.01563748 0.01968844 0.00338481 0.00211044 0.02235396 0.01845445 0.00211584 0.00790364 0.00131194 
0.10718810 0.02597237 0.00952800 0.00251409 0.00082359 0.00356471 0.01004710 0.01545766 0.01997174 0.00341625 0.00210389 0.02198003 0.01830237 0.00208223 0.00793095 0.00131390 
0.10599332 0.02527472 0.00934437 0.00246280 0.00082220 0.00361972 0.00989390 0.01527247 0.02028185 0.00344716 0.00209749 0.02161222 0.01815327 0.00205180 0.00795270 0.00131591 
0.10466910 0.02458525 0.00915731 0.00241210 0.00082101 0.00367211 0.00974172 0.01508283 0.02061987 0.00347747 0.00209131 0.02125164 0.01800795 0.00202472 0.00796877 0.00131795 
0.10322079 0.02390697 0.00896713 0.00236213 0.00082002 0.00372170 0.00959168 0.01488969 0.02098679 0.00350708 0.00208543 0.02089939 0.01786711 0.00200115 0.00797910 0.00132003 
0.10165425 0.02324303 0.00877418 0.00231302 0.00081926 0.00376836 0.00944495 0.01469403 0.02138343 0.00353593 0.00207994 0.02055656 0.01773141 0.00198123 0.00798364 0.00132213 
0.09997581 0.02259667 0.00857884 0.00226491 0.00081872 0.00381198 0.00930272 0.01449687 0.02181044 0.00356394 0.00207491 0.02022422 0.01760144 0.00196509 0.00798240 0.00132425 
0.09819219 0.02197121 0.00838150 0.00221793 0.00081843 0.00385245 0.00916623 0.01429925 0.02226828 0.00359103 0.00207041 0.01990340 0.01747770 0.00195286 0.00797539 0.00132639 
0.09631054 0.02137004 0.00818259 0.00217221 0.00081838 0.00388971 0.00903674 0.01410221 0.02275724 0.00361716 0.00206652 0.01959513 0.01736065 0.00194461 0.00796270 0.00132854 
0.09433833 0.02079664 0.00798256 0.00212786 0.00081858 0.00392370 0.00891552 0.01390682 0.02327740 0.00364224 0.00206329 0.01930037 0.01725064 0.00194045 0.00794442 0.00133068 
0.09228333 0.02025453 0.00778190 0.00208502 0.00081903 0.00395439 0.00880385 0.01371412 0.02382863 0.00366624 0.00206078 0.01902006 0.01714797 0.00194042 0.00792068 0.00133282 
0.09015358 0.01974727 0.00758111 0.00204380 0.00081974 0.00398179 0.00870301 0.01352515 0.02441060 0.00368910 0.00205905 0.01875512 0.01705286 0.00194456 0.00789166 0.00133495 
0.08795734 0.01927844 0.00738074 0.00200430 0.00082071 0.00400590 0.00861424 0.01334094 0.02502275 0.00371077 0.00205814 0.01850640 0.01696543 0.00195290 0.00785755 0.00133706 
0.08570303 0.01885164 0.00718133 0.00196664 0.00082192 0.00402676 0.00853879 0.01316249 0.02566431 0.00373121 0.00205809 0.01827469 0.01688576 0.00196545 0.00781859 0.00133915 
0.08339922 0.01847047 0.00698349 0.00193092 0.00082338 0.00404444 0.00847787 0.01299074 0.02633429 0.00375038 0.00205893 0.01806075 0.01681383 0.00198219 0.00777503 0.00134121 
0.08105454 0.01813848 0.00678783 0.00189725 0.00082507 0.00405900 0.00843264 0.01282662 0.02703146 0.00376825 0.00206069 0.01786526 0.01674955 0.00200308 0.00772717 0.00134323 
0.07867769 0.01785921 0.00659499 0.00186571 0.00082699 0.00407055 0.00840423 0.01267100 0.02775439 0.00378479 0.00206339 0.01768886 0.01669276 0.00202807 0.00767532 0.00134520 
0.07627735 0.01763612 0.00640563 0.00183640 0.00082913 0.00407919 0.00839368 0.01252468 0.02850144 0.00379998 0.00206703 0.01753209 0.01664325 0.00205709 0.00761981 0.00134713 
0.07386216 0.01747262 0.00622044 0.00180941 0.00083146 0.00408507 0.00840200 0.01238841 0.02927075 0.00381379 0.00207163 0.01739545 0.01660072 0.00209004 0.00756101 0.00134900 
0.07144069 0.01737201 0.00604012 0.00178481 0.00083398 0.00408832 0.00843012 0.01226288 0.03006025 0.00382620 0.00207716 0.01727936 0.01656483 0.00212683 0.00749930 0.00135082 
0.06902138 0.01733747 0.00586540 0.00176269 0.00083666 0.00408910 0.00847889 0.01214867 0.03086771 0.00383721 0.00208363 0.01718414 0.01653517 0.00216732 0.00743507 0.00135256 
0.06661250 0.01737205 0.00569701 0.00174311 0.00083949 0.00408758 0.00854906 0.01204633 0.03169068 0.00384680 0.00209102 0.01711005 0.01651128 0.00221136 0.00736874 0.00135424 
0.06422214 0.01747865 0.00553570 0.00172615 0.00084244 0.00408394 0.00864132 0.01195628 0.03252656 0.00385496 0.00209928 0.01705727 0.01649267 0.00225881 0.00730074 0.00135585 
0.06185815 0.01766001 0.00538223 0.00171187 0.00084550 0.00407838 0.00875623 0.01187889 0.03337261 0.00386168 0.00210839 0.01702588 0.01647879 0.00230948 0.00723149 0.00135738 
0.05952812 0.01791866 0.00523738 0.00170033 0.00084863 0.00407109 0.00889427 0.01181441 0.03422591 0.00386697 0.00211831 0.01701588 0.01646908 0.00236318 0.00716144 0.00135882 
0.05723936 0.01825693 0.00510190 0.00169158 0.00085180 0.00406227 0.00905581 0.01176302 0.03508346 0.00387082 0.00212899 0.01702717 0.01646291 0.00241972 0.00709103 0.00136018 
0.05499884 0.01867690 0.00497657 0.00168566 0.00085500 0.00405213 0.00924111 0.01172481 0.03594213 0.00387324 0.00214037 0.01705958 0.01645969 0.00247887 0.00702072 0.00136146 
0.05281321 0.01918042 0.00486215 0.00168263 0.00085819 0.00404087 0.00945032 0.01169974 0.03679871 0.00387422 0.00215238 0.01711284 0.01645875 0.00254041 0.00695096 0.00136264 
0.05068872 0.01976906 0.00475939 0.00168252 0.00086135 0.00402872 0.00968348 0.01168772 0.03764994 0.00387377 0.00216497 0.01718659 0.01645946 0.00260411 0.00688217 0.00136373 
0.04863128 0.02044413 0.00466906 0.00168536 0.00086444 0.00401587 0.00994050 0.01168855 0.03849249 0.00387190 0.00217806 0.01728037 0.01646118 0.00266971 0.00681481 0.00136472 
0.04664635 0.02120660 0.00459186 0.00169117 0.00086743 0.00400253 0.01022120 0.01170193 0.03932304 0.00386862 0.00219158 0.01739364 0.01646324 0.00273697 0.00674929 0.00136562 
0.04473901 0.02205715 0.00452851 0.00169998 0.00087029 0.00398891 0.01052525 0.01172749 0.04013825 0.00386393 0.00220544 0.01752577 0.01646504 0.00280562 0.00668604 0.00136642 
0.04291388 0.02299612 0.00447969 0.00171180 0.00087299 0.00397520 0.01085225 0.01176476 0.04093480 0.00385785 0.00221955 0.01767605 0.01646595 0.00287540 0.00662544 0.00136712 
0.04117516 0.02402352 0.00444605 0.00172664 0.00087550 0.00396158 0.01120164 0.01181320 0.04170945 0.00385039 0.00223385 0.01784367 0.01646540 0.00294605 0.00656789 0.00136772 
0.03952661 0.02513897 0.00442820 0.00174449 0.00087779 0.00394826 0.01157277 0.01187219 0.04245900 0.00384155 0.00224823 0.01802776 0.01646283 0.00301728 0.00651375 0.00136822 
0.03797152 0.02634177 0.00442674 0.00176534 0.00087983 0.00393538 0.01196490 0.01194104 0.04318036 0.00383136 0.00226260 0.01822734 0.01645772 0.00308884 0.00646335 0.00136863 
0.03651274 0.02763082 0.00444219 0.00178919 0.00088158 0.00392312 0.01237715 0.01201900 0.04387055 0.00381984 0.00227689 0.01844141 0.01644961 0.00316045 0.00641701 0.00136894 
0.03515268 0.02900463 0.00447503 0.00181602 0.00088303 0.00391162 0.01280856 0.01210524 0.04452674 0.00380699 0.00229099 0.01866884 0.01643807 0.00323185 0.00637502 0.00136915 
0.03389329 0.03046134 0.00452571 0.00184578 0.00088413 0.00390102 0.01325808 0.01219892 0.04514624 0.00379284 0.00230482 0.01890847 0.01642274 0.00330276 0.00633764 0.00136926 
0.03273610 0.03199872 0.00459460 0.00187844 0.00088487 0.00389144 0.01372454 0.01229912 0.04572659 0.00377741 0.00231831 0.01915908 0.01640330 0.00337294 0.00630511 0.00136928 
0.03168218 0.03361412 0.00468202 0.00191396 0.00088522 0.00388300 0.01420673 0.01240489 0.04626548 0.00376072 0.00233135 0.01941938 0.01637952 0.00344213 0.00627761 0.00136921 
0.03073219 0.03530452 0.00478822 0.00195228 0.00088516 0.00387578 0.01470332 0.01251528 0.04676085 0.00374280 0.00234388 0.01968805 0.01635120 0.00351009 0.00625531 0.00136905 
0.02988639 0.03706653 0.00491338 0.00199334 0.00088466 0.00386987 0.01521292 0.01262929 0.04721088 0.00372367 0.00235581 0.01996372 0.01631824 0.00357657 0.00623835 0.00136879 
0.02914464 0.03889636 0.00505762 0.00203707 0.00088370 0.00386533 0.01573410 0.01274591 0.04761399 0.00370337 0.00236708 0.02024498 0.01628059 0.00364136 0.00622682 0.00136846 
0.02850640 0.04078988 0.00522098 0.00208338 0.00088228 0.00386221 0.01626535 0.01286416 0.04796889 0.00368194 0.00237763 0.02053040 0.01623828 0.00370423 0.00622077 0.00136803 
0.02797079 0.04274258 0.00540341 0.00213218 0.00088037 0.00386054 0.01680511 0.01298304 0.04827455 0.00365940 0.00238739 0.02081853 0.01619142 0.00376499 0.00622024 0.00136753 
0.02753656 0.04474964 0.00560480 0.00218338 0.00087796 0.00386034 0.01735179 0.01310156 0.04853026 0.00363579 0.00239632 0.02110790 0.01614017 0.00382345 0.00622519 0.00136695 
0.02720215 0.04680589 0.00582494 0.00223686 0.00087505 0.00386161 0.01790376 0.01321879 0.04873557 0.00361117 0.00240436 0.02139705 0.01608480 0.00387942 0.00623560 0.00136629 
0.02696566 0.04890586 0.00606355 0.00229251 0.00087162 0.00386434 0.01845938 0.01333379 0.04889038 0.00358558 0.00241148 0.02168449 0.01602560 0.00393275 0.00625135 0.00136556 
0.02682494 0.05104379 0.00632027 0.00235021 0.00086768 0.00386850 0.01901698 0.01344568 0.04899488 0.00355907 0.00241766 0.02196877 0.01596298 0.00398329 0.00627233 0.00136475 
0.02677755 0.05321368 0.00659463 0.00240981 0.00086322 0.00387405 0.01957490 0.01355365 0.04904957 0.00353170 0.00242287 0.02224844 0.01589738 0.00403091 0.00629838 0.00136388 
0.02682079 0.05540926 0.00688609 0.00247117 0.00085824 0.00388094 0.02013146 0.01365690 0.04905527 0.00350353 0.00242711 0.02252208 0.01582932 0.00407550 0.00632929 0.00136294 
0.02695177 0.05762407 0.00719404 0.00253414 0.00085276 0.00388910 0.02068501 0.01375473 0.04901311 0.00347464 0.00243037 0.02278831 0.01575938 0.00411694 0.00636484 0.00136194 
0.02716735 0.05985145 0.00751777 0.00259855 0.00084677 0.00389844 0.02123393 0.01384650 0.04892453 0.00344508 0.00243266 0.02304577 0.01568819 0.00415518 0.00640476 0.00136087 
0.02746425 0.06208461 0.00785647 0.00266425 0.00084030 0.00390889 0.02177660 0.01393164 0.04879126 0.00341494 0.00243400 0.02329316 0.01561643 0.00419013 0.00644876 0.00135974 
0.02783901 0.06431663 0.00820928 0.00273104 0.00083337 0.00392033 0.02231145 0.01400966 0.04861532 0.00338430 0.00243442 0.02352922 0.01554482 0.00422175 0.00649650 0.00135856 
0.02828803 0.06654048 0.00857525 0.00279876 0.00082598 0.00393267 0.02283697 0.01408015 0.04839902 0.00335326 0.00243394 0.02375276 0.01547413 0.00425001 0.00654765 0.00135732 
0.02880758 0.06874913 0.00895334 0.00286720 0.00081816 0.00394579 0.02335167 0.01414280 0.04814492 0.00332189 0.00243263 0.02396266 0.01540515 0.00427489 0.00660181 0.00135602 
0.02939387 0.07093548 0.00934247 0.00293617 0.00080994 0.00395956 0.02385415 0.01419738 0.04785582 0.00329030 0.00243052 0.02415786 0.01533869 0.00429639 0.00665859 0.00135467 
0.03004298 0.07309248 0.00974145 0.00300546 0.00080135 0.00397386 0.02434307 0.01424376 0.04753478 0.00325859 0.00242770 0.02433737 0.01527560 0.00431453 0.00671756 0.00135327 
0.03075097 0.07521314 0.01014906 0.00307488 0.00079242 0.00398856 0.02481714 0.01428190 0.04718505 0.00322687 0.00242422 0.02450029 0.01521673 0.00432933 0.00677829 0.00135181 
0.03151383 0.07729054 0.01056401 0.00314421 0.00078318 0.00400353 0.02527517 0.01431186 0.04681007 0.00319525 0.00242017 0.02464580 0.01516291 0.00434085 0.00684032 0.00135030 
0.03232756 0.07931792 0.01098494 0.00321323 0.00077368 0.00401862 0.02571606 0.01433378 0.04641344 0.00316385 0.00241564 0.02477318 0.01511499 0.00434913 0.00690319 0.00134874 
0.03318811 0.08128867 0.01141047 0.00328173 0.00076395 0.00403371 0.02613878 0.01434791 0.04599892 0.00313278 0.00241071 0.02488179 0.01507381 0.00435426 0.00696642 0.00134713 
0.03409146 0.08319640 0.01183916 0.00334949 0.00075405 0.00404866 0.02654240 0.01435457 0.04557036 0.00310217 0.00240550 0.02497109 0.01504018 0.00435630 0.00702953 0.00134547 
0.03503362 0.08503494 0.01226953 0.00341629 0.00074401 0.00406333 0.02692610 0.01435419 0.04513174 0.00307215 0.00240010 0.02504063 0.01501486 0.00435536 0.00709203 0.00134376 
0.03601062 0.08679842 0.01270009 0.00348191 0.00073388 0.00407761 0.02728913 0.01434726 0.04468706 0.00304284 0.00239463 0.02509007 0.01499861 0.00435154 0.00715344 0.00134199 
0.03701854 0.08848128 0.01312931 0.00354613 0.00072373 0.00409137 0.02763088 0.01433438 0.04424037 0.00301437 0.00238921 0.02511915 0.01499213 0.00434495 0.00721329 0.00134017 
0.03805353 0.09007828 0.01355566 0.00360874 0.00071359 0.00410448 0.02795081 0.01431619 0.04379572 0.00298687 0.00238394 0.02512772 0.01499606 0.00433570 0.00727110 0.00133830 
0.03911181 0.09158459 0.01397758 0.00366952 0.00070353 0.00411684 0.02824851 0.01429341 0.04335715 0.00296047 0.00237895 0.02511574 0.01501100 0.00432394 0.00732642 0.00133637 
0.04018965 0.09299575 0.01439355 0.00372826 0.00069360 0.00412834 0.02852366 0.01426684 0.04292863 0.00293530 0.00237436 0.02508325 0.01503748 0.00430978 0.00737879 0.00133439 
0.04128346 0.09430775 0.01480200 0.00378476 0.00068386 0.00413889 0.02877605 0.01423731 0.04251405 0.00291149 0.00237030 0.02503039 0.01507595 0.00429336 0.00742779 0.00133235 
0.04238971 0.09551703 0.01520144 0.00383883 0.00067436 0.00414840 0.02900559 0.01420570 0.04211718 0.00288917 0.00236688 0.02495740 0.01512679 0.00427483 0.00747302 0.00133025 
0.04350497 0.09662051 0.01559036 0.00389027 0.00066518 0.00415679 0.02921227 0.01417294 0.04174167 0.00286845 0.00236422 0.02486460 0.01519032 0.00425432 0.00751408 0.00132810 
0.04462596 0.09761559 0.01596730 0.00393889 0.00065636 0.00416399 0.02939620 0.01413998 0.04139099 0.00284945 0.00236244 0.02475243 0.01526675 0.00423199 0.00755063 0.00132588 
0.04574946 0.09850020 0.01633082 0.00398454 0.00064796 0.00416996 0.02955759 0.01410779 0.04106841 0.00283229 0.00236165 0.02462137 0.01535622 0.00420796 0.00758233 0.00132361 
0.04687242 0.09927280 0.01667955 0.00402703 0.00064005 0.00417464 0.02969673 0.01407736 0.04077698 0.00281708 0.00236196 0.02447202 0.01545876 0.00418239 0.00760889 0.00132127 
0.04799187 0.09993235 0.01701216 0.00406623 0.00063268 0.00417800 0.02981402 0.01404967 0.04051951 0.00280391 0.00236348 0.02430503 0.01557433 0.00415542 0.00763006 0.00131888 
0.04910500 0.10047841 0.01732739 0.00410200 0.00062591 0.00418002 0.02990995 0.01402571 0.04029856 0.00279288 0.00236631 0.02412114 0.01570279 0.00412718 0.00764560 0.00131642 
0.05020911 0.10091102 0.01762402 0.00413420 0.00061980 0.00418068 0.02998508 0.01400644 0.04011636 0.00278408 0.00237053 0.02392115 0.01584390 0.00409781 0.00765534 0.00131390 
0.05130163 0.10123082 0.01790094 0.00416273 0.00061439 0.00418000 0.03004007 0.01399279 0.03997488 0.00277757 0.00237623 0.02370592 0.01599734 0.00406744 0.00765913 0.00131132 
0.05238013 0.10143896 0.01815710 0.00418749 0.00060975 0.00417798 0.03007564 0.01398566 0.03987574 0.00277342 0.00238348 0.02347638 0.01616268 0.00403619 0.00765687 0.00130868 
0.05344231 0.10153715 0.01839152 0.00420839 0.00060593 0.00417464 0.03009259 0.01398593 0.03982022 0.00277170 0.00239235 0.02323348 0.01633940 0.00400418 0.00764851 0.00130598 
0.05448600 0.10152761 0.01860335 0.00422538 0.00060296 0.00417001 0.03009178 0.01399438 0.03980925 0.00277243 0.00240289 0.02297825 0.01652691 0.00397152 0.00763403 0.00130322 
0.05550916 0.10141308 0.01879179 0.00423839 0.00060090 0.00416415 0.03007411 0.01401176 0.03984343 0.00277566 0.00241516 0.02271175 0.01672452 0.00393833 0.00761347 0.00130041 
0.05650988 0.10119679 0.01895616 0.00424740 0.00059978 0.00415710 0.03004058 0.01403876 0.03992295 0.00278139 0.00242918 0.02243505 0.01693146 0.00390469 0.00758690 0.00129755 
0.05748638 0.10088246 0.01909588 0.00425239 0.00059964 0.00414893 0.02999218 0.01407597 0.04004766 0.00278965 0.00244498 0.02214928 0.01714688 0.00387071 0.00755446 0.00129463 
0.05843703 0.10047426 0.01921048 0.00425337 0.00060052 0.00413970 0.02992997 0.01412391 0.04021701 0.00280040 0.00246258 0.02185556 0.01736988 0.00383646 0.00751632 0.00129168 
0.05936031 0.09997677 0.01929958 0.00425036 0.00060245 0.00412950 0.02985503 0.01418301 0.04043010 0.00281365 0.00248198 0.02155506 0.01759946 0.00380202 0.00747268 0.00128868 
0.06025481 0.09939500 0.01936291 0.00424339 0.00060544 0.00411840 0.02976849 0.01425359 0.04068565 0.00282934 0.00250317 0.02124893 0.01783458 0.00376745 0.00742382 0.00128564 
0.06111927 0.09873431 0.01940033 0.00423253 0.00060953 0.00410650 0.02967146 0.01433591 0.04098200 0.00284743 0.00252612 0.02093834 0.01807414 0.00373283 0.00737003 0.00128258 
0.06195253 0.09800041 0.01941179 0.00421784 0.00061471 0.00409389 0.02956508 0.01443008 0.04131717 0.00286786 0.00255081 0.02062446 0.01831701 0.00369820 0.00731166 0.00127949 
0.06275358 0.09719930 0.01939735 0.00419942 0.00062101 0.00408067 0.02945051 0.01453614 0.04168881 0.00289054 0.00257719 0.02030844 0.01856199 0.00366360 0.00724909 0.00127639 
0.06352148 0.09633725 0.01935718 0.00417739 0.00062842 0.00406694 0.02932889 0.01465401 0.04209426 0.00291538 0.00260521 0.01999143 0.01880788 0.00362908 0.00718276 0.00127328 
0.06425543 0.09542075 0.01929157 0.00415186 0.00063694 0.00405280 0.02920135 0.01478350 0.04253053 0.00294229 0.00263480 0.01967457 0.01905344 0.00359467 0.00711310 0.00127017 
0.06495474 0.09445648 0.01920090 0.00412299 0.00064656 0.00403835 0.02906903 0.01492430 0.04299435 0.00297113 0.00266588 0.01935898 0.01929742 0.00356038 0.00704062 0.00126706 
0.06561881 0.09345126 0.01908565 0.00409094 0.00065728 0.00402370 0.02893303 0.01507602 0.04348218 0.00300179 0.00269838 0.01904575 0.01953855 0.00352625 0.00696583 0.00126398 
0.06624713 0.09241201 0.01894641 0.00405589 0.00066906 0.00400895 0.02879443 0.01523813 0.04399023 0.00303410 0.00273220 0.01873595 0.01977559 0.00349228 0.00688929 0.00126092 
0.06683932 0.09134571 0.01878386 0.00401802 0.00068189 0.00399418 0.02865428 0.01541002 0.04451450 0.00306793 0.00276723 0.01843062 0.02000728 0.00345848 0.00681154 0.00125790 
0.06739506 0.09025936 0.01859878 0.00397754 0.00069572 0.00397951 0.02851360 0.01559097 0.04505078 0.00310311 0.00280337 0.01813076 0.02023240 0.00342486 0.00673319 0.00125493 
0.06791413 0.08915992 0.01839202 0.00393467 0.00071052 0.00396501 0.02837337 0.01578015 0.04559472 0.00313945 0.00284049 0.01783736 0.02044974 0.00339142 0.00665484 0.00125203 
0.06839638 0.08805429 0.01816454 0.00388964 0.00072625 0.00395077 0.02823452 0.01597664 0.04614182 0.00317678 0.00287847 0.01755135 0.02065812 0.00335816 0.00657709 0.00124920 
0.06884174 0.08694926 0.01791734 0.00384270 0.00074285 0.00393687 0.02809793 0.01617946 0.04668749 0.00321491 0.00291719 0.01727364 0.02085643 0.00332508 0.00650058 0.00124646 
0.06925022 0.08585145 0.01765152 0.00379409 0.00076026 0.00392339 0.02796444 0.01638752 0.04722709 0.00325364 0.00295650 0.01700510 0.02104358 0.00329216 0.00642592 0.00124381 
0.06962188 0.08476730 0.01736824 0.00374407 0.00077842 0.00391037 0.02783483 0.01659965 0.04775593 0.00329276 0.00299627 0.01674655 0.02121854 0.00325941 0.00635373 0.00124128 
0.06995685 0.08370301 0.01706870 0.00369291 0.00079726 0.00389789 0.02770981 0.01681465 0.04826932 0.00333207 0.00303637 0.01649879 0.02138034 0.00322683 0.00628464 0.00123888 
0.07025529 0.08266451 0.01675418 0.00364088 0.00081671 0.00388598 0.02759005 0.01703122 0.04876263 0.00337136 0.00307663 0.01626256 0.02152808 0.00319440 0.00621925 0.00123661 
0.07051743 0.08165743 0.01642598 0.00358825 0.00083668 0.00387469 0.02747615 0.01724805 0.04923130 0.00341042 0.00311693 0.01603858 0.02166094 0.00316212 0.00615815 0.00123450 
0.07074354 0.08068705 0.01608546 0.00353531 0.00085709 0.00386404 0.02736863 0.01746375 0.04967087 0.00344903 0.00315712 0.01582753 0.02177816 0.00313000 0.00610192 0.00123255 
0.07093391 0.07975828 0.01573400 0.00348233 0.00087785 0.00385404 0.02726797 0.01767694 0.05007704 0.00348698 0.00319705 0.01563004 0.02187906 0.00309804 0.00605110 0.00123079 
0.07108887 0.07887566 0.01537301 0.00342959 0.00089887 0.00384472 0.02717456 0.01788619 0.05044568 0.00352407 0.00323658 0.01544672 0.02196306 0.00306625 0.00600622 0.00122922 
0.07120875 0.07804327 0.01500391 0.00337737 0.00092004 0.00383606 0.02708874 0.01809008 0.05077288 0.00356009 0.00327558 0.01527813 0.02202966 0.00303463 0.00596777 0.00122785 
0.07129393 0.07726476 0.01462813 0.00332594 0.00094127 0.00382805 0.02701077 0.01828719 0.05105495 0.00359485 0.00331391 0.01512481 0.02207843 0.00300320 0.00593621 0.00122670 
0.07134478 0.07654333 0.01424712 0.00327557 0.00096245 0.00382067 0.02694084 0.01847608 0.05128850 0.00362815 0.00335144 0.01498725 0.02210905 0.00297198 0.00591196 0.00122577 
0.07136167 0.07588168 0.01386230 0.00322652 0.00098348 0.00381390 0.02687909 0.01865539 0.05147043 0.00365980 0.00338804 0.01486591 0.02212129 0.00294100 0.00589539 0.00122509 
0.07134497 0.07528202 0.01347512 0.00317904 0.00100424 0.00380769 0.02682558 0.01882374 0.05159798 0.00368963 0.00342360 0.01476124 0.02211500 0.00291028 0.00588684 0.00122466 
0.07129505 0.07474605 0.01308697 0.00313337 0.00102462 0.00380199 0.02678029 0.01897982 0.05166873 0.00371748 0.00345801 0.01467362 0.02209012 0.00287988 0.00588658 0.00122449 
0.07121228 0.07427498 0.01269924 0.00308975 0.00104453 0.00379675 0.02674315 0.01912237 0.05168063 0.00374318 0.00349115 0.01460345 0.02204670 0.00284982 0.00589485 0.00122459 
0.07109699 0.07386948 0.01231329 0.00304840 0.00106383 0.00379190 0.02671403 0.01925019 0.05163203 0.00376660 0.00352292 0.01455106 0.02198485 0.00282017 0.00591183 0.00122497 
0.07094950 0.07352973 0.01193044 0.00300951 0.00108243 0.00378736 0.02669273 0.01936216 0.05152170 0.00378761 0.00355325 0.01451677 0.02190477 0.00279097 0.00593765 0.00122563 
0.07077011 0.07325539 0.01155198 0.00297329 0.00110022 0.00378307 0.02667897 0.01945724 0.05134882 0.00380609 0.00358205 0.01450086 0.02180677 0.00276229 0.00597236 0.00122659 
0.07055909 0.07304563 0.01117915 0.00293990 0.00111708 0.00377894 0.02667245 0.01953447 0.05111300 0.00382194 0.00360924 0.01450360 0.02169119 0.00273420 0.00601598 0.00122783 
0.07031669 0.07289911 0.01081313 0.00290950 0.00113291 0.00377488 0.02667278 0.01959301 0.05081431 0.00383508 0.00363477 0.01452522 0.02155849 0.00270678 0.00606846 0.00122938 
0.07004311 0.07281404 0.01045506 0.00288224 0.00114762 0.00377081 0.02667951 0.01963210 0.05045325 0.00384544 0.00365858 0.01456593 0.02140918 0.00268010 0.00612968 0.00123122 
0.06973854 0.07278815 0.01010601 0.00285822 0.00116110 0.00376662 0.02669217 0.01965112 0.05003077 0.00385296 0.00368063 0.01462589 0.02124384 0.00265424 0.00619948 0.00123337 
0.06940313 0.07281874 0.00976699 0.00283756 0.00117325 0.00376223 0.02671022 0.01964954 0.04954828 0.00385761 0.00370089 0.01470526 0.02106311 0.00262931 0.00627764 0.00123582 
0.06903700 0.07290269 0.00943895 0.00282032 0.00118401 0.00375755 0.02673306 0.01962699 0.04900759 0.00385937 0.00371932 0.01480414 0.02086769 0.00260539 0.00636386 0.00123857 
0.06864024 0.07303651 0.00912276 0.00280657 0.00119327 0.00375247 0.02676007 0.01958320 0.04841100 0.00385823 0.00373593 0.01492263 0.02065831 0.00258259 0.00645779 0.00124161 
0.06821290 0.07321631 0.00881923 0.00279635 0.00120096 0.00374691 0.02679057 0.01951803 0.04776118 0.00385422 0.00375069 0.01506077 0.02043579 0.00256100 0.00655905 0.00124495 
0.06775504 0.07343792 0.00852908 0.00278966 0.00120703 0.00374078 0.02682384 0.01943150 0.04706124 0.00384736 0.00376363 0.01521856 0.02020094 0.00254072 0.00666717 0.00124857 
0.06726665 0.07369683 0.00825297 0.00278650 0.00121140 0.00373399 0.02685915 0.01932373 0.04631465 0.00383770 0.00377474 0.01539599 0.01995464 0.00252187 0.00678165 0.00125247 
0.06674775 0.07398828 0.00799147 0.00278685 0.00121403 0.00372647 0.02689570 0.01919502 0.04552526 0.00382531 0.00378407 0.01559298 0.01969778 0.00250455 0.00690194 0.00125663 
0.06619831 0.07430730 0.00774509 0.00279065 0.00121487 0.00371814 0.02693269 0.01904577 0.04469728 0.00381025 0.00379163 0.01580942 0.01943128 0.00248886 0.00702742 0.00126106 
0.06561832 0.07464872 0.00751423 0.00279784 0.00121389 0.00370894 0.02696928 0.01887653 0.04383521 0.00379264 0.00379746 0.01604516 0.01915607 0.00247491 0.00715747 0.00126573 
0.06500777 0.07500720 0.00729923 0.00280831 0.00121106 0.00369881 0.02700462 0.01868797 0.04294386 0.00377257 0.00380163 0.01629999 0.01887309 0.00246280 0.00729140 0.00127064 
0.06436663 0.07537734 0.00710036 0.00282196 0.00120638 0.00368770 0.02703783 0.01848092 0.04202830 0.00375016 0.00380417 0.01657365 0.01858329 0.00245263 0.00742849 0.00127576 
0.06369493 0.07575362 0.00691778 0.00283865 0.00119985 0.00367558 0.02706803 0.01825630 0.04109383 0.00372555 0.00380516 0.01686582 0.01828763 0.00244450 0.00756799 0.00128109 
0.06299268 0.07613052 0.00675160 0.00285824 0.00119146 0.00366241 0.02709431 0.01801517 0.04014594 0.00369889 0.00380466 0.01717614 0.01798704 0.00243850 0.00770913 0.00128660 
0.06225996 0.07650253 0.00660184 0.00288055 0.00118125 0.00364818 0.02711577 0.01775871 0.03919028 0.00367033 0.00380274 0.01750416 0.01768246 0.00243472 0.00785112 0.00129228 
0.06149687 0.07686418 0.00646843 0.00290540 0.00116924 0.00363288 0.02713150 0.01748819 0.03823263 0.00364003 0.00379949 0.01784940 0.01737482 0.00243323 0.00799314 0.00129811 
0.06070357 0.07721011 0.00635126 0.00293259 0.00115549 0.00361653 0.02714061 0.01720499 0.03727885 0.00360817 0.00379499 0.01821128 0.01706501 0.00243410 0.00813438 0.00130407 
0.05988027 0.07753509 0.00625011 0.00296190 0.00114004 0.00359914 0.02714219 0.01691059 0.03633485 0.00357492 0.00378932 0.01858917 0.01675391 0.00243741 0.00827401 0.00131014 
0.05902729 0.07783405 0.00616472 0.00299311 0.00112297 0.00358075 0.02713536 0.01660656 0.03540656 0.00354047 0.00378259 0.01898236 0.01644238 0.00244319 0.00841119 0.00131629 
0.05814498 0.07810214 0.00609474 0.00302597 0.00110436 0.00356140 0.02711925 0.01629451 0.03449987 0.00350501 0.00377488 0.01939007 0.01613125 0.00245151 0.00854512 0.00132251 
0.05723382 0.07833473 0.00603976 0.00306023 0.00108429 0.00354116 0.02709300 0.01597617 0.03362062 0.00346874 0.00376629 0.01981146 0.01582130 0.00246238 0.00867497 0.00132877 
0.05629439 0.07852748 0.00599931 0.00309563 0.00106289 0.00352009 0.02705580 0.01565327 0.03277452 0.00343184 0.00375692 0.02024558 0.01551330 0.00247584 0.00879995 0.00133504 
0.05532736 0.07867637 0.00597286 0.00313192 0.00104025 0.00349829 0.02700683 0.01532762 0.03196715 0.00339450 0.00374687 0.02069143 0.01520796 0.00249189 0.00891929 0.00134131 
0.05433354 0.07877770 0.00595984 0.00316881 0.00101652 0.00347587 0.02694534 0.01500105 0.03120393 0.00335694 0.00373625 0.02114791 0.01490598 0.00251053 0.00903224 0.00134755 
0.05331387 0.07882812 0.00595959 0.00320604 0.00099182 0.00345292 0.02687061 0.01467542 0.03049003 0.00331932 0.00372515 0.02161388 0.01460800 0.00253174 0.00913809 0.00135374 
0.05226943 0.07882469 0.00597144 0.00324332 0.00096631 0.00342958 0.02678193 0.01435259 0.02983040 0.00328186 0.00371368 0.02208809 0.01431462 0.00255550 0.00923616 0.00135985 
0.05120142 0.07876485 0.00599465 0.00328040 0.00094016 0.00340598 0.02667869 0.01403442 0.02922971 0.00324471 0.00370194 0.02256923 0.01402641 0.00258176 0.00932582 0.00136586 
0.05011124 0.07864649 0.00602846 0.00331698 0.00091351 0.00338228 0.02656028 0.01372277 0.02869230 0.00320808 0.00369003 0.02305590 0.01374390 0.00261047 0.00940647 0.00137175 
0.04900041 0.07846792 0.00607205 0.00335281 0.00088656 0.00335863 0.02642617 0.01341946 0.02822219 0.00317212 0.00367804 0.02354667 0.01346755 0.00264155 0.00947759 0.00137749 
0.04787063 0.07822791 0.00612459 0.00338762 0.00085949 0.00333520 0.02627588 0.01312627 0.02782301 0.00313701 0.00366609 0.02404001 0.01319783 0.00267493 0.00953869 0.00138306 
0.04672378 0.07792567 0.00618521 0.00342116 0.00083250 0.00331216 0.02610902 0.01284496 0.02749804 0.00310290 0.00365425 0.02453434 0.01293511 0.00271049 0.00958934 0.00138844 
0.04556188 0.07756089 0.00625301 0.00345318 0.00080577 0.00328971 0.02592522 0.01257720 0.02725011 0.00306994 0.00364262 0.02502802 0.01267978 0.00274814 0.00962920 0.00139362 
0.04438716 0.07713371 0.00632709 0.00348344 0.00077952 0.00326802 0.02572421 0.01232461 0.02708164 0.00303827 0.00363130 0.02551937 0.01243215 0.00278775 0.00965797 0.00139856 
0.04320200 0.07664475 0.00640651 0.00351172 0.00075395 0.00324730 0.02550579 0.01208872 0.02699461 0.00300801 0.00362037 0.02600665 0.01219250 0.00282917 0.00967542 0.00140326 
0.04200895 0.07609507 0.00649036 0.00353782 0.00072928 0.00322774 0.02526983 0.01187097 0.02699053 0.00297929 0.00360991 0.02648810 0.01196110 0.00287225 0.00968141 0.00140769 
0.04081076 0.07548618 0.00657767 0.00356153 0.00070572 0.00320955 0.02501628 0.01167271 0.02707043 0.00295221 0.00360001 0.02696192 0.01173814 0.00291685 0.00967584 0.00141185 
0.03961033 0.07482003 0.00666751 0.00358268 0.00068349 0.00319292 0.02474518 0.01149518 0.02723490 0.00292686 0.00359074 0.02742630 0.01152383 0.00296277 0.00965872 0.00141571 
0.03841070 0.07409899 0.00675894 0.00360112 0.00066279 0.00317806 0.02445663 0.01133949 0.02748402 0.00290334 0.00358217 0.02787939 0.01131831 0.00300983 0.00963012 0.00141926 
0.03721510 0.07332584 0.00685103 0.00361670 0.00064386 0.00316516 0.02415085 0.01120665 0.02781740 0.00288170 0.00357437 0.02831937 0.01112170 0.00305786 0.00959017 0.00142249 
0.03602691 0.07250373 0.00694285 0.00362929 0.00062689 0.00315442 0.02382813 0.01109752 0.02823416 0.00286202 0.00356741 0.02874441 0.01093412 0.00310663 0.00953910 0.00142539 
0.03484961 0.07163618 0.00703350 0.00363880 0.00061210 0.00314603 0.02348883 0.01101283 0.02873297 0.00284435 0.00356135 0.02915269 0.01075562 0.00315594 0.00947720 0.00142796 
0.03368686 0.07072702 0.00712210 0.00364516 0.00059969 0.00314017 0.02313342 0.01095318 0.02931200 0.00282871 0.00355624 0.02954244 0.01058627 0.00320558 0.00940484 0.00143018 
0.03254240 0.06978043 0.00720778 0.00364829 0.00058985 0.00313702 0.02276247 0.01091902 0.02996899 0.00281514 0.00355213 0.02991191 0.01042610 0.00325532 0.00932246 0.00143205 
0.03142009 0.06880082 0.00728972 0.00364817 0.00058279 0.00313674 0.02237661 0.01091065 0.03070122 0.00280366 0.00354907 0.03025941 0.01027511 0.00330494 0.00923057 0.00143357 
0.03032388 0.06779286 0.00736711 0.00364478 0.00057867 0.00313948 0.02197657 0.01092822 0.03150555 0.00279427 0.00354711 0.03058329 0.01013331 0.00335421 0.00912975 0.00143474 
0.02925778 0.06676145 0.00743919 0.00363814 0.00057768 0.00314539 0.02156317 0.01097172 0.03237844 0.00278696 0.00354628 0.03088199 0.01000068 0.00340291 0.00902065 0.00143556 
0.02822588 0.06571162 0.00750524 0.00362827 0.00057997 0.00315459 0.02113732 0.01104101 0.03331595 0.00278174 0.00354662 0.03115403 0.00987719 0.00345080 0.00890396 0.00143603 
0.02723229 0.06464858 0.00756456 0.00361523 0.00058569 0.00316720 0.02070000 0.01113579 0.03431377 0.00277857 0.00354814 0.03139802 0.00976279 0.00349765 0.00878046 0.00143616 
0.02628114 0.06357762 0.00761654 0.00359909 0.00059498 0.00318331 0.02025227 0.01125560 0.03536727 0.00277743 0.00355089 0.03161268 0.00965744 0.00354325 0.00865096 0.00143595 
0.02537659 0.06250409 0.00766057 0.00357995 0.00060795 0.00320300 0.01979530 0.01139985 0.03647148 0.00277828 0.00355487 0.03179682 0.00956107 0.00358737 0.00851632 0.00143540 
0.02452274 0.06143337 0.00769613 0.00355793 0.00062472 0.00322633 0.01933028 0.01156780 0.03762117 0.00278109 0.00356010 0.03194940 0.00947363 0.00362979 0.00837745 0.00143453 
0.02372366 0.06037084 0.00772274 0.00353317 0.00064537 0.00325333 0.01885852 0.01175856 0.03881083 0.00278581 0.00356659 0.03206950 0.00939503 0.00367032 0.00823530 0.00143336 
0.02298339 0.05932182 0.00773996 0.00350583 0.00066998 0.00328403 0.01838136 0.01197113 0.04003476 0.00279239 0.00357434 0.03215634 0.00932521 0.00370874 0.00809086 0.00143188 
0.02230583 0.05829154 0.00774744 0.00347607 0.00069860 0.00331842 0.01790022 0.01220435 0.04128705 0.00280078 0.00358336 0.03220931 0.00926408 0.00374487 0.00794512 0.00143012 
0.02169482 0.05728511 0.00774488 0.00344409 0.00073126 0.00335649 0.01741657 0.01245698 0.04256162 0.00281092 0.00359364 0.03222793 0.00921155 0.00377852 0.00779913 0.00142809 
0.02115405 0.05630749 0.00773202 0.00341009 0.00076798 0.00339818 0.01693192 0.01272762 0.04385228 0.00282275 0.00360517 0.03221189 0.00916754 0.00380954 0.00765391 0.00142581 
0.02068705 0.05536344 0.00770869 0.00337430 0.00080877 0.00344343 0.01644785 0.01301480 0.04515276 0.00283621 0.00361795 0.03216106 0.00913197 0.00383776 0.00751053 0.00142330 
0.02029720 0.05445749 0.00767479 0.00333695 0.00085359 0.00349214 0.01596593 0.01331694 0.04645671 0.00285125 0.00363194 0.03207547 0.00910474 0.00386305 0.00737005 0.00142056 
0.01998766 0.05359394 0.00763026 0.00329829 0.00090240 0.00354421 0.01548781 0.01363237 0.04775779 0.00286780 0.00364714 0.03195534 0.00908576 0.00388528 0.00723350 0.00141763 
0.01976137 0.05277679 0.00757513 0.00325856 0.00095513 0.00359949 0.01501513 0.01395935 0.04904965 0.00288582 0.00366351 0.03180105 0.00907493 0.00390434 0.00710193 0.00141453 
0.01962105 0.05200973 0.00750947 0.00321802 0.00101171 0.00365784 0.01454954 0.01429607 0.05032599 0.00290524 0.00368103 0.03161319 0.00907217 0.00392014 0.00697636 0.00141127 
0.01956915 0.05129612 0.00743345 0.00317695 0.00107202 0.00371907 0.01409272 0.01464066 0.05158060 0.00292601 0.00369966 0.03139251 0.00907735 0.00393260 0.00685779 0.00140787 
0.01960783 0.05063899 0.00734729 0.00313562 0.00113594 0.00378298 0.01364633 0.01499120 0.05280738 0.00294808 0.00371937 0.03113993 0.00909040 0.00394166 0.00674719 0.00140437 
0.01973895 0.05004097 0.00725126 0.00309429 0.00120331 0.00384935 0.01321202 0.01534576 0.05400035 0.00297141 0.00374010 0.03085658 0.00911119 0.00394729 0.00664547 0.00140077 
0.01996409 0.04950431 0.00714572 0.00305324 0.00127398 0.00391795 0.01279144 0.01570236 0.05515375 0.00299596 0.00376183 0.03054374 0.00913961 0.00394946 0.00655354 0.00139710 
0.02028444 0.04903088 0.00703108 0.00301274 0.00134775 0.00398851 0.01238618 0.01605902 0.05626197 0.00302168 0.00378449 0.03020286 0.00917556 0.00394818 0.00647223 0.00139340 
0.02070088 0.04862213 0.00690783 0.00297306 0.00142442 0.00406076 0.01199782 0.01641377 0.05731967 0.00304854 0.00380804 0.02983558 0.00921891 0.00394345 0.00640231 0.00138967 
0.02121392 0.04827908 0.00677648 0.00293446 0.00150376 0.00413441 0.01162790 0.01676464 0.05832174 0.00307652 0.00383242 0.02944366 0.00926953 0.00393532 0.00634453 0.00138593 
0.02182368 0.04800235 0.00663765 0.00289719 0.00158553 0.00420915 0.01127787 0.01710970 0.05926336 0.00310559 0.00385758 0.02902905 0.00932728 0.00392384 0.00629952 0.00138222 
0.02252992 0.04779215 0.00649196 0.00286152 0.00166948 0.00428467 0.01094916 0.01744703 0.06014000 0.00313574 0.00388345 0.02859381 0.00939202 0.00390908 0.00626789 0.00137855 
0.02333199 0.04764826 0.00634014 0.00282766 0.00175533 0.00436064 0.01064311 0.01777479 0.06094744 0.00316694 0.00390997 0.02814013 0.00946360 0.00389113 0.00625015 0.00137495 
0.02422884 0.04757005 0.00618292 0.00279585 0.00184279 0.00443673 0.01036099 0.01809116 0.06168183 0.00319920 0.00393708 0.02767035 0.00954185 0.00387010 0.00624674 0.00137142 
0.02521902 0.04755650 0.00602111 0.00276630 0.00193157 0.00451258 0.01010398 0.01839443 0.06233964 0.00323250 0.00396471 0.02718689 0.00962660 0.00384611 0.00625801 0.00136800 
0.02630066 0.04760621 0.00585555 0.00273921 0.00202136 0.00458784 0.00987317 0.01868292 0.06291772 0.00326684 0.00399279 0.02669228 0.00971765 0.00381930 0.00628425 0.00136469 
0.02747149 0.04771738 0.00568711 0.00271475 0.00211182 0.00466217 0.00966956 0.01895509 0.06341328 0.00330223 0.00402125 0.02618911 0.00981481 0.00378982 0.00632564 0.00136152 
0.02872883 0.04788789 0.00551670 0.00269309 0.00220264 0.00473521 0.00949402 0.01920945 0.06382393 0.00333868 0.00405001 0.02568005 0.00991786 0.00375785 0.00638228 0.00135850 
0.03006959 0.04811525 0.00534528 0.00267438 0.00229347 0.00480660 0.00934735 0.01944464 0.06414767 0.00337620 0.00407901 0.02516784 0.01002657 0.00372356 0.00645419 0.00135565 
0.03149029 0.04839668 0.00517380 0.00265875 0.00238399 0.00487599 0.00923019 0.01965940 0.06438289 0.00341478 0.00410817 0.02465523 0.01014070 0.00368714 0.00654129 0.00135297 
0.03298704 0.04872912 0.00500327 0.00264629 0.00247383 0.00494303 0.00914308 0.01985261 0.06452837 0.00345446 0.00413742 0.02414500 0.01025999 0.00364880 0.00664341 0.00135048 
0.03455558 0.04910922 0.00483468 0.00263709 0.00256266 0.00500739 0.00908645 0.02002324 0.06458332 0.00349525 0.00416668 0.02363994 0.01038416 0.00360874 0.00676029 0.00134819 
0.03619128 0.04953343 0.00466906 0.00263123 0.00265013 0.00506873 0.00906057 0.02017041 0.06454731 0.00353715 0.00419589 0.02314282 0.01051293 0.00356718 0.00689160 0.00134611 
0.03788915 0.04999797 0.00450742 0.00262873 0.00273590 0.00512673 0.00906560 0.02029338 0.06442032 0.00358018 0.00422496 0.02265638 0.01064598 0.00352435 0.00703689 0.00134424 
0.03964385 0.05049892 0.00435080 0.00262963 0.00281962 0.00518109 0.00910156 0.02039153 0.06420271 0.00362437 0.00425383 0.02218332 0.01078299 0.00348047 0.00719565 0.00134259 
0.04144973 0.05103219 0.00420021 0.00263391 0.00290097 0.00523151 0.00916834 0.02046439 0.06389522 0.00366971 0.00428242 0.02172630 0.01092362 0.00343578 0.00736727 0.00134116 
0.04330084 0.05159360 0.00405666 0.00264157 0.00297961 0.00527772 0.00926568 0.02051164 0.06349897 0.00371621 0.00431067 0.02128787 0.01106752 0.00339050 0.00755108 0.00133996 
0.04519092 0.05217891 0.00392115 0.00265254 0.00305523 0.00531947 0.00939321 0.02053309 0.06301543 0.00376389 0.00433850 0.02087051 0.01121431 0.00334486 0.00774631 0.00133898 
0.04711350 0.05278382 0.00379464 0.00266677 0.00312752 0.00535650 0.00955041 0.02052870 0.06244641 0.00381274 0.00436586 0.02047658 0.01136361 0.00329910 0.00795213 0.00133822 
0.04906184 0.05340405 0.00367809 0.00268417 0.00319620 0.00538862 0.00973662 0.02049856 0.06179407 0.00386276 0.00439267 0.02010834 0.01151502 0.00325344 0.00816764 0.00133769 
0.05102901 0.05403533 0.00357240 0.00270463 0.00326097 0.00541562 0.00995107 0.02044291 0.06106088 0.00391393 0.00441889 0.01976790 0.01166813 0.00320810 0.00839187 0.00133737 
0.05300790 0.05467347 0.00347845 0.00272802 0.00332158 0.00543735 0.01019286 0.02036214 0.06024961 0.00396625 0.00444444 0.01945723 0.01182250 0.00316329 0.00862380 0.00133726 
0.05499128 0.05531437 0.00339707 0.00275420 0.00337777 0.00545365 0.01046095 0.02025675 0.05936333 0.00401968 0.00446927 0.01917813 0.01197771 0.00311922 0.00886235 0.00133736 
0.05697176 0.05595406 0.00332906 0.00278301 0.00342933 0.00546441 0.01075420 0.02012738 0.05840535 0.00407420 0.00449334 0.01893224 0.01213330 0.00307609 0.00910638 0.00133765 
0.05894192 0.05658872 0.00327514 0.00281427 0.00347604 0.00546955 0.01107135 0.01997481 0.05737925 0.00412977 0.00451659 0.01872102 0.01228881 0.00303408 0.00935474 0.00133812 
0.06089425 0.05721474 0.00323598 0.00284777 0.00351773 0.00546900 0.01141105 0.01979991 0.05628885 0.00418634 0.00453897 0.01854574 0.01244379 0.00299338 0.00960622 0.00133877 
0.06282126 0.05782868 0.00321220 0.00288333 0.00355421 0.00546273 0.01177184 0.01960370 0.05513818 0.00424385 0.00456046 0.01840748 0.01259776 0.00295413 0.00985957 0.00133957 
0.06471546 0.05842738 0.00320435 0.00292070 0.00358537 0.00545073 0.01215215 0.01938727 0.05393143 0.00430223 0.00458100 0.01830711 0.01275025 0.00291649 0.01011356 0.00134052 
0.06656941 0.05900792 0.00321290 0.00295968 0.00361107 0.00543303 0.01255036 0.01915183 0.05267301 0.00436142 0.00460057 0.01824530 0.01290078 0.00288060 0.01036691 0.00134160 
0.06837579 0.05956767 0.00323826 0.00300001 0.00363122 0.00540968 0.01296476 0.01889868 0.05136745 0.00442132 0.00461913 0.01822249 0.01304887 0.00284656 0.01061833 0.00134280 
0.07012739 0.06010429 0.00328074 0.00304145 0.00364577 0.00538076 0.01339357 0.01862919 0.05001943 0.00448183 0.00463666 0.01823895 0.01319404 0.00281449 0.01086654 0.00134409 
0.07181715 0.06061575 0.00334060 0.00308374 0.00365467 0.00534639 0.01383497 0.01834483 0.04863374 0.00454286 0.00465314 0.01829469 0.01333581 0.00278447 0.01111028 0.00134547 
0.07343824 0.06110037 0.00341798 0.00312664 0.00365790 0.00530668 0.01428706 0.01804712 0.04721527 0.00460428 0.00466855 0.01838953 0.01347371 0.00275656 0.01134827 0.00134691 
0.07498404 0.06155678 0.00351298 0.00316988 0.00365548 0.00526182 0.01474795 0.01773761 0.04576897 0.00466598 0.00468288 0.01852308 0.01360727 0.00273081 0.01157927 0.00134839 
0.07644818 0.06198395 0.00362557 0.00321321 0.00364744 0.00521197 0.01521568 0.01741794 0.04429986 0.00472781 0.00469611 0.01869473 0.01373604 0.00270726 0.01180207 0.00134990 
0.07782463 0.06238123 0.00375566 0.00325636 0.00363385 0.00515736 0.01568831 0.01708976 0.04281300 0.00478964 0.00470825 0.01890368 0.01385956 0.00268593 0.01201547 0.00135142 
0.07910766 0.06274827 0.00390305 0.00329909 0.00361480 0.00509822 0.01616386 0.01675475 0.04131347 0.00485131 0.00471928 0.01914893 0.01397740 0.00266680 0.01221834 0.00135293 
0.08029190 0.06308512 0.00406746 0.00334115 0.00359041 0.00503480 0.01664039 0.01641461 0.03980634 0.00491267 0.00472922 0.01942929 0.01408912 0.00264987 0.01240957 0.00135441 
0.08137238 0.06339212 0.00424852 0.00338230 0.00356080 0.00496738 0.01711594 0.01607104 0.03829669 0.00497355 0.00473806 0.01974337 0.01419431 0.00263508 0.01258812 0.00135585 
0.08234454 0.06366997 0.00444578 0.00342230 0.00352615 0.00489625 0.01758860 0.01572574 0.03678953 0.00503377 0.00474582 0.02008964 0.01429259 0.00262240 0.01275298 0.00135721 
0.08320425 0.06391969 0.00465868 0.00346093 0.00348663 0.00482173 0.01805648 0.01538041 0.03528988 0.00509317 0.00475250 0.02046638 0.01438357 0.00261174 0.01290324 0.00135849 
0.08394785 0.06414261 0.00488657 0.00349798 0.00344246 0.00474414 0.01851776 0.01503670 0.03380265 0.00515156 0.00475813 0.02087173 0.01446689 0.00260303 0.01303803 0.00135968 
0.08457219 0.06434034 0.00512875 0.00353326 0.00339387 0.00466381 0.01897063 0.01469626 0.03233270 0.00520875 0.00476271 0.02130371 0.01454222 0.00259617 0.01315656 0.00136074 
0.08507457 0.06451479 0.00538440 0.00356658 0.00334110 0.00458110 0.01941340 0.01436067 0.03088479 0.00526457 0.00476628 0.02176019 0.01460924 0.00259103 0.01325811 0.00136167 
0.08545286 0.06466811 0.00565263 0.00359777 0.00328441 0.00449637 0.01984439 0.01403148 0.02946359 0.00531882 0.00476884 0.02223895 0.01466767 0.00258751 0.01334206 0.00136245 
0.08570542 0.06480270 0.00593247 0.00362668 0.00322410 0.00440997 0.02026206 0.01371019 0.02807364 0.00537131 0.00477043 0.02273765 0.01471723 0.00258545 0.01340785 0.00136307 
0.08583119 0.06492116 0.00622290 0.00365318 0.00316045 0.00432229 0.02066492 0.01339821 0.02671935 0.00542186 0.00477107 0.02325390 0.01475769 0.00258472 0.01345501 0.00136352 
0.08582962 0.06502627 0.00652279 0.00367716 0.00309378 0.00423369 0.02105158 0.01309692 0.02540502 0.00547029 0.00477080 0.02378523 0.01478883 0.00258515 0.01348317 0.00136377 
0.08570076 0.06512099 0.00683098 0.00369852 0.00302441 0.00414455 0.02142076 0.01280758 0.02413476 0.00551642 0.00476963 0.02432911 0.01481048 0.00258659 0.01349205 0.00136383 
0.08544518 0.06520840 0.00714623 0.00371719 0.00295268 0.00405524 0.02177129 0.01253139 0.02291255 0.00556007 0.00476760 0.02488300 0.01482248 0.00258887 0.01348145 0.00136369 
0.08506403 0.06529168 0.00746725 0.00373310 0.00287891 0.00396613 0.02210210 0.01226947 0.02174218 0.00560108 0.00476475 0.02544432 0.01482472 0.00259180 0.01345126 0.00136333 
0.08455900 0.06537410 0.00779271 0.00374624 0.00280347 0.00387757 0.02241225 0.01202283 0.02062726 0.00563928 0.00476110 0.02601052 0.01481709 0.00259522 0.01340147 0.00136274 
0.08393234 0.06545896 0.00812123 0.00375658 0.00272669 0.00378994 0.02270090 0.01179239 0.01957123 0.00567452 0.00475669 0.02657903 0.01479955 0.00259894 0.01333217 0.00136194 
0.08318683 0.06554958 0.00845139 0.00376413 0.00264895 0.00370356 0.02296736 0.01157897 0.01857730 0.00570667 0.00475155 0.02714733 0.01477207 0.00260279 0.01324353 0.00136090 
0.08232577 0.06564928 0.00878175 0.00376891 0.00257058 0.00361879 0.02321104 0.01138329 0.01764851 0.00573559 0.00474571 0.02771294 0.01473466 0.00260658 0.01313580 0.00135963 
0.08135297 0.06576132 0.00911084 0.00377099 0.00249195 0.00353594 0.02343150 0.01120596 0.01678765 0.00576116 0.00473921 0.02827344 0.01468736 0.00261014 0.01300934 0.00135813 
0.08027275 0.06588889 0.00943718 0.00377042 0.00241340 0.00345532 0.02362841 0.01104749 0.01599731 0.00578328 0.00473207 0.02882649 0.01463025 0.00261330 0.01286458 0.00135640 
0.07908989 0.06603509 0.00975928 0.00376729 0.00233528 0.00337722 0.02380157 0.01090827 0.01527985 0.00580186 0.00472434 0.02936981 0.01456345 0.00261588 0.01270204 0.00135444 
0.07780959 0.06620290 0.01007564 0.00376171 0.00225793 0.00330193 0.02395092 0.01078861 0.01463738 0.00581682 0.00471604 0.02990126 0.01448711 0.00261773 0.01252233 0.00135226 
0.07643751 0.06639513 0.01038479 0.00375379 0.00218167 0.00322969 0.02407651 0.01068867 0.01407178 0.00582810 0.00470719 0.03041878 0.01440141 0.00261869 0.01232611 0.00134987 
0.07497969 0.06661442 0.01068526 0.00374368 0.00210684 0.00316075 0.02417851 0.01060855 0.01358468 0.00583566 0.00469784 0.03092042 0.01430657 0.00261863 0.01211413 0.00134726 
0.07344253 0.06686324 0.01097560 0.00373152 0.00203373 0.00309534 0.02425723 0.01054822 0.01317746 0.00583947 0.00468800 0.03140440 0.01420285 0.00261739 0.01188720 0.00134446 
0.07183274 0.06714380 0.01125440 0.00371748 0.00196265 0.00303363 0.02431308 0.01050754 0.01285122 0.00583952 0.00467770 0.03186905 0.01409054 0.00261487 0.01164621 0.00134146 
0.07015736 0.06745811 0.01152027 0.00370175 0.00189387 0.00297582 0.02434658 0.01048629 0.01260683 0.00583582 0.00466697 0.03231284 0.01396997 0.00261095 0.01139209 0.00133828 
0.06842367 0.06780791 0.01177189 0.00368450 0.00182766 0.00292206 0.02435838 0.01048414 0.01244487 0.00582838 0.00465583 0.03273440 0.01384151 0.00260553 0.01112583 0.00133494 
0.06663918 0.06819466 0.01200798 0.00366594 0.00176427 0.00287247 0.02434921 0.01050066 0.01236566 0.00581726 0.00464430 0.03313253 0.01370556 0.00259852 0.01084846 0.00133145 
0.06481156 0.06861958 0.01222732 0.00364628 0.00170392 0.00282717 0.02431990 0.01053535 0.01236925 0.00580251 0.00463240 0.03350617 0.01356254 0.00258986 0.01056107 0.00132781 
0.06294864 0.06908356 0.01242875 0.00362571 0.00164682 0.00278625 0.02427139 0.01058761 0.01245539 0.00578420 0.00462015 0.03385442 0.01341293 0.00257949 0.01026477 0.00132406 
0.06105837 0.06958722 0.01261121 0.00360446 0.00159316 0.00274976 0.02420468 0.01065675 0.01262359 0.00576243 0.00460756 0.03417655 0.01325722 0.00256736 0.00996070 0.00132020 
0.05914872 0.07013087 0.01277368 0.00358274 0.00154312 0.00271776 0.02412086 0.01074203 0.01287305 0.00573731 0.00459464 0.03447200 0.01309596 0.00255346 0.00965002 0.00131626 
0.05722771 0.07071451 0.01291527 0.00356078 0.00149683 0.00269025 0.02402109 0.01084261 0.01320271 0.00570896 0.00458142 0.03474036 0.01292970 0.00253777 0.00933393 0.00131225 
0.05530332 0.07133783 0.01303514 0.00353878 0.00145442 0.00266724 0.02390660 0.01095761 0.01361122 0.00567752 0.00456789 0.03498138 0.01275904 0.00252030 0.00901363 0.00130819 
0.05338349 0.07200025 0.01313258 0.00351696 0.00141598 0.00264871 0.02377866 0.01108605 0.01409697 0.00564314 0.00455407 0.03519497 0.01258460 0.00250106 0.00869030 0.00130410 
0.05147602 0.07270086 0.01320697 0.00349552 0.00138161 0.00263460 0.02363860 0.01122695 0.01465806 0.00560599 0.00453996 0.03538119 0.01240703 0.00248009 0.00836516 0.00130000 
0.04958858 0.07343846 0.01325779 0.00347468 0.00135134 0.00262486 0.02348780 0.01137923 0.01529232 0.00556624 0.00452556 0.03554024 0.01222702 0.00245745 0.00803940 0.00129591 
0.04772868 0.07421157 0.01328464 0.00345461 0.00132522 0.00261941 0.02332766 0.01154179 0.01599732 0.00552408 0.00451089 0.03567247 0.01204526 0.00243320 0.00771419 0.00129185 
0.04590357 0.07501846 0.01328723 0.00343551 0.00130325 0.00261814 0.02315959 0.01171350 0.01677037 0.00547972 0.00449593 0.03577835 0.01186248 0.00240742 0.00739072 0.00128784 
0.04412025 0.07585711 0.01326538 0.00341754 0.00128542 0.00262094 0.02298505 0.01189318 0.01760851 0.00543334 0.00448070 0.03585848 0.01167941 0.00238021 0.00707010 0.00128390 
0.04238544 0.07672526 0.01321904 0.00340087 0.00127168 0.00262768 0.02280550 0.01207964 0.01850855 0.00538517 0.00446517 0.03591357 0.01149684 0.00235166 0.00675346 0.00128005 
0.04070552 0.07762044 0.01314828 0.00338564 0.00126198 0.00263820 0.02262238 0.01227165 0.01946704 0.00533542 0.00444936 0.03594444 0.01131552 0.00232190 0.00644188 0.00127631 
0.03908650 0.07853994 0.01305329 0.00337199 0.00125625 0.00265236 0.02243716 0.01246800 0.02048032 0.00528430 0.00443326 0.03595201 0.01113626 0.00229105 0.00613638 0.00127270 
0.03753402 0.07948088 0.01293438 0.00336002 0.00125437 0.00266998 0.02225127 0.01266745 0.02154449 0.00523205 0.00441685 0.03593727 0.01095986 0.00225925 0.00583797 0.00126923 
0.03605330 0.08044019 0.01279197 0.00334985 0.00125623 0.00269087 0.02206613 0.01286875 0.02265545 0.00517888 0.00440013 0.03590130 0.01078712 0.00222666 0.00554759 0.00126593 
0.03464909 0.08141466 0.01262664 0.00334154 0.00126169 0.00271485 0.02188314 0.01307068 0.02380891 0.00512501 0.00438310 0.03584524 0.01061887 0.00219343 0.00526614 0.00126280 
0.03332572 0.08240096 0.01243904 0.00333516 0.00127060 0.00274171 0.02170365 0.01327201 0.02500040 0.00507067 0.00436574 0.03577028 0.01045592 0.00215972 0.00499446 0.00125987 
0.03208702 0.08339562 0.01222998 0.00333076 0.00128277 0.00277126 0.02152900 0.01347153 0.02622526 0.00501606 0.00434803 0.03567764 0.01029908 0.00212569 0.00473334 0.00125715 
0.03093631 0.08439512 0.01200038 0.00332837 0.00129803 0.00280327 0.02136046 0.01366805 0.02747871 0.00496139 0.00432997 0.03556860 0.01014916 0.00209153 0.00448349 0.00125465 
0.02987641 0.08539586 0.01175124 0.00332800 0.00131617 0.00283754 0.02119925 0.01386041 0.02875582 0.00490687 0.00431155 0.03544443 0.01000698 0.00205741 0.00424558 0.00125238 
0.02890963 0.08639422 0.01148371 0.00332963 0.00133697 0.00287384 0.02104654 0.01404748 0.03005156 0.00485269 0.00429275 0.03530644 0.00987331 0.00202351 0.00402020 0.00125036 
0.02803774 0.08738655 0.01119903 0.00333323 0.00136021 0.00291196 0.02090345 0.01422815 0.03136078 0.00479903 0.00427356 0.03515591 0.00974893 0.00199000 0.00380789 0.00124859 
0.02726197 0.08836921 0.01089853 0.00333878 0.00138565 0.00295166 0.02077102 0.01440138 0.03267827 0.00474607 0.00425396 0.03499413 0.00963460 0.00195707 0.00360911 0.00124708 
0.02658305 0.08933863 0.01058366 0.00334619 0.00141305 0.00299275 0.02065021 0.01456613 0.03399877 0.00469395 0.00423394 0.03482237 0.00953105 0.00192489 0.00342424 0.00124585 
0.02600115 0.09029124 0.01025594 0.00335540 0.00144215 0.00303499 0.02054194 0.01472145 0.03531699 0.00464284 0.00421348 0.03464186 0.00943898 0.00189364 0.00325362 0.00124488 
0.02551593 0.09122361 0.00991697 0.00336631 0.00147270 0.00307817 0.02044701 0.01486641 0.03662761 0.00459286 0.00419258 0.03445381 0.00935907 0.00186348 0.00309750 0.00124420 
0.02512654 0.09213236 0.00956846 0.00337882 0.00150445 0.00312209 0.02036617 0.01500015 0.03792534 0.00454414 0.00417120 0.03425937 0.00929197 0.00183459 0.00295607 0.00124379 
0.02483160 0.09301426 0.00921214 0.00339281 0.00153712 0.00316653 0.02030007 0.01512187 0.03920492 0.00449677 0.00414935 0.03405965 0.00923826 0.00180711 0.00282946 0.00124367 
0.02462929 0.09386621 0.00884985 0.00340814 0.00157045 0.00321129 0.02024928 0.01523081 0.04046115 0.00445084 0.00412701 0.03385571 0.00919851 0.00178121 0.00271771 0.00124382 
0.02451727 0.09468528 0.00848345 0.00342468 0.00160419 0.00325619 0.02021428 0.01532628 0.04168892 0.00440642 0.00410415 0.03364854 0.00917324 0.00175702 0.00262081 0.00124425 
0.02449279 0.09546870 0.00811486 0.00344227 0.00163806 0.00330103 0.02019547 0.01540768 0.04288321 0.00436356 0.00408078 0.03343906 0.00916290 0.00173468 0.00253870 0.00124496 
0.02455263 0.09621390 0.00774604 0.00346076 0.00167183 0.00334564 0.02019312 0.01547445 0.04403915 0.00432231 0.00405687 0.03322814 0.00916792 0.00171431 0.00247123 0.00124593 
0.02469319 0.09691852 0.00737898 0.00347999 0.00170523 0.00338984 0.02020746 0.01552610 0.04515202 0.00428267 0.00403241 0.03301656 0.00918864 0.00169602 0.00241821 0.00124716 
0.02491050 0.09758041 0.00701567 0.00349980 0.00173802 0.00343347 0.02023859 0.01556221 0.04621726 0.00424466 0.00400740 0.03280504 0.00922537 0.00167992 0.00237939 0.00124865 
0.02520023 0.09819767 0.00665814 0.00352001 0.00176996 0.00347639 0.02028652 0.01558245 0.04723053 0.00420826 0.00398182 0.03259421 0.00927834 0.00166609 0.00235446 0.00125039 
0.02555773 0.09876861 0.00630841 0.00354047 0.00180083 0.00351845 0.02035119 0.01558654 0.04818770 0.00417343 0.00395566 0.03238465 0.00934772 0.00165461 0.00234307 0.00125235 
0.02597806 0.09929183 0.00596847 0.00356100 0.00183041 0.00355951 0.02043240 0.01557429 0.04908490 0.00414014 0.00392891 0.03217684 0.00943361 0.00164554 0.00234480 0.00125455 
0.02645604 0.09976614 0.00564032 0.00358145 0.00185850 0.00359945 0.02052992 0.01554555 0.04991850 0.00410831 0.00390157 0.03197121 0.00953606 0.00163894 0.00235922 0.00125695 
0.02698626 0.10019064 0.00532592 0.00360167 0.00188489 0.00363817 0.02064336 0.01550029 0.05068517 0.00407788 0.00387363 0.03176809 0.00965502 0.00163482 0.00238583 0.00125955 
0.02756314 0.10056470 0.00502720 0.00362150 0.00190941 0.00367555 0.02077230 0.01543852 0.05138186 0.00404876 0.00384509 0.03156778 0.00979038 0.00163323 0.00242410 0.00126233 
0.02818093 0.10088792 0.00474604 0.00364082 0.00193190 0.00371151 0.02091620 0.01536033 0.05200587 0.00402084 0.00381594 0.03137048 0.00994198 0.00163416 0.00247347 0.00126528 
0.02883379 0.10116021 0.00448426 0.00365948 0.00195220 0.00374596 0.02107444 0.01526588 0.05255481 0.00399402 0.00378617 0.03117634 0.01010955 0.00163761 0.00253334 0.00126839 
0.02951579 0.10138172 0.00424361 0.00367739 0.00197017 0.00377884 0.02124632 0.01515540 0.05302663 0.00396817 0.00375580 0.03098547 0.01029276 0.00164355 0.00260311 0.00127163 
0.03022098 0.10155285 0.00402579 0.00369443 0.00198570 0.00381008 0.02143106 0.01502920 0.05341965 0.00394317 0.00372483 0.03079789 0.01049121 0.00165196 0.00268212 0.00127499 
0.03094339 0.10167428 0.00383238 0.00371053 0.00199868 0.00383962 0.02162779 0.01488763 0.05373256 0.00391887 0.00369325 0.03061362 0.01070443 0.00166278 0.00276971 0.00127846 
0.03167707 0.10174694 0.00366491 0.00372561 0.00200902 0.00386744 0.02183560 0.01473113 0.05396440 0.00389513 0.00366108 0.03043259 0.01093186 0.00167596 0.00286521 0.00128201 
0.03241618 0.10177198 0.00352478 0.00373961 0.00201666 0.00389349 0.02205347 0.01456019 0.05411464 0.00387180 0.00362833 0.03025473 0.01117288 0.00169141 0.00296793 0.00128563 
0.03315493 0.10175080 0.00341329 0.00375251 0.00202153 0.00391775 0.02228036 0.01437538 0.05418309 0.00384874 0.00359500 0.03007992 0.01142679 0.00170906 0.00307718 0.00128931 
0.03388769 0.10168502 0.00333163 0.00376428 0.00202361 0.00394020 0.02251513 0.01417729 0.05416997 0.00382579 0.00356112 0.02990801 0.01169285 0.00172880 0.00319225 0.00129302 
0.03460899 0.10157647 0.00328087 0.00377493 0.00202287 0.00396085 0.02275661 0.01396661 0.05407588 0.00380280 0.00352670 0.02973886 0.01197022 0.00175053 0.00331244 0.00129676 
0.03531355 0.10142718 0.00326195 0.00378448 0.00201932 0.00397968 0.02300359 0.01374405 0.05390183 0.00377962 0.00349177 0.02957228 0.01225801 0.00177412 0.00343706 0.00130050 
0.03599632 0.10123935 0.00327568 0.00379297 0.00201296 0.00399671 0.02325479 0.01351037 0.05364917 0.00375611 0.00345634 0.02940810 0.01255528 0.00179945 0.00356541 0.00130422 
0.03665247 0.10101537 0.00332271 0.00380046 0.00200383 0.00401195 0.02350891 0.01326641 0.05331967 0.00373212 0.00342046 0.02924615 0.01286102 0.00182639 0.00369681 0.00130792 
0.03727747 0.10075777 0.00340357 0.00380702 0.00199197 0.00402543 0.02376462 0.01301300 0.05291545 0.00370752 0.00338414 0.02908623 0.01317418 0.00185478 0.00383058 0.00131158 
0.03786706 0.10046920 0.00351864 0.00381276 0.00197745 0.00403718 0.02402056 0.01275106 0.05243897 0.00368219 0.00334744 0.02892820 0.01349367 0.00188447 0.00396608 0.00131519 
0.03841729 0.10015245 0.00366814 0.00381778 0.00196034 0.00404723 0.02427538 0.01248151 0.05189306 0.00365600 0.00331039 0.02877190 0.01381833 0.00191531 0.00410266 0.00131872 
0.03892456 0.09981040 0.00385214 0.00382223 0.00194074 0.00405561 0.02452767 0.01220531 0.05128087 0.00362886 0.00327303 0.02861720 0.01414699 0.00194714 0.00423969 0.00132218 
0.03938559 0.09944600 0.00407055 0.00382623 0.00191874 0.00406238 0.02477607 0.01192344 0.05060587 0.00360067 0.00323542 0.02846401 0.01447845 0.00197977 0.00437659 0.00132555 
0.03979747 0.09906227 0.00432314 0.00382997 0.00189447 0.00406759 0.02501919 0.01163693 0.04987182 0.00357134 0.00319761 0.02831224 0.01481146 0.00201305 0.00451277 0.00132881 
0.04015763 0.09866225 0.00460948 0.00383360 0.00186806 0.00407129 0.02525567 0.01134680 0.04908276 0.00354082 0.00315967 0.02816187 0.01514479 0.00204680 0.00464769 0.00133197 
0.04046391 0.09824900 0.00492904 0.00383732 0.00183965 0.00407354 0.02548416 0.01105408 0.04824298 0.00350905 0.00312165 0.02801288 0.01547716 0.00208084 0.00478083 0.00133501 
0.04071448 0.09782560 0.00528109 0.00384131 0.00180939 0.00407439 0.02570335 0.01075984 0.04735700 0.00347600 0.00308364 0.02786532 0.01580730 0.00211500 0.00491169 0.00133792 
0.04090793 0.09739508 0.00566476 0.00384579 0.00177743 0.00407393 0.02591195 0.01046513 0.04642957 0.00344165 0.00304569 0.02771926 0.01613396 0.00214911 0.00503980 0.00134071 
0.04104320 0.09696042 0.00607903 0.00385095 0.00174396 0.00407221 0.02610873 0.01017101 0.04546559 0.00340600 0.00300791 0.02757483 0.01645586 0.00218299 0.00516475 0.00134335 
0.04111963 0.09652455 0.00652272 0.00385702 0.00170914 0.00406930 0.02629250 0.00987853 0.04447015 0.00336907 0.00297036 0.02743220 0.01677177 0.00221648 0.00528612 0.00134587 
0.04113690 0.09609030 0.00699451 0.00386420 0.00167315 0.00406528 0.02646212 0.00958873 0.04344845 0.00333090 0.00293314 0.02729158 0.01708045 0.00224940 0.00540354 0.00134824 
0.04109510 0.09566040 0.00749294 0.00387271 0.00163619 0.00406023 0.02661653 0.00930266 0.04240579 0.00329154 0.00289635 0.02715325 0.01738072 0.00228159 0.00551669 0.00135046 
0.04099462 0.09523743 0.00801641 0.00388275 0.00159845 0.00405422 0.02675472 0.00902134 0.04134756 0.00325107 0.00286008 0.02701750 0.01767141 0.00231289 0.00562526 0.00135255 
0.04083625 0.09482386 0.00856321 0.00389454 0.00156013 0.00404732 0.02687579 0.00874575 0.04027919 0.00320957 0.00282444 0.02688470 0.01795141 0.00234316 0.00572898 0.00135450 
0.04062107 0.09442195 0.00913148 0.00390826 0.00152141 0.00403962 0.02697889 0.00847688 0.03920611 0.00316717 0.00278954 0.02675526 0.01821965 0.00237224 0.00582760 0.00135631 
0.04035049 0.09403383 0.00971925 0.00392410 0.00148251 0.00403119 0.02706328 0.00821566 0.03813375 0.00312398 0.00275549 0.02662961 0.01847511 0.00240000 0.00592094 0.00135798 
0.04002624 0.09366138 0.01032447 0.00394224 0.00144361 0.00402213 0.02712830 0.00796302 0.03706752 0.00308016 0.00272240 0.02650826 0.01871684 0.00242631 0.00600880 0.00135952 
0.03965030 0.09330629 0.01094495 0.00396284 0.00140492 0.00401250 0.02717341 0.00771983 0.03601272 0.00303587 0.00269040 0.02639173 0.01894394 0.00245104 0.00609106 0.00136093 
0.03922493 0.09297002 0.01157844 0.00398604 0.00136664 0.00400239 0.02719814 0.00748694 0.03497460 0.00299128 0.00265961 0.02628059 0.01915561 0.00247408 0.00616759 0.00136223 
0.03875264 0.09265380 0.01222260 0.00401196 0.00132895 0.00399187 0.02720217 0.00726513 0.03395824 0.00294658 0.00263015 0.02617544 0.01935110 0.00249533 0.00623833 0.00136341 
0.03823616 0.09235859 0.01287502 0.00404072 0.00129206 0.00398104 0.02718525 0.00705516 0.03296861 0.00290199 0.00260214 0.02607691 0.01952976 0.00251468 0.00630320 0.00136448 
0.03767841 0.09208510 0.01353324 0.00407239 0.00125613 0.00396997 0.02714728 0.00685774 0.03201049 0.00285772 0.00257571 0.02598567 0.01969100 0.00253207 0.00636220 0.00136545 
0.03708250 0.09183376 0.01419475 0.00410704 0.00122137 0.00395873 0.02708823 0.00667352 0.03108845 0.00281399 0.00255099 0.02590239 0.01983436 0.00254741 0.00641531 0.00136632 
0.03645170 0.09160475 0.01485699 0.00414470 0.00118793 0.00394740 0.02700824 0.00650310 0.03020687 0.00277106 0.00252810 0.02582778 0.01995942 0.00256064 0.00646257 0.00136712 
0.03578939 0.09139795 0.01551739 0.00418538 0.00115599 0.00393607 0.02690752 0.00634703 0.02936985 0.00272916 0.00250717 0.02576255 0.02006589 0.00257171 0.00650402 0.00136784 
0.03509909 0.09121296 0.01617336 0.00422906 0.00112570 0.00392480 0.02678642 0.00620581 0.02858127 0.00268854 0.00248832 0.02570743 0.02015357 0.00258058 0.00653973 0.00136849 
0.03438438 0.09104912 0.01682232 0.00427570 0.00109723 0.00391368 0.02664541 0.00607986 0.02784469 0.00264947 0.00247167 0.02566315 0.02022236 0.00258721 0.00656979 0.00136909 
0.03364892 0.09090547 0.01746169 0.00432522 0.00107070 0.00390276 0.02648505 0.00596956 0.02716340 0.00261220 0.00245733 0.02563043 0.02027223 0.00259159 0.00659433 0.00136964 
0.03289640 0.09078080 0.01808891 0.00437752 0.00104625 0.00389212 0.02630603 0.00587522 0.02654037 0.00257699 0.00244542 0.02560999 0.02030327 0.00259372 0.00661345 0.00137015 
0.03213053 0.09067361 0.01870147 0.00443247 0.00102401 0.00388182 0.02610916 0.00579710 0.02597825 0.00254410 0.00243604 0.02560255 0.02031568 0.00259358 0.00662731 0.00137063 
0.03135502 0.09058216 0.01929689 0.00448991 0.00100408 0.00387194 0.02589532 0.00573539 0.02547935 0.00251379 0.00242930 0.02560881 0.02030972 0.00259121 0.00663607 0.00137109 
0.03057356 0.09050445 0.01987276 0.00454966 0.00098656 0.00386252 0.02566551 0.00569021 0.02504565 0.00248630 0.00242528 0.02562943 0.02028578 0.00258661 0.00663990 0.00137153 
0.02978978 0.09043826 0.02042674 0.00461149 0.00097156 0.00385363 0.02542083 0.00566164 0.02467876 0.00246188 0.00242407 0.02566507 0.02024430 0.00257984 0.00663897 0.00137198 
0.02900728 0.09038113 0.02095657 0.00467517 0.00095913 0.00384532 0.02516246 0.00564967 0.02437995 0.00244077 0.00242575 0.02571635 0.02018585 0.00257093 0.00663349 0.00137242 
0.02822955 0.09033041 0.02146008 0.00474044 0.00094935 0.00383764 0.02489166 0.00565426 0.02415012 0.00242318 0.00243038 0.02578385 0.02011105 0.00255993 0.00662365 0.00137288 
0.02745999 0.09028328 0.02193521 0.00480699 0.00094227 0.00383064 0.02460977 0.00567529 0.02398981 0.00240932 0.00243802 0.02586810 0.02002060 0.00254692 0.00660965 0.00137335 
0.02670190 0.09023673 0.02238000 0.00487452 0.00093793 0.00382435 0.02431820 0.00571258 0.02389923 0.00239940 0.00244872 0.02596961 0.01991530 0.00253196 0.00659173 0.00137385 
0.02595845 0.09018762 0.02279262 0.00494270 0.00093636 0.00381882 0.02401841 0.00576591 0.02387818 0.00239358 0.00246250 0.02608883 0.01979599 0.00251514 0.00657008 0.00137437 
0.02523267 0.09013269 0.02317137 0.00501118 0.00093758 0.00381408 0.02371192 0.00583497 0.02392616 0.00239204 0.00247939 0.02622613 0.01966358 0.00249654 0.00654493 0.00137492 
0.02452744 0.09006860 0.02351470 0.00507958 0.00094158 0.00381016 0.02340027 0.00591942 0.02404230 0.00239491 0.00249940 0.02638187 0.01951905 0.00247627 0.00651651 0.00137551 
0.02384550 0.08999193 0.02382119 0.00514752 0.00094836 0.00380707 0.02308506 0.00601887 0.02422539 0.00240231 0.00252252 0.02655632 0.01936339 0.00245443 0.00648503 0.00137613 
0.02318941 0.08989924 0.02408958 0.00521462 0.00095789 0.00380484 0.02276790 0.00613286 0.02447391 0.00241434 0.00254873 0.02674968 0.01919766 0.00243113 0.00645072 0.00137680 
0.02256155 0.08978706 0.02431877 0.00528048 0.00097014 0.00380347 0.02245040 0.00626090 0.02478600 0.00243107 0.00257800 0.02696211 0.01902295 0.00240648 0.00641379 0.00137750 
0.02196415 0.08965197 0.02450783 0.00534467 0.00098507 0.00380297 0.02213419 0.00640243 0.02515951 0.00245255 0.00261027 0.02719366 0.01884037 0.00238061 0.00637447 0.00137824 
0.02139924 0.08949058 0.02465600 0.00540681 0.00100261 0.00380334 0.02182087 0.00655687 0.02559201 0.00247881 0.00264549 0.02744435 0.01865104 0.00235365 0.00633296 0.00137903 
0.02086868 0.08929958 0.02476269 0.00546646 0.00102269 0.00380458 0.02151205 0.00672358 0.02608077 0.00250984 0.00268357 0.02771410 0.01845610 0.00232572 0.00628948 0.00137985 
0.02037415 0.08907579 0.02482747 0.00552323 0.00104523 0.00380666 0.02120929 0.00690189 0.02662284 0.00254562 0.00272441 0.02800276 0.01825668 0.00229697 0.00624424 0.00138070 
0.01991713 0.08881617 0.02485011 0.00557671 0.00107015 0.00380957 0.02091410 0.00709108 0.02721499 0.00258608 0.00276791 0.02831010 0.01805390 0.00226752 0.00619743 0.00138159 
0.01949894 0.08851785 0.02483055 0.00562651 0.00109733 0.00381328 0.02062797 0.00729042 0.02785379 0.00263114 0.00281394 0.02863582 0.01784887 0.00223751 0.00614926 0.00138250 
0.01912073 0.08817815 0.02476891 0.00567224 0.00112667 0.00381776 0.02035231 0.00749913 0.02853562 0.00268068 0.00286236 0.02897954 0.01764268 0.00220709 0.00609990 0.00138343 
0.01878344 0.08779465 0.02466550 0.00571354 0.00115804 0.00382297 0.02008846 0.00771640 0.02925664 0.00273458 0.00291302 0.02934079 0.01743636 0.00217640 0.00604955 0.00138438 
0.01848788 0.08736517 0.02452077 0.00575005 0.00119132 0.00382887 0.01983769 0.00794141 0.03001290 0.00279265 0.00296574 0.02971902 0.01723095 0.00214558 0.00599837 0.00138534 
0.01823470 0.08688783 0.02433538 0.00578145 0.00122635 0.00383539 0.01960118 0.00817332 0.03080027 0.00285470 0.00302034 0.03011363 0.01702738 0.00211476 0.00594655 0.00138629 
0.01802437 0.08636104 0.02411015 0.00580742 0.00126301 0.00384248 0.01938001 0.00841125 0.03161452 0.00292052 0.00307663 0.03052392 0.01682658 0.00208410 0.00589423 0.00138725 
0.01785723 0.08578357 0.02384605 0.00582767 0.00130112 0.00385008 0.01917517 0.00865432 0.03245131 0.00298985 0.00313440 0.03094912 0.01662937 0.00205372 0.00584159 0.00138819 
0.01773349 0.08515453 0.02354423 0.00584196 0.00134054 0.00385811 0.01898752 0.00890165 0.03330625 0.00306243 0.00319343 0.03138839 0.01643655 0.00202377 0.00578877 0.00138910 
0.01765320 0.08447341 0.02320598 0.00585005 0.00138109 0.00386650 0.01881782 0.00915233 0.03417488 0.00313796 0.00325348 0.03184081 0.01624882 0.00199438 0.00573591 0.00138998 
0.01761632 0.08374008 0.02283274 0.00585174 0.00142260 0.00387516 0.01866671 0.00940546 0.03505270 0.00321613 0.00331432 0.03230541 0.01606680 0.00196567 0.00568315 0.00139082 
0.01762269 0.08295483 0.02242610 0.00584687 0.00146491 0.00388401 0.01853468 0.00966013 0.03593523 0.00329659 0.00337570 0.03278113 0.01589103 0.00193778 0.00563062 0.00139161 
0.01767203 0.08211835 0.02198777 0.00583530 0.00150783 0.00389294 0.01842213 0.00991543 0.03681797 0.00337901 0.00343736 0.03326689 0.01572198 0.00191082 0.00557845 0.00139234 
0.01776400 0.08123178 0.02151959 0.00581695 0.00155117 0.00390188 0.01832928 0.01017047 0.03769649 0.00346301 0.00349904 0.03376150 0.01556002 0.00188492 0.00552676 0.00139300 
0.01789814 0.08029664 0.02102350 0.00579174 0.00159477 0.00391070 0.01825626 0.01042435 0.03856639 0.00354819 0.00356047 0.03426375 0.01540542 0.00186018 0.00547566 0.00139358 
0.01807393 0.07931494 0.02050155 0.00575965 0.00163843 0.00391932 0.01820302 0.01067620 0.03942335 0.00363418 0.00362138 0.03477239 0.01525838 0.00183671 0.00542527 0.00139406 
0.01829080 0.07828906 0.01995590 0.00572071 0.00168196 0.00392762 0.01816940 0.01092514 0.04026314 0.00372055 0.00368148 0.03528610 0.01511899 0.00181462 0.00537568 0.00139445 
0.01854810 0.07722186 0.01938876 0.00567495 0.00172520 0.00393550 0.01815509 0.01117032 0.04108166 0.00380689 0.00374052 0.03580353 0.01498725 0.00179399 0.00532700 0.00139473 
0.01884513 0.07611657 0.01880244 0.00562247 0.00176795 0.00394285 0.01815966 0.01141094 0.04187493 0.00389278 0.00379821 0.03632330 0.01486308 0.00177492 0.00527933 0.00139489 
0.01918115 0.07497685 0.01819929 0.00556340 0.00181003 0.00394955 0.01818254 0.01164617 0.04263912 0.00397779 0.00385427 0.03684400 0.01474629 0.00175748 0.00523277 0.00139493 
0.01955540 0.07380675 0.01758170 0.00549789 0.00185127 0.00395549 0.01822301 0.01187524 0.04337058 0.00406150 0.00390844 0.03736419 0.01463663 0.00174175 0.00518739 0.00139483 
0.01996706 0.07261067 0.01695213 0.00542614 0.00189150 0.00396057 0.01828026 0.01209741 0.04406583 0.00414349 0.00396045 0.03788244 0.01453374 0.00172780 0.00514330 0.00139460 
0.02041530 0.07139340 0.01631303 0.00534839 0.00193055 0.00396467 0.01835333 0.01231196 0.04472157 0.00422333 0.00401004 0.03839728 0.01443719 0.00171567 0.00510058 0.00139421 
0.02089929 0.07016001 0.01566688 0.00526489 0.00196825 0.00396770 0.01844117 0.01251821 0.04533476 0.00430061 0.00405696 0.03890724 0.01434648 0.00170544 0.00505930 0.00139368 
0.02141814 0.06891591 0.01501615 0.00517596 0.00200446 0.00396955 0.01854261 0.01271552 0.04590254 0.00437492 0.00410096 0.03941086 0.01426104 0.00169713 0.00501956 0.00139299 
0.02197097 0.06766676 0.01436330 0.00508190 0.00203902 0.00397013 0.01865638 0.01290328 0.04642231 0.00444587 0.00414181 0.03990668 0.01418022 0.00169078 0.00498142 0.00139214 
0.02255690 0.06641844 0.01371077 0.00498309 0.00207179 0.00396934 0.01878112 0.01308094 0.04689171 0.00451309 0.00417929 0.04039327 0.01410333 0.00168642 0.00494497 0.00139112 
0.02317502 0.06517706 0.01306097 0.00487989 0.00210263 0.00396709 0.01891540 0.01324798 0.04730864 0.00457621 0.00421319 0.04086920 0.01402963 0.00168407 0.00491029 0.00138994 
0.02382442 0.06394888 0.01241624 0.00477272 0.00213144 0.00396332 0.01905772 0.01340392 0.04767126 0.00463488 0.00424330 0.04133308 0.01395832 0.00168375 0.00487743 0.00138859 
0.02450418 0.06274027 0.01177889 0.00466199 0.00215808 0.00395794 0.01920650 0.01354834 0.04797801 0.00468878 0.00426946 0.04178353 0.01388858 0.00168544 0.00484648 0.00138707 
0.02521335 0.06155770 0.01115116 0.00454815 0.00218246 0.00395090 0.01936012 0.01368087 0.04822762 0.00473762 0.00429150 0.04221925 0.01381957 0.00168916 0.00481749 0.00138538 
0.02595101 0.06040766 0.01053519 0.00443167 0.00220449 0.00394214 0.01951694 0.01380118 0.04841908 0.00478111 0.00430927 0.04263893 0.01375041 0.00169489 0.00479055 0.00138353 
0.02671618 0.05929665 0.00993307 0.00431300 0.00222408 0.00393163 0.01967528 0.01390899 0.04855170 0.00481901 0.00432265 0.04304136 0.01368022 0.00170260 0.00476570 0.00138152 
0.02750790 0.05823108 0.00934676 0.00419264 0.00224116 0.00391933 0.01983344 0.01400409 0.04862505 0.00485109 0.00433152 0.04342535 0.01360814 0.00171227 0.00474300 0.00137935 
0.02832517 0.05721731 0.00877814 0.00407108 0.00225567 0.00390523 0.01998973 0.01408631 0.04863903 0.00487717 0.00433581 0.04378979 0.01353330 0.00172388 0.00472252 0.00137703 
0.02916696 0.05626152 0.00822897 0.00394880 0.00226757 0.00388931 0.02014246 0.01415553 0.04859381 0.00489707 0.00433544 0.04413363 0.01345486 0.00173736 0.00470431 0.00137455 
0.03003224 0.05536970 0.00770091 0.00382630 0.00227683 0.00387159 0.02028999 0.01421170 0.04848986 0.00491068 0.00433036 0.04445588 0.01337199 0.00175268 0.00468840 0.00137194 
0.03091993 0.05454761 0.00719547 0.00370408 0.00228342 0.00385208 0.02043069 0.01425480 0.04832795 0.00491790 0.00432055 0.04475563 0.01328391 0.00176979 0.00467485 0.00136919 
0.03182891 0.05380072 0.00671406 0.00358262 0.00228734 0.00383083 0.02056298 0.01428488 0.04810912 0.00491866 0.00430602 0.04503206 0.01318991 0.00178861 0.00466369 0.00136632 
0.03275802 0.05313417 0.00625793 0.00346241 0.00228858 0.00380788 0.02068537 0.01430205 0.04783472 0.00491294 0.00428678 0.04528442 0.01308929 0.00180908 0.00465495 0.00136332 
0.03370607 0.05255275 0.00582822 0.00334392 0.00228718 0.00378328 0.02079642 0.01430646 0.04750637 0.00490074 0.00426287 0.04551204 0.01298146 0.00183114 0.00464866 0.00136023 
0.03467181 0.05206079 0.00542591 0.00322760 0.00228315 0.00375714 0.02089477 0.01429831 0.04712594 0.00488211 0.00423436 0.04571436 0.01286585 0.00185469 0.00464482 0.00135704 
0.03565394 0.05166222 0.00505186 0.00311391 0.00227654 0.00372952 0.02097917 0.01427786 0.04669559 0.00485711 0.00420135 0.04589089 0.01274203 0.00187965 0.00464346 0.00135376 
0.03665108 0.05136045 0.00470677 0.00300327 0.00226741 0.00370055 0.02104847 0.01424543 0.04621774 0.00482586 0.00416393 0.04604125 0.01260960 0.00190595 0.00464457 0.00135041 
0.03766183 0.05115837 0.00439120 0.00289608 0.00225582 0.00367035 0.02110163 0.01420135 0.04569502 0.00478850 0.00412224 0.04616514 0.01246830 0.00193347 0.00464815 0.00134700 
0.03868469 0.05105832 0.00410558 0.00279273 0.00224186 0.00363905 0.02113775 0.01414603 0.04513034 0.00474521 0.00407644 0.04626237 0.01231793 0.00196213 0.00465417 0.00134355 
0.03971811 0.05106208 0.00385019 0.00269358 0.00222560 0.00360681 0.02115603 0.01407993 0.04452678 0.00469619 0.00402671 0.04633284 0.01215842 0.00199183 0.00466261 0.00134006 
0.04076046 0.05117080 0.00362517 0.00259896 0.00220716 0.00357378 0.02115586 0.01400352 0.04388768 0.00464168 0.00397323 0.04637656 0.01198980 0.00202245 0.00467343 0.00133655 
0.04181005 0.05138500 0.00343051 0.00250919 0.00218665 0.00354014 0.02113672 0.01391733 0.04321652 0.00458196 0.00391622 0.04639362 0.01181220 0.00205390 0.00468659 0.00133304 
0.04286512 0.05170459 0.00326610 0.00242455 0.00216418 0.00350609 0.02109827 0.01382193 0.04251699 0.00451731 0.00385591 0.04638424 0.01162589 0.00208605 0.00470202 0.00132954 
0.04392381 0.05212879 0.00313166 0.00234527 0.00213988 0.00347182 0.02104033 0.01371792 0.04179293 0.00444807 0.00379256 0.04634869 0.01143123 0.00211881 0.00471965 0.00132605 
0.04498423 0.05265620 0.00302681 0.00227159 0.00211391 0.00343755 0.02096286 0.01360593 0.04104834 0.00437457 0.00372643 0.04628739 0.01122871 0.00215206 0.00473940 0.00132261 
0.04604439 0.05328473 0.00295103 0.00220369 0.00208639 0.00340348 0.02086598 0.01348662 0.04028731 0.00429719 0.00365780 0.04620082 0.01101893 0.00218568 0.00476117 0.00131921 
0.04710225 0.05401162 0.00290372 0.00214172 0.00205749 0.00336985 0.02074998 0.01336067 0.03951406 0.00421632 0.00358697 0.04608957 0.01080262 0.00221956 0.00478486 0.00131588 
0.04815570 0.05483348 0.00288412 0.00208581 0.00202737 0.00333690 0.02061529 0.01322880 0.03873289 0.00413237 0.00351425 0.04595431 0.01058060 0.00225358 0.00481035 0.00131262 
0.04920257 0.05574627 0.00289141 0.00203604 0.00199619 0.00330485 0.02046253 0.01309172 0.03794816 0.00404577 0.00343995 0.04579581 0.01035384 0.00228763 0.00483751 0.00130946 
0.05024064 0.05674530 0.00292465 0.00199249 0.00196412 0.00327396 0.02029244 0.01295018 0.03716429 0.00395695 0.00336441 0.04561490 0.01012337 0.00232159 0.00486620 0.00130639 
0.05126764 0.05782530 0.00298282 0.00195516 0.00193133 0.00324447 0.02010592 0.01280493 0.03638570 0.00386636 0.00328795 0.04541252 0.00989035 0.00235536 0.00489626 0.00130344 
0.05228126 0.05898039 0.00306482 0.00192407 0.00189800 0.00321661 0.01990403 0.01265673 0.03561684 0.00377446 0.00321092 0.04518967 0.00965603 0.00238881 0.00492753 0.00130062 
0.05327915 0.06020415 0.00316946 0.00189916 0.00186431 0.00319064 0.01968794 0.01250635 0.03486211 0.00368172 0.00313366 0.04494742 0.00942177 0.00242185 0.00495984 0.00129793 
0.05425894 0.06148964 0.00329550 0.00188038 0.00183044 0.00316680 0.01945897 0.01235455 0.03412588 0.00358861 0.00305654 0.04468691 0.00918898 0.00245436 0.00499300 0.00129539 
0.05521826 0.06282942 0.00344164 0.00186763 0.00179656 0.00314532 0.01921856 0.01220210 0.03341247 0.00349559 0.00297988 0.04440933 0.00895916 0.00248623 0.00502683 0.00129301 
0.05615471 0.06421563 0.00360654 0.00186078 0.00176285 0.00312644 0.01896826 0.01204975 0.03272609 0.00340313 0.00290405 0.04411594 0.00873389 0.00251738 0.00506112 0.00129079 
0.05706590 0.06563999 0.00378879 0.00185969 0.00172948 0.00311037 0.01870972 0.01189824 0.03207084 0.00331169 0.00282938 0.04380804 0.00851478 0.00254769 0.00509566 0.00128874 
0.05794947 0.06709390 0.00398698 0.00186419 0.00169664 0.00309733 0.01844467 0.01174831 0.03145072 0.00322174 0.00275623 0.04348695 0.00830350 0.00257708 0.00513025 0.00128687 
0.05880307 0.06856843 0.00419965 0.00187406 0.00166448 0.00308752 0.01817494 0.01160066 0.03086953 0.00313370 0.00268492 0.04315406 0.00810177 0.00260546 0.00516466 0.00128519 
0.05962440 0.07005443 0.00442534 0.00188910 0.00163318 0.00308114 0.01790241 0.01145599 0.03033094 0.00304803 0.00261578 0.04281075 0.00791131 0.00263274 0.00519866 0.00128370 
0.06041121 0.07154255 0.00466256 0.00190907 0.00160288 0.00307834 0.01762901 0.01131497 0.02983840 0.00296512 0.00254914 0.04245844 0.00773385 0.00265885 0.00523205 0.00128240 
0.06116131 0.07302333 0.00490984 0.00193370 0.00157375 0.00307929 0.01735673 0.01117822 0.02939515 0.00288540 0.00248529 0.04209856 0.00757115 0.00268371 0.00526458 0.00128130 
0.06187258 0.07448724 0.00516571 0.00196273 0.00154593 0.00308413 0.01708756 0.01104636 0.02900420 0.00280924 0.00242452 0.04173253 0.00742493 0.00270725 0.00529604 0.00128040 
0.06254299 0.07592472 0.00542870 0.00199586 0.00151956 0.00309298 0.01682351 0.01091996 0.02866832 0.00273700 0.00236713 0.04136178 0.00729689 0.00272940 0.00532620 0.00127970 
0.06317061 0.07732629 0.00569739 0.00203279 0.00149476 0.00310594 0.01656658 0.01079955 0.02838998 0.00266902 0.00231336 0.04098770 0.00718870 0.00275012 0.00535483 0.00127921 
0.06375362 0.07868260 0.00597034 0.00207323 0.00147166 0.00312308 0.01631875 0.01068561 0.02817140 0.00260561 0.00226347 0.04061168 0.00710197 0.00276935 0.00538172 0.00127891 
0.06429032 0.07998445 0.00624619 0.00211684 0.00145037 0.00314446 0.01608197 0.01057862 0.02801448 0.00254707 0.00221768 0.04023508 0.00703825 0.00278704 0.00540666 0.00127881 
0.06477914 0.08122292 0.00652359 0.00216331 0.00143099 0.00317011 0.01585813 0.01047896 0.02792081 0.00249364 0.00217620 0.03985921 0.00699902 0.00280316 0.00542944 0.00127891 
0.06521865 0.08238936 0.00680124 0.00221231 0.00141361 0.00320003 0.01564906 0.01038699 0.02789167 0.00244557 0.00213920 0.03948535 0.00698565 0.00281768 0.00544987 0.00127920 
0.06560758 0.08347551 0.00707788 0.00226351 0.00139831 0.00323420 0.01545652 0.01030303 0.02792798 0.00240304 0.00210686 0.03911471 0.00699944 0.00283057 0.00546775 0.00127968 
0.06594480 0.08447352 0.00735233 0.00231659 0.00138516 0.00327258 0.01528217 0.01022732 0.02803034 0.00236622 0.00207931 0.03874844 0.00704155 0.00284181 0.00548291 0.00128034 
0.06622937 0.08537602 0.00762344 0.00237121 0.00137421 0.00331508 0.01512755 0.01016008 0.02819899 0.00233526 0.00205667 0.03838765 0.00711303 0.00285139 0.00549519 0.00128118 
0.06646051 0.08617616 0.00789013 0.00242707 0.00136552 0.00336162 0.01499411 0.01010145 0.02843382 0.00231024 0.00203902 0.03803335 0.00721479 0.00285930 0.00550443 0.00128219 
0.06663760 0.08686767 0.00815137 0.00248384 0.00135911 0.00341206 0.01488315 0.01005152 0.02873435 0.00229125 0.00202644 0.03768648 0.00734761 0.00286555 0.00551051 0.00128336 
0.06676025 0.08744490 0.00840623 0.00254121 0.00135501 0.00346625 0.01479584 0.01001035 0.02909975 0.00227831 0.00201896 0.03734790 0.00751210 0.00287014 0.00551330 0.00128468 
0.06682820 0.08790288 0.00865381 0.00259890 0.00135323 0.00352401 0.01473318 0.00997791 0.02952883 0.00227142 0.00201659 0.03701837 0.00770871 0.00287308 0.00551271 0.00128616 
0.06684143 0.08823730 0.00889330 0.00265660 0.00135377 0.00358514 0.01469604 0.00995413 0.03002004 0.00227056 0.00201933 0.03669859 0.00793772 0.00287440 0.00550864 0.00128776 
0.06680007 0.08844463 0.00912395 0.00271405 0.00135660 0.00364939 0.01468509 0.00993889 0.03057149 0.00227566 0.00202713 0.03638912 0.00819926 0.00287411 0.00550103 0.00128949 
0.06670445 0.08852205 0.00934508 0.00277099 0.00136172 0.00371652 0.01470084 0.00993201 0.03118093 0.00228662 0.00203992 0.03609045 0.00849326 0.00287225 0.00548983 0.00129134 
0.06655511 0.08846756 0.00955611 0.00282718 0.00136907 0.00378625 0.01474362 0.00993324 0.03184578 0.00230332 0.00205763 0.03580298 0.00881945 0.00286885 0.00547502 0.00129329 
0.06635275 0.08827993 0.00975649 0.00288237 0.00137862 0.00385827 0.01481358 0.00994230 0.03256314 0.00232558 0.00208013 0.03552699 0.00917741 0.00286396 0.00545660 0.00129534 
0.06609825 0.08795874 0.00994576 0.00293636 0.00139030 0.00393227 0.01491068 0.00995885 0.03332979 0.00235323 0.00210729 0.03526267 0.00956650 0.00285761 0.00543457 0.00129747 
0.06579268 0.08750441 0.01012354 0.00298894 0.00140405 0.00400791 0.01503466 0.00998251 0.03414224 0.00238605 0.00213893 0.03501010 0.00998590 0.00284986 0.00540896 0.00129967 
0.06543728 0.08691813 0.01028950 0.00303996 0.00141979 0.00408482 0.01518511 0.01001283 0.03499668 0.00242379 0.00217487 0.03476929 0.01043462 0.00284075 0.00537984 0.00130192 
0.06503343 0.08620194 0.01044337 0.00308923 0.00143743 0.00416264 0.01536141 0.01004933 0.03588906 0.00246618 0.00221491 0.03454013 0.01091146 0.00283036 0.00534728 0.00130423 
0.06458270 0.08535864 0.01058498 0.00313663 0.00145688 0.00424098 0.01556275 0.01009149 0.03681511 0.00251293 0.00225881 0.03432242 0.01141504 0.00281873 0.00531138 0.00130656 
0.06408679 0.08439185 0.01071418 0.00318204 0.00147803 0.00431944 0.01578813 0.01013874 0.03777031 0.00256372 0.00230632 0.03411590 0.01194381 0.00280592 0.00527225 0.00130892 
0.06354753 0.08330590 0.01083091 0.00322535 0.00150076 0.00439761 0.01603640 0.01019048 0.03874995 0.00261822 0.00235718 0.03392021 0.01249604 0.00279201 0.00523002 0.00131129 
0.06296687 0.08210587 0.01093516 0.00326648 0.00152498 0.00447509 0.01630619 0.01024607 0.03974918 0.00267607 0.00241108 0.03373490 0.01306985 0.00277706 0.00518484 0.00131366 
0.06234691 0.08079755 0.01102696 0.00330536 0.00155053 0.00455145 0.01659599 0.01030486 0.04076298 0.00273691 0.00246775 0.03355948 0.01366317 0.00276114 0.00513689 0.00131601 
0.06168982 0.07938738 0.01110640 0.00334197 0.00157731 0.00462628 0.01690414 0.01036614 0.04178623 0.00280034 0.00252685 0.03339337 0.01427382 0.00274431 0.00508636 0.00131833 
0.06099788 0.07788238 0.01117363 0.00337626 0.00160516 0.00469917 0.01722879 0.01042920 0.04281372 0.00286599 0.00258807 0.03323596 0.01489946 0.00272665 0.00503344 0.00132062 
0.06027344 0.07629020 0.01122883 0.00340824 0.00163396 0.00476969 0.01756799 0.01049333 0.04384017 0.00293344 0.00265105 0.03308658 0.01553762 0.00270823 0.00497836 0.00132286 
0.05951892 0.07461895 0.01127221 0.00343792 0.00166357 0.00483744 0.01791965 0.01055776 0.04486031 0.00300228 0.00271546 0.03294452 0.01618574 0.00268911 0.00492133 0.00132504 
0.05873680 0.07287723 0.01130405 0.00346532 0.00169382 0.00490202 0.01828156 0.01062175 0.04586884 0.00307211 0.00278094 0.03280905 0.01684114 0.00266937 0.00486260 0.00132715 
0.05792960 0.07107405 0.01132463 0.00349049 0.00172459 0.00496305 0.01865140 0.01068455 0.04686051 0.00314249 0.00284713 0.03267942 0.01750105 0.00264907 0.00480243 0.00132918 
0.05709986 0.06921875 0.01133428 0.00351349 0.00175573 0.00502015 0.01902677 0.01074538 0.04783014 0.00321303 0.00291367 0.03255486 0.01816266 0.00262828 0.00474106 0.00133112 
0.05625017 0.06732096 0.01133336 0.00353440 0.00178708 0.00507296 0.01940522 0.01080351 0.04877264 0.00328331 0.00298019 0.03243461 0.01882307 0.00260707 0.00467876 0.00133296 
0.05538309 0.06539052 0.01132224 0.00355329 0.00181850 0.00512115 0.01978420 0.01085819 0.04968304 0.00335291 0.00304633 0.03231792 0.01947936 0.00258550 0.00461581 0.00133469 
0.05450121 0.06343741 0.01130131 0.00357028 0.00184984 0.00516440 0.02016115 0.01090868 0.05055655 0.00342144 0.00311174 0.03220405 0.02012859 0.00256363 0.00455247 0.00133631 
0.05360708 0.06147173 0.01127100 0.00358547 0.00188097 0.00520242 0.02053347 0.01095429 0.05138854 0.00348851 0.00317606 0.03209228 0.02076780 0.00254152 0.00448902 0.00133780 
0.05270324 0.05950355 0.01123172 0.00359899 0.00191174 0.00523495 0.02089856 0.01099431 0.05217461 0.00355374 0.00323893 0.03198196 0.02139407 0.00251922 0.00442574 0.00133916 
0.05179219 0.05754291 0.01118392 0.00361096 0.00194201 0.00526173 0.02125382 0.01102810 0.05291059 0.00361676 0.00330003 0.03187245 0.02200447 0.00249679 0.00436288 0.00134038 
0.05087641 0.05559974 0.01112804 0.00362152 0.00197166 0.00528256 0.02159667 0.01105503 0.05359258 0.00367723 0.00335902 0.03176319 0.02259616 0.00247427 0.00430072 0.00134145 
0.04995832 0.05368375 0.01106453 0.00363081 0.00200055 0.00529727 0.02192460 0.01107450 0.05421696 0.00373480 0.00341559 0.03165367 0.02316633 0.00245170 0.00423952 0.00134238 
0.04904027 0.05180444 0.01099385 0.00363899 0.00202856 0.00530570 0.02223513 0.01108596 0.05478042 0.00378918 0.00346943 0.03154344 0.02371227 0.00242914 0.00417953 0.00134316 
0.04812458 0.04997097 0.01091645 0.00364620 0.00205558 0.00530774 0.02252586 0.01108891 0.05528000 0.00384006 0.00352026 0.03143215 0.02423135 0.00240662 0.00412099 0.00134377 
0.04721348 0.04819214 0.01083278 0.00365260 0.00208149 0.00530332 0.02279449 0.01108289 0.05571306 0.00388718 0.00356781 0.03131951 0.02472108 0.00238416 0.00406414 0.00134423 
0.04630916 0.04647631 0.01074330 0.00365834 0.00210619 0.00529238 0.02303883 0.01106748 0.05607734 0.00393030 0.00361183 0.03120532 0.02517906 0.00236181 0.00400919 0.00134452 
0.04541372 0.04483136 0.01064844 0.00366357 0.00212959 0.00527493 0.02325680 0.01104234 0.05637094 0.00396918 0.00365209 0.03108949 0.02560306 0.00233958 0.00395634 0.00134464 
0.04452919 0.04326464 0.01054865 0.00366845 0.00215159 0.00525099 0.02344647 0.01100715 0.05659237 0.00400363 0.00368837 0.03097200 0.02599101 0.00231751 0.00390579 0.00134460 
0.04365755 0.04178290 0.01044434 0.00367313 0.00217212 0.00522063 0.02360605 0.01096169 0.05674051 0.00403349 0.00372051 0.03085294 0.02634098 0.00229560 0.00385771 0.00134438 
0.04280069 0.04039230 0.01033593 0.00367775 0.00219109 0.00518396 0.02373391 0.01090576 0.05681466 0.00405861 0.00374832 0.03073247 0.02665124 0.00227388 0.00381224 0.00134400 
0.04196043 0.03909831 0.01022384 0.00368245 0.00220846 0.00514110 0.02382862 0.01083924 0.05681450 0.00407889 0.00377168 0.03061090 0.02692026 0.00225236 0.00376954 0.00134346 
0.04113852 0.03790572 0.01010845 0.00368736 0.00222416 0.00509223 0.02388889 0.01076209 0.05674015 0.00409422 0.00379047 0.03048857 0.02714667 0.00223105 0.00372971 0.00134274 
0.04033668 0.03681858 0.00999014 0.00369261 0.00223815 0.00503757 0.02391368 0.01067429 0.05659209 0.00410457 0.00380460 0.03036597 0.02732935 0.00220995 0.00369284 0.00134187 
0.03955651 0.03584023 0.00986928 0.00369831 0.00225038 0.00497735 0.02390212 0.01057594 0.05637122 0.00410990 0.00381401 0.03024365 0.02746736 0.00218908 0.00365901 0.00134083 
0.03879960 0.03497322 0.00974623 0.00370457 0.00226083 0.00491185 0.02385355 0.01046714 0.05607883 0.00411020 0.00381867 0.03012226 0.02756001 0.00216844 0.00362828 0.00133963 
0.03806748 0.03421933 0.00962131 0.00371148 0.00226949 0.00484137 0.02376754 0.01034811 0.05571658 0.00410552 0.00381856 0.03000252 0.02760681 0.00214802 0.00360067 0.00133828 
0.03736159 0.03357957 0.00949486 0.00371914 0.00227633 0.00476626 0.02364387 0.01021911 0.05528649 0.00409590 0.00381370 0.02988523 0.02760749 0.00212784 0.00357619 0.00133679 
0.03668339 0.03305418 0.00936719 0.00372760 0.00228136 0.00468686 0.02348257 0.01008044 0.05479096 0.00408142 0.00380415 0.02977126 0.02756204 0.00210789 0.00355484 0.00133514 
0.03603425 0.03264261 0.00923857 0.00373693 0.00228458 0.00460357 0.02328387 0.00993250 0.05423268 0.00406220 0.00378995 0.02966155 0.02747063 0.00208818 0.00353657 0.00133336 
0.03541553 0.03234355 0.00910931 0.00374718 0.00228601 0.00451680 0.02304823 0.00977571 0.05361469 0.00403838 0.00377122 0.02955707 0.02733368 0.00206870 0.00352134 0.00133145 
0.03482856 0.03215494 0.00897966 0.00375838 0.00228566 0.00442697 0.02277635 0.00961057 0.05294032 0.00401011 0.00374806 0.02945885 0.02715183 0.00204947 0.00350907 0.00132942 
0.03427465 0.03207401 0.00884987 0.00377054 0.00228358 0.00433454 0.02246913 0.00943762 0.05221315 0.00397757 0.00372063 0.02936795 0.02692592 0.00203048 0.00349967 0.00132726 
0.03375507 0.03209726 0.00872018 0.00378367 0.00227979 0.00423997 0.02212772 0.00925746 0.05143702 0.00394097 0.00368908 0.02928545 0.02665701 0.00201174 0.00349302 0.00132500 
0.03327110 0.03222055 0.00859082 0.00379775 0.00227435 0.00414373 0.02175346 0.00907071 0.05061598 0.00390054 0.00365360 0.02921244 0.02634636 0.00199327 0.00348899 0.00132263 
0.03282400 0.03243908 0.00846199 0.00381276 0.00226730 0.00404630 0.02134790 0.00887807 0.04975430 0.00385651 0.00361441 0.02915000 0.02599541 0.00197507 0.00348745 0.00132018 
0.03241501 0.03274749 0.00833390 0.00382867 0.00225870 0.00394818 0.02091280 0.00868024 0.04885637 0.00380916 0.00357172 0.02909922 0.02560580 0.00195717 0.00348823 0.00131764 
0.03204539 0.03313983 0.00820673 0.00384540 0.00224862 0.00384987 0.02045009 0.00847797 0.04792674 0.00375876 0.00352578 0.02906115 0.02517934 0.00193958 0.00349116 0.00131503 
0.03171637 0.03360967 0.00808066 0.00386290 0.00223713 0.00375186 0.01996190 0.00827204 0.04697007 0.00370560 0.00347685 0.02903680 0.02471797 0.00192234 0.00349605 0.00131235 
0.03142919 0.03415012 0.00795585 0.00388108 0.00222429 0.00365463 0.01945052 0.00806326 0.04599107 0.00364999 0.00342520 0.02902714 0.02422383 0.00190547 0.00350272 0.00130963 
0.03118509 0.03475391 0.00783246 0.00389984 0.00221019 0.00355869 0.01891837 0.00785243 0.04499451 0.00359223 0.00337113 0.02903307 0.02369913 0.00188901 0.00351095 0.00130686 
0.03098529 0.03541340 0.00771064 0.00391907 0.00219492 0.00346451 0.01836805 0.00764040 0.04398518 0.00353267 0.00331493 0.02905545 0.02314626 0.00187301 0.00352053 0.00130406 
0.03083102 0.03612068 0.00759052 0.00393865 0.00217855 0.00337255 0.01780226 0.00742801 0.04296781 0.00347161 0.00325690 0.02909501 0.02256767 0.00185751 0.00353126 0.00130124 
0.03072350 0.03686763 0.00747223 0.00395845 0.00216118 0.00328327 0.01722379 0.00721610 0.04194714 0.00340941 0.00319737 0.02915242 0.02196592 0.00184257 0.00354292 0.00129841 
0.03066391 0.03764595 0.00735589 0.00397831 0.00214290 0.00319711 0.01663557 0.00700551 0.04092779 0.00334639 0.00313665 0.02922824 0.02134363 0.00182825 0.00355528 0.00129558 
0.03065343 0.03844724 0.00724162 0.00399809 0.00212380 0.00311448 0.01604056 0.00679709 0.03991429 0.00328290 0.00307507 0.02932292 0.02070350 0.00181463 0.00356814 0.00129277 
0.03069323 0.03926309 0.00712951 0.00401761 0.00210398 0.00303578 0.01544180 0.00659165 0.03891103 0.00321927 0.00301294 0.02943677 0.02004825 0.00180178 0.00358128 0.00128998 
0.03078442 0.04008508 0.00701967 0.00403671 0.00208353 0.00296138 0.01484236 0.00639000 0.03792224 0.00315583 0.00295060 0.02957000 0.01938063 0.00178978 0.00359450 0.00128723 
0.03092808 0.04090490 0.00691220 0.00405521 0.00206255 0.00289162 0.01424534 0.00619293 0.03695198 0.00309292 0.00288836 0.02972266 0.01870341 0.00177872 0.00360758 0.00128453 
0.03112523 0.04171440 0.00680717 0.00407293 0.00204114 0.00282682 0.01365382 0.00600119 0.03600408 0.00303085 0.00282654 0.02989469 0.01801933 0.00176871 0.00362034 0.00128188 
0.03137684 0.04250562 0.00670469 0.00408967 0.00201938 0.00276726 0.01307089 0.00581550 0.03508216 0.00296993 0.00276545 0.03008586 0.01733115 0.00175985 0.00363260 0.00127931 
0.03168381 0.04327088 0.00660481 0.00410525 0.00199739 0.00271319 0.01249959 0.00563656 0.03418957 0.00291047 0.00270539 0.03029579 0.01664156 0.00175223 0.00364419 0.00127682 
0.03204694 0.04400281 0.00650762 0.00411948 0.00197524 0.00266483 0.01194291 0.00546500 0.03332942 0.00285276 0.00264666 0.03052397 0.01595321 0.00174599 0.00365495 0.00127442 
0.03246695 0.04469445 0.00641319 0.00413215 0.00195303 0.00262237 0.01140375 0.00530144 0.03250451 0.00279707 0.00258952 0.03076973 0.01526869 0.00174125 0.00366473 0.00127212 
0.03294445 0.04533923 0.00632157 0.00414309 0.00193086 0.00258594 0.01088495 0.00514642 0.03171736 0.00274367 0.00253426 0.03103224 0.01459051 0.00173812 0.00367343 0.00126993 
0.03347992 0.04593110 0.00623284 0.00415210 0.00190880 0.00255567 0.01038923 0.00500046 0.03097017 0.00269279 0.00248111 0.03131055 0.01392109 0.00173673 0.00368092 0.00126787 
0.03407370 0.04646449 0.00614706 0.00415900 0.00188693 0.00253162 0.00991919 0.00486398 0.03026483 0.00264467 0.00243032 0.03160355 0.01326277 0.00173723 0.00368712 0.00126594 
0.03472599 0.04693441 0.00606426 0.00416361 0.00186535 0.00251382 0.00947727 0.00473739 0.02960290 0.00259950 0.00238210 0.03190998 0.01261775 0.00173974 0.00369197 0.00126415 
0.03543684 0.04733648 0.00598452 0.00416577 0.00184413 0.00250229 0.00906579 0.00462101 0.02898562 0.00255748 0.00233665 0.03222846 0.01198814 0.00174440 0.00369540 0.00126251 
0.03620609 0.04766693 0.00590787 0.00416530 0.00182334 0.00249696 0.00868689 0.00451510 0.02841388 0.00251877 0.00229414 0.03255748 0.01137590 0.00175135 0.00369740 0.00126102 
0.03703343 0.04792264 0.00583437 0.00416206 0.00180304 0.00249777 0.00834251 0.00441988 0.02788827 0.00248352 0.00225475 0.03289541 0.01078287 0.00176073 0.00369796 0.00125970 
0.03791832 0.04810119 0.00576405 0.00415592 0.00178331 0.00250460 0.00803443 0.00433548 0.02740901 0.00245185 0.00221859 0.03324053 0.01021074 0.00177266 0.00369709 0.00125855 
0.03886002 0.04820084 0.00569696 0.00414674 0.00176421 0.00251731 0.00776422 0.00426198 0.02697601 0.00242384 0.00218580 0.03359100 0.00966107 0.00178728 0.00369482 0.00125758 
0.03985756 0.04822056 0.00563313 0.00413440 0.00174579 0.00253570 0.00753322 0.00419937 0.02658888 0.00239959 0.00215645 0.03394489 0.00913526 0.00180473 0.00369123 0.00125679 
