0.01069382 0.00624865 0.00291930 0.00207643 0.00298472 0.00071836 0.00954471 0.00297485 0.02104528 0.00277997 0.01308146 0.00135567 0.00621425 0.05118144 0.01501349 0.00116480 
0.01054900 0.00646702 0.00294466 0.00204838 0.00329824 0.00075187 0.00970883 0.00294858 0.02028325 0.00285847 0.01267298 0.00136235 0.00620909 0.05110012 0.01505777 0.00119760 
0.01041695 0.00669702 0.00297365 0.00202018 0.00362755 0.00078568 0.00988672 0.00292286 0.01950326 0.00293760 0.01227116 0.00136832 0.00621945 0.05096152 0.01508558 0.00123214 
0.01029758 0.00693763 0.00300626 0.00199200 0.00397138 0.00081972 0.01007760 0.00289783 0.01870982 0.00301708 0.01187717 0.00137358 0.00624510 0.05076821 0.01509744 0.00126846 
0.01019076 0.00718778 0.00304249 0.00196403 0.00432847 0.00085393 0.01028063 0.00287358 0.01790755 0.00309662 0.01149208 0.00137813 0.00628576 0.05052308 0.01509400 0.00130662 
0.01009628 0.00744636 0.00308231 0.00193644 0.00469749 0.00088825 0.01049493 0.00285022 0.01710117 0.00317594 0.01111692 0.00138198 0.00634105 0.05022931 0.01507600 0.00134666 
0.01001389 0.00771224 0.00312568 0.00190942 0.00507711 0.00092262 0.01071954 0.00282785 0.01629549 0.00325474 0.01075263 0.00138513 0.00641054 0.04989035 0.01504426 0.00138860 
0.00994328 0.00798422 0.00317254 0.00188314 0.00546596 0.00095699 0.01095348 0.00280657 0.01549532 0.00333273 0.01040011 0.00138759 0.00649372 0.04950994 0.01499970 0.00143248 
0.00988407 0.00826111 0.00322280 0.00185777 0.00586267 0.00099132 0.01119573 0.00278647 0.01470551 0.00340959 0.01006015 0.00138938 0.00659004 0.04909204 0.01494329 0.00147831 
0.00983586 0.00854170 0.00327639 0.00183347 0.00626584 0.00102557 0.01144523 0.00276763 0.01393088 0.00348504 0.00973351 0.00139052 0.00669888 0.04864080 0.01487611 0.00152609 
0.00979819 0.00882474 0.00333318 0.00181040 0.00667406 0.00105970 0.01170090 0.00275012 0.01317620 0.00355875 0.00942083 0.00139103 0.00681958 0.04816059 0.01479928 0.00157581 
0.00977059 0.00910900 0.00339306 0.00178871 0.00708593 0.00109368 0.01196161 0.00273403 0.01244619 0.00363045 0.00912271 0.00139093 0.00695142 0.04765592 0.01471396 0.00162747 
0.00975252 0.00939322 0.00345588 0.00176855 0.00750003 0.00112748 0.01222624 0.00271940 0.01174545 0.00369982 0.00883964 0.00139026 0.00709366 0.04713141 0.01462138 0.00168102 
0.00974344 0.00967617 0.00352151 0.00175004 0.00791496 0.00116109 0.01249365 0.00270631 0.01107845 0.00376658 0.00857208 0.00138904 0.00724553 0.04659180 0.01452282 0.00173643 
0.00974279 0.00995662 0.00358977 0.00173330 0.00832930 0.00119448 0.01276270 0.00269479 0.01044951 0.00383046 0.00832037 0.00138731 0.00740623 0.04604188 0.01441954 0.00179364 
0.00974997 0.01023333 0.00366048 0.00171846 0.00874167 0.00122765 0.01303222 0.00268489 0.00986277 0.00389117 0.00808479 0.00138510 0.00757493 0.04548646 0.01431287 0.00185257 
0.00976439 0.01050513 0.00373346 0.00170560 0.00915068 0.00126057 0.01330108 0.00267665 0.00932215 0.00394845 0.00786557 0.00138247 0.00775081 0.04493036 0.01420412 0.00191316 
0.00978544 0.01077083 0.00380850 0.00169482 0.00955498 0.00129326 0.01356814 0.00267010 0.00883136 0.00400206 0.00766283 0.00137944 0.00793304 0.04437838 0.01409461 0.00197530 
0.00981251 0.01102932 0.00388540 0.00168619 0.00995322 0.00132570 0.01383228 0.00266525 0.00839385 0.00405177 0.00747667 0.00137606 0.00812077 0.04383522 0.01398564 0.00203888 
0.00984500 0.01127949 0.00396394 0.00167977 0.01034411 0.00135790 0.01409239 0.00266213 0.00801278 0.00409735 0.00730708 0.00137238 0.00831319 0.04330549 0.01387851 0.00210378 
0.00988231 0.01152029 0.00404388 0.00167561 0.01072635 0.00138985 0.01434740 0.00266074 0.00769103 0.00413860 0.00715402 0.00136844 0.00850948 0.04279369 0.01377446 0.00216985 
0.00992384 0.01175073 0.00412499 0.00167374 0.01109870 0.00142157 0.01459624 0.00266109 0.00743116 0.00417535 0.00701737 0.00136430 0.00870886 0.04230412 0.01367471 0.00223694 
0.00996903 0.01196987 0.00420703 0.00167418 0.01145996 0.00145306 0.01483791 0.00266316 0.00723541 0.00420742 0.00689698 0.00135999 0.00891055 0.04184093 0.01358044 0.00230489 
0.01001731 0.01217683 0.00428975 0.00167694 0.01180897 0.00148432 0.01507141 0.00266697 0.00710567 0.00423468 0.00679263 0.00135557 0.00911383 0.04140800 0.01349273 0.00237351 
0.01006815 0.01237080 0.00437291 0.00168200 0.01214460 0.00151538 0.01529582 0.00267249 0.00704348 0.00425701 0.00670406 0.00135109 0.00931799 0.04100900 0.01341265 0.00244260 
0.01012103 0.01255104 0.00445624 0.00168935 0.01246580 0.00154623 0.01551022 0.00267971 0.00704999 0.00427432 0.00663098 0.00134659 0.00952238 0.04064730 0.01334115 0.00251196 
0.01017547 0.01271689 0.00453949 0.00169894 0.01277155 0.00157688 0.01571378 0.00268861 0.00712601 0.00428653 0.00657303 0.00134213 0.00972639 0.04032599 0.01327911 0.00258136 
0.01023101 0.01286776 0.00462240 0.00171072 0.01306090 0.00160734 0.01590568 0.00269916 0.00727194 0.00429360 0.00652985 0.00133775 0.00992944 0.04004783 0.01322732 0.00265058 
0.01028724 0.01300314 0.00470471 0.00172462 0.01333295 0.00163762 0.01608519 0.00271134 0.00748781 0.00429552 0.00650103 0.00133350 0.01013104 0.03981523 0.01318650 0.00271935 
0.01034375 0.01312263 0.00478618 0.00174057 0.01358687 0.00166773 0.01625162 0.00272512 0.00777325 0.00429227 0.00648615 0.00132943 0.01033071 0.03963028 0.01315721 0.00278744 
0.01040019 0.01322588 0.00486654 0.00175847 0.01382191 0.00169766 0.01640433 0.00274047 0.00812752 0.00428391 0.00648475 0.00132556 0.01052806 0.03949466 0.01313997 0.00285458 
0.01045625 0.01331267 0.00494554 0.00177821 0.01403738 0.00172741 0.01654276 0.00275735 0.00854950 0.00427049 0.00649638 0.00132196 0.01072274 0.03940969 0.01313514 0.00292048 
0.01051163 0.01338283 0.00502295 0.00179967 0.01423265 0.00175699 0.01666639 0.00277574 0.00903766 0.00425208 0.00652055 0.00131865 0.01091447 0.03937629 0.01314299 0.00298488 
0.01056610 0.01343633 0.00509851 0.00182274 0.01440717 0.00178638 0.01677477 0.00279560 0.00959012 0.00422881 0.00655678 0.00131568 0.01110303 0.03939499 0.01316366 0.00304748 
0.01061942 0.01347318 0.00517201 0.00184726 0.01456049 0.00181558 0.01686752 0.00281690 0.01020466 0.00420080 0.00660457 0.00131306 0.01128823 0.03946592 0.01319719 0.00310800 
0.01067144 0.01349351 0.00524320 0.00187308 0.01469222 0.00184456 0.01694433 0.00283960 0.01087866 0.00416823 0.00666343 0.00131085 0.01146998 0.03958881 0.01324349 0.00316614 
0.01072201 0.01349755 0.00531189 0.00190006 0.01480205 0.00187333 0.01700494 0.00286367 0.01160921 0.00413127 0.00673286 0.00130905 0.01164822 0.03976299 0.01330234 0.00322161 
0.01077103 0.01348561 0.00537786 0.00192802 0.01488976 0.00190184 0.01704916 0.00288909 0.01239306 0.00409014 0.00681238 0.00130770 0.01182295 0.03998740 0.01337344 0.00327412 
0.01081842 0.01345807 0.00544091 0.00195679 0.01495521 0.00193008 0.01707687 0.00291581 0.01322665 0.00404506 0.00690150 0.00130681 0.01199422 0.04026059 0.01345635 0.00332337 
0.01086414 0.01341543 0.00550087 0.00198619 0.01499833 0.00195802 0.01708802 0.00294381 0.01410616 0.00399629 0.00699974 0.00130640 0.01216214 0.04058075 0.01355052 0.00336908 
0.01090819 0.01335825 0.00555755 0.00201604 0.01501917 0.00198562 0.01708259 0.00297307 0.01502748 0.00394411 0.00710665 0.00130648 0.01232686 0.04094571 0.01365530 0.00341096 
0.01095057 0.01328718 0.00561081 0.00204615 0.01501783 0.00201283 0.01706067 0.00300355 0.01598628 0.00388879 0.00722177 0.00130705 0.01248856 0.04135295 0.01376993 0.00344875 
0.01099134 0.01320293 0.00566049 0.00207634 0.01499452 0.00203962 0.01702239 0.00303523 0.01697802 0.00383065 0.00734466 0.00130813 0.01264748 0.04179965 0.01389357 0.00348218 
0.01103056 0.01310630 0.00570647 0.00210640 0.01494951 0.00206593 0.01696792 0.00306809 0.01799794 0.00377002 0.00747490 0.00130970 0.01280386 0.04228265 0.01402528 0.00351100 
0.01106831 0.01299815 0.00574863 0.00213616 0.01488317 0.00209172 0.01689754 0.00310211 0.01904116 0.00370722 0.00761208 0.00131176 0.01295801 0.04279857 0.01416404 0.00353498 
0.01110471 0.01287940 0.00578687 0.00216542 0.01479595 0.00211693 0.01681153 0.00313726 0.02010263 0.00364260 0.00775582 0.00131430 0.01311022 0.04334372 0.01430875 0.00355389 
0.01113988 0.01275104 0.00582111 0.00219399 0.01468837 0.00214149 0.01671026 0.00317354 0.02117721 0.00357653 0.00790573 0.00131731 0.01326083 0.04391423 0.01445825 0.00356754 
0.01117395 0.01261408 0.00585127 0.00222168 0.01456105 0.00216534 0.01659415 0.00321092 0.02225969 0.00350936 0.00806146 0.00132077 0.01341016 0.04450603 0.01461134 0.00357575 
0.01120708 0.01246960 0.00587732 0.00224833 0.01441465 0.00218842 0.01646366 0.00324939 0.02334480 0.00344147 0.00822267 0.00132464 0.01355857 0.04511487 0.01476673 0.00357836 
0.01123940 0.01231871 0.00589920 0.00227375 0.01424995 0.00221066 0.01631930 0.00328894 0.02442724 0.00337323 0.00838902 0.00132891 0.01370640 0.04573637 0.01492315 0.00357524 
0.01127109 0.01216256 0.00591691 0.00229777 0.01406776 0.00223197 0.01616163 0.00332954 0.02550176 0.00330501 0.00856021 0.00133355 0.01385397 0.04636608 0.01507925 0.00356628 
0.01130230 0.01200230 0.00593044 0.00232023 0.01386898 0.00225230 0.01599125 0.00337119 0.02656311 0.00323718 0.00873594 0.00133851 0.01400161 0.04699945 0.01523369 0.00355141 
0.01133319 0.01183912 0.00593981 0.00234099 0.01365456 0.00227157 0.01580880 0.00341387 0.02760615 0.00317011 0.00891591 0.00134375 0.01414963 0.04763192 0.01538514 0.00353059 
0.01136392 0.01167420 0.00594505 0.00235990 0.01342552 0.00228970 0.01561496 0.00345758 0.02862582 0.00310418 0.00909986 0.00134925 0.01429831 0.04825893 0.01553223 0.00350380 
0.01139465 0.01150875 0.00594621 0.00237682 0.01318293 0.00230661 0.01541043 0.00350228 0.02961720 0.00303973 0.00928750 0.00135494 0.01444791 0.04887595 0.01567366 0.00347106 
0.01142552 0.01134395 0.00594335 0.00239163 0.01292791 0.00232223 0.01519596 0.00354797 0.03057552 0.00297711 0.00947858 0.00136078 0.01459864 0.04947852 0.01580811 0.00343244 
0.01145666 0.01118099 0.00593655 0.00240423 0.01266164 0.00233649 0.01497231 0.00359464 0.03149620 0.00291666 0.00967284 0.00136671 0.01475069 0.05006229 0.01593432 0.00338804 
0.01148820 0.01102100 0.00592591 0.00241451 0.01238532 0.00234932 0.01474029 0.00364226 0.03237488 0.00285871 0.00987003 0.00137269 0.01490420 0.05062305 0.01605109 0.00333798 
0.01152024 0.01086514 0.00591154 0.00242240 0.01210019 0.00236064 0.01450070 0.00369081 0.03320744 0.00280355 0.01006990 0.00137866 0.01505927 0.05115675 0.01615724 0.00328245 
0.01155289 0.01071449 0.00589356 0.00242781 0.01180754 0.00237039 0.01425437 0.00374027 0.03398999 0.00275148 0.01027219 0.00138456 0.01521595 0.05165952 0.01625168 0.00322165 
0.01158621 0.01057011 0.00587210 0.00243070 0.01150868 0.00237850 0.01400216 0.00379062 0.03471897 0.00270276 0.01047665 0.00139032 0.01537423 0.05212774 0.01633341 0.00315586 
0.01162028 0.01043302 0.00584733 0.00243102 0.01120492 0.00238491 0.01374491 0.00384183 0.03539108 0.00265766 0.01068302 0.00139590 0.01553407 0.05255803 0.01640148 0.00308536 
0.01165513 0.01030417 0.00581940 0.00242874 0.01089761 0.00238956 0.01348349 0.00389386 0.03600336 0.00261641 0.01089104 0.00140123 0.01569536 0.05294728 0.01645505 0.00301050 
0.01169079 0.01018446 0.00578847 0.00242385 0.01058809 0.00239241 0.01321879 0.00394669 0.03655320 0.00257920 0.01110042 0.00140625 0.01585792 0.05329268 0.01649339 0.00293166 
0.01172726 0.01007473 0.00575474 0.00241634 0.01027772 0.00239341 0.01295165 0.00400027 0.03703832 0.00254622 0.01131090 0.00141089 0.01602155 0.05359174 0.01651585 0.00284928 
0.01176452 0.00997574 0.00571840 0.00240624 0.00996784 0.00239252 0.01268297 0.00405457 0.03745682 0.00251763 0.01152218 0.00141511 0.01618596 0.05384231 0.01652190 0.00276381 
0.01180255 0.00988819 0.00567964 0.00239357 0.00965981 0.00238970 0.01241361 0.00410954 0.03780716 0.00249357 0.01173394 0.00141884 0.01635084 0.05404258 0.01651114 0.00267578 
0.01184128 0.00981268 0.00563866 0.00237837 0.00935495 0.00238492 0.01214441 0.00416513 0.03808820 0.00247414 0.01194588 0.00142202 0.01651580 0.05419111 0.01648327 0.00258573 
0.01188065 0.00974974 0.00559568 0.00236071 0.00905456 0.00237817 0.01187624 0.00422129 0.03829919 0.00245942 0.01215766 0.00142460 0.01668042 0.05428682 0.01643812 0.00249424 
0.01192055 0.00969983 0.00555092 0.00234065 0.00875994 0.00236944 0.01160993 0.00427797 0.03843975 0.00244946 0.01236893 0.00142653 0.01684423 0.05432902 0.01637565 0.00240195 
0.01196088 0.00966330 0.00550458 0.00231827 0.00847234 0.00235870 0.01134630 0.00433511 0.03850991 0.00244430 0.01257933 0.00142775 0.01700669 0.05431741 0.01629592 0.00230952 
0.01200151 0.00964042 0.00545690 0.00229369 0.00819298 0.00234598 0.01108614 0.00439265 0.03851010 0.00244392 0.01278847 0.00142823 0.01716727 0.05425206 0.01619916 0.00221764 
0.01204229 0.00963135 0.00540808 0.00226699 0.00792304 0.00233127 0.01083025 0.00445052 0.03844111 0.00244830 0.01299597 0.00142791 0.01732535 0.05413342 0.01608568 0.00212703 
0.01208308 0.00963618 0.00535836 0.00223831 0.00766365 0.00231460 0.01057936 0.00450865 0.03830414 0.00245739 0.01320140 0.00142676 0.01748034 0.05396235 0.01595595 0.00203846 
0.01212369 0.00965491 0.00530795 0.00220778 0.00741591 0.00229599 0.01033421 0.00456698 0.03810076 0.00247111 0.01340434 0.00142474 0.01763157 0.05374004 0.01581052 0.00195270 
0.01216394 0.00968741 0.00525706 0.00217553 0.00718084 0.00227548 0.01009550 0.00462544 0.03783288 0.00248935 0.01360435 0.00142183 0.01777839 0.05346806 0.01565010 0.00187055 
0.01220365 0.00973350 0.00520591 0.00214171 0.00695941 0.00225311 0.00986389 0.00468394 0.03750279 0.00251197 0.01380097 0.00141799 0.01792012 0.05314834 0.01547548 0.00179283 
0.01224262 0.00979289 0.00515470 0.00210649 0.00675253 0.00222892 0.00964003 0.00474243 0.03711309 0.00253883 0.01399372 0.00141321 0.01805608 0.05278312 0.01528757 0.00172038 
0.01228063 0.00986519 0.00510363 0.00207002 0.00656105 0.00220298 0.00942450 0.00480081 0.03666672 0.00256975 0.01418214 0.00140746 0.01818559 0.05237499 0.01508739 0.00165404 
0.01231747 0.00994994 0.00505290 0.00203249 0.00638574 0.00217535 0.00921787 0.00485902 0.03616691 0.00260453 0.01436572 0.00140075 0.01830798 0.05192680 0.01487604 0.00159467 
0.01235294 0.01004659 0.00500268 0.00199405 0.00622729 0.00214610 0.00902067 0.00491697 0.03561717 0.00264295 0.01454396 0.00139306 0.01842258 0.05144170 0.01465471 0.00154311 
0.01238682 0.01015452 0.00495316 0.00195491 0.00608634 0.00211532 0.00883336 0.00497460 0.03502127 0.00268477 0.01471636 0.00138440 0.01852877 0.05092307 0.01442468 0.00150022 
0.01241889 0.01027301 0.00490451 0.00191523 0.00596343 0.00208310 0.00865640 0.00503183 0.03438320 0.00272975 0.01488241 0.00137478 0.01862593 0.05037455 0.01418728 0.00146684 
0.01244895 0.01040130 0.00485686 0.00187521 0.00585903 0.00204952 0.00849018 0.00508857 0.03370717 0.00277761 0.01504158 0.00136420 0.01871348 0.04979995 0.01394392 0.00144380 
0.01247679 0.01053855 0.00481037 0.00183503 0.00577351 0.00201470 0.00833504 0.00514477 0.03299756 0.00282807 0.01519337 0.00135269 0.01879090 0.04920327 0.01369605 0.00143193 
0.01250221 0.01068385 0.00476517 0.00179488 0.00570719 0.00197873 0.00819129 0.00520034 0.03225893 0.00288084 0.01533726 0.00134028 0.01885769 0.04858863 0.01344517 0.00143201 
0.01252502 0.01083624 0.00472136 0.00175495 0.00566026 0.00194172 0.00805920 0.00525523 0.03149594 0.00293560 0.01547276 0.00132698 0.01891342 0.04796027 0.01319279 0.00144480 
0.01254504 0.01099473 0.00467907 0.00171543 0.00563287 0.00190381 0.00793896 0.00530936 0.03071334 0.00299206 0.01559935 0.00131285 0.01895771 0.04732253 0.01294047 0.00147104 
0.01256210 0.01115828 0.00463837 0.00167649 0.00562504 0.00186509 0.00783073 0.00536268 0.02991597 0.00304988 0.01571655 0.00129793 0.01899024 0.04667977 0.01268976 0.00151143 
0.01257604 0.01132581 0.00459934 0.00163832 0.00563675 0.00182571 0.00773464 0.00541513 0.02910870 0.00310875 0.01582390 0.00128225 0.01901077 0.04603638 0.01244221 0.00156661 
0.01258672 0.01149621 0.00456204 0.00160109 0.00566785 0.00178578 0.00765073 0.00546665 0.02829640 0.00316833 0.01592093 0.00126589 0.01901913 0.04539675 0.01219935 0.00163718 
0.01259401 0.01166838 0.00452652 0.00156497 0.00571813 0.00174544 0.00757904 0.00551719 0.02748391 0.00322831 0.01600721 0.00124888 0.01901521 0.04476520 0.01196271 0.00172371 
0.01259780 0.01184117 0.00449281 0.00153012 0.00578728 0.00170482 0.00751951 0.00556672 0.02667604 0.00328836 0.01608233 0.00123131 0.01899898 0.04414598 0.01173376 0.00182668 
0.01259800 0.01201346 0.00446093 0.00149670 0.00587492 0.00166406 0.00747206 0.00561518 0.02587750 0.00334814 0.01614590 0.00121324 0.01897050 0.04354325 0.01151394 0.00194652 
0.01259453 0.01218411 0.00443088 0.00146486 0.00598058 0.00162328 0.00743656 0.00566255 0.02509288 0.00340735 0.01619755 0.00119473 0.01892990 0.04296102 0.01130463 0.00208359 
0.01258732 0.01235203 0.00440265 0.00143474 0.00610371 0.00158263 0.00741282 0.00570879 0.02432665 0.00346568 0.01623697 0.00117587 0.01887739 0.04240314 0.01110714 0.00223820 
0.01257635 0.01251610 0.00437622 0.00140647 0.00624367 0.00154224 0.00740062 0.00575388 0.02358311 0.00352281 0.01626385 0.00115674 0.01881328 0.04187326 0.01092272 0.00241055 
0.01256159 0.01267528 0.00435155 0.00138018 0.00639978 0.00150224 0.00739969 0.00579780 0.02286637 0.00357846 0.01627795 0.00113742 0.01873793 0.04137483 0.01075252 0.00260079 
0.01254305 0.01282852 0.00432858 0.00135597 0.00657124 0.00146276 0.00740969 0.00584053 0.02218032 0.00363234 0.01627903 0.00111799 0.01865181 0.04091105 0.01059761 0.00280898 
0.01252073 0.01297486 0.00430726 0.00133394 0.00675721 0.00142393 0.00743026 0.00588206 0.02152861 0.00368419 0.01626694 0.00109854 0.01855543 0.04048488 0.01045896 0.00303509 
0.01249469 0.01311335 0.00428750 0.00131420 0.00695677 0.00138589 0.00746100 0.00592239 0.02091463 0.00373375 0.01624152 0.00107917 0.01844939 0.04009897 0.01033743 0.00327901 
0.01246498 0.01324313 0.00426924 0.00129681 0.00716895 0.00134874 0.00750145 0.00596151 0.02034150 0.00378077 0.01620269 0.00105995 0.01833438 0.03975570 0.01023377 0.00354054 
0.01243167 0.01336339 0.00425236 0.00128185 0.00739270 0.00131261 0.00755114 0.00599942 0.01981203 0.00382503 0.01615041 0.00104099 0.01821113 0.03945712 0.01014861 0.00381938 
0.01239488 0.01347339 0.00423676 0.00126938 0.00762694 0.00127761 0.00760953 0.00603614 0.01932874 0.00386634 0.01608468 0.00102238 0.01808042 0.03920496 0.01008246 0.00411517 
0.01235470 0.01357247 0.00422233 0.00125943 0.00787052 0.00124385 0.00767607 0.00607167 0.01889381 0.00390449 0.01600557 0.00100420 0.01794313 0.03900062 0.01003570 0.00442742 
0.01231129 0.01366007 0.00420896 0.00125206 0.00812224 0.00121144 0.00775017 0.00610603 0.01850908 0.00393931 0.01591317 0.00098654 0.01780013 0.03884516 0.01000860 0.00475557 
0.01226477 0.01373568 0.00419650 0.00124727 0.00838087 0.00118046 0.00783120 0.00613923 0.01817606 0.00397067 0.01580764 0.00096949 0.01765238 0.03873928 0.01000127 0.00509897 
0.01221533 0.01379892 0.00418483 0.00124508 0.00864514 0.00115100 0.00791852 0.00617129 0.01789590 0.00399842 0.01568919 0.00095315 0.01750086 0.03868335 0.01001372 0.00545687 
0.01216315 0.01384948 0.00417382 0.00124549 0.00891375 0.00112316 0.00801146 0.00620223 0.01766941 0.00402245 0.01555809 0.00093758 0.01734657 0.03867738 0.01004580 0.00582843 
0.01210842 0.01388716 0.00416332 0.00124849 0.00918537 0.00109700 0.00810932 0.00623208 0.01749702 0.00404268 0.01541464 0.00092288 0.01719055 0.03872102 0.01009725 0.00621275 
0.01205135 0.01391185 0.00415318 0.00125405 0.00945864 0.00107259 0.00821140 0.00626085 0.01737883 0.00405904 0.01525921 0.00090911 0.01703383 0.03881360 0.01016768 0.00660881 
0.01199217 0.01392356 0.00414327 0.00126214 0.00973220 0.00104999 0.00831696 0.00628857 0.01731457 0.00407148 0.01509222 0.00089636 0.01687747 0.03895413 0.01025656 0.00701553 
0.01193110 0.01392240 0.00413344 0.00127272 0.01000467 0.00102926 0.00842527 0.00631527 0.01730363 0.00407997 0.01491413 0.00088469 0.01672252 0.03914125 0.01036325 0.00743177 
0.01186840 0.01390856 0.00412354 0.00128574 0.01027466 0.00101042 0.00853557 0.00634096 0.01734506 0.00408451 0.01472546 0.00087416 0.01657001 0.03937335 0.01048700 0.00785628 
0.01180432 0.01388237 0.00411344 0.00130113 0.01054080 0.00099352 0.00864713 0.00636568 0.01743760 0.00408510 0.01452677 0.00086484 0.01642097 0.03964848 0.01062693 0.00828776 
0.01173911 0.01384424 0.00410298 0.00131881 0.01080170 0.00097858 0.00875918 0.00638943 0.01757964 0.00408178 0.01431867 0.00085677 0.01627640 0.03996444 0.01078208 0.00872487 
0.01167304 0.01379469 0.00409205 0.00133871 0.01105600 0.00096561 0.00887097 0.00641226 0.01776930 0.00407460 0.01410182 0.00085000 0.01613725 0.04031877 0.01095136 0.00916618 
0.01160639 0.01373434 0.00408050 0.00136073 0.01130236 0.00095463 0.00898176 0.00643416 0.01800439 0.00406363 0.01387691 0.00084457 0.01600448 0.04070877 0.01113361 0.00961023 
0.01153944 0.01366391 0.00406821 0.00138479 0.01153946 0.00094562 0.00909080 0.00645516 0.01828248 0.00404895 0.01364468 0.00084052 0.01587894 0.04113153 0.01132760 0.01005552 
0.01147246 0.01358420 0.00405506 0.00141076 0.01176600 0.00093859 0.00919736 0.00647527 0.01860088 0.00403068 0.01340590 0.00083787 0.01576149 0.04158396 0.01153201 0.01050049 
0.01140572 0.01349612 0.00404095 0.00143854 0.01198072 0.00093351 0.00930075 0.00649450 0.01895666 0.00400892 0.01316139 0.00083665 0.01565288 0.04206280 0.01174545 0.01094357 
0.01133953 0.01340064 0.00402576 0.00146801 0.01218241 0.00093035 0.00940026 0.00651286 0.01934671 0.00398381 0.01291198 0.00083686 0.01555384 0.04256466 0.01196650 0.01138317 
0.01127415 0.01329883 0.00400940 0.00149905 0.01236990 0.00092907 0.00949522 0.00653035 0.01976772 0.00395551 0.01265854 0.00083851 0.01546501 0.04308606 0.01219369 0.01181767 
0.01120986 0.01319182 0.00399179 0.00153153 0.01254207 0.00092964 0.00958498 0.00654697 0.02021626 0.00392417 0.01240198 0.00084160 0.01538695 0.04362342 0.01242551 0.01224547 
0.01114694 0.01308081 0.00397285 0.00156531 0.01269786 0.00093200 0.00966894 0.00656272 0.02068874 0.00388996 0.01214319 0.00084613 0.01532018 0.04417313 0.01266044 0.01266494 
0.01108566 0.01296707 0.00395252 0.00160026 0.01283626 0.00093609 0.00974649 0.00657759 0.02118149 0.00385306 0.01188312 0.00085206 0.01526509 0.04473156 0.01289695 0.01307448 
0.01102628 0.01285190 0.00393074 0.00163623 0.01295634 0.00094184 0.00981710 0.00659158 0.02169076 0.00381368 0.01162272 0.00085939 0.01522204 0.04529507 0.01313351 0.01347250 
0.01096907 0.01273667 0.00390747 0.00167308 0.01305725 0.00094919 0.00988024 0.00660467 0.02221274 0.00377200 0.01136294 0.00086807 0.01519127 0.04586011 0.01336861 0.01385744 
0.01091428 0.01262278 0.00388267 0.00171068 0.01313818 0.00095806 0.00993544 0.00661683 0.02274363 0.00372824 0.01110474 0.00087808 0.01517296 0.04642315 0.01360077 0.01422777 
0.01086215 0.01251163 0.00385634 0.00174886 0.01319845 0.00096835 0.00998226 0.00662806 0.02327963 0.00368261 0.01084910 0.00088937 0.01516719 0.04698080 0.01382853 0.01458201 
0.01081292 0.01240469 0.00382845 0.00178748 0.01323741 0.00097998 0.01002031 0.00663833 0.02381697 0.00363533 0.01059698 0.00090188 0.01517396 0.04752976 0.01405049 0.01491872 
0.01076681 0.01230339 0.00379901 0.00182640 0.01325455 0.00099286 0.01004925 0.00664761 0.02435195 0.00358661 0.01034934 0.00091557 0.01519320 0.04806691 0.01426531 0.01523652 
0.01072404 0.01220920 0.00376805 0.00186546 0.01324940 0.00100688 0.01006877 0.00665588 0.02488096 0.00353668 0.01010711 0.00093036 0.01522473 0.04858931 0.01447172 0.01553409 
0.01068482 0.01212357 0.00373557 0.00190451 0.01322163 0.00102195 0.01007864 0.00666311 0.02540051 0.00348577 0.00987125 0.00094618 0.01526833 0.04909419 0.01466852 0.01581019 
0.01064933 0.01204791 0.00370163 0.00194342 0.01317098 0.00103795 0.01007864 0.00666926 0.02590724 0.00343409 0.00964265 0.00096298 0.01532368 0.04957903 0.01485459 0.01606364 
0.01061775 0.01198365 0.00366628 0.00198204 0.01309728 0.00105479 0.01006864 0.00667431 0.02639796 0.00338188 0.00942222 0.00098065 0.01539038 0.05004156 0.01502894 0.01629337 
0.01059025 0.01193215 0.00362957 0.00202022 0.01300049 0.00107235 0.01004854 0.00667822 0.02686968 0.00332936 0.00921081 0.00099913 0.01546797 0.05047973 0.01519064 0.01649838 
0.01056698 0.01189473 0.00359157 0.00205782 0.01288066 0.00109051 0.01001830 0.00668097 0.02731959 0.00327673 0.00900926 0.00101832 0.01555594 0.05089181 0.01533891 0.01667776 
0.01054808 0.01187268 0.00355237 0.00209472 0.01273793 0.00110917 0.00997792 0.00668251 0.02774513 0.00322422 0.00881837 0.00103814 0.01565369 0.05127634 0.01547306 0.01683072 
0.01053367 0.01186720 0.00351206 0.00213076 0.01257257 0.00112822 0.00992748 0.00668283 0.02814395 0.00317204 0.00863890 0.00105849 0.01576059 0.05163215 0.01559252 0.01695654 
0.01052387 0.01187944 0.00347074 0.00216583 0.01238492 0.00114753 0.00986709 0.00668190 0.02851399 0.00312039 0.00847156 0.00107928 0.01587596 0.05195839 0.01569687 0.01705463 
0.01051876 0.01191047 0.00342851 0.00219980 0.01217547 0.00116701 0.00979693 0.00667969 0.02885345 0.00306947 0.00831704 0.00110040 0.01599906 0.05225453 0.01578580 0.01712452 
0.01051842 0.01196128 0.00338549 0.00223255 0.01194476 0.00118654 0.00971720 0.00667618 0.02916080 0.00301947 0.00817594 0.00112177 0.01612913 0.05252033 0.01585914 0.01716581 
0.01052291 0.01203275 0.00334180 0.00226397 0.01169349 0.00120601 0.00962820 0.00667135 0.02943482 0.00297058 0.00804886 0.00114327 0.01626536 0.05275589 0.01591684 0.01717825 
0.01053228 0.01212568 0.00329757 0.00229393 0.01142243 0.00122531 0.00953025 0.00666519 0.02967456 0.00292296 0.00793629 0.00116482 0.01640694 0.05296163 0.01595901 0.01716169 
0.01054655 0.01224075 0.00325293 0.00232235 0.01113244 0.00124435 0.00942371 0.00665770 0.02987941 0.00287680 0.00783871 0.00118631 0.01655302 0.05313825 0.01598586 0.01711609 
0.01056574 0.01237855 0.00320802 0.00234912 0.01082451 0.00126302 0.00930901 0.00664887 0.03004902 0.00283224 0.00775652 0.00120764 0.01670275 0.05328678 0.01599776 0.01704154 
0.01058984 0.01253954 0.00316298 0.00237415 0.01049971 0.00128124 0.00918661 0.00663871 0.03018338 0.00278945 0.00769006 0.00122871 0.01685526 0.05340851 0.01599518 0.01693822 
0.01061883 0.01272407 0.00311795 0.00239734 0.01015919 0.00129890 0.00905703 0.00662723 0.03028278 0.00274855 0.00763960 0.00124944 0.01700971 0.05350505 0.01597875 0.01680644 
0.01065267 0.01293235 0.00307307 0.00241863 0.00980421 0.00131592 0.00892082 0.00661444 0.03034779 0.00270968 0.00760535 0.00126973 0.01716523 0.05357822 0.01594918 0.01664661 
0.01069131 0.01316449 0.00302850 0.00243794 0.00943610 0.00133222 0.00877856 0.00660038 0.03037928 0.00267296 0.00758747 0.00128950 0.01732100 0.05363014 0.01590733 0.01645925 
0.01073466 0.01342044 0.00298437 0.00245521 0.00905628 0.00134772 0.00863089 0.00658508 0.03037841 0.00263850 0.00758604 0.00130864 0.01747617 0.05366312 0.01585413 0.01624499 
0.01078265 0.01370003 0.00294083 0.00247037 0.00866624 0.00136236 0.00847846 0.00656857 0.03034662 0.00260641 0.00760106 0.00132709 0.01762997 0.05367968 0.01579066 0.01600455 
0.01083516 0.01400299 0.00289801 0.00248337 0.00826755 0.00137606 0.00832196 0.00655092 0.03028559 0.00257678 0.00763248 0.00134477 0.01778160 0.05368252 0.01571803 0.01573876 
0.01089207 0.01432886 0.00285605 0.00249417 0.00786184 0.00138878 0.00816212 0.00653218 0.03019727 0.00254968 0.00768019 0.00136161 0.01793035 0.05367451 0.01563749 0.01544853 
0.01095324 0.01467709 0.00281509 0.00250274 0.00745078 0.00140045 0.00799968 0.00651241 0.03008382 0.00252520 0.00774398 0.00137753 0.01807550 0.05365864 0.01555032 0.01513485 
0.01101851 0.01504699 0.00277525 0.00250904 0.00703613 0.00141103 0.00783539 0.00649169 0.02994764 0.00250339 0.00782360 0.00139248 0.01821640 0.05363798 0.01545790 0.01479883 
0.01108771 0.01543772 0.00273666 0.00251305 0.00661968 0.00142049 0.00767004 0.00647011 0.02979131 0.00248431 0.00791874 0.00140641 0.01835243 0.05361572 0.01536162 0.01444161 
0.01116065 0.01584835 0.00269942 0.00251477 0.00620324 0.00142879 0.00750444 0.00644776 0.02961757 0.00246800 0.00802900 0.00141925 0.01848301 0.05359504 0.01526296 0.01406443 
0.01123713 0.01627778 0.00266364 0.00251418 0.00578868 0.00143590 0.00733938 0.00642474 0.02942935 0.00245451 0.00815393 0.00143098 0.01860763 0.05357918 0.01516338 0.01366859 
0.01131693 0.01672482 0.00262943 0.00251129 0.00537789 0.00144181 0.00717567 0.00640115 0.02922967 0.00244385 0.00829303 0.00144155 0.01872582 0.05357134 0.01506439 0.01325543 
0.01139981 0.01718816 0.00259687 0.00250610 0.00497276 0.00144651 0.00701415 0.00637712 0.02902170 0.00243604 0.00844572 0.00145093 0.01883715 0.05357468 0.01496750 0.01282638 
0.01148552 0.01766637 0.00256605 0.00249865 0.00457521 0.00144998 0.00685561 0.00635276 0.02880866 0.00243110 0.00861138 0.00145910 0.01894126 0.05359227 0.01487420 0.01238289 
0.01157381 0.01815791 0.00253702 0.00248895 0.00418716 0.00145224 0.00670088 0.00632820 0.02859384 0.00242903 0.00878933 0.00146605 0.01903784 0.05362710 0.01478598 0.01192644 
0.01166440 0.01866116 0.00250986 0.00247703 0.00381050 0.00145329 0.00655076 0.00630357 0.02838056 0.00242982 0.00897883 0.00147177 0.01912663 0.05368202 0.01470428 0.01145858 
0.01175700 0.01917437 0.00248461 0.00246295 0.00344714 0.00145315 0.00640603 0.00627901 0.02817216 0.00243346 0.00917911 0.00147624 0.01920742 0.05375970 0.01463053 0.01098085 
0.01185131 0.01969574 0.00246131 0.00244675 0.00309895 0.00145183 0.00626748 0.00625466 0.02797196 0.00243994 0.00938936 0.00147949 0.01928006 0.05386265 0.01456606 0.01049484 
0.01194703 0.02022337 0.00243998 0.00242848 0.00276775 0.00144937 0.00613586 0.00623067 0.02778322 0.00244922 0.00960869 0.00148152 0.01934444 0.05399315 0.01451216 0.01000213 
0.01204383 0.02075530 0.00242063 0.00240822 0.00245535 0.00144581 0.00601191 0.00620717 0.02760916 0.00246127 0.00983622 0.00148234 0.01940050 0.05415326 0.01447006 0.00950433 
0.01214139 0.02128950 0.00240328 0.00238604 0.00216350 0.00144117 0.00589633 0.00618431 0.02745290 0.00247606 0.01007102 0.00148199 0.01944824 0.05434477 0.01444088 0.00900304 
0.01223937 0.02182389 0.00238791 0.00236201 0.00189390 0.00143551 0.00578980 0.00616224 0.02731743 0.00249354 0.01031211 0.00148049 0.01948769 0.05456921 0.01442565 0.00849986 
0.01233743 0.02235634 0.00237450 0.00233623 0.00164816 0.00142887 0.00569296 0.00614110 0.02720562 0.00251365 0.01055853 0.00147788 0.01951892 0.05482781 0.01442530 0.00799639 
0.01243523 0.02288469 0.00236301 0.00230879 0.00142785 0.00142132 0.00560641 0.00612103 0.02712017 0.00253635 0.01080926 0.00147420 0.01954205 0.05512150 0.01444065 0.00749419 
0.01253240 0.02340676 0.00235341 0.00227978 0.00123445 0.00141292 0.00553073 0.00610217 0.02706363 0.00256157 0.01106328 0.00146950 0.01955724 0.05545088 0.01447240 0.00699484 
0.01262861 0.02392035 0.00234564 0.00224933 0.00106933 0.00140372 0.00546643 0.00608465 0.02703831 0.00258923 0.01131957 0.00146383 0.01956465 0.05581625 0.01452111 0.00649987 
0.01272348 0.02442325 0.00233963 0.00221753 0.00093380 0.00139380 0.00541399 0.00606859 0.02704632 0.00261928 0.01157710 0.00145724 0.01956450 0.05621755 0.01458723 0.00601078 
0.01281667 0.02491327 0.00233532 0.00218452 0.00082904 0.00138323 0.00537383 0.00605413 0.02708956 0.00265163 0.01183481 0.00144981 0.01955702 0.05665439 0.01467106 0.00552907 
0.01290781 0.02538822 0.00233261 0.00215042 0.00075614 0.00137209 0.00534633 0.00604136 0.02716963 0.00268619 0.01209169 0.00144159 0.01954248 0.05712605 0.01477278 0.00505615 
0.01299656 0.02584596 0.00233141 0.00211536 0.00071606 0.00136045 0.00533182 0.00603039 0.02728792 0.00272289 0.01234671 0.00143265 0.01952114 0.05763147 0.01489240 0.00459345 
0.01308257 0.02628436 0.00233163 0.00207947 0.00070964 0.00134840 0.00533055 0.00602131 0.02744552 0.00276162 0.01259885 0.00142306 0.01949329 0.05816926 0.01502982 0.00414232 
0.01316549 0.02670136 0.00233315 0.00204290 0.00073762 0.00133603 0.00534274 0.00601419 0.02764325 0.00280230 0.01284713 0.00141290 0.01945924 0.05873770 0.01518477 0.00370406 
0.01324498 0.02709495 0.00233586 0.00200578 0.00080056 0.00132341 0.00536853 0.00600911 0.02788162 0.00284481 0.01309057 0.00140224 0.01941928 0.05933476 0.01535686 0.00327995 
0.01332074 0.02746320 0.00233964 0.00196828 0.00089893 0.00131064 0.00540801 0.00600612 0.02816088 0.00288906 0.01332823 0.00139117 0.01937374 0.05995812 0.01554555 0.00287120 
0.01339242 0.02780424 0.00234436 0.00193054 0.00103304 0.00129780 0.00546120 0.00600526 0.02848094 0.00293494 0.01355920 0.00137975 0.01932293 0.06060514 0.01575015 0.00247897 
0.01345975 0.02811630 0.00234990 0.00189271 0.00120305 0.00128499 0.00552808 0.00600654 0.02884144 0.00298232 0.01378260 0.00136806 0.01926715 0.06127295 0.01596987 0.00210436 
0.01352241 0.02839772 0.00235612 0.00185495 0.00140900 0.00127229 0.00560854 0.00600999 0.02924171 0.00303110 0.01399758 0.00135620 0.01920672 0.06195843 0.01620376 0.00174841 
0.01358015 0.02864693 0.00236289 0.00181742 0.00165075 0.00125978 0.00570242 0.00601558 0.02968079 0.00308114 0.01420336 0.00134423 0.01914193 0.06265820 0.01645077 0.00141212 
0.01363271 0.02886249 0.00237007 0.00178028 0.00192804 0.00124757 0.00580948 0.00602331 0.03015741 0.00313233 0.01439919 0.00133223 0.01907308 0.06336872 0.01670973 0.00109641 
0.01367984 0.02904308 0.00237753 0.00174368 0.00224045 0.00123572 0.00592945 0.00603312 0.03067004 0.00318453 0.01458436 0.00132028 0.01900046 0.06408625 0.01697935 0.00080215 
0.01372134 0.02918751 0.00238514 0.00170779 0.00258740 0.00122434 0.00606197 0.00604496 0.03121686 0.00323761 0.01475824 0.00130845 0.01892432 0.06480692 0.01725826 0.00053013 
0.01375700 0.02929476 0.00239276 0.00167277 0.00296818 0.00121350 0.00620662 0.00605874 0.03179578 0.00329144 0.01492023 0.00129682 0.01884494 0.06552673 0.01754499 0.00028110 
0.01378666 0.02936393 0.00240027 0.00163877 0.00338192 0.00120328 0.00636294 0.00607439 0.03240446 0.00334587 0.01506979 0.00128547 0.01876254 0.06624161 0.01783800 0.00005573 
0.01381017 0.02939428 0.00240754 0.00160595 0.00382761 0.00119376 0.00653039 0.00609178 0.03304032 0.00340077 0.01520648 0.00127445 0.01867737 0.06694741 0.01813568 0.00014538 
0.01382741 0.02938524 0.00241446 0.00157446 0.00430410 0.00118502 0.00670838 0.00611080 0.03370057 0.00345598 0.01532987 0.00126384 0.01858963 0.06763999 0.01843635 0.00032169 
0.01383829 0.02933640 0.00242090 0.00154444 0.00481009 0.00117712 0.00689628 0.00613129 0.03438218 0.00351136 0.01543962 0.00125369 0.01849952 0.06831519 0.01873829 0.00047271 
0.01384273 0.02924754 0.00242677 0.00151605 0.00534415 0.00117014 0.00709338 0.00615310 0.03508198 0.00356677 0.01553547 0.00124406 0.01840723 0.06896890 0.01903977 0.00059805 
0.01384072 0.02911859 0.00243196 0.00148942 0.00590473 0.00116414 0.00729895 0.00617605 0.03579658 0.00362205 0.01561721 0.00123502 0.01831293 0.06959711 0.01933901 0.00069737 
0.01383223 0.02894968 0.00243639 0.00146469 0.00649014 0.00115917 0.00751219 0.00619996 0.03652248 0.00367705 0.01568469 0.00122661 0.01821676 0.07019587 0.01963424 0.00077040 
0.01381730 0.02874110 0.00243996 0.00144198 0.00709859 0.00115529 0.00773228 0.00622462 0.03725605 0.00373162 0.01573786 0.00121887 0.01811889 0.07076142 0.01992368 0.00081694 
0.01379599 0.02849334 0.00244261 0.00142142 0.00772817 0.00115254 0.00795834 0.00624982 0.03799355 0.00378562 0.01577670 0.00121186 0.01801943 0.07129013 0.02020558 0.00083686 
0.01376838 0.02820707 0.00244428 0.00140312 0.00837686 0.00115098 0.00818946 0.00627534 0.03873116 0.00383888 0.01580131 0.00120560 0.01791851 0.07177860 0.02047821 0.00083009 
0.01373459 0.02788313 0.00244492 0.00138718 0.00904255 0.00115063 0.00842472 0.00630093 0.03946501 0.00389126 0.01581180 0.00120013 0.01781625 0.07222364 0.02073989 0.00079665 
0.01369479 0.02752257 0.00244448 0.00137371 0.00972304 0.00115153 0.00866314 0.00632636 0.04019120 0.00394261 0.01580840 0.00119549 0.01771275 0.07262231 0.02098900 0.00073661 
0.01364916 0.02712659 0.00244293 0.00136279 0.01041605 0.00115371 0.00890373 0.00635138 0.04090583 0.00399278 0.01579138 0.00119169 0.01760812 0.07297197 0.02122396 0.00065013 
0.01359792 0.02669658 0.00244026 0.00135449 0.01111925 0.00115717 0.00914550 0.00637573 0.04160502 0.00404164 0.01576107 0.00118875 0.01750246 0.07327028 0.02144330 0.00053742 
0.01354133 0.02623410 0.00243646 0.00134889 0.01183022 0.00116194 0.00938742 0.00639915 0.04228492 0.00408903 0.01571789 0.00118670 0.01739587 0.07351521 0.02164561 0.00039877 
0.01347966 0.02574089 0.00243153 0.00134604 0.01254652 0.00116802 0.00962846 0.00642139 0.04294177 0.00413483 0.01566230 0.00118553 0.01728845 0.07370508 0.02182961 0.00023456 
0.01341324 0.02521883 0.00242550 0.00134598 0.01326565 0.00117540 0.00986759 0.00644218 0.04357189 0.00417889 0.01559484 0.00118526 0.01718032 0.07383858 0.02199410 0.00004520 
0.01334241 0.02466998 0.00241838 0.00134876 0.01398511 0.00118408 0.01010378 0.00646127 0.04417171 0.00422111 0.01551607 0.00118589 0.01707157 0.07391475 0.02213800 0.00016879 
0.01326754 0.02409653 0.00241023 0.00135438 0.01470234 0.00119405 0.01033601 0.00647840 0.04473782 0.00426135 0.01542666 0.00118741 0.01696234 0.07393304 0.02226038 0.00040685 
0.01318905 0.02350083 0.00240108 0.00136287 0.01541483 0.00120527 0.01056326 0.00649333 0.04526695 0.00429950 0.01532728 0.00118982 0.01685276 0.07389327 0.02236041 0.00066832 
0.01310736 0.02288535 0.00239101 0.00137420 0.01612003 0.00121773 0.01078453 0.00650582 0.04575601 0.00433545 0.01521868 0.00119311 0.01674297 0.07379565 0.02243742 0.00095250 
0.01302293 0.02225268 0.00238008 0.00138838 0.01681543 0.00123138 0.01099884 0.00651564 0.04620212 0.00436910 0.01510165 0.00119725 0.01663312 0.07364082 0.02249088 0.00125861 
0.01293623 0.02160552 0.00236837 0.00140536 0.01749855 0.00124618 0.01120524 0.00652257 0.04660262 0.00440037 0.01497700 0.00120224 0.01652339 0.07342980 0.02252039 0.00158579 
0.01284778 0.02094669 0.00235598 0.00142511 0.01816695 0.00126209 0.01140281 0.00652642 0.04695508 0.00442917 0.01484560 0.00120805 0.01641397 0.07316398 0.02252572 0.00193313 
0.01275809 0.02027907 0.00234299 0.00144757 0.01881823 0.00127904 0.01159066 0.00652698 0.04725730 0.00445543 0.01470835 0.00121464 0.01630506 0.07284516 0.02250679 0.00229965 
0.01266770 0.01960565 0.00232953 0.00147267 0.01945007 0.00129698 0.01176795 0.00652410 0.04750736 0.00447909 0.01456617 0.00122201 0.01619690 0.07247552 0.02246367 0.00268430 
0.01257717 0.01892946 0.00231570 0.00150033 0.02006021 0.00131584 0.01193386 0.00651762 0.04770362 0.00450008 0.01442001 0.00123010 0.01608972 0.07205758 0.02239659 0.00308597 
0.01248707 0.01825357 0.00230161 0.00153045 0.02064648 0.00133553 0.01208763 0.00650742 0.04784472 0.00451838 0.01427084 0.00123889 0.01598381 0.07159422 0.02230592 0.00350350 
0.01239798 0.01758112 0.00228740 0.00156293 0.02120680 0.00135599 0.01222858 0.00649337 0.04792957 0.00453394 0.01411964 0.00124833 0.01587943 0.07108865 0.02219219 0.00393567 
0.01231047 0.01691525 0.00227319 0.00159766 0.02173920 0.00137713 0.01235603 0.00647542 0.04795740 0.00454676 0.01396740 0.00125840 0.01577692 0.07054439 0.02205607 0.00438119 
0.01222515 0.01625910 0.00225912 0.00163449 0.02224182 0.00139886 0.01246940 0.00645348 0.04792774 0.00455681 0.01381512 0.00126904 0.01567659 0.06996521 0.02189838 0.00483874 
0.01214262 0.01561582 0.00224531 0.00167329 0.02271292 0.00142108 0.01256816 0.00642754 0.04784042 0.00456411 0.01366379 0.00128022 0.01557880 0.06935519 0.02172008 0.00530694 
0.01206346 0.01498853 0.00223190 0.00171392 0.02315089 0.00144370 0.01265183 0.00639758 0.04769557 0.00456867 0.01351442 0.00129188 0.01548392 0.06871859 0.02152224 0.00578436 
0.01198827 0.01438031 0.00221903 0.00175620 0.02355424 0.00146661 0.01272002 0.00636364 0.04749363 0.00457051 0.01336799 0.00130399 0.01539235 0.06805990 0.02130607 0.00626955 
0.01191763 0.01379420 0.00220683 0.00179997 0.02392166 0.00148972 0.01277240 0.00632576 0.04723535 0.00456968 0.01322546 0.00131648 0.01530449 0.06738377 0.02107291 0.00676102 
0.01185212 0.01323314 0.00219544 0.00184505 0.02425196 0.00151290 0.01280869 0.00628403 0.04692175 0.00456623 0.01308778 0.00132932 0.01522077 0.06669498 0.02082416 0.00725723 
0.01179230 0.01270003 0.00218498 0.00189126 0.02454410 0.00153606 0.01282871 0.00623855 0.04655416 0.00456022 0.01295589 0.00134246 0.01514164 0.06599843 0.02056137 0.00775663 
0.01173873 0.01219765 0.00217559 0.00193840 0.02479722 0.00155909 0.01283233 0.00618947 0.04613420 0.00455172 0.01283068 0.00135583 0.01506756 0.06529905 0.02028613 0.00825766 
0.01169193 0.01172867 0.00216738 0.00198628 0.02501062 0.00158186 0.01281951 0.00613696 0.04566373 0.00454082 0.01271301 0.00136940 0.01499898 0.06460184 0.02000013 0.00875873 
0.01165241 0.01129563 0.00216048 0.00203469 0.02518374 0.00160428 0.01279028 0.00608122 0.04514488 0.00452761 0.01260371 0.00138311 0.01493639 0.06391178 0.01970512 0.00925824 
0.01162066 0.01090095 0.00215499 0.00208343 0.02531621 0.00162622 0.01274473 0.00602248 0.04458006 0.00451221 0.01250357 0.00139691 0.01488028 0.06323381 0.01940289 0.00975461 
0.01159713 0.01054688 0.00215101 0.00213229 0.02540782 0.00164757 0.01268304 0.00596099 0.04397186 0.00449473 0.01241333 0.00141075 0.01483114 0.06257277 0.01909529 0.01024625 
0.01158226 0.01023552 0.00214865 0.00218105 0.02545854 0.00166823 0.01260545 0.00589704 0.04332312 0.00447530 0.01233367 0.00142458 0.01478946 0.06193344 0.01878416 0.01073159 
0.01157643 0.00996880 0.00214799 0.00222952 0.02546849 0.00168809 0.01251226 0.00583095 0.04263688 0.00445406 0.01226524 0.00143835 0.01475572 0.06132040 0.01847139 0.01120907 
0.01158002 0.00974843 0.00214910 0.00227748 0.02543797 0.00170704 0.01240387 0.00576303 0.04191635 0.00443114 0.01220861 0.00145201 0.01473043 0.06073807 0.01815884 0.01167716 
0.01159333 0.00957598 0.00215207 0.00232472 0.02536743 0.00172499 0.01228072 0.00569367 0.04116492 0.00440671 0.01216430 0.00146552 0.01471406 0.06019068 0.01784837 0.01213438 
0.01161667 0.00945276 0.00215694 0.00237103 0.02525749 0.00174182 0.01214333 0.00562323 0.04038612 0.00438093 0.01213277 0.00147882 0.01470709 0.05968217 0.01754183 0.01257927 
0.01165026 0.00937992 0.00216376 0.00241622 0.02510893 0.00175746 0.01199226 0.00555211 0.03958360 0.00435396 0.01211442 0.00149188 0.01470997 0.05921624 0.01724099 0.01301043 
0.01169430 0.00935834 0.00217257 0.00246010 0.02492267 0.00177180 0.01182815 0.00548074 0.03876112 0.00432598 0.01210958 0.00150464 0.01472316 0.05879628 0.01694761 0.01342653 
0.01174895 0.00938873 0.00218339 0.00250246 0.02469980 0.00178477 0.01165169 0.00540956 0.03792254 0.00429716 0.01211848 0.00151707 0.01474707 0.05842534 0.01666335 0.01382627 
0.01181430 0.00947151 0.00219624 0.00254314 0.02444152 0.00179629 0.01146362 0.00533900 0.03707178 0.00426770 0.01214134 0.00152912 0.01478211 0.05810614 0.01638983 0.01420846 
0.01189042 0.00960693 0.00221111 0.00258196 0.02414920 0.00180628 0.01126472 0.00526954 0.03621280 0.00423777 0.01217825 0.00154076 0.01482867 0.05784101 0.01612856 0.01457197 
0.01197729 0.00979495 0.00222799 0.00261874 0.02382429 0.00181469 0.01105582 0.00520164 0.03534959 0.00420758 0.01222926 0.00155195 0.01488709 0.05763190 0.01588097 0.01491575 
0.01207489 0.01003533 0.00224687 0.00265335 0.02346840 0.00182145 0.01083780 0.00513577 0.03448615 0.00417731 0.01229434 0.00156265 0.01495769 0.05748035 0.01564836 0.01523884 
0.01218310 0.01032756 0.00226770 0.00268564 0.02308323 0.00182653 0.01061156 0.00507241 0.03362645 0.00414716 0.01237339 0.00157284 0.01504076 0.05738750 0.01543194 0.01554040 
0.01230178 0.01067094 0.00229044 0.00271547 0.02267058 0.00182987 0.01037803 0.00501205 0.03277445 0.00411733 0.01246623 0.00158247 0.01513655 0.05735405 0.01523278 0.01581967 
0.01243072 0.01106450 0.00231502 0.00274273 0.02223235 0.00183144 0.01013818 0.00495516 0.03193404 0.00408801 0.01257261 0.00159153 0.01524527 0.05738026 0.01505184 0.01607601 
0.01256965 0.01150704 0.00234139 0.00276731 0.02177051 0.00183122 0.00989298 0.00490221 0.03110903 0.00405940 0.01269220 0.00159998 0.01536708 0.05746597 0.01488991 0.01630888 
0.01271829 0.01199715 0.00236944 0.00278913 0.02128711 0.00182920 0.00964345 0.00485366 0.03030318 0.00403169 0.01282463 0.00160780 0.01550212 0.05761057 0.01474767 0.01651788 
0.01287624 0.01253320 0.00239911 0.00280810 0.02078424 0.00182537 0.00939057 0.00480998 0.02952009 0.00400507 0.01296943 0.00161497 0.01565047 0.05781303 0.01462564 0.01670270 
0.01304312 0.01311334 0.00243027 0.00282417 0.02026407 0.00181974 0.00913537 0.00477160 0.02876327 0.00397973 0.01312607 0.00162147 0.01581214 0.05807189 0.01452419 0.01686317 
0.01321845 0.01373553 0.00246282 0.00283729 0.01972879 0.00181231 0.00887887 0.00473894 0.02803610 0.00395585 0.01329398 0.00162729 0.01598713 0.05838526 0.01444354 0.01699925 
0.01340171 0.01439752 0.00249665 0.00284742 0.01918060 0.00180311 0.00862207 0.00471241 0.02734178 0.00393362 0.01347251 0.00163241 0.01617535 0.05875085 0.01438377 0.01711100 
0.01359236 0.01509688 0.00253161 0.00285457 0.01862176 0.00179217 0.00836598 0.00469239 0.02668335 0.00391320 0.01366095 0.00163682 0.01637668 0.05916600 0.01434478 0.01719864 
0.01378979 0.01583103 0.00256757 0.00285871 0.01805448 0.00177954 0.00811158 0.00467924 0.02606370 0.00389476 0.01385854 0.00164052 0.01659094 0.05962763 0.01432635 0.01726248 
0.01399334 0.01659719 0.00260439 0.00285988 0.01748101 0.00176526 0.00785984 0.00467328 0.02548549 0.00387846 0.01406447 0.00164348 0.01681790 0.06013235 0.01432810 0.01730298 
0.01420234 0.01739248 0.00264191 0.00285809 0.01690356 0.00174940 0.00761172 0.00467483 0.02495121 0.00386446 0.01427790 0.00164572 0.01705725 0.06067643 0.01434948 0.01732070 
0.01441607 0.01821384 0.00267999 0.00285341 0.01632431 0.00173201 0.00736812 0.00468414 0.02446312 0.00385291 0.01449792 0.00164723 0.01730865 0.06125582 0.01438983 0.01731633 
0.01463375 0.01905815 0.00271846 0.00284588 0.01574542 0.00171318 0.00712994 0.00470145 0.02402328 0.00384392 0.01472360 0.00164802 0.01757169 0.06186619 0.01444835 0.01729067 
0.01485461 0.01992214 0.00275716 0.00283559 0.01516898 0.00169300 0.00689802 0.00472696 0.02363351 0.00383764 0.01495398 0.00164808 0.01784591 0.06250299 0.01452410 0.01724463 
0.01507783 0.02080247 0.00279592 0.00282263 0.01459703 0.00167155 0.00667318 0.00476083 0.02329541 0.00383417 0.01518806 0.00164742 0.01813077 0.06316142 0.01461601 0.01717921 
0.01530257 0.02169576 0.00283457 0.00280709 0.01403154 0.00164894 0.00645618 0.00480318 0.02301033 0.00383363 0.01542483 0.00164606 0.01842570 0.06383651 0.01472292 0.01709554 
0.01552796 0.02259854 0.00287294 0.00278910 0.01347442 0.00162526 0.00624776 0.00485409 0.02277941 0.00383611 0.01566325 0.00164401 0.01873007 0.06452313 0.01484355 0.01699480 
0.01575314 0.02350732 0.00291087 0.00276878 0.01292748 0.00160064 0.00604857 0.00491360 0.02260352 0.00384169 0.01590229 0.00164127 0.01904317 0.06521605 0.01497652 0.01687826 
0.01597722 0.02441862 0.00294818 0.00274626 0.01239244 0.00157519 0.00585924 0.00498170 0.02248330 0.00385044 0.01614088 0.00163786 0.01936427 0.06590992 0.01512036 0.01674729 
0.01619931 0.02532892 0.00298471 0.00272171 0.01187092 0.00154904 0.00568033 0.00505834 0.02241915 0.00386242 0.01637797 0.00163381 0.01969256 0.06659938 0.01527355 0.01660329 
0.01641850 0.02623475 0.00302029 0.00269527 0.01136444 0.00152231 0.00551237 0.00514343 0.02241121 0.00387767 0.01661252 0.00162913 0.02002720 0.06727905 0.01543448 0.01644772 
0.01663392 0.02713268 0.00305477 0.00266712 0.01087442 0.00149514 0.00535578 0.00523683 0.02245940 0.00389624 0.01684349 0.00162385 0.02036728 0.06794357 0.01560150 0.01628210 
0.01684466 0.02801932 0.00308798 0.00263742 0.01040213 0.00146766 0.00521097 0.00533835 0.02256339 0.00391813 0.01706984 0.00161798 0.02071186 0.06858765 0.01577291 0.01610796 
0.01704987 0.02889137 0.00311977 0.00260635 0.00994874 0.00144001 0.00507827 0.00544777 0.02272262 0.00394336 0.01729058 0.00161156 0.02105995 0.06920607 0.01594701 0.01592686 
0.01724869 0.02974559 0.00315000 0.00257410 0.00951531 0.00141233 0.00495794 0.00556482 0.02293629 0.00397192 0.01750471 0.00160462 0.02141052 0.06979379 0.01612204 0.01574037 
0.01744027 0.03057889 0.00317852 0.00254086 0.00910276 0.00138475 0.00485019 0.00568918 0.02320338 0.00400377 0.01771130 0.00159717 0.02176250 0.07034590 0.01629629 0.01555006 
0.01762382 0.03138827 0.00320521 0.00250681 0.00871186 0.00135743 0.00475517 0.00582048 0.02352266 0.00403890 0.01790943 0.00158925 0.02211478 0.07085770 0.01646802 0.01535747 
0.01779856 0.03217087 0.00322995 0.00247216 0.00834328 0.00133049 0.00467295 0.00595834 0.02389267 0.00407724 0.01809821 0.00158090 0.02246623 0.07132473 0.01663553 0.01516415 
0.01796374 0.03292401 0.00325260 0.00243708 0.00799754 0.00130408 0.00460356 0.00610232 0.02431176 0.00411873 0.01827681 0.00157214 0.02281567 0.07174277 0.01679714 0.01497158 
0.01811867 0.03364513 0.00327308 0.00240178 0.00767505 0.00127834 0.00454696 0.00625193 0.02477806 0.00416330 0.01844445 0.00156302 0.02316193 0.07210791 0.01695125 0.01478119 
0.01826269 0.03433189 0.00329129 0.00236644 0.00737605 0.00125340 0.00450304 0.00640666 0.02528955 0.00421085 0.01860038 0.00155355 0.02350378 0.07241655 0.01709630 0.01459439 
0.01839520 0.03498212 0.00330713 0.00233125 0.00710069 0.00122939 0.00447165 0.00656598 0.02584400 0.00426128 0.01874394 0.00154379 0.02383999 0.07266543 0.01723078 0.01441249 
0.01851563 0.03559384 0.00332053 0.00229639 0.00684897 0.00120643 0.00445258 0.00672931 0.02643902 0.00431446 0.01887449 0.00153376 0.02416934 0.07285164 0.01735331 0.01423672 
0.01862349 0.03616529 0.00333143 0.00226204 0.00662078 0.00118466 0.00444555 0.00689603 0.02707207 0.00437026 0.01899146 0.00152351 0.02449056 0.07297266 0.01746255 0.01406824 
0.01871834 0.03669494 0.00333978 0.00222838 0.00641587 0.00116418 0.00445026 0.00706552 0.02774048 0.00442854 0.01909437 0.00151306 0.02480241 0.07302639 0.01755730 0.01390809 
0.01879981 0.03718144 0.00334553 0.00219555 0.00623388 0.00114512 0.00446632 0.00723713 0.02844140 0.00448913 0.01918277 0.00150246 0.02510364 0.07301110 0.01763645 0.01375725 
0.01886757 0.03762372 0.00334865 0.00216373 0.00607436 0.00112756 0.00449332 0.00741019 0.02917191 0.00455188 0.01925631 0.00149174 0.02539300 0.07292553 0.01769902 0.01361653 
0.01892140 0.03802090 0.00334912 0.00213306 0.00593672 0.00111161 0.00453080 0.00758401 0.02992895 0.00461659 0.01931467 0.00148095 0.02566927 0.07276881 0.01774415 0.01348667 
0.01896110 0.03837236 0.00334694 0.00210368 0.00582029 0.00109737 0.00457825 0.00775788 0.03070938 0.00468307 0.01935762 0.00147011 0.02593122 0.07254056 0.01777112 0.01336828 
0.01898658 0.03867770 0.00334212 0.00207571 0.00572430 0.00108490 0.00463515 0.00793111 0.03150998 0.00475112 0.01938502 0.00145926 0.02617767 0.07224080 0.01777933 0.01326182 
0.01899781 0.03893677 0.00333466 0.00204928 0.00564788 0.00107429 0.00470091 0.00810298 0.03232746 0.00482054 0.01939676 0.00144844 0.02640744 0.07187003 0.01776834 0.01316766 
0.01899482 0.03914964 0.00332461 0.00202448 0.00559009 0.00106559 0.00477493 0.00827277 0.03315847 0.00489110 0.01939284 0.00143769 0.02661941 0.07142917 0.01773786 0.01308601 
0.01897774 0.03931662 0.00331199 0.00200141 0.00554992 0.00105887 0.00485657 0.00843978 0.03399964 0.00496257 0.01937330 0.00142704 0.02681248 0.07091960 0.01768773 0.01301696 
0.01894674 0.03943825 0.00329686 0.00198016 0.00552628 0.00105417 0.00494519 0.00860331 0.03484756 0.00503473 0.01933825 0.00141652 0.02698559 0.07034310 0.01761795 0.01296047 
0.01890210 0.03951527 0.00327929 0.00196079 0.00551804 0.00105153 0.00504010 0.00876265 0.03569882 0.00510733 0.01928790 0.00140616 0.02713773 0.06970191 0.01752868 0.01291638 
0.01884413 0.03954865 0.00325934 0.00194336 0.00552399 0.00105096 0.00514062 0.00891715 0.03655001 0.00518014 0.01922250 0.00139601 0.02726797 0.06899865 0.01742021 0.01288441 
0.01877324 0.03953957 0.00323710 0.00192791 0.00554292 0.00105250 0.00524604 0.00906613 0.03739775 0.00525290 0.01914237 0.00138608 0.02737539 0.06823634 0.01729300 0.01286414 
0.01868990 0.03948940 0.00321267 0.00191447 0.00557354 0.00105614 0.00535564 0.00920896 0.03823869 0.00532539 0.01904789 0.00137642 0.02745917 0.06741839 0.01714764 0.01285504 
0.01859465 0.03939968 0.00318613 0.00190306 0.00561457 0.00106187 0.00546872 0.00934504 0.03906954 0.00539734 0.01893950 0.00136704 0.02751855 0.06654854 0.01698488 0.01285649 
0.01848808 0.03927217 0.00315760 0.00189368 0.00566470 0.00106970 0.00558454 0.00947379 0.03988705 0.00546852 0.01881772 0.00135798 0.02755284 0.06563088 0.01680559 0.01286776 
0.01837085 0.03910873 0.00312720 0.00188633 0.00572262 0.00107959 0.00570240 0.00959466 0.04068807 0.00553868 0.01868311 0.00134926 0.02756144 0.06466981 0.01661077 0.01288803 
0.01824367 0.03891143 0.00309505 0.00188098 0.00578699 0.00109150 0.00582159 0.00970715 0.04146955 0.00560759 0.01853627 0.00134091 0.02754381 0.06366999 0.01640157 0.01291638 
0.01810732 0.03868243 0.00306129 0.00187761 0.00585653 0.00110541 0.00594139 0.00981079 0.04222851 0.00567502 0.01837787 0.00133295 0.02749951 0.06263637 0.01617924 0.01295183 
0.01796260 0.03842404 0.00302604 0.00187615 0.00592993 0.00112124 0.00606114 0.00990515 0.04296214 0.00574074 0.01820863 0.00132540 0.02742820 0.06157409 0.01594515 0.01299336 
0.01781037 0.03813865 0.00298945 0.00187657 0.00600592 0.00113895 0.00618016 0.00998987 0.04366772 0.00580454 0.01802929 0.00131829 0.02732963 0.06048850 0.01570075 0.01303987 
0.01765153 0.03782876 0.00295167 0.00187879 0.00608328 0.00115846 0.00629779 0.01006460 0.04434269 0.00586621 0.01784065 0.00131162 0.02720365 0.05938512 0.01544762 0.01309024 
0.01748701 0.03749695 0.00291285 0.00188274 0.00616079 0.00117969 0.00641340 0.01012908 0.04498465 0.00592556 0.01764354 0.00130543 0.02705020 0.05826958 0.01518739 0.01314331 
0.01731776 0.03714583 0.00287313 0.00188833 0.00623732 0.00120256 0.00652640 0.01018308 0.04559136 0.00598241 0.01743881 0.00129971 0.02686934 0.05714761 0.01492177 0.01319793 
0.01714477 0.03677807 0.00283266 0.00189546 0.00631175 0.00122698 0.00663621 0.01022642 0.04616076 0.00603658 0.01722737 0.00129450 0.02666124 0.05602502 0.01465254 0.01325293 
0.01696902 0.03639636 0.00279162 0.00190404 0.00638305 0.00125283 0.00674229 0.01025900 0.04669096 0.00608794 0.01701013 0.00128979 0.02642619 0.05490760 0.01438151 0.01330717 
0.01679152 0.03600342 0.00275013 0.00191394 0.00645024 0.00128001 0.00684412 0.01028075 0.04718028 0.00613634 0.01678802 0.00128561 0.02616456 0.05380119 0.01411054 0.01335954 
0.01661329 0.03560193 0.00270837 0.00192506 0.00651241 0.00130842 0.00694123 0.01029167 0.04762724 0.00618168 0.01656200 0.00128196 0.02587687 0.05271154 0.01384151 0.01340897 
0.01643533 0.03519457 0.00266648 0.00193727 0.00656873 0.00133792 0.00703319 0.01029183 0.04803057 0.00622385 0.01633303 0.00127885 0.02556375 0.05164435 0.01357631 0.01345443 
0.01625864 0.03478396 0.00262462 0.00195044 0.00661843 0.00136841 0.00711958 0.01028133 0.04838919 0.00626277 0.01610209 0.00127628 0.02522593 0.05060519 0.01331682 0.01349497 
0.01608421 0.03437271 0.00258292 0.00196444 0.00666085 0.00139973 0.00720007 0.01026035 0.04870226 0.00629840 0.01587016 0.00127426 0.02486429 0.04959949 0.01306491 0.01352973 
0.01591300 0.03396331 0.00254153 0.00197913 0.00669538 0.00143178 0.00727433 0.01022911 0.04896916 0.00633069 0.01563823 0.00127279 0.02447979 0.04863252 0.01282244 0.01355792 
0.01574596 0.03355821 0.00250059 0.00199439 0.00672153 0.00146441 0.00734208 0.01018789 0.04918947 0.00635963 0.01540727 0.00127188 0.02407354 0.04770933 0.01259121 0.01357887 
0.01558400 0.03315975 0.00246024 0.00201007 0.00673888 0.00149748 0.00740311 0.01013704 0.04936301 0.00638525 0.01517826 0.00127152 0.02364675 0.04683473 0.01237298 0.01359200 
0.01542799 0.03277015 0.00242059 0.00202602 0.00674710 0.00153085 0.00745723 0.01007694 0.04948982 0.00640756 0.01495218 0.00127172 0.02320075 0.04601327 0.01216943 0.01359686 
0.01527877 0.03239155 0.00238178 0.00204213 0.00674595 0.00156440 0.00750431 0.01000803 0.04957017 0.00642663 0.01472996 0.00127246 0.02273699 0.04524921 0.01198218 0.01359314 
0.01513712 0.03202593 0.00234392 0.00205824 0.00673530 0.00159797 0.00754426 0.00993079 0.04960453 0.00644254 0.01451255 0.00127375 0.02225702 0.04454651 0.01181277 0.01358064 
0.01500377 0.03167514 0.00230711 0.00207422 0.00671509 0.00163143 0.00757703 0.00984574 0.04959360 0.00645539 0.01430087 0.00127559 0.02176249 0.04390876 0.01166262 0.01355932 
0.01487940 0.03134090 0.00227146 0.00208995 0.00668535 0.00166463 0.00760264 0.00975347 0.04953828 0.00646530 0.01409581 0.00127795 0.02125518 0.04333924 0.01153307 0.01352928 
0.01476463 0.03102476 0.00223705 0.00210529 0.00664621 0.00169745 0.00762113 0.00965457 0.04943967 0.00647243 0.01389825 0.00128085 0.02073693 0.04284083 0.01142532 0.01349074 
0.01466002 0.03072813 0.00220398 0.00212012 0.00659787 0.00172975 0.00763260 0.00954968 0.04929910 0.00647694 0.01370902 0.00128425 0.02020972 0.04241601 0.01134048 0.01344411 
0.01456604 0.03045222 0.00217231 0.00213432 0.00654063 0.00176139 0.00763719 0.00943947 0.04911803 0.00647903 0.01352893 0.00128817 0.01967557 0.04206689 0.01127948 0.01338990 
0.01448313 0.03019812 0.00214212 0.00214778 0.00647486 0.00179226 0.00763510 0.00932465 0.04889816 0.00647889 0.01335876 0.00129258 0.01913661 0.04179515 0.01124316 0.01332881 
0.01441163 0.02996670 0.00211345 0.00216040 0.00640101 0.00182222 0.00762655 0.00920591 0.04864132 0.00647676 0.01319925 0.00129747 0.01859504 0.04160206 0.01123218 0.01326164 
0.01435180 0.02975871 0.00208636 0.00217208 0.00631959 0.00185116 0.00761182 0.00908400 0.04834951 0.00647288 0.01305110 0.00130283 0.01805312 0.04148847 0.01124708 0.01318935 
0.01430385 0.02957467 0.00206089 0.00218272 0.00623120 0.00187897 0.00759122 0.00895965 0.04802487 0.00646751 0.01291497 0.00130863 0.01751317 0.04145479 0.01128823 0.01311303 
0.01426790 0.02941496 0.00203707 0.00219225 0.00613649 0.00190553 0.00756510 0.00883361 0.04766969 0.00646092 0.01279147 0.00131488 0.01697755 0.04150103 0.01135585 0.01303389 
0.01424400 0.02927979 0.00201492 0.00220059 0.00603615 0.00193076 0.00753386 0.00870665 0.04728636 0.00645338 0.01268117 0.00132154 0.01644868 0.04162678 0.01145000 0.01295324 
0.01423212 0.02916918 0.00199444 0.00220768 0.00593097 0.00195455 0.00749793 0.00857950 0.04687738 0.00644519 0.01258460 0.00132860 0.01592900 0.04183120 0.01157057 0.01287252 
0.01423214 0.02908298 0.00197566 0.00221346 0.00582172 0.00197681 0.00745777 0.00845290 0.04644534 0.00643665 0.01250222 0.00133604 0.01542095 0.04211305 0.01171733 0.01279325 
0.01424390 0.02902090 0.00195855 0.00221788 0.00570927 0.00199748 0.00741386 0.00832759 0.04599291 0.00642806 0.01243446 0.00134383 0.01492701 0.04247073 0.01188985 0.01271703 
0.01426714 0.02898247 0.00194311 0.00222091 0.00559450 0.00201647 0.00736674 0.00820427 0.04552282 0.00641971 0.01238169 0.00135197 0.01444964 0.04290222 0.01208757 0.01264552 
0.01430154 0.02896708 0.00192933 0.00222251 0.00547829 0.00203373 0.00731694 0.00808364 0.04503784 0.00641192 0.01234421 0.00136042 0.01399128 0.04340517 0.01230977 0.01258043 
0.01434671 0.02897396 0.00191716 0.00222268 0.00536159 0.00204920 0.00726503 0.00796635 0.04454077 0.00640499 0.01232230 0.00136917 0.01355435 0.04397687 0.01255559 0.01252354 
0.01440219 0.02900221 0.00190658 0.00222140 0.00524532 0.00206283 0.00721161 0.00785303 0.04403441 0.00639920 0.01231616 0.00137819 0.01314124 0.04461430 0.01282402 0.01247661 
0.01446747 0.02905080 0.00189754 0.00221868 0.00513043 0.00207459 0.00715727 0.00774428 0.04352157 0.00639485 0.01232593 0.00138745 0.01275428 0.04531415 0.01311392 0.01244142 
0.01454198 0.02911856 0.00189000 0.00221452 0.00501786 0.00208445 0.00710265 0.00764065 0.04300504 0.00639221 0.01235170 0.00139693 0.01239573 0.04607282 0.01342403 0.01241975 
0.01462508 0.02920423 0.00188390 0.00220894 0.00490855 0.00209239 0.00704837 0.00754266 0.04248757 0.00639154 0.01239351 0.00140661 0.01206777 0.04688647 0.01375296 0.01241334 
0.01471611 0.02930643 0.00187920 0.00220197 0.00480342 0.00209840 0.00699506 0.00745076 0.04197184 0.00639309 0.01245133 0.00141646 0.01177251 0.04775104 0.01409919 0.01242388 
0.01481434 0.02942369 0.00187581 0.00219365 0.00470336 0.00210248 0.00694337 0.00736539 0.04146050 0.00639708 0.01252506 0.00142646 0.01151195 0.04866230 0.01446115 0.01245299 
0.01491902 0.02955445 0.00187368 0.00218402 0.00460926 0.00210463 0.00689393 0.00728689 0.04095609 0.00640373 0.01261457 0.00143657 0.01128797 0.04961584 0.01483712 0.01250224 
0.01502936 0.02969709 0.00187274 0.00217313 0.00452195 0.00210488 0.00684738 0.00721559 0.04046107 0.00641321 0.01271964 0.00144677 0.01110231 0.05060712 0.01522535 0.01257308 
0.01514454 0.02984991 0.00187291 0.00216105 0.00444222 0.00210324 0.00680434 0.00715173 0.03997778 0.00642570 0.01284003 0.00145703 0.01095660 0.05163152 0.01562398 0.01266685 
0.01526372 0.03001118 0.00187412 0.00214783 0.00437085 0.00209975 0.00676543 0.00709550 0.03950846 0.00644130 0.01297539 0.00146733 0.01085231 0.05268435 0.01603111 0.01278477 
0.01538605 0.03017911 0.00187629 0.00213355 0.00430852 0.00209445 0.00673125 0.00704705 0.03905519 0.00646014 0.01312537 0.00147763 0.01079073 0.05376090 0.01644481 0.01292791 
0.01551067 0.03035189 0.00187933 0.00211828 0.00425589 0.00208739 0.00670238 0.00700645 0.03861994 0.00648229 0.01328951 0.00148792 0.01077300 0.05485643 0.01686309 0.01309718 
0.01563671 0.03052771 0.00188318 0.00210210 0.00421354 0.00207863 0.00667936 0.00697372 0.03820450 0.00650778 0.01346733 0.00149817 0.01080007 0.05596626 0.01728395 0.01329335 
0.01576331 0.03070472 0.00188775 0.00208511 0.00418201 0.00206822 0.00666274 0.00694881 0.03781052 0.00653662 0.01365828 0.00150834 0.01087270 0.05708578 0.01770540 0.01351698 
0.01588961 0.03088110 0.00189296 0.00206738 0.00416174 0.00205624 0.00665300 0.00693161 0.03743946 0.00656879 0.01386177 0.00151840 0.01099145 0.05821046 0.01812543 0.01376845 
0.01601479 0.03105505 0.00189873 0.00204901 0.00415313 0.00204275 0.00665060 0.00692197 0.03709264 0.00660422 0.01407714 0.00152835 0.01115667 0.05933590 0.01854206 0.01404795 
0.01613801 0.03122479 0.00190499 0.00203010 0.00415648 0.00202785 0.00665598 0.00691967 0.03677118 0.00664283 0.01430369 0.00153814 0.01136850 0.06045785 0.01895336 0.01435548 
0.01625850 0.03138857 0.00191165 0.00201073 0.00417203 0.00201161 0.00666951 0.00692443 0.03647600 0.00668448 0.01454069 0.00154775 0.01162687 0.06157226 0.01935740 0.01469080 
0.01637550 0.03154472 0.00191865 0.00199100 0.00419994 0.00199413 0.00669153 0.00693592 0.03620787 0.00672900 0.01478733 0.00155716 0.01193148 0.06267528 0.01975236 0.01505348 
0.01648829 0.03169159 0.00192590 0.00197101 0.00424028 0.00197550 0.00672233 0.00695378 0.03596735 0.00677621 0.01504278 0.00156634 0.01228180 0.06376329 0.02013644 0.01544287 
0.01659621 0.03182764 0.00193334 0.00195085 0.00429305 0.00195581 0.00676215 0.00697757 0.03575481 0.00682586 0.01530619 0.00157527 0.01267707 0.06483293 0.02050796 0.01585811 
0.01669863 0.03195138 0.00194091 0.00193061 0.00435818 0.00193516 0.00681117 0.00700683 0.03557045 0.00687770 0.01557662 0.00158393 0.01311631 0.06588112 0.02086530 0.01629812 
0.01679497 0.03206143 0.00194854 0.00191040 0.00443550 0.00191366 0.00686954 0.00704105 0.03541427 0.00693142 0.01585316 0.00159229 0.01359832 0.06690506 0.02120696 0.01676164 
0.01688474 0.03215650 0.00195617 0.00189029 0.00452478 0.00189141 0.00693731 0.00707970 0.03528609 0.00698671 0.01613482 0.00160033 0.01412165 0.06790229 0.02153154 0.01724716 
0.01696748 0.03223540 0.00196375 0.00187037 0.00462569 0.00186851 0.00701451 0.00712220 0.03518555 0.00704321 0.01642061 0.00160804 0.01468464 0.06887066 0.02183777 0.01775303 
0.01704280 0.03229707 0.00197122 0.00185074 0.00473785 0.00184506 0.00710109 0.00716795 0.03511214 0.00710055 0.01670952 0.00161539 0.01528543 0.06980834 0.02212450 0.01827736 
0.01711040 0.03234055 0.00197854 0.00183146 0.00486080 0.00182117 0.00719694 0.00721632 0.03506514 0.00715832 0.01700051 0.00162236 0.01592192 0.07071388 0.02239071 0.01881814 
0.01717003 0.03236503 0.00198567 0.00181262 0.00499400 0.00179695 0.00730190 0.00726670 0.03504371 0.00721611 0.01729253 0.00162894 0.01659181 0.07158616 0.02263553 0.01937314 
0.01722152 0.03236981 0.00199256 0.00179428 0.00513686 0.00177249 0.00741574 0.00731841 0.03504685 0.00727348 0.01758453 0.00163512 0.01729262 0.07242443 0.02285824 0.01994003 
0.01726477 0.03235435 0.00199919 0.00177652 0.00528873 0.00174789 0.00753815 0.00737081 0.03507340 0.00732999 0.01787545 0.00164088 0.01802166 0.07322828 0.02305824 0.02051631 
0.01729976 0.03231823 0.00200552 0.00175939 0.00544888 0.00172325 0.00766879 0.00742325 0.03512208 0.00738517 0.01816422 0.00164620 0.01877610 0.07399767 0.02323513 0.02109939 
0.01732656 0.03226121 0.00201153 0.00174295 0.00561654 0.00169866 0.00780725 0.00747507 0.03519150 0.00743856 0.01844979 0.00165108 0.01955291 0.07473290 0.02338863 0.02168656 
0.01734530 0.03218318 0.00201720 0.00172725 0.00579092 0.00167422 0.00795304 0.00752563 0.03528015 0.00748968 0.01873111 0.00165551 0.02034893 0.07543464 0.02351863 0.02227503 
0.01735619 0.03208416 0.00202252 0.00171235 0.00597114 0.00165001 0.00810563 0.00757430 0.03538641 0.00753807 0.01900715 0.00165947 0.02116087 0.07610386 0.02362516 0.02286196 
0.01735951 0.03196437 0.00202748 0.00169827 0.00615632 0.00162612 0.00826444 0.00762048 0.03550858 0.00758326 0.01927691 0.00166296 0.02198530 0.07674187 0.02370844 0.02344446 
0.01735563 0.03182415 0.00203207 0.00168506 0.00634553 0.00160263 0.00842883 0.00766358 0.03564489 0.00762479 0.01953939 0.00166597 0.02281873 0.07735029 0.02376880 0.02401960 
0.01734498 0.03166401 0.00203630 0.00167275 0.00653783 0.00157960 0.00859811 0.00770305 0.03579351 0.00766222 0.01979364 0.00166851 0.02365753 0.07793103 0.02380676 0.02458449 
0.01732807 0.03148461 0.00204017 0.00166135 0.00673226 0.00155711 0.00877153 0.00773838 0.03595255 0.00769512 0.02003874 0.00167055 0.02449805 0.07848627 0.02382296 0.02513621 
0.01730546 0.03128676 0.00204369 0.00165090 0.00692783 0.00153523 0.00894833 0.00776908 0.03612010 0.00772307 0.02027379 0.00167212 0.02533658 0.07901844 0.02381819 0.02567194 
0.01727779 0.03107142 0.00204687 0.00164140 0.00712358 0.00151401 0.00912768 0.00779472 0.03629421 0.00774570 0.02049798 0.00167320 0.02616937 0.07953021 0.02379336 0.02618886 
0.01724574 0.03083971 0.00204974 0.00163286 0.00731853 0.00149351 0.00930873 0.00781491 0.03647294 0.00776263 0.02071049 0.00167380 0.02699267 0.08002444 0.02374952 0.02668428 
0.01721007 0.03059286 0.00205231 0.00162530 0.00751169 0.00147377 0.00949060 0.00782930 0.03665432 0.00777354 0.02091060 0.00167392 0.02780275 0.08050418 0.02368784 0.02715559 
0.01717156 0.03033228 0.00205462 0.00161870 0.00770212 0.00145485 0.00967239 0.00783762 0.03683643 0.00777813 0.02109763 0.00167357 0.02859590 0.08097261 0.02360959 0.02760032 
0.01713106 0.03005947 0.00205669 0.00161308 0.00788889 0.00143678 0.00985317 0.00783962 0.03701737 0.00777615 0.02127096 0.00167274 0.02936848 0.08143306 0.02351616 0.02801612 
0.01708944 0.02977608 0.00205857 0.00160842 0.00807108 0.00141960 0.01003200 0.00783513 0.03719526 0.00776737 0.02143004 0.00167146 0.03011690 0.08188892 0.02340899 0.02840082 
0.01704761 0.02948387 0.00206029 0.00160471 0.00824783 0.00140333 0.01020794 0.00782403 0.03736829 0.00775161 0.02157437 0.00166973 0.03083769 0.08234367 0.02328964 0.02875242 
0.01700651 0.02918471 0.00206190 0.00160195 0.00841828 0.00138800 0.01038005 0.00780626 0.03753471 0.00772875 0.02170356 0.00166755 0.03152746 0.08280079 0.02315972 0.02906910 
0.01696709 0.02888057 0.00206344 0.00160011 0.00858165 0.00137362 0.01054738 0.00778183 0.03769283 0.00769869 0.02181727 0.00166495 0.03218298 0.08326379 0.02302088 0.02934925 
0.01693032 0.02857352 0.00206496 0.00159919 0.00873718 0.00136022 0.01070899 0.00775081 0.03784107 0.00766140 0.02191523 0.00166193 0.03280116 0.08373612 0.02287485 0.02959151 
0.01689716 0.02826570 0.00206653 0.00159917 0.00888419 0.00134781 0.01086398 0.00771330 0.03797790 0.00761690 0.02199727 0.00165851 0.03337908 0.08422116 0.02272334 0.02979469 
0.01686859 0.02795932 0.00206818 0.00160002 0.00902204 0.00133638 0.01101146 0.00766951 0.03810192 0.00756524 0.02206330 0.00165470 0.03391398 0.08472222 0.02256812 0.02995789 
0.01684557 0.02765665 0.00206999 0.00160174 0.00915014 0.00132595 0.01115056 0.00761968 0.03821183 0.00750655 0.02211330 0.00165052 0.03440334 0.08524245 0.02241095 0.03008043 
0.01682902 0.02736000 0.00207202 0.00160429 0.00926799 0.00131651 0.01128045 0.00756409 0.03830644 0.00744099 0.02214734 0.00164599 0.03484482 0.08578486 0.02225358 0.03016189 
0.01681987 0.02707174 0.00207433 0.00160766 0.00937513 0.00130806 0.01140035 0.00750312 0.03838468 0.00736879 0.02216559 0.00164112 0.03523632 0.08635227 0.02209772 0.03020210 
0.01681900 0.02679423 0.00207699 0.00161183 0.00947118 0.00130060 0.01150952 0.00743716 0.03844562 0.00729021 0.02216828 0.00163594 0.03557599 0.08694728 0.02194509 0.03020114 
0.01682726 0.02652985 0.00208007 0.00161678 0.00955584 0.00129412 0.01160727 0.00736667 0.03848842 0.00720560 0.02215575 0.00163046 0.03586221 0.08757224 0.02179732 0.03015937 
0.01684543 0.02628098 0.00208364 0.00162250 0.00962886 0.00128861 0.01169297 0.00729215 0.03851242 0.00711531 0.02212842 0.00162472 0.03609363 0.08822924 0.02165600 0.03007736 
0.01687426 0.02604997 0.00208777 0.00162896 0.00969008 0.00128406 0.01176606 0.00721416 0.03851705 0.00701978 0.02208678 0.00161872 0.03626916 0.08892008 0.02152266 0.02995599 
0.01691442 0.02583915 0.00209254 0.00163615 0.00973940 0.00128045 0.01182603 0.00713327 0.03850191 0.00691949 0.02203141 0.00161249 0.03638799 0.08964624 0.02139873 0.02979632 
0.01696653 0.02565080 0.00209802 0.00164406 0.00977680 0.00127778 0.01187245 0.00705009 0.03846673 0.00681494 0.02196298 0.00160605 0.03644957 0.09040887 0.02128554 0.02959971 
0.01703112 0.02548711 0.00210429 0.00165267 0.00980233 0.00127603 0.01190496 0.00696528 0.03841136 0.00670669 0.02188223 0.00159943 0.03645366 0.09120877 0.02118436 0.02936769 
0.01710864 0.02535024 0.00211142 0.00166198 0.00981610 0.00127518 0.01192330 0.00687951 0.03833579 0.00659536 0.02178998 0.00159265 0.03640026 0.09204638 0.02109631 0.02910204 
0.01719946 0.02524223 0.00211950 0.00167197 0.00981829 0.00127522 0.01192725 0.00679345 0.03824017 0.00648157 0.02168711 0.00158574 0.03628968 0.09292176 0.02102240 0.02880473 
0.01730386 0.02516503 0.00212858 0.00168265 0.00980916 0.00127614 0.01191671 0.00670783 0.03812475 0.00636600 0.02157457 0.00157871 0.03612250 0.09383458 0.02096353 0.02847793 
0.01742202 0.02512047 0.00213876 0.00169400 0.00978901 0.00127792 0.01189165 0.00662334 0.03798991 0.00624934 0.02145340 0.00157160 0.03589956 0.09478412 0.02092045 0.02812398 
0.01755402 0.02511024 0.00215011 0.00170602 0.00975821 0.00128056 0.01185211 0.00654071 0.03783618 0.00613232 0.02132466 0.00156442 0.03562197 0.09576926 0.02089378 0.02774537 
0.01769984 0.02513592 0.00216269 0.00171871 0.00971719 0.00128403 0.01179825 0.00646064 0.03766418 0.00601569 0.02118950 0.00155721 0.03529111 0.09678848 0.02088400 0.02734474 
0.01785935 0.02519890 0.00217659 0.00173207 0.00966641 0.00128834 0.01173027 0.00638384 0.03747465 0.00590020 0.02104910 0.00154998 0.03490861 0.09783988 0.02089144 0.02692484 
0.01803231 0.02530043 0.00219186 0.00174611 0.00960641 0.00129346 0.01164851 0.00631101 0.03726846 0.00578663 0.02090468 0.00154277 0.03447634 0.09892114 0.02091628 0.02648854 
0.01821837 0.02544158 0.00220858 0.00176083 0.00953774 0.00129939 0.01155335 0.00624281 0.03704654 0.00567578 0.02075750 0.00153558 0.03399638 0.10002958 0.02095856 0.02603876 
0.01841709 0.02562323 0.00222681 0.00177623 0.00946101 0.00130612 0.01144526 0.00617991 0.03680994 0.00556841 0.02060887 0.00152845 0.03347105 0.10116212 0.02101817 0.02557851 
0.01862789 0.02584608 0.00224661 0.00179232 0.00937684 0.00131365 0.01132481 0.00612291 0.03655980 0.00546533 0.02046010 0.00152141 0.03290287 0.10231534 0.02109485 0.02511083 
0.01885010 0.02611061 0.00226804 0.00180911 0.00928589 0.00132198 0.01119263 0.00607240 0.03629732 0.00536730 0.02031253 0.00151446 0.03229452 0.10348546 0.02118819 0.02463878 
0.01908292 0.02641712 0.00229113 0.00182660 0.00918884 0.00133109 0.01104942 0.00602895 0.03602378 0.00527509 0.02016751 0.00150764 0.03164890 0.10466837 0.02129764 0.02416541 
0.01932548 0.02676568 0.00231596 0.00184481 0.00908639 0.00134098 0.01089595 0.00599305 0.03574051 0.00518946 0.02002639 0.00150097 0.03096901 0.10585967 0.02142252 0.02369377 
0.01957678 0.02715614 0.00234254 0.00186373 0.00897923 0.00135166 0.01073306 0.00596516 0.03544891 0.00511114 0.01989051 0.00149446 0.03025803 0.10705466 0.02156200 0.02322685 
0.01983573 0.02758814 0.00237092 0.00188337 0.00886808 0.00136311 0.01056165 0.00594571 0.03515039 0.00504082 0.01976121 0.00148814 0.02951923 0.10824839 0.02171515 0.02276758 
0.02010114 0.02806108 0.00240113 0.00190374 0.00875363 0.00137535 0.01038267 0.00593505 0.03484643 0.00497918 0.01963981 0.00148202 0.02875600 0.10943568 0.02188089 0.02231880 
0.02037175 0.02857417 0.00243319 0.00192485 0.00863660 0.00138837 0.01019710 0.00593348 0.03453851 0.00492687 0.01952760 0.00147612 0.02797178 0.11061115 0.02205804 0.02188327 
0.02064619 0.02912637 0.00246712 0.00194669 0.00851767 0.00140217 0.01000600 0.00594125 0.03422812 0.00488448 0.01942583 0.00147046 0.02717011 0.11176925 0.02224534 0.02146361 
0.02092304 0.02971642 0.00250291 0.00196927 0.00839750 0.00141675 0.00981042 0.00595855 0.03391677 0.00485257 0.01933572 0.00146506 0.02635454 0.11290429 0.02244140 0.02106232 
0.02120080 0.03034286 0.00254057 0.00199258 0.00827676 0.00143211 0.00961146 0.00598549 0.03360595 0.00483165 0.01925843 0.00145992 0.02552865 0.11401051 0.02264476 0.02068176 
0.02147791 0.03100400 0.00258010 0.00201662 0.00815605 0.00144825 0.00941024 0.00602215 0.03329715 0.00482219 0.01919507 0.00145507 0.02469603 0.11508206 0.02285390 0.02032409 
0.02175276 0.03169795 0.00262146 0.00204138 0.00803598 0.00146517 0.00920789 0.00606851 0.03299181 0.00482458 0.01914669 0.00145051 0.02386025 0.11611307 0.02306723 0.01999132 
0.02202371 0.03242261 0.00266464 0.00206684 0.00791709 0.00148287 0.00900554 0.00612451 0.03269138 0.00483919 0.01911426 0.00144625 0.02302483 0.11709769 0.02328310 0.01968528 
0.02228907 0.03317571 0.00270960 0.00209300 0.00779991 0.00150133 0.00880432 0.00619003 0.03239721 0.00486630 0.01909868 0.00144231 0.02219325 0.11803013 0.02349983 0.01940758 
0.02254714 0.03395477 0.00275629 0.00211984 0.00768492 0.00152056 0.00860535 0.00626486 0.03211066 0.00490615 0.01910075 0.00143869 0.02136892 0.11890469 0.02371573 0.01915963 
0.02279621 0.03475717 0.00280465 0.00214733 0.00757254 0.00154055 0.00840972 0.00634876 0.03183299 0.00495890 0.01912122 0.00143540 0.02055516 0.11971578 0.02392907 0.01894264 
0.02303457 0.03558009 0.00285462 0.00217544 0.00746316 0.00156128 0.00821852 0.00644140 0.03156541 0.00502466 0.01916070 0.00143243 0.01975517 0.12045801 0.02413814 0.01875758 
0.02326053 0.03642060 0.00290612 0.00220414 0.00735713 0.00158275 0.00803278 0.00654243 0.03130906 0.00510347 0.01921973 0.00142981 0.01897205 0.12112618 0.02434122 0.01860521 
0.02347240 0.03727561 0.00295907 0.00223339 0.00725472 0.00160493 0.00785350 0.00665141 0.03106500 0.00519529 0.01929874 0.00142752 0.01820876 0.12171535 0.02453664 0.01848607 
0.02366854 0.03814194 0.00301337 0.00226315 0.00715618 0.00162782 0.00768165 0.00676786 0.03083420 0.00530003 0.01939803 0.00142556 0.01746811 0.12222085 0.02472274 0.01840047 
0.02384736 0.03901628 0.00306892 0.00229338 0.00706169 0.00165139 0.00751812 0.00689125 0.03061753 0.00541753 0.01951782 0.00142394 0.01675275 0.12263835 0.02489794 0.01834851 
0.02400733 0.03989526 0.00312559 0.00232402 0.00697137 0.00167562 0.00736375 0.00702101 0.03041580 0.00554755 0.01965819 0.00142265 0.01606515 0.12296385 0.02506069 0.01833004 
0.02414699 0.04077543 0.00318326 0.00235501 0.00688532 0.00170047 0.00721933 0.00715651 0.03022969 0.00568980 0.01981911 0.00142169 0.01540761 0.12319377 0.02520952 0.01834473 
0.02426494 0.04165329 0.00324181 0.00238628 0.00680355 0.00172592 0.00708555 0.00729712 0.03005979 0.00584391 0.02000043 0.00142104 0.01478226 0.12332491 0.02534304 0.01839201 
0.02435990 0.04252530 0.00330108 0.00241778 0.00672605 0.00175193 0.00696305 0.00744212 0.02990658 0.00600947 0.02020189 0.00142070 0.01419100 0.12335455 0.02545995 0.01847115 
0.02443068 0.04338794 0.00336092 0.00244943 0.00665275 0.00177847 0.00685237 0.00759082 0.02977043 0.00618598 0.02042309 0.00142066 0.01363554 0.12328043 0.02555906 0.01858118 
0.02447621 0.04423766 0.00342118 0.00248115 0.00658354 0.00180548 0.00675400 0.00774246 0.02965161 0.00637291 0.02066352 0.00142091 0.01311738 0.12310079 0.02563928 0.01872097 
0.02449553 0.04507096 0.00348168 0.00251286 0.00651826 0.00183292 0.00666830 0.00789629 0.02955028 0.00656963 0.02092254 0.00142142 0.01263784 0.12281439 0.02569963 0.01888923 
0.02448782 0.04588437 0.00354226 0.00254447 0.00645670 0.00186075 0.00659558 0.00805152 0.02946649 0.00677551 0.02119941 0.00142219 0.01219798 0.12242052 0.02573926 0.01908450 
0.02445240 0.04667452 0.00360272 0.00257589 0.00639862 0.00188891 0.00653603 0.00820738 0.02940019 0.00698982 0.02149325 0.00142320 0.01179867 0.12191903 0.02575745 0.01930516 
0.02438874 0.04743807 0.00366290 0.00260703 0.00634377 0.00191734 0.00648977 0.00836307 0.02935122 0.00721182 0.02180309 0.00142443 0.01144058 0.12131035 0.02575361 0.01954948 
0.02429647 0.04817184 0.00372259 0.00263779 0.00629182 0.00194599 0.00645681 0.00851781 0.02931931 0.00744071 0.02212784 0.00142585 0.01112415 0.12059546 0.02572730 0.01981560 
0.02417537 0.04887273 0.00378161 0.00266806 0.00624245 0.00197478 0.00643709 0.00867081 0.02930410 0.00767565 0.02246629 0.00142744 0.01084963 0.11977594 0.02567822 0.02010157 
0.02402538 0.04953779 0.00383976 0.00269774 0.00619530 0.00200365 0.00643044 0.00882130 0.02930513 0.00791577 0.02281717 0.00142919 0.01061704 0.11885396 0.02560619 0.02040535 
0.02384664 0.05016425 0.00389683 0.00272673 0.00615001 0.00203254 0.00643661 0.00896852 0.02932187 0.00816016 0.02317907 0.00143106 0.01042622 0.11783225 0.02551120 0.02072482 
0.02363942 0.05074949 0.00395263 0.00275492 0.00610617 0.00206137 0.00645525 0.00911175 0.02935369 0.00840790 0.02355054 0.00143302 0.01027681 0.11671415 0.02539339 0.02105784 
0.02340422 0.05129108 0.00400696 0.00278220 0.00606339 0.00209006 0.00648595 0.00925026 0.02939987 0.00865803 0.02393001 0.00143506 0.01016828 0.11550357 0.02525303 0.02140219 
0.02314166 0.05178679 0.00405962 0.00280846 0.00602126 0.00211855 0.00652819 0.00938337 0.02945966 0.00890961 0.02431586 0.00143713 0.01009991 0.11420496 0.02509054 0.02175567 
0.02285257 0.05223463 0.00411042 0.00283358 0.00597937 0.00214675 0.00658139 0.00951045 0.02953221 0.00916164 0.02470640 0.00143921 0.01007081 0.11282334 0.02490650 0.02211607 
0.02253795 0.05263282 0.00415916 0.00285747 0.00593732 0.00217459 0.00664489 0.00963086 0.02961663 0.00941315 0.02509990 0.00144127 0.01007994 0.11136427 0.02470160 0.02248118 
0.02219898 0.05297982 0.00420564 0.00288000 0.00589471 0.00220198 0.00671797 0.00974405 0.02971200 0.00966317 0.02549457 0.00144328 0.01012609 0.10983382 0.02447669 0.02284883 
0.02183698 0.05327435 0.00424970 0.00290108 0.00585114 0.00222886 0.00679983 0.00984948 0.02981735 0.00991071 0.02588858 0.00144520 0.01020795 0.10823854 0.02423274 0.02321692 
0.02145346 0.05351538 0.00429114 0.00292059 0.00580624 0.00225514 0.00688964 0.00994667 0.02993169 0.01015481 0.02628011 0.00144700 0.01032404 0.10658545 0.02397085 0.02358338 
0.02105009 0.05370215 0.00432980 0.00293844 0.00575967 0.00228074 0.00698649 0.01003518 0.03005401 0.01039453 0.02666728 0.00144865 0.01047281 0.10488201 0.02369224 0.02394623 
0.02062868 0.05383416 0.00436552 0.00295452 0.00571108 0.00230559 0.00708945 0.01011463 0.03018331 0.01062894 0.02704824 0.00145012 0.01065258 0.10313609 0.02339823 0.02430358 
0.02019119 0.05391121 0.00439814 0.00296874 0.00566016 0.00232962 0.00719754 0.01018470 0.03031859 0.01085714 0.02742113 0.00145137 0.01086158 0.10135591 0.02309026 0.02465367 
0.01973969 0.05393334 0.00442751 0.00298101 0.00560665 0.00235275 0.00730975 0.01024509 0.03045887 0.01107827 0.02778413 0.00145237 0.01109798 0.09955006 0.02276987 0.02499481 
0.01927642 0.05390090 0.00445352 0.00299124 0.00555029 0.00237491 0.00742505 0.01029559 0.03060320 0.01129149 0.02813543 0.00145308 0.01135987 0.09772738 0.02243868 0.02532548 
0.01880369 0.05381451 0.00447603 0.00299935 0.00549087 0.00239604 0.00754239 0.01033604 0.03075067 0.01149601 0.02847327 0.00145349 0.01164529 0.09589701 0.02209838 0.02564427 
0.01832394 0.05367505 0.00449494 0.00300527 0.00542823 0.00241608 0.00766072 0.01036631 0.03090044 0.01169110 0.02879594 0.00145356 0.01195226 0.09406826 0.02175076 0.02594994 
0.01783967 0.05348369 0.00451015 0.00300894 0.00536222 0.00243496 0.00777899 0.01038635 0.03105170 0.01187606 0.02910180 0.00145327 0.01227875 0.09225065 0.02139763 0.02624138 
0.01735347 0.05324185 0.00452159 0.00301028 0.00529275 0.00245263 0.00789615 0.01039616 0.03120375 0.01205025 0.02938928 0.00145257 0.01262274 0.09045379 0.02104089 0.02651767 
0.01686800 0.05295124 0.00452919 0.00300925 0.00521977 0.00246904 0.00801116 0.01039580 0.03135596 0.01221309 0.02965688 0.00145147 0.01298217 0.08868738 0.02068245 0.02677803 
0.01638594 0.05261378 0.00453290 0.00300581 0.00514326 0.00248416 0.00812301 0.01038536 0.03150780 0.01236405 0.02990322 0.00144992 0.01335504 0.08696115 0.02032427 0.02702187 
0.01591000 0.05223166 0.00453268 0.00299992 0.00506327 0.00249794 0.00823073 0.01036500 0.03165884 0.01250269 0.03012700 0.00144791 0.01373933 0.08528481 0.01996832 0.02724875 
0.01544293 0.05180730 0.00452853 0.00299156 0.00497987 0.00251034 0.00833335 0.01033493 0.03180877 0.01262862 0.03032705 0.00144543 0.01413308 0.08366801 0.01961657 0.02745844 
0.01498745 0.05134332 0.00452043 0.00298071 0.00489317 0.00252135 0.00842999 0.01029540 0.03195741 0.01274152 0.03050231 0.00144246 0.01453435 0.08212025 0.01927101 0.02765085 
0.01454627 0.05084258 0.00450841 0.00296737 0.00480334 0.00253095 0.00851977 0.01024671 0.03210469 0.01284114 0.03065184 0.00143899 0.01494127 0.08065091 0.01893360 0.02782608 
0.01412205 0.05030810 0.00449249 0.00295154 0.00471059 0.00253912 0.00860191 0.01018921 0.03225070 0.01292731 0.03077485 0.00143501 0.01535202 0.07926912 0.01860628 0.02798439 
0.01371740 0.04974309 0.00447274 0.00293323 0.00461516 0.00254585 0.00867564 0.01012327 0.03239567 0.01299994 0.03087069 0.00143052 0.01576485 0.07798377 0.01829096 0.02812623 
0.01333488 0.04915094 0.00444921 0.00291248 0.00451734 0.00255116 0.00874029 0.01004931 0.03253997 0.01305899 0.03093885 0.00142553 0.01617810 0.07680342 0.01798951 0.02825217 
0.01297693 0.04853515 0.00442199 0.00288932 0.00441744 0.00255504 0.00879526 0.00996779 0.03268412 0.01310452 0.03097895 0.00142003 0.01659018 0.07573630 0.01770374 0.02836297 
0.01264591 0.04789936 0.00439118 0.00286379 0.00431583 0.00255752 0.00883999 0.00987920 0.03282881 0.01313666 0.03099080 0.00141403 0.01699958 0.07479020 0.01743540 0.02845952 
0.01234404 0.04724734 0.00435690 0.00283596 0.00421289 0.00255862 0.00887404 0.00978404 0.03297486 0.01315562 0.03097434 0.00140755 0.01740493 0.07397251 0.01718618 0.02854285 
0.01207343 0.04658293 0.00431929 0.00280591 0.00410903 0.00255837 0.00889701 0.00968285 0.03312328 0.01316166 0.03092968 0.00140061 0.01780491 0.07329010 0.01695766 0.02861412 
0.01183603 0.04591004 0.00427850 0.00277370 0.00400472 0.00255681 0.00890860 0.00957619 0.03327520 0.01315514 0.03085707 0.00139323 0.01819833 0.07274933 0.01675137 0.02867459 
0.01163361 0.04523263 0.00423469 0.00273945 0.00390040 0.00255398 0.00890859 0.00946465 0.03343192 0.01313647 0.03075693 0.00138543 0.01858410 0.07235597 0.01656872 0.02872564 
0.01146779 0.04455471 0.00418805 0.00270324 0.00379658 0.00254995 0.00889686 0.00934880 0.03359489 0.01310615 0.03062983 0.00137725 0.01896125 0.07211523 0.01641101 0.02876873 
0.01133999 0.04388028 0.00413877 0.00266520 0.00369377 0.00254476 0.00887333 0.00922925 0.03376568 0.01306472 0.03047650 0.00136873 0.01932892 0.07203164 0.01627947 0.02880543 
0.01125143 0.04321335 0.00408707 0.00262545 0.00359247 0.00253849 0.00883806 0.00910661 0.03394602 0.01301280 0.03029781 0.00135991 0.01968634 0.07210910 0.01617515 0.02883732 
0.01120312 0.04255791 0.00403317 0.00258413 0.00349323 0.00253121 0.00879116 0.00898150 0.03413776 0.01295107 0.03009478 0.00135082 0.02003287 0.07235080 0.01609904 0.02886606 
0.01119586 0.04191787 0.00397730 0.00254139 0.00339657 0.00252300 0.00873282 0.00885453 0.03434285 0.01288025 0.02986855 0.00134154 0.02036799 0.07275923 0.01605197 0.02889335 
0.01123023 0.04129710 0.00391972 0.00249738 0.00330304 0.00251394 0.00866333 0.00872633 0.03456335 0.01280111 0.02962043 0.00133211 0.02069127 0.07333612 0.01603464 0.02892090 
0.01130656 0.04069939 0.00386068 0.00245228 0.00321316 0.00250413 0.00858306 0.00859748 0.03480143 0.01271449 0.02935181 0.00132259 0.02100240 0.07408247 0.01604763 0.02895040 
0.01142497 0.04012842 0.00380045 0.00240625 0.00312749 0.00249366 0.00849243 0.00846862 0.03505932 0.01262124 0.02906423 0.00131305 0.02130116 0.07499849 0.01609135 0.02898356 
0.01158533 0.03958774 0.00373931 0.00235948 0.00304652 0.00248263 0.00839196 0.00834032 0.03533931 0.01252227 0.02875931 0.00130356 0.02158744 0.07608362 0.01616611 0.02902204 
0.01178726 0.03908078 0.00367754 0.00231216 0.00297079 0.00247114 0.00828222 0.00821316 0.03564376 0.01241850 0.02843881 0.00129419 0.02186123 0.07733653 0.01627204 0.02906746 
0.01203016 0.03861080 0.00361543 0.00226449 0.00290077 0.00245930 0.00816387 0.00808772 0.03597502 0.01231088 0.02810452 0.00128502 0.02212261 0.07875507 0.01640915 0.02912139 
0.01231319 0.03818089 0.00355328 0.00221667 0.00283694 0.00244723 0.00803760 0.00796455 0.03633549 0.01220039 0.02775836 0.00127612 0.02237173 0.08033632 0.01657730 0.02918531 
0.01263527 0.03779398 0.00349139 0.00216892 0.00277976 0.00243503 0.00790417 0.00784417 0.03672754 0.01208800 0.02740228 0.00126759 0.02260883 0.08207660 0.01677620 0.02926061 
0.01299509 0.03745276 0.00343007 0.00212145 0.00272965 0.00242282 0.00776439 0.00772710 0.03715352 0.01197472 0.02703829 0.00125951 0.02283425 0.08397141 0.01700543 0.02934859 
0.01339112 0.03715975 0.00336962 0.00207449 0.00268701 0.00241071 0.00761912 0.00761383 0.03761572 0.01186151 0.02666846 0.00125196 0.02304834 0.08601555 0.01726440 0.02945042 
0.01382160 0.03691721 0.00331034 0.00202824 0.00265220 0.00239883 0.00746926 0.00750482 0.03811638 0.01174937 0.02629486 0.00124504 0.02325157 0.08820303 0.01755241 0.02956715 
0.01428459 0.03672719 0.00325254 0.00198294 0.00262556 0.00238728 0.00731572 0.00740051 0.03865762 0.01163926 0.02591959 0.00123884 0.02344443 0.09052717 0.01786861 0.02969968 
0.01477793 0.03659146 0.00319652 0.00193882 0.00260738 0.00237619 0.00715946 0.00730131 0.03924148 0.01153214 0.02554476 0.00123344 0.02362744 0.09298059 0.01821203 0.02984878 
0.01529929 0.03651157 0.00314259 0.00189611 0.00259791 0.00236566 0.00700145 0.00720762 0.03986984 0.01142892 0.02517246 0.00122894 0.02380121 0.09555526 0.01858155 0.03001504 
0.01584615 0.03648878 0.00309103 0.00185502 0.00259739 0.00235581 0.00684269 0.00711978 0.04054444 0.01133050 0.02480474 0.00122544 0.02396633 0.09824249 0.01897595 0.03019889 
0.01641584 0.03652410 0.00304214 0.00181578 0.00260597 0.00234675 0.00668416 0.00703813 0.04126683 0.01123774 0.02444365 0.00122302 0.02412343 0.10103303 0.01939388 0.03040059 
0.01700557 0.03661823 0.00299619 0.00177863 0.00262380 0.00233859 0.00652686 0.00696297 0.04203839 0.01115144 0.02409117 0.00122177 0.02427316 0.10391708 0.01983389 0.03062022 
0.01761239 0.03677162 0.00295346 0.00174377 0.00265097 0.00233141 0.00637178 0.00689457 0.04286025 0.01107237 0.02374921 0.00122178 0.02441617 0.10688432 0.02029442 0.03085767 
0.01823325 0.03698442 0.00291420 0.00171142 0.00268753 0.00232533 0.00621989 0.00683316 0.04373333 0.01100125 0.02341963 0.00122313 0.02455311 0.10992397 0.02077380 0.03111267 
0.01886502 0.03725650 0.00287868 0.00168180 0.00273347 0.00232044 0.00607217 0.00677895 0.04465829 0.01093873 0.02310420 0.00122591 0.02468462 0.11302487 0.02127031 0.03138472 
0.01950449 0.03758742 0.00284712 0.00165509 0.00278876 0.00231681 0.00592954 0.00673213 0.04563552 0.01088540 0.02280459 0.00123020 0.02481132 0.11617548 0.02178211 0.03167319 
0.02014840 0.03797646 0.00281975 0.00163150 0.00285332 0.00231454 0.00579292 0.00669284 0.04666511 0.01084179 0.02252235 0.00123605 0.02493381 0.11936399 0.02230731 0.03197723 
0.02079344 0.03842263 0.00279678 0.00161121 0.00292701 0.00231368 0.00566316 0.00666119 0.04774689 0.01080835 0.02225896 0.00124356 0.02505267 0.12257832 0.02284396 0.03229583 
0.02143631 0.03892463 0.00277839 0.00159439 0.00300966 0.00231432 0.00554111 0.00663728 0.04888035 0.01078547 0.02201573 0.00125277 0.02516842 0.12580626 0.02339007 0.03262779 
0.02207369 0.03948088 0.00276476 0.00158122 0.00310105 0.00231650 0.00542754 0.00662115 0.05006466 0.01077345 0.02179388 0.00126374 0.02528156 0.12903545 0.02394358 0.03297177 
0.02270230 0.04008954 0.00275605 0.00157184 0.00320094 0.00232028 0.00532320 0.00661283 0.05129867 0.01077253 0.02159445 0.00127653 0.02539253 0.13225349 0.02450243 0.03332625 
0.02331890 0.04074847 0.00275239 0.00156638 0.00330903 0.00232569 0.00522875 0.00661231 0.05258089 0.01078286 0.02141839 0.00129117 0.02550173 0.13544799 0.02506453 0.03368958 
0.02392033 0.04145530 0.00275389 0.00156498 0.00342499 0.00233277 0.00514482 0.00661957 0.05390949 0.01080450 0.02126645 0.00130770 0.02560947 0.13860665 0.02562777 0.03405997 
0.02450349 0.04220738 0.00276065 0.00156774 0.00354844 0.00234154 0.00507195 0.00663453 0.05528230 0.01083745 0.02113926 0.00132615 0.02571603 0.14171732 0.02619006 0.03443549 
0.02506538 0.04300182 0.00277272 0.00157477 0.00367900 0.00235201 0.00501065 0.00665710 0.05669681 0.01088161 0.02103728 0.00134653 0.02582162 0.14476804 0.02674933 0.03481412 
0.02560315 0.04383548 0.00279017 0.00158612 0.00381622 0.00236417 0.00496134 0.00668717 0.05815017 0.01093681 0.02096083 0.00136886 0.02592637 0.14774714 0.02730351 0.03519376 
0.02611406 0.04470503 0.00281300 0.00160187 0.00395964 0.00237804 0.00492435 0.00672457 0.05963919 0.01100280 0.02091005 0.00139313 0.02603034 0.15064328 0.02785058 0.03557219 
0.02659554 0.04560690 0.00284122 0.00162205 0.00410877 0.00239357 0.00489998 0.00676914 0.06116035 0.01107924 0.02088493 0.00141933 0.02613354 0.15344553 0.02838858 0.03594716 
0.02704517 0.04653732 0.00287480 0.00164669 0.00426309 0.00241075 0.00488841 0.00682068 0.06270983 0.01116573 0.02088531 0.00144744 0.02623588 0.15614341 0.02891558 0.03631637 
0.02746073 0.04749237 0.00291367 0.00167579 0.00442208 0.00242953 0.00488978 0.00687895 0.06428348 0.01126178 0.02091087 0.00147745 0.02633721 0.15872696 0.02942975 0.03667749 
0.02784019 0.04846792 0.00295777 0.00170934 0.00458517 0.00244987 0.00490413 0.00694371 0.06587687 0.01136685 0.02096113 0.00150929 0.02643732 0.16118681 0.02992930 0.03702819 
0.02818173 0.04945973 0.00300697 0.00174729 0.00475179 0.00247170 0.00493144 0.00701468 0.06748530 0.01148030 0.02103547 0.00154293 0.02653590 0.16351419 0.03041256 0.03736616 
0.02848374 0.05046341 0.00306115 0.00178960 0.00492134 0.00249495 0.00497161 0.00709155 0.06910381 0.01160147 0.02113314 0.00157831 0.02663260 0.16570103 0.03087794 0.03768909 
0.02874486 0.05147445 0.00312015 0.00183617 0.00509325 0.00251955 0.00502446 0.00717402 0.07072721 0.01172959 0.02125322 0.00161536 0.02672698 0.16773998 0.03132396 0.03799477 
0.02896394 0.05248826 0.00318378 0.00188692 0.00526688 0.00254539 0.00508973 0.00726172 0.07235007 0.01186389 0.02139470 0.00165398 0.02681855 0.16962444 0.03174924 0.03828101 
0.02914007 0.05350018 0.00325182 0.00194172 0.00544164 0.00257239 0.00516710 0.00735432 0.07396681 0.01200351 0.02155641 0.00169411 0.02690677 0.17134861 0.03215254 0.03854576 
0.02927261 0.05450548 0.00332405 0.00200044 0.00561691 0.00260042 0.00525617 0.00745141 0.07557167 0.01214756 0.02173709 0.00173563 0.02699101 0.17290754 0.03253272 0.03878705 
0.02936115 0.05549940 0.00340020 0.00206291 0.00579206 0.00262937 0.00535650 0.00755262 0.07715875 0.01229511 0.02193538 0.00177845 0.02707064 0.17429713 0.03288880 0.03900304 
0.02940553 0.05647720 0.00347998 0.00212895 0.00596649 0.00265912 0.00546753 0.00765752 0.07872207 0.01244522 0.02214979 0.00182243 0.02714493 0.17551417 0.03321991 0.03919205 
0.02940585 0.05743412 0.00356310 0.00219837 0.00613958 0.00268953 0.00558870 0.00776568 0.08025556 0.01259689 0.02237879 0.00186746 0.02721316 0.17655635 0.03352533 0.03935256 
0.02936244 0.05836546 0.00364921 0.00227093 0.00631074 0.00272046 0.00571935 0.00787667 0.08175311 0.01274913 0.02262075 0.00191340 0.02727454 0.17742226 0.03380448 0.03948320 
0.02927589 0.05926655 0.00373796 0.00234642 0.00647936 0.00275175 0.00585878 0.00799004 0.08320861 0.01290092 0.02287397 0.00196011 0.02732829 0.17811142 0.03405692 0.03958284 
0.02914703 0.06013283 0.00382900 0.00242456 0.00664487 0.00278326 0.00600624 0.00810533 0.08461598 0.01305124 0.02313672 0.00200744 0.02737357 0.17862429 0.03428238 0.03965052 
0.02897690 0.06095983 0.00392193 0.00250510 0.00680669 0.00281483 0.00616094 0.00822206 0.08596919 0.01319909 0.02340721 0.00205524 0.02740957 0.17896223 0.03448071 0.03968552 
0.02876680 0.06174322 0.00401634 0.00258774 0.00696428 0.00284629 0.00632203 0.00833978 0.08726231 0.01334346 0.02368365 0.00210334 0.02743544 0.17912749 0.03465190 0.03968733 
0.02851822 0.06247880 0.00411183 0.00267217 0.00711711 0.00287748 0.00648865 0.00845799 0.08848955 0.01348336 0.02396420 0.00215159 0.02745037 0.17912323 0.03479611 0.03965569 
0.02823286 0.06316257 0.00420797 0.00275810 0.00726465 0.00290822 0.00665990 0.00857624 0.08964525 0.01361783 0.02424705 0.00219980 0.02745354 0.17895349 0.03491361 0.03959059 
0.02791263 0.06379070 0.00430431 0.00284518 0.00740642 0.00293835 0.00683483 0.00869403 0.09072399 0.01374593 0.02453036 0.00224782 0.02744414 0.17862312 0.03500484 0.03949225 
0.02755958 0.06435959 0.00440041 0.00293308 0.00754194 0.00296769 0.00701251 0.00881091 0.09172055 0.01386676 0.02481234 0.00229546 0.02742142 0.17813781 0.03507033 0.03936117 
0.02717598 0.06486588 0.00449581 0.00302146 0.00767078 0.00299606 0.00719196 0.00892640 0.09262998 0.01397947 0.02509123 0.00234254 0.02738464 0.17750400 0.03511077 0.03919807 
0.02676421 0.06530646 0.00459006 0.00310996 0.00779251 0.00302331 0.00737223 0.00904005 0.09344763 0.01408325 0.02536529 0.00238890 0.02733312 0.17672886 0.03512696 0.03900396 
0.02632681 0.06567851 0.00468270 0.00319823 0.00790673 0.00304926 0.00755232 0.00915141 0.09416916 0.01417736 0.02563285 0.00243434 0.02726622 0.17582026 0.03511981 0.03878008 
0.02586644 0.06597949 0.00477327 0.00328590 0.00801310 0.00307374 0.00773127 0.00926004 0.09479059 0.01426110 0.02589231 0.00247870 0.02718338 0.17478669 0.03509033 0.03852792 
0.02538583 0.06620718 0.00486133 0.00337261 0.00811126 0.00309659 0.00790810 0.00936553 0.09530831 0.01433386 0.02614212 0.00252180 0.02708407 0.17363720 0.03503963 0.03824920 
0.02488785 0.06635969 0.00494642 0.00345798 0.00820093 0.00311765 0.00808186 0.00946747 0.09571910 0.01439508 0.02638083 0.00256346 0.02696786 0.17238138 0.03496891 0.03794589 
0.02437539 0.06643548 0.00502810 0.00354167 0.00828182 0.00313678 0.00825162 0.00956549 0.09602019 0.01444429 0.02660708 0.00260352 0.02683440 0.17102925 0.03487944 0.03762017 
0.02385141 0.06643334 0.00510596 0.00362331 0.00835370 0.00315382 0.00841645 0.00965923 0.09620923 0.01448109 0.02681960 0.00264182 0.02668340 0.16959123 0.03477255 0.03727442 
0.02331891 0.06635245 0.00517958 0.00370254 0.00841636 0.00316865 0.00857548 0.00974836 0.09628433 0.01450516 0.02701723 0.00267819 0.02651470 0.16807806 0.03464965 0.03691122 
0.02278088 0.06619236 0.00524857 0.00377902 0.00846963 0.00318113 0.00872785 0.00983256 0.09624408 0.01451628 0.02719892 0.00271249 0.02632819 0.16650071 0.03451217 0.03653333 
0.02224033 0.06595301 0.00531254 0.00385242 0.00851335 0.00319116 0.00887274 0.00991158 0.09608755 0.01451431 0.02736374 0.00274456 0.02612388 0.16487034 0.03436157 0.03614366 
0.02170022 0.06563472 0.00537115 0.00392240 0.00854743 0.00319861 0.00900940 0.00998515 0.09581432 0.01449919 0.02751088 0.00277428 0.02590189 0.16319822 0.03419935 0.03574527 
0.02116350 0.06523821 0.00542407 0.00398866 0.00857179 0.00320341 0.00913708 0.01005307 0.09542445 0.01447097 0.02763965 0.00280151 0.02566243 0.16149562 0.03402700 0.03534132 
0.02063305 0.06476460 0.00547098 0.00405089 0.00858640 0.00320545 0.00925512 0.01011517 0.09491852 0.01442977 0.02774949 0.00282614 0.02540581 0.15977380 0.03384603 0.03493507 
0.02011165 0.06421540 0.00551162 0.00410883 0.00859125 0.00320469 0.00936290 0.01017131 0.09429762 0.01437583 0.02783998 0.00284806 0.02513245 0.15804388 0.03365790 0.03452988 
0.01960203 0.06359252 0.00554575 0.00416220 0.00858636 0.00320105 0.00945986 0.01022138 0.09356332 0.01430945 0.02791082 0.00286716 0.02484289 0.15631678 0.03346409 0.03412911 
0.01910681 0.06289826 0.00557314 0.00421076 0.00857182 0.00319451 0.00954550 0.01026533 0.09271772 0.01423105 0.02796184 0.00288337 0.02453776 0.15460319 0.03326600 0.03373619 
0.01862845 0.06213530 0.00559362 0.00425429 0.00854771 0.00318502 0.00961938 0.01030313 0.09176339 0.01414111 0.02799300 0.00289660 0.02421779 0.15291343 0.03306500 0.03335452 
0.01816934 0.06130670 0.00560706 0.00429261 0.00851418 0.00317259 0.00968113 0.01033480 0.09070338 0.01404021 0.02800439 0.00290680 0.02388384 0.15125745 0.03286242 0.03298746 
0.01773167 0.06041588 0.00561334 0.00432552 0.00847139 0.00315722 0.00973045 0.01036042 0.08954122 0.01392902 0.02799623 0.00291392 0.02353684 0.14964471 0.03265950 0.03263836 
0.01731751 0.05946663 0.00561240 0.00435290 0.00841955 0.00313893 0.00976711 0.01038007 0.08828088 0.01380827 0.02796885 0.00291792 0.02317781 0.14808418 0.03245741 0.03231045 
0.01692874 0.05846304 0.00560421 0.00437461 0.00835890 0.00311775 0.00979096 0.01039391 0.08692676 0.01367878 0.02792272 0.00291877 0.02280789 0.14658421 0.03225723 0.03200687 
0.01656709 0.05740957 0.00558879 0.00439057 0.00828971 0.00309375 0.00980190 0.01040213 0.08548367 0.01354143 0.02785840 0.00291647 0.02242829 0.14515255 0.03205996 0.03173062 
0.01623408 0.05631094 0.00556619 0.00440070 0.00821228 0.00306699 0.00979992 0.01040495 0.08395682 0.01339719 0.02777657 0.00291101 0.02204029 0.14379623 0.03186650 0.03148455 
0.01593107 0.05517217 0.00553652 0.00440499 0.00812696 0.00303756 0.00978508 0.01040264 0.08235177 0.01324706 0.02767801 0.00290243 0.02164526 0.14252158 0.03167763 0.03127133 
0.01565920 0.05399853 0.00549990 0.00440341 0.00803411 0.00300557 0.00975752 0.01039550 0.08067443 0.01309210 0.02756360 0.00289074 0.02124461 0.14133415 0.03149403 0.03109343 
0.01541943 0.05279554 0.00545652 0.00439600 0.00793414 0.00297114 0.00971744 0.01038390 0.07893098 0.01293344 0.02743429 0.00287600 0.02083984 0.14023870 0.03131628 0.03095309 
0.01521251 0.05156891 0.00540660 0.00438281 0.00782748 0.00293439 0.00966512 0.01036819 0.07712791 0.01277222 0.02729113 0.00285826 0.02043247 0.13923915 0.03114482 0.03085230 
0.01503900 0.05032455 0.00535041 0.00436392 0.00771459 0.00289549 0.00960090 0.01034881 0.07527194 0.01260964 0.02713523 0.00283759 0.02002408 0.13833858 0.03098000 0.03079279 
0.01489924 0.04906849 0.00528823 0.00433946 0.00759598 0.00285460 0.00952521 0.01032618 0.07337001 0.01244692 0.02696778 0.00281408 0.01961627 0.13753920 0.03082202 0.03077601 
0.01479340 0.04780691 0.00522042 0.00430955 0.00747215 0.00281190 0.00943852 0.01030080 0.07142923 0.01228528 0.02679001 0.00278782 0.01921067 0.13684234 0.03067098 0.03080313 
0.01472142 0.04654608 0.00514734 0.00427437 0.00734366 0.00276759 0.00934139 0.01027315 0.06945684 0.01212598 0.02660320 0.00275892 0.01880891 0.13624847 0.03052685 0.03087498 
0.01468306 0.04529231 0.00506942 0.00423413 0.00721108 0.00272187 0.00923443 0.01024377 0.06746020 0.01197027 0.02640868 0.00272750 0.01841263 0.13575716 0.03038952 0.03099209 
0.01467791 0.04405195 0.00498709 0.00418905 0.00707502 0.00267496 0.00911829 0.01021319 0.06544676 0.01181939 0.02620778 0.00269370 0.01802348 0.13536714 0.03025871 0.03115467 
0.01470535 0.04283133 0.00490083 0.00413939 0.00693609 0.00262710 0.00899371 0.01018197 0.06342397 0.01167457 0.02600188 0.00265765 0.01764305 0.13507626 0.03013409 0.03136256 
0.01476461 0.04163675 0.00481115 0.00408543 0.00679495 0.00257853 0.00886147 0.01015068 0.06139931 0.01153704 0.02579236 0.00261950 0.01727295 0.13488156 0.03001519 0.03161530 
0.01485473 0.04047443 0.00471859 0.00402746 0.00665226 0.00252948 0.00872238 0.01011991 0.05938024 0.01140797 0.02558060 0.00257942 0.01691472 0.13477929 0.02990147 0.03191207 
0.01497462 0.03935048 0.00462369 0.00396581 0.00650870 0.00248023 0.00857731 0.01009024 0.05737411 0.01128852 0.02536798 0.00253758 0.01656987 0.13476490 0.02979227 0.03225170 
0.01512301 0.03827085 0.00452704 0.00390083 0.00636497 0.00243103 0.00842717 0.01006224 0.05538822 0.01117979 0.02515585 0.00249414 0.01623984 0.13483314 0.02968687 0.03263271 
0.01529853 0.03724133 0.00442923 0.00383288 0.00622179 0.00238216 0.00827290 0.01003651 0.05342973 0.01108285 0.02494555 0.00244930 0.01592603 0.13497805 0.02958448 0.03305327 
0.01549967 0.03626750 0.00433087 0.00376235 0.00607990 0.00233388 0.00811548 0.01001362 0.05150562 0.01099868 0.02473840 0.00240324 0.01562974 0.13519306 0.02948424 0.03351123 
0.01572480 0.03535468 0.00423258 0.00368962 0.00594003 0.00228647 0.00795589 0.00999412 0.04962271 0.01092822 0.02453567 0.00235616 0.01535220 0.13547099 0.02938522 0.03400412 
0.01597220 0.03450793 0.00413500 0.00361512 0.00580293 0.00224020 0.00779517 0.00997857 0.04778759 0.01087233 0.02433857 0.00230825 0.01509455 0.13580416 0.02928648 0.03452919 
0.01624006 0.03373199 0.00403875 0.00353925 0.00566936 0.00219536 0.00763435 0.00996748 0.04600661 0.01083180 0.02414829 0.00225971 0.01485784 0.13618442 0.02918702 0.03508338 
0.01652651 0.03303127 0.00394448 0.00346245 0.00554007 0.00215221 0.00747446 0.00996136 0.04428588 0.01080732 0.02396595 0.00221076 0.01464301 0.13660321 0.02908582 0.03566338 
0.01682960 0.03240983 0.00385280 0.00338516 0.00541582 0.00211103 0.00731656 0.00996067 0.04263120 0.01079952 0.02379259 0.00216158 0.01445090 0.13705165 0.02898185 0.03626563 
0.01714735 0.03187131 0.00376436 0.00330781 0.00529738 0.00207207 0.00716170 0.00996585 0.04104807 0.01080891 0.02362922 0.00211239 0.01428222 0.13752061 0.02887410 0.03688634 
0.01747775 0.03141898 0.00367975 0.00323085 0.00518550 0.00203560 0.00701092 0.00997732 0.03954167 0.01083592 0.02347675 0.00206340 0.01413758 0.13800077 0.02876153 0.03752151 
0.01781875 0.03105563 0.00359959 0.00315470 0.00508092 0.00200187 0.00686527 0.00999542 0.03811684 0.01088086 0.02333603 0.00201480 0.01401747 0.13848269 0.02864316 0.03816696 
0.01816834 0.03078363 0.00352445 0.00307983 0.00498438 0.00197112 0.00672574 0.01002048 0.03677808 0.01094397 0.02320782 0.00196680 0.01392225 0.13895690 0.02851802 0.03881836 
0.01852447 0.03060486 0.00345490 0.00300664 0.00489661 0.00194358 0.00659335 0.01005278 0.03552952 0.01102535 0.02309283 0.00191960 0.01385216 0.13941397 0.02838519 0.03947125 
0.01888515 0.03052071 0.00339147 0.00293558 0.00481830 0.00191946 0.00646907 0.01009253 0.03437491 0.01112502 0.02299165 0.00187339 0.01380730 0.13984458 0.02824380 0.04012107 
0.01924840 0.03053208 0.00333467 0.00286705 0.00475015 0.00189898 0.00635384 0.01013992 0.03331764 0.01124287 0.02290481 0.00182835 0.01378766 0.14023959 0.02809304 0.04076321 
0.01961232 0.03063936 0.00328498 0.00280145 0.00469283 0.00188233 0.00624856 0.01019506 0.03236070 0.01137870 0.02283276 0.00178468 0.01379311 0.14059013 0.02793220 0.04139297 
0.01997503 0.03084241 0.00324284 0.00273918 0.00464697 0.00186967 0.00615411 0.01025802 0.03150670 0.01153218 0.02277586 0.00174255 0.01382337 0.14088768 0.02776061 0.04200570 
0.02033475 0.03114059 0.00320866 0.00268061 0.00461319 0.00186117 0.00607130 0.01032881 0.03075787 0.01170290 0.02273439 0.00170213 0.01387807 0.14112408 0.02757772 0.04259673 
0.02068977 0.03153271 0.00318280 0.00262609 0.00459206 0.00185697 0.00600092 0.01040739 0.03011604 0.01189032 0.02270856 0.00166359 0.01395671 0.14129166 0.02738307 0.04316145 
0.02103847 0.03201708 0.00316558 0.00257595 0.00458413 0.00185718 0.00594369 0.01049363 0.02958269 0.01209381 0.02269849 0.00162707 0.01405866 0.14138328 0.02717628 0.04369533 
0.02137934 0.03259150 0.00315728 0.00253051 0.00458991 0.00186191 0.00590027 0.01058739 0.02915889 0.01231264 0.02270424 0.00159273 0.01418320 0.14139239 0.02695712 0.04419396 
0.02171096 0.03325323 0.00315814 0.00249005 0.00460986 0.00187124 0.00587127 0.01068845 0.02884535 0.01254597 0.02272578 0.00156070 0.01432951 0.14131307 0.02672544 0.04465306 
0.02203203 0.03399906 0.00316834 0.00245483 0.00464442 0.00188521 0.00585726 0.01079651 0.02864243 0.01279289 0.02276302 0.00153110 0.01449665 0.14114010 0.02648122 0.04506853 
0.02234139 0.03482529 0.00318800 0.00242509 0.00469394 0.00190388 0.00585869 0.01091125 0.02855012 0.01305237 0.02281582 0.00150406 0.01468360 0.14086899 0.02622457 0.04543647 
0.02263798 0.03572775 0.00321721 0.00240103 0.00475877 0.00192725 0.00587600 0.01103228 0.02856809 0.01332334 0.02288396 0.00147966 0.01488927 0.14049602 0.02595570 0.04575318 
0.02292088 0.03670184 0.00325600 0.00238284 0.00483918 0.00195532 0.00590954 0.01115916 0.02869566 0.01360461 0.02296717 0.00145802 0.01511248 0.14001831 0.02567497 0.04601523 
0.02318931 0.03774251 0.00330434 0.00237066 0.00493540 0.00198804 0.00595957 0.01129139 0.02893184 0.01389495 0.02306514 0.00143921 0.01535197 0.13943378 0.02538284 0.04621946 
0.02344263 0.03884433 0.00336217 0.00236461 0.00504759 0.00202538 0.00602630 0.01142842 0.02927535 0.01419305 0.02317751 0.00142329 0.01560643 0.13874122 0.02507990 0.04636301 
0.02368031 0.04000148 0.00342934 0.00236477 0.00517587 0.00206723 0.00610986 0.01156968 0.02972462 0.01449755 0.02330389 0.00141034 0.01587452 0.13794030 0.02476687 0.04644332 
0.02390199 0.04120784 0.00350568 0.00237119 0.00532028 0.00211351 0.00621031 0.01171453 0.03027779 0.01480704 0.02344383 0.00140038 0.01615483 0.13703156 0.02444456 0.04645818 
0.02410742 0.04245693 0.00359095 0.00238391 0.00548081 0.00216409 0.00632762 0.01186231 0.03093277 0.01512007 0.02359688 0.00139346 0.01644592 0.13601643 0.02411392 0.04640572 
0.02429652 0.04374205 0.00368488 0.00240289 0.00565740 0.00221882 0.00646171 0.01201232 0.03168722 0.01543515 0.02376257 0.00138960 0.01674634 0.13489723 0.02377598 0.04628445 
0.02446930 0.04505622 0.00378712 0.00242811 0.00584992 0.00227753 0.00661241 0.01216382 0.03253857 0.01575078 0.02394039 0.00138880 0.01705462 0.13367711 0.02343190 0.04609324 
0.02462595 0.04639228 0.00389728 0.00245948 0.00605815 0.00234002 0.00677946 0.01231607 0.03348405 0.01606544 0.02412986 0.00139106 0.01736929 0.13236010 0.02308291 0.04583137 
0.02476673 0.04774294 0.00401496 0.00249690 0.00628184 0.00240610 0.00696256 0.01246828 0.03452072 0.01637759 0.02433046 0.00139637 0.01768887 0.13095105 0.02273034 0.04549849 
0.02489208 0.04910076 0.00413966 0.00254023 0.00652066 0.00247551 0.00716132 0.01261966 0.03564543 0.01668570 0.02454169 0.00140470 0.01801191 0.12945560 0.02237557 0.04509467 
0.02500250 0.05045824 0.00427088 0.00258929 0.00677422 0.00254802 0.00737528 0.01276942 0.03685490 0.01698825 0.02476306 0.00141600 0.01833698 0.12788014 0.02202009 0.04462037 
0.02509865 0.05180785 0.00440807 0.00264389 0.00704206 0.00262336 0.00760391 0.01291674 0.03814572 0.01728375 0.02499409 0.00143023 0.01866267 0.12623179 0.02166541 0.04407646 
0.02518125 0.05314208 0.00455063 0.00270381 0.00732365 0.00270123 0.00784661 0.01306081 0.03951431 0.01757071 0.02523434 0.00144733 0.01898763 0.12451831 0.02131310 0.04346421 
0.02525114 0.05445349 0.00469794 0.00276877 0.00761843 0.00278134 0.00810274 0.01320084 0.04095704 0.01784770 0.02548335 0.00146721 0.01931056 0.12274811 0.02096477 0.04278528 
0.02530924 0.05573472 0.00484936 0.00283852 0.00792574 0.00286338 0.00837157 0.01333603 0.04247013 0.01811333 0.02574073 0.00148980 0.01963018 0.12093013 0.02062205 0.04204173 
0.02535654 0.05697857 0.00500420 0.00291273 0.00824487 0.00294701 0.00865233 0.01346561 0.04404976 0.01836626 0.02600611 0.00151501 0.01994532 0.11907382 0.02028659 0.04123600 
0.02539412 0.05817803 0.00516177 0.00299108 0.00857507 0.00303190 0.00894418 0.01358882 0.04569201 0.01860521 0.02627915 0.00154272 0.02025484 0.11718904 0.01996002 0.04037089 
0.02542310 0.05932634 0.00532135 0.00307323 0.00891552 0.00311770 0.00924624 0.01370494 0.04739292 0.01882895 0.02655957 0.00157284 0.02055772 0.11528604 0.01964399 0.03944955 
0.02544465 0.06041699 0.00548220 0.00315880 0.00926533 0.00320406 0.00955758 0.01381327 0.04914849 0.01903636 0.02684711 0.00160522 0.02085297 0.11337533 0.01934009 0.03847548 
0.02545999 0.06144380 0.00564359 0.00324740 0.00962360 0.00329061 0.00987724 0.01391315 0.05095467 0.01922636 0.02714157 0.00163976 0.02113974 0.11146764 0.01904992 0.03745250 
0.02547037 0.06240094 0.00580476 0.00333864 0.00998935 0.00337699 0.01020418 0.01400396 0.05280740 0.01939800 0.02744281 0.00167630 0.02141722 0.10957386 0.01877498 0.03638472 
0.02547705 0.06328297 0.00596496 0.00343210 0.01036156 0.00346284 0.01053738 0.01408514 0.05470260 0.01955038 0.02775071 0.00171471 0.02168473 0.10770492 0.01851677 0.03527654 
0.02548130 0.06408488 0.00612346 0.00352736 0.01073918 0.00354777 0.01087573 0.01415614 0.05663617 0.01968273 0.02806522 0.00175483 0.02194167 0.10587174 0.01827667 0.03413261 
0.02548441 0.06480210 0.00627949 0.00362397 0.01112111 0.00363144 0.01121814 0.01421652 0.05860402 0.01979435 0.02838634 0.00179651 0.02218755 0.10408516 0.01805601 0.03295782 
0.02548764 0.06543056 0.00643234 0.00372151 0.01150623 0.00371347 0.01156349 0.01426584 0.06060208 0.01988467 0.02871412 0.00183958 0.02242198 0.10235583 0.01785603 0.03175724 
0.02549224 0.06596670 0.00658128 0.00381951 0.01189339 0.00379351 0.01191061 0.01430375 0.06262628 0.01995323 0.02904866 0.00188389 0.02264465 0.10069418 0.01767785 0.03053615 
0.02549940 0.06640748 0.00672562 0.00391754 0.01228139 0.00387120 0.01225835 0.01432996 0.06467255 0.01999965 0.02939010 0.00192926 0.02285538 0.09911032 0.01752251 0.02929996 
0.02551032 0.06675043 0.00686467 0.00401514 0.01266905 0.00394620 0.01260555 0.01434424 0.06673688 0.02002370 0.02973864 0.00197552 0.02305408 0.09761397 0.01739091 0.02805420 
0.02552612 0.06699364 0.00699778 0.00411187 0.01305515 0.00401818 0.01295103 0.01434642 0.06881525 0.02002524 0.03009450 0.00202250 0.02324075 0.09621437 0.01728384 0.02680449 
0.02554786 0.06713579 0.00712434 0.00420729 0.01343846 0.00408683 0.01329362 0.01433641 0.07090369 0.02000425 0.03045798 0.00207001 0.02341551 0.09492029 0.01720196 0.02555653 
0.02557655 0.06717615 0.00724374 0.00430096 0.01381775 0.00415182 0.01363216 0.01431418 0.07299826 0.01996082 0.03082938 0.00211789 0.02357855 0.09373989 0.01714580 0.02431602 
0.02561312 0.06711458 0.00735544 0.00439246 0.01419179 0.00421289 0.01396549 0.01427975 0.07509504 0.01989516 0.03120904 0.00216595 0.02373016 0.09268070 0.01711575 0.02308868 
0.02565842 0.06695156 0.00745892 0.00448137 0.01455935 0.00426974 0.01429248 0.01423325 0.07719016 0.01980759 0.03159736 0.00221402 0.02387073 0.09174955 0.01711204 0.02188019 
0.02571321 0.06668815 0.00755371 0.00456728 0.01491922 0.00432212 0.01461200 0.01417484 0.07927979 0.01969854 0.03199471 0.00226191 0.02400072 0.09095257 0.01713479 0.02069618 
0.02577815 0.06632600 0.00763937 0.00464982 0.01527020 0.00436981 0.01492296 0.01410475 0.08136012 0.01956854 0.03240153 0.00230947 0.02412067 0.09029509 0.01718394 0.01954218 
0.02585382 0.06586735 0.00771552 0.00472861 0.01561110 0.00441257 0.01522429 0.01402330 0.08342741 0.01941823 0.03281823 0.00235650 0.02423121 0.08978164 0.01725931 0.01842359 
0.02594068 0.06531501 0.00778182 0.00480330 0.01594078 0.00445023 0.01551496 0.01393084 0.08547794 0.01924836 0.03324525 0.00240286 0.02433300 0.08941591 0.01736057 0.01734567 
0.02603909 0.06467235 0.00783798 0.00487355 0.01625810 0.00448261 0.01579396 0.01382780 0.08750803 0.01905975 0.03368302 0.00244836 0.02442680 0.08920073 0.01748725 0.01631353 
0.02614929 0.06394326 0.00788376 0.00493905 0.01656198 0.00450956 0.01606034 0.01371465 0.08951406 0.01885333 0.03413196 0.00249284 0.02451340 0.08913807 0.01763873 0.01533203 
0.02627141 0.06313214 0.00791898 0.00499953 0.01685137 0.00453097 0.01631318 0.01359195 0.09149244 0.01863012 0.03459248 0.00253616 0.02459365 0.08922898 0.01781426 0.01440583 
0.02640546 0.06224388 0.00794350 0.00505470 0.01712526 0.00454673 0.01655161 0.01346025 0.09343966 0.01839119 0.03506496 0.00257815 0.02466843 0.08947367 0.01801297 0.01353934 
0.02655135 0.06128380 0.00795723 0.00510434 0.01738272 0.00455678 0.01677480 0.01332021 0.09535221 0.01813772 0.03554976 0.00261868 0.02473867 0.08987141 0.01823385 0.01273669 
0.02670884 0.06025766 0.00796015 0.00514824 0.01762282 0.00456106 0.01698199 0.01317247 0.09722669 0.01787093 0.03604718 0.00265760 0.02480530 0.09042064 0.01847580 0.01200171 
0.02687760 0.05917160 0.00795228 0.00518620 0.01784474 0.00455957 0.01717246 0.01301775 0.09905970 0.01759211 0.03655751 0.00269477 0.02486929 0.09111890 0.01873758 0.01133793 
0.02705718 0.05803209 0.00793367 0.00521807 0.01804770 0.00455230 0.01734557 0.01285679 0.10084793 0.01730262 0.03708095 0.00273008 0.02493161 0.09196292 0.01901787 0.01074855 
0.02724700 0.05684592 0.00790447 0.00524372 0.01823098 0.00453929 0.01750071 0.01269035 0.10258813 0.01700382 0.03761766 0.00276341 0.02499323 0.09294860 0.01931524 0.01023640 
0.02744637 0.05562013 0.00786483 0.00526305 0.01839394 0.00452061 0.01763735 0.01251921 0.10427711 0.01669716 0.03816773 0.00279464 0.02505512 0.09407106 0.01962821 0.00980398 
0.02765451 0.05436198 0.00781498 0.00527600 0.01853601 0.00449632 0.01775502 0.01234416 0.10591175 0.01638410 0.03873117 0.00282367 0.02511822 0.09532470 0.01995519 0.00945341 
0.02787051 0.05307890 0.00775517 0.00528251 0.01865671 0.00446655 0.01785333 0.01216602 0.10748901 0.01606610 0.03930791 0.00285041 0.02518348 0.09670319 0.02029455 0.00918642 
0.02809338 0.05177847 0.00768572 0.00528257 0.01875560 0.00443142 0.01793192 0.01198560 0.10900593 0.01574466 0.03989780 0.00287477 0.02525179 0.09819958 0.02064462 0.00900438 
0.02832202 0.05046830 0.00760697 0.00527620 0.01883236 0.00439109 0.01799052 0.01180371 0.11045963 0.01542130 0.04050059 0.00289668 0.02532402 0.09980630 0.02100368 0.00890823 
0.02855526 0.04915607 0.00751930 0.00526344 0.01888673 0.00434574 0.01802894 0.01162115 0.11184735 0.01509751 0.04111593 0.00291608 0.02540099 0.10151525 0.02136997 0.00889855 
0.02879182 0.04784944 0.00742315 0.00524437 0.01891854 0.00429557 0.01804704 0.01143870 0.11316640 0.01477478 0.04174336 0.00293290 0.02548348 0.10331784 0.02174175 0.00897552 
0.02903038 0.04655599 0.00731897 0.00521908 0.01892770 0.00424080 0.01804475 0.01125715 0.11441421 0.01445460 0.04238233 0.00294709 0.02557220 0.10520506 0.02211725 0.00913891 
0.02926953 0.04528320 0.00720724 0.00518770 0.01891422 0.00418167 0.01802206 0.01107723 0.11558834 0.01413842 0.04303216 0.00295863 0.02566782 0.10716753 0.02249471 0.00938811 
0.02950781 0.04403838 0.00708848 0.00515038 0.01887818 0.00411843 0.01797905 0.01089967 0.11668646 0.01382768 0.04369206 0.00296748 0.02577092 0.10919560 0.02287240 0.00972214 
0.02974370 0.04282866 0.00696323 0.00510729 0.01881976 0.00405136 0.01791586 0.01072514 0.11770638 0.01352375 0.04436113 0.00297362 0.02588202 0.11127935 0.02324862 0.01013962 
0.02997565 0.04166090 0.00683205 0.00505863 0.01873920 0.00398075 0.01783267 0.01055431 0.11864605 0.01322798 0.04503833 0.00297705 0.02600156 0.11340876 0.02362172 0.01063881 
0.03020208 0.04054170 0.00669551 0.00500463 0.01863685 0.00390690 0.01772976 0.01038777 0.11950358 0.01294168 0.04572254 0.00297777 0.02612990 0.11557365 0.02399007 0.01121763 
0.03042139 0.03947730 0.00655421 0.00494552 0.01851314 0.00383011 0.01760744 0.01022608 0.12027723 0.01266609 0.04641248 0.00297579 0.02626732 0.11776387 0.02435215 0.01187363 
0.03063195 0.03847360 0.00640875 0.00488157 0.01836857 0.00375072 0.01746611 0.01006975 0.12096544 0.01240238 0.04710677 0.00297112 0.02641401 0.11996928 0.02470647 0.01260405 
0.03083217 0.03753609 0.00625974 0.00481305 0.01820372 0.00366905 0.01730622 0.00991924 0.12156682 0.01215168 0.04780391 0.00296381 0.02657006 0.12217985 0.02505166 0.01340583 
0.03102043 0.03666982 0.00610779 0.00474027 0.01801927 0.00358545 0.01712825 0.00977496 0.12208019 0.01191502 0.04850230 0.00295390 0.02673550 0.12438570 0.02538639 0.01427557 
0.03119515 0.03587940 0.00595353 0.00466353 0.01781595 0.00350024 0.01693278 0.00963724 0.12250453 0.01169337 0.04920020 0.00294142 0.02691023 0.12657721 0.02570948 0.01520964 
0.03135477 0.03516893 0.00579755 0.00458316 0.01759457 0.00341379 0.01672041 0.00950637 0.12283907 0.01148762 0.04989581 0.00292645 0.02709408 0.12874501 0.02601981 0.01620414 
0.03149779 0.03454201 0.00564048 0.00449948 0.01735601 0.00332643 0.01649179 0.00938258 0.12308321 0.01129858 0.05058718 0.00290904 0.02728680 0.13088009 0.02631638 0.01725491 
0.03162274 0.03400170 0.00548291 0.00441285 0.01710122 0.00323851 0.01624763 0.00926603 0.12323662 0.01112696 0.05127230 0.00288928 0.02748802 0.13297381 0.02659832 0.01835762 
0.03172823 0.03355053 0.00532543 0.00432362 0.01683120 0.00315037 0.01598867 0.00915683 0.12329915 0.01097339 0.05194906 0.00286724 0.02769730 0.13501797 0.02686486 0.01950772 
0.03181292 0.03319045 0.00516863 0.00423215 0.01654700 0.00306236 0.01571571 0.00905501 0.12327091 0.01083841 0.05261529 0.00284303 0.02791412 0.13700486 0.02711534 0.02070048 
0.03187556 0.03292285 0.00501305 0.00413880 0.01624975 0.00297480 0.01542955 0.00896056 0.12315227 0.01072246 0.05326873 0.00281673 0.02813785 0.13892727 0.02734924 0.02193107 
0.03191501 0.03274855 0.00485925 0.00404393 0.01594061 0.00288803 0.01513106 0.00887341 0.12294380 0.01062589 0.05390708 0.00278847 0.02836780 0.14077854 0.02756615 0.02319450 
0.03193019 0.03266780 0.00470774 0.00394792 0.01562078 0.00280235 0.01482111 0.00879342 0.12264635 0.01054897 0.05452798 0.00275834 0.02860319 0.14255258 0.02776580 0.02448569 
0.03192015 0.03268025 0.00455903 0.00385113 0.01529149 0.00271809 0.01450061 0.00872040 0.12226103 0.01049184 0.05512904 0.00272648 0.02884319 0.14424391 0.02794800 0.02579950 
0.03188406 0.03278502 0.00441360 0.00375392 0.01495402 0.00263553 0.01417050 0.00865410 0.12178917 0.01045457 0.05570784 0.00269301 0.02908689 0.14584767 0.02811273 0.02713074 
0.03182119 0.03298066 0.00427190 0.00365665 0.01460967 0.00255495 0.01383173 0.00859424 0.12123239 0.01043712 0.05626195 0.00265805 0.02933330 0.14735961 0.02826005 0.02847419 
0.03173094 0.03326517 0.00413435 0.00355967 0.01425976 0.00247663 0.01348525 0.00854048 0.12059255 0.01043938 0.05678894 0.00262176 0.02958140 0.14877614 0.02839014 0.02982461 
0.03161286 0.03363603 0.00400135 0.00346334 0.01390561 0.00240082 0.01313204 0.00849244 0.11987176 0.01046113 0.05728641 0.00258427 0.02983012 0.15009430 0.02850331 0.03117682 
0.03146662 0.03409020 0.00387327 0.00336798 0.01354857 0.00232776 0.01277308 0.00844969 0.11907239 0.01050204 0.05775198 0.00254573 0.03007833 0.15131179 0.02859993 0.03252565 
0.03129203 0.03462420 0.00375045 0.00327393 0.01318998 0.00225766 0.01240936 0.00841180 0.11819706 0.01056173 0.05818329 0.00250629 0.03032488 0.15242691 0.02868051 0.03386600 
0.03108906 0.03523403 0.00363322 0.00318149 0.01283119 0.00219073 0.01204188 0.00837827 0.11724863 0.01063971 0.05857807 0.00246610 0.03056859 0.15343861 0.02874563 0.03519287 
