0.05435691 0.02358972 0.01080500 0.00143448 0.00133788 0.00065718 0.00242626 0.00166578 0.01202256 0.00130311 0.00133590 0.00029862 0.00172944 0.00026307 0.00194008 0.00128994 
0.05528740 0.02364908 0.01076066 0.00145854 0.00134229 0.00065634 0.00249355 0.00167808 0.01203673 0.00130229 0.00140759 0.00040878 0.00183180 0.00026476 0.00195812 0.00129115 
0.05626692 0.02369064 0.01070244 0.00148570 0.00134618 0.00065792 0.00256744 0.00169329 0.01206117 0.00130321 0.00148247 0.00053172 0.00194135 0.00026796 0.00197727 0.00129240 
0.05729131 0.02371413 0.01063056 0.00151587 0.00134953 0.00066185 0.00264741 0.00171141 0.01209586 0.00130583 0.00156024 0.00066758 0.00205759 0.00027273 0.00199741 0.00129370 
0.05835616 0.02371936 0.01054531 0.00154897 0.00135231 0.00066806 0.00273293 0.00173244 0.01214073 0.00131009 0.00164057 0.00081638 0.00217999 0.00027908 0.00201846 0.00129501 
0.05945689 0.02370627 0.01044705 0.00158489 0.00135451 0.00067646 0.00282343 0.00175636 0.01219567 0.00131594 0.00172312 0.00097813 0.00230799 0.00028702 0.00204028 0.00129634 
0.06058870 0.02367490 0.01033617 0.00162352 0.00135612 0.00068697 0.00291837 0.00178316 0.01226052 0.00132329 0.00180753 0.00115276 0.00244101 0.00029658 0.00206277 0.00129767 
0.06174663 0.02362544 0.01021313 0.00166472 0.00135713 0.00069950 0.00301715 0.00181284 0.01233507 0.00133210 0.00189345 0.00134013 0.00257845 0.00030775 0.00208580 0.00129899 
0.06292559 0.02355816 0.01007845 0.00170835 0.00135754 0.00071394 0.00311921 0.00184537 0.01241908 0.00134227 0.00198051 0.00154003 0.00271970 0.00032053 0.00210922 0.00130028 
0.06412035 0.02347347 0.00993268 0.00175426 0.00135735 0.00073018 0.00322394 0.00188074 0.01251224 0.00135375 0.00206832 0.00175222 0.00286412 0.00033491 0.00213291 0.00130153 
0.06532559 0.02337192 0.00977642 0.00180226 0.00135657 0.00074812 0.00333076 0.00191893 0.01261423 0.00136645 0.00215651 0.00197635 0.00301106 0.00035086 0.00215671 0.00130273 
0.06653592 0.02325415 0.00961030 0.00185220 0.00135520 0.00076763 0.00343906 0.00195991 0.01272469 0.00138030 0.00224470 0.00221204 0.00315989 0.00036836 0.00218047 0.00130387 
0.06774587 0.02312093 0.00943500 0.00190386 0.00135326 0.00078860 0.00354827 0.00200366 0.01284322 0.00139520 0.00233250 0.00245881 0.00330994 0.00038738 0.00220406 0.00130493 
0.06894998 0.02297315 0.00925121 0.00195706 0.00135076 0.00081090 0.00365780 0.00205014 0.01296937 0.00141109 0.00241952 0.00271615 0.00346056 0.00040787 0.00222730 0.00130591 
0.07014275 0.02281181 0.00905967 0.00201158 0.00134773 0.00083440 0.00376706 0.00209932 0.01310269 0.00142787 0.00250538 0.00298347 0.00361111 0.00042978 0.00225006 0.00130678 
0.07131873 0.02263801 0.00886112 0.00206720 0.00134418 0.00085897 0.00387549 0.00215115 0.01324270 0.00144545 0.00258971 0.00326010 0.00376094 0.00045305 0.00227218 0.00130755 
0.07247249 0.02245297 0.00865633 0.00212370 0.00134014 0.00088448 0.00398254 0.00220558 0.01338888 0.00146376 0.00267213 0.00354535 0.00390941 0.00047762 0.00229350 0.00130820 
0.07359868 0.02225800 0.00844609 0.00218083 0.00133566 0.00091079 0.00408765 0.00226257 0.01354071 0.00148271 0.00275227 0.00383843 0.00405590 0.00050342 0.00231389 0.00130872 
0.07469205 0.02205451 0.00823118 0.00223837 0.00133075 0.00093777 0.00419031 0.00232204 0.01369764 0.00150221 0.00282979 0.00413852 0.00419980 0.00053037 0.00233320 0.00130910 
0.07574745 0.02184397 0.00801238 0.00229606 0.00132546 0.00096529 0.00429001 0.00238394 0.01385912 0.00152219 0.00290433 0.00444473 0.00434053 0.00055838 0.00235128 0.00130934 
0.07675988 0.02162797 0.00779050 0.00235366 0.00131983 0.00099321 0.00438627 0.00244818 0.01402457 0.00154254 0.00297557 0.00475615 0.00447750 0.00058736 0.00236801 0.00130942 
0.07772450 0.02140813 0.00756632 0.00241091 0.00131390 0.00102139 0.00447863 0.00251468 0.01419341 0.00156320 0.00304318 0.00507179 0.00461018 0.00061722 0.00238326 0.00130935 
0.07863667 0.02118616 0.00734061 0.00246756 0.00130772 0.00104970 0.00456666 0.00258334 0.01436507 0.00158409 0.00310687 0.00539063 0.00473805 0.00064786 0.00239692 0.00130911 
0.07949193 0.02096379 0.00711415 0.00252336 0.00130132 0.00107802 0.00464994 0.00265407 0.01453897 0.00160512 0.00316634 0.00571162 0.00486062 0.00067917 0.00240886 0.00130870 
0.08028608 0.02074283 0.00688767 0.00257805 0.00129476 0.00110621 0.00472809 0.00272676 0.01471452 0.00162622 0.00322133 0.00603367 0.00497742 0.00071105 0.00241900 0.00130813 
0.08101515 0.02052509 0.00666190 0.00263137 0.00128809 0.00113414 0.00480078 0.00280127 0.01489116 0.00164732 0.00327159 0.00635566 0.00508803 0.00074337 0.00242724 0.00130739 
0.08167545 0.02031241 0.00643756 0.00268309 0.00128136 0.00116170 0.00486769 0.00287749 0.01506830 0.00166834 0.00331689 0.00667646 0.00519205 0.00077604 0.00243350 0.00130647 
0.08226359 0.02010663 0.00621530 0.00273294 0.00127461 0.00118876 0.00492852 0.00295526 0.01524539 0.00168921 0.00335703 0.00699490 0.00528913 0.00080892 0.00243773 0.00130538 
0.08277646 0.01990961 0.00599579 0.00278070 0.00126790 0.00121520 0.00498304 0.00303445 0.01542188 0.00170988 0.00339183 0.00730983 0.00537894 0.00084191 0.00243985 0.00130412 
0.08321130 0.01972317 0.00577962 0.00282612 0.00126128 0.00124091 0.00503103 0.00311488 0.01559724 0.00173029 0.00342112 0.00762007 0.00546120 0.00087488 0.00243984 0.00130270 
0.08356568 0.01954912 0.00556738 0.00286897 0.00125479 0.00126580 0.00507232 0.00319638 0.01577094 0.00175036 0.00344477 0.00792445 0.00553566 0.00090772 0.00243766 0.00130111 
0.08383751 0.01938922 0.00535960 0.00290904 0.00124849 0.00128974 0.00510676 0.00327877 0.01594248 0.00177005 0.00346267 0.00822179 0.00560213 0.00094029 0.00243331 0.00129937 
0.08402509 0.01924519 0.00515680 0.00294611 0.00124243 0.00131266 0.00513425 0.00336186 0.01611139 0.00178931 0.00347473 0.00851096 0.00566043 0.00097250 0.00242677 0.00129748 
0.08412709 0.01911868 0.00495942 0.00297999 0.00123664 0.00133445 0.00515472 0.00344544 0.01627720 0.00180810 0.00348090 0.00879081 0.00571044 0.00100421 0.00241806 0.00129544 
0.08414256 0.01901128 0.00476789 0.00301049 0.00123118 0.00135503 0.00516815 0.00352931 0.01643947 0.00182636 0.00348115 0.00906024 0.00575208 0.00103532 0.00240721 0.00129327 
0.08407095 0.01892448 0.00458258 0.00303742 0.00122608 0.00137432 0.00517456 0.00361323 0.01659779 0.00184406 0.00347546 0.00931818 0.00578531 0.00106572 0.00239425 0.00129098 
0.08391210 0.01885969 0.00440383 0.00306064 0.00122138 0.00139226 0.00517398 0.00369698 0.01675175 0.00186116 0.00346385 0.00956358 0.00581011 0.00109530 0.00237925 0.00128858 
0.08366628 0.01881821 0.00423192 0.00307998 0.00121713 0.00140877 0.00516651 0.00378032 0.01690100 0.00187764 0.00344638 0.00979545 0.00582652 0.00112395 0.00236227 0.00128607 
0.08333414 0.01880121 0.00406710 0.00309532 0.00121335 0.00142379 0.00515227 0.00386300 0.01704519 0.00189347 0.00342311 0.01001285 0.00583462 0.00115158 0.00234340 0.00128348 
0.08291677 0.01880975 0.00390958 0.00310655 0.00121007 0.00143728 0.00513142 0.00394478 0.01718400 0.00190862 0.00339414 0.01021490 0.00583452 0.00117809 0.00232272 0.00128081 
0.08241563 0.01884477 0.00375951 0.00311356 0.00120731 0.00144919 0.00510415 0.00402538 0.01731715 0.00192308 0.00335959 0.01040076 0.00582636 0.00120340 0.00230034 0.00127809 
0.08183261 0.01890703 0.00361701 0.00311627 0.00120511 0.00145949 0.00507071 0.00410456 0.01744436 0.00193683 0.00331961 0.01056970 0.00581031 0.00122744 0.00227639 0.00127532 
0.08116999 0.01899718 0.00348216 0.00311462 0.00120348 0.00146814 0.00503135 0.00418203 0.01756541 0.00194986 0.00327437 0.01072101 0.00578661 0.00125012 0.00225098 0.00127252 
0.08043045 0.01911570 0.00335501 0.00310857 0.00120243 0.00147513 0.00498637 0.00425754 0.01768006 0.00196217 0.00322407 0.01085410 0.00575548 0.00127138 0.00222427 0.00126971 
0.07961703 0.01926290 0.00323554 0.00309809 0.00120197 0.00148044 0.00493612 0.00433082 0.01778813 0.00197374 0.00316892 0.01096845 0.00571720 0.00129117 0.00219639 0.00126690 
0.07873315 0.01943894 0.00312374 0.00308317 0.00120211 0.00148407 0.00488094 0.00440158 0.01788947 0.00198458 0.00310915 0.01106360 0.00567207 0.00130943 0.00216751 0.00126412 
0.07778260 0.01964379 0.00301953 0.00306384 0.00120285 0.00148602 0.00482123 0.00446957 0.01798391 0.00199470 0.00304502 0.01113923 0.00562043 0.00132613 0.00213779 0.00126137 
0.07676948 0.01987728 0.00292282 0.00304013 0.00120418 0.00148629 0.00475742 0.00453451 0.01807135 0.00200409 0.00297680 0.01119508 0.00556261 0.00134123 0.00210740 0.00125868 
0.07569823 0.02013903 0.00283347 0.00301209 0.00120610 0.00148492 0.00468994 0.00459614 0.01815169 0.00201277 0.00290479 0.01123099 0.00549900 0.00135471 0.00207652 0.00125606 
0.07457360 0.02042852 0.00275134 0.00297980 0.00120860 0.00148193 0.00461927 0.00465422 0.01822484 0.00202076 0.00282929 0.01124690 0.00542997 0.00136656 0.00204534 0.00125354 
0.07340060 0.02074501 0.00267625 0.00294336 0.00121165 0.00147734 0.00454590 0.00470848 0.01829074 0.00202805 0.00275063 0.01124287 0.00535594 0.00137677 0.00201403 0.00125112 
0.07218452 0.02108764 0.00260800 0.00290288 0.00121523 0.00147121 0.00447034 0.00475868 0.01834936 0.00203468 0.00266913 0.01121904 0.00527733 0.00138534 0.00198278 0.00124882 
0.07093087 0.02145534 0.00254638 0.00285849 0.00121933 0.00146358 0.00439312 0.00480460 0.01840067 0.00204066 0.00258514 0.01117565 0.00519456 0.00139230 0.00195179 0.00124667 
0.06964536 0.02184689 0.00249115 0.00281037 0.00122391 0.00145451 0.00431479 0.00484602 0.01844467 0.00204601 0.00249902 0.01111308 0.00510808 0.00139765 0.00192123 0.00124467 
0.06833390 0.02226089 0.00244206 0.00275867 0.00122894 0.00144406 0.00423591 0.00488274 0.01848135 0.00205075 0.00241112 0.01103177 0.00501834 0.00140144 0.00189130 0.00124284 
0.06700252 0.02269581 0.00239887 0.00270359 0.00123437 0.00143231 0.00415704 0.00491455 0.01851073 0.00205491 0.00232181 0.01093230 0.00492578 0.00140371 0.00186218 0.00124120 
0.06565740 0.02314994 0.00236132 0.00264534 0.00124018 0.00141932 0.00407878 0.00494130 0.01853285 0.00205852 0.00223147 0.01081532 0.00483087 0.00140450 0.00183406 0.00123976 
0.06430480 0.02362144 0.00232913 0.00258415 0.00124631 0.00140520 0.00400171 0.00496282 0.01854775 0.00206159 0.00214046 0.01068162 0.00473405 0.00140387 0.00180710 0.00123853 
0.06295102 0.02410834 0.00230205 0.00252026 0.00125272 0.00139001 0.00392641 0.00497898 0.01855546 0.00206416 0.00204916 0.01053205 0.00463578 0.00140190 0.00178147 0.00123752 
0.06160239 0.02460853 0.00227980 0.00245392 0.00125936 0.00137387 0.00385349 0.00498965 0.01855607 0.00206625 0.00195794 0.01036759 0.00453650 0.00139864 0.00175735 0.00123675 
0.06026526 0.02511979 0.00226212 0.00238541 0.00126617 0.00135686 0.00378353 0.00499476 0.01854962 0.00206789 0.00186717 0.01018928 0.00443666 0.00139418 0.00173488 0.00123623 
0.05894589 0.02563980 0.00224877 0.00231500 0.00127311 0.00133911 0.00371713 0.00499422 0.01853620 0.00206911 0.00177722 0.00999827 0.00433669 0.00138861 0.00171421 0.00123595 
0.05765051 0.02616613 0.00223948 0.00224300 0.00128012 0.00132071 0.00365486 0.00498799 0.01851587 0.00206994 0.00168844 0.00979579 0.00423700 0.00138202 0.00169547 0.00123594 
0.05638520 0.02669630 0.00223403 0.00216971 0.00128714 0.00130178 0.00359730 0.00497604 0.01848873 0.00207040 0.00160119 0.00958315 0.00413802 0.00137451 0.00167880 0.00123619 
0.05515592 0.02722772 0.00223220 0.00209544 0.00129411 0.00128244 0.00354501 0.00495839 0.01845486 0.00207052 0.00151579 0.00936174 0.00404014 0.00136618 0.00166430 0.00123671 
0.05396847 0.02775778 0.00223377 0.00202051 0.00130098 0.00126280 0.00349854 0.00493506 0.01841435 0.00207033 0.00143260 0.00913301 0.00394374 0.00135714 0.00165207 0.00123751 
0.05282840 0.02828382 0.00223854 0.00194524 0.00130768 0.00124300 0.00345843 0.00490611 0.01836731 0.00206985 0.00135190 0.00889847 0.00384918 0.00134750 0.00164221 0.00123858 
0.05174106 0.02880315 0.00224636 0.00186998 0.00131416 0.00122315 0.00342517 0.00487162 0.01831383 0.00206911 0.00127402 0.00865970 0.00375682 0.00133737 0.00163478 0.00123992 
0.05071152 0.02931306 0.00225706 0.00179504 0.00132036 0.00120338 0.00339926 0.00483171 0.01825402 0.00206812 0.00119924 0.00841831 0.00366699 0.00132687 0.00162985 0.00124153 
0.04974455 0.02981087 0.00227050 0.00172078 0.00132623 0.00118382 0.00338117 0.00478651 0.01818798 0.00206692 0.00112783 0.00817598 0.00358000 0.00131612 0.00162747 0.00124342 
0.04884461 0.03029389 0.00228658 0.00164751 0.00133170 0.00116460 0.00337133 0.00473620 0.01811584 0.00206552 0.00106003 0.00793439 0.00349613 0.00130523 0.00162766 0.00124557 
0.04801579 0.03075949 0.00230520 0.00157558 0.00133673 0.00114583 0.00337016 0.00468098 0.01803772 0.00206395 0.00099608 0.00769528 0.00341567 0.00129432 0.00163045 0.00124798 
0.04726184 0.03120507 0.00232629 0.00150532 0.00134126 0.00112766 0.00337802 0.00462106 0.01795374 0.00206221 0.00093621 0.00746038 0.00333886 0.00128351 0.00163583 0.00125064 
0.04658607 0.03162810 0.00234980 0.00143704 0.00134524 0.00111019 0.00339527 0.00455671 0.01786403 0.00206033 0.00088059 0.00723144 0.00326593 0.00127291 0.00164380 0.00125354 
0.04599142 0.03202615 0.00237572 0.00137107 0.00134863 0.00109356 0.00342221 0.00448819 0.01776874 0.00205832 0.00082940 0.00701023 0.00319709 0.00126264 0.00165433 0.00125667 
0.04548038 0.03239686 0.00240404 0.00130771 0.00135139 0.00107787 0.00345910 0.00441581 0.01766803 0.00205620 0.00078279 0.00679848 0.00313252 0.00125280 0.00166737 0.00126002 
0.04505498 0.03273799 0.00243478 0.00124727 0.00135346 0.00106325 0.00350617 0.00433990 0.01756205 0.00205397 0.00074088 0.00659792 0.00307240 0.00124350 0.00168288 0.00126358 
0.04471683 0.03304742 0.00246799 0.00119003 0.00135483 0.00104981 0.00356362 0.00426081 0.01745098 0.00205164 0.00070379 0.00641026 0.00301685 0.00123485 0.00170077 0.00126734 
0.04446703 0.03332317 0.00250374 0.00113628 0.00135544 0.00103764 0.00363159 0.00417891 0.01733502 0.00204923 0.00067159 0.00623717 0.00296601 0.00122693 0.00172098 0.00127126 
0.04430622 0.03356342 0.00254210 0.00108627 0.00135529 0.00102686 0.00371017 0.00409460 0.01721435 0.00204675 0.00064434 0.00608029 0.00291998 0.00121985 0.00174340 0.00127535 
0.04423456 0.03376650 0.00258318 0.00104026 0.00135433 0.00101756 0.00379941 0.00400829 0.01708921 0.00204419 0.00062207 0.00594118 0.00287884 0.00121367 0.00176793 0.00127958 
0.04425173 0.03393092 0.00262711 0.00099847 0.00135255 0.00100982 0.00389933 0.00392042 0.01695984 0.00204156 0.00060480 0.00582137 0.00284265 0.00120849 0.00179444 0.00128393 
0.04435690 0.03405537 0.00267403 0.00096111 0.00134994 0.00100373 0.00400987 0.00383143 0.01682648 0.00203886 0.00059251 0.00572230 0.00281145 0.00120436 0.00182282 0.00128839 
0.04454880 0.03413874 0.00272409 0.00092840 0.00134648 0.00099936 0.00413096 0.00374178 0.01668943 0.00203610 0.00058517 0.00564536 0.00278527 0.00120135 0.00185292 0.00129293 
0.04482564 0.03418014 0.00277746 0.00090049 0.00134217 0.00099677 0.00426244 0.00365195 0.01654898 0.00203327 0.00058272 0.00559183 0.00276412 0.00119952 0.00188460 0.00129753 
0.04518520 0.03417886 0.00283432 0.00087754 0.00133700 0.00099604 0.00440412 0.00356241 0.01640546 0.00203038 0.00058508 0.00556291 0.00274799 0.00119890 0.00191770 0.00130217 
0.04562479 0.03413444 0.00289487 0.00085970 0.00133098 0.00099719 0.00455577 0.00347367 0.01625922 0.00202742 0.00059216 0.00555970 0.00273685 0.00119954 0.00195206 0.00130682 
0.04614128 0.03404664 0.00295930 0.00084707 0.00132412 0.00100028 0.00471710 0.00338620 0.01611065 0.00202439 0.00060383 0.00558319 0.00273066 0.00120145 0.00198751 0.00131147 
0.04673109 0.03391544 0.00302782 0.00083974 0.00131642 0.00100534 0.00488777 0.00330051 0.01596015 0.00202128 0.00061996 0.00563427 0.00272937 0.00120466 0.00202388 0.00131610 
0.04739028 0.03374106 0.00310064 0.00083778 0.00130791 0.00101238 0.00506739 0.00321711 0.01580816 0.00201809 0.00064038 0.00571370 0.00273290 0.00120917 0.00206101 0.00132067 
0.04811448 0.03352396 0.00317797 0.00084123 0.00129861 0.00102143 0.00525554 0.00313647 0.01565514 0.00201482 0.00066492 0.00582212 0.00274118 0.00121497 0.00209870 0.00132517 
0.04889899 0.03326485 0.00326003 0.00085011 0.00128854 0.00103247 0.00545172 0.00305910 0.01550160 0.00201146 0.00069339 0.00596003 0.00275412 0.00122206 0.00213678 0.00132957 
0.04973873 0.03296466 0.00334702 0.00086442 0.00127773 0.00104550 0.00565543 0.00298549 0.01534805 0.00200800 0.00072557 0.00612783 0.00277161 0.00123041 0.00217508 0.00133386 
0.05062834 0.03262458 0.00343914 0.00088413 0.00126621 0.00106051 0.00586609 0.00291610 0.01519506 0.00200443 0.00076125 0.00632574 0.00279353 0.00123998 0.00221341 0.00133800 
0.05156218 0.03224600 0.00353661 0.00090919 0.00125403 0.00107746 0.00608310 0.00285139 0.01504321 0.00200075 0.00080019 0.00655387 0.00281976 0.00125074 0.00225160 0.00134198 
0.05253433 0.03183058 0.00363959 0.00093952 0.00124121 0.00109632 0.00630582 0.00279182 0.01489313 0.00199695 0.00084214 0.00681218 0.00285017 0.00126264 0.00228949 0.00134578 
0.05353866 0.03138020 0.00374829 0.00097503 0.00122782 0.00111703 0.00653356 0.00273782 0.01474547 0.00199303 0.00088684 0.00710048 0.00288461 0.00127560 0.00232689 0.00134938 
0.05456886 0.03089695 0.00386285 0.00101559 0.00121389 0.00113953 0.00676561 0.00268980 0.01460089 0.00198897 0.00093402 0.00741843 0.00292295 0.00128957 0.00236366 0.00135275 
0.05561844 0.03038313 0.00398344 0.00106107 0.00119946 0.00116376 0.00700123 0.00264815 0.01446010 0.00198476 0.00098342 0.00776557 0.00296501 0.00130447 0.00239963 0.00135588 
0.05668082 0.02984126 0.00411017 0.00111129 0.00118461 0.00118964 0.00723964 0.00261324 0.01432384 0.00198040 0.00103474 0.00814125 0.00301065 0.00132021 0.00243466 0.00135876 
0.05774930 0.02927405 0.00424318 0.00116607 0.00116937 0.00121709 0.00748005 0.00258541 0.01419285 0.00197588 0.00108770 0.00854471 0.00305969 0.00133670 0.00246860 0.00136136 
0.05881716 0.02868440 0.00438256 0.00122521 0.00115380 0.00124599 0.00772164 0.00256497 0.01406790 0.00197119 0.00114202 0.00897503 0.00311196 0.00135383 0.00250132 0.00136367 
0.05987764 0.02807537 0.00452837 0.00128849 0.00113796 0.00127626 0.00796359 0.00255221 0.01394977 0.00196632 0.00119740 0.00943116 0.00316727 0.00137151 0.00253271 0.00136568 
0.06092401 0.02745018 0.00468066 0.00135566 0.00112190 0.00130777 0.00820504 0.00254737 0.01383929 0.00196127 0.00125355 0.00991191 0.00322546 0.00138963 0.00256265 0.00136737 
0.06194960 0.02681222 0.00483947 0.00142646 0.00110569 0.00134041 0.00844514 0.00255069 0.01373725 0.00195602 0.00131018 0.01041593 0.00328632 0.00140806 0.00259103 0.00136874 
0.06294783 0.02616497 0.00500478 0.00150062 0.00108938 0.00137405 0.00868303 0.00256234 0.01364447 0.00195057 0.00136700 0.01094178 0.00334967 0.00142669 0.00261777 0.00136977 
0.06391223 0.02551206 0.00517656 0.00157785 0.00107303 0.00140855 0.00891785 0.00258247 0.01356178 0.00194491 0.00142372 0.01148787 0.00341532 0.00144540 0.00264279 0.00137047 
0.06483652 0.02485720 0.00535477 0.00165785 0.00105669 0.00144378 0.00914873 0.00261119 0.01349001 0.00193904 0.00148007 0.01205249 0.00348306 0.00146406 0.00266602 0.00137082 
0.06571458 0.02420417 0.00553931 0.00174032 0.00104043 0.00147959 0.00937483 0.00264858 0.01342995 0.00193294 0.00153577 0.01263383 0.00355269 0.00148255 0.00268741 0.00137081 
0.06654053 0.02355682 0.00573006 0.00182493 0.00102430 0.00151583 0.00959530 0.00269468 0.01338241 0.00192662 0.00159055 0.01322996 0.00362401 0.00150073 0.00270691 0.00137046 
0.06730876 0.02291905 0.00592688 0.00191134 0.00100835 0.00155235 0.00980932 0.00274948 0.01334819 0.00192005 0.00164416 0.01383887 0.00369681 0.00151849 0.00272450 0.00136975 
0.06801392 0.02229477 0.00612959 0.00199923 0.00099264 0.00158899 0.01001608 0.00281293 0.01332803 0.00191324 0.00169636 0.01445844 0.00377088 0.00153569 0.00274015 0.00136869 
0.06865099 0.02168788 0.00633798 0.00208825 0.00097721 0.00162560 0.01021479 0.00288496 0.01332267 0.00190618 0.00174690 0.01508649 0.00384601 0.00155221 0.00275385 0.00136728 
0.06921528 0.02110229 0.00655181 0.00217805 0.00096212 0.00166201 0.01040471 0.00296544 0.01333280 0.00189886 0.00179556 0.01572074 0.00392198 0.00156792 0.00276562 0.00136553 
0.06970246 0.02054185 0.00677082 0.00226830 0.00094741 0.00169807 0.01058510 0.00305420 0.01335909 0.00189127 0.00184214 0.01635889 0.00399858 0.00158271 0.00277547 0.00136344 
0.07010860 0.02001035 0.00699471 0.00235865 0.00093312 0.00173361 0.01075527 0.00315104 0.01340215 0.00188342 0.00188643 0.01699855 0.00407559 0.00159647 0.00278343 0.00136102 
0.07043016 0.01951150 0.00722315 0.00244875 0.00091930 0.00176847 0.01091458 0.00325572 0.01346253 0.00187530 0.00192825 0.01763731 0.00415279 0.00160907 0.00278952 0.00135828 
0.07066404 0.01904892 0.00745578 0.00253826 0.00090599 0.00180250 0.01106241 0.00336796 0.01354073 0.00186689 0.00196744 0.01827272 0.00422996 0.00162043 0.00279381 0.00135524 
0.07080757 0.01862607 0.00769221 0.00262684 0.00089321 0.00183554 0.01119818 0.00348744 0.01363719 0.00185820 0.00200384 0.01890232 0.00430689 0.00163043 0.00279635 0.00135190 
0.07085853 0.01824631 0.00793205 0.00271417 0.00088099 0.00186744 0.01132140 0.00361380 0.01375227 0.00184922 0.00203732 0.01952364 0.00438334 0.00163899 0.00279720 0.00134828 
0.07081518 0.01791282 0.00817485 0.00279993 0.00086938 0.00189805 0.01143157 0.00374665 0.01388626 0.00183995 0.00206777 0.02013420 0.00445910 0.00164602 0.00279643 0.00134440 
0.07067625 0.01762858 0.00842015 0.00288379 0.00085839 0.00192722 0.01152829 0.00388557 0.01403937 0.00183038 0.00209507 0.02073157 0.00453396 0.00165144 0.00279413 0.00134027 
0.07044096 0.01739638 0.00866748 0.00296547 0.00084803 0.00195482 0.01161120 0.00403010 0.01421172 0.00182052 0.00211916 0.02131330 0.00460769 0.00165520 0.00279038 0.00133592 
0.07010899 0.01721881 0.00891633 0.00304468 0.00083834 0.00198072 0.01167999 0.00417975 0.01440334 0.00181035 0.00213996 0.02187703 0.00468007 0.00165723 0.00278528 0.00133136 
0.06968055 0.01709818 0.00916617 0.00312114 0.00082932 0.00200478 0.01173441 0.00433401 0.01461416 0.00179988 0.00215743 0.02242040 0.00475091 0.00165748 0.00277892 0.00132661 
0.06915631 0.01703658 0.00941648 0.00319458 0.00082099 0.00202690 0.01177427 0.00449233 0.01484402 0.00178910 0.00217154 0.02294116 0.00481997 0.00165591 0.00277139 0.00132170 
0.06853744 0.01703582 0.00966671 0.00326478 0.00081334 0.00204695 0.01179945 0.00465415 0.01509266 0.00177802 0.00218227 0.02343710 0.00488707 0.00165250 0.00276281 0.00131664 
0.06782559 0.01709743 0.00991627 0.00333150 0.00080639 0.00206485 0.01180988 0.00481887 0.01535970 0.00176663 0.00218964 0.02390610 0.00495199 0.00164723 0.00275327 0.00131147 
0.06702287 0.01722263 0.01016462 0.00339455 0.00080013 0.00208049 0.01180555 0.00498589 0.01564466 0.00175495 0.00219365 0.02434614 0.00501455 0.00164009 0.00274287 0.00130620 
0.06613189 0.01741236 0.01041115 0.00345372 0.00079457 0.00209379 0.01178652 0.00515458 0.01594696 0.00174296 0.00219437 0.02475531 0.00507455 0.00163108 0.00273174 0.00130086 
0.06515569 0.01766723 0.01065529 0.00350885 0.00078969 0.00210468 0.01175290 0.00532430 0.01626590 0.00173068 0.00219183 0.02513181 0.00513182 0.00162022 0.00271995 0.00129547 
0.06409774 0.01798750 0.01089644 0.00355980 0.00078548 0.00211310 0.01170487 0.00549439 0.01660066 0.00171810 0.00218612 0.02547397 0.00518618 0.00160753 0.00270762 0.00129006 
0.06296197 0.01837315 0.01113403 0.00360643 0.00078194 0.00211899 0.01164266 0.00566419 0.01695033 0.00170524 0.00217731 0.02578023 0.00523747 0.00159305 0.00269485 0.00128465 
0.06175269 0.01882378 0.01136745 0.00364866 0.00077905 0.00212231 0.01156658 0.00583302 0.01731389 0.00169211 0.00216551 0.02604920 0.00528554 0.00157683 0.00268173 0.00127927 
0.06047461 0.01933866 0.01159613 0.00368639 0.00077679 0.00212303 0.01147696 0.00600023 0.01769019 0.00167871 0.00215084 0.02627962 0.00533024 0.00155892 0.00266834 0.00127394 
0.05913279 0.01991675 0.01181951 0.00371956 0.00077515 0.00212113 0.01137421 0.00616512 0.01807801 0.00166505 0.00213342 0.02647041 0.00537145 0.00153938 0.00265478 0.00126869 
0.05773266 0.02055663 0.01203701 0.00374813 0.00077409 0.00211661 0.01125880 0.00632703 0.01847601 0.00165115 0.00211340 0.02662062 0.00540905 0.00151830 0.00264113 0.00126354 
0.05627995 0.02125657 0.01224808 0.00377210 0.00077360 0.00210947 0.01113122 0.00648529 0.01888275 0.00163702 0.00209092 0.02672950 0.00544294 0.00149576 0.00262745 0.00125851 
0.05478067 0.02201448 0.01245221 0.00379146 0.00077366 0.00209972 0.01099203 0.00663923 0.01929672 0.00162269 0.00206614 0.02679644 0.00547303 0.00147186 0.00261381 0.00125362 
0.05324113 0.02282799 0.01264887 0.00380624 0.00077423 0.00208739 0.01084184 0.00678821 0.01971630 0.00160816 0.00203925 0.02682104 0.00549925 0.00144669 0.00260028 0.00124890 
0.05166785 0.02369436 0.01283758 0.00381650 0.00077528 0.00207252 0.01068129 0.00693159 0.02013982 0.00159346 0.00201041 0.02680305 0.00552156 0.00142037 0.00258691 0.00124437 
0.05006755 0.02461058 0.01301787 0.00382229 0.00077680 0.00205516 0.01051105 0.00706875 0.02056551 0.00157862 0.00197981 0.02674243 0.00553990 0.00139302 0.00257374 0.00124005 
0.04844714 0.02557332 0.01318930 0.00382372 0.00077874 0.00203536 0.01033186 0.00719908 0.02099157 0.00156366 0.00194766 0.02663930 0.00555427 0.00136476 0.00256081 0.00123595 
0.04681367 0.02657901 0.01335146 0.00382090 0.00078108 0.00201320 0.01014445 0.00732201 0.02141611 0.00154861 0.00191413 0.02649397 0.00556467 0.00133572 0.00254814 0.00123209 
0.04517429 0.02762376 0.01350398 0.00381394 0.00078378 0.00198877 0.00994960 0.00743697 0.02183724 0.00153350 0.00187945 0.02630693 0.00557110 0.00130604 0.00253577 0.00122849 
0.04353623 0.02870348 0.01364650 0.00380299 0.00078681 0.00196214 0.00974813 0.00754345 0.02225299 0.00151837 0.00184380 0.02607888 0.00557362 0.00127586 0.00252370 0.00122517 
0.04190677 0.02981382 0.01377873 0.00378822 0.00079015 0.00193343 0.00954085 0.00764092 0.02266141 0.00150325 0.00180740 0.02581066 0.00557228 0.00124532 0.00251194 0.00122213 
0.04029318 0.03095026 0.01390039 0.00376980 0.00079375 0.00190275 0.00932860 0.00772893 0.02306051 0.00148818 0.00177045 0.02550330 0.00556716 0.00121457 0.00250049 0.00121939 
0.03870272 0.03210806 0.01401124 0.00374792 0.00079759 0.00187021 0.00911225 0.00780704 0.02344830 0.00147321 0.00173317 0.02515803 0.00555836 0.00118376 0.00248935 0.00121695 
0.03714257 0.03328234 0.01411110 0.00372279 0.00080163 0.00183595 0.00889266 0.00787485 0.02382281 0.00145837 0.00169574 0.02477620 0.00554599 0.00115304 0.00247849 0.00121484 
0.03561983 0.03446808 0.01419981 0.00369462 0.00080585 0.00180010 0.00867069 0.00793199 0.02418209 0.00144372 0.00165839 0.02435936 0.00553020 0.00112256 0.00246791 0.00121305 
0.03414147 0.03566016 0.01427728 0.00366365 0.00081021 0.00176281 0.00844724 0.00797814 0.02452422 0.00142931 0.00162130 0.02390920 0.00551113 0.00109248 0.00245757 0.00121159 
0.03271429 0.03685337 0.01434344 0.00363009 0.00081468 0.00172422 0.00822316 0.00801301 0.02484734 0.00141519 0.00158466 0.02342756 0.00548896 0.00106294 0.00244744 0.00121046 
0.03134488 0.03804246 0.01439827 0.00359420 0.00081923 0.00168449 0.00799932 0.00803636 0.02514962 0.00140140 0.00154867 0.02291643 0.00546388 0.00103408 0.00243750 0.00120968 
0.03003962 0.03922214 0.01444181 0.00355622 0.00082385 0.00164379 0.00777658 0.00804800 0.02542932 0.00138802 0.00151352 0.02237791 0.00543611 0.00100607 0.00242770 0.00120922 
0.02880462 0.04038713 0.01447413 0.00351640 0.00082848 0.00160229 0.00755579 0.00804777 0.02568479 0.00137510 0.00147936 0.02181425 0.00540586 0.00097904 0.00241801 0.00120911 
0.02764570 0.04153219 0.01449534 0.00347500 0.00083313 0.00156015 0.00733778 0.00803557 0.02591444 0.00136270 0.00144637 0.02122780 0.00537337 0.00095313 0.00240839 0.00120933 
0.02656834 0.04265216 0.01450562 0.00343227 0.00083775 0.00151755 0.00712335 0.00801133 0.02611682 0.00135088 0.00141470 0.02062100 0.00533890 0.00092847 0.00239879 0.00120988 
0.02557770 0.04374195 0.01450518 0.00338848 0.00084232 0.00147467 0.00691328 0.00797505 0.02629056 0.00133971 0.00138451 0.01999641 0.00530270 0.00090520 0.00238917 0.00121075 
0.02467855 0.04479660 0.01449426 0.00334387 0.00084683 0.00143169 0.00670835 0.00792676 0.02643445 0.00132925 0.00135593 0.01935663 0.00526506 0.00088343 0.00237950 0.00121195 
0.02387524 0.04581131 0.01447318 0.00329869 0.00085126 0.00138879 0.00650928 0.00786654 0.02654738 0.00131956 0.00132909 0.01870438 0.00522626 0.00086329 0.00236974 0.00121345 
0.02317171 0.04678146 0.01444226 0.00325319 0.00085557 0.00134615 0.00631678 0.00779453 0.02662840 0.00131073 0.00130409 0.01804238 0.00518657 0.00084488 0.00235984 0.00121526 
0.02257146 0.04770264 0.01440190 0.00320762 0.00085976 0.00130396 0.00613150 0.00771090 0.02667669 0.00130281 0.00128105 0.01737343 0.00514631 0.00082831 0.00234979 0.00121736 
0.02207750 0.04857068 0.01435251 0.00316220 0.00086382 0.00126240 0.00595408 0.00761589 0.02669160 0.00129587 0.00126005 0.01670035 0.00510575 0.00081367 0.00233954 0.00121974 
0.02169238 0.04938166 0.01429454 0.00311717 0.00086771 0.00122165 0.00578511 0.00750977 0.02667265 0.00128998 0.00124118 0.01602597 0.00506521 0.00080104 0.00232909 0.00122238 
0.02141812 0.05013195 0.01422849 0.00307272 0.00087144 0.00118188 0.00562514 0.00739287 0.02661949 0.00128520 0.00122449 0.01535314 0.00502498 0.00079051 0.00231841 0.00122528 
0.02125625 0.05081824 0.01415488 0.00302908 0.00087499 0.00114327 0.00547468 0.00726555 0.02653197 0.00128161 0.00121005 0.01468469 0.00498535 0.00078214 0.00230750 0.00122842 
0.02120777 0.05143753 0.01407426 0.00298644 0.00087835 0.00110600 0.00533418 0.00712822 0.02641011 0.00127926 0.00119789 0.01402343 0.00494661 0.00077600 0.00229635 0.00123178 
0.02127315 0.05198719 0.01398721 0.00294497 0.00088151 0.00107022 0.00520408 0.00698135 0.02625409 0.00127822 0.00118803 0.01337213 0.00490904 0.00077212 0.00228498 0.00123535 
0.02145231 0.05246493 0.01389433 0.00290484 0.00088446 0.00103611 0.00508474 0.00682544 0.02606426 0.00127854 0.00118050 0.01273352 0.00487291 0.00077055 0.00227339 0.00123911 
0.02174463 0.05286886 0.01379624 0.00286621 0.00088719 0.00100381 0.00497649 0.00666102 0.02584116 0.00128029 0.00117529 0.01211028 0.00483849 0.00077133 0.00226161 0.00124305 
0.02214898 0.05319748 0.01369359 0.00282921 0.00088971 0.00097348 0.00487960 0.00648867 0.02558548 0.00128351 0.00117240 0.01150500 0.00480602 0.00077446 0.00224967 0.00124714 
0.02266365 0.05344969 0.01358702 0.00279396 0.00089201 0.00094526 0.00479430 0.00630901 0.02529809 0.00128826 0.00117179 0.01092019 0.00477572 0.00077996 0.00223763 0.00125137 
0.02328642 0.05362479 0.01347719 0.00276059 0.00089407 0.00091928 0.00472078 0.00612270 0.02498003 0.00129459 0.00117344 0.01035827 0.00474783 0.00078784 0.00222552 0.00125572 
0.02401456 0.05372252 0.01336477 0.00272917 0.00089591 0.00089568 0.00465915 0.00593040 0.02463247 0.00130253 0.00117729 0.00982155 0.00472253 0.00079807 0.00221342 0.00126018 
0.02484479 0.05374301 0.01325044 0.00269978 0.00089752 0.00087458 0.00460951 0.00573285 0.02425675 0.00131212 0.00118330 0.00931221 0.00469999 0.00081065 0.00220139 0.00126472 
0.02577337 0.05368684 0.01313485 0.00267248 0.00089890 0.00085607 0.00457188 0.00553076 0.02385436 0.00132340 0.00119138 0.00883234 0.00468038 0.00082555 0.00218952 0.00126933 
0.02679607 0.05355498 0.01301868 0.00264732 0.00090006 0.00084026 0.00454624 0.00532492 0.02342691 0.00133638 0.00120146 0.00838385 0.00466381 0.00084271 0.00217790 0.00127399 
0.02790817 0.05334883 0.01290257 0.00262431 0.00090098 0.00082725 0.00453255 0.00511610 0.02297613 0.00135110 0.00121346 0.00796853 0.00465041 0.00086211 0.00216664 0.00127868 
0.02910456 0.05307019 0.01278716 0.00260348 0.00090169 0.00081711 0.00453068 0.00490510 0.02250388 0.00136755 0.00122727 0.00758800 0.00464025 0.00088368 0.00215583 0.00128339 
0.03037968 0.05272124 0.01267308 0.00258481 0.00090217 0.00080992 0.00454047 0.00469276 0.02201211 0.00138575 0.00124279 0.00724375 0.00463339 0.00090736 0.00214560 0.00128809 
0.03172759 0.05230455 0.01256093 0.00256830 0.00090244 0.00080572 0.00456174 0.00447988 0.02150288 0.00140570 0.00125992 0.00693706 0.00462986 0.00093308 0.00213608 0.00129278 
0.03314202 0.05182307 0.01245128 0.00255389 0.00090249 0.00080457 0.00459423 0.00426733 0.02097830 0.00142739 0.00127852 0.00666907 0.00462966 0.00096076 0.00212738 0.00129743 
0.03461634 0.05128008 0.01234468 0.00254154 0.00090234 0.00080650 0.00463766 0.00405593 0.02044057 0.00145079 0.00129848 0.00644072 0.00463278 0.00099031 0.00211966 0.00130203 
0.03614367 0.05067919 0.01224165 0.00253120 0.00090199 0.00081154 0.00469170 0.00384654 0.01989194 0.00147590 0.00131966 0.00625278 0.00463916 0.00102164 0.00211305 0.00130657 
0.03771684 0.05002431 0.01214269 0.00252278 0.00090144 0.00081970 0.00475600 0.00363999 0.01933469 0.00150267 0.00134194 0.00610584 0.00464874 0.00105464 0.00210770 0.00131103 
0.03932851 0.04931965 0.01204823 0.00251620 0.00090070 0.00083097 0.00483015 0.00343713 0.01877112 0.00153106 0.00136517 0.00600028 0.00466141 0.00108922 0.00210376 0.00131541 
0.04097112 0.04856966 0.01195868 0.00251137 0.00089977 0.00084536 0.00491372 0.00323878 0.01820357 0.00156104 0.00138921 0.00593631 0.00467706 0.00112525 0.00210138 0.00131967 
0.04263702 0.04777903 0.01187441 0.00250816 0.00089868 0.00086282 0.00500624 0.00304575 0.01763433 0.00159253 0.00141393 0.00591394 0.00469554 0.00116264 0.00210070 0.00132383 
0.04431844 0.04695263 0.01179574 0.00250647 0.00089741 0.00088334 0.00510722 0.00285886 0.01706572 0.00162548 0.00143918 0.00593300 0.00471669 0.00120124 0.00210189 0.00132786 
0.04600760 0.04609551 0.01172294 0.00250617 0.00089597 0.00090685 0.00521613 0.00267887 0.01649999 0.00165982 0.00146481 0.00599311 0.00474032 0.00124095 0.00210508 0.00133176 
0.04769668 0.04521287 0.01165625 0.00250713 0.00089438 0.00093331 0.00533242 0.00250654 0.01593937 0.00169546 0.00149070 0.00609373 0.00476622 0.00128163 0.00211042 0.00133551 
0.04937793 0.04430999 0.01159584 0.00250921 0.00089265 0.00096264 0.00545552 0.00234259 0.01538603 0.00173231 0.00151669 0.00623412 0.00479419 0.00132315 0.00211805 0.00133912 
0.05104367 0.04339224 0.01154185 0.00251226 0.00089077 0.00099476 0.00558484 0.00218773 0.01484206 0.00177027 0.00154265 0.00641336 0.00482398 0.00136538 0.00212811 0.00134256 
0.05268639 0.04246501 0.01149434 0.00251614 0.00088875 0.00102959 0.00571976 0.00204262 0.01430948 0.00180925 0.00156844 0.00663036 0.00485536 0.00140819 0.00214071 0.00134584 
0.05429871 0.04153372 0.01145335 0.00252071 0.00088660 0.00106701 0.00585966 0.00190787 0.01379019 0.00184914 0.00159394 0.00688386 0.00488806 0.00145144 0.00215598 0.00134896 
0.05587350 0.04060375 0.01141886 0.00252580 0.00088434 0.00110691 0.00600390 0.00178408 0.01328603 0.00188980 0.00161901 0.00717243 0.00492183 0.00149500 0.00217403 0.00135189 
0.05740390 0.03968039 0.01139079 0.00253127 0.00088195 0.00114918 0.00615183 0.00167179 0.01279868 0.00193113 0.00164353 0.00749451 0.00495641 0.00153872 0.00219495 0.00135465 
0.05888334 0.03876888 0.01136902 0.00253696 0.00087946 0.00119369 0.00630280 0.00157149 0.01232972 0.00197299 0.00166740 0.00784836 0.00499152 0.00158248 0.00221882 0.00135724 
0.06030560 0.03787430 0.01135337 0.00254273 0.00087686 0.00124029 0.00645615 0.00148363 0.01188061 0.00201524 0.00169049 0.00823211 0.00502692 0.00162614 0.00224572 0.00135964 
0.06166484 0.03700159 0.01134364 0.00254843 0.00087416 0.00128884 0.00661121 0.00140860 0.01145265 0.00205775 0.00171270 0.00864377 0.00506232 0.00166957 0.00227570 0.00136185 
0.06295567 0.03615548 0.01133955 0.00255392 0.00087137 0.00133918 0.00676732 0.00134675 0.01104701 0.00210037 0.00173394 0.00908123 0.00509749 0.00171264 0.00230879 0.00136388 
0.06417311 0.03534050 0.01134079 0.00255905 0.00086849 0.00139115 0.00692383 0.00129836 0.01066470 0.00214295 0.00175412 0.00954226 0.00513218 0.00175522 0.00234504 0.00136573 
0.06531271 0.03456093 0.01134703 0.00256370 0.00086553 0.00144459 0.00708009 0.00126367 0.01030659 0.00218535 0.00177315 0.01002455 0.00516616 0.00179718 0.00238443 0.00136740 
0.06637048 0.03382078 0.01135786 0.00256774 0.00086249 0.00149932 0.00723544 0.00124284 0.00997340 0.00222740 0.00179097 0.01052569 0.00519922 0.00183840 0.00242696 0.00136888 
0.06734303 0.03312376 0.01137287 0.00257104 0.00085937 0.00155517 0.00738927 0.00123598 0.00966568 0.00226897 0.00180750 0.01104320 0.00523115 0.00187877 0.00247261 0.00137019 
0.06822749 0.03247327 0.01139159 0.00257351 0.00085618 0.00161196 0.00754095 0.00124315 0.00938383 0.00230988 0.00182270 0.01157453 0.00526179 0.00191817 0.00252131 0.00137132 
0.06902159 0.03187236 0.01141355 0.00257502 0.00085292 0.00166949 0.00768989 0.00126434 0.00912809 0.00234999 0.00183650 0.01211712 0.00529098 0.00195649 0.00257301 0.00137228 
0.06972364 0.03132375 0.01143823 0.00257550 0.00084960 0.00172759 0.00783551 0.00129946 0.00889857 0.00238915 0.00184888 0.01266832 0.00531858 0.00199363 0.00262762 0.00137306 
0.07033256 0.03082978 0.01146508 0.00257484 0.00084621 0.00178607 0.00797724 0.00134839 0.00869520 0.00242719 0.00185980 0.01322551 0.00534450 0.00202948 0.00268502 0.00137368 
0.07084790 0.03039241 0.01149357 0.00257299 0.00084276 0.00184474 0.00811456 0.00141093 0.00851778 0.00246398 0.00186924 0.01378602 0.00536866 0.00206397 0.00274511 0.00137414 
0.07126981 0.03001322 0.01152310 0.00256987 0.00083924 0.00190341 0.00824696 0.00148682 0.00836597 0.00249936 0.00187718 0.01434723 0.00539102 0.00209699 0.00280772 0.00137445 
0.07159906 0.02969338 0.01155311 0.00256544 0.00083567 0.00196189 0.00837395 0.00157573 0.00823929 0.00253319 0.00188363 0.01490649 0.00541156 0.00212846 0.00287271 0.00137459 
0.07183703 0.02943366 0.01158299 0.00255964 0.00083204 0.00202000 0.00849510 0.00167729 0.00813715 0.00256533 0.00188857 0.01546123 0.00543030 0.00215832 0.00293989 0.00137460 
0.07198570 0.02923444 0.01161216 0.00255244 0.00082836 0.00207756 0.00860997 0.00179107 0.00805881 0.00259566 0.00189203 0.01600890 0.00544729 0.00218649 0.00300905 0.00137446 
0.07204766 0.02909570 0.01164002 0.00254384 0.00082461 0.00213438 0.00871820 0.00191656 0.00800346 0.00262404 0.00189402 0.01654701 0.00546261 0.00221291 0.00308000 0.00137418 
0.07202605 0.02901701 0.01166597 0.00253381 0.00082081 0.00219029 0.00881942 0.00205322 0.00797015 0.00265035 0.00189457 0.01707316 0.00547638 0.00223752 0.00315249 0.00137377 
0.07192458 0.02899756 0.01168943 0.00252236 0.00081695 0.00224512 0.00891334 0.00220045 0.00795786 0.00267449 0.00189371 0.01758501 0.00548874 0.00226028 0.00322629 0.00137324 
0.07174745 0.02903615 0.01170983 0.00250950 0.00081304 0.00229870 0.00899969 0.00235760 0.00796550 0.00269636 0.00189148 0.01808034 0.00549988 0.00228114 0.00330113 0.00137258 
0.07149942 0.02913122 0.01172661 0.00249525 0.00080906 0.00235087 0.00907823 0.00252396 0.00799188 0.00271585 0.00188793 0.01855703 0.00551001 0.00230007 0.00337675 0.00137181 
0.07118566 0.02928085 0.01173923 0.00247965 0.00080502 0.00240149 0.00914877 0.00269881 0.00803578 0.00273288 0.00188311 0.01901306 0.00551937 0.00231704 0.00345287 0.00137094 
0.07081180 0.02948278 0.01174716 0.00246275 0.00080093 0.00245040 0.00921117 0.00288134 0.00809592 0.00274738 0.00187708 0.01944659 0.00552822 0.00233204 0.00352919 0.00136996 
0.07038386 0.02973441 0.01174992 0.00244459 0.00079677 0.00249747 0.00926533 0.00307076 0.00817099 0.00275928 0.00186990 0.01985586 0.00553687 0.00234504 0.00360542 0.00136888 
0.06990820 0.03003288 0.01174703 0.00242524 0.00079256 0.00254257 0.00931117 0.00326619 0.00825965 0.00276853 0.00186164 0.02023930 0.00554563 0.00235605 0.00368126 0.00136772 
0.06939150 0.03037500 0.01173806 0.00240477 0.00078828 0.00258559 0.00934869 0.00346677 0.00836057 0.00277510 0.00185237 0.02059548 0.00555485 0.00236505 0.00375641 0.00136646 
0.06884071 0.03075738 0.01172260 0.00238326 0.00078393 0.00262642 0.00937791 0.00367159 0.00847238 0.00277893 0.00184218 0.02092313 0.00556490 0.00237206 0.00383054 0.00136513 
0.06826296 0.03117634 0.01170029 0.00236080 0.00077953 0.00266495 0.00939890 0.00387971 0.00859377 0.00278003 0.00183112 0.02122117 0.00557613 0.00237710 0.00390335 0.00136372 
0.06766556 0.03162805 0.01167078 0.00233748 0.00077506 0.00270110 0.00941177 0.00409020 0.00872342 0.00277837 0.00181930 0.02148866 0.00558897 0.00238018 0.00397454 0.00136225 
0.06705595 0.03210848 0.01163379 0.00231341 0.00077053 0.00273480 0.00941667 0.00430209 0.00886005 0.00277397 0.00180679 0.02172487 0.00560379 0.00238132 0.00404379 0.00136071 
0.06644161 0.03261344 0.01158907 0.00228870 0.00076594 0.00276597 0.00941381 0.00451443 0.00900243 0.00276684 0.00179369 0.02192925 0.00562102 0.00238057 0.00411081 0.00135911 
0.06583001 0.03313865 0.01153639 0.00226345 0.00076128 0.00279456 0.00940341 0.00472625 0.00914938 0.00275700 0.00178006 0.02210141 0.00564107 0.00237795 0.00417531 0.00135746 
0.06522861 0.03367972 0.01147560 0.00223779 0.00075657 0.00282053 0.00938576 0.00493659 0.00929979 0.00274451 0.00176602 0.02224117 0.00566434 0.00237351 0.00423699 0.00135576 
0.06464473 0.03423223 0.01140657 0.00221183 0.00075180 0.00284385 0.00936117 0.00514449 0.00945260 0.00272940 0.00175163 0.02234853 0.00569126 0.00236731 0.00429558 0.00135402 
0.06408557 0.03479169 0.01132922 0.00218570 0.00074697 0.00286449 0.00933000 0.00534901 0.00960684 0.00271174 0.00173700 0.02242367 0.00572221 0.00235938 0.00435081 0.00135225 
0.06355811 0.03535366 0.01124351 0.00215953 0.00074209 0.00288245 0.00929262 0.00554921 0.00976163 0.00269160 0.00172221 0.02246695 0.00575759 0.00234980 0.00440245 0.00135044 
0.06306908 0.03591371 0.01114945 0.00213344 0.00073717 0.00289773 0.00924946 0.00574420 0.00991618 0.00266908 0.00170734 0.02247891 0.00579777 0.00233863 0.00445025 0.00134860 
0.06262488 0.03646746 0.01104711 0.00210755 0.00073220 0.00291035 0.00920097 0.00593309 0.01006978 0.00264425 0.00169249 0.02246029 0.00584310 0.00232593 0.00449400 0.00134675 
0.06223160 0.03701065 0.01093656 0.00208201 0.00072719 0.00292033 0.00914763 0.00611502 0.01022184 0.00261722 0.00167773 0.02241195 0.00589391 0.00231177 0.00453349 0.00134487 
0.06189491 0.03753912 0.01081796 0.00205692 0.00072216 0.00292771 0.00908994 0.00628919 0.01037184 0.00258811 0.00166314 0.02233497 0.00595051 0.00229624 0.00456856 0.00134299 
0.06162004 0.03804886 0.01069150 0.00203243 0.00071710 0.00293253 0.00902842 0.00645482 0.01051941 0.00255703 0.00164880 0.02223053 0.00601317 0.00227940 0.00459903 0.00134110 
0.06141176 0.03853602 0.01055740 0.00200865 0.00071203 0.00293485 0.00896363 0.00661116 0.01066424 0.00252412 0.00163480 0.02210001 0.00608211 0.00226134 0.00462478 0.00133921 
0.06127430 0.03899696 0.01041593 0.00198569 0.00070695 0.00293473 0.00889613 0.00675752 0.01080616 0.00248950 0.00162120 0.02194489 0.00615756 0.00224215 0.00464569 0.00133733 
0.06121138 0.03942825 0.01026739 0.00196369 0.00070187 0.00293226 0.00882649 0.00689327 0.01094507 0.00245331 0.00160807 0.02176679 0.00623966 0.00222190 0.00466167 0.00133545 
0.06122613 0.03982670 0.01011214 0.00194274 0.00069681 0.00292752 0.00875530 0.00701781 0.01108099 0.00241570 0.00159547 0.02156746 0.00632854 0.00220069 0.00467266 0.00133359 
0.06132108 0.04018936 0.00995055 0.00192295 0.00069178 0.00292060 0.00868315 0.00713062 0.01121405 0.00237683 0.00158347 0.02134874 0.00642427 0.00217860 0.00467861 0.00133175 
0.06149814 0.04051357 0.00978305 0.00190442 0.00068678 0.00291160 0.00861065 0.00723120 0.01134446 0.00233683 0.00157212 0.02111258 0.00652689 0.00215574 0.00467951 0.00132994 
0.06175860 0.04079694 0.00961008 0.00188725 0.00068184 0.00290062 0.00853839 0.00731916 0.01147251 0.00229588 0.00156148 0.02086099 0.00663636 0.00213218 0.00467538 0.00132816 
0.06210311 0.04103739 0.00943213 0.00187152 0.00067697 0.00288779 0.00846696 0.00739414 0.01159859 0.00225412 0.00155160 0.02059607 0.00675262 0.00210803 0.00466624 0.00132642 
0.06253164 0.04123315 0.00924970 0.00185731 0.00067218 0.00287322 0.00839695 0.00745585 0.01172316 0.00221171 0.00154251 0.02031997 0.00687555 0.00208337 0.00465217 0.00132472 
0.06304355 0.04138275 0.00906334 0.00184469 0.00066748 0.00285704 0.00832895 0.00750406 0.01184677 0.00216882 0.00153426 0.02003488 0.00700498 0.00205830 0.00463324 0.00132307 
0.06363750 0.04148506 0.00887359 0.00183371 0.00066291 0.00283937 0.00826351 0.00753861 0.01197000 0.00212561 0.00152688 0.01974300 0.00714068 0.00203292 0.00460958 0.00132147 
0.06431154 0.04153926 0.00868104 0.00182445 0.00065846 0.00282035 0.00820118 0.00755943 0.01209351 0.00208221 0.00152039 0.01944658 0.00728239 0.00200730 0.00458133 0.00131993 
0.06506309 0.04154488 0.00848629 0.00181693 0.00065416 0.00280011 0.00814249 0.00756648 0.01221799 0.00203881 0.00151483 0.01914784 0.00742977 0.00198156 0.00454863 0.00131846 
0.06588893 0.04150174 0.00828996 0.00181120 0.00065003 0.00277879 0.00808793 0.00755982 0.01234419 0.00199553 0.00151021 0.01884899 0.00758246 0.00195577 0.00451170 0.00131706 
0.06678526 0.04141002 0.00809268 0.00180727 0.00064608 0.00275652 0.00803799 0.00753954 0.01247286 0.00195253 0.00150655 0.01855222 0.00774003 0.00193003 0.00447072 0.00131574 
0.06774770 0.04127018 0.00789509 0.00180516 0.00064234 0.00273346 0.00799310 0.00750584 0.01260478 0.00190996 0.00150384 0.01825968 0.00790202 0.00190442 0.00442594 0.00131449 
0.06877133 0.04108301 0.00769784 0.00180488 0.00063882 0.00270973 0.00795369 0.00745896 0.01274074 0.00186794 0.00150211 0.01797346 0.00806791 0.00187903 0.00437759 0.00131333 
0.06985073 0.04084960 0.00750160 0.00180642 0.00063555 0.00268549 0.00792013 0.00739920 0.01288153 0.00182662 0.00150134 0.01769557 0.00823716 0.00185395 0.00432596 0.00131227 
0.07098000 0.04057131 0.00730701 0.00180976 0.00063253 0.00266085 0.00789276 0.00732694 0.01302791 0.00178611 0.00150153 0.01742795 0.00840918 0.00182925 0.00427134 0.00131130 
0.07215279 0.04024980 0.00711475 0.00181488 0.00062979 0.00263597 0.00787187 0.00724260 0.01318064 0.00174652 0.00150267 0.01717246 0.00858333 0.00180502 0.00421401 0.00131043 
0.07336238 0.03988695 0.00692547 0.00182173 0.00062735 0.00261097 0.00785774 0.00714669 0.01334043 0.00170798 0.00150474 0.01693084 0.00875898 0.00178133 0.00415431 0.00130967 
0.07460169 0.03948493 0.00673983 0.00183028 0.00062522 0.00258598 0.00785056 0.00703974 0.01350796 0.00167059 0.00150773 0.01670473 0.00893543 0.00175825 0.00409256 0.00130902 
0.07586335 0.03904609 0.00655848 0.00184046 0.00062343 0.00256114 0.00785053 0.00692235 0.01368386 0.00163442 0.00151161 0.01649563 0.00911199 0.00173586 0.00402911 0.00130848 
0.07713973 0.03857301 0.00638206 0.00185220 0.00062199 0.00253656 0.00785775 0.00679518 0.01386869 0.00159958 0.00151636 0.01630492 0.00928792 0.00171422 0.00396431 0.00130806 
0.07842302 0.03806845 0.00621119 0.00186544 0.00062091 0.00251236 0.00787230 0.00665891 0.01406296 0.00156614 0.00152193 0.01613384 0.00946250 0.00169339 0.00389851 0.00130776 
0.07970525 0.03753533 0.00604650 0.00188008 0.00062020 0.00248865 0.00789423 0.00651430 0.01426709 0.00153415 0.00152831 0.01598350 0.00963498 0.00167344 0.00383208 0.00130758 
0.08097838 0.03697670 0.00588857 0.00189604 0.00061989 0.00246554 0.00792351 0.00636212 0.01448142 0.00150369 0.00153544 0.01585483 0.00980460 0.00165442 0.00376540 0.00130752 
0.08223432 0.03639575 0.00573798 0.00191320 0.00061999 0.00244314 0.00796007 0.00620320 0.01470621 0.00147480 0.00154329 0.01574862 0.00997062 0.00163638 0.00369882 0.00130759 
0.08346500 0.03579575 0.00559529 0.00193145 0.00062050 0.00242153 0.00800380 0.00603837 0.01494163 0.00144752 0.00155181 0.01566551 0.01013231 0.00161936 0.00363272 0.00130779 
0.08466246 0.03518005 0.00546104 0.00195069 0.00062144 0.00240080 0.00805456 0.00586853 0.01518773 0.00142187 0.00156096 0.01560597 0.01028892 0.00160342 0.00356747 0.00130812 
0.08581882 0.03455203 0.00533572 0.00197077 0.00062281 0.00238105 0.00811212 0.00569458 0.01544450 0.00139789 0.00157068 0.01557030 0.01043974 0.00158860 0.00350343 0.00130858 
0.08692645 0.03391511 0.00521981 0.00199159 0.00062463 0.00236234 0.00817625 0.00551744 0.01571178 0.00137558 0.00158093 0.01555866 0.01058409 0.00157491 0.00344096 0.00130916 
0.08797790 0.03327270 0.00511377 0.00201298 0.00062688 0.00234474 0.00824665 0.00533806 0.01598934 0.00135495 0.00159164 0.01557102 0.01072128 0.00156241 0.00338040 0.00130987 
0.08896606 0.03262820 0.00501800 0.00203483 0.00062959 0.00232831 0.00832299 0.00515739 0.01627683 0.00133599 0.00160277 0.01560721 0.01085069 0.00155111 0.00332210 0.00131071 
0.08988413 0.03198496 0.00493289 0.00205697 0.00063275 0.00231311 0.00840491 0.00497641 0.01657378 0.00131870 0.00161426 0.01566691 0.01097172 0.00154103 0.00326638 0.00131166 
0.09072573 0.03134626 0.00485878 0.00207927 0.00063635 0.00229918 0.00849198 0.00479607 0.01687965 0.00130306 0.00162605 0.01574964 0.01108379 0.00153219 0.00321355 0.00131274 
0.09148489 0.03071528 0.00479599 0.00210157 0.00064041 0.00228656 0.00858378 0.00461735 0.01719375 0.00128903 0.00163808 0.01585477 0.01118639 0.00152461 0.00316392 0.00131393 
0.09215614 0.03009512 0.00474477 0.00212372 0.00064490 0.00227528 0.00867984 0.00444122 0.01751533 0.00127659 0.00165029 0.01598153 0.01127905 0.00151829 0.00311776 0.00131523 
0.09273451 0.02948873 0.00470536 0.00214556 0.00064983 0.00226538 0.00877964 0.00426864 0.01784353 0.00126571 0.00166263 0.01612902 0.01136135 0.00151323 0.00307534 0.00131663 
0.09321561 0.02889892 0.00467795 0.00216696 0.00065518 0.00225686 0.00888267 0.00410055 0.01817738 0.00125633 0.00167504 0.01629624 0.01143291 0.00150943 0.00303691 0.00131813 
0.09359562 0.02832835 0.00466267 0.00218774 0.00066094 0.00224974 0.00898838 0.00393788 0.01851584 0.00124841 0.00168745 0.01648203 0.01149343 0.00150688 0.00300268 0.00131972 
0.09387135 0.02777950 0.00465964 0.00220777 0.00066711 0.00224403 0.00909622 0.00378156 0.01885780 0.00124190 0.00169982 0.01668515 0.01154264 0.00150559 0.00297287 0.00132140 
0.09404024 0.02725464 0.00466889 0.00222689 0.00067366 0.00223971 0.00920559 0.00363247 0.01920205 0.00123675 0.00171208 0.01690427 0.01158036 0.00150552 0.00294763 0.00132315 
0.09410041 0.02675586 0.00469045 0.00224496 0.00068058 0.00223679 0.00931592 0.00349148 0.01954733 0.00123289 0.00172419 0.01713797 0.01160645 0.00150666 0.00292714 0.00132497 
0.09405065 0.02628504 0.00472427 0.00226184 0.00068784 0.00223524 0.00942662 0.00335942 0.01989232 0.00123027 0.00173609 0.01738475 0.01162083 0.00150899 0.00291152 0.00132685 
0.09389047 0.02584381 0.00477027 0.00227740 0.00069544 0.00223505 0.00953709 0.00323710 0.02023564 0.00122882 0.00174773 0.01764304 0.01162350 0.00151248 0.00290087 0.00132877 
0.09362007 0.02543361 0.00482832 0.00229152 0.00070333 0.00223618 0.00964673 0.00312529 0.02057588 0.00122848 0.00175906 0.01791125 0.01161451 0.00151710 0.00289528 0.00133074 
0.09324035 0.02505561 0.00489824 0.00230406 0.00071151 0.00223862 0.00975496 0.00302471 0.02091161 0.00122918 0.00177004 0.01818773 0.01159397 0.00152281 0.00289478 0.00133273 
0.09275294 0.02471077 0.00497980 0.00231491 0.00071993 0.00224232 0.00986120 0.00293606 0.02124134 0.00123088 0.00178063 0.01847081 0.01156207 0.00152958 0.00289942 0.00133474 
0.09216016 0.02439978 0.00507273 0.00232398 0.00072858 0.00224723 0.00996490 0.00285998 0.02156362 0.00123349 0.00179078 0.01875882 0.01151904 0.00153736 0.00290918 0.00133675 
0.09146505 0.02412313 0.00517671 0.00233116 0.00073742 0.00225332 0.01006549 0.00279707 0.02187697 0.00123696 0.00180047 0.01905007 0.01146517 0.00154611 0.00292404 0.00133875 
0.09067131 0.02388103 0.00529137 0.00233636 0.00074642 0.00226054 0.01016246 0.00274788 0.02217991 0.00124124 0.00180965 0.01934290 0.01140082 0.00155577 0.00294395 0.00134074 
0.08978333 0.02367347 0.00541631 0.00233952 0.00075554 0.00226882 0.01025531 0.00271291 0.02247101 0.00124625 0.00181831 0.01963567 0.01132638 0.00156631 0.00296882 0.00134269 
0.08880612 0.02350022 0.00555107 0.00234056 0.00076476 0.00227812 0.01034357 0.00269261 0.02274885 0.00125196 0.00182641 0.01992678 0.01124232 0.00157765 0.00299855 0.00134461 
0.08774532 0.02336080 0.00569515 0.00233944 0.00077404 0.00228836 0.01042678 0.00268737 0.02301204 0.00125830 0.00183394 0.02021468 0.01114914 0.00158976 0.00303300 0.00134646 
0.08660718 0.02325453 0.00584801 0.00233610 0.00078334 0.00229950 0.01050455 0.00269753 0.02325928 0.00126524 0.00184088 0.02049787 0.01104739 0.00160257 0.00307203 0.00134825 
0.08539849 0.02318053 0.00600907 0.00233052 0.00079263 0.00231145 0.01057650 0.00272338 0.02348928 0.00127272 0.00184721 0.02077492 0.01093764 0.00161602 0.00311545 0.00134996 
0.08412655 0.02313768 0.00617772 0.00232268 0.00080187 0.00232416 0.01064230 0.00276514 0.02370085 0.00128071 0.00185294 0.02104450 0.01082052 0.00163004 0.00316305 0.00135157 
0.08279915 0.02312472 0.00635330 0.00231257 0.00081102 0.00233755 0.01070166 0.00282297 0.02389287 0.00128917 0.00185805 0.02130536 0.01069670 0.00164458 0.00321463 0.00135309 
0.08142453 0.02314019 0.00653513 0.00230021 0.00082005 0.00235156 0.01075432 0.00289699 0.02406429 0.00129807 0.00186255 0.02155633 0.01056684 0.00165958 0.00326993 0.00135448 
0.08001131 0.02318247 0.00672248 0.00228560 0.00082891 0.00236610 0.01080010 0.00298723 0.02421417 0.00130739 0.00186644 0.02179638 0.01043165 0.00167496 0.00332869 0.00135576 
0.07856844 0.02324980 0.00691462 0.00226879 0.00083758 0.00238110 0.01083881 0.00309370 0.02434166 0.00131711 0.00186973 0.02202456 0.01029186 0.00169067 0.00339064 0.00135689 
0.07710516 0.02334028 0.00711077 0.00224982 0.00084601 0.00239650 0.01087036 0.00321631 0.02444601 0.00132721 0.00187244 0.02224006 0.01014820 0.00170663 0.00345547 0.00135788 
0.07563098 0.02345192 0.00731014 0.00222875 0.00085418 0.00241221 0.01089467 0.00335493 0.02452658 0.00133768 0.00187458 0.02244218 0.01000141 0.00172279 0.00352289 0.00135872 
0.07415554 0.02358260 0.00751191 0.00220564 0.00086204 0.00242816 0.01091173 0.00350937 0.02458284 0.00134851 0.00187617 0.02263036 0.00985225 0.00173907 0.00359256 0.00135939 
0.07268864 0.02373015 0.00771525 0.00218058 0.00086956 0.00244428 0.01092156 0.00367938 0.02461439 0.00135971 0.00187725 0.02280416 0.00970145 0.00175542 0.00366417 0.00135989 
0.07124012 0.02389230 0.00791933 0.00215367 0.00087671 0.00246049 0.01092423 0.00386465 0.02462092 0.00137129 0.00187784 0.02296329 0.00954976 0.00177178 0.00373735 0.00136021 
0.06981985 0.02406678 0.00812329 0.00212500 0.00088346 0.00247672 0.01091987 0.00406480 0.02460228 0.00138324 0.00187797 0.02310757 0.00939790 0.00178807 0.00381178 0.00136035 
0.06843762 0.02425125 0.00832629 0.00209470 0.00088978 0.00249289 0.01090863 0.00427941 0.02455840 0.00139559 0.00187768 0.02323696 0.00924660 0.00180424 0.00388709 0.00136030 
0.06710312 0.02444340 0.00852746 0.00206290 0.00089564 0.00250894 0.01089071 0.00450799 0.02448937 0.00140835 0.00187700 0.02335157 0.00909655 0.00182024 0.00396293 0.00136005 
0.06582585 0.02464089 0.00872596 0.00202971 0.00090102 0.00252479 0.01086636 0.00475003 0.02439535 0.00142155 0.00187598 0.02345162 0.00894842 0.00183601 0.00403894 0.00135961 
0.06461510 0.02484143 0.00892094 0.00199530 0.00090589 0.00254037 0.01083587 0.00500491 0.02427667 0.00143521 0.00187466 0.02353747 0.00880287 0.00185149 0.00411476 0.00135896 
0.06347984 0.02504277 0.00911159 0.00195981 0.00091024 0.00255563 0.01079954 0.00527201 0.02413375 0.00144936 0.00187309 0.02360960 0.00866050 0.00186664 0.00419004 0.00135812 
0.06242871 0.02524271 0.00929708 0.00192341 0.00091403 0.00257049 0.01075772 0.00555063 0.02396712 0.00146403 0.00187132 0.02366862 0.00852191 0.00188140 0.00426442 0.00135707 
0.06146992 0.02543914 0.00947662 0.00188625 0.00091727 0.00258490 0.01071079 0.00584005 0.02377743 0.00147927 0.00186938 0.02371523 0.00838764 0.00189573 0.00433756 0.00135583 
0.06061124 0.02563000 0.00964946 0.00184852 0.00091993 0.00259878 0.01065917 0.00613947 0.02356543 0.00149509 0.00186733 0.02375026 0.00825821 0.00190960 0.00440914 0.00135438 
0.05985990 0.02581338 0.00981485 0.00181039 0.00092200 0.00261209 0.01060326 0.00644809 0.02333196 0.00151155 0.00186523 0.02377464 0.00813408 0.00192296 0.00447881 0.00135274 
0.05922260 0.02598747 0.00997211 0.00177204 0.00092347 0.00262478 0.01054352 0.00676504 0.02307796 0.00152869 0.00186311 0.02378938 0.00801568 0.00193577 0.00454626 0.00135091 
0.05870539 0.02615056 0.01012056 0.00173365 0.00092435 0.00263678 0.01048042 0.00708942 0.02280445 0.00154654 0.00186103 0.02379557 0.00790340 0.00194802 0.00461119 0.00134889 
0.05831368 0.02630111 0.01025959 0.00169541 0.00092462 0.00264804 0.01041442 0.00742032 0.02251255 0.00156514 0.00185904 0.02379440 0.00779757 0.00195967 0.00467332 0.00134670 
0.05805220 0.02643773 0.01038864 0.00165751 0.00092429 0.00265854 0.01034601 0.00775676 0.02220342 0.00158453 0.00185718 0.02378710 0.00769849 0.00197070 0.00473237 0.00134433 
0.05792491 0.02655916 0.01050719 0.00162013 0.00092336 0.00266821 0.01027567 0.00809776 0.02187831 0.00160476 0.00185550 0.02377498 0.00760640 0.00198110 0.00478809 0.00134179 
0.05793504 0.02666432 0.01061476 0.00158345 0.00092183 0.00267701 0.01020389 0.00844232 0.02153851 0.00162585 0.00185405 0.02375936 0.00752150 0.00199084 0.00484024 0.00133910 
0.05808499 0.02675229 0.01071097 0.00154767 0.00091972 0.00268492 0.01013114 0.00878942 0.02118536 0.00164786 0.00185286 0.02374164 0.00744395 0.00199993 0.00488862 0.00133627 
0.05837636 0.02682234 0.01079547 0.00151295 0.00091704 0.00269190 0.01005791 0.00913801 0.02082026 0.00167080 0.00185197 0.02372322 0.00737385 0.00200836 0.00493301 0.00133330 
0.05880990 0.02687390 0.01086798 0.00147948 0.00091380 0.00269791 0.00998465 0.00948704 0.02044460 0.00169471 0.00185142 0.02370550 0.00731128 0.00201613 0.00497325 0.00133021 
0.05938550 0.02690657 0.01092830 0.00144742 0.00091003 0.00270294 0.00991182 0.00983546 0.02005984 0.00171961 0.00185124 0.02368991 0.00725624 0.00202325 0.00500920 0.00132700 
0.06010220 0.02692015 0.01097629 0.00141695 0.00090573 0.00270694 0.00983985 0.01018221 0.01966742 0.00174554 0.00185146 0.02367785 0.00720873 0.00202972 0.00504071 0.00132370 
0.06095813 0.02691459 0.01101188 0.00138822 0.00090094 0.00270992 0.00976913 0.01052622 0.01926879 0.00177250 0.00185211 0.02367072 0.00716869 0.00203556 0.00506769 0.00132031 
0.06195059 0.02689003 0.01103508 0.00136137 0.00089569 0.00271184 0.00970007 0.01086644 0.01886542 0.00180051 0.00185321 0.02366987 0.00713600 0.00204078 0.00509006 0.00131686 
0.06307597 0.02684677 0.01104599 0.00133656 0.00088999 0.00271269 0.00963301 0.01120185 0.01845874 0.00182959 0.00185476 0.02367664 0.00711055 0.00204542 0.00510775 0.00131335 
0.06432982 0.02678528 0.01104475 0.00131392 0.00088388 0.00271246 0.00956828 0.01153140 0.01805019 0.00185973 0.00185680 0.02369228 0.00709217 0.00204950 0.00512074 0.00130980 
0.06570683 0.02670617 0.01103161 0.00129357 0.00087739 0.00271116 0.00950619 0.01185409 0.01764116 0.00189094 0.00185931 0.02371801 0.00708065 0.00205304 0.00512901 0.00130622 
0.06720087 0.02661023 0.01100688 0.00127562 0.00087056 0.00270876 0.00944699 0.01216895 0.01723303 0.00192320 0.00186231 0.02375497 0.00707579 0.00205609 0.00513257 0.00130263 
0.06880501 0.02649836 0.01097096 0.00126018 0.00086343 0.00270528 0.00939091 0.01247501 0.01682712 0.00195650 0.00186580 0.02380423 0.00707733 0.00205868 0.00513147 0.00129905 
0.07051156 0.02637159 0.01092432 0.00124734 0.00085602 0.00270071 0.00933814 0.01277136 0.01642472 0.00199082 0.00186976 0.02386676 0.00708499 0.00206086 0.00512575 0.00129550 
0.07231205 0.02623108 0.01086749 0.00123717 0.00084839 0.00269506 0.00928885 0.01305711 0.01602706 0.00202614 0.00187418 0.02394345 0.00709850 0.00206267 0.00511550 0.00129197 
0.07419735 0.02607811 0.01080109 0.00122975 0.00084057 0.00268834 0.00924314 0.01333143 0.01563533 0.00206243 0.00187906 0.02403510 0.00711756 0.00206416 0.00510081 0.00128851 
0.07615766 0.02591401 0.01072581 0.00122512 0.00083261 0.00268056 0.00920110 0.01359351 0.01525063 0.00209963 0.00188436 0.02414236 0.00714185 0.00206538 0.00508180 0.00128511 
0.07818258 0.02574025 0.01064239 0.00122334 0.00082454 0.00267175 0.00916277 0.01384261 0.01487404 0.00213771 0.00189006 0.02426582 0.00717104 0.00206638 0.00505861 0.00128179 
0.08026113 0.02555831 0.01055166 0.00122442 0.00081642 0.00266191 0.00912816 0.01407803 0.01450652 0.00217662 0.00189613 0.02440593 0.00720481 0.00206721 0.00503138 0.00127857 
0.08238187 0.02536977 0.01045448 0.00122839 0.00080828 0.00265107 0.00909723 0.01429915 0.01414901 0.00221629 0.00190254 0.02456302 0.00724284 0.00206795 0.00500029 0.00127547 
0.08453288 0.02517622 0.01035179 0.00123524 0.00080017 0.00263926 0.00906992 0.01450537 0.01380233 0.00225666 0.00190924 0.02473729 0.00728478 0.00206863 0.00496551 0.00127249 
0.08670190 0.02497929 0.01024457 0.00124497 0.00079213 0.00262650 0.00904613 0.01469619 0.01346727 0.00229766 0.00191620 0.02492882 0.00733033 0.00206933 0.00492725 0.00126964 
0.08887632 0.02478061 0.01013384 0.00125754 0.00078421 0.00261282 0.00902573 0.01487115 0.01314450 0.00233921 0.00192336 0.02513757 0.00737915 0.00207010 0.00488569 0.00126696 
0.09104330 0.02458181 0.01002068 0.00127294 0.00077645 0.00259826 0.00900856 0.01502988 0.01283465 0.00238123 0.00193069 0.02536337 0.00743093 0.00207099 0.00484106 0.00126443 
0.09318984 0.02438452 0.00990619 0.00129109 0.00076890 0.00258285 0.00899443 0.01517207 0.01253826 0.00242362 0.00193812 0.02560590 0.00748539 0.00207207 0.00479358 0.00126208 
0.09530282 0.02419031 0.00979149 0.00131195 0.00076159 0.00256664 0.00898314 0.01529747 0.01225578 0.00246631 0.00194560 0.02586474 0.00754224 0.00207340 0.00474347 0.00125991 
0.09736908 0.02400072 0.00967774 0.00133544 0.00075456 0.00254965 0.00897443 0.01540592 0.01198761 0.00250918 0.00195308 0.02613932 0.00760120 0.00207502 0.00469097 0.00125794 
0.09937553 0.02381723 0.00956610 0.00136147 0.00074787 0.00253195 0.00896806 0.01549733 0.01173406 0.00255213 0.00196049 0.02642897 0.00766203 0.00207700 0.00463630 0.00125617 
0.10130917 0.02364124 0.00945774 0.00138994 0.00074153 0.00251357 0.00896377 0.01557168 0.01149538 0.00259507 0.00196778 0.02673289 0.00772450 0.00207938 0.00457971 0.00125461 
0.10315721 0.02347410 0.00935384 0.00142075 0.00073560 0.00249456 0.00896126 0.01562902 0.01127173 0.00263787 0.00197489 0.02705014 0.00778840 0.00208222 0.00452142 0.00125327 
0.10490710 0.02331703 0.00925556 0.00145378 0.00073009 0.00247498 0.00896024 0.01566950 0.01106322 0.00268044 0.00198174 0.02737970 0.00785354 0.00208555 0.00446166 0.00125215 
0.10654667 0.02317117 0.00916404 0.00148889 0.00072506 0.00245487 0.00896041 0.01569330 0.01086991 0.00272265 0.00198829 0.02772041 0.00791976 0.00208943 0.00440066 0.00125125 
0.10806410 0.02303754 0.00908042 0.00152597 0.00072052 0.00243428 0.00896147 0.01570072 0.01069178 0.00276440 0.00199447 0.02807105 0.00798692 0.00209388 0.00433865 0.00125059 
0.10944811 0.02291704 0.00900579 0.00156484 0.00071650 0.00241329 0.00896312 0.01569209 0.01052877 0.00280556 0.00200022 0.02843026 0.00805491 0.00209894 0.00427583 0.00125015 
0.11068791 0.02281046 0.00894120 0.00160538 0.00071302 0.00239194 0.00896505 0.01566784 0.01038074 0.00284601 0.00200547 0.02879661 0.00812364 0.00210464 0.00421242 0.00124995 
0.11177336 0.02271844 0.00888768 0.00164740 0.00071012 0.00237029 0.00896696 0.01562844 0.01024754 0.00288565 0.00201018 0.02916860 0.00819304 0.00211101 0.00414861 0.00124998 
0.11269498 0.02264150 0.00884616 0.00169075 0.00070780 0.00234840 0.00896859 0.01557443 0.01012897 0.00292435 0.00201429 0.02954463 0.00826307 0.00211805 0.00408459 0.00125025 
0.11344401 0.02258000 0.00881756 0.00173525 0.00070608 0.00232634 0.00896964 0.01550643 0.01002478 0.00296200 0.00201774 0.02992304 0.00833372 0.00212579 0.00402054 0.00125074 
0.11401250 0.02253420 0.00880270 0.00178073 0.00070498 0.00230417 0.00896986 0.01542509 0.00993470 0.00299849 0.00202048 0.03030213 0.00840500 0.00213421 0.00395662 0.00125146 
0.11439331 0.02250417 0.00880235 0.00182699 0.00070451 0.00228195 0.00896901 0.01533112 0.00985842 0.00303370 0.00202246 0.03068013 0.00847693 0.00214334 0.00389299 0.00125240 
0.11458022 0.02248988 0.00881717 0.00187387 0.00070467 0.00225975 0.00896687 0.01522527 0.00979563 0.00306754 0.00202365 0.03105524 0.00854957 0.00215315 0.00382978 0.00125356 
0.11456791 0.02249114 0.00884776 0.00192116 0.00070546 0.00223763 0.00896323 0.01510835 0.00974600 0.00309989 0.00202400 0.03142563 0.00862299 0.00216363 0.00376713 0.00125493 
0.11435202 0.02250762 0.00889461 0.00196868 0.00070689 0.00221566 0.00895792 0.01498118 0.00970916 0.00313066 0.00202347 0.03178944 0.00869727 0.00217476 0.00370515 0.00125651 
0.11392920 0.02253888 0.00895814 0.00201624 0.00070895 0.00219391 0.00895078 0.01484463 0.00968478 0.00315976 0.00202204 0.03214480 0.00877254 0.00218652 0.00364394 0.00125828 
0.11329714 0.02258434 0.00903864 0.00206365 0.00071163 0.00217243 0.00894169 0.01469959 0.00967249 0.00318708 0.00201967 0.03248985 0.00884890 0.00219887 0.00358359 0.00126023 
0.11245453 0.02264328 0.00913632 0.00211071 0.00071493 0.00215130 0.00893054 0.01454697 0.00967194 0.00321256 0.00201634 0.03282271 0.00892650 0.00221176 0.00352418 0.00126236 
0.11140115 0.02271490 0.00925127 0.00215724 0.00071883 0.00213059 0.00891727 0.01438768 0.00968278 0.00323610 0.00201204 0.03314156 0.00900547 0.00222515 0.00346577 0.00126466 
0.11013786 0.02279828 0.00938347 0.00220305 0.00072331 0.00211035 0.00890183 0.01422266 0.00970469 0.00325765 0.00200676 0.03344455 0.00908598 0.00223899 0.00340842 0.00126712 
0.10866658 0.02289241 0.00953280 0.00224795 0.00072836 0.00209066 0.00888420 0.01405282 0.00973735 0.00327713 0.00200047 0.03372992 0.00916817 0.00225321 0.00335217 0.00126972 
0.10699029 0.02299616 0.00969902 0.00229177 0.00073395 0.00207157 0.00886438 0.01387910 0.00978047 0.00329449 0.00199319 0.03399592 0.00925223 0.00226775 0.00329705 0.00127244 
0.10511306 0.02310838 0.00988177 0.00233432 0.00074006 0.00205315 0.00884243 0.01370239 0.00983376 0.00330968 0.00198491 0.03424086 0.00933829 0.00228254 0.00324309 0.00127529 
0.10304001 0.02322780 0.01008061 0.00237544 0.00074665 0.00203546 0.00881840 0.01352359 0.00989699 0.00332265 0.00197564 0.03446313 0.00942654 0.00229749 0.00319030 0.00127824 
0.10077729 0.02335312 0.01029495 0.00241496 0.00075370 0.00201856 0.00879237 0.01334356 0.00996993 0.00333338 0.00196539 0.03466118 0.00951714 0.00231253 0.00313869 0.00128128 
0.09833206 0.02348300 0.01052413 0.00245273 0.00076118 0.00200251 0.00876447 0.01316314 0.01005239 0.00334183 0.00195418 0.03483353 0.00961022 0.00232757 0.00308827 0.00128439 
0.09571246 0.02361606 0.01076734 0.00248858 0.00076904 0.00198736 0.00873483 0.01298313 0.01014423 0.00334798 0.00194204 0.03497880 0.00970594 0.00234252 0.00303903 0.00128757 
0.09292759 0.02375091 0.01102371 0.00252238 0.00077725 0.00197317 0.00870359 0.01280427 0.01024531 0.00335183 0.00192898 0.03509571 0.00980442 0.00235728 0.00299096 0.00129079 
0.08998744 0.02388613 0.01129226 0.00255400 0.00078578 0.00195998 0.00867094 0.01262729 0.01035555 0.00335337 0.00191504 0.03518307 0.00990580 0.00237177 0.00294408 0.00129405 
0.08690287 0.02402033 0.01157190 0.00258329 0.00079457 0.00194785 0.00863706 0.01245285 0.01047491 0.00335262 0.00190026 0.03523980 0.01001016 0.00238588 0.00289835 0.00129732 
0.08368554 0.02415214 0.01186148 0.00261016 0.00080359 0.00193683 0.00860215 0.01228154 0.01060335 0.00334957 0.00188466 0.03526495 0.01011760 0.00239951 0.00285379 0.00130059 
0.08034788 0.02428018 0.01215974 0.00263448 0.00081278 0.00192694 0.00856643 0.01211391 0.01074091 0.00334426 0.00186830 0.03525768 0.01022817 0.00241257 0.00281038 0.00130385 
0.07690302 0.02440315 0.01246539 0.00265617 0.00082212 0.00191823 0.00853012 0.01195045 0.01088763 0.00333671 0.00185122 0.03521727 0.01034193 0.00242495 0.00276813 0.00130708 
0.07336472 0.02451979 0.01277702 0.00267514 0.00083154 0.00191075 0.00849346 0.01179158 0.01104359 0.00332696 0.00183347 0.03514315 0.01045888 0.00243656 0.00272704 0.00131027 
0.06974731 0.02462888 0.01309320 0.00269132 0.00084101 0.00190450 0.00845666 0.01163766 0.01120892 0.00331506 0.00181510 0.03503486 0.01057903 0.00244730 0.00268711 0.00131340 
0.06606563 0.02472930 0.01341244 0.00270464 0.00085047 0.00189953 0.00841998 0.01148896 0.01138376 0.00330105 0.00179617 0.03489211 0.01070234 0.00245708 0.00264837 0.00131645 
0.06233495 0.02482000 0.01373320 0.00271505 0.00085988 0.00189586 0.00838363 0.01134571 0.01156827 0.00328500 0.00177673 0.03471472 0.01082874 0.00246580 0.00261084 0.00131943 
0.05857088 0.02490001 0.01405392 0.00272252 0.00086920 0.00189350 0.00834785 0.01120805 0.01176265 0.00326696 0.00175683 0.03450267 0.01095816 0.00247337 0.00257454 0.00132230 
0.05478935 0.02496846 0.01437302 0.00272703 0.00087837 0.00189246 0.00831286 0.01107606 0.01196711 0.00324701 0.00173655 0.03425608 0.01109046 0.00247973 0.00253952 0.00132507 
0.05100645 0.02502458 0.01468890 0.00272856 0.00088736 0.00189276 0.00827887 0.01094975 0.01218189 0.00322522 0.00171593 0.03397521 0.01122551 0.00248478 0.00250584 0.00132771 
0.04723843 0.02506772 0.01499995 0.00272712 0.00089611 0.00189440 0.00824608 0.01082907 0.01240723 0.00320168 0.00169504 0.03366049 0.01136311 0.00248845 0.00247354 0.00133021 
0.04350157 0.02509731 0.01530457 0.00272273 0.00090458 0.00189737 0.00821469 0.01071389 0.01264337 0.00317646 0.00167394 0.03331247 0.01150307 0.00249070 0.00244270 0.00133258 
0.03981212 0.02511293 0.01560120 0.00271540 0.00091274 0.00190167 0.00818486 0.01060403 0.01289057 0.00314967 0.00165270 0.03293184 0.01164515 0.00249144 0.00241340 0.00133478 
0.03618621 0.02511427 0.01588828 0.00270519 0.00092054 0.00190729 0.00815676 0.01049926 0.01314908 0.00312138 0.00163137 0.03251946 0.01178906 0.00249065 0.00238574 0.00133682 
0.03263980 0.02510113 0.01616429 0.00269215 0.00092795 0.00191419 0.00813051 0.01039927 0.01341916 0.00309171 0.00161001 0.03207631 0.01193452 0.00248827 0.00235982 0.00133868 
0.02918855 0.02507342 0.01642777 0.00267636 0.00093492 0.00192237 0.00810625 0.01030372 0.01370104 0.00306074 0.00158869 0.03160351 0.01208120 0.00248428 0.00233575 0.00134036 
0.02584778 0.02503120 0.01667731 0.00265789 0.00094144 0.00193180 0.00808406 0.01021222 0.01399495 0.00302858 0.00156745 0.03110231 0.01222875 0.00247865 0.00231366 0.00134186 
0.02263239 0.02497463 0.01691155 0.00263685 0.00094746 0.00194242 0.00806403 0.01012434 0.01430108 0.00299534 0.00154637 0.03057409 0.01237678 0.00247138 0.00229367 0.00134315 
0.01955678 0.02490399 0.01712923 0.00261334 0.00095296 0.00195421 0.00804621 0.01003962 0.01461962 0.00296111 0.00152549 0.03002036 0.01252490 0.00246245 0.00227594 0.00134425 
0.01663478 0.02481965 0.01732914 0.00258748 0.00095791 0.00196712 0.00803063 0.00995755 0.01495072 0.00292601 0.00150487 0.02944273 0.01267269 0.00245188 0.00226060 0.00134513 
0.01387958 0.02472213 0.01751019 0.00255941 0.00096230 0.00198109 0.00801731 0.00987762 0.01529448 0.00289014 0.00148455 0.02884294 0.01281968 0.00243969 0.00224781 0.00134581 
0.01130366 0.02461201 0.01767137 0.00252927 0.00096610 0.00199607 0.00800623 0.00979931 0.01565098 0.00285361 0.00146460 0.02822283 0.01296544 0.00242590 0.00223774 0.00134628 
0.00891874 0.02448998 0.01781176 0.00249722 0.00096929 0.00201200 0.00799737 0.00972206 0.01602025 0.00281653 0.00144504 0.02758432 0.01310947 0.00241055 0.00223055 0.00134653 
0.00673570 0.02435684 0.01793056 0.00246343 0.00097188 0.00202880 0.00799067 0.00964533 0.01640227 0.00277900 0.00142594 0.02692944 0.01325128 0.00239369 0.00222640 0.00134657 
0.00476456 0.02421344 0.01802710 0.00242807 0.00097384 0.00204640 0.00798605 0.00956858 0.01679697 0.00274112 0.00140733 0.02626028 0.01339038 0.00237539 0.00222547 0.00134639 
0.00301440 0.02406072 0.01810080 0.00239133 0.00097518 0.00206473 0.00798343 0.00949130 0.01720421 0.00270301 0.00138924 0.02557902 0.01352624 0.00235570 0.00222792 0.00134599 
0.00149331 0.02389967 0.01815121 0.00235340 0.00097588 0.00208369 0.00798270 0.00941295 0.01762382 0.00266475 0.00137172 0.02488788 0.01365837 0.00233472 0.00223392 0.00134539 
0.00020838 0.02373135 0.01817800 0.00231449 0.00097596 0.00210322 0.00798374 0.00933306 0.01805553 0.00262646 0.00135480 0.02418917 0.01378624 0.00231252 0.00224363 0.00134457 
0.00083438 0.02355686 0.01818098 0.00227480 0.00097542 0.00212320 0.00798640 0.00925118 0.01849903 0.00258822 0.00133850 0.02348520 0.01390933 0.00228921 0.00225722 0.00134355 
0.00163002 0.02337734 0.01816006 0.00223455 0.00097427 0.00214356 0.00799053 0.00916689 0.01895393 0.00255014 0.00132286 0.02277833 0.01402714 0.00226488 0.00227482 0.00134232 
0.00217473 0.02319394 0.01811530 0.00219396 0.00097251 0.00216420 0.00799599 0.00907982 0.01941978 0.00251230 0.00130791 0.02207094 0.01413915 0.00223966 0.00229658 0.00134090 
0.00246580 0.02300783 0.01804687 0.00215324 0.00097016 0.00218501 0.00800259 0.00898964 0.01989605 0.00247480 0.00129365 0.02136544 0.01424487 0.00221366 0.00232263 0.00133929 
0.00250170 0.02282019 0.01795508 0.00211262 0.00096724 0.00220589 0.00801017 0.00889608 0.02038212 0.00243771 0.00128013 0.02066422 0.01434383 0.00218701 0.00235309 0.00133749 
0.00228205 0.02263221 0.01784034 0.00207234 0.00096378 0.00222674 0.00801855 0.00879894 0.02087734 0.00240113 0.00126734 0.01996965 0.01443556 0.00215984 0.00238805 0.00133552 
0.00180762 0.02244502 0.01770319 0.00203261 0.00095979 0.00224746 0.00802754 0.00869808 0.02138094 0.00236513 0.00125530 0.01928411 0.01451960 0.00213228 0.00242761 0.00133338 
0.00108035 0.02225978 0.01754429 0.00199367 0.00095530 0.00226793 0.00803698 0.00859340 0.02189212 0.00232978 0.00124404 0.01860993 0.01459553 0.00210448 0.00247183 0.00133108 
0.00010334 0.02207758 0.01736441 0.00195573 0.00095034 0.00228806 0.00804668 0.00848491 0.02240997 0.00229516 0.00123355 0.01794940 0.01466297 0.00207659 0.00252076 0.00132864 
0.00111919 0.02189948 0.01716441 0.00191903 0.00094494 0.00230774 0.00805648 0.00837267 0.02293353 0.00226134 0.00122386 0.01730477 0.01472152 0.00204873 0.00257442 0.00132605 
0.00258188 0.02172648 0.01694526 0.00188376 0.00093913 0.00232686 0.00806620 0.00825683 0.02346177 0.00222837 0.00121496 0.01667820 0.01477086 0.00202107 0.00263284 0.00132333 
0.00427828 0.02155953 0.01670801 0.00185016 0.00093294 0.00234533 0.00807571 0.00813759 0.02399359 0.00219633 0.00120685 0.01607181 0.01481066 0.00199374 0.00269598 0.00132050 
0.00620087 0.02139951 0.01645383 0.00181841 0.00092642 0.00236303 0.00808485 0.00801526 0.02452785 0.00216526 0.00119955 0.01548763 0.01484067 0.00196689 0.00276380 0.00131756 
0.00834113 0.02124723 0.01618392 0.00178872 0.00091959 0.00237987 0.00809349 0.00789020 0.02506331 0.00213522 0.00119306 0.01492758 0.01486063 0.00194068 0.00283624 0.00131452 
0.01068949 0.02110344 0.01589958 0.00176128 0.00091250 0.00239576 0.00810152 0.00776287 0.02559870 0.00210625 0.00118737 0.01439350 0.01487035 0.00191523 0.00291321 0.00131140 
0.01323550 0.02096877 0.01560215 0.00173627 0.00090518 0.00241060 0.00810884 0.00763378 0.02613272 0.00207841 0.00118249 0.01388713 0.01486968 0.00189068 0.00299459 0.00130822 
0.01596777 0.02084379 0.01529305 0.00171384 0.00089768 0.00242431 0.00811537 0.00750353 0.02666399 0.00205173 0.00117841 0.01341006 0.01485849 0.00186718 0.00308023 0.00130497 
0.01887409 0.02072898 0.01497372 0.00169416 0.00089002 0.00243679 0.00812104 0.00737277 0.02719110 0.00202625 0.00117514 0.01296380 0.01483672 0.00184484 0.00316996 0.00130168 
0.02194147 0.02062472 0.01464564 0.00167737 0.00088226 0.00244799 0.00812580 0.00724225 0.02771263 0.00200201 0.00117266 0.01254969 0.01480433 0.00182379 0.00326358 0.00129835 
0.02515619 0.02053131 0.01431031 0.00166360 0.00087442 0.00245781 0.00812962 0.00711275 0.02822712 0.00197902 0.00117098 0.01216896 0.01476135 0.00180414 0.00336086 0.00129501 
0.02850390 0.02044895 0.01396925 0.00165295 0.00086655 0.00246620 0.00813250 0.00698511 0.02873307 0.00195733 0.00117010 0.01182269 0.01470784 0.00178599 0.00346156 0.00129166 
0.03196966 0.02037775 0.01362397 0.00164553 0.00085867 0.00247309 0.00813445 0.00686024 0.02922900 0.00193695 0.00117000 0.01151181 0.01464390 0.00176945 0.00356541 0.00128831 
0.03553802 0.02031772 0.01327600 0.00164142 0.00085083 0.00247844 0.00813550 0.00673908 0.02971341 0.00191789 0.00117068 0.01123711 0.01456971 0.00175461 0.00367209 0.00128498 
0.03919311 0.02026879 0.01292683 0.00164068 0.00084307 0.00248219 0.00813570 0.00662261 0.03018479 0.00190018 0.00117214 0.01099922 0.01448545 0.00174153 0.00378129 0.00128167 
0.04291872 0.02023082 0.01257795 0.00164336 0.00083540 0.00248432 0.00813512 0.00651185 0.03064167 0.00188383 0.00117437 0.01079859 0.01439139 0.00173029 0.00389266 0.00127841 
0.04669834 0.02020358 0.01223079 0.00164950 0.00082786 0.00248479 0.00813383 0.00640784 0.03108258 0.00186884 0.00117737 0.01063556 0.01428781 0.00172094 0.00400583 0.00127519 
0.05051531 0.02018674 0.01188678 0.00165909 0.00082047 0.00248358 0.00813195 0.00631163 0.03150607 0.00185522 0.00118112 0.01051026 0.01417507 0.00171354 0.00412043 0.00127204 
0.05435285 0.02017994 0.01154725 0.00167215 0.00081327 0.00248068 0.00812959 0.00622430 0.03191074 0.00184296 0.00118563 0.01042268 0.01405354 0.00170810 0.00423605 0.00126896 
0.05819415 0.02018274 0.01121351 0.00168863 0.00080627 0.00247608 0.00812688 0.00614690 0.03229522 0.00183208 0.00119089 0.01037266 0.01392365 0.00170466 0.00435227 0.00126596 
0.06202250 0.02019463 0.01088679 0.00170851 0.00079950 0.00246980 0.00812397 0.00608049 0.03265820 0.00182255 0.00119688 0.01035986 0.01378588 0.00170322 0.00446867 0.00126305 
0.06582130 0.02021508 0.01056826 0.00173171 0.00079296 0.00246184 0.00812101 0.00602613 0.03299841 0.00181437 0.00120361 0.01038379 0.01364072 0.00170378 0.00458481 0.00126024 
0.06957423 0.02024349 0.01025900 0.00175816 0.00078668 0.00245223 0.00811815 0.00598483 0.03331467 0.00180753 0.00121105 0.01044379 0.01348874 0.00170632 0.00470023 0.00125754 
0.07326524 0.02027925 0.00996001 0.00178777 0.00078067 0.00244101 0.00811557 0.00595757 0.03360585 0.00180201 0.00121922 0.01053908 0.01333051 0.00171081 0.00481450 0.00125495 
0.07687873 0.02032172 0.00967221 0.00182042 0.00077492 0.00242820 0.00811344 0.00594530 0.03387093 0.00179779 0.00122809 0.01066870 0.01316664 0.00171723 0.00492715 0.00125248 
0.08039955 0.02037023 0.00939642 0.00185598 0.00076945 0.00241388 0.00811193 0.00594892 0.03410895 0.00179485 0.00123765 0.01083155 0.01299777 0.00172550 0.00503773 0.00125014 
0.08381310 0.02042414 0.00913337 0.00189431 0.00076425 0.00239808 0.00811122 0.00596926 0.03431904 0.00179316 0.00124790 0.01102641 0.01282459 0.00173558 0.00514579 0.00124793 
0.08710544 0.02048278 0.00888369 0.00193525 0.00075933 0.00238089 0.00811148 0.00600709 0.03450047 0.00179269 0.00125882 0.01125191 0.01264779 0.00174738 0.00525087 0.00124585 
0.09026331 0.02054550 0.00864790 0.00197861 0.00075467 0.00236237 0.00811287 0.00606313 0.03465257 0.00179342 0.00127040 0.01150655 0.01246808 0.00176083 0.00535255 0.00124391 
0.09327424 0.02061169 0.00842642 0.00202422 0.00075027 0.00234262 0.00811555 0.00613798 0.03477482 0.00179529 0.00128263 0.01178872 0.01228620 0.00177582 0.00545038 0.00124211 
0.09612658 0.02068076 0.00821959 0.00207188 0.00074611 0.00232171 0.00811968 0.00623218 0.03486678 0.00179828 0.00129550 0.01209670 0.01210291 0.00179225 0.00554396 0.00124045 
0.09880957 0.02075215 0.00802761 0.00212136 0.00074218 0.00229976 0.00812538 0.00634617 0.03492815 0.00180233 0.00130898 0.01242866 0.01191896 0.00181002 0.00563289 0.00123894 
0.10131341 0.02082536 0.00785060 0.00217246 0.00073846 0.00227687 0.00813278 0.00648030 0.03495877 0.00180742 0.00132305 0.01278269 0.01173513 0.00182900 0.00571678 0.00123757 
0.10362930 0.02089994 0.00768859 0.00222494 0.00073493 0.00225314 0.00814198 0.00663481 0.03495857 0.00181348 0.00133771 0.01315678 0.01155218 0.00184905 0.00579528 0.00123635 
0.10574946 0.02097552 0.00754148 0.00227856 0.00073157 0.00222870 0.00815309 0.00680984 0.03492764 0.00182047 0.00135292 0.01354885 0.01137091 0.00187006 0.00586806 0.00123526 
0.10766723 0.02105178 0.00740909 0.00233308 0.00072834 0.00220367 0.00816617 0.00700542 0.03486618 0.00182834 0.00136867 0.01395676 0.01119206 0.00189187 0.00593480 0.00123432 
0.10937703 0.02112848 0.00729115 0.00238826 0.00072522 0.00217817 0.00818126 0.00722145 0.03477454 0.00183702 0.00138493 0.01437832 0.01101642 0.00191436 0.00599523 0.00123351 
0.11087442 0.02120548 0.00718731 0.00244384 0.00072218 0.00215234 0.00819841 0.00745774 0.03465319 0.00184647 0.00140168 0.01481129 0.01084473 0.00193735 0.00604910 0.00123284 
0.11215614 0.02128270 0.00709710 0.00249958 0.00071919 0.00212632 0.00821760 0.00771397 0.03450274 0.00185662 0.00141888 0.01525339 0.01067772 0.00196072 0.00609618 0.00123230 
0.11322007 0.02136018 0.00702002 0.00255521 0.00071621 0.00210023 0.00823883 0.00798971 0.03432391 0.00186741 0.00143651 0.01570235 0.01051613 0.00198431 0.00613630 0.00123188 
0.11406531 0.02143802 0.00695545 0.00261049 0.00071320 0.00207422 0.00826204 0.00828442 0.03411758 0.00187877 0.00145453 0.01615587 0.01036064 0.00200796 0.00616930 0.00123159 
0.11469211 0.02151645 0.00690272 0.00266518 0.00071013 0.00204843 0.00828718 0.00859742 0.03388473 0.00189065 0.00147291 0.01661166 0.01021191 0.00203153 0.00619509 0.00123141 
0.11510190 0.02159577 0.00686112 0.00271902 0.00070696 0.00202301 0.00831414 0.00892795 0.03362646 0.00190297 0.00149161 0.01706743 0.01007060 0.00205486 0.00621357 0.00123134 
0.11529727 0.02167640 0.00682986 0.00277178 0.00070366 0.00199809 0.00834281 0.00927511 0.03334401 0.00191567 0.00151060 0.01752094 0.00993731 0.00207781 0.00622471 0.00123137 
0.11528195 0.02175883 0.00680809 0.00282323 0.00070019 0.00197381 0.00837304 0.00963793 0.03303872 0.00192868 0.00152983 0.01796997 0.00981260 0.00210025 0.00622853 0.00123150 
0.11506078 0.02184367 0.00679496 0.00287315 0.00069650 0.00195032 0.00840467 0.01001530 0.03271203 0.00194194 0.00154927 0.01841238 0.00969701 0.00212202 0.00622505 0.00123172 
0.11463969 0.02193160 0.00678954 0.00292132 0.00069256 0.00192776 0.00843752 0.01040605 0.03236548 0.00195537 0.00156886 0.01884604 0.00959101 0.00214299 0.00621437 0.00123202 
0.11402562 0.02202341 0.00679091 0.00296755 0.00068835 0.00190625 0.00847136 0.01080887 0.03200072 0.00196891 0.00158856 0.01926895 0.00949505 0.00216305 0.00619659 0.00123240 
0.11322655 0.02211997 0.00679811 0.00301164 0.00068381 0.00188593 0.00850597 0.01122242 0.03161947 0.00198249 0.00160833 0.01967915 0.00940952 0.00218207 0.00617189 0.00123284 
0.11225137 0.02222219 0.00681017 0.00305342 0.00067893 0.00186693 0.00854111 0.01164525 0.03122352 0.00199606 0.00162812 0.02007478 0.00933476 0.00219993 0.00614045 0.00123335 
0.11110986 0.02233111 0.00682614 0.00309273 0.00067366 0.00184937 0.00857649 0.01207585 0.03081476 0.00200953 0.00164786 0.02045410 0.00927104 0.00221654 0.00610251 0.00123390 
0.10981264 0.02244778 0.00684503 0.00312943 0.00066798 0.00183337 0.00861186 0.01251263 0.03039510 0.00202286 0.00166753 0.02081548 0.00921860 0.00223181 0.00605835 0.00123450 
0.10837106 0.02257334 0.00686589 0.00316337 0.00066186 0.00181904 0.00864691 0.01295398 0.02996653 0.00203597 0.00168706 0.02115738 0.00917762 0.00224564 0.00600825 0.00123514 
0.10679719 0.02270895 0.00688779 0.00319446 0.00065528 0.00180649 0.00868136 0.01339822 0.02953106 0.00204882 0.00170640 0.02147841 0.00914820 0.00225798 0.00595256 0.00123581 
0.10510368 0.02285583 0.00690980 0.00322259 0.00064821 0.00179581 0.00871488 0.01384365 0.02909074 0.00206134 0.00172549 0.02177733 0.00913040 0.00226874 0.00589164 0.00123650 
0.10330372 0.02301521 0.00693104 0.00324769 0.00064065 0.00178709 0.00874718 0.01428852 0.02864763 0.00207349 0.00174429 0.02205302 0.00912422 0.00227789 0.00582589 0.00123721 
0.10141095 0.02318832 0.00695066 0.00326970 0.00063257 0.00178043 0.00877794 0.01473110 0.02820381 0.00208522 0.00176275 0.02230450 0.00912958 0.00228538 0.00575572 0.00123793 
0.09943937 0.02337643 0.00696786 0.00328857 0.00062396 0.00177589 0.00880686 0.01516964 0.02776135 0.00209648 0.00178080 0.02253097 0.00914636 0.00229119 0.00568159 0.00123865 
0.09740325 0.02358075 0.00698186 0.00330428 0.00061482 0.00177354 0.00883364 0.01560237 0.02732229 0.00210723 0.00179840 0.02273177 0.00917437 0.00229530 0.00560395 0.00123937 
0.09531707 0.02380251 0.00699195 0.00331683 0.00060514 0.00177344 0.00885798 0.01602758 0.02688867 0.00211743 0.00181550 0.02290639 0.00921336 0.00229770 0.00552330 0.00124008 
0.09319536 0.02404288 0.00699749 0.00332622 0.00059493 0.00177564 0.00887960 0.01644355 0.02646248 0.00212706 0.00183205 0.02305451 0.00926302 0.00229840 0.00544012 0.00124078 
0.09105271 0.02430299 0.00699788 0.00333251 0.00058419 0.00178017 0.00889824 0.01684861 0.02604565 0.00213608 0.00184800 0.02317594 0.00932300 0.00229742 0.00535493 0.00124146 
0.08890358 0.02458390 0.00699258 0.00333572 0.00057293 0.00178707 0.00891366 0.01724113 0.02564008 0.00214447 0.00186331 0.02327069 0.00939287 0.00229479 0.00526825 0.00124212 
0.08676228 0.02488661 0.00698113 0.00333593 0.00056116 0.00179635 0.00892563 0.01761955 0.02524759 0.00215222 0.00187793 0.02333890 0.00947215 0.00229056 0.00518060 0.00124275 
0.08464286 0.02521202 0.00696314 0.00333321 0.00054891 0.00180803 0.00893394 0.01798234 0.02486990 0.00215932 0.00189183 0.02338088 0.00956032 0.00228476 0.00509251 0.00124336 
0.08255900 0.02556094 0.00693827 0.00332768 0.00053618 0.00182210 0.00893844 0.01832808 0.02450867 0.00216576 0.00190496 0.02339712 0.00965680 0.00227746 0.00500452 0.00124394 
0.08052397 0.02593406 0.00690628 0.00331944 0.00052302 0.00183855 0.00893896 0.01865540 0.02416545 0.00217153 0.00191730 0.02338825 0.00976098 0.00226874 0.00491713 0.00124448 
0.07855052 0.02633196 0.00686697 0.00330861 0.00050945 0.00185737 0.00893541 0.01896304 0.02384168 0.00217665 0.00192881 0.02335504 0.00987220 0.00225867 0.00483088 0.00124499 
0.07665079 0.02675507 0.00682023 0.00329535 0.00049551 0.00187853 0.00892770 0.01924982 0.02353869 0.00218112 0.00193947 0.02329844 0.00998975 0.00224735 0.00474626 0.00124546 
0.07483629 0.02720370 0.00676604 0.00327979 0.00048123 0.00190197 0.00891580 0.01951468 0.02325769 0.00218496 0.00194926 0.02321950 0.01011290 0.00223486 0.00466376 0.00124590 
0.07311775 0.02767798 0.00670441 0.00326211 0.00046666 0.00192766 0.00889970 0.01975666 0.02299975 0.00218820 0.00195816 0.02311944 0.01024089 0.00222131 0.00458387 0.00124629 
0.07150514 0.02817791 0.00663546 0.00324248 0.00045184 0.00195554 0.00887945 0.01997490 0.02276582 0.00219085 0.00196615 0.02299958 0.01037292 0.00220682 0.00450705 0.00124666 
0.07000755 0.02870329 0.00655935 0.00322107 0.00043682 0.00198553 0.00885513 0.02016866 0.02255669 0.00219296 0.00197324 0.02286137 0.01050818 0.00219149 0.00443371 0.00124698 
0.06863316 0.02925379 0.00647633 0.00319808 0.00042166 0.00201757 0.00882685 0.02033736 0.02237303 0.00219456 0.00197941 0.02270637 0.01064585 0.00217544 0.00436428 0.00124728 
0.06738920 0.02982887 0.00638669 0.00317370 0.00040640 0.00205156 0.00879479 0.02048049 0.02221533 0.00219568 0.00198467 0.02253623 0.01078508 0.00215880 0.00429914 0.00124754 
0.06628189 0.03042780 0.00629080 0.00314812 0.00039112 0.00208741 0.00875915 0.02059769 0.02208396 0.00219639 0.00198903 0.02235270 0.01092503 0.00214169 0.00423864 0.00124777 
0.06531642 0.03104971 0.00618907 0.00312156 0.00037586 0.00212502 0.00872017 0.02068874 0.02197911 0.00219673 0.00199250 0.02215759 0.01106485 0.00212424 0.00418310 0.00124797 
0.06449691 0.03169351 0.00608199 0.00309420 0.00036068 0.00216429 0.00867816 0.02075353 0.02190083 0.00219676 0.00199509 0.02195280 0.01120370 0.00210658 0.00413281 0.00124815 
0.06382641 0.03235794 0.00597007 0.00306626 0.00034566 0.00220509 0.00863345 0.02079209 0.02184902 0.00219654 0.00199684 0.02174027 0.01134075 0.00208883 0.00408802 0.00124830 
0.06330687 0.03304155 0.00585389 0.00303794 0.00033085 0.00224731 0.00858641 0.02080455 0.02182340 0.00219612 0.00199778 0.02152197 0.01147517 0.00207113 0.00404894 0.00124843 
0.06293913 0.03374274 0.00573406 0.00300943 0.00031633 0.00229082 0.00853745 0.02079120 0.02182357 0.00219558 0.00199793 0.02129992 0.01160616 0.00205360 0.00401576 0.00124855 
0.06272294 0.03445969 0.00561122 0.00298093 0.00030214 0.00233548 0.00848703 0.02075242 0.02184896 0.00219498 0.00199733 0.02107615 0.01173296 0.00203636 0.00398861 0.00124866 
0.06265695 0.03519047 0.00548605 0.00295264 0.00028837 0.00238116 0.00843562 0.02068872 0.02189886 0.00219439 0.00199604 0.02085269 0.01185481 0.00201953 0.00396760 0.00124876 
0.06273875 0.03593296 0.00535926 0.00292473 0.00027507 0.00242772 0.00838376 0.02060073 0.02197243 0.00219389 0.00199410 0.02063157 0.01197100 0.00200324 0.00395278 0.00124886 
0.06296486 0.03668489 0.00523159 0.00289739 0.00026230 0.00247501 0.00833198 0.02048917 0.02206867 0.00219355 0.00199157 0.02041480 0.01208086 0.00198759 0.00394417 0.00124895 
0.06333077 0.03744387 0.00510377 0.00287078 0.00025014 0.00252289 0.00828085 0.02035486 0.02218648 0.00219343 0.00198850 0.02020434 0.01218377 0.00197269 0.00394176 0.00124906 
0.06383102 0.03820739 0.00497656 0.00284507 0.00023864 0.00257119 0.00823098 0.02019874 0.02232462 0.00219363 0.00198495 0.02000212 0.01227914 0.00195864 0.00394548 0.00124917 
0.06445917 0.03897281 0.00485074 0.00282041 0.00022785 0.00261979 0.00818298 0.02002180 0.02248174 0.00219420 0.00198100 0.01981001 0.01236643 0.00194554 0.00395525 0.00124929 
0.06520791 0.03973742 0.00472706 0.00279693 0.00021784 0.00266851 0.00813747 0.01982514 0.02265639 0.00219522 0.00197671 0.01962981 0.01244518 0.00193346 0.00397092 0.00124943 
0.06606907 0.04049841 0.00460629 0.00277477 0.00020867 0.00271721 0.00809511 0.01960993 0.02284701 0.00219676 0.00197215 0.01946323 0.01251497 0.00192249 0.00399232 0.00124960 
0.06703373 0.04125292 0.00448918 0.00275404 0.00020037 0.00276573 0.00805655 0.01937737 0.02305197 0.00219888 0.00196741 0.01931192 0.01257544 0.00191271 0.00401925 0.00124979 
0.06809223 0.04199805 0.00437648 0.00273484 0.00019300 0.00281393 0.00802242 0.01912876 0.02326957 0.00220167 0.00196254 0.01917739 0.01262629 0.00190416 0.00405147 0.00125002 
0.06923429 0.04273087 0.00426891 0.00271728 0.00018660 0.00286165 0.00799340 0.01886540 0.02349802 0.00220517 0.00195764 0.01906107 0.01266730 0.00189692 0.00408871 0.00125027 
0.07044904 0.04344845 0.00416718 0.00270142 0.00018121 0.00290875 0.00797012 0.01858867 0.02373550 0.00220945 0.00195277 0.01896426 0.01269830 0.00189101 0.00413067 0.00125057 
0.07172516 0.04414787 0.00407197 0.00268734 0.00017687 0.00295508 0.00795321 0.01829994 0.02398014 0.00221457 0.00194803 0.01888812 0.01271920 0.00188648 0.00417702 0.00125091 
0.07305087 0.04482627 0.00398391 0.00267508 0.00017361 0.00300051 0.00794330 0.01800063 0.02423004 0.00222057 0.00194348 0.01883370 0.01272996 0.00188336 0.00422741 0.00125130 
0.07441411 0.04548082 0.00390364 0.00266468 0.00017145 0.00304489 0.00794099 0.01769213 0.02448329 0.00222750 0.00193921 0.01880190 0.01273064 0.00188166 0.00428147 0.00125174 
0.07580255 0.04610880 0.00383172 0.00265617 0.00017041 0.00308811 0.00794686 0.01737587 0.02473798 0.00223540 0.00193529 0.01879347 0.01272134 0.00188139 0.00433879 0.00125223 
0.07720373 0.04670755 0.00376870 0.00264957 0.00017052 0.00313002 0.00796145 0.01705323 0.02499220 0.00224431 0.00193180 0.01880903 0.01270223 0.00188254 0.00439898 0.00125277 
0.07860510 0.04727458 0.00371506 0.00264487 0.00017178 0.00317052 0.00798528 0.01672562 0.02524406 0.00225426 0.00192880 0.01884901 0.01267356 0.00188512 0.00446160 0.00125338 
0.07999417 0.04780751 0.00367126 0.00264207 0.00017419 0.00320948 0.00801883 0.01639437 0.02549169 0.00226527 0.00192638 0.01891373 0.01263563 0.00188909 0.00452623 0.00125405 
0.08135851 0.04830413 0.00363771 0.00264114 0.00017777 0.00324682 0.00806254 0.01606082 0.02573331 0.00227736 0.00192459 0.01900332 0.01258881 0.00189443 0.00459242 0.00125478 
0.08268594 0.04876243 0.00361475 0.00264205 0.00018250 0.00328242 0.00811680 0.01572625 0.02596714 0.00229053 0.00192349 0.01911777 0.01253354 0.00190112 0.00465971 0.00125558 
0.08396452 0.04918059 0.00360268 0.00264475 0.00018837 0.00331621 0.00818197 0.01539188 0.02619151 0.00230479 0.00192315 0.01925690 0.01247028 0.00190909 0.00472767 0.00125645 
0.08518270 0.04955700 0.00360176 0.00264920 0.00019537 0.00334809 0.00825833 0.01505889 0.02640480 0.00232014 0.00192361 0.01942038 0.01239959 0.00191830 0.00479584 0.00125738 
0.08632936 0.04989030 0.00361217 0.00265533 0.00020348 0.00337801 0.00834614 0.01472840 0.02660550 0.00233656 0.00192493 0.01960774 0.01232204 0.00192870 0.00486378 0.00125839 
0.08739390 0.05017937 0.00363407 0.00266307 0.00021268 0.00340589 0.00844559 0.01440146 0.02679219 0.00235403 0.00192713 0.01981835 0.01223827 0.00194022 0.00493106 0.00125946 
0.08836632 0.05042337 0.00366754 0.00267236 0.00022293 0.00343170 0.00855681 0.01407904 0.02696356 0.00237253 0.00193027 0.02005143 0.01214894 0.00195278 0.00499723 0.00126061 
0.08923727 0.05062173 0.00371261 0.00268310 0.00023419 0.00345538 0.00867987 0.01376205 0.02711841 0.00239203 0.00193436 0.02030607 0.01205478 0.00196632 0.00506190 0.00126183 
0.08999816 0.05077417 0.00376926 0.00269522 0.00024644 0.00347690 0.00881479 0.01345132 0.02725567 0.00241247 0.00193943 0.02058121 0.01195650 0.00198074 0.00512466 0.00126313 
0.09064113 0.05088069 0.00383743 0.00270861 0.00025961 0.00349625 0.00896153 0.01314759 0.02737438 0.00243382 0.00194548 0.02087570 0.01185488 0.00199597 0.00518512 0.00126449 
0.09115921 0.05094162 0.00391697 0.00272320 0.00027368 0.00351341 0.00911997 0.01285153 0.02747376 0.00245601 0.00195254 0.02118823 0.01175070 0.00201192 0.00524294 0.00126592 
0.09154630 0.05095759 0.00400773 0.00273887 0.00028857 0.00352839 0.00928995 0.01256373 0.02755311 0.00247899 0.00196059 0.02151741 0.01164474 0.00202849 0.00529776 0.00126743 
0.09179720 0.05092952 0.00410947 0.00275555 0.00030425 0.00354120 0.00947125 0.01228467 0.02761193 0.00250268 0.00196964 0.02186173 0.01153783 0.00204559 0.00534927 0.00126900 
0.09190772 0.05085868 0.00422192 0.00277312 0.00032063 0.00355186 0.00966357 0.01201479 0.02764983 0.00252701 0.00197965 0.02221960 0.01143075 0.00206312 0.00539719 0.00127064 
0.09187464 0.05074662 0.00434477 0.00279149 0.00033768 0.00356041 0.00986658 0.01175443 0.02766657 0.00255190 0.00199062 0.02258934 0.01132432 0.00208099 0.00544125 0.00127234 
0.09169574 0.05059521 0.00447765 0.00281057 0.00035532 0.00356688 0.01007986 0.01150383 0.02766209 0.00257725 0.00200250 0.02296922 0.01121933 0.00209910 0.00548121 0.00127410 
0.09136985 0.05040661 0.00462016 0.00283027 0.00037347 0.00357134 0.01030298 0.01126319 0.02763645 0.00260298 0.00201527 0.02335742 0.01111654 0.00211735 0.00551689 0.00127592 
0.09089683 0.05018329 0.00477187 0.00285048 0.00039209 0.00357384 0.01053541 0.01103261 0.02758985 0.00262898 0.00202886 0.02375210 0.01101672 0.00213565 0.00554810 0.00127780 
0.09027759 0.04992799 0.00493230 0.00287114 0.00041108 0.00357446 0.01077661 0.01081214 0.02752267 0.00265516 0.00204325 0.02415136 0.01092060 0.00215390 0.00557470 0.00127973 
0.08951407 0.04964372 0.00510094 0.00289215 0.00043039 0.00357330 0.01102597 0.01060175 0.02743540 0.00268141 0.00205835 0.02455330 0.01082887 0.00217201 0.00559659 0.00128171 
0.08860921 0.04933375 0.00527726 0.00291343 0.00044993 0.00357043 0.01128285 0.01040137 0.02732867 0.00270761 0.00207411 0.02495600 0.01074218 0.00218990 0.00561368 0.00128373 
0.08756697 0.04900159 0.00546070 0.00293491 0.00046964 0.00356596 0.01154657 0.01021084 0.02720327 0.00273365 0.00209045 0.02535753 0.01066115 0.00220747 0.00562595 0.00128579 
0.08639231 0.04865095 0.00565069 0.00295653 0.00048944 0.00356001 0.01181641 0.01002998 0.02706008 0.00275943 0.00210730 0.02575597 0.01058635 0.00222465 0.00563336 0.00128788 
0.08509109 0.04828577 0.00584661 0.00297822 0.00050926 0.00355268 0.01209163 0.00985857 0.02690012 0.00278481 0.00212456 0.02614945 0.01051830 0.00224136 0.00563596 0.00129000 
0.08367010 0.04791014 0.00604786 0.00299992 0.00052903 0.00354412 0.01237146 0.00969632 0.02672451 0.00280969 0.00214217 0.02653610 0.01045745 0.00225753 0.00563377 0.00129215 
0.08213699 0.04752831 0.00625380 0.00302159 0.00054867 0.00353443 0.01265511 0.00954294 0.02653449 0.00283394 0.00216001 0.02691412 0.01040419 0.00227309 0.00562689 0.00129431 
0.08050024 0.04714467 0.00646382 0.00304317 0.00056812 0.00352377 0.01294176 0.00939811 0.02633136 0.00285744 0.00217799 0.02728175 0.01035888 0.00228797 0.00561543 0.00129649 
0.07876905 0.04676370 0.00667725 0.00306464 0.00058730 0.00351228 0.01323059 0.00926148 0.02611654 0.00288009 0.00219602 0.02763731 0.01032177 0.00230214 0.00559951 0.00129867 
0.07695334 0.04638994 0.00689347 0.00308595 0.00060616 0.00350010 0.01352078 0.00913270 0.02589151 0.00290175 0.00221399 0.02797920 0.01029307 0.00231553 0.00557931 0.00130084 
0.07506368 0.04602800 0.00711184 0.00310707 0.00062463 0.00348737 0.01381150 0.00901140 0.02565779 0.00292232 0.00223180 0.02830587 0.01027291 0.00232811 0.00555500 0.00130301 
0.07311118 0.04568248 0.00733173 0.00312800 0.00064264 0.00347426 0.01410191 0.00889722 0.02541698 0.00294169 0.00224933 0.02861592 0.01026136 0.00233984 0.00552679 0.00130516 
0.07110744 0.04535797 0.00755250 0.00314870 0.00066015 0.00346092 0.01439120 0.00878982 0.02517071 0.00295975 0.00226650 0.02890800 0.01025841 0.00235069 0.00549492 0.00130729 
0.06906451 0.04505901 0.00777356 0.00316916 0.00067709 0.00344750 0.01467855 0.00868884 0.02492064 0.00297639 0.00228317 0.02918090 0.01026396 0.00236064 0.00545963 0.00130939 
0.06699476 0.04479007 0.00799430 0.00318938 0.00069342 0.00343415 0.01496317 0.00859398 0.02466843 0.00299152 0.00229926 0.02943352 0.01027788 0.00236968 0.00542119 0.00131145 
0.06491083 0.04455550 0.00821414 0.00320935 0.00070909 0.00342103 0.01524427 0.00850493 0.02441577 0.00300503 0.00231466 0.02966487 0.01029993 0.00237780 0.00537985 0.00131346 
0.06282553 0.04435951 0.00843252 0.00322907 0.00072406 0.00340829 0.01552112 0.00842142 0.02416432 0.00301686 0.00232925 0.02987410 0.01032982 0.00238500 0.00533593 0.00131542 
0.06075180 0.04420615 0.00864891 0.00324853 0.00073828 0.00339607 0.01579297 0.00834321 0.02391573 0.00302690 0.00234295 0.03006048 0.01036718 0.00239128 0.00528970 0.00131732 
0.05870256 0.04409925 0.00886280 0.00326774 0.00075173 0.00338453 0.01605913 0.00827011 0.02367162 0.00303509 0.00235566 0.03022341 0.01041160 0.00239666 0.00524148 0.00131914 
0.05669069 0.04404241 0.00907369 0.00328670 0.00076437 0.00337380 0.01631893 0.00820196 0.02343357 0.00304136 0.00236727 0.03036243 0.01046257 0.00240115 0.00519157 0.00132089 
0.05472893 0.04403899 0.00928113 0.00330541 0.00077618 0.00336401 0.01657175 0.00813864 0.02320311 0.00304565 0.00237770 0.03047722 0.01051955 0.00240477 0.00514028 0.00132255 
0.05282977 0.04409205 0.00948468 0.00332388 0.00078714 0.00335529 0.01681699 0.00808009 0.02298169 0.00304791 0.00238687 0.03056757 0.01058193 0.00240757 0.00508791 0.00132412 
0.05100542 0.04420435 0.00968397 0.00334210 0.00079723 0.00334776 0.01705410 0.00802627 0.02277070 0.00304810 0.00239469 0.03063345 0.01064904 0.00240956 0.00503477 0.00132559 
0.04926769 0.04437830 0.00987860 0.00336009 0.00080644 0.00334153 0.01728256 0.00797723 0.02257145 0.00304618 0.00240110 0.03067492 0.01072020 0.00241079 0.00498116 0.00132695 
0.04762793 0.04461597 0.01006826 0.00337783 0.00081476 0.00333671 0.01750191 0.00793302 0.02238517 0.00304214 0.00240602 0.03069219 0.01079463 0.00241131 0.00492737 0.00132820 
0.04609700 0.04491905 0.01025263 0.00339533 0.00082219 0.00333338 0.01771172 0.00789378 0.02221296 0.00303595 0.00240939 0.03068560 0.01087157 0.00241115 0.00487368 0.00132932 
0.04468512 0.04528882 0.01043146 0.00341258 0.00082874 0.00333163 0.01791160 0.00785968 0.02205584 0.00302761 0.00241116 0.03065561 0.01095020 0.00241036 0.00482037 0.00133031 
0.04340187 0.04572619 0.01060451 0.00342956 0.00083441 0.00333152 0.01810122 0.00783094 0.02191472 0.00301713 0.00241129 0.03060279 0.01102966 0.00240901 0.00476768 0.00133117 
0.04225611 0.04623162 0.01077156 0.00344628 0.00083920 0.00333312 0.01828027 0.00780783 0.02179037 0.00300453 0.00240973 0.03052784 0.01110910 0.00240713 0.00471587 0.00133189 
0.04125593 0.04680515 0.01093246 0.00346269 0.00084314 0.00333647 0.01844851 0.00779065 0.02168348 0.00298982 0.00240645 0.03043155 0.01118764 0.00240479 0.00466516 0.00133247 
0.04040859 0.04744638 0.01108707 0.00347880 0.00084625 0.00334161 0.01860572 0.00777975 0.02159456 0.00297305 0.00240143 0.03031484 0.01126440 0.00240204 0.00461575 0.00133289 
0.03972049 0.04815447 0.01123526 0.00349456 0.00084855 0.00334855 0.01875174 0.00777553 0.02152405 0.00295426 0.00239466 0.03017868 0.01133848 0.00239893 0.00456784 0.00133317 
0.03919711 0.04892813 0.01137697 0.00350995 0.00085006 0.00335731 0.01888642 0.00777839 0.02147221 0.00293350 0.00238613 0.03002417 0.01140902 0.00239553 0.00452159 0.00133328 
0.03884299 0.04976564 0.01151214 0.00352494 0.00085081 0.00336787 0.01900967 0.00778879 0.02143920 0.00291085 0.00237584 0.02985245 0.01147514 0.00239188 0.00447716 0.00133324 
0.03866171 0.05066482 0.01164074 0.00353947 0.00085085 0.00338022 0.01912145 0.00780719 0.02142505 0.00288637 0.00236380 0.02966475 0.01153599 0.00238804 0.00443467 0.00133304 
0.03865585 0.05162310 0.01176278 0.00355351 0.00085019 0.00339432 0.01922172 0.00783409 0.02142964 0.00286015 0.00235003 0.02946237 0.01159075 0.00238406 0.00439424 0.00133267 
0.03882698 0.05263744 0.01187826 0.00356701 0.00084889 0.00341013 0.01931050 0.00786998 0.02145274 0.00283228 0.00233456 0.02924663 0.01163861 0.00237998 0.00435594 0.00133214 
0.03917565 0.05370443 0.01198723 0.00357991 0.00084699 0.00342757 0.01938781 0.00791537 0.02149398 0.00280287 0.00231741 0.02901892 0.01167882 0.00237586 0.00431983 0.00133145 
0.03970141 0.05482024 0.01208975 0.00359215 0.00084452 0.00344659 0.01945373 0.00797077 0.02155289 0.00277201 0.00229864 0.02878064 0.01171066 0.00237173 0.00428597 0.00133060 
0.04040275 0.05598069 0.01218590 0.00360368 0.00084154 0.00346709 0.01950835 0.00803669 0.02162887 0.00273983 0.00227830 0.02853323 0.01173347 0.00236763 0.00425437 0.00132959 
0.04127718 0.05718124 0.01227574 0.00361442 0.00083808 0.00348897 0.01955178 0.00811361 0.02172119 0.00270646 0.00225643 0.02827814 0.01174662 0.00236360 0.00422504 0.00132842 
0.04232122 0.05841701 0.01235940 0.00362432 0.00083420 0.00351212 0.01958415 0.00820201 0.02182906 0.00267201 0.00223310 0.02801681 0.01174955 0.00235966 0.00419795 0.00132711 
0.04353038 0.05968284 0.01243697 0.00363330 0.00082995 0.00353642 0.01960562 0.00830235 0.02195153 0.00263663 0.00220839 0.02775069 0.01174178 0.00235585 0.00417307 0.00132564 
0.04489926 0.06097328 0.01250857 0.00364130 0.00082537 0.00356173 0.01961634 0.00841503 0.02208762 0.00260045 0.00218236 0.02748121 0.01172286 0.00235217 0.00415034 0.00132404 
0.04642151 0.06228264 0.01257432 0.00364824 0.00082051 0.00358791 0.01961651 0.00854045 0.02223621 0.00256363 0.00215511 0.02720978 0.01169244 0.00234865 0.00412969 0.00132230 
0.04808991 0.06360504 0.01263433 0.00365406 0.00081543 0.00361481 0.01960631 0.00867895 0.02239614 0.00252630 0.00212672 0.02693777 0.01165024 0.00234529 0.00411104 0.00132043 
0.04989642 0.06493439 0.01268873 0.00365869 0.00081017 0.00364226 0.01958595 0.00883082 0.02256617 0.00248863 0.00209728 0.02666653 0.01159603 0.00234210 0.00409429 0.00131844 
0.05183218 0.06626450 0.01273764 0.00366207 0.00080479 0.00367011 0.01955563 0.00899629 0.02274499 0.00245076 0.00206688 0.02639732 0.01152970 0.00233908 0.00407932 0.00131634 
0.05388760 0.06758906 0.01278117 0.00366412 0.00079932 0.00369817 0.01951557 0.00917555 0.02293126 0.00241285 0.00203564 0.02613140 0.01145118 0.00233622 0.00406602 0.00131414 
0.05605240 0.06890169 0.01281943 0.00366480 0.00079381 0.00372627 0.01946600 0.00936871 0.02312358 0.00237506 0.00200364 0.02586993 0.01136051 0.00233352 0.00405425 0.00131185 
0.05831569 0.07019600 0.01285252 0.00366405 0.00078832 0.00375423 0.01940714 0.00957582 0.02332054 0.00233755 0.00197101 0.02561401 0.01125780 0.00233096 0.00404386 0.00130948 
0.06066600 0.07146563 0.01288054 0.00366182 0.00078287 0.00378187 0.01933923 0.00979686 0.02352069 0.00230047 0.00193784 0.02536468 0.01114325 0.00232852 0.00403473 0.00130704 
0.06309135 0.07270424 0.01290356 0.00365806 0.00077752 0.00380899 0.01926249 0.01003172 0.02372258 0.00226397 0.00190426 0.02512288 0.01101713 0.00232617 0.00402671 0.00130455 
0.06557935 0.07390562 0.01292167 0.00365274 0.00077231 0.00383541 0.01917717 0.01028023 0.02392477 0.00222821 0.00187036 0.02488949 0.01087980 0.00232389 0.00401963 0.00130201 
0.06811723 0.07506369 0.01293491 0.00364584 0.00076726 0.00386096 0.01908350 0.01054213 0.02412580 0.00219333 0.00183627 0.02466528 0.01073170 0.00232165 0.00401336 0.00129945 
0.07069195 0.07617254 0.01294335 0.00363734 0.00076242 0.00388545 0.01898173 0.01081707 0.02432425 0.00215949 0.00180209 0.02445096 0.01057335 0.00231942 0.00400775 0.00129686 
0.07329023 0.07722648 0.01294700 0.00362722 0.00075781 0.00390870 0.01887211 0.01110463 0.02451874 0.00212683 0.00176794 0.02424713 0.01040533 0.00231715 0.00400266 0.00129428 
0.07589865 0.07822009 0.01294591 0.00361548 0.00075347 0.00393054 0.01875488 0.01140430 0.02470790 0.00209547 0.00173393 0.02405428 0.01022833 0.00231482 0.00399793 0.00129171 
0.07850372 0.07914822 0.01294006 0.00360214 0.00074941 0.00395082 0.01863031 0.01171548 0.02489043 0.00206556 0.00170017 0.02387284 0.01004307 0.00231237 0.00399346 0.00128916 
0.08109197 0.08000605 0.01292947 0.00358722 0.00074568 0.00396936 0.01849865 0.01203750 0.02506507 0.00203722 0.00166677 0.02370312 0.00985036 0.00230978 0.00398910 0.00128666 
0.08364996 0.08078913 0.01291411 0.00357075 0.00074227 0.00398603 0.01836017 0.01236959 0.02523063 0.00201056 0.00163384 0.02354535 0.00965105 0.00230699 0.00398475 0.00128421 
0.08616445 0.08149339 0.01289396 0.00355277 0.00073922 0.00400070 0.01821516 0.01271093 0.02538600 0.00198570 0.00160148 0.02339966 0.00944608 0.00230397 0.00398030 0.00128183 
0.08862237 0.08211518 0.01286899 0.00353333 0.00073653 0.00401322 0.01806389 0.01306058 0.02553014 0.00196274 0.00156979 0.02326609 0.00923641 0.00230068 0.00397565 0.00127954 
0.09101097 0.08265130 0.01283915 0.00351251 0.00073422 0.00402349 0.01790666 0.01341756 0.02566209 0.00194177 0.00153887 0.02314458 0.00902307 0.00229708 0.00397074 0.00127734 
0.09331784 0.08309901 0.01280438 0.00349038 0.00073229 0.00403142 0.01774378 0.01378081 0.02578101 0.00192288 0.00150881 0.02303500 0.00880711 0.00229313 0.00396548 0.00127525 
0.09553097 0.08345607 0.01276464 0.00346703 0.00073075 0.00403691 0.01757558 0.01414920 0.02588613 0.00190614 0.00147971 0.02293713 0.00858963 0.00228880 0.00395984 0.00127329 
0.09763885 0.08372075 0.01271985 0.00344257 0.00072960 0.00403989 0.01740239 0.01452154 0.02597679 0.00189163 0.00145165 0.02285067 0.00837177 0.00228406 0.00395377 0.00127146 
0.09963049 0.08389182 0.01266996 0.00341709 0.00072884 0.00404030 0.01722457 0.01489659 0.02605244 0.00187940 0.00142472 0.02277525 0.00815466 0.00227888 0.00394724 0.00126979 
0.10149550 0.08396861 0.01261491 0.00339072 0.00072846 0.00403812 0.01704248 0.01527306 0.02611264 0.00186950 0.00139898 0.02271041 0.00793948 0.00227323 0.00394026 0.00126827 
0.10322412 0.08395097 0.01255463 0.00336360 0.00072847 0.00403330 0.01685651 0.01564962 0.02615707 0.00186196 0.00137451 0.02265566 0.00772740 0.00226711 0.00393283 0.00126692 
0.10480728 0.08383931 0.01248908 0.00333586 0.00072884 0.00402585 0.01666708 0.01602489 0.02618552 0.00185682 0.00135139 0.02261042 0.00751960 0.00226048 0.00392498 0.00126575 
0.10623664 0.08363457 0.01241820 0.00330765 0.00072958 0.00401578 0.01647461 0.01639748 0.02619790 0.00185409 0.00132966 0.02257408 0.00731725 0.00225336 0.00391673 0.00126478 
0.10750461 0.08333826 0.01234196 0.00327913 0.00073066 0.00400311 0.01627955 0.01676597 0.02619423 0.00185378 0.00130940 0.02254596 0.00712153 0.00224572 0.00390816 0.00126399 
0.10860442 0.08295238 0.01226033 0.00325046 0.00073207 0.00398788 0.01608237 0.01712892 0.02617466 0.00185589 0.00129064 0.02252537 0.00693358 0.00223759 0.00389931 0.00126341 
0.10953010 0.08247951 0.01217330 0.00322180 0.00073379 0.00397016 0.01588356 0.01748491 0.02613945 0.00186039 0.00127344 0.02251155 0.00675452 0.00222896 0.00389029 0.00126304 
0.11027655 0.08192271 0.01208088 0.00319333 0.00073581 0.00395002 0.01568363 0.01783249 0.02608899 0.00186728 0.00125784 0.02250375 0.00658545 0.00221985 0.00388117 0.00126288 
0.11083954 0.08128555 0.01198310 0.00316522 0.00073810 0.00392756 0.01548313 0.01817024 0.02602377 0.00187651 0.00124387 0.02250118 0.00642744 0.00221030 0.00387206 0.00126294 
0.11121569 0.08057207 0.01188001 0.00313765 0.00074064 0.00390288 0.01528259 0.01849676 0.02594440 0.00188805 0.00123156 0.02250304 0.00628149 0.00220032 0.00386308 0.00126322 
0.11140255 0.07978676 0.01177167 0.00311080 0.00074341 0.00387610 0.01508260 0.01881069 0.02585159 0.00190183 0.00122093 0.02250852 0.00614858 0.00218996 0.00385436 0.00126371 
0.11139854 0.07893456 0.01165818 0.00308483 0.00074639 0.00384737 0.01488374 0.01911067 0.02574617 0.00191781 0.00121202 0.02251683 0.00602962 0.00217926 0.00384603 0.00126443 
0.11120296 0.07802077 0.01153967 0.00305994 0.00074955 0.00381682 0.01468662 0.01939542 0.02562906 0.00193591 0.00120482 0.02252717 0.00592548 0.00216826 0.00383823 0.00126536 
0.11081603 0.07705110 0.01141628 0.00303629 0.00075286 0.00378463 0.01449185 0.01966369 0.02550127 0.00195605 0.00119935 0.02253875 0.00583694 0.00215704 0.00383110 0.00126651 
0.11023882 0.07603156 0.01128821 0.00301404 0.00075631 0.00375095 0.01430008 0.01991430 0.02536392 0.00197815 0.00119561 0.02255083 0.00576472 0.00214565 0.00382480 0.00126786 
0.10947326 0.07496846 0.01115567 0.00299337 0.00075987 0.00371599 0.01411195 0.02014615 0.02521818 0.00200212 0.00119360 0.02256266 0.00570949 0.00213416 0.00381947 0.00126943 
0.10852213 0.07386838 0.01101890 0.00297441 0.00076351 0.00367992 0.01392809 0.02035818 0.02506534 0.00202786 0.00119331 0.02257355 0.00567182 0.00212264 0.00381528 0.00127119 
0.10738903 0.07273811 0.01087818 0.00295733 0.00076721 0.00364294 0.01374917 0.02054944 0.02490672 0.00205525 0.00119475 0.02258283 0.00565220 0.00211119 0.00381237 0.00127314 
0.10607834 0.07158461 0.01073382 0.00294225 0.00077095 0.00360527 0.01357583 0.02071906 0.02474373 0.00208420 0.00119788 0.02258989 0.00565105 0.00209987 0.00381089 0.00127528 
0.10459519 0.07041497 0.01058617 0.00292930 0.00077471 0.00356710 0.01340873 0.02086624 0.02457781 0.00211458 0.00120269 0.02259416 0.00566869 0.00208879 0.00381098 0.00127759 
0.10294546 0.06923638 0.01043560 0.00291860 0.00077846 0.00352865 0.01324851 0.02099032 0.02441046 0.00214628 0.00120917 0.02259511 0.00570537 0.00207804 0.00381280 0.00128006 
0.10113570 0.06805606 0.01028252 0.00291024 0.00078218 0.00349013 0.01309580 0.02109071 0.02424323 0.00217917 0.00121727 0.02259230 0.00576123 0.00206771 0.00381646 0.00128268 
0.09917310 0.06688122 0.01012737 0.00290432 0.00078585 0.00345177 0.01295121 0.02116693 0.02407767 0.00221311 0.00122698 0.02258531 0.00583634 0.00205790 0.00382210 0.00128544 
0.09706547 0.06571905 0.00997062 0.00290089 0.00078947 0.00341376 0.01281536 0.02121861 0.02391537 0.00224799 0.00123825 0.02257381 0.00593067 0.00204872 0.00382983 0.00128832 
0.09482115 0.06457661 0.00981276 0.00290003 0.00079300 0.00337632 0.01268881 0.02124550 0.02375793 0.00228367 0.00125105 0.02255753 0.00604410 0.00204026 0.00383974 0.00129131 
0.09244902 0.06346085 0.00965431 0.00290176 0.00079644 0.00333966 0.01257211 0.02124745 0.02360694 0.00232001 0.00126534 0.02253626 0.00617642 0.00203263 0.00385194 0.00129440 
0.08995840 0.06237853 0.00949582 0.00290612 0.00079977 0.00330398 0.01246578 0.02122443 0.02346400 0.00235689 0.00128108 0.02250985 0.00632733 0.00202593 0.00386649 0.00129757 
0.08735903 0.06133618 0.00933785 0.00291310 0.00080299 0.00326946 0.01237030 0.02117652 0.02333067 0.00239416 0.00129821 0.02247825 0.00649644 0.00202027 0.00388346 0.00130080 
0.08466102 0.06034006 0.00918099 0.00292269 0.00080608 0.00323631 0.01228611 0.02110392 0.02320851 0.00243169 0.00131670 0.02244145 0.00668329 0.00201574 0.00390289 0.00130408 
0.08187476 0.05939614 0.00902584 0.00293486 0.00080904 0.00320469 0.01221362 0.02100694 0.02309903 0.00246935 0.00133648 0.02239952 0.00688731 0.00201244 0.00392481 0.00130739 
0.07901093 0.05851003 0.00887301 0.00294957 0.00081186 0.00317477 0.01215316 0.02088600 0.02300369 0.00250701 0.00135750 0.02235261 0.00710786 0.00201047 0.00394922 0.00131071 
0.07608037 0.05768696 0.00872311 0.00296674 0.00081453 0.00314670 0.01210503 0.02074163 0.02292392 0.00254454 0.00137970 0.02230091 0.00734424 0.00200991 0.00397612 0.00131403 
0.07309412 0.05693177 0.00857678 0.00298629 0.00081706 0.00312063 0.01206949 0.02057446 0.02286108 0.00258181 0.00140303 0.02224471 0.00759564 0.00201085 0.00400548 0.00131733 
0.07006328 0.05624882 0.00843463 0.00300812 0.00081945 0.00309667 0.01204671 0.02038523 0.02281644 0.00261869 0.00142743 0.02218434 0.00786121 0.00201336 0.00403726 0.00132059 
0.06699904 0.05564203 0.00829730 0.00303211 0.00082169 0.00307496 0.01203682 0.02017477 0.02279123 0.00265508 0.00145283 0.02212019 0.00814003 0.00201753 0.00407139 0.00132379 
0.06391254 0.05511481 0.00816540 0.00305811 0.00082379 0.00305557 0.01203987 0.01994400 0.02278655 0.00269086 0.00147916 0.02205272 0.00843109 0.00202341 0.00410779 0.00132693 
0.06081491 0.05467003 0.00803953 0.00308599 0.00082576 0.00303860 0.01205585 0.01969393 0.02280346 0.00272590 0.00150636 0.02198245 0.00873337 0.00203107 0.00414636 0.00132998 
0.05771717 0.05431005 0.00792029 0.00311556 0.00082760 0.00302410 0.01208469 0.01942565 0.02284287 0.00276012 0.00153437 0.02190993 0.00904575 0.00204056 0.00418697 0.00133293 
0.05463021 0.05403666 0.00780825 0.00314664 0.00082932 0.00301213 0.01212625 0.01914032 0.02290562 0.00279340 0.00156310 0.02183577 0.00936709 0.00205192 0.00422948 0.00133577 
0.05156472 0.05385110 0.00770395 0.00317905 0.00083093 0.00300272 0.01218030 0.01883917 0.02299243 0.00282565 0.00159249 0.02176061 0.00969621 0.00206517 0.00427375 0.00133847 
0.04853118 0.05375401 0.00760793 0.00321256 0.00083245 0.00299587 0.01224655 0.01852349 0.02310388 0.00285679 0.00162247 0.02168514 0.01003190 0.00208035 0.00431959 0.00134102 
0.04553981 0.05374548 0.00752066 0.00324697 0.00083387 0.00299158 0.01232465 0.01819462 0.02324047 0.00288673 0.00165296 0.02161008 0.01037289 0.00209747 0.00436683 0.00134343 
0.04260051 0.05382499 0.00744262 0.00328203 0.00083523 0.00298984 0.01241416 0.01785393 0.02340253 0.00291539 0.00168388 0.02153616 0.01071793 0.00211652 0.00441525 0.00134566 
0.03972287 0.05399148 0.00737421 0.00331751 0.00083652 0.00299059 0.01251458 0.01750285 0.02359029 0.00294270 0.00171516 0.02146415 0.01106571 0.00213751 0.00446466 0.00134771 
0.03691610 0.05424327 0.00731581 0.00335318 0.00083776 0.00299378 0.01262534 0.01714282 0.02380384 0.00296861 0.00174672 0.02139481 0.01141495 0.00216041 0.00451481 0.00134957 
0.03418904 0.05457816 0.00726776 0.00338876 0.00083898 0.00299934 0.01274579 0.01677530 0.02404311 0.00299304 0.00177847 0.02132893 0.01176434 0.00218520 0.00456549 0.00135123 
0.03155007 0.05499338 0.00723035 0.00342402 0.00084018 0.00300717 0.01287525 0.01640176 0.02430792 0.00301595 0.00181035 0.02126729 0.01211258 0.00221183 0.00461643 0.00135268 
0.02900718 0.05548564 0.00720380 0.00345870 0.00084138 0.00301717 0.01301293 0.01602367 0.02459793 0.00303730 0.00184226 0.02121068 0.01245837 0.00224026 0.00466740 0.00135393 
0.02656785 0.05605114 0.00718831 0.00349253 0.00084260 0.00302922 0.01315801 0.01564251 0.02491269 0.00305705 0.00187412 0.02115985 0.01280044 0.00227042 0.00471814 0.00135495 
0.02423912 0.05668556 0.00718400 0.00352526 0.00084384 0.00304318 0.01330963 0.01525974 0.02525156 0.00307516 0.00190586 0.02111556 0.01313751 0.00230224 0.00476838 0.00135574 
0.02202750 0.05738418 0.00719095 0.00355663 0.00084514 0.00305890 0.01346684 0.01487677 0.02561381 0.00309161 0.00193739 0.02107853 0.01346836 0.00233564 0.00481788 0.00135631 
0.01993902 0.05814178 0.00720917 0.00358641 0.00084650 0.00307622 0.01362869 0.01449501 0.02599853 0.00310638 0.00196861 0.02104946 0.01379178 0.00237053 0.00486637 0.00135665 
0.01797917 0.05895280 0.00723862 0.00361434 0.00084793 0.00309496 0.01379414 0.01411584 0.02640470 0.00311945 0.00199946 0.02102903 0.01410660 0.00240680 0.00491359 0.00135676 
0.01615292 0.05981128 0.00727921 0.00364018 0.00084946 0.00311495 0.01396216 0.01374057 0.02683115 0.00313083 0.00202984 0.02101783 0.01441169 0.00244435 0.00495930 0.00135664 
0.01446473 0.06071095 0.00733078 0.00366372 0.00085109 0.00313599 0.01413166 0.01337048 0.02727659 0.00314049 0.00205968 0.02101647 0.01470597 0.00248306 0.00500324 0.00135629 
0.01291850 0.06164524 0.00739311 0.00368474 0.00085283 0.00315787 0.01430156 0.01300678 0.02773960 0.00314846 0.00208888 0.02102545 0.01498840 0.00252280 0.00504519 0.00135571 
0.01151761 0.06260734 0.00746594 0.00370303 0.00085471 0.00318040 0.01447074 0.01265065 0.02821862 0.00315473 0.00211736 0.02104525 0.01525802 0.00256344 0.00508492 0.00135491 
0.01026490 0.06359025 0.00754893 0.00371841 0.00085672 0.00320336 0.01463807 0.01230316 0.02871201 0.00315931 0.00214504 0.02107628 0.01551388 0.00260484 0.00512221 0.00135389 
0.00916269 0.06458678 0.00764172 0.00373070 0.00085888 0.00322654 0.01480243 0.01196535 0.02921798 0.00316223 0.00217185 0.02111889 0.01575515 0.00264685 0.00515686 0.00135265 
0.00821277 0.06558967 0.00774387 0.00373974 0.00086119 0.00324972 0.01496271 0.01163817 0.02973467 0.00316350 0.00219770 0.02117336 0.01598102 0.00268932 0.00518868 0.00135121 
0.00741640 0.06659155 0.00785489 0.00374541 0.00086366 0.00327268 0.01511779 0.01132249 0.03026010 0.00316314 0.00222250 0.02123989 0.01619077 0.00273210 0.00521752 0.00134956 
0.00677436 0.06758505 0.00797427 0.00374757 0.00086630 0.00329521 0.01526661 0.01101912 0.03079221 0.00316119 0.00224619 0.02131861 0.01638375 0.00277503 0.00524321 0.00134773 
0.00628689 0.06856284 0.00810144 0.00374613 0.00086910 0.00331708 0.01540809 0.01072876 0.03132887 0.00315767 0.00226870 0.02140960 0.01655936 0.00281794 0.00526564 0.00134571 
0.00595378 0.06951763 0.00823577 0.00374101 0.00087207 0.00333810 0.01554122 0.01045207 0.03186786 0.00315261 0.00228994 0.02151283 0.01671711 0.00286068 0.00528468 0.00134351 
0.00577432 0.07044229 0.00837664 0.00373215 0.00087521 0.00335804 0.01566502 0.01018959 0.03240691 0.00314606 0.00230985 0.02162820 0.01685655 0.00290309 0.00530026 0.00134116 
0.00574734 0.07132982 0.00852336 0.00371952 0.00087851 0.00337672 0.01577856 0.00994181 0.03294371 0.00313804 0.00232838 0.02175555 0.01697733 0.00294500 0.00531230 0.00133865 
0.00587122 0.07217346 0.00867523 0.00370311 0.00088197 0.00339394 0.01588098 0.00970911 0.03347591 0.00312860 0.00234544 0.02189463 0.01707916 0.00298625 0.00532077 0.00133600 
0.00614390 0.07296669 0.00883152 0.00368292 0.00088559 0.00340952 0.01597145 0.00949181 0.03400110 0.00311778 0.00236100 0.02204510 0.01716185 0.00302669 0.00532564 0.00133322 
0.00656290 0.07370330 0.00899148 0.00365899 0.00088936 0.00342328 0.01604925 0.00929016 0.03451689 0.00310561 0.00237499 0.02220656 0.01722526 0.00306616 0.00532693 0.00133032 
0.00712534 0.07437740 0.00915437 0.00363138 0.00089326 0.00343506 0.01611370 0.00910431 0.03502087 0.00309215 0.00238737 0.02237853 0.01726934 0.00310452 0.00532466 0.00132731 
0.00782793 0.07498350 0.00931940 0.00360017 0.00089729 0.00344472 0.01616422 0.00893437 0.03551065 0.00307743 0.00239809 0.02256046 0.01729411 0.00314161 0.00531888 0.00132421 
0.00866702 0.07551651 0.00948582 0.00356546 0.00090143 0.00345212 0.01620032 0.00878035 0.03598384 0.00306151 0.00240713 0.02275173 0.01729967 0.00317731 0.00530968 0.00132104 
