0.01024042 0.00912629 0.00695384 0.00100481 0.00955743 0.00137543 0.00964369 0.00279038 0.01773672 0.00218833 0.00953765 0.00162005 0.00603210 0.02212198 0.01246517 0.00068840 
0.01007031 0.00930917 0.00689363 0.00103320 0.00962020 0.00138545 0.00992904 0.00276778 0.01785541 0.00222814 0.00960300 0.00162671 0.00610043 0.02322018 0.01270708 0.00074372 
0.00991196 0.00948805 0.00682218 0.00106780 0.00967221 0.00139538 0.01021038 0.00274888 0.01795689 0.00226786 0.00967163 0.00163166 0.00617529 0.02433683 0.01294393 0.00080014 
0.00976623 0.00966225 0.00673984 0.00110887 0.00971310 0.00140520 0.01048651 0.00273363 0.01804078 0.00230728 0.00974322 0.00163485 0.00625690 0.02546725 0.01317470 0.00085734 
0.00963390 0.00983115 0.00664703 0.00115661 0.00974259 0.00141492 0.01075626 0.00272194 0.01810684 0.00234617 0.00981740 0.00163627 0.00634544 0.02660667 0.01339837 0.00091498 
0.00951566 0.00999419 0.00654420 0.00121121 0.00976042 0.00142456 0.01101852 0.00271371 0.01815490 0.00238431 0.00989380 0.00163591 0.00644102 0.02775026 0.01361396 0.00097270 
0.00941209 0.01015084 0.00643184 0.00127284 0.00976642 0.00143411 0.01127223 0.00270884 0.01818491 0.00242147 0.00997202 0.00163376 0.00654373 0.02889318 0.01382054 0.00103014 
0.00932368 0.01030064 0.00631050 0.00134162 0.00976048 0.00144359 0.01151642 0.00270716 0.01819691 0.00245744 0.01005163 0.00162982 0.00665359 0.03003056 0.01401720 0.00108693 
0.00925079 0.01044318 0.00618075 0.00141766 0.00974254 0.00145300 0.01175018 0.00270853 0.01819108 0.00249201 0.01013220 0.00162410 0.00677057 0.03115756 0.01420309 0.00114270 
0.00919370 0.01057812 0.00604320 0.00150102 0.00971261 0.00146236 0.01197267 0.00271277 0.01816767 0.00252497 0.01021328 0.00161663 0.00689460 0.03226940 0.01437740 0.00119705 
0.00915256 0.01070514 0.00589849 0.00159173 0.00967076 0.00147168 0.01218314 0.00271968 0.01812705 0.00255614 0.01029440 0.00160744 0.00702553 0.03336138 0.01453938 0.00124963 
0.00912741 0.01082402 0.00574728 0.00168979 0.00961714 0.00148097 0.01238091 0.00272906 0.01806971 0.00258533 0.01037509 0.00159656 0.00716320 0.03442892 0.01468833 0.00130004 
0.00911817 0.01093456 0.00559026 0.00179515 0.00955194 0.00149024 0.01256540 0.00274069 0.01799622 0.00261237 0.01045487 0.00158404 0.00730734 0.03546755 0.01482362 0.00134792 
0.00912465 0.01103664 0.00542813 0.00190773 0.00947543 0.00149951 0.01273611 0.00275434 0.01790728 0.00263710 0.01053325 0.00156993 0.00745766 0.03647297 0.01494469 0.00139289 
0.00914656 0.01113019 0.00526161 0.00202740 0.00938792 0.00150878 0.01289262 0.00276978 0.01780365 0.00265938 0.01060976 0.00155430 0.00761382 0.03744109 0.01505105 0.00143462 
0.00918349 0.01121516 0.00509144 0.00215401 0.00928981 0.00151807 0.01303462 0.00278676 0.01768622 0.00267907 0.01068391 0.00153723 0.00777541 0.03836800 0.01514227 0.00147276 
0.00923490 0.01129161 0.00491834 0.00228734 0.00918154 0.00152739 0.01316186 0.00280505 0.01755595 0.00269606 0.01075522 0.00151878 0.00794199 0.03925006 0.01521800 0.00150699 
0.00930017 0.01135960 0.00474306 0.00242714 0.00906358 0.00153675 0.01327421 0.00282438 0.01741389 0.00271027 0.01082324 0.00149906 0.00811306 0.04008385 0.01527799 0.00153701 
0.00937859 0.01141925 0.00456634 0.00257314 0.00893650 0.00154615 0.01337160 0.00284451 0.01726119 0.00272160 0.01088750 0.00147814 0.00828809 0.04086626 0.01532205 0.00156254 
0.00946932 0.01147075 0.00438890 0.00272500 0.00880089 0.00155560 0.01345406 0.00286520 0.01709904 0.00273000 0.01094757 0.00145613 0.00846648 0.04159447 0.01535005 0.00158332 
0.00957147 0.01151430 0.00421148 0.00288235 0.00865739 0.00156511 0.01352170 0.00288620 0.01692872 0.00273543 0.01100304 0.00143315 0.00864762 0.04226596 0.01536199 0.00159914 
0.00968403 0.01155017 0.00403479 0.00304478 0.00850668 0.00157467 0.01357471 0.00290727 0.01675158 0.00273788 0.01105349 0.00140929 0.00883085 0.04287855 0.01535790 0.00160980 
0.00980593 0.01157864 0.00385953 0.00321186 0.00834950 0.00158430 0.01361334 0.00292820 0.01656900 0.00273733 0.01109855 0.00138467 0.00901551 0.04343041 0.01533793 0.00161514 
0.00993605 0.01160004 0.00368638 0.00338308 0.00818660 0.00159398 0.01363794 0.00294875 0.01638243 0.00273381 0.01113788 0.00135942 0.00920087 0.04392004 0.01530230 0.00161504 
0.01007318 0.01161474 0.00351599 0.00355794 0.00801878 0.00160371 0.01364890 0.00296872 0.01619334 0.00272735 0.01117114 0.00133366 0.00938622 0.04434632 0.01525129 0.00160942 
0.01021608 0.01162313 0.00334901 0.00373589 0.00784686 0.00161349 0.01364671 0.00298791 0.01600323 0.00271803 0.01119805 0.00130752 0.00957080 0.04470850 0.01518528 0.00159822 
0.01036345 0.01162562 0.00318604 0.00391634 0.00767168 0.00162330 0.01363187 0.00300614 0.01581365 0.00270591 0.01121835 0.00128112 0.00975387 0.04500618 0.01510472 0.00158144 
0.01051397 0.01162265 0.00302765 0.00409869 0.00749411 0.00163313 0.01360498 0.00302326 0.01562612 0.00269110 0.01123180 0.00125461 0.00993467 0.04523935 0.01501013 0.00155912 
0.01066628 0.01161467 0.00287440 0.00428230 0.00731503 0.00164296 0.01356664 0.00303911 0.01544219 0.00267371 0.01123823 0.00122809 0.01011244 0.04540836 0.01490210 0.00153136 
0.01081904 0.01160217 0.00272679 0.00446651 0.00713534 0.00165278 0.01351754 0.00305355 0.01526339 0.00265389 0.01123748 0.00120172 0.01028642 0.04551393 0.01478128 0.00149826 
0.01097087 0.01158563 0.00258531 0.00465066 0.00695593 0.00166256 0.01345838 0.00306649 0.01509126 0.00263178 0.01122944 0.00117562 0.01045589 0.04555715 0.01464840 0.00146002 
0.01112040 0.01156554 0.00245039 0.00483404 0.00677770 0.00167228 0.01338988 0.00307784 0.01492727 0.00260756 0.01121403 0.00114991 0.01062012 0.04553944 0.01450422 0.00141685 
0.01126630 0.01154240 0.00232243 0.00501596 0.00660155 0.00168192 0.01331280 0.00308752 0.01477290 0.00258141 0.01119123 0.00112473 0.01077840 0.04546258 0.01434958 0.00136901 
0.01140724 0.01151671 0.00220179 0.00519569 0.00642838 0.00169144 0.01322791 0.00309548 0.01462955 0.00255353 0.01116103 0.00110020 0.01093007 0.04532865 0.01418535 0.00131683 
0.01154192 0.01148897 0.00208880 0.00537254 0.00625906 0.00170081 0.01313600 0.00310172 0.01449860 0.00252414 0.01112350 0.00107643 0.01107448 0.04514008 0.01401246 0.00126065 
0.01166912 0.01145967 0.00198371 0.00554577 0.00609447 0.00171000 0.01303786 0.00310621 0.01438134 0.00249347 0.01107872 0.00105355 0.01121104 0.04489955 0.01383185 0.00120089 
0.01178764 0.01142929 0.00188678 0.00571467 0.00593545 0.00171897 0.01293428 0.00310900 0.01427899 0.00246174 0.01102683 0.00103166 0.01133919 0.04461005 0.01364452 0.00113799 
0.01189634 0.01139832 0.00179820 0.00587853 0.00578283 0.00172769 0.01282604 0.00311010 0.01419272 0.00242921 0.01096800 0.00101086 0.01145842 0.04427480 0.01345148 0.00107243 
0.01199418 0.01136720 0.00171811 0.00603666 0.00563740 0.00173613 0.01271391 0.00310961 0.01412359 0.00239612 0.01090245 0.00099125 0.01156827 0.04389724 0.01325375 0.00100473 
0.01208016 0.01133637 0.00164662 0.00618837 0.00549994 0.00174423 0.01259865 0.00310759 0.01407256 0.00236274 0.01083044 0.00097293 0.01166833 0.04348104 0.01305239 0.00093547 
0.01215339 0.01130626 0.00158379 0.00633300 0.00537117 0.00175197 0.01248098 0.00310416 0.01404049 0.00232933 0.01075224 0.00095597 0.01175827 0.04303002 0.01284844 0.00086524 
0.01221306 0.01127726 0.00152966 0.00646991 0.00525181 0.00175930 0.01236162 0.00309945 0.01402816 0.00229614 0.01066821 0.00094045 0.01183781 0.04254817 0.01264295 0.00079466 
0.01225847 0.01124974 0.00148420 0.00659850 0.00514251 0.00176619 0.01224125 0.00309361 0.01403620 0.00226346 0.01057870 0.00092644 0.01190672 0.04203959 0.01243696 0.00072438 
0.01228900 0.01122405 0.00144736 0.00671816 0.00504388 0.00177260 0.01212050 0.00308680 0.01406514 0.00223153 0.01048412 0.00091399 0.01196485 0.04150847 0.01223150 0.00065508 
0.01230417 0.01120048 0.00141904 0.00682836 0.00495650 0.00177850 0.01199999 0.00307922 0.01411539 0.00220063 0.01038489 0.00090315 0.01201214 0.04095907 0.01202759 0.00058746 
0.01230358 0.01117933 0.00139912 0.00692859 0.00488089 0.00178384 0.01188027 0.00307105 0.01418722 0.00217100 0.01028149 0.00089397 0.01204857 0.04039569 0.01182620 0.00052223 
0.01228696 0.01116085 0.00138743 0.00701837 0.00481752 0.00178861 0.01176187 0.00306252 0.01428078 0.00214289 0.01017441 0.00088646 0.01207420 0.03982261 0.01162828 0.00046011 
0.01225416 0.01114523 0.00138376 0.00709729 0.00476682 0.00179276 0.01164527 0.00305386 0.01439609 0.00211655 0.01006416 0.00088064 0.01208916 0.03924412 0.01143476 0.00040182 
0.01220514 0.01113267 0.00138788 0.00716495 0.00472916 0.00179627 0.01153088 0.00304531 0.01453303 0.00209221 0.00995129 0.00087654 0.01209367 0.03866442 0.01124650 0.00034809 
0.01213999 0.01112329 0.00139953 0.00722104 0.00470486 0.00179913 0.01141910 0.00303711 0.01469135 0.00207008 0.00983636 0.00087413 0.01208799 0.03808765 0.01106433 0.00029965 
0.01205891 0.01111721 0.00141843 0.00726527 0.00469418 0.00180131 0.01131026 0.00302953 0.01487068 0.00205037 0.00971995 0.00087343 0.01207247 0.03751784 0.01088902 0.00025720 
0.01196223 0.01111449 0.00144424 0.00729742 0.00469733 0.00180279 0.01120463 0.00302282 0.01507049 0.00203327 0.00960265 0.00087439 0.01204752 0.03695886 0.01072129 0.00022144 
0.01185038 0.01111515 0.00147664 0.00731731 0.00471446 0.00180357 0.01110245 0.00301727 0.01529016 0.00201896 0.00948508 0.00087700 0.01201362 0.03641446 0.01056181 0.00019306 
0.01172393 0.01111919 0.00151525 0.00732485 0.00474567 0.00180364 0.01100391 0.00301314 0.01552892 0.00200759 0.00936786 0.00088122 0.01197132 0.03588817 0.01041115 0.00017269 
0.01158354 0.01112657 0.00155969 0.00731996 0.00479100 0.00180300 0.01090913 0.00301070 0.01578588 0.00199931 0.00925161 0.00088699 0.01192120 0.03538334 0.01026985 0.00016095 
0.01143000 0.01113721 0.00160957 0.00730265 0.00485043 0.00180166 0.01081821 0.00301022 0.01606004 0.00199423 0.00913697 0.00089426 0.01186394 0.03490307 0.01013837 0.00015844 
0.01126418 0.01115099 0.00166446 0.00727299 0.00492389 0.00179962 0.01073119 0.00301196 0.01635030 0.00199246 0.00902455 0.00090296 0.01180023 0.03445025 0.01001709 0.00016567 
0.01108707 0.01116777 0.00172395 0.00723109 0.00501127 0.00179692 0.01064808 0.00301619 0.01665544 0.00199407 0.00891500 0.00091302 0.01173083 0.03402747 0.00990633 0.00018314 
0.01089974 0.01118737 0.00178760 0.00717713 0.00511239 0.00179356 0.01056883 0.00302316 0.01697415 0.00199911 0.00880894 0.00092436 0.01165656 0.03363709 0.00980634 0.00021129 
0.01070336 0.01120959 0.00185495 0.00711134 0.00522703 0.00178958 0.01049337 0.00303311 0.01730504 0.00200764 0.00870699 0.00093689 0.01157824 0.03328115 0.00971729 0.00025049 
0.01049917 0.01123420 0.00192556 0.00703402 0.00535490 0.00178502 0.01042158 0.00304628 0.01764663 0.00201964 0.00860974 0.00095052 0.01149675 0.03296144 0.00963927 0.00030106 
0.01028849 0.01126095 0.00199898 0.00694550 0.00549570 0.00177991 0.01035333 0.00306287 0.01799739 0.00203512 0.00851780 0.00096515 0.01141299 0.03267942 0.00957233 0.00036324 
0.01007268 0.01128955 0.00207475 0.00684620 0.00564905 0.00177431 0.01028844 0.00308309 0.01835571 0.00205404 0.00843174 0.00098068 0.01132789 0.03243626 0.00951641 0.00043722 
0.00985319 0.01131972 0.00215242 0.00673655 0.00581454 0.00176827 0.01022670 0.00310713 0.01871994 0.00207634 0.00835213 0.00099699 0.01124240 0.03223283 0.00947141 0.00052310 
0.00963150 0.01135114 0.00223153 0.00661706 0.00599172 0.00176186 0.01016792 0.00313515 0.01908839 0.00210195 0.00827948 0.00101398 0.01115746 0.03206970 0.00943716 0.00062090 
0.00940912 0.01138350 0.00231166 0.00648826 0.00618010 0.00175513 0.01011183 0.00316730 0.01945934 0.00213076 0.00821433 0.00103154 0.01107403 0.03194715 0.00941342 0.00073056 
0.00918761 0.01141646 0.00239236 0.00635074 0.00637916 0.00174816 0.01005821 0.00320371 0.01983108 0.00216265 0.00815715 0.00104954 0.01099309 0.03186515 0.00939991 0.00085196 
0.00896853 0.01144969 0.00247320 0.00620514 0.00658834 0.00174103 0.01000679 0.00324447 0.02020186 0.00219748 0.00810841 0.00106787 0.01091558 0.03182343 0.00939628 0.00098487 
0.00875346 0.01148286 0.00255378 0.00605210 0.00680705 0.00173382 0.00995730 0.00328968 0.02056996 0.00223507 0.00806854 0.00108641 0.01084244 0.03182141 0.00940212 0.00112898 
0.00854397 0.01151562 0.00263370 0.00589232 0.00703467 0.00172661 0.00990948 0.00333939 0.02093367 0.00227526 0.00803792 0.00110505 0.01077462 0.03185827 0.00941702 0.00128391 
0.00834163 0.01154765 0.00271256 0.00572653 0.00727055 0.00171951 0.00986306 0.00339363 0.02129133 0.00231783 0.00801693 0.00112367 0.01071300 0.03193297 0.00944048 0.00144917 
0.00814799 0.01157864 0.00279000 0.00555546 0.00751405 0.00171260 0.00981778 0.00345240 0.02164130 0.00236257 0.00800589 0.00114215 0.01065848 0.03204421 0.00947199 0.00162421 
0.00796455 0.01160827 0.00286567 0.00537990 0.00776447 0.00170598 0.00977338 0.00351569 0.02198200 0.00240925 0.00800509 0.00116040 0.01061190 0.03219051 0.00951101 0.00180837 
0.00779279 0.01163625 0.00293924 0.00520062 0.00802111 0.00169975 0.00972963 0.00358345 0.02231192 0.00245762 0.00801478 0.00117829 0.01057406 0.03237021 0.00955698 0.00200094 
0.00763414 0.01166231 0.00301040 0.00501842 0.00828326 0.00169402 0.00968630 0.00365561 0.02262963 0.00250741 0.00803518 0.00119572 0.01054575 0.03258147 0.00960932 0.00220110 
0.00748998 0.01168621 0.00307886 0.00483409 0.00855020 0.00168888 0.00964317 0.00373207 0.02293377 0.00255837 0.00806644 0.00121260 0.01052768 0.03282233 0.00966743 0.00240799 
0.00736160 0.01170772 0.00314436 0.00464846 0.00882120 0.00168445 0.00960007 0.00381271 0.02322309 0.00261020 0.00810870 0.00122884 0.01052052 0.03309071 0.00973071 0.00262063 
0.00725023 0.01172665 0.00320664 0.00446231 0.00909552 0.00168083 0.00955682 0.00389737 0.02349642 0.00266263 0.00816205 0.00124434 0.01052490 0.03338443 0.00979858 0.00283802 
0.00715702 0.01174284 0.00326551 0.00427647 0.00937241 0.00167811 0.00951329 0.00398588 0.02375272 0.00271536 0.00822653 0.00125902 0.01054139 0.03370125 0.00987045 0.00305906 
0.00708302 0.01175616 0.00332076 0.00409170 0.00965115 0.00167642 0.00946935 0.00407805 0.02399105 0.00276810 0.00830214 0.00127281 0.01057049 0.03403889 0.00994573 0.00328264 
0.00702921 0.01176652 0.00337222 0.00390880 0.00993099 0.00167583 0.00942491 0.00417365 0.02421062 0.00282054 0.00838883 0.00128564 0.01061265 0.03439507 0.01002388 0.00350755 
0.00699644 0.01177387 0.00341975 0.00372852 0.01021120 0.00167646 0.00937993 0.00427243 0.02441073 0.00287240 0.00848653 0.00129746 0.01066826 0.03476751 0.01010436 0.00373257 
0.00698545 0.01177819 0.00346324 0.00355161 0.01049106 0.00167840 0.00933436 0.00437414 0.02459083 0.00292337 0.00859509 0.00130821 0.01073763 0.03515394 0.01018666 0.00395644 
0.00699689 0.01177953 0.00350259 0.00337877 0.01076984 0.00168174 0.00928821 0.00447848 0.02475052 0.00297318 0.00871434 0.00131784 0.01082103 0.03555219 0.01027033 0.00417785 
0.00703129 0.01177794 0.00353774 0.00321069 0.01104684 0.00168655 0.00924150 0.00458516 0.02488950 0.00302152 0.00884408 0.00132633 0.01091863 0.03596015 0.01035492 0.00439551 
0.00708904 0.01177355 0.00356864 0.00304803 0.01132137 0.00169293 0.00919429 0.00469385 0.02500764 0.00306814 0.00898403 0.00133365 0.01103057 0.03637582 0.01044006 0.00460809 
0.00717041 0.01176651 0.00359529 0.00289140 0.01159274 0.00170095 0.00914667 0.00480422 0.02510491 0.00311276 0.00913391 0.00133977 0.01115690 0.03679731 0.01052539 0.00481427 
0.00727558 0.01175702 0.00361768 0.00274139 0.01186029 0.00171066 0.00909875 0.00491592 0.02518146 0.00315513 0.00929337 0.00134470 0.01129761 0.03722290 0.01061062 0.00501274 
0.00740455 0.01174534 0.00363586 0.00259854 0.01212338 0.00172213 0.00905067 0.00502858 0.02523753 0.00319501 0.00946203 0.00134842 0.01145263 0.03765102 0.01069552 0.00520220 
0.00755724 0.01173174 0.00364988 0.00246335 0.01238136 0.00173541 0.00900260 0.00514185 0.02527351 0.00323218 0.00963947 0.00135095 0.01162181 0.03808025 0.01077989 0.00538139 
0.00773342 0.01171655 0.00365982 0.00233628 0.01263364 0.00175054 0.00895473 0.00525534 0.02528991 0.00326642 0.00982525 0.00135230 0.01180497 0.03850941 0.01086360 0.00554909 
0.00793274 0.01170015 0.00366577 0.00221772 0.01287962 0.00176754 0.00890727 0.00536867 0.02528735 0.00329754 0.01001887 0.00135250 0.01200183 0.03893749 0.01094659 0.00570411 
0.00815471 0.01168292 0.00366786 0.00210806 0.01311873 0.00178646 0.00886044 0.00548146 0.02526657 0.00332538 0.01021982 0.00135159 0.01221209 0.03936370 0.01102882 0.00584533 
0.00839876 0.01166531 0.00366623 0.00200760 0.01335043 0.00180728 0.00881450 0.00559332 0.02522842 0.00334979 0.01042754 0.00134959 0.01243536 0.03978747 0.01111034 0.00597171 
0.00866416 0.01164778 0.00366103 0.00191662 0.01357418 0.00183002 0.00876969 0.00570386 0.02517382 0.00337064 0.01064144 0.00134655 0.01267123 0.04020845 0.01119124 0.00608228 
0.00895010 0.01163084 0.00365243 0.00183532 0.01378950 0.00185467 0.00872631 0.00581271 0.02510380 0.00338782 0.01086093 0.00134254 0.01291920 0.04062654 0.01127167 0.00617614 
0.00925563 0.01161500 0.00364064 0.00176387 0.01399589 0.00188120 0.00868461 0.00591948 0.02501946 0.00340126 0.01108536 0.00133760 0.01317877 0.04104184 0.01135184 0.00625251 
0.00957973 0.01160081 0.00362584 0.00170240 0.01419292 0.00190959 0.00864489 0.00602381 0.02492195 0.00341089 0.01131409 0.00133181 0.01344936 0.04145470 0.01143200 0.00631070 
0.00992125 0.01158882 0.00360826 0.00165097 0.01438014 0.00193978 0.00860743 0.00612534 0.02481250 0.00341670 0.01154642 0.00132523 0.01373036 0.04186568 0.01151245 0.00635016 
0.01027898 0.01157961 0.00358813 0.00160960 0.01455717 0.00197173 0.00857252 0.00622372 0.02469236 0.00341867 0.01178168 0.00131794 0.01402114 0.04227555 0.01159355 0.00637042 
0.01065161 0.01157376 0.00356568 0.00157828 0.01472360 0.00200536 0.00854043 0.00631862 0.02456283 0.00341683 0.01201915 0.00131002 0.01432101 0.04268531 0.01167568 0.00637118 
0.01103775 0.01157186 0.00354116 0.00155692 0.01487911 0.00204060 0.00851144 0.00640973 0.02442520 0.00341123 0.01225812 0.00130156 0.01462927 0.04309613 0.01175927 0.00635225 
0.01143597 0.01157448 0.00351481 0.00154541 0.01502335 0.00207736 0.00848581 0.00649673 0.02428081 0.00340194 0.01249784 0.00129263 0.01494520 0.04350940 0.01184479 0.00631359 
0.01184475 0.01158220 0.00348689 0.00154360 0.01515602 0.00211554 0.00846379 0.00657936 0.02413095 0.00338906 0.01273760 0.00128333 0.01526804 0.04392664 0.01193272 0.00625531 
0.01226254 0.01159559 0.00345767 0.00155129 0.01527686 0.00215503 0.00844562 0.00665734 0.02397693 0.00337272 0.01297666 0.00127375 0.01559703 0.04434955 0.01202358 0.00617766 
0.01268773 0.01161520 0.00342740 0.00156824 0.01538560 0.00219569 0.00843149 0.00673045 0.02382000 0.00335308 0.01321428 0.00126397 0.01593140 0.04477995 0.01211790 0.00608106 
0.01311872 0.01164156 0.00339634 0.00159418 0.01548203 0.00223742 0.00842162 0.00679848 0.02366139 0.00333030 0.01344972 0.00125409 0.01627035 0.04521979 0.01221622 0.00596606 
0.01355385 0.01167516 0.00336474 0.00162879 0.01556595 0.00228005 0.00841616 0.00686122 0.02350228 0.00330459 0.01368228 0.00124420 0.01661309 0.04567111 0.01231910 0.00583339 
0.01399145 0.01171648 0.00333287 0.00167176 0.01563720 0.00232345 0.00841526 0.00691853 0.02334376 0.00327618 0.01391122 0.00123439 0.01695883 0.04613602 0.01242709 0.00568394 
0.01442988 0.01176596 0.00330097 0.00172270 0.01569562 0.00236745 0.00841903 0.00697027 0.02318689 0.00324531 0.01413587 0.00122474 0.01730678 0.04661668 0.01254074 0.00551872 
0.01486748 0.01182398 0.00326929 0.00178124 0.01574112 0.00241189 0.00842756 0.00701634 0.02303262 0.00321225 0.01435553 0.00121535 0.01765615 0.04711527 0.01266059 0.00533895 
0.01530262 0.01189089 0.00323806 0.00184696 0.01577359 0.00245659 0.00844089 0.00705665 0.02288181 0.00317729 0.01456955 0.00120630 0.01800618 0.04763398 0.01278716 0.00514595 
0.01573369 0.01196700 0.00320750 0.00191942 0.01579298 0.00250138 0.00845906 0.00709115 0.02273523 0.00314072 0.01477729 0.00119767 0.01835610 0.04817500 0.01292095 0.00494121 
0.01615913 0.01205254 0.00317783 0.00199818 0.01579927 0.00254608 0.00848205 0.00711984 0.02259356 0.00310288 0.01497815 0.00118953 0.01870517 0.04874043 0.01306244 0.00472638 
0.01657741 0.01214771 0.00314926 0.00208278 0.01579245 0.00259050 0.00850981 0.00714273 0.02245736 0.00306409 0.01517156 0.00118196 0.01905266 0.04933232 0.01321206 0.00450320 
0.01698706 0.01225264 0.00312197 0.00217275 0.01577256 0.00263444 0.00854227 0.00715984 0.02232706 0.00302472 0.01535697 0.00117504 0.01939786 0.04995264 0.01337023 0.00427359 
0.01738669 0.01236739 0.00309615 0.00226762 0.01573964 0.00267772 0.00857931 0.00717126 0.02220299 0.00298511 0.01553388 0.00116882 0.01974010 0.05060322 0.01353730 0.00403954 
0.01777495 0.01249196 0.00307194 0.00236689 0.01569381 0.00272015 0.00862079 0.00717708 0.02208538 0.00294564 0.01570184 0.00116336 0.02007871 0.05128576 0.01371360 0.00380319 
0.01815059 0.01262629 0.00304951 0.00247009 0.01563517 0.00276152 0.00866653 0.00717743 0.02197431 0.00290668 0.01586043 0.00115872 0.02041308 0.05200180 0.01389937 0.00356677 
0.01851244 0.01277024 0.00302897 0.00257674 0.01556388 0.00280164 0.00871633 0.00717247 0.02186974 0.00286862 0.01600928 0.00115494 0.02074260 0.05275269 0.01409484 0.00333257 
0.01885942 0.01292361 0.00301044 0.00268636 0.01548012 0.00284034 0.00876993 0.00716237 0.02177155 0.00283185 0.01614806 0.00115207 0.02106671 0.05353957 0.01430016 0.00310299 
0.01919054 0.01308611 0.00299402 0.00279848 0.01538412 0.00287741 0.00882707 0.00714734 0.02167946 0.00279674 0.01627651 0.00115015 0.02138488 0.05436339 0.01451541 0.00288048 
0.01950492 0.01325740 0.00297978 0.00291265 0.01527613 0.00291268 0.00888745 0.00712762 0.02159312 0.00276369 0.01639442 0.00114920 0.02169659 0.05522483 0.01474062 0.00266754 
0.01980177 0.01343708 0.00296779 0.00302841 0.01515643 0.00294597 0.00895075 0.00710345 0.02151203 0.00273307 0.01650163 0.00114925 0.02200140 0.05612434 0.01497576 0.00246670 
0.02008043 0.01362464 0.00295807 0.00314535 0.01502534 0.00297711 0.00901663 0.00707511 0.02143563 0.00270526 0.01659804 0.00115031 0.02229886 0.05706210 0.01522071 0.00228051 
0.02034034 0.01381954 0.00295066 0.00326304 0.01488322 0.00300593 0.00908472 0.00704289 0.02136325 0.00268064 0.01668360 0.00115240 0.02258859 0.05803802 0.01547532 0.00211152 
0.02058104 0.01402115 0.00294556 0.00338109 0.01473046 0.00303229 0.00915463 0.00700711 0.02129413 0.00265955 0.01675835 0.00115552 0.02287021 0.05905173 0.01573934 0.00196229 
0.02080220 0.01422880 0.00294275 0.00349912 0.01456747 0.00305604 0.00922596 0.00696808 0.02122746 0.00264234 0.01682236 0.00115968 0.02314340 0.06010257 0.01601247 0.00183531 
0.02100361 0.01444175 0.00294220 0.00361678 0.01439472 0.00307704 0.00929830 0.00692615 0.02116234 0.00262934 0.01687577 0.00116486 0.02340787 0.06118959 0.01629432 0.00173306 
0.02118514 0.01465919 0.00294386 0.00373374 0.01421270 0.00309517 0.00937123 0.00688167 0.02109783 0.00262087 0.01691879 0.00117104 0.02366335 0.06231154 0.01658447 0.00165794 
0.02134680 0.01488026 0.00294768 0.00384970 0.01402194 0.00311032 0.00944431 0.00683500 0.02103294 0.00261723 0.01695170 0.00117823 0.02390963 0.06346690 0.01688241 0.00161227 
0.02148870 0.01510407 0.00295356 0.00396437 0.01382299 0.00312239 0.00951711 0.00678649 0.02096665 0.00261868 0.01697481 0.00118638 0.02414651 0.06465384 0.01718759 0.00159828 
0.02161105 0.01532968 0.00296141 0.00407751 0.01361646 0.00313130 0.00958920 0.00673654 0.02089793 0.00262548 0.01698853 0.00119547 0.02437382 0.06587026 0.01749936 0.00161808 
0.02171418 0.01555609 0.00297112 0.00418889 0.01340296 0.00313698 0.00966014 0.00668549 0.02082576 0.00263787 0.01699330 0.00120546 0.02459143 0.06711376 0.01781707 0.00167366 
0.02179850 0.01578228 0.00298257 0.00429832 0.01318316 0.00313938 0.00972951 0.00663373 0.02074908 0.00265604 0.01698963 0.00121632 0.02479924 0.06838172 0.01813998 0.00176686 
0.02186452 0.01600722 0.00299562 0.00440562 0.01295775 0.00313846 0.00979687 0.00658163 0.02066692 0.00268018 0.01697809 0.00122801 0.02499717 0.06967123 0.01846731 0.00189937 
0.02191283 0.01622982 0.00301013 0.00451066 0.01272745 0.00313419 0.00986184 0.00652954 0.02057828 0.00271042 0.01695930 0.00124047 0.02518517 0.07097914 0.01879825 0.00207269 
0.02194411 0.01644901 0.00302593 0.00461331 0.01249300 0.00312657 0.00992400 0.00647783 0.02048226 0.00274690 0.01693392 0.00125366 0.02536321 0.07230210 0.01913194 0.00228814 
0.02195912 0.01666368 0.00304287 0.00471351 0.01225518 0.00311561 0.00998298 0.00642684 0.02037800 0.00278969 0.01690267 0.00126752 0.02553128 0.07363654 0.01946748 0.00254685 
0.02195867 0.01687273 0.00306077 0.00481118 0.01201479 0.00310132 0.01003843 0.00637691 0.02026471 0.00283886 0.01686631 0.00128199 0.02568940 0.07497870 0.01980395 0.00284973 
0.02194365 0.01707508 0.00307945 0.00490630 0.01177264 0.00308376 0.01009000 0.00632836 0.02014170 0.00289443 0.01682565 0.00129703 0.02583761 0.07632467 0.02014042 0.00319747 
0.02191498 0.01726963 0.00309874 0.00499886 0.01152957 0.00306299 0.01013737 0.00628149 0.02000839 0.00295638 0.01678152 0.00131256 0.02597595 0.07767037 0.02047591 0.00359052 
0.02187364 0.01745531 0.00311844 0.00508887 0.01128645 0.00303907 0.01018026 0.00623659 0.01986427 0.00302469 0.01673479 0.00132852 0.02610451 0.07901162 0.02080947 0.00402911 
0.02182065 0.01763107 0.00313837 0.00517640 0.01104413 0.00301210 0.01021840 0.00619394 0.01970899 0.00309927 0.01668636 0.00134486 0.02622336 0.08034415 0.02114010 0.00451320 
0.02175705 0.01779590 0.00315835 0.00526149 0.01080351 0.00298217 0.01025156 0.00615378 0.01954232 0.00318000 0.01663713 0.00136150 0.02633261 0.08166361 0.02146683 0.00504252 
0.02168389 0.01794881 0.00317818 0.00534423 0.01056548 0.00294942 0.01027952 0.00611633 0.01936415 0.00326676 0.01658804 0.00137838 0.02643236 0.08296559 0.02178869 0.00561653 
0.02160226 0.01808886 0.00319769 0.00542474 0.01033092 0.00291397 0.01030212 0.00608181 0.01917453 0.00335936 0.01654004 0.00139543 0.02652275 0.08424569 0.02210472 0.00623445 
0.02151323 0.01821515 0.00321670 0.00550314 0.01010074 0.00287597 0.01031922 0.00605038 0.01897366 0.00345760 0.01649406 0.00141259 0.02660390 0.08549951 0.02241396 0.00689522 
0.02141787 0.01832685 0.00323503 0.00557956 0.00987582 0.00283559 0.01033068 0.00602220 0.01876188 0.00356122 0.01645104 0.00142980 0.02667596 0.08672267 0.02271550 0.00759753 
0.02131725 0.01842317 0.00325252 0.00565416 0.00965706 0.00279298 0.01033644 0.00599741 0.01853972 0.00366996 0.01641193 0.00144698 0.02673908 0.08791086 0.02300844 0.00833982 
0.02121240 0.01850339 0.00326902 0.00572712 0.00944533 0.00274834 0.01033645 0.00597609 0.01830784 0.00378351 0.01637764 0.00146409 0.02679343 0.08905986 0.02329191 0.00912027 
0.02110435 0.01856687 0.00328436 0.00579862 0.00924149 0.00270186 0.01033068 0.00595832 0.01806706 0.00390155 0.01634907 0.00148104 0.02683918 0.09016557 0.02356509 0.00993683 
0.02099408 0.01861303 0.00329841 0.00586883 0.00904638 0.00265373 0.01031914 0.00594416 0.01781838 0.00402370 0.01632708 0.00149780 0.02687649 0.09122400 0.02382720 0.01078718 
0.02088253 0.01864137 0.00331106 0.00593798 0.00886083 0.00260417 0.01030188 0.00593361 0.01756293 0.00414958 0.01631251 0.00151429 0.02690557 0.09223134 0.02407749 0.01166881 
0.02077060 0.01865147 0.00332217 0.00600625 0.00868562 0.00255338 0.01027895 0.00592668 0.01730201 0.00427879 0.01630616 0.00153046 0.02692659 0.09318397 0.02431526 0.01257896 
0.02065916 0.01864299 0.00333165 0.00607386 0.00852152 0.00250159 0.01025047 0.00592333 0.01703706 0.00441087 0.01630878 0.00154626 0.02693977 0.09407845 0.02453989 0.01351466 
0.02054899 0.01861569 0.00333941 0.00614103 0.00836925 0.00244903 0.01021654 0.00592349 0.01676966 0.00454539 0.01632105 0.00156163 0.02694530 0.09491158 0.02475079 0.01447277 
0.02044085 0.01856940 0.00334538 0.00620795 0.00822948 0.00239591 0.01017732 0.00592710 0.01650152 0.00468185 0.01634362 0.00157654 0.02694340 0.09568041 0.02494742 0.01544995 
0.02033540 0.01850405 0.00334950 0.00627485 0.00810287 0.00234246 0.01013296 0.00593403 0.01623446 0.00481978 0.01637705 0.00159092 0.02693429 0.09638223 0.02512933 0.01644270 
0.02023327 0.01841965 0.00335173 0.00634193 0.00799000 0.00228891 0.01008365 0.00594417 0.01597042 0.00495866 0.01642185 0.00160475 0.02691822 0.09701461 0.02529610 0.01744736 
0.02013501 0.01831633 0.00335204 0.00640941 0.00789141 0.00223548 0.01002959 0.00595736 0.01571145 0.00509798 0.01647844 0.00161798 0.02689540 0.09757542 0.02544739 0.01846016 
0.02004110 0.01819428 0.00335041 0.00647746 0.00780757 0.00218240 0.00997101 0.00597342 0.01545964 0.00523720 0.01654717 0.00163056 0.02686611 0.09806282 0.02558292 0.01947721 
0.01995198 0.01805378 0.00334686 0.00654630 0.00773891 0.00212989 0.00990812 0.00599218 0.01521719 0.00537580 0.01662831 0.00164248 0.02683059 0.09847528 0.02570246 0.02049452 
0.01986798 0.01789523 0.00334140 0.00661610 0.00768579 0.00207815 0.00984117 0.00601342 0.01498633 0.00551324 0.01672202 0.00165370 0.02678912 0.09881158 0.02580588 0.02150804 
0.01978940 0.01771908 0.00333408 0.00668703 0.00764849 0.00202739 0.00977041 0.00603693 0.01476932 0.00564896 0.01682841 0.00166418 0.02674198 0.09907084 0.02589307 0.02251366 
0.01971646 0.01752589 0.00332493 0.00675925 0.00762724 0.00197782 0.00969609 0.00606247 0.01456846 0.00578244 0.01694745 0.00167391 0.02668946 0.09925248 0.02596399 0.02350727 
0.01964933 0.01731630 0.00331404 0.00683292 0.00762218 0.00192962 0.00961847 0.00608980 0.01438604 0.00591314 0.01707906 0.00168287 0.02663186 0.09935626 0.02601869 0.02448471 
0.01958810 0.01709103 0.00330147 0.00690817 0.00763339 0.00188296 0.00953780 0.00611866 0.01422431 0.00604053 0.01722303 0.00169103 0.02656950 0.09938229 0.02605724 0.02544188 
0.01953282 0.01685086 0.00328734 0.00698511 0.00766086 0.00183803 0.00945433 0.00614880 0.01408551 0.00616409 0.01737906 0.00169838 0.02650271 0.09933096 0.02607979 0.02637469 
0.01948347 0.01659667 0.00327174 0.00706387 0.00770452 0.00179498 0.00936833 0.00617996 0.01397181 0.00628331 0.01754677 0.00170491 0.02643182 0.09920301 0.02608653 0.02727912 
0.01944001 0.01632939 0.00325480 0.00714452 0.00776420 0.00175395 0.00928003 0.00621185 0.01388532 0.00639770 0.01772567 0.00171061 0.02635719 0.09899949 0.02607772 0.02815124 
0.01940232 0.01605002 0.00323664 0.00722715 0.00783968 0.00171507 0.00918967 0.00624423 0.01382803 0.00650679 0.01791516 0.00171547 0.02627919 0.09872175 0.02605365 0.02898722 
0.01937026 0.01575961 0.00321742 0.00731180 0.00793061 0.00167846 0.00909748 0.00627682 0.01380184 0.00661010 0.01811457 0.00171949 0.02619817 0.09837145 0.02601466 0.02978336 
0.01934365 0.01545929 0.00319729 0.00739852 0.00803662 0.00164423 0.00900367 0.00630937 0.01380851 0.00670722 0.01832313 0.00172266 0.02611452 0.09795052 0.02596114 0.03053612 
0.01932228 0.01515020 0.00317641 0.00748733 0.00815721 0.00161246 0.00890846 0.00634161 0.01384967 0.00679773 0.01853998 0.00172498 0.02602864 0.09746118 0.02589350 0.03124210 
0.01930591 0.01483355 0.00315494 0.00757824 0.00829184 0.00158323 0.00881202 0.00637330 0.01392675 0.00688125 0.01876417 0.00172646 0.02594092 0.09690590 0.02581220 0.03189812 
0.01929429 0.01451059 0.00313306 0.00767124 0.00843986 0.00155659 0.00871455 0.00640419 0.01404104 0.00695742 0.01899467 0.00172711 0.02585177 0.09628742 0.02571774 0.03250118 
0.01928713 0.01418257 0.00311095 0.00776629 0.00860057 0.00153258 0.00861618 0.00643407 0.01419362 0.00702592 0.01923040 0.00172692 0.02576160 0.09560867 0.02561062 0.03304853 
0.01928417 0.01385081 0.00308879 0.00786336 0.00877319 0.00151124 0.00851708 0.00646271 0.01438537 0.00708645 0.01947017 0.00172592 0.02567081 0.09487283 0.02549139 0.03353763 
0.01928511 0.01351660 0.00306676 0.00796236 0.00895686 0.00149257 0.00841738 0.00648992 0.01461694 0.00713876 0.01971275 0.00172410 0.02557983 0.09408327 0.02536060 0.03396623 
0.01928967 0.01318128 0.00304505 0.00806324 0.00915066 0.00147656 0.00831717 0.00651550 0.01488878 0.00718263 0.01995686 0.00172148 0.02548906 0.09324353 0.02521883 0.03433231 
0.01929756 0.01284618 0.00302385 0.00816588 0.00935362 0.00146319 0.00821657 0.00653929 0.01520107 0.00721785 0.02020115 0.00171808 0.02539890 0.09235730 0.02506666 0.03463416 
0.01930852 0.01251263 0.00300333 0.00827019 0.00956469 0.00145244 0.00811566 0.00656113 0.01555377 0.00724430 0.02044424 0.00171391 0.02530977 0.09142844 0.02490470 0.03487036 
0.01932228 0.01218195 0.00298366 0.00837603 0.00978278 0.00144425 0.00801449 0.00658090 0.01594659 0.00726185 0.02068472 0.00170899 0.02522204 0.09046092 0.02473355 0.03503977 
0.01933860 0.01185548 0.00296504 0.00848326 0.01000675 0.00143856 0.00791314 0.00659847 0.01637900 0.00727044 0.02092115 0.00170333 0.02513610 0.08945879 0.02455382 0.03514157 
0.01935727 0.01153449 0.00294761 0.00859174 0.01023540 0.00143529 0.00781164 0.00661376 0.01685020 0.00727002 0.02115206 0.00169695 0.02505230 0.08842621 0.02436610 0.03517525 
0.01937809 0.01122027 0.00293154 0.00870129 0.01046753 0.00143436 0.00771002 0.00662669 0.01735915 0.00726062 0.02137601 0.00168988 0.02497099 0.08736739 0.02417101 0.03514062 
0.01940089 0.01091407 0.00291698 0.00881173 0.01070186 0.00143566 0.00760831 0.00663721 0.01790458 0.00724227 0.02159152 0.00168214 0.02489249 0.08628659 0.02396913 0.03503781 
0.01942553 0.01061709 0.00290408 0.00892289 0.01093711 0.00143908 0.00750652 0.00664528 0.01848494 0.00721506 0.02179715 0.00167374 0.02481709 0.08518808 0.02376107 0.03486727 
0.01945189 0.01033052 0.00289296 0.00903457 0.01117198 0.00144450 0.00740466 0.00665089 0.01909848 0.00717911 0.02199146 0.00166471 0.02474505 0.08407615 0.02354740 0.03462975 
0.01947990 0.01005548 0.00288373 0.00914656 0.01140516 0.00145179 0.00730274 0.00665405 0.01974323 0.00713460 0.02217307 0.00165508 0.02467660 0.08295507 0.02332869 0.03432634 
0.01950952 0.00979307 0.00287652 0.00925864 0.01163532 0.00146082 0.00720075 0.00665478 0.02041697 0.00708172 0.02234062 0.00164486 0.02461195 0.08182908 0.02310550 0.03395842 
0.01954071 0.00954432 0.00287140 0.00937061 0.01186115 0.00147143 0.00709870 0.00665313 0.02111732 0.00702070 0.02249279 0.00163409 0.02455125 0.08070236 0.02287836 0.03352770 
0.01957350 0.00931021 0.00286846 0.00948223 0.01208133 0.00148349 0.00699660 0.00664917 0.02184168 0.00695183 0.02262834 0.00162278 0.02449462 0.07957904 0.02264780 0.03303617 
0.01960793 0.00909168 0.00286776 0.00959328 0.01229456 0.00149683 0.00689445 0.00664297 0.02258732 0.00687540 0.02274609 0.00161097 0.02444212 0.07846315 0.02241433 0.03248609 
0.01964406 0.00888958 0.00286935 0.00970353 0.01249958 0.00151129 0.00679227 0.00663463 0.02335134 0.00679177 0.02284495 0.00159868 0.02439379 0.07735865 0.02217844 0.03188003 
0.01968201 0.00870473 0.00287327 0.00981275 0.01269513 0.00152672 0.00669009 0.00662427 0.02413069 0.00670129 0.02292388 0.00158593 0.02434960 0.07626935 0.02194060 0.03122081 
0.01972189 0.00853786 0.00287952 0.00992071 0.01288001 0.00154296 0.00658794 0.00661200 0.02492225 0.00660438 0.02298198 0.00157276 0.02430947 0.07519897 0.02170127 0.03051148 
0.01976383 0.00838965 0.00288811 0.01002717 0.01305306 0.00155983 0.00648586 0.00659798 0.02572279 0.00650145 0.02301842 0.00155919 0.02427328 0.07415106 0.02146088 0.02975535 
0.01980801 0.00826070 0.00289903 0.01013191 0.01321316 0.00157719 0.00638393 0.00658235 0.02652903 0.00639295 0.02303250 0.00154525 0.02424085 0.07312904 0.02121987 0.02895595 
0.01985459 0.00815157 0.00291224 0.01023469 0.01335927 0.00159487 0.00628221 0.00656527 0.02733765 0.00627937 0.02302360 0.00153097 0.02421193 0.07213615 0.02097862 0.02811699 
0.01990376 0.00806272 0.00292769 0.01033530 0.01349038 0.00161272 0.00618081 0.00654691 0.02814531 0.00616118 0.02299127 0.00151638 0.02418625 0.07117547 0.02073754 0.02724238 
0.01995570 0.00799455 0.00294532 0.01043352 0.01360558 0.00163058 0.00607983 0.00652745 0.02894869 0.00603891 0.02293514 0.00150151 0.02416344 0.07024989 0.02049699 0.02633620 
0.02001061 0.00794740 0.00296506 0.01052914 0.01370401 0.00164831 0.00597942 0.00650706 0.02974451 0.00591307 0.02285502 0.00148638 0.02414311 0.06936209 0.02025732 0.02540265 
0.02006867 0.00792154 0.00298680 0.01062195 0.01378492 0.00166577 0.00587973 0.00648593 0.03052957 0.00578422 0.02275081 0.00147104 0.02412482 0.06851457 0.02001889 0.02444607 
0.02013006 0.00791717 0.00301045 0.01071175 0.01384763 0.00168282 0.00578093 0.00646425 0.03130074 0.00565288 0.02262258 0.00145550 0.02410804 0.06770961 0.01978201 0.02347092 
0.02019496 0.00793441 0.00303587 0.01079837 0.01389155 0.00169935 0.00568322 0.00644220 0.03205503 0.00551962 0.02247053 0.00143981 0.02409222 0.06694929 0.01954702 0.02248170 
0.02026350 0.00797334 0.00306293 0.01088161 0.01391617 0.00171523 0.00558683 0.00641996 0.03278957 0.00538500 0.02229500 0.00142399 0.02407677 0.06623543 0.01931420 0.02148301 
0.02033583 0.00803396 0.00309150 0.01096132 0.01392111 0.00173035 0.00549201 0.00639773 0.03350168 0.00524957 0.02209648 0.00140807 0.02406103 0.06556967 0.01908387 0.02047946 
0.02041205 0.00811621 0.00312140 0.01103733 0.01390608 0.00174462 0.00539901 0.00637569 0.03418887 0.00511390 0.02187560 0.00139209 0.02404431 0.06495339 0.01885630 0.01947570 
0.02049223 0.00821997 0.00315247 0.01110950 0.01387087 0.00175795 0.00530814 0.00635399 0.03484886 0.00497853 0.02163313 0.00137609 0.02402590 0.06438774 0.01863177 0.01847636 
0.02057640 0.00834504 0.00318454 0.01117770 0.01381540 0.00177026 0.00521969 0.00633283 0.03547961 0.00484402 0.02137000 0.00136009 0.02400503 0.06387364 0.01841056 0.01748604 
0.02066459 0.00849121 0.00321743 0.01124181 0.01373970 0.00178149 0.00513399 0.00631234 0.03607932 0.00471091 0.02108726 0.00134413 0.02398092 0.06341176 0.01819292 0.01650930 
0.02075674 0.00865817 0.00325093 0.01130173 0.01364389 0.00179157 0.00505141 0.00629270 0.03664650 0.00457971 0.02078610 0.00132825 0.02395276 0.06300253 0.01797911 0.01555062 
0.02085279 0.00884557 0.00328486 0.01135736 0.01352821 0.00180047 0.00497230 0.00627404 0.03717990 0.00445095 0.02046783 0.00131247 0.02391974 0.06264617 0.01776937 0.01461439 
0.02095260 0.00905301 0.00331902 0.01140864 0.01339300 0.00180816 0.00489704 0.00625650 0.03767863 0.00432512 0.02013392 0.00129685 0.02388103 0.06234262 0.01756397 0.01370490 
0.02105599 0.00928005 0.00335320 0.01145549 0.01323872 0.00181461 0.00482603 0.00624019 0.03814205 0.00420269 0.01978591 0.00128140 0.02383578 0.06209160 0.01736312 0.01282629 
0.02116275 0.00952619 0.00338720 0.01149787 0.01306591 0.00181981 0.00475967 0.00622524 0.03856990 0.00408411 0.01942550 0.00126617 0.02378318 0.06189260 0.01716707 0.01198256 
0.02127260 0.00979090 0.00342082 0.01153575 0.01287524 0.00182376 0.00469838 0.00621173 0.03896221 0.00396983 0.01905447 0.00125120 0.02372240 0.06174487 0.01697604 0.01117754 
0.02138521 0.01007357 0.00345385 0.01156912 0.01266746 0.00182649 0.00464258 0.00619977 0.03931936 0.00386025 0.01867470 0.00123652 0.02365264 0.06164744 0.01679026 0.01041488 
0.02150020 0.01037361 0.00348611 0.01159797 0.01244342 0.00182800 0.00459269 0.00618941 0.03964206 0.00375575 0.01828816 0.00122216 0.02357314 0.06159911 0.01660995 0.00969802 
0.02161714 0.01069033 0.00351738 0.01162233 0.01220407 0.00182835 0.00454913 0.00618073 0.03993136 0.00365667 0.01789689 0.00120817 0.02348314 0.06159847 0.01643530 0.00903017 
0.02173554 0.01102304 0.00354750 0.01164222 0.01195044 0.00182756 0.00451233 0.00617378 0.04018862 0.00356335 0.01750302 0.00119458 0.02338196 0.06164389 0.01626654 0.00841433 
0.02185489 0.01137102 0.00357627 0.01165769 0.01168364 0.00182569 0.00448271 0.00616859 0.04041553 0.00347607 0.01710872 0.00118142 0.02326892 0.06173356 0.01610385 0.00785324 
0.02197459 0.01173349 0.00360352 0.01166881 0.01140487 0.00182282 0.00446067 0.00616519 0.04061409 0.00339508 0.01671619 0.00116874 0.02314345 0.06186545 0.01594742 0.00734939 
0.02209403 0.01210966 0.00362910 0.01167565 0.01111537 0.00181899 0.00444661 0.00616361 0.04078659 0.00332062 0.01632770 0.00115657 0.02300499 0.06203737 0.01579743 0.00690500 
0.02221254 0.01249870 0.00365284 0.01167831 0.01081649 0.00181430 0.00444091 0.00616383 0.04093561 0.00325288 0.01594552 0.00114494 0.02285308 0.06224694 0.01565406 0.00652200 
0.02232941 0.01289977 0.00367461 0.01167688 0.01050960 0.00180883 0.00444393 0.00616586 0.04106397 0.00319200 0.01557193 0.00113389 0.02268733 0.06249164 0.01551745 0.00620205 
0.02244391 0.01331199 0.00369428 0.01167150 0.01019612 0.00180267 0.00445601 0.00616968 0.04117476 0.00313812 0.01520921 0.00112346 0.02250742 0.06276878 0.01538776 0.00594651 
0.02255527 0.01373446 0.00371174 0.01166230 0.00987755 0.00179591 0.00447748 0.00617527 0.04127126 0.00309131 0.01485962 0.00111367 0.02231313 0.06307554 0.01526513 0.00575644 
0.02266268 0.01416626 0.00372689 0.01164942 0.00955537 0.00178865 0.00450862 0.00618258 0.04135697 0.00305162 0.01452539 0.00110455 0.02210432 0.06340901 0.01514966 0.00563260 
0.02276534 0.01460644 0.00373966 0.01163303 0.00923114 0.00178101 0.00454969 0.00619159 0.04143552 0.00301908 0.01420871 0.00109615 0.02188095 0.06376612 0.01504146 0.00557543 
0.02286240 0.01505406 0.00374997 0.01161329 0.00890640 0.00177307 0.00460093 0.00620224 0.04151069 0.00299366 0.01391171 0.00108848 0.02164307 0.06414376 0.01494063 0.00558508 
0.02295304 0.01550814 0.00375778 0.01159040 0.00858271 0.00176496 0.00466252 0.00621448 0.04158638 0.00297531 0.01363646 0.00108158 0.02139086 0.06453873 0.01484724 0.00566138 
0.02303639 0.01596768 0.00376306 0.01156453 0.00826164 0.00175678 0.00473462 0.00622824 0.04166653 0.00296394 0.01338495 0.00107546 0.02112456 0.06494777 0.01476134 0.00580387 
0.02311161 0.01643169 0.00376581 0.01153589 0.00794475 0.00174863 0.00481735 0.00624347 0.04175513 0.00295942 0.01315905 0.00107017 0.02084455 0.06536758 0.01468295 0.00601176 
0.02317786 0.01689915 0.00376602 0.01150469 0.00763357 0.00174064 0.00491078 0.00626010 0.04185618 0.00296161 0.01296055 0.00106571 0.02055132 0.06579486 0.01461211 0.00628399 
0.02323433 0.01736903 0.00376374 0.01147115 0.00732962 0.00173290 0.00501494 0.00627805 0.04197363 0.00297032 0.01279112 0.00106212 0.02024544 0.06622629 0.01454880 0.00661918 
0.02328019 0.01784030 0.00375899 0.01143549 0.00703439 0.00172551 0.00512982 0.00629726 0.04211136 0.00298533 0.01265229 0.00105940 0.01992760 0.06665858 0.01449300 0.00701568 
0.02331467 0.01831193 0.00375187 0.01139793 0.00674932 0.00171858 0.00525536 0.00631765 0.04227315 0.00300642 0.01254547 0.00105757 0.01959859 0.06708848 0.01444466 0.00747155 
0.02333702 0.01878288 0.00374244 0.01135871 0.00647581 0.00171221 0.00539145 0.00633915 0.04246264 0.00303330 0.01247190 0.00105665 0.01925931 0.06751279 0.01440371 0.00798460 
0.02334653 0.01925209 0.00373082 0.01131807 0.00621520 0.00170648 0.00553796 0.00636168 0.04268329 0.00306570 0.01243268 0.00105664 0.01891075 0.06792839 0.01437006 0.00855236 
0.02334252 0.01971852 0.00371712 0.01127624 0.00596876 0.00170149 0.00569466 0.00638517 0.04293835 0.00310329 0.01242873 0.00105756 0.01855400 0.06833227 0.01434360 0.00917211 
0.02332438 0.02018113 0.00370151 0.01123345 0.00573769 0.00169730 0.00586133 0.00640955 0.04323082 0.00314573 0.01246082 0.00105941 0.01819023 0.06872152 0.01432420 0.00984093 
0.02329153 0.02063887 0.00368412 0.01118994 0.00552313 0.00169400 0.00603766 0.00643474 0.04356342 0.00319268 0.01252952 0.00106219 0.01782069 0.06909337 0.01431171 0.01055566 
0.02324346 0.02109073 0.00366516 0.01114595 0.00532612 0.00169165 0.00622332 0.00646068 0.04393857 0.00324376 0.01263522 0.00106590 0.01744671 0.06944520 0.01430594 0.01131293 
0.02317973 0.02153566 0.00364480 0.01110171 0.00514761 0.00169031 0.00641793 0.00648730 0.04435837 0.00329859 0.01277812 0.00107053 0.01706969 0.06977458 0.01430671 0.01210920 
0.02309995 0.02197266 0.00362326 0.01105744 0.00498847 0.00169003 0.00662104 0.00651454 0.04482451 0.00335678 0.01295824 0.00107608 0.01669109 0.07007925 0.01431380 0.01294075 
0.02300380 0.02240073 0.00360077 0.01101335 0.00484945 0.00169086 0.00683221 0.00654233 0.04533836 0.00341790 0.01317539 0.00108254 0.01631242 0.07035715 0.01432697 0.01380374 
0.02289106 0.02281889 0.00357757 0.01096967 0.00473122 0.00169281 0.00705090 0.00657061 0.04590083 0.00348156 0.01342921 0.00108988 0.01593523 0.07060645 0.01434599 0.01469415 
0.02276155 0.02322618 0.00355391 0.01092660 0.00463431 0.00169593 0.00727659 0.00659933 0.04651243 0.00354733 0.01371911 0.00109810 0.01556109 0.07082555 0.01437059 0.01560790 
0.02261519 0.02362165 0.00353006 0.01088433 0.00455918 0.00170022 0.00750866 0.00662844 0.04717322 0.00361479 0.01404434 0.00110716 0.01519161 0.07101310 0.01440048 0.01654080 
0.02245197 0.02400439 0.00350629 0.01084304 0.00450614 0.00170568 0.00774652 0.00665788 0.04788284 0.00368352 0.01440393 0.00111705 0.01482840 0.07116799 0.01443539 0.01748859 
0.02227198 0.02437351 0.00348288 0.01080291 0.00447541 0.00171233 0.00798950 0.00668760 0.04864044 0.00375310 0.01479674 0.00112773 0.01447307 0.07128939 0.01447500 0.01844698 
0.02207536 0.02472816 0.00346012 0.01076408 0.00446709 0.00172013 0.00823692 0.00671755 0.04944471 0.00382312 0.01522145 0.00113917 0.01412723 0.07137674 0.01451900 0.01941164 
0.02186235 0.02506751 0.00343831 0.01072671 0.00448115 0.00172908 0.00848809 0.00674770 0.05029389 0.00389317 0.01567656 0.00115134 0.01379244 0.07142976 0.01456707 0.02037827 
0.02163328 0.02539079 0.00341776 0.01069092 0.00451745 0.00173913 0.00874226 0.00677799 0.05118575 0.00396285 0.01616038 0.00116420 0.01347026 0.07144846 0.01461889 0.02134257 
0.02138854 0.02569725 0.00339875 0.01065682 0.00457575 0.00175025 0.00899871 0.00680838 0.05211761 0.00403178 0.01667109 0.00117769 0.01316217 0.07143312 0.01467413 0.02230030 
0.02112861 0.02598619 0.00338160 0.01062451 0.00465568 0.00176240 0.00925666 0.00683884 0.05308636 0.00409959 0.01720669 0.00119179 0.01286961 0.07138432 0.01473245 0.02324728 
0.02085405 0.02625696 0.00336660 0.01059406 0.00475676 0.00177551 0.00951535 0.00686931 0.05408843 0.00416592 0.01776504 0.00120643 0.01259395 0.07130293 0.01479352 0.02417945 
0.02056549 0.02650896 0.00335406 0.01056552 0.00487840 0.00178951 0.00977399 0.00689976 0.05511986 0.00423044 0.01834389 0.00122157 0.01233649 0.07119009 0.01485701 0.02509284 
0.02026364 0.02674163 0.00334427 0.01053894 0.00501990 0.00180435 0.01003179 0.00693013 0.05617630 0.00429284 0.01894085 0.00123714 0.01209843 0.07104724 0.01492258 0.02598362 
0.01994926 0.02695449 0.00333750 0.01051432 0.00518047 0.00181994 0.01028798 0.00696040 0.05725302 0.00435281 0.01955341 0.00125310 0.01188087 0.07087606 0.01498993 0.02684815 
0.01962319 0.02714709 0.00333405 0.01049168 0.00535921 0.00183619 0.01054177 0.00699051 0.05834496 0.00441010 0.02017899 0.00126938 0.01168481 0.07067853 0.01505871 0.02768294 
0.01928633 0.02731905 0.00333418 0.01047097 0.00555514 0.00185301 0.01079238 0.00702042 0.05944677 0.00446445 0.02081492 0.00128592 0.01151113 0.07045685 0.01512863 0.02848473 
0.01893964 0.02747007 0.00333814 0.01045217 0.00576718 0.00187031 0.01103904 0.00705008 0.06055279 0.00451564 0.02145845 0.00130266 0.01136058 0.07021348 0.01519939 0.02925046 
0.01858411 0.02759990 0.00334617 0.01043519 0.00599418 0.00188799 0.01128101 0.00707943 0.06165716 0.00456350 0.02210678 0.00131952 0.01123379 0.06995110 0.01527069 0.02997732 
0.01822081 0.02770834 0.00335850 0.01041997 0.00623490 0.00190594 0.01151755 0.00710843 0.06275382 0.00460785 0.02275709 0.00133645 0.01113126 0.06967258 0.01534226 0.03066275 
0.01785083 0.02779529 0.00337534 0.01040638 0.00648804 0.00192406 0.01174793 0.00713702 0.06383653 0.00464857 0.02340652 0.00135337 0.01105331 0.06938102 0.01541383 0.03130449 
0.01747530 0.02786070 0.00339687 0.01039431 0.00675224 0.00194224 0.01197147 0.00716513 0.06489896 0.00468556 0.02405221 0.00137022 0.01100017 0.06907965 0.01548516 0.03190053 
0.01709538 0.02790460 0.00342326 0.01038361 0.00702609 0.00196036 0.01218751 0.00719271 0.06593472 0.00471874 0.02469130 0.00138692 0.01097188 0.06877188 0.01555601 0.03244918 
0.01671227 0.02792707 0.00345466 0.01037411 0.00730813 0.00197832 0.01239540 0.00721970 0.06693737 0.00474808 0.02532097 0.00140341 0.01096833 0.06846124 0.01562616 0.03294906 
0.01632716 0.02792829 0.00349118 0.01036564 0.00759686 0.00199600 0.01259454 0.00724601 0.06790053 0.00477357 0.02593841 0.00141961 0.01098928 0.06815136 0.01569541 0.03339911 
0.01594128 0.02790849 0.00353293 0.01035800 0.00789076 0.00201328 0.01278436 0.00727159 0.06881787 0.00479525 0.02654091 0.00143546 0.01103433 0.06784597 0.01576358 0.03379859 
0.01555585 0.02786798 0.00357996 0.01035098 0.00818829 0.00203006 0.01296433 0.00729636 0.06968320 0.00481316 0.02712578 0.00145089 0.01110291 0.06754885 0.01583050 0.03414712 
0.01517212 0.02780715 0.00363233 0.01034435 0.00848787 0.00204623 0.01313395 0.00732024 0.07049049 0.00482739 0.02769045 0.00146583 0.01119432 0.06726381 0.01589602 0.03444461 
0.01479130 0.02772645 0.00369004 0.01033787 0.00878796 0.00206169 0.01329277 0.00734316 0.07123391 0.00483807 0.02823244 0.00148022 0.01130771 0.06699467 0.01596000 0.03469135 
0.01441461 0.02762639 0.00375309 0.01033129 0.00908700 0.00207632 0.01344038 0.00736504 0.07190793 0.00484533 0.02874936 0.00149398 0.01144210 0.06674524 0.01602235 0.03488794 
0.01404326 0.02750755 0.00382142 0.01032436 0.00938345 0.00209003 0.01357641 0.00738579 0.07250730 0.00484936 0.02923898 0.00150707 0.01159635 0.06651926 0.01608295 0.03503534 
0.01367843 0.02737060 0.00389496 0.01031681 0.00967578 0.00210272 0.01370053 0.00740534 0.07302712 0.00485036 0.02969919 0.00151943 0.01176921 0.06632044 0.01614174 0.03513480 
0.01332127 0.02721625 0.00397360 0.01030837 0.00996252 0.00211432 0.01381248 0.00742359 0.07346288 0.00484856 0.03012802 0.00153099 0.01195930 0.06615236 0.01619864 0.03518794 
0.01297290 0.02704526 0.00405722 0.01029876 0.01024221 0.00212472 0.01391201 0.00744048 0.07381052 0.00484421 0.03052367 0.00154171 0.01216514 0.06601849 0.01625360 0.03519665 
0.01263443 0.02685848 0.00414563 0.01028772 0.01051345 0.00213385 0.01399896 0.00745591 0.07406641 0.00483760 0.03088450 0.00155153 0.01238514 0.06592217 0.01630661 0.03516313 
0.01230690 0.02665678 0.00423864 0.01027496 0.01077489 0.00214165 0.01407319 0.00746981 0.07422744 0.00482901 0.03120906 0.00156042 0.01261759 0.06586655 0.01635763 0.03508988 
0.01199132 0.02644111 0.00433602 0.01026021 0.01102526 0.00214805 0.01413461 0.00748209 0.07429102 0.00481877 0.03149607 0.00156834 0.01286075 0.06585461 0.01640666 0.03497966 
0.01168865 0.02621244 0.00443752 0.01024322 0.01126333 0.00215299 0.01418318 0.00749269 0.07425513 0.00480722 0.03174444 0.00157524 0.01311278 0.06588908 0.01645372 0.03483547 
0.01139978 0.02597182 0.00454285 0.01022373 0.01148797 0.00215643 0.01421891 0.00750152 0.07411828 0.00479469 0.03195331 0.00158111 0.01337176 0.06597250 0.01649881 0.03466056 
0.01112559 0.02572029 0.00465168 0.01020148 0.01169813 0.00215832 0.01424187 0.00750851 0.07387963 0.00478157 0.03212197 0.00158591 0.01363578 0.06610714 0.01654197 0.03445838 
0.01086684 0.02545898 0.00476369 0.01017625 0.01189282 0.00215863 0.01425214 0.00751361 0.07353890 0.00476821 0.03224994 0.00158962 0.01390284 0.06629499 0.01658324 0.03423257 
0.01062429 0.02518901 0.00487850 0.01014782 0.01207117 0.00215734 0.01424989 0.00751674 0.07309646 0.00475501 0.03233696 0.00159223 0.01417096 0.06653777 0.01662265 0.03398691 
0.01039859 0.02491154 0.00499572 0.01011598 0.01223242 0.00215444 0.01423531 0.00751786 0.07255328 0.00474235 0.03238295 0.00159373 0.01443814 0.06683689 0.01666028 0.03372536 
0.01019036 0.02462776 0.00511493 0.01008055 0.01237587 0.00214991 0.01420862 0.00751691 0.07191097 0.00473063 0.03238806 0.00159412 0.01470240 0.06719347 0.01669617 0.03345193 
0.01000011 0.02433887 0.00523570 0.01004136 0.01250095 0.00214377 0.01417011 0.00751384 0.07117175 0.00472023 0.03235261 0.00159339 0.01496176 0.06760829 0.01673040 0.03317074 
0.00982832 0.02404608 0.00535757 0.00999829 0.01260720 0.00213602 0.01412010 0.00750862 0.07033847 0.00471155 0.03227717 0.00159157 0.01521429 0.06808180 0.01676303 0.03288597 
0.00967539 0.02375061 0.00548008 0.00995121 0.01269427 0.00212669 0.01405894 0.00750122 0.06941455 0.00470498 0.03216246 0.00158865 0.01545813 0.06861415 0.01679414 0.03260178 
0.00954164 0.02345370 0.00560273 0.00990005 0.01276191 0.00211579 0.01398702 0.00749161 0.06840402 0.00470089 0.03200944 0.00158467 0.01569144 0.06920511 0.01682381 0.03232235 
0.00942732 0.02315657 0.00572504 0.00984472 0.01280999 0.00210338 0.01390477 0.00747978 0.06731147 0.00469967 0.03181921 0.00157964 0.01591249 0.06985415 0.01685211 0.03205178 
0.00933261 0.02286044 0.00584648 0.00978522 0.01283849 0.00208950 0.01381264 0.00746572 0.06614202 0.00470167 0.03159310 0.00157361 0.01611963 0.07056038 0.01687914 0.03179414 
0.00925763 0.02256654 0.00596655 0.00972152 0.01284751 0.00207419 0.01371113 0.00744942 0.06490129 0.00470725 0.03133256 0.00156659 0.01631130 0.07132259 0.01690497 0.03155334 
0.00920240 0.02227607 0.00608473 0.00965368 0.01283725 0.00205752 0.01360075 0.00743090 0.06359540 0.00471674 0.03103925 0.00155864 0.01648607 0.07213924 0.01692969 0.03133320 
0.00916690 0.02199021 0.00620049 0.00958174 0.01280802 0.00203957 0.01348204 0.00741017 0.06223089 0.00473045 0.03071495 0.00154981 0.01664262 0.07300849 0.01695340 0.03113733 
0.00915103 0.02171014 0.00631332 0.00950580 0.01276024 0.00202039 0.01335556 0.00738724 0.06081471 0.00474869 0.03036162 0.00154014 0.01677976 0.07392816 0.01697617 0.03096918 
0.00915460 0.02143700 0.00642270 0.00942599 0.01269445 0.00200008 0.01322191 0.00736215 0.05935416 0.00477174 0.02998131 0.00152969 0.01689644 0.07489580 0.01699810 0.03083194 
0.00917739 0.02117192 0.00652812 0.00934247 0.01261127 0.00197871 0.01308167 0.00733494 0.05785686 0.00479985 0.02957621 0.00151852 0.01699177 0.07590867 0.01701928 0.03072858 
0.00921908 0.02091600 0.00662908 0.00925543 0.01251143 0.00195639 0.01293547 0.00730564 0.05633067 0.00483325 0.02914863 0.00150670 0.01706500 0.07696377 0.01703981 0.03066176 
0.00927932 0.02067031 0.00672509 0.00916508 0.01239573 0.00193320 0.01278394 0.00727431 0.05478369 0.00487216 0.02870096 0.00149430 0.01711555 0.07805786 0.01705978 0.03063386 
0.00935765 0.02043586 0.00681569 0.00907168 0.01226508 0.00190926 0.01262770 0.00724100 0.05322417 0.00491676 0.02823568 0.00148138 0.01714300 0.07918746 0.01707929 0.03064694 
0.00945361 0.02021368 0.00690042 0.00897552 0.01212046 0.00188465 0.01246741 0.00720578 0.05166046 0.00496719 0.02775532 0.00146803 0.01714710 0.08034890 0.01709845 0.03070269 
0.00956662 0.02000472 0.00697885 0.00887690 0.01196293 0.00185949 0.01230371 0.00716870 0.05010099 0.00502360 0.02726248 0.00145432 0.01712776 0.08153831 0.01711736 0.03080247 
0.00969610 0.01980991 0.00705058 0.00877615 0.01179362 0.00183388 0.01213726 0.00712986 0.04855415 0.00508607 0.02675981 0.00144032 0.01708507 0.08275169 0.01713615 0.03094724 
0.00984139 0.01963014 0.00711521 0.00867364 0.01161371 0.00180794 0.01196869 0.00708931 0.04702832 0.00515468 0.02624996 0.00142613 0.01701930 0.08398488 0.01715492 0.03113760 
0.01000178 0.01946627 0.00717241 0.00856975 0.01142444 0.00178178 0.01179866 0.00704714 0.04553172 0.00522947 0.02573561 0.00141181 0.01693088 0.08523364 0.01717381 0.03137372 
0.01017651 0.01931910 0.00722184 0.00846487 0.01122710 0.00175551 0.01162779 0.00700343 0.04407246 0.00531045 0.02521943 0.00139746 0.01682039 0.08649364 0.01719295 0.03165539 
0.01036480 0.01918941 0.00726323 0.00835942 0.01102302 0.00172923 0.01145673 0.00695828 0.04265838 0.00539760 0.02470408 0.00138315 0.01668859 0.08776049 0.01721248 0.03198198 
0.01056580 0.01907793 0.00729632 0.00825384 0.01081354 0.00170307 0.01128608 0.00691176 0.04129709 0.00549089 0.02419218 0.00136898 0.01653640 0.08902979 0.01723257 0.03235245 
0.01077866 0.01898537 0.00732091 0.00814857 0.01060005 0.00167712 0.01111645 0.00686397 0.03999585 0.00559022 0.02368632 0.00135501 0.01636488 0.09029715 0.01725336 0.03276536 
0.01100245 0.01891236 0.00733681 0.00804406 0.01038393 0.00165150 0.01094841 0.00681500 0.03876160 0.00569551 0.02318902 0.00134133 0.01617524 0.09155821 0.01727505 0.03321887 
0.01123625 0.01885954 0.00734390 0.00794076 0.01016657 0.00162630 0.01078254 0.00676495 0.03760081 0.00580663 0.02270275 0.00132803 0.01596882 0.09280865 0.01729782 0.03371071 
0.01147909 0.01882747 0.00734208 0.00783913 0.00994938 0.00160162 0.01061938 0.00671389 0.03651954 0.00592341 0.02222989 0.00131517 0.01574709 0.09404427 0.01732186 0.03423827 
0.01173000 0.01881670 0.00733131 0.00773962 0.00973372 0.00157757 0.01045946 0.00666194 0.03552333 0.00604567 0.02177272 0.00130283 0.01551163 0.09526097 0.01734739 0.03479855 
0.01198796 0.01882772 0.00731159 0.00764268 0.00952095 0.00155423 0.01030326 0.00660918 0.03461721 0.00617322 0.02133344 0.00129108 0.01526413 0.09645479 0.01737464 0.03538819 
0.01225197 0.01886100 0.00728296 0.00754875 0.00931240 0.00153169 0.01015127 0.00655570 0.03380563 0.00630581 0.02091411 0.00128000 0.01500637 0.09762193 0.01740385 0.03600350 
0.01252098 0.01891697 0.00724551 0.00745825 0.00910937 0.00151002 0.01000392 0.00650159 0.03309246 0.00644321 0.02051670 0.00126963 0.01474022 0.09875880 0.01743528 0.03664048 
0.01279397 0.01899602 0.00719936 0.00737160 0.00891309 0.00148931 0.00986162 0.00644694 0.03248094 0.00658513 0.02014303 0.00126005 0.01446759 0.09986200 0.01746918 0.03729483 
0.01306989 0.01909849 0.00714470 0.00728917 0.00872477 0.00146963 0.00972475 0.00639185 0.03197369 0.00673129 0.01979479 0.00125130 0.01419047 0.10092837 0.01750584 0.03796200 
0.01334771 0.01922471 0.00708176 0.00721133 0.00854554 0.00145102 0.00959366 0.00633641 0.03157267 0.00688137 0.01947355 0.00124345 0.01391088 0.10195501 0.01754555 0.03863720 
0.01362638 0.01937497 0.00701079 0.00713841 0.00837647 0.00143356 0.00946867 0.00628069 0.03127917 0.00703506 0.01918068 0.00123653 0.01363086 0.10293928 0.01758861 0.03931545 
0.01390488 0.01954950 0.00693211 0.00707073 0.00821855 0.00141728 0.00935005 0.00622478 0.03109381 0.00719201 0.01891746 0.00123059 0.01335248 0.10387882 0.01763534 0.03999158 
0.01418219 0.01974851 0.00684606 0.00700856 0.00807271 0.00140224 0.00923805 0.00616878 0.03101654 0.00735187 0.01868496 0.00122565 0.01307778 0.10477156 0.01768606 0.04066029 
0.01445731 0.01997219 0.00675304 0.00695213 0.00793978 0.00138846 0.00913286 0.00611276 0.03104664 0.00751428 0.01848412 0.00122175 0.01280880 0.10561576 0.01774110 0.04131621 
0.01472926 0.02022066 0.00665349 0.00690164 0.00782049 0.00137596 0.00903467 0.00605682 0.03118269 0.00767886 0.01831570 0.00121892 0.01254753 0.10640997 0.01780079 0.04195386 
0.01499707 0.02049402 0.00654786 0.00685724 0.00771551 0.00136478 0.00894361 0.00600103 0.03142267 0.00784522 0.01818033 0.00121717 0.01229595 0.10715308 0.01786547 0.04256779 
0.01525980 0.02079233 0.00643665 0.00681905 0.00762539 0.00135491 0.00885976 0.00594548 0.03176387 0.00801299 0.01807844 0.00121651 0.01205594 0.10784429 0.01793548 0.04315251 
0.01551656 0.02111561 0.00632040 0.00678715 0.00755058 0.00134637 0.00878320 0.00589025 0.03220298 0.00818175 0.01801032 0.00121694 0.01182934 0.10848315 0.01801115 0.04370263 
0.01576646 0.02146382 0.00619968 0.00676155 0.00749143 0.00133914 0.00871394 0.00583544 0.03273610 0.00835112 0.01797609 0.00121848 0.01161786 0.10906951 0.01809283 0.04421284 
0.01600868 0.02183691 0.00607506 0.00674222 0.00744818 0.00133322 0.00865196 0.00578113 0.03335874 0.00852070 0.01797570 0.00122110 0.01142316 0.10960355 0.01818083 0.04467794 
0.01624241 0.02223476 0.00594715 0.00672910 0.00742098 0.00132860 0.00859723 0.00572742 0.03406588 0.00869008 0.01800898 0.00122481 0.01124676 0.11008579 0.01827547 0.04509293 
0.01646690 0.02265719 0.00581660 0.00672207 0.00740985 0.00132523 0.00854964 0.00567438 0.03485200 0.00885886 0.01807557 0.00122958 0.01109008 0.11051702 0.01837707 0.04545301 
0.01668142 0.02310401 0.00568405 0.00672096 0.00741472 0.00132310 0.00850909 0.00562213 0.03571112 0.00902664 0.01817498 0.00123538 0.01095439 0.11089837 0.01848589 0.04575363 
0.01688533 0.02357494 0.00555015 0.00672555 0.00743541 0.00132217 0.00847541 0.00557076 0.03663682 0.00919303 0.01830659 0.00124220 0.01084083 0.11123124 0.01860223 0.04599051 
0.01707800 0.02406966 0.00541558 0.00673558 0.00747163 0.00132238 0.00844842 0.00552038 0.03762231 0.00935764 0.01846961 0.00125000 0.01075040 0.11151728 0.01872632 0.04615970 
0.01725888 0.02458779 0.00528101 0.00675074 0.00752298 0.00132370 0.00842790 0.00547109 0.03866045 0.00952007 0.01866315 0.00125873 0.01068393 0.11175845 0.01885838 0.04625759 
0.01742744 0.02512890 0.00514712 0.00677068 0.00758899 0.00132607 0.00841361 0.00542300 0.03974386 0.00967996 0.01888618 0.00126836 0.01064212 0.11195689 0.01899861 0.04628096 
0.01758324 0.02569247 0.00501460 0.00679501 0.00766904 0.00132942 0.00840527 0.00537624 0.04086486 0.00983692 0.01913758 0.00127884 0.01062547 0.11211502 0.01914717 0.04622701 
0.01772587 0.02627796 0.00488410 0.00682329 0.00776248 0.00133371 0.00840258 0.00533092 0.04201565 0.00999060 0.01941608 0.00129012 0.01063433 0.11223541 0.01930418 0.04609335 
0.01785501 0.02688471 0.00475629 0.00685505 0.00786851 0.00133884 0.00840522 0.00528719 0.04318825 0.01014065 0.01972034 0.00130215 0.01066889 0.11232084 0.01946973 0.04587807 
0.01797037 0.02751203 0.00463181 0.00688979 0.00798629 0.00134477 0.00841283 0.00524516 0.04437463 0.01028671 0.02004892 0.00131486 0.01072916 0.11237422 0.01964386 0.04557973 
0.01807174 0.02815914 0.00451131 0.00692696 0.00811489 0.00135141 0.00842504 0.00520499 0.04556673 0.01042847 0.02040030 0.00132820 0.01081497 0.11239862 0.01982659 0.04519742 
0.01815895 0.02882519 0.00439538 0.00696601 0.00825329 0.00135869 0.00844146 0.00516681 0.04675653 0.01056560 0.02077289 0.00134211 0.01092599 0.11239718 0.02001787 0.04473070 
0.01823192 0.02950925 0.00428462 0.00700634 0.00840041 0.00136653 0.00846170 0.00513079 0.04793607 0.01069779 0.02116502 0.00135651 0.01106174 0.11237314 0.02021760 0.04417971 
0.01829060 0.03021032 0.00417958 0.00704736 0.00855514 0.00137485 0.00848532 0.00509708 0.04909756 0.01082476 0.02157498 0.00137135 0.01122154 0.11232979 0.02042565 0.04354509 
0.01833503 0.03092733 0.00408080 0.00708843 0.00871627 0.00138358 0.00851191 0.00506585 0.05023335 0.01094622 0.02200100 0.00138656 0.01140459 0.11227046 0.02064183 0.04282804 
0.01836528 0.03165910 0.00398876 0.00712892 0.00888259 0.00139263 0.00854100 0.00503726 0.05133609 0.01106191 0.02244129 0.00140207 0.01160990 0.11219846 0.02086588 0.04203032 
0.01838151 0.03240442 0.00390393 0.00716819 0.00905282 0.00140193 0.00857216 0.00501149 0.05239865 0.01117157 0.02289401 0.00141781 0.01183638 0.11211707 0.02109751 0.04115423 
0.01838392 0.03316196 0.00382671 0.00720559 0.00922567 0.00141140 0.00860493 0.00498871 0.05341429 0.01127499 0.02335732 0.00143372 0.01208275 0.11202956 0.02133637 0.04020259 
0.01837278 0.03393033 0.00375749 0.00724050 0.00939983 0.00142097 0.00863885 0.00496911 0.05437660 0.01137193 0.02382935 0.00144973 0.01234765 0.11193908 0.02158205 0.03917880 
0.01834839 0.03470808 0.00369659 0.00727226 0.00957397 0.00143055 0.00867346 0.00495287 0.05527961 0.01146219 0.02430827 0.00146577 0.01262957 0.11184871 0.02183409 0.03808676 
0.01831113 0.03549365 0.00364431 0.00730026 0.00974676 0.00144009 0.00870831 0.00494017 0.05611780 0.01154559 0.02479220 0.00148178 0.01292690 0.11176138 0.02209197 0.03693088 
0.01826143 0.03628545 0.00360086 0.00732390 0.00991687 0.00144951 0.00874294 0.00493120 0.05688612 0.01162197 0.02527932 0.00149771 0.01323794 0.11167989 0.02235513 0.03571607 
0.01819975 0.03708180 0.00356645 0.00734258 0.01008300 0.00145874 0.00877690 0.00492614 0.05758008 0.01169116 0.02576781 0.00151349 0.01356090 0.11160689 0.02262295 0.03444772 
0.01812661 0.03788095 0.00354120 0.00735575 0.01024387 0.00146773 0.00880976 0.00492517 0.05819568 0.01175304 0.02625591 0.00152906 0.01389390 0.11154480 0.02289475 0.03313167 
0.01804258 0.03868112 0.00352520 0.00736287 0.01039820 0.00147642 0.00884109 0.00492848 0.05872954 0.01180748 0.02674186 0.00154437 0.01423504 0.11149588 0.02316983 0.03177419 
0.01794824 0.03948046 0.00351849 0.00736344 0.01054480 0.00148476 0.00887048 0.00493622 0.05917883 0.01185439 0.02722398 0.00155938 0.01458233 0.11146212 0.02344742 0.03038192 
0.01784425 0.04027706 0.00352102 0.00735701 0.01068249 0.00149270 0.00889752 0.00494859 0.05954136 0.01189369 0.02770063 0.00157403 0.01493378 0.11144531 0.02372672 0.02896189 
0.01773127 0.04106899 0.00353275 0.00734315 0.01081016 0.00150020 0.00892184 0.00496572 0.05981553 0.01192531 0.02817023 0.00158829 0.01528736 0.11144698 0.02400689 0.02752145 
0.01761000 0.04185428 0.00355353 0.00732149 0.01092676 0.00150723 0.00894308 0.00498777 0.06000037 0.01194921 0.02863126 0.00160211 0.01564103 0.11146837 0.02428705 0.02606825 
0.01748116 0.04263093 0.00358319 0.00729168 0.01103131 0.00151374 0.00896089 0.00501489 0.06009553 0.01196536 0.02908228 0.00161547 0.01599279 0.11151047 0.02456629 0.02461017 
0.01734552 0.04339691 0.00362151 0.00725346 0.01112290 0.00151972 0.00897496 0.00504719 0.06010129 0.01197375 0.02952193 0.00162833 0.01634064 0.11157399 0.02484369 0.02315532 
0.01720383 0.04415020 0.00366820 0.00720658 0.01120072 0.00152515 0.00898499 0.00508479 0.06001854 0.01197439 0.02994892 0.00164067 0.01668259 0.11165933 0.02511827 0.02171198 
0.01705688 0.04488876 0.00372295 0.00715087 0.01126402 0.00153001 0.00899071 0.00512778 0.05984880 0.01196730 0.03036205 0.00165247 0.01701676 0.11176662 0.02538908 0.02028855 
0.01690545 0.04561058 0.00378539 0.00708621 0.01131219 0.00153429 0.00899189 0.00517624 0.05959415 0.01195253 0.03076021 0.00166372 0.01734126 0.11189567 0.02565510 0.01889350 
0.01675036 0.04631365 0.00385510 0.00701252 0.01134467 0.00153801 0.00898831 0.00523024 0.05925727 0.01193014 0.03114236 0.00167440 0.01765433 0.11204601 0.02591535 0.01753534 
0.01659238 0.04699598 0.00393164 0.00692980 0.01136102 0.00154115 0.00897979 0.00528980 0.05884139 0.01190021 0.03150759 0.00168451 0.01795426 0.11221686 0.02616883 0.01622258 
0.01643234 0.04765563 0.00401450 0.00683808 0.01136092 0.00154372 0.00896617 0.00535495 0.05835024 0.01186283 0.03185507 0.00169404 0.01823946 0.11240718 0.02641452 0.01496364 
0.01627101 0.04829071 0.00410318 0.00673749 0.01134414 0.00154575 0.00894734 0.00542568 0.05778809 0.01181813 0.03218405 0.00170301 0.01850842 0.11261560 0.02665143 0.01376684 
0.01610918 0.04889936 0.00419711 0.00662816 0.01131056 0.00154726 0.00892320 0.00550195 0.05715965 0.01176622 0.03249389 0.00171143 0.01875976 0.11284051 0.02687858 0.01264034 
0.01594762 0.04947982 0.00429571 0.00651031 0.01126020 0.00154826 0.00889370 0.00558371 0.05647006 0.01170725 0.03278406 0.00171929 0.01899222 0.11308001 0.02709500 0.01159210 
0.01578708 0.05003039 0.00439836 0.00638421 0.01119315 0.00154880 0.00885882 0.00567087 0.05572488 0.01164140 0.03305411 0.00172663 0.01920468 0.11333195 0.02729974 0.01062982 
0.01562830 0.05054944 0.00450444 0.00625019 0.01110965 0.00154890 0.00881856 0.00576332 0.05492998 0.01156883 0.03330370 0.00173345 0.01939613 0.11359391 0.02749186 0.00976088 
0.01547197 0.05103547 0.00461330 0.00610861 0.01101003 0.00154860 0.00877296 0.00586091 0.05409158 0.01148974 0.03353258 0.00173979 0.01956574 0.11386328 0.02767050 0.00899235 
0.01531879 0.05148705 0.00472428 0.00595988 0.01089474 0.00154795 0.00872211 0.00596348 0.05321613 0.01140433 0.03374059 0.00174567 0.01971279 0.11413719 0.02783477 0.00833086 
0.01516941 0.05190288 0.00483671 0.00580448 0.01076433 0.00154700 0.00866609 0.00607082 0.05231033 0.01131284 0.03392766 0.00175113 0.01983674 0.11441261 0.02798387 0.00778265 
0.01502445 0.05228178 0.00494991 0.00564291 0.01061948 0.00154579 0.00860506 0.00618271 0.05138103 0.01121549 0.03409382 0.00175619 0.01993719 0.11468630 0.02811701 0.00735346 
0.01488449 0.05262270 0.00506320 0.00547572 0.01046093 0.00154437 0.00853918 0.00629888 0.05043522 0.01111253 0.03423919 0.00176089 0.02001389 0.11495487 0.02823348 0.00704852 
0.01475008 0.05292472 0.00517591 0.00530348 0.01028957 0.00154281 0.00846865 0.00641906 0.04947994 0.01100423 0.03436396 0.00176526 0.02006676 0.11521479 0.02833259 0.00687252 
0.01462174 0.05318706 0.00528736 0.00512682 0.01010634 0.00154116 0.00839371 0.00654291 0.04852228 0.01089086 0.03446840 0.00176935 0.02009585 0.11546243 0.02841372 0.00682954 
0.01449995 0.05340908 0.00539691 0.00494638 0.00991230 0.00153946 0.00831459 0.00667011 0.04756930 0.01077269 0.03455286 0.00177320 0.02010138 0.11569402 0.02847630 0.00692307 
0.01438513 0.05359032 0.00550390 0.00476282 0.00970857 0.00153779 0.00823160 0.00680028 0.04662799 0.01065003 0.03461776 0.00177684 0.02008370 0.11590578 0.02851984 0.00715594 
0.01427768 0.05373044 0.00560772 0.00457683 0.00949636 0.00153620 0.00814504 0.00693303 0.04570520 0.01052317 0.03466357 0.00178031 0.02004334 0.11609384 0.02854388 0.00753031 
0.01417795 0.05382929 0.00570774 0.00438912 0.00927695 0.00153475 0.00805524 0.00706793 0.04480764 0.01039243 0.03469085 0.00178366 0.01998092 0.11625433 0.02854804 0.00804765 
0.01408625 0.05388686 0.00580341 0.00420040 0.00905168 0.00153349 0.00796256 0.00720454 0.04394181 0.01025813 0.03470019 0.00178693 0.01989722 0.11638339 0.02853203 0.00870874 
0.01400285 0.05390331 0.00589415 0.00401140 0.00882194 0.00153249 0.00786738 0.00734241 0.04311393 0.01012059 0.03469223 0.00179015 0.01979315 0.11647719 0.02849560 0.00951360 
0.01392797 0.05387897 0.00597946 0.00382284 0.00858917 0.00153178 0.00777010 0.00748106 0.04232996 0.00998014 0.03466766 0.00179336 0.01966973 0.11653197 0.02843857 0.01046153 
0.01386181 0.05381431 0.00605885 0.00363545 0.00835486 0.00153143 0.00767111 0.00761999 0.04159548 0.00983712 0.03462722 0.00179660 0.01952809 0.11654406 0.02836086 0.01155110 
0.01380452 0.05370998 0.00613186 0.00344995 0.00812051 0.00153148 0.00757087 0.00775870 0.04091575 0.00969186 0.03457165 0.00179991 0.01936945 0.11650989 0.02826243 0.01278011 
0.01375619 0.05356678 0.00619810 0.00326704 0.00788765 0.00153198 0.00746980 0.00789666 0.04029560 0.00954472 0.03450174 0.00180331 0.01919514 0.11642605 0.02814333 0.01414563 
0.01371692 0.05338568 0.00625718 0.00308742 0.00765784 0.00153298 0.00736836 0.00803336 0.03973941 0.00939603 0.03441829 0.00180683 0.01900656 0.11628932 0.02800369 0.01564398 
0.01368673 0.05316777 0.00630879 0.00291177 0.00743261 0.00153450 0.00726700 0.00816826 0.03925112 0.00924614 0.03432211 0.00181050 0.01880518 0.11609666 0.02784370 0.01727075 
0.01366565 0.05291431 0.00635263 0.00274075 0.00721351 0.00153658 0.00716621 0.00830083 0.03883418 0.00909540 0.03421403 0.00181434 0.01859254 0.11584527 0.02766364 0.01902082 
0.01365363 0.05262669 0.00638849 0.00257498 0.00700207 0.00153925 0.00706644 0.00843056 0.03849152 0.00894415 0.03409487 0.00181838 0.01837021 0.11553260 0.02746384 0.02088836 
0.01365064 0.05230642 0.00641616 0.00241507 0.00679979 0.00154254 0.00696817 0.00855690 0.03822557 0.00879273 0.03396545 0.00182263 0.01813982 0.11515639 0.02724473 0.02286685 
0.01365660 0.05195517 0.00643552 0.00226158 0.00660813 0.00154645 0.00687188 0.00867936 0.03803820 0.00864148 0.03382658 0.00182710 0.01790300 0.11471469 0.02700681 0.02494912 
0.01367141 0.05157468 0.00644646 0.00211506 0.00642853 0.00155102 0.00677803 0.00879742 0.03793073 0.00849075 0.03367905 0.00183180 0.01766141 0.11420588 0.02675063 0.02712739 
0.01369495 0.05116682 0.00644894 0.00197599 0.00626237 0.00155623 0.00668709 0.00891061 0.03790394 0.00834085 0.03352365 0.00183673 0.01741672 0.11362869 0.02647684 0.02939327 
0.01372708 0.05073357 0.00644296 0.00184484 0.00611096 0.00156210 0.00659952 0.00901845 0.03795806 0.00819211 0.03336113 0.00184191 0.01717058 0.11298225 0.02618614 0.03173780 
0.01376766 0.05027696 0.00642858 0.00172202 0.00597557 0.00156861 0.00651577 0.00912050 0.03809276 0.00804485 0.03319222 0.00184731 0.01692461 0.11226607 0.02587932 0.03415153 
0.01381651 0.04979912 0.00640589 0.00160790 0.00585737 0.00157576 0.00643627 0.00921635 0.03830714 0.00789938 0.03301762 0.00185295 0.01668042 0.11148009 0.02555723 0.03662452 
0.01387348 0.04930225 0.00637503 0.00150280 0.00575745 0.00158354 0.00636145 0.00930559 0.03859982 0.00775601 0.03283798 0.00185880 0.01643958 0.11062468 0.02522078 0.03914639 
0.01393837 0.04878858 0.00633620 0.00140700 0.00567685 0.00159191 0.00629170 0.00938787 0.03896883 0.00761502 0.03265395 0.00186486 0.01620360 0.10970069 0.02487097 0.04170640 
0.01401100 0.04826040 0.00628961 0.00132073 0.00561646 0.00160085 0.00622743 0.00946286 0.03941174 0.00747670 0.03246609 0.00187110 0.01597394 0.10870941 0.02450884 0.04429348 
0.01409119 0.04772002 0.00623554 0.00124417 0.00557711 0.00161033 0.00616899 0.00953028 0.03992562 0.00734132 0.03227498 0.00187751 0.01575198 0.10765262 0.02413550 0.04689628 
0.01417875 0.04716975 0.00617431 0.00117745 0.00555952 0.00162031 0.00611673 0.00958987 0.04050708 0.00720913 0.03208111 0.00188407 0.01553904 0.10653259 0.02375214 0.04950323 
0.01427350 0.04661195 0.00610624 0.00112066 0.00556429 0.00163073 0.00607098 0.00964143 0.04115227 0.00708040 0.03188496 0.00189074 0.01533636 0.10535210 0.02335999 0.05210261 
0.01437526 0.04604892 0.00603173 0.00107383 0.00559191 0.00164157 0.00603202 0.00968478 0.04185698 0.00695534 0.03168694 0.00189750 0.01514508 0.10411441 0.02296034 0.05468260 
0.01448385 0.04548296 0.00595118 0.00103695 0.00564275 0.00165275 0.00600012 0.00971980 0.04261658 0.00683419 0.03148744 0.00190431 0.01496625 0.10282331 0.02255456 0.05723133 
0.01459911 0.04491635 0.00586504 0.00100995 0.00571708 0.00166422 0.00597553 0.00974643 0.04342613 0.00671715 0.03128681 0.00191115 0.01480082 0.10148307 0.02214403 0.05973698 
0.01472088 0.04435131 0.00577375 0.00099272 0.00581502 0.00167592 0.00595845 0.00976462 0.04428038 0.00660442 0.03108535 0.00191798 0.01464964 0.10009846 0.02173023 0.06218779 
0.01484901 0.04379000 0.00567782 0.00098512 0.00593660 0.00168778 0.00594905 0.00977440 0.04517382 0.00649617 0.03088333 0.00192477 0.01451345 0.09867477 0.02131466 0.06457217 
0.01498337 0.04323453 0.00557776 0.00098695 0.00608169 0.00169974 0.00594748 0.00977582 0.04610069 0.00639256 0.03068098 0.00193148 0.01439287 0.09721773 0.02089886 0.06687872 
0.01512381 0.04268691 0.00547407 0.00099797 0.00625008 0.00171172 0.00595385 0.00976901 0.04705510 0.00629376 0.03047852 0.00193806 0.01428844 0.09573356 0.02048444 0.06909634 
0.01527022 0.04214909 0.00536730 0.00101791 0.00644139 0.00172365 0.00596823 0.00975411 0.04803099 0.00619989 0.03027611 0.00194450 0.01420055 0.09422895 0.02007302 0.07121424 
0.01542248 0.04162290 0.00525799 0.00104644 0.00665515 0.00173545 0.00599065 0.00973134 0.04902220 0.00611106 0.03007391 0.00195075 0.01412951 0.09271097 0.01966628 0.07322203 
0.01558051 0.04111006 0.00514670 0.00108323 0.00689078 0.00174706 0.00602111 0.00970094 0.05002254 0.00602739 0.02987206 0.00195677 0.01407548 0.09118715 0.01926592 0.07510980 
0.01574419 0.04061219 0.00503398 0.00112789 0.00714755 0.00175840 0.00605959 0.00966320 0.05102582 0.00594895 0.02967068 0.00196255 0.01403855 0.08966537 0.01887367 0.07686811 
0.01591344 0.04013078 0.00492038 0.00118000 0.00742463 0.00176939 0.00610600 0.00961847 0.05202586 0.00587582 0.02946987 0.00196803 0.01401868 0.08815386 0.01849128 0.07848811 
0.01608818 0.03966719 0.00480646 0.00123914 0.00772111 0.00177996 0.00616023 0.00956710 0.05301660 0.00580806 0.02926974 0.00197320 0.01401572 0.08666118 0.01812051 0.07996155 
0.01626833 0.03922264 0.00469275 0.00130483 0.00803593 0.00179004 0.00622215 0.00950951 0.05399209 0.00574570 0.02907041 0.00197803 0.01402942 0.08519614 0.01776316 0.08128087 
0.01645381 0.03879821 0.00457980 0.00137660 0.00836796 0.00179955 0.00629155 0.00944616 0.05494654 0.00568876 0.02887197 0.00198249 0.01405942 0.08376783 0.01742100 0.08243919 
0.01664454 0.03839484 0.00446813 0.00145395 0.00871596 0.00180844 0.00636822 0.00937750 0.05587438 0.00563726 0.02867456 0.00198657 0.01410530 0.08238550 0.01709583 0.08343040 
0.01684044 0.03801330 0.00435824 0.00153635 0.00907861 0.00181664 0.00645191 0.00930404 0.05677031 0.00559119 0.02847832 0.00199025 0.01416651 0.08105856 0.01678943 0.08424917 
0.01704142 0.03765422 0.00425061 0.00162328 0.00945452 0.00182409 0.00654231 0.00922632 0.05762929 0.00555052 0.02828341 0.00199351 0.01424242 0.07979651 0.01650358 0.08489100 
0.01724739 0.03731808 0.00414573 0.00171420 0.00984220 0.00183074 0.00663911 0.00914487 0.05844660 0.00551523 0.02809002 0.00199635 0.01433234 0.07860892 0.01624001 0.08535224 
0.01745824 0.03700519 0.00404402 0.00180856 0.01024011 0.00183653 0.00674194 0.00906027 0.05921791 0.00548527 0.02789838 0.00199876 0.01443549 0.07750534 0.01600047 0.08563013 
0.01767385 0.03671570 0.00394592 0.00190583 0.01064665 0.00184143 0.00685040 0.00897309 0.05993923 0.00546057 0.02770874 0.00200075 0.01455102 0.07649525 0.01578662 0.08572280 
0.01789409 0.03644961 0.00385180 0.00200545 0.01106015 0.00184539 0.00696409 0.00888392 0.06060703 0.00544105 0.02752141 0.00200232 0.01467803 0.07558802 0.01560013 0.08562931 
0.01811880 0.03620677 0.00376204 0.00210687 0.01147893 0.00184839 0.00708254 0.00879335 0.06121818 0.00542664 0.02733675 0.00200347 0.01481555 0.07479284 0.01544259 0.08534962 
0.01834781 0.03598686 0.00367695 0.00220956 0.01190124 0.00185039 0.00720528 0.00870196 0.06177003 0.00541723 0.02715514 0.00200423 0.01496258 0.07411868 0.01531552 0.08488467 
0.01858091 0.03578941 0.00359684 0.00231299 0.01232533 0.00185139 0.00733181 0.00861035 0.06226040 0.00541271 0.02697705 0.00200461 0.01511805 0.07357417 0.01522039 0.08423629 
0.01881790 0.03561382 0.00352198 0.00241664 0.01274940 0.00185138 0.00746160 0.00851909 0.06268761 0.00541295 0.02680298 0.00200463 0.01528088 0.07316762 0.01515859 0.08340728 
0.01905850 0.03545933 0.00345258 0.00251999 0.01317168 0.00185034 0.00759410 0.00842874 0.06305047 0.00541783 0.02663350 0.00200434 0.01544996 0.07290690 0.01513141 0.08240133 
0.01930244 0.03532504 0.00338885 0.00262256 0.01359038 0.00184828 0.00772875 0.00833986 0.06334831 0.00542721 0.02646924 0.00200374 0.01562415 0.07279939 0.01514006 0.08122307 
0.01954939 0.03520994 0.00333094 0.00272387 0.01400370 0.00184522 0.00786498 0.00825298 0.06358097 0.00544093 0.02631089 0.00200290 0.01580229 0.07285196 0.01518563 0.07987799 
0.01979902 0.03511288 0.00327896 0.00282346 0.01440989 0.00184118 0.00800219 0.00816859 0.06374881 0.00545883 0.02615918 0.00200184 0.01598323 0.07307085 0.01526910 0.07837246 
0.02005092 0.03503259 0.00323301 0.00292089 0.01480719 0.00183618 0.00813977 0.00808718 0.06385270 0.00548076 0.02601494 0.00200062 0.01616580 0.07346167 0.01539133 0.07671370 
0.02030468 0.03496770 0.00319313 0.00301575 0.01519391 0.00183026 0.00827712 0.00800918 0.06389401 0.00550652 0.02587903 0.00199927 0.01634885 0.07402929 0.01555302 0.07490972 
0.02055984 0.03491674 0.00315932 0.00310765 0.01556838 0.00182345 0.00841363 0.00793501 0.06387459 0.00553595 0.02575238 0.00199786 0.01653123 0.07477785 0.01575478 0.07296928 
0.02081591 0.03487815 0.00313157 0.00319623 0.01592896 0.00181582 0.00854867 0.00786504 0.06379680 0.00556886 0.02563595 0.00199645 0.01671182 0.07571066 0.01599701 0.07090188 
0.02107234 0.03485028 0.00310981 0.00328115 0.01627411 0.00180741 0.00868164 0.00779960 0.06366343 0.00560505 0.02553079 0.00199508 0.01688951 0.07683020 0.01628001 0.06871770 
0.02132856 0.03483143 0.00309395 0.00336209 0.01660232 0.00179830 0.00881192 0.00773898 0.06347773 0.00564433 0.02543796 0.00199381 0.01706322 0.07813802 0.01660386 0.06642753 
0.02158398 0.03481983 0.00308385 0.00343877 0.01691217 0.00178853 0.00893891 0.00768343 0.06324334 0.00568650 0.02535859 0.00199272 0.01723191 0.07963479 0.01696850 0.06404273 
0.02183794 0.03481366 0.00307936 0.00351093 0.01720229 0.00177820 0.00906202 0.00763314 0.06296431 0.00573135 0.02529381 0.00199186 0.01739457 0.08132018 0.01737370 0.06157519 
0.02208978 0.03481107 0.00308029 0.00357835 0.01747142 0.00176738 0.00918067 0.00758827 0.06264504 0.00577867 0.02524482 0.00199130 0.01755024 0.08319288 0.01781902 0.05903724 
0.02233879 0.03481019 0.00308642 0.00364082 0.01771839 0.00175616 0.00929429 0.00754893 0.06229025 0.00582826 0.02521282 0.00199110 0.01769799 0.08525060 0.01830385 0.05644160 
0.02258423 0.03480914 0.00309750 0.00369818 0.01794209 0.00174461 0.00940235 0.00751516 0.06190494 0.00587991 0.02519901 0.00199131 0.01783696 0.08748999 0.01882739 0.05380131 
0.02282535 0.03480602 0.00311325 0.00375028 0.01814154 0.00173284 0.00950431 0.00748698 0.06149438 0.00593340 0.02520462 0.00199201 0.01796633 0.08990671 0.01938863 0.05112967 
0.02306136 0.03479898 0.00313340 0.00379701 0.01831586 0.00172094 0.00959968 0.00746434 0.06106404 0.00598852 0.02523087 0.00199326 0.01808535 0.09249538 0.01998639 0.04844018 
0.02329146 0.03478617 0.00315761 0.00383828 0.01846426 0.00170900 0.00968799 0.00744716 0.06061957 0.00604506 0.02527895 0.00199510 0.01819332 0.09524957 0.02061928 0.04574642 
0.02351484 0.03476577 0.00318556 0.00387404 0.01858607 0.00169712 0.00976880 0.00743530 0.06016672 0.00610281 0.02535005 0.00199761 0.01828960 0.09816186 0.02128572 0.04306207 
0.02373067 0.03473605 0.00321690 0.00390425 0.01868072 0.00168540 0.00984170 0.00742857 0.05971137 0.00616155 0.02544531 0.00200082 0.01837363 0.10122385 0.02198393 0.04040073 
0.02393811 0.03469529 0.00325126 0.00392891 0.01874778 0.00167394 0.00990631 0.00742676 0.05925939 0.00622108 0.02556584 0.00200479 0.01844488 0.10442615 0.02271196 0.03777594 
0.02413634 0.03464189 0.00328827 0.00394802 0.01878690 0.00166283 0.00996228 0.00742959 0.05881668 0.00628119 0.02571268 0.00200956 0.01850294 0.10775843 0.02346767 0.03520106 
0.02432450 0.03457431 0.00332754 0.00396165 0.01879786 0.00165217 0.01000933 0.00743676 0.05838909 0.00634167 0.02588682 0.00201517 0.01854742 0.11120948 0.02424873 0.03268922 
0.02450179 0.03449111 0.00336869 0.00396984 0.01878058 0.00164206 0.01004717 0.00744792 0.05798236 0.00640233 0.02608917 0.00202166 0.01857803 0.11476725 0.02505265 0.03025323 
0.02466739 0.03439095 0.00341131 0.00397269 0.01873506 0.00163257 0.01007560 0.00746271 0.05760210 0.00646297 0.02632054 0.00202904 0.01859453 0.11841887 0.02587679 0.02790553 
0.02482049 0.03427263 0.00345502 0.00397030 0.01866143 0.00162381 0.01009442 0.00748070 0.05725375 0.00652339 0.02658167 0.00203735 0.01859677 0.12215074 0.02671833 0.02565814 
0.02496034 0.03413504 0.00349942 0.00396280 0.01855993 0.00161586 0.01010350 0.00750148 0.05694250 0.00658341 0.02687317 0.00204660 0.01858466 0.12594859 0.02757435 0.02352255 
0.02508619 0.03397722 0.00354412 0.00395032 0.01843093 0.00160878 0.01010274 0.00752457 0.05667331 0.00664285 0.02719553 0.00205680 0.01855818 0.12979757 0.02844178 0.02150972 
0.02519732 0.03379837 0.00358873 0.00393303 0.01827489 0.00160266 0.01009210 0.00754951 0.05645082 0.00670153 0.02754915 0.00206795 0.01851737 0.13368227 0.02931742 0.01962997 
0.02529308 0.03359780 0.00363288 0.00391111 0.01809239 0.00159756 0.01007156 0.00757579 0.05627932 0.00675928 0.02793424 0.00208004 0.01846235 0.13758687 0.03019799 0.01789295 
0.02537282 0.03337500 0.00367619 0.00388473 0.01788409 0.00159354 0.01004116 0.00760292 0.05616275 0.00681594 0.02835091 0.00209305 0.01839330 0.14149518 0.03108015 0.01630760 
0.02543599 0.03312960 0.00371833 0.00385409 0.01765079 0.00159065 0.01000099 0.00763038 0.05610463 0.00687136 0.02879910 0.00210698 0.01831048 0.14539075 0.03196044 0.01488210 
0.02548205 0.03286142 0.00375894 0.00381941 0.01739336 0.00158893 0.00995117 0.00765766 0.05610805 0.00692539 0.02927859 0.00212179 0.01821420 0.14925696 0.03283540 0.01362379 
0.02551054 0.03257043 0.00379770 0.00378090 0.01711276 0.00158844 0.00989187 0.00768423 0.05617564 0.00697789 0.02978900 0.00213743 0.01810482 0.15307711 0.03370152 0.01253919 
0.02552105 0.03225675 0.00383431 0.00373879 0.01681006 0.00158919 0.00982330 0.00770959 0.05630953 0.00702874 0.03032977 0.00215388 0.01798279 0.15683453 0.03455527 0.01163394 
0.02551326 0.03192070 0.00386848 0.00369331 0.01648638 0.00159121 0.00974572 0.00773324 0.05651138 0.00707782 0.03090019 0.00217107 0.01784858 0.16051267 0.03539314 0.01091278 
0.02548689 0.03156275 0.00389996 0.00364469 0.01614296 0.00159451 0.00965942 0.00775468 0.05678229 0.00712503 0.03149934 0.00218895 0.01770274 0.16409522 0.03621166 0.01037951 
0.02544175 0.03118355 0.00392849 0.00359318 0.01578106 0.00159909 0.00956474 0.00777345 0.05712286 0.00717026 0.03212615 0.00220745 0.01754587 0.16756618 0.03700740 0.01003698 
0.02537774 0.03078392 0.00395387 0.00353902 0.01540205 0.00160495 0.00946205 0.00778910 0.05753312 0.00721343 0.03277934 0.00222649 0.01737859 0.17090998 0.03777698 0.00988711 
0.02529481 0.03036482 0.00397589 0.00348245 0.01500734 0.00161208 0.00935176 0.00780119 0.05801259 0.00725448 0.03345748 0.00224600 0.01720161 0.17411159 0.03851714 0.00993083 
0.02519300 0.02992739 0.00399440 0.00342372 0.01459838 0.00162046 0.00923432 0.00780932 0.05856020 0.00729333 0.03415892 0.00226588 0.01701563 0.17715660 0.03922473 0.01016811 
0.02507244 0.02947292 0.00400925 0.00336307 0.01417670 0.00163006 0.00911018 0.00781314 0.05917436 0.00732995 0.03488188 0.00228605 0.01682143 0.18003133 0.03989670 0.01059796 
0.02493335 0.02900285 0.00402032 0.00330075 0.01374385 0.00164084 0.00897988 0.00781229 0.05985294 0.00736430 0.03562437 0.00230642 0.01661979 0.18272288 0.04053019 0.01121845 
0.02477601 0.02851876 0.00402754 0.00323700 0.01330140 0.00165276 0.00884392 0.00780649 0.06059329 0.00739636 0.03638426 0.00232686 0.01641155 0.18521930 0.04112248 0.01202669 
0.02460081 0.02802236 0.00403083 0.00317205 0.01285097 0.00166575 0.00870289 0.00779547 0.06139222 0.00742612 0.03715922 0.00234729 0.01619754 0.18750958 0.04167106 0.01301888 
0.02440821 0.02751550 0.00403017 0.00310614 0.01239418 0.00167978 0.00855735 0.00777902 0.06224607 0.00745360 0.03794681 0.00236759 0.01597865 0.18958380 0.04217361 0.01419032 
0.02419876 0.02700013 0.00402555 0.00303949 0.01193269 0.00169476 0.00840790 0.00775695 0.06315070 0.00747881 0.03874442 0.00238764 0.01575575 0.19143315 0.04262805 0.01553545 
0.02397309 0.02647832 0.00401699 0.00297234 0.01146813 0.00171063 0.00825518 0.00772914 0.06410152 0.00750179 0.03954930 0.00240734 0.01552974 0.19305004 0.04303250 0.01704787 
0.02373191 0.02595222 0.00400453 0.00290490 0.01100216 0.00172731 0.00809981 0.00769549 0.06509352 0.00752260 0.04035859 0.00242656 0.01530154 0.19442811 0.04338539 0.01872037 
0.02347600 0.02542407 0.00398825 0.00283737 0.01053641 0.00174472 0.00794244 0.00765598 0.06612131 0.00754130 0.04116930 0.00244520 0.01507205 0.19556233 0.04368536 0.02054501 
0.02320623 0.02489619 0.00396824 0.00276998 0.01007251 0.00176276 0.00778373 0.00761059 0.06717911 0.00755797 0.04197837 0.00246313 0.01484219 0.19644900 0.04393135 0.02251313 
0.02292354 0.02437095 0.00394461 0.00270292 0.00961206 0.00178136 0.00762433 0.00755939 0.06826087 0.00757272 0.04278263 0.00248024 0.01461286 0.19708582 0.04412259 0.02461540 
0.02262893 0.02385077 0.00391752 0.00263639 0.00915664 0.00180042 0.00746492 0.00750248 0.06936024 0.00758564 0.04357884 0.00249641 0.01438496 0.19747189 0.04425858 0.02684190 
0.02232347 0.02333810 0.00388711 0.00257057 0.00870780 0.00181984 0.00730615 0.00744000 0.07047062 0.00759686 0.04436372 0.00251155 0.01415937 0.19760774 0.04433915 0.02918214 
0.02200829 0.02283542 0.00385358 0.00250565 0.00826704 0.00183952 0.00714871 0.00737214 0.07158523 0.00760653 0.04513396 0.00252553 0.01393698 0.19749532 0.04436439 0.03162514 
0.02168458 0.02234519 0.00381712 0.00244179 0.00783581 0.00185937 0.00699323 0.00729914 0.07269714 0.00761479 0.04588620 0.00253826 0.01371861 0.19713802 0.04433474 0.03415950 
0.02135356 0.02186990 0.00377794 0.00237918 0.00741553 0.00187929 0.00684038 0.00722129 0.07379931 0.00762182 0.04661710 0.00254965 0.01350511 0.19654067 0.04425091 0.03677342 
0.02101652 0.02141199 0.00373628 0.00231797 0.00700755 0.00189919 0.00669080 0.00713889 0.07488464 0.00762777 0.04732335 0.00255960 0.01329727 0.19570947 0.04411393 0.03945483 
0.02067477 0.02097387 0.00369238 0.00225832 0.00661316 0.00191896 0.00654511 0.00705232 0.07594601 0.00763285 0.04800165 0.00256802 0.01309586 0.19465202 0.04392512 0.04219137 
0.02032965 0.02055793 0.00364649 0.00220039 0.00623359 0.00193851 0.00640391 0.00696198 0.07697636 0.00763726 0.04864877 0.00257485 0.01290162 0.19337724 0.04368610 0.04497053 
0.01998255 0.02016645 0.00359889 0.00214431 0.00587001 0.00195776 0.00626782 0.00686829 0.07796868 0.00764119 0.04926154 0.00258002 0.01271524 0.19189535 0.04339878 0.04777969 
0.01963485 0.01980168 0.00354985 0.00209022 0.00552349 0.00197661 0.00613739 0.00677172 0.07891611 0.00764488 0.04983691 0.00258346 0.01253738 0.19021780 0.04306533 0.05060616 
0.01928794 0.01946575 0.00349964 0.00203826 0.00519504 0.00199499 0.00601316 0.00667278 0.07981195 0.00764853 0.05037191 0.00258513 0.01236868 0.18835720 0.04268821 0.05343729 
0.01894324 0.01916073 0.00344855 0.00198857 0.00488559 0.00201280 0.00589567 0.00657199 0.08064972 0.00765239 0.05086373 0.00258498 0.01220969 0.18632728 0.04227010 0.05626049 
0.01860215 0.01888853 0.00339687 0.00194125 0.00459599 0.00202999 0.00578540 0.00646990 0.08142321 0.00765669 0.05130970 0.00258299 0.01206096 0.18414278 0.04181395 0.05906334 
0.01826605 0.01865099 0.00334489 0.00189644 0.00432700 0.00204647 0.00568282 0.00636707 0.08212648 0.00766167 0.05170730 0.00257915 0.01192298 0.18181939 0.04132290 0.06183362 
0.01793632 0.01844977 0.00329290 0.00185425 0.00407929 0.00206219 0.00558834 0.00626410 0.08275395 0.00766758 0.05205421 0.00257344 0.01179618 0.17937362 0.04080031 0.06455935 
0.01761430 0.01828643 0.00324118 0.00181478 0.00385344 0.00207710 0.00550238 0.00616160 0.08330043 0.00767465 0.05234832 0.00256587 0.01168097 0.17682276 0.04024973 0.06722892 
0.01730130 0.01816236 0.00319001 0.00177815 0.00364994 0.00209113 0.00542527 0.00606017 0.08376110 0.00768313 0.05258771 0.00255646 0.01157767 0.17418473 0.03967486 0.06983107 
0.01699860 0.01807880 0.00313968 0.00174446 0.00346920 0.00210425 0.00535735 0.00596043 0.08413161 0.00769328 0.05277071 0.00254523 0.01148661 0.17147798 0.03907953 0.07235499 
0.01670741 0.01803680 0.00309044 0.00171380 0.00331152 0.00211643 0.00529889 0.00586303 0.08440806 0.00770531 0.05289589 0.00253223 0.01140801 0.16872141 0.03846771 0.07479033 
0.01642891 0.01803728 0.00304256 0.00168627 0.00317712 0.00212763 0.00525014 0.00576857 0.08458705 0.00771948 0.05296208 0.00251750 0.01134209 0.16593423 0.03784346 0.07712729 
0.01616419 0.01808096 0.00299628 0.00166196 0.00306613 0.00213784 0.00521129 0.00567770 0.08466570 0.00773600 0.05296836 0.00250112 0.01128899 0.16313586 0.03721089 0.07935665 
0.01591430 0.01816836 0.00295186 0.00164095 0.00297858 0.00214703 0.00518250 0.00559103 0.08464165 0.00775511 0.05291410 0.00248315 0.01124883 0.16034577 0.03657417 0.08146976 
0.01568019 0.01829985 0.00290950 0.00162333 0.00291441 0.00215521 0.00516388 0.00550917 0.08451309 0.00777700 0.05279895 0.00246369 0.01122168 0.15758342 0.03593750 0.08345867 
0.01546275 0.01847559 0.00286944 0.00160916 0.00287347 0.00216237 0.00515550 0.00543273 0.08427878 0.00780189 0.05262284 0.00244282 0.01120755 0.15486813 0.03530505 0.08531606 
0.01526276 0.01869556 0.00283185 0.00159853 0.00285554 0.00216852 0.00515738 0.00536228 0.08393801 0.00782996 0.05238603 0.00242067 0.01120642 0.15221891 0.03468097 0.08703534 
0.01508093 0.01895953 0.00279693 0.00159148 0.00286030 0.00217368 0.00516950 0.00529840 0.08349068 0.00786139 0.05208902 0.00239733 0.01121823 0.14965441 0.03406935 0.08861064 
0.01491786 0.01926711 0.00276483 0.00158810 0.00288735 0.00217786 0.00519180 0.00524163 0.08293723 0.00789634 0.05173267 0.00237295 0.01124289 0.14719278 0.03347420 0.09003684 
0.01477406 0.01961768 0.00273572 0.00158842 0.00293620 0.00218108 0.00522417 0.00519250 0.08227868 0.00793495 0.05131809 0.00234765 0.01128025 0.14485153 0.03289942 0.09130958 
0.01464992 0.02001048 0.00270970 0.00159249 0.00300631 0.00218339 0.00526644 0.00515151 0.08151660 0.00797736 0.05084671 0.00232157 0.01133016 0.14264747 0.03234878 0.09242527 
0.01454573 0.02044451 0.00268691 0.00160035 0.00309705 0.00218482 0.00531843 0.00511912 0.08065310 0.00802367 0.05032025 0.00229487 0.01139241 0.14059657 0.03182588 0.09338108 
0.01446168 0.02091864 0.00266742 0.00161204 0.00320771 0.00218541 0.00537989 0.00509577 0.07969084 0.00807397 0.04974071 0.00226769 0.01146677 0.13871388 0.03133418 0.09417498 
0.01439782 0.02143153 0.00265131 0.00162757 0.00333755 0.00218519 0.00545054 0.00508188 0.07863297 0.00812834 0.04911037 0.00224021 0.01155300 0.13701342 0.03087690 0.09480571 
0.01435412 0.02198168 0.00263864 0.00164697 0.00348573 0.00218423 0.00553006 0.00507781 0.07748317 0.00818683 0.04843179 0.00221257 0.01165082 0.13550813 0.03045705 0.09527277 
0.01433041 0.02256742 0.00262944 0.00167023 0.00365137 0.00218257 0.00561808 0.00508389 0.07624556 0.00824947 0.04770777 0.00218495 0.01175993 0.13420972 0.03007743 0.09557642 
0.01432642 0.02318691 0.00262371 0.00169735 0.00383355 0.00218026 0.00571420 0.00510044 0.07492473 0.00831627 0.04694138 0.00215751 0.01188001 0.13312866 0.02974054 0.09571766 
0.01434176 0.02383819 0.00262147 0.00172832 0.00403129 0.00217736 0.00581799 0.00512770 0.07352566 0.00838721 0.04613589 0.00213042 0.01201075 0.13227408 0.02944865 0.09569823 
0.01437592 0.02451912 0.00262267 0.00176310 0.00424357 0.00217392 0.00592897 0.00516591 0.07205375 0.00846226 0.04529482 0.00210386 0.01215178 0.13165372 0.02920372 0.09552055 
0.01442830 0.02522745 0.00262727 0.00180165 0.00446934 0.00216999 0.00604665 0.00521524 0.07051472 0.00854136 0.04442186 0.00207798 0.01230277 0.13127389 0.02900741 0.09518773 
0.01449817 0.02596080 0.00263522 0.00184393 0.00470750 0.00216564 0.00617049 0.00527582 0.06891464 0.00862444 0.04352091 0.00205294 0.01246335 0.13113939 0.02886109 0.09470354 
0.01458472 0.02671667 0.00264643 0.00188987 0.00495696 0.00216091 0.00629993 0.00534776 0.06725986 0.00871139 0.04259600 0.00202892 0.01263314 0.13125352 0.02876579 0.09407236 
0.01468702 0.02749246 0.00266079 0.00193939 0.00521657 0.00215586 0.00643439 0.00543111 0.06555696 0.00880209 0.04165133 0.00200606 0.01281178 0.13161803 0.02872222 0.09329914 
0.01480406 0.02828546 0.00267820 0.00199239 0.00548518 0.00215054 0.00657327 0.00552589 0.06381274 0.00889641 0.04069119 0.00198451 0.01299890 0.13223310 0.02873078 0.09238941 
0.01493472 0.02909291 0.00269851 0.00204878 0.00576165 0.00214498 0.00671593 0.00563206 0.06203417 0.00899419 0.03972001 0.00196442 0.01319411 0.13309736 0.02879152 0.09134919 
0.01507781 0.02991196 0.00272158 0.00210842 0.00604481 0.00213924 0.00686175 0.00574954 0.06022836 0.00909523 0.03874224 0.00194591 0.01339705 0.13420786 0.02890415 0.09018500 
0.01523207 0.03073969 0.00274725 0.00217118 0.00633350 0.00213335 0.00701006 0.00587823 0.05840249 0.00919936 0.03776243 0.00192912 0.01360734 0.13556012 0.02906807 0.08890376 
0.01539617 0.03157315 0.00277532 0.00223691 0.00662657 0.00212736 0.00716021 0.00601797 0.05656381 0.00930634 0.03678511 0.00191416 0.01382462 0.13714810 0.02928233 0.08751280 
0.01556869 0.03240935 0.00280561 0.00230544 0.00692288 0.00212128 0.00731153 0.00616857 0.05471957 0.00941596 0.03581486 0.00190113 0.01404852 0.13896427 0.02954566 0.08601980 
0.01574819 0.03324527 0.00283792 0.00237659 0.00722131 0.00211515 0.00746335 0.00632977 0.05287701 0.00952798 0.03485620 0.00189013 0.01427869 0.14099964 0.02985649 0.08443274 
0.01593318 0.03407790 0.00287202 0.00245016 0.00752075 0.00210898 0.00761500 0.00650132 0.05104328 0.00964213 0.03391362 0.00188124 0.01451477 0.14324381 0.03021291 0.08275984 
0.01612210 0.03490422 0.00290770 0.00252594 0.00782013 0.00210280 0.00776581 0.00668288 0.04922546 0.00975816 0.03299154 0.00187452 0.01475643 0.14568500 0.03061275 0.08100955 
0.01631342 0.03572121 0.00294470 0.00260371 0.00811840 0.00209661 0.00791514 0.00687413 0.04743046 0.00987579 0.03209427 0.00187004 0.01500333 0.14831016 0.03105354 0.07919050 
0.01650554 0.03652591 0.00298280 0.00268323 0.00841456 0.00209041 0.00806232 0.00707466 0.04566505 0.00999474 0.03122602 0.00186783 0.01525513 0.15110500 0.03153252 0.07731142 
0.01669688 0.03731537 0.00302174 0.00276424 0.00870763 0.00208422 0.00820674 0.00728405 0.04393577 0.01011473 0.03039084 0.00186791 0.01551153 0.15405408 0.03204670 0.07538113 
0.01688585 0.03808671 0.00306126 0.00284648 0.00899670 0.00207802 0.00834778 0.00750186 0.04224893 0.01023545 0.02959263 0.00187032 0.01577219 0.15714091 0.03259286 0.07340849 
0.01707089 0.03883710 0.00310111 0.00292967 0.00928087 0.00207180 0.00848484 0.00772760 0.04061059 0.01035664 0.02883511 0.00187503 0.01603683 0.16034805 0.03316753 0.07140235 
0.01725046 0.03956379 0.00314102 0.00301354 0.00955933 0.00206555 0.00861736 0.00796076 0.03902649 0.01047798 0.02812177 0.00188204 0.01630514 0.16365715 0.03376708 0.06937152 
0.01742302 0.04026413 0.00318073 0.00309778 0.00983128 0.00205925 0.00874480 0.00820079 0.03750208 0.01059921 0.02745589 0.00189132 0.01657682 0.16704914 0.03438767 0.06732471 
0.01758711 0.04093554 0.00321997 0.00318208 0.01009602 0.00205287 0.00886664 0.00844714 0.03604246 0.01072002 0.02684053 0.00190282 0.01685158 0.17050427 0.03502533 0.06527051 
0.01774131 0.04157558 0.00325849 0.00326615 0.01035288 0.00204640 0.00898241 0.00869921 0.03465235 0.01084015 0.02627844 0.00191648 0.01712916 0.17400224 0.03567596 0.06321736 
0.01788426 0.04218189 0.00329602 0.00334966 0.01060124 0.00203981 0.00909167 0.00895640 0.03333613 0.01095934 0.02577215 0.00193224 0.01740926 0.17752234 0.03633533 0.06117348 
0.01801466 0.04275227 0.00333231 0.00343230 0.01084057 0.00203306 0.00919401 0.00921807 0.03209775 0.01107731 0.02532385 0.00195000 0.01769161 0.18104354 0.03699915 0.05914688 
0.01813132 0.04328463 0.00336711 0.00351374 0.01107038 0.00202612 0.00928906 0.00948358 0.03094077 0.01119382 0.02493549 0.00196967 0.01797595 0.18454463 0.03766306 0.05714529 
0.01823310 0.04377705 0.00340018 0.00359367 0.01129025 0.00201897 0.00937651 0.00975227 0.02986833 0.01130865 0.02460865 0.00199114 0.01826200 0.18800432 0.03832270 0.05517617 
0.01831899 0.04422775 0.00343129 0.00367176 0.01149983 0.00201156 0.00945607 0.01002348 0.02888314 0.01142157 0.02434463 0.00201429 0.01854951 0.19140138 0.03897365 0.05324663 
0.01838805 0.04463511 0.00346020 0.00374769 0.01169881 0.00200387 0.00952751 0.01029651 0.02798749 0.01153239 0.02414439 0.00203898 0.01883819 0.19471478 0.03961157 0.05136347 
0.01843948 0.04499767 0.00348671 0.00382117 0.01188698 0.00199588 0.00959064 0.01057067 0.02718322 0.01164093 0.02400857 0.00206508 0.01912780 0.19792377 0.04023213 0.04953311 
0.01847257 0.04531416 0.00351062 0.00389187 0.01206415 0.00198754 0.00964531 0.01084528 0.02647175 0.01174702 0.02393747 0.00209244 0.01941806 0.20100803 0.04083107 0.04776160 
0.01848676 0.04558347 0.00353174 0.00395952 0.01223021 0.00197884 0.00969144 0.01111963 0.02585406 0.01185052 0.02393105 0.00212090 0.01970870 0.20394778 0.04140426 0.04605455 
0.01848159 0.04580470 0.00354990 0.00402381 0.01238513 0.00196976 0.00972897 0.01139304 0.02533071 0.01195131 0.02398896 0.00215029 0.01999947 0.20672392 0.04194765 0.04441720 
0.01845674 0.04597711 0.00356494 0.00408449 0.01252890 0.00196029 0.00975789 0.01166479 0.02490184 0.01204931 0.02411049 0.00218046 0.02029008 0.20931809 0.04245736 0.04285434 
0.01841202 0.04610016 0.00357672 0.00414128 0.01266159 0.00195041 0.00977827 0.01193420 0.02456715 0.01214444 0.02429464 0.00221121 0.02058028 0.21171283 0.04292968 0.04137031 
0.01834737 0.04617352 0.00358512 0.00419396 0.01278332 0.00194012 0.00979019 0.01220059 0.02432599 0.01223665 0.02454004 0.00224239 0.02086978 0.21389166 0.04336108 0.03996902 
0.01826289 0.04619703 0.00359005 0.00424230 0.01289426 0.00192942 0.00979378 0.01246328 0.02417728 0.01232592 0.02484507 0.00227381 0.02115831 0.21583919 0.04374824 0.03865392 
0.01815878 0.04617074 0.00359141 0.00428609 0.01299463 0.00191833 0.00978923 0.01272161 0.02411958 0.01241226 0.02520777 0.00230529 0.02144560 0.21754117 0.04408808 0.03742802 
0.01803540 0.04609491 0.00358916 0.00432516 0.01308470 0.00190687 0.00977677 0.01297492 0.02415109 0.01249569 0.02562589 0.00233666 0.02173135 0.21898466 0.04437777 0.03629384 
0.01789324 0.04596998 0.00358323 0.00435934 0.01316475 0.00189507 0.00975666 0.01322259 0.02426968 0.01257627 0.02609693 0.00236774 0.02201528 0.22015803 0.04461472 0.03525347 
0.01773292 0.04579658 0.00357363 0.00438850 0.01323516 0.00188296 0.00972920 0.01346400 0.02447291 0.01265409 0.02661812 0.00239836 0.02229711 0.22105106 0.04479666 0.03430855 
0.01755519 0.04557557 0.00356036 0.00441254 0.01329629 0.00187059 0.00969473 0.01369854 0.02475800 0.01272924 0.02718643 0.00242835 0.02257653 0.22165500 0.04492159 0.03346027 
0.01736093 0.04530796 0.00354343 0.00443136 0.01334855 0.00185802 0.00965363 0.01392566 0.02512194 0.01280186 0.02779862 0.00245755 0.02285327 0.22196265 0.04498782 0.03270938 
0.01715113 0.04499498 0.00352290 0.00444492 0.01339240 0.00184531 0.00960631 0.01414480 0.02556145 0.01287209 0.02845124 0.00248580 0.02312703 0.22196834 0.04499398 0.03205620 
0.01692690 0.04463803 0.00349885 0.00445319 0.01342829 0.00183255 0.00955320 0.01435544 0.02607300 0.01294013 0.02914066 0.00251296 0.02339749 0.22166805 0.04493903 0.03150063 
0.01668946 0.04423869 0.00347137 0.00445618 0.01345672 0.00181983 0.00949475 0.01455708 0.02665288 0.01300616 0.02986307 0.00253889 0.02366437 0.22105937 0.04482224 0.03104218 
0.01644013 0.04379872 0.00344057 0.00445390 0.01347818 0.00180723 0.00943146 0.01474927 0.02729719 0.01307040 0.03061451 0.00256345 0.02392736 0.22014155 0.04464324 0.03067994 
0.01618033 0.04332006 0.00340661 0.00444643 0.01349320 0.00179487 0.00936382 0.01493156 0.02800187 0.01313308 0.03139094 0.00258654 0.02418616 0.21891549 0.04440200 0.03041267 
0.01591154 0.04280480 0.00336964 0.00443386 0.01350230 0.00178287 0.00929235 0.01510355 0.02876274 0.01319448 0.03218817 0.00260804 0.02444047 0.21738376 0.04409880 0.03023872 
0.01563534 0.04225517 0.00332985 0.00441631 0.01350601 0.00177135 0.00921757 0.01526488 0.02957549 0.01325485 0.03300197 0.00262786 0.02468997 0.21555056 0.04373429 0.03015614 
0.01535338 0.04167358 0.00328745 0.00439392 0.01350486 0.00176044 0.00914002 0.01541521 0.03043576 0.01331448 0.03382804 0.00264592 0.02493436 0.21342172 0.04330942 0.03016264 
0.01506734 0.04106256 0.00324266 0.00436688 0.01349939 0.00175030 0.00906025 0.01555426 0.03133911 0.01337366 0.03466208 0.00266214 0.02517335 0.21100467 0.04282551 0.03025564 
0.01477896 0.04042477 0.00319573 0.00433540 0.01349012 0.00174106 0.00897879 0.01568175 0.03228108 0.01343271 0.03549977 0.00267648 0.02540662 0.20830836 0.04228416 0.03043226 
0.01449001 0.03976298 0.00314692 0.00429970 0.01347756 0.00173289 0.00889619 0.01579747 0.03325720 0.01349194 0.03633681 0.00268890 0.02563386 0.20534326 0.04168730 0.03068939 
0.01420229 0.03908009 0.00309652 0.00426004 0.01346223 0.00172595 0.00881297 0.01590123 0.03426300 0.01355166 0.03716895 0.00269937 0.02585478 0.20212128 0.04103715 0.03102365 
0.01391760 0.03837908 0.00304483 0.00421671 0.01344459 0.00172039 0.00872967 0.01599289 0.03529408 0.01361220 0.03799202 0.00270787 0.02606908 0.19865568 0.04033625 0.03143147 
0.01363775 0.03766302 0.00299214 0.00417002 0.01342514 0.00171640 0.00864680 0.01607234 0.03634607 0.01367388 0.03880194 0.00271442 0.02627646 0.19496103 0.03958736 0.03190909 
0.01336452 0.03693506 0.00293880 0.00412028 0.01340431 0.00171414 0.00856484 0.01613952 0.03741469 0.01373703 0.03959473 0.00271904 0.02647660 0.19105312 0.03879354 0.03245256 
0.01309969 0.03619840 0.00288513 0.00406786 0.01338253 0.00171379 0.00848429 0.01619439 0.03849575 0.01380195 0.04036657 0.00272175 0.02666924 0.18694882 0.03795806 0.03305779 
0.01284497 0.03545631 0.00283147 0.00401310 0.01336019 0.00171551 0.00840559 0.01623698 0.03958518 0.01386896 0.04111377 0.00272260 0.02685406 0.18266605 0.03708443 0.03372058 
0.01260207 0.03471207 0.00277819 0.00395641 0.01333768 0.00171947 0.00832917 0.01626733 0.04067905 0.01393835 0.04183285 0.00272166 0.02703077 0.17822365 0.03617634 0.03443661 
0.01237259 0.03396901 0.00272564 0.00389815 0.01331532 0.00172585 0.00825545 0.01628553 0.04177356 0.01401041 0.04252049 0.00271900 0.02719910 0.17364124 0.03523766 0.03520150 
0.01215810 0.03323043 0.00267417 0.00383874 0.01329344 0.00173479 0.00818480 0.01629171 0.04286509 0.01408541 0.04317360 0.00271471 0.02735876 0.16893916 0.03427245 0.03601079 
0.01196006 0.03249967 0.00262416 0.00377860 0.01327229 0.00174647 0.00811755 0.01628602 0.04395018 0.01416359 0.04378932 0.00270889 0.02750947 0.16413829 0.03328484 0.03686001 
0.01177986 0.03178002 0.00257596 0.00371813 0.01325214 0.00176101 0.00805403 0.01626868 0.04502557 0.01424520 0.04436503 0.00270165 0.02765094 0.15926000 0.03227912 0.03774465 
0.01161878 0.03107475 0.00252995 0.00365776 0.01323317 0.00177857 0.00799450 0.01623992 0.04608817 0.01433042 0.04489835 0.00269311 0.02778292 0.15432596 0.03125964 0.03866023 
0.01147799 0.03038708 0.00248646 0.00359792 0.01321557 0.00179927 0.00793922 0.01620000 0.04713511 0.01441944 0.04538717 0.00268342 0.02790513 0.14935807 0.03023080 0.03960227 
0.01135856 0.02972016 0.00244586 0.00353901 0.01319947 0.00182323 0.00788838 0.01614922 0.04816374 0.01451242 0.04582966 0.00267270 0.02801731 0.14437828 0.02919706 0.04056634 
0.01126140 0.02907707 0.00240848 0.00348146 0.01318497 0.00185055 0.00784215 0.01608793 0.04917158 0.01460947 0.04622428 0.00266111 0.02811921 0.13940851 0.02816287 0.04154809 
0.01118732 0.02846081 0.00237466 0.00342568 0.01317213 0.00188133 0.00780067 0.01601649 0.05015642 0.01471068 0.04656974 0.00264881 0.02821057 0.13447050 0.02713265 0.04254323 
0.01113697 0.02787426 0.00234471 0.00337206 0.01316097 0.00191563 0.00776402 0.01593528 0.05111623 0.01481609 0.04686509 0.00263595 0.02829116 0.12958569 0.02611081 0.04354757 
0.01111087 0.02732019 0.00231893 0.00332100 0.01315149 0.00195351 0.00773225 0.01584473 0.05204921 0.01492573 0.04710963 0.00262271 0.02836074 0.12477512 0.02510166 0.04455702 
0.01110939 0.02680124 0.00229762 0.00327285 0.01314364 0.00199502 0.00770539 0.01574528 0.05295380 0.01503956 0.04730298 0.00260925 0.02841909 0.12005927 0.02410945 0.04556764 
0.01113273 0.02631990 0.00228103 0.00322799 0.01313735 0.00204018 0.00768341 0.01563740 0.05382862 0.01515753 0.04744504 0.00259575 0.02846599 0.11545798 0.02313829 0.04657559 
0.01118095 0.02587852 0.00226942 0.00318674 0.01313250 0.00208899 0.00766626 0.01552158 0.05467253 0.01527952 0.04753601 0.00258237 0.02850124 0.11099032 0.02219216 0.04757721 
0.01125396 0.02547927 0.00226301 0.00314943 0.01312896 0.00214143 0.00765384 0.01539831 0.05548460 0.01540538 0.04757636 0.00256930 0.02852464 0.10667451 0.02127489 0.04856898 
0.01135151 0.02512414 0.00226200 0.00311634 0.01312654 0.00219746 0.00764603 0.01526813 0.05626408 0.01553492 0.04756685 0.00255670 0.02853602 0.10252781 0.02039014 0.04954755 
0.01147318 0.02481492 0.00226657 0.00308774 0.01312505 0.00225703 0.00764266 0.01513158 0.05701045 0.01566791 0.04750850 0.00254474 0.02853522 0.09856640 0.01954135 0.05050978 
0.01161840 0.02455323 0.00227688 0.00306387 0.01312427 0.00232006 0.00764356 0.01498920 0.05772335 0.01580406 0.04740260 0.00253358 0.02852209 0.09480534 0.01873176 0.05145267 
0.01178646 0.02434047 0.00229303 0.00304495 0.01312393 0.00238645 0.00764851 0.01484155 0.05840263 0.01594304 0.04725069 0.00252339 0.02849650 0.09125848 0.01796437 0.05237343 
0.01197647 0.02417780 0.00231514 0.00303116 0.01312377 0.00245608 0.00765726 0.01468921 0.05904829 0.01608449 0.04705455 0.00251431 0.02845835 0.08793836 0.01724195 0.05326949 
0.01218743 0.02406618 0.00234327 0.00302264 0.01312348 0.00252880 0.00766955 0.01453274 0.05966051 0.01622799 0.04681618 0.00250650 0.02840755 0.08485622 0.01656699 0.05413845 
0.01241818 0.02400634 0.00237745 0.00301954 0.01312276 0.00260445 0.00768510 0.01437273 0.06023962 0.01637308 0.04653777 0.00250007 0.02834404 0.08202185 0.01594174 0.05497814 
0.01266742 0.02399876 0.00241769 0.00302192 0.01312128 0.00268285 0.00770359 0.01420975 0.06078610 0.01651928 0.04622175 0.00249517 0.02826779 0.07944364 0.01536814 0.05578659 
0.01293373 0.02404369 0.00246397 0.00302985 0.01311869 0.00276379 0.00772472 0.01404438 0.06130055 0.01666603 0.04587070 0.00249191 0.02817881 0.07712850 0.01484786 0.05656203 
0.01321557 0.02414114 0.00251622 0.00304335 0.01311463 0.00284706 0.00774813 0.01387719 0.06178372 0.01681278 0.04548735 0.00249038 0.02807711 0.07508184 0.01438227 0.05730292 
0.01351129 0.02429087 0.00257438 0.00306242 0.01310875 0.00293240 0.00777350 0.01370873 0.06223645 0.01695891 0.04507459 0.00249070 0.02796276 0.07330757 0.01397247 0.05800793 
0.01381912 0.02449239 0.00263832 0.00308700 0.01310067 0.00301958 0.00780047 0.01353958 0.06265969 0.01710377 0.04463544 0.00249292 0.02783586 0.07180808 0.01361921 0.05867592 
0.01413722 0.02474498 0.00270789 0.00311703 0.01309003 0.00310830 0.00782867 0.01337027 0.06305449 0.01724670 0.04417300 0.00249712 0.02769655 0.07058427 0.01332299 0.05930598 
0.01446366 0.02504766 0.00278293 0.00315239 0.01307646 0.00319829 0.00785776 0.01320133 0.06342198 0.01738700 0.04369048 0.00250334 0.02754500 0.06963553 0.01308400 0.05989739 
0.01479642 0.02539924 0.00286323 0.00319295 0.01305957 0.00328925 0.00788738 0.01303329 0.06376336 0.01752393 0.04319113 0.00251163 0.02738145 0.06895980 0.01290211 0.06044965 
0.01513346 0.02579825 0.00294855 0.00323854 0.01303900 0.00338085 0.00791717 0.01286663 0.06407989 0.01765677 0.04267829 0.00252201 0.02720616 0.06855359 0.01277694 0.06096244 
0.01547266 0.02624303 0.00303865 0.00328896 0.01301441 0.00347279 0.00794678 0.01270183 0.06437290 0.01778475 0.04215527 0.00253448 0.02701946 0.06841199 0.01270780 0.06143565 
0.01581188 0.02673168 0.00313324 0.00334398 0.01298543 0.00356472 0.00797589 0.01253935 0.06464375 0.01790709 0.04162542 0.00254903 0.02682170 0.06852880 0.01269375 0.06186935 
0.01614895 0.02726209 0.00323201 0.00340335 0.01295173 0.00365632 0.00800415 0.01237963 0.06489385 0.01802302 0.04109207 0.00256563 0.02661333 0.06889651 0.01273357 0.06226378 
0.01648170 0.02783195 0.00333464 0.00346679 0.01291299 0.00374723 0.00803126 0.01222305 0.06512464 0.01813176 0.04055853 0.00258426 0.02639481 0.06950639 0.01282580 0.06261938 
0.01680795 0.02843875 0.00344077 0.00353400 0.01286890 0.00383712 0.00805693 0.01207001 0.06533758 0.01823252 0.04002803 0.00260484 0.02616669 0.07034860 0.01296875 0.06293675 
0.01712556 0.02907980 0.00355005 0.00360466 0.01281919 0.00392564 0.00808088 0.01192086 0.06553414 0.01832453 0.03950377 0.00262731 0.02592955 0.07141221 0.01316048 0.06321664 
0.01743240 0.02975224 0.00366209 0.00367842 0.01276359 0.00401244 0.00810285 0.01177590 0.06571582 0.01840701 0.03898883 0.00265159 0.02568406 0.07268534 0.01339887 0.06345997 
0.01772640 0.03045306 0.00377649 0.00375493 0.01270186 0.00409718 0.00812260 0.01163543 0.06588413 0.01847923 0.03848621 0.00267757 0.02543091 0.07415522 0.01368160 0.06366780 
0.01800555 0.03117911 0.00389283 0.00383380 0.01263380 0.00417952 0.00813992 0.01149970 0.06604056 0.01854045 0.03799879 0.00270514 0.02517089 0.07580829 0.01400618 0.06384131 
0.01826790 0.03192710 0.00401071 0.00391466 0.01255921 0.00425914 0.00815464 0.01136893 0.06618663 0.01858997 0.03752932 0.00273418 0.02490484 0.07763031 0.01436996 0.06398183 
0.01851158 0.03269365 0.00412970 0.00399711 0.01247796 0.00433570 0.00816657 0.01124331 0.06632385 0.01862711 0.03708039 0.00276455 0.02463363 0.07960645 0.01477016 0.06409080 
0.01873483 0.03347528 0.00424935 0.00408074 0.01238993 0.00440891 0.00817561 0.01112298 0.06645370 0.01865125 0.03665446 0.00279609 0.02435824 0.08172141 0.01520388 0.06416976 
0.01893600 0.03426844 0.00436924 0.00416513 0.01229503 0.00447846 0.00818162 0.01100805 0.06657771 0.01866178 0.03625379 0.00282865 0.02407967 0.08395951 0.01566813 0.06422036 
0.01911354 0.03506954 0.00448892 0.00424989 0.01219323 0.00454407 0.00818455 0.01089862 0.06669735 0.01865815 0.03588050 0.00286206 0.02379899 0.08630481 0.01615984 0.06424432 
0.01926606 0.03587492 0.00460796 0.00433459 0.01208451 0.00460547 0.00818434 0.01079471 0.06681411 0.01863987 0.03553649 0.00289614 0.02351732 0.08874123 0.01667588 0.06424346 
0.01939227 0.03668092 0.00472593 0.00441882 0.01196891 0.00466240 0.00818096 0.01069632 0.06692946 0.01860648 0.03522349 0.00293070 0.02323584 0.09125260 0.01721311 0.06421965 
0.01949108 0.03748390 0.00484240 0.00450217 0.01184651 0.00471464 0.00817443 0.01060344 0.06704490 0.01855760 0.03494302 0.00296555 0.02295577 0.09382286 0.01776834 0.06417481 
0.01956153 0.03828022 0.00495695 0.00458424 0.01171742 0.00476198 0.00816477 0.01051599 0.06716187 0.01849291 0.03469639 0.00300050 0.02267837 0.09643607 0.01833841 0.06411093 
0.01960282 0.03906628 0.00506918 0.00466463 0.01158181 0.00480422 0.00815206 0.01043387 0.06728185 0.01841214 0.03448471 0.00303535 0.02240495 0.09907658 0.01892016 0.06403001 
0.01961434 0.03983854 0.00517870 0.00474298 0.01143989 0.00484119 0.00813638 0.01035694 0.06740629 0.01831510 0.03430888 0.00306988 0.02213686 0.10172908 0.01951051 0.06393408 
0.01959567 0.04059355 0.00528512 0.00481889 0.01129191 0.00487276 0.00811783 0.01028503 0.06753666 0.01820169 0.03416959 0.00310391 0.02187546 0.10437872 0.02010640 0.06382518 
0.01954654 0.04132795 0.00538809 0.00489203 0.01113818 0.00489880 0.00809657 0.01021795 0.06767440 0.01807186 0.03406731 0.00313722 0.02162215 0.10701120 0.02070486 0.06370535 
0.01946691 0.04203848 0.00548726 0.00496205 0.01097904 0.00491923 0.00807274 0.01015546 0.06782099 0.01792566 0.03400233 0.00316961 0.02137834 0.10961284 0.02130304 0.06357662 
0.01935692 0.04272202 0.00558230 0.00502863 0.01081488 0.00493397 0.00804653 0.01009731 0.06797788 0.01776319 0.03397470 0.00320088 0.02114546 0.11217064 0.02189815 0.06344101 
0.01921688 0.04337561 0.00567293 0.00509148 0.01064616 0.00494298 0.00801815 0.01004320 0.06814652 0.01758467 0.03398430 0.00323084 0.02092491 0.11467241 0.02248756 0.06330048 
0.01904734 0.04399644 0.00575885 0.00515031 0.01047337 0.00494624 0.00798780 0.00999282 0.06832839 0.01739038 0.03403078 0.00325930 0.02071814 0.11710677 0.02306876 0.06315698 
0.01884902 0.04458186 0.00583982 0.00520488 0.01029704 0.00494378 0.00795572 0.00994585 0.06852494 0.01718069 0.03411364 0.00328607 0.02052653 0.11946325 0.02363939 0.06301238 
0.01862283 0.04512944 0.00591561 0.00525494 0.01011777 0.00493562 0.00792217 0.00990192 0.06873765 0.01695605 0.03423216 0.00331098 0.02035149 0.12173230 0.02419723 0.06286851 
0.01836989 0.04563692 0.00598603 0.00530029 0.00993618 0.00492183 0.00788739 0.00986066 0.06896799 0.01671701 0.03438549 0.00333387 0.02019436 0.12390538 0.02474025 0.06272712 
0.01809150 0.04610229 0.00605089 0.00534076 0.00975297 0.00490251 0.00785167 0.00982170 0.06921743 0.01646417 0.03457258 0.00335457 0.02005647 0.12597494 0.02526658 0.06258988 
0.01778914 0.04652372 0.00611007 0.00537619 0.00956885 0.00487776 0.00781527 0.00978462 0.06948744 0.01619825 0.03479224 0.00337294 0.01993907 0.12793451 0.02577451 0.06245836 
0.01746449 0.04689965 0.00616343 0.00540644 0.00938460 0.00484773 0.00777848 0.00974901 0.06977949 0.01592003 0.03504314 0.00338885 0.01984340 0.12977863 0.02626254 0.06233405 
0.01711938 0.04722873 0.00621091 0.00543142 0.00920103 0.00481259 0.00774158 0.00971447 0.07009502 0.01563037 0.03532381 0.00340218 0.01977059 0.13150295 0.02672934 0.06221834 
0.01675581 0.04750986 0.00625243 0.00545105 0.00901900 0.00477252 0.00770486 0.00968057 0.07043550 0.01533021 0.03563267 0.00341283 0.01972172 0.13310416 0.02717376 0.06211248 
0.01637594 0.04774219 0.00628798 0.00546529 0.00883938 0.00472773 0.00766861 0.00964688 0.07080235 0.01502056 0.03596803 0.00342071 0.01969779 0.13458003 0.02759484 0.06201764 
0.01598207 0.04792513 0.00631756 0.00547412 0.00866312 0.00467845 0.00763309 0.00961301 0.07119700 0.01470250 0.03632808 0.00342573 0.01969969 0.13592936 0.02799181 0.06193484 
0.01557663 0.04805832 0.00634120 0.00547753 0.00849118 0.00462494 0.00759860 0.00957852 0.07162082 0.01437718 0.03671097 0.00342785 0.01972823 0.13715199 0.02836407 0.06186499 
0.01516219 0.04814167 0.00635895 0.00547558 0.00832454 0.00456745 0.00756540 0.00954302 0.07207519 0.01404579 0.03711475 0.00342702 0.01978410 0.13824872 0.02871120 0.06180886 
0.01474142 0.04817532 0.00637092 0.00546831 0.00816423 0.00450628 0.00753374 0.00950612 0.07256141 0.01370961 0.03753743 0.00342321 0.01986789 0.13922134 0.02903295 0.06176709 
0.01431707 0.04815967 0.00637720 0.00545580 0.00801128 0.00444172 0.00750387 0.00946745 0.07308076 0.01336993 0.03797695 0.00341642 0.01998006 0.14007251 0.02932924 0.06174020 
0.01389199 0.04809536 0.00637794 0.00543816 0.00786678 0.00437409 0.00747602 0.00942664 0.07363447 0.01302812 0.03843125 0.00340666 0.02012094 0.14080579 0.02960014 0.06172854 
0.01346908 0.04798325 0.00637330 0.00541552 0.00773180 0.00430371 0.00745042 0.00938337 0.07422370 0.01268556 0.03889823 0.00339395 0.02029073 0.14142550 0.02984586 0.06173236 
0.01305132 0.04782445 0.00636348 0.00538803 0.00760743 0.00423091 0.00742727 0.00933733 0.07484953 0.01234367 0.03937579 0.00337834 0.02048951 0.14193673 0.03006677 0.06175176 
0.01264170 0.04762028 0.00634867 0.00535586 0.00749478 0.00415604 0.00740674 0.00928824 0.07551297 0.01200389 0.03986183 0.00335989 0.02071719 0.14234521 0.03026335 0.06178669 
0.01224322 0.04737225 0.00632911 0.00531920 0.00739495 0.00407943 0.00738901 0.00923584 0.07621496 0.01166770 0.04035428 0.00333868 0.02097357 0.14265732 0.03043620 0.06183699 
0.01185889 0.04708209 0.00630505 0.00527825 0.00730906 0.00400146 0.00737422 0.00917993 0.07695631 0.01133656 0.04085107 0.00331481 0.02125828 0.14287992 0.03058603 0.06190237 
0.01149172 0.04675172 0.00627675 0.00523324 0.00723820 0.00392246 0.00736250 0.00912032 0.07773774 0.01101194 0.04135019 0.00328838 0.02157080 0.14302034 0.03071363 0.06198240 
0.01114465 0.04638321 0.00624449 0.00518439 0.00718346 0.00384280 0.00735395 0.00905688 0.07855986 0.01069531 0.04184966 0.00325952 0.02191049 0.14308630 0.03081990 0.06207656 
0.01082060 0.04597881 0.00620857 0.00513197 0.00714592 0.00376282 0.00734867 0.00898950 0.07942313 0.01038813 0.04234756 0.00322837 0.02227653 0.14308579 0.03090576 0.06218419 
0.01052240 0.04554091 0.00616929 0.00507623 0.00712661 0.00368287 0.00734670 0.00891813 0.08032791 0.01009183 0.04284203 0.00319510 0.02266799 0.14302700 0.03097223 0.06230453 
0.01025280 0.04507201 0.00612697 0.00501744 0.00712657 0.00360331 0.00734809 0.00884275 0.08127439 0.00980780 0.04333127 0.00315987 0.02308377 0.14291829 0.03102036 0.06243673 
0.01001443 0.04457475 0.00608193 0.00495587 0.00714677 0.00352446 0.00735285 0.00876341 0.08226261 0.00953741 0.04381358 0.00312285 0.02352265 0.14276804 0.03105121 0.06257986 
0.00980983 0.04405185 0.00603450 0.00489181 0.00718816 0.00344666 0.00736099 0.00868018 0.08329247 0.00928198 0.04428731 0.00308425 0.02398325 0.14258458 0.03106588 0.06273288 
0.00964137 0.04350612 0.00598501 0.00482555 0.00725164 0.00337023 0.00737248 0.00859320 0.08436366 0.00904278 0.04475091 0.00304427 0.02446411 0.14237618 0.03106547 0.06289471 
0.00951127 0.04294043 0.00593379 0.00475737 0.00733806 0.00329546 0.00738728 0.00850264 0.08547575 0.00882101 0.04520291 0.00300311 0.02496359 0.14215089 0.03105107 0.06306419 
0.00942160 0.04235770 0.00588119 0.00468757 0.00744820 0.00322266 0.00740531 0.00840874 0.08662808 0.00861781 0.04564193 0.00296100 0.02547998 0.14191650 0.03102376 0.06324012 
0.00937422 0.04176086 0.00582753 0.00461643 0.00758278 0.00315211 0.00742650 0.00831178 0.08781984 0.00843423 0.04606670 0.00291817 0.02601145 0.14168048 0.03098458 0.06342125 
0.00937082 0.04115289 0.00577314 0.00454424 0.00774246 0.00308406 0.00745075 0.00821208 0.08905001 0.00827126 0.04647600 0.00287484 0.02655606 0.14144993 0.03093456 0.06360631 
