0.01345653 0.02463425 0.00422077 0.00305675 0.00461606 0.00139693 0.00387933 0.00399055 0.00803300 0.00215738 0.00645666 0.00082631 0.01161261 0.03349013 0.00852786 0.01132688 
0.01360715 0.02424943 0.00421924 0.00304408 0.00500433 0.00142205 0.00409394 0.00393650 0.00777467 0.00215489 0.00639069 0.00083730 0.01174237 0.03380679 0.00862311 0.01203604 
0.01376143 0.02386532 0.00421540 0.00303119 0.00540328 0.00145049 0.00432232 0.00389091 0.00755318 0.00215381 0.00634354 0.00084931 0.01189268 0.03415334 0.00873090 0.01275401 
0.01391894 0.02348286 0.00420934 0.00301824 0.00581183 0.00148224 0.00456361 0.00385409 0.00737080 0.00215414 0.00631593 0.00086232 0.01206330 0.03453075 0.00885140 0.01347839 
0.01407923 0.02310300 0.00420114 0.00300538 0.00622886 0.00151725 0.00481688 0.00382632 0.00722963 0.00215592 0.00630850 0.00087634 0.01225388 0.03493972 0.00898469 0.01420672 
0.01424186 0.02272663 0.00419092 0.00299273 0.00665325 0.00155548 0.00508119 0.00380781 0.00713153 0.00215915 0.00632181 0.00089133 0.01246396 0.03538070 0.00913073 0.01493646 
0.01440634 0.02235465 0.00417880 0.00298045 0.00708387 0.00159686 0.00535552 0.00379876 0.00707813 0.00216386 0.00635632 0.00090729 0.01269297 0.03585381 0.00928939 0.01566501 
0.01457219 0.02198791 0.00416490 0.00296866 0.00751959 0.00164128 0.00563882 0.00379930 0.00707084 0.00217009 0.00641244 0.00092419 0.01294024 0.03635890 0.00946044 0.01638973 
0.01473888 0.02162722 0.00414937 0.00295749 0.00795926 0.00168866 0.00593000 0.00380954 0.00711082 0.00217785 0.00649045 0.00094199 0.01320499 0.03689550 0.00964354 0.01710795 
0.01490589 0.02127338 0.00413236 0.00294707 0.00840176 0.00173886 0.00622793 0.00382953 0.00719898 0.00218719 0.00659058 0.00096067 0.01348634 0.03746284 0.00983826 0.01781699 
0.01507268 0.02092714 0.00411402 0.00293750 0.00884594 0.00179174 0.00653146 0.00385927 0.00733597 0.00219811 0.00671294 0.00098018 0.01378330 0.03805983 0.01004404 0.01851415 
0.01523869 0.02058922 0.00409452 0.00292889 0.00929069 0.00184717 0.00683941 0.00389874 0.00752219 0.00221067 0.00685755 0.00100049 0.01409480 0.03868506 0.01026025 0.01919675 
0.01540335 0.02026031 0.00407403 0.00292135 0.00973488 0.00190495 0.00715059 0.00394785 0.00775779 0.00222488 0.00702434 0.00102154 0.01441966 0.03933681 0.01048615 0.01986211 
0.01556608 0.01994107 0.00405273 0.00291496 0.01017743 0.00196492 0.00746377 0.00400647 0.00804266 0.00224079 0.00721312 0.00104328 0.01475662 0.04001306 0.01072089 0.02050761 
0.01572628 0.01963211 0.00403080 0.00290981 0.01061723 0.00202687 0.00777773 0.00407443 0.00837641 0.00225841 0.00742364 0.00106566 0.01510434 0.04071149 0.01096354 0.02113066 
0.01588336 0.01933400 0.00400841 0.00290596 0.01105324 0.00209060 0.00809125 0.00415152 0.00875842 0.00227779 0.00765552 0.00108861 0.01546139 0.04142950 0.01121309 0.02172875 
0.01603669 0.01904730 0.00398575 0.00290349 0.01148440 0.00215589 0.00840311 0.00423747 0.00918782 0.00229893 0.00790829 0.00111208 0.01582629 0.04216422 0.01146845 0.02229942 
0.01618567 0.01877249 0.00396300 0.00290245 0.01190971 0.00222250 0.00871207 0.00433198 0.00966348 0.00232187 0.00818138 0.00113600 0.01619746 0.04291251 0.01172843 0.02284031 
0.01632969 0.01851006 0.00394035 0.00290287 0.01232817 0.00229018 0.00901694 0.00443471 0.01018402 0.00234663 0.00847414 0.00116029 0.01657330 0.04367101 0.01199180 0.02334916 
0.01646812 0.01826042 0.00391797 0.00290480 0.01273883 0.00235871 0.00931653 0.00454527 0.01074785 0.00237322 0.00878582 0.00118488 0.01695213 0.04443615 0.01225727 0.02382383 
0.01660035 0.01802397 0.00389604 0.00290825 0.01314077 0.00242781 0.00960968 0.00466324 0.01135315 0.00240165 0.00911556 0.00120970 0.01733226 0.04520416 0.01252349 0.02426227 
0.01672577 0.01780105 0.00387473 0.00291324 0.01353310 0.00249722 0.00989525 0.00478816 0.01199787 0.00243193 0.00946242 0.00123466 0.01771194 0.04597111 0.01278905 0.02466261 
0.01684378 0.01759198 0.00385421 0.00291978 0.01391497 0.00256668 0.01017214 0.00491953 0.01267977 0.00246405 0.00982540 0.00125969 0.01808941 0.04673294 0.01305256 0.02502309 
0.01695379 0.01739702 0.00383465 0.00292785 0.01428556 0.00263592 0.01043930 0.00505684 0.01339641 0.00249801 0.01020339 0.00128471 0.01846289 0.04748547 0.01331255 0.02534212 
0.01705523 0.01721641 0.00381619 0.00293744 0.01464412 0.00270466 0.01069571 0.00519953 0.01414516 0.00253379 0.01059520 0.00130962 0.01883060 0.04822447 0.01356757 0.02561825 
0.01714753 0.01705033 0.00379899 0.00294852 0.01498992 0.00277264 0.01094041 0.00534701 0.01492325 0.00257136 0.01099959 0.00133435 0.01919077 0.04894563 0.01381617 0.02585023 
0.01723015 0.01689894 0.00378319 0.00296107 0.01532228 0.00283958 0.01117249 0.00549868 0.01572773 0.00261069 0.01141522 0.00135881 0.01954164 0.04964468 0.01405689 0.02603696 
0.01730257 0.01676235 0.00376892 0.00297503 0.01564057 0.00290521 0.01139111 0.00565391 0.01655551 0.00265174 0.01184073 0.00138291 0.01988147 0.05031733 0.01428831 0.02617755 
0.01736432 0.01664062 0.00375629 0.00299035 0.01594421 0.00296928 0.01159547 0.00581205 0.01740340 0.00269445 0.01227466 0.00140657 0.02020857 0.05095938 0.01450903 0.02627127 
0.01741492 0.01653379 0.00374543 0.00300697 0.01623266 0.00303151 0.01178488 0.00597245 0.01826809 0.00273876 0.01271552 0.00142970 0.02052128 0.05156671 0.01471770 0.02631761 
0.01745394 0.01644185 0.00373644 0.00302483 0.01650545 0.00309167 0.01195868 0.00613444 0.01914618 0.00278461 0.01316179 0.00145221 0.02081800 0.05213533 0.01491300 0.02631624 
0.01748101 0.01636473 0.00372940 0.00304384 0.01676214 0.00314950 0.01211630 0.00629732 0.02003420 0.00283190 0.01361188 0.00147402 0.02109720 0.05266142 0.01509370 0.02626703 
0.01749575 0.01630236 0.00372442 0.00306394 0.01700235 0.00320476 0.01225725 0.00646043 0.02092862 0.00288054 0.01406419 0.00149505 0.02135742 0.05314136 0.01525864 0.02617005 
0.01749787 0.01625460 0.00372154 0.00308503 0.01722576 0.00325724 0.01238112 0.00662306 0.02182587 0.00293043 0.01451711 0.00151521 0.02159729 0.05357175 0.01540672 0.02602558 
0.01748709 0.01622126 0.00372085 0.00310701 0.01743209 0.00330671 0.01248758 0.00678455 0.02272236 0.00298144 0.01496898 0.00153444 0.02181553 0.05394946 0.01553695 0.02583409 
0.01746319 0.01620215 0.00372240 0.00312980 0.01762112 0.00335298 0.01257638 0.00694420 0.02361452 0.00303346 0.01541817 0.00155265 0.02201094 0.05427167 0.01564845 0.02559625 
0.01742601 0.01619701 0.00372622 0.00315328 0.01779268 0.00339586 0.01264735 0.00710135 0.02449876 0.00308634 0.01586302 0.00156978 0.02218246 0.05453585 0.01574044 0.02531293 
0.01737543 0.01620554 0.00373234 0.00317736 0.01794665 0.00343517 0.01270042 0.00725535 0.02537155 0.00313994 0.01630189 0.00158574 0.02232912 0.05473986 0.01581224 0.02498518 
0.01731138 0.01622742 0.00374081 0.00320193 0.01808296 0.00347076 0.01273560 0.00740555 0.02622939 0.00319409 0.01673317 0.00160049 0.02245008 0.05488191 0.01586332 0.02461425 
0.01723386 0.01626227 0.00375161 0.00322688 0.01820161 0.00350248 0.01275298 0.00755134 0.02706886 0.00324864 0.01715525 0.00161395 0.02254463 0.05496062 0.01589327 0.02420157 
0.01714292 0.01630970 0.00376477 0.00325209 0.01830262 0.00353021 0.01275273 0.00769212 0.02788663 0.00330339 0.01756658 0.00162607 0.02261219 0.05497501 0.01590181 0.02374875 
0.01703867 0.01636926 0.00378028 0.00327746 0.01838608 0.00355384 0.01273512 0.00782731 0.02867946 0.00335818 0.01796562 0.00163681 0.02265231 0.05492456 0.01588881 0.02325755 
0.01692128 0.01644046 0.00379813 0.00330286 0.01845211 0.00357327 0.01270048 0.00795639 0.02944423 0.00341281 0.01835091 0.00164611 0.02266467 0.05480920 0.01585428 0.02272992 
0.01679098 0.01652281 0.00381830 0.00332819 0.01850089 0.00358843 0.01264924 0.00807883 0.03017796 0.00346708 0.01872103 0.00165393 0.02264912 0.05462931 0.01579836 0.02216793 
0.01664806 0.01661575 0.00384076 0.00335334 0.01853265 0.00359927 0.01258189 0.00819417 0.03087779 0.00352078 0.01907462 0.00166024 0.02260563 0.05438574 0.01572136 0.02157383 
0.01649289 0.01671871 0.00386548 0.00337819 0.01854764 0.00360576 0.01249900 0.00830196 0.03154106 0.00357370 0.01941039 0.00166500 0.02253432 0.05407982 0.01562372 0.02094998 
0.01632587 0.01683108 0.00389243 0.00340264 0.01854616 0.00360786 0.01240121 0.00840182 0.03216526 0.00362564 0.01972715 0.00166820 0.02243545 0.05371336 0.01550605 0.02029886 
0.01614748 0.01695223 0.00392156 0.00342658 0.01852856 0.00360559 0.01228923 0.00849338 0.03274805 0.00367637 0.02002377 0.00166982 0.02230943 0.05328865 0.01536907 0.01962308 
0.01595827 0.01708150 0.00395281 0.00344990 0.01849521 0.00359895 0.01216382 0.00857634 0.03328733 0.00372568 0.02029922 0.00166985 0.02215680 0.05280843 0.01521367 0.01892534 
0.01575882 0.01721819 0.00398615 0.00347250 0.01844652 0.00358799 0.01202583 0.00865042 0.03378117 0.00377335 0.02055257 0.00166827 0.02197825 0.05227591 0.01504087 0.01820844 
0.01554981 0.01736160 0.00402151 0.00349429 0.01838294 0.00357276 0.01187612 0.00871541 0.03422787 0.00381916 0.02078298 0.00166510 0.02177460 0.05169474 0.01485182 0.01747525 
0.01533193 0.01751101 0.00405883 0.00351518 0.01830494 0.00355332 0.01171562 0.00877114 0.03462594 0.00386290 0.02098973 0.00166034 0.02154679 0.05106902 0.01464781 0.01672871 
0.01510596 0.01766566 0.00409804 0.00353507 0.01821301 0.00352977 0.01154532 0.00881747 0.03497415 0.00390435 0.02117220 0.00165400 0.02129589 0.05040324 0.01443023 0.01597181 
0.01487271 0.01782479 0.00413909 0.00355388 0.01810767 0.00350220 0.01136621 0.00885434 0.03527148 0.00394331 0.02132989 0.00164611 0.02102309 0.04970228 0.01420061 0.01520758 
0.01463305 0.01798762 0.00418190 0.00357153 0.01798948 0.00347074 0.01117934 0.00888171 0.03551716 0.00397957 0.02146241 0.00163668 0.02072970 0.04897139 0.01396056 0.01443909 
0.01438790 0.01815338 0.00422639 0.00358794 0.01785899 0.00343551 0.01098579 0.00889961 0.03571066 0.00401293 0.02156950 0.00162577 0.02041710 0.04821613 0.01371180 0.01366941 
0.01413821 0.01832125 0.00427251 0.00360306 0.01771678 0.00339666 0.01078664 0.00890810 0.03585170 0.00404321 0.02165100 0.00161339 0.02008682 0.04744238 0.01345614 0.01290163 
0.01388498 0.01849046 0.00432016 0.00361681 0.01756344 0.00335435 0.01058298 0.00890731 0.03594024 0.00407023 0.02170691 0.00159961 0.01974042 0.04665628 0.01319545 0.01213882 
0.01362923 0.01866018 0.00436929 0.00362913 0.01739958 0.00330874 0.01037595 0.00889739 0.03597648 0.00409382 0.02173732 0.00158446 0.01937958 0.04586417 0.01293166 0.01138404 
0.01337204 0.01882963 0.00441979 0.00363998 0.01722581 0.00326003 0.01016664 0.00887856 0.03596089 0.00411382 0.02174244 0.00156801 0.01900603 0.04507260 0.01266677 0.01064031 
0.01311450 0.01899800 0.00447161 0.00364931 0.01704274 0.00320839 0.00995617 0.00885106 0.03589414 0.00413009 0.02172262 0.00155032 0.01862155 0.04428825 0.01240281 0.00991060 
0.01285771 0.01916450 0.00452466 0.00365707 0.01685100 0.00315402 0.00974564 0.00881518 0.03577717 0.00414249 0.02167833 0.00153144 0.01822798 0.04351790 0.01214182 0.00919783 
0.01260281 0.01932836 0.00457885 0.00366323 0.01665122 0.00309714 0.00953615 0.00877127 0.03561113 0.00415091 0.02161012 0.00151147 0.01782721 0.04276838 0.01188588 0.00850485 
0.01235094 0.01948879 0.00463410 0.00366777 0.01644401 0.00303796 0.00932874 0.00871969 0.03539739 0.00415524 0.02151871 0.00149046 0.01742112 0.04204652 0.01163702 0.00783445 
0.01210326 0.01964505 0.00469034 0.00367066 0.01623000 0.00297668 0.00912447 0.00866084 0.03513756 0.00415539 0.02140488 0.00146849 0.01701164 0.04135913 0.01139731 0.00718930 
0.01186093 0.01979641 0.00474745 0.00367188 0.01600979 0.00291354 0.00892434 0.00859516 0.03483341 0.00415131 0.02126954 0.00144566 0.01660070 0.04071290 0.01116876 0.00657200 
0.01162511 0.01994214 0.00480537 0.00367143 0.01578400 0.00284876 0.00872932 0.00852312 0.03448695 0.00414292 0.02111370 0.00142204 0.01619020 0.04011438 0.01095332 0.00598503 
0.01139694 0.02008155 0.00486400 0.00366929 0.01555322 0.00278256 0.00854035 0.00844521 0.03410035 0.00413020 0.02093846 0.00139773 0.01578204 0.03956997 0.01075291 0.00543074 
0.01117756 0.02021398 0.00492323 0.00366546 0.01531805 0.00271517 0.00835829 0.00836194 0.03367594 0.00411313 0.02074499 0.00137282 0.01537811 0.03908579 0.01056936 0.00491138 
0.01096810 0.02033879 0.00498298 0.00365996 0.01507905 0.00264683 0.00818400 0.00827385 0.03321622 0.00409170 0.02053457 0.00134739 0.01498024 0.03866769 0.01040443 0.00442905 
0.01076965 0.02045539 0.00504314 0.00365280 0.01483680 0.00257775 0.00801825 0.00818148 0.03272385 0.00406594 0.02030855 0.00132155 0.01459021 0.03832122 0.01025977 0.00398572 
0.01058329 0.02056318 0.00510361 0.00364398 0.01459185 0.00250816 0.00786176 0.00808540 0.03220158 0.00403588 0.02006832 0.00129538 0.01420976 0.03805153 0.01013693 0.00358321 
0.01041006 0.02066166 0.00516427 0.00363353 0.01434471 0.00243828 0.00771519 0.00798618 0.03165229 0.00400157 0.01981535 0.00126900 0.01384057 0.03786335 0.01003731 0.00322318 
0.01025095 0.02075030 0.00522501 0.00362148 0.01409592 0.00236832 0.00757914 0.00788440 0.03107896 0.00396310 0.01955116 0.00124249 0.01348422 0.03776099 0.00996222 0.00290713 
0.01010694 0.02082868 0.00528572 0.00360787 0.01384598 0.00229851 0.00745415 0.00778063 0.03048465 0.00392054 0.01927730 0.00121595 0.01314223 0.03774825 0.00991279 0.00263640 
0.00997893 0.02089635 0.00534627 0.00359272 0.01359535 0.00222903 0.00734068 0.00767545 0.02987246 0.00387401 0.01899535 0.00118947 0.01281602 0.03782840 0.00989002 0.00241217 
0.00986779 0.02095297 0.00540652 0.00357607 0.01334451 0.00216009 0.00723913 0.00756944 0.02924556 0.00382364 0.01870693 0.00116316 0.01250693 0.03800417 0.00989473 0.00223543 
0.00977432 0.02099821 0.00546635 0.00355798 0.01309390 0.00209189 0.00714982 0.00746315 0.02860713 0.00376957 0.01841365 0.00113711 0.01221618 0.03827770 0.00992760 0.00210702 
0.00969927 0.02103179 0.00552562 0.00353849 0.01284395 0.00202460 0.00707301 0.00735714 0.02796037 0.00371196 0.01811714 0.00111141 0.01194489 0.03865052 0.00998911 0.00202756 
0.00964332 0.02105348 0.00558417 0.00351767 0.01259506 0.00195839 0.00700889 0.00725195 0.02730845 0.00365098 0.01781902 0.00108615 0.01169408 0.03912355 0.01007956 0.00199754 
0.00960709 0.02106310 0.00564185 0.00349555 0.01234762 0.00189344 0.00695756 0.00714808 0.02665452 0.00358682 0.01752087 0.00106141 0.01146463 0.03969706 0.01019909 0.00201722 
0.00959110 0.02106054 0.00569852 0.00347222 0.01210199 0.00182991 0.00691908 0.00704604 0.02600171 0.00351970 0.01722429 0.00103729 0.01125732 0.04037065 0.01034763 0.00208672 
0.00959585 0.02104571 0.00575400 0.00344773 0.01185853 0.00176792 0.00689341 0.00694631 0.02535306 0.00344983 0.01693081 0.00101387 0.01107280 0.04114330 0.01052493 0.00220594 
0.00962170 0.02101859 0.00580812 0.00342216 0.01161756 0.00170763 0.00688046 0.00684932 0.02471154 0.00337743 0.01664192 0.00099122 0.01091161 0.04201328 0.01073055 0.00237462 
0.00966899 0.02097921 0.00586072 0.00339557 0.01137940 0.00164915 0.00688008 0.00675549 0.02408002 0.00330277 0.01635907 0.00096942 0.01077416 0.04297824 0.01096387 0.00259232 
0.00973792 0.02092765 0.00591160 0.00336806 0.01114433 0.00159261 0.00689203 0.00666522 0.02346128 0.00322608 0.01608365 0.00094854 0.01066073 0.04403516 0.01122407 0.00285840 
0.00982865 0.02086404 0.00596060 0.00333968 0.01091263 0.00153810 0.00691604 0.00657886 0.02285793 0.00314763 0.01581698 0.00092864 0.01057148 0.04518037 0.01151017 0.00317207 
0.00994124 0.02078857 0.00600751 0.00331054 0.01068457 0.00148571 0.00695176 0.00649672 0.02227250 0.00306771 0.01556028 0.00090979 0.01050645 0.04640958 0.01182100 0.00353233 
0.01007565 0.02070148 0.00605215 0.00328070 0.01046038 0.00143554 0.00699879 0.00641910 0.02170732 0.00298657 0.01531472 0.00089205 0.01046557 0.04771791 0.01215522 0.00393805 
0.01023178 0.02060305 0.00609433 0.00325028 0.01024028 0.00138765 0.00705668 0.00634623 0.02116457 0.00290453 0.01508137 0.00087546 0.01044864 0.04909986 0.01251131 0.00438789 
0.01040943 0.02049362 0.00613385 0.00321934 0.01002449 0.00134210 0.00712493 0.00627834 0.02064627 0.00282186 0.01486120 0.00086008 0.01045535 0.05054942 0.01288764 0.00488037 
0.01060829 0.02037360 0.00617050 0.00318799 0.00981320 0.00129894 0.00720298 0.00621558 0.02015425 0.00273887 0.01465509 0.00084594 0.01048528 0.05206002 0.01328238 0.00541385 
0.01082800 0.02024340 0.00620411 0.00315632 0.00960659 0.00125822 0.00729027 0.00615809 0.01969011 0.00265585 0.01446379 0.00083309 0.01053791 0.05362463 0.01369361 0.00598653 
0.01106809 0.02010352 0.00623446 0.00312443 0.00940483 0.00121996 0.00738615 0.00610596 0.01925531 0.00257312 0.01428797 0.00082155 0.01061262 0.05523577 0.01411926 0.00659647 
0.01132802 0.01995449 0.00626137 0.00309242 0.00920807 0.00118419 0.00748998 0.00605926 0.01885105 0.00249098 0.01412818 0.00081134 0.01070870 0.05688557 0.01455715 0.00724157 
0.01160716 0.01979688 0.00628465 0.00306039 0.00901646 0.00115091 0.00760107 0.00601798 0.01847835 0.00240972 0.01398485 0.00080250 0.01082535 0.05856578 0.01500501 0.00791961 
0.01190480 0.01963131 0.00630410 0.00302843 0.00883011 0.00112014 0.00771871 0.00598212 0.01813800 0.00232967 0.01385830 0.00079503 0.01096167 0.06026786 0.01546049 0.00862825 
0.01222014 0.01945843 0.00631955 0.00299666 0.00864916 0.00109187 0.00784217 0.00595160 0.01783058 0.00225113 0.01374873 0.00078894 0.01111671 0.06198304 0.01592116 0.00936501 
0.01255234 0.01927895 0.00633082 0.00296516 0.00847369 0.00106607 0.00797071 0.00592634 0.01755644 0.00217439 0.01365622 0.00078423 0.01128945 0.06370231 0.01638454 0.01012732 
0.01290046 0.01909359 0.00633775 0.00293405 0.00830381 0.00104275 0.00810357 0.00590621 0.01731574 0.00209975 0.01358076 0.00078092 0.01147880 0.06541654 0.01684810 0.01091249 
0.01326349 0.01890311 0.00634018 0.00290343 0.00813961 0.00102186 0.00824000 0.00589104 0.01710841 0.00202751 0.01352218 0.00077898 0.01168362 0.06711651 0.01730931 0.01171775 
0.01364037 0.01870832 0.00633797 0.00287340 0.00798114 0.00100337 0.00837923 0.00588063 0.01693416 0.00195796 0.01348025 0.00077840 0.01190274 0.06879298 0.01776560 0.01254023 
0.01402997 0.01851003 0.00633097 0.00284406 0.00782849 0.00098725 0.00852051 0.00587477 0.01679251 0.00189138 0.01345459 0.00077917 0.01213494 0.07043672 0.01821445 0.01337699 
0.01443113 0.01830909 0.00631907 0.00281551 0.00768170 0.00097344 0.00866308 0.00587321 0.01668278 0.00182804 0.01344473 0.00078127 0.01237896 0.07203860 0.01865333 0.01422505 
0.01484261 0.01810636 0.00630217 0.00278784 0.00754081 0.00096191 0.00880620 0.00587565 0.01660409 0.00176822 0.01345011 0.00078467 0.01263355 0.07358963 0.01907976 0.01508133 
0.01526315 0.01790275 0.00628017 0.00276116 0.00740587 0.00095260 0.00894914 0.00588182 0.01655539 0.00171218 0.01347006 0.00078933 0.01289741 0.07508103 0.01949132 0.01594276 
0.01569142 0.01769915 0.00625299 0.00273557 0.00727689 0.00094544 0.00909118 0.00589139 0.01653546 0.00166016 0.01350384 0.00079523 0.01316928 0.07650427 0.01988567 0.01680620 
0.01612610 0.01749647 0.00622059 0.00271114 0.00715390 0.00094038 0.00923165 0.00590402 0.01654290 0.00161241 0.01355059 0.00080232 0.01344786 0.07785115 0.02026055 0.01766849 
0.01656582 0.01729565 0.00618292 0.00268798 0.00703690 0.00093735 0.00936987 0.00591936 0.01657619 0.00156915 0.01360942 0.00081056 0.01373188 0.07911381 0.02061378 0.01852650 
0.01700918 0.01709761 0.00613997 0.00266616 0.00692589 0.00093629 0.00950521 0.00593706 0.01663364 0.00153062 0.01367934 0.00081990 0.01402008 0.08028482 0.02094334 0.01937705 
0.01745478 0.01690329 0.00609175 0.00264577 0.00682085 0.00093713 0.00963705 0.00595673 0.01671348 0.00149702 0.01375932 0.00083029 0.01431124 0.08135723 0.02124730 0.02021702 
0.01790122 0.01671361 0.00603827 0.00262688 0.00672178 0.00093980 0.00976481 0.00597801 0.01681381 0.00146855 0.01384824 0.00084167 0.01460414 0.08232457 0.02152389 0.02104328 
0.01834708 0.01652951 0.00597958 0.00260956 0.00662863 0.00094422 0.00988796 0.00600051 0.01693263 0.00144538 0.01394499 0.00085400 0.01489763 0.08318095 0.02177149 0.02185276 
0.01879095 0.01635190 0.00591577 0.00259390 0.00654138 0.00095033 0.01000599 0.00602385 0.01706790 0.00142770 0.01404838 0.00086721 0.01519057 0.08392105 0.02198862 0.02264245 
0.01923144 0.01618169 0.00584691 0.00257993 0.00645996 0.00095804 0.01011841 0.00604765 0.01721747 0.00141566 0.01415722 0.00088123 0.01548189 0.08454019 0.02217400 0.02340937 
0.01966717 0.01601977 0.00577313 0.00256773 0.00638434 0.00096729 0.01022481 0.00607155 0.01737920 0.00140941 0.01427029 0.00089602 0.01577056 0.08503432 0.02232652 0.02415064 
0.02009679 0.01586701 0.00569456 0.00255734 0.00631443 0.00097801 0.01032478 0.00609519 0.01755090 0.00140907 0.01438637 0.00091149 0.01605562 0.08540010 0.02244526 0.02486346 
0.02051896 0.01572426 0.00561138 0.00254880 0.00625018 0.00099011 0.01041798 0.00611820 0.01773036 0.00141477 0.01450424 0.00092758 0.01633616 0.08563488 0.02252947 0.02554512 
0.02093241 0.01559234 0.00552376 0.00254215 0.00619149 0.00100353 0.01050409 0.00614025 0.01791539 0.00142660 0.01462267 0.00094423 0.01661134 0.08573674 0.02257861 0.02619303 
0.02133587 0.01547205 0.00543193 0.00253742 0.00613827 0.00101820 0.01058283 0.00616102 0.01810383 0.00144466 0.01474048 0.00096137 0.01688037 0.08570447 0.02259236 0.02680472 
0.02172815 0.01536415 0.00533610 0.00253463 0.00609042 0.00103403 0.01065397 0.00618022 0.01829355 0.00146900 0.01485651 0.00097893 0.01714255 0.08553763 0.02257057 0.02737784 
0.02210810 0.01526936 0.00523654 0.00253380 0.00604784 0.00105096 0.01071732 0.00619756 0.01848247 0.00149970 0.01496962 0.00099683 0.01739725 0.08523652 0.02251331 0.02791018 
0.02247462 0.01518838 0.00513352 0.00253492 0.00601040 0.00106892 0.01077274 0.00621278 0.01866859 0.00153677 0.01507872 0.00101500 0.01764390 0.08480217 0.02242083 0.02839969 
0.02282668 0.01512185 0.00502735 0.00253800 0.00597798 0.00108784 0.01082009 0.00622566 0.01885000 0.00158026 0.01518279 0.00103339 0.01788201 0.08423637 0.02229361 0.02884448 
0.02316331 0.01507037 0.00491833 0.00254302 0.00595046 0.00110765 0.01085930 0.00623599 0.01902487 0.00163016 0.01528086 0.00105191 0.01811118 0.08354162 0.02213230 0.02924281 
0.02348360 0.01503451 0.00480681 0.00254997 0.00592768 0.00112828 0.01089034 0.00624361 0.01919149 0.00168647 0.01537200 0.00107051 0.01833106 0.08272116 0.02193774 0.02959314 
0.02378675 0.01501475 0.00469314 0.00255882 0.00590950 0.00114966 0.01091320 0.00624836 0.01934828 0.00174915 0.01545540 0.00108910 0.01854139 0.08177890 0.02171098 0.02989410 
0.02407198 0.01501157 0.00457768 0.00256953 0.00589578 0.00117173 0.01092791 0.00625014 0.01949377 0.00181817 0.01553028 0.00110764 0.01874197 0.08071943 0.02145322 0.03014451 
0.02433862 0.01502537 0.00446082 0.00258205 0.00588635 0.00119442 0.01093452 0.00624887 0.01962667 0.00189346 0.01559598 0.00112604 0.01893268 0.07954800 0.02116585 0.03034339 
0.02458609 0.01505648 0.00434296 0.00259633 0.00588104 0.00121767 0.01093313 0.00624451 0.01974580 0.00197496 0.01565190 0.00114425 0.01911347 0.07827045 0.02085041 0.03048994 
0.02481386 0.01510521 0.00422450 0.00261231 0.00587969 0.00124141 0.01092386 0.00623705 0.01985015 0.00206256 0.01569755 0.00116221 0.01928436 0.07689321 0.02050858 0.03058360 
0.02502150 0.01517178 0.00410586 0.00262991 0.00588213 0.00126557 0.01090686 0.00622652 0.01993891 0.00215615 0.01573252 0.00117985 0.01944543 0.07542326 0.02014221 0.03062399 
0.02520867 0.01525637 0.00398748 0.00264907 0.00588819 0.00129010 0.01088229 0.00621297 0.02001138 0.00225561 0.01575651 0.00119713 0.01959682 0.07386807 0.01975325 0.03061095 
0.02537510 0.01535910 0.00386978 0.00266968 0.00589767 0.00131494 0.01085035 0.00619651 0.02006707 0.00236079 0.01576929 0.00121398 0.01973872 0.07223556 0.01934379 0.03054452 
0.02552061 0.01548000 0.00375319 0.00269166 0.00591040 0.00134001 0.01081126 0.00617726 0.02010567 0.00247155 0.01577076 0.00123035 0.01987140 0.07053408 0.01891599 0.03042497 
0.02564509 0.01561908 0.00363816 0.00271490 0.00592620 0.00136526 0.01076525 0.00615539 0.02012701 0.00258769 0.01576090 0.00124619 0.01999517 0.06877232 0.01847213 0.03025276 
0.02574853 0.01577627 0.00352513 0.00273930 0.00594489 0.00139062 0.01071257 0.00613109 0.02013112 0.00270903 0.01573977 0.00126146 0.02011036 0.06695929 0.01801454 0.03002858 
0.02583099 0.01595143 0.00341453 0.00276474 0.00596627 0.00141604 0.01065350 0.00610458 0.02011819 0.00283537 0.01570756 0.00127611 0.02021739 0.06510425 0.01754563 0.02975330 
0.02589261 0.01614436 0.00330680 0.00279110 0.00599017 0.00144144 0.01058831 0.00607614 0.02008860 0.00296648 0.01566453 0.00129010 0.02031668 0.06321668 0.01706786 0.02942801 
0.02593359 0.01635483 0.00320237 0.00281824 0.00601641 0.00146678 0.01051729 0.00604603 0.02004286 0.00310213 0.01561103 0.00130340 0.02040869 0.06130621 0.01658368 0.02905399 
0.02595424 0.01658250 0.00310165 0.00284605 0.00604480 0.00149198 0.01044074 0.00601458 0.01998167 0.00324207 0.01554749 0.00131596 0.02049394 0.05938254 0.01609561 0.02863273 
0.02595490 0.01682701 0.00300505 0.00287438 0.00607517 0.00151700 0.01035898 0.00598212 0.01990587 0.00338603 0.01547445 0.00132776 0.02057293 0.05745546 0.01560614 0.02816587 
0.02593600 0.01708794 0.00291298 0.00290309 0.00610734 0.00154175 0.01027233 0.00594901 0.01981643 0.00353376 0.01539249 0.00133877 0.02064620 0.05553470 0.01511774 0.02765526 
0.02589802 0.01736479 0.00282583 0.00293205 0.00614114 0.00156620 0.01018109 0.00591562 0.01971447 0.00368495 0.01530227 0.00134896 0.02071431 0.05362995 0.01463287 0.02710290 
0.02584150 0.01765702 0.00274396 0.00296110 0.00617639 0.00159026 0.01008560 0.00588235 0.01960123 0.00383932 0.01520454 0.00135831 0.02077782 0.05175078 0.01415395 0.02651097 
0.02576706 0.01796406 0.00266772 0.00299011 0.00621294 0.00161389 0.00998618 0.00584960 0.01947806 0.00399655 0.01510007 0.00136681 0.02083729 0.04990658 0.01368332 0.02588178 
0.02567533 0.01828525 0.00259746 0.00301891 0.00625063 0.00163702 0.00988315 0.00581781 0.01934643 0.00415634 0.01498970 0.00137443 0.02089330 0.04810652 0.01322328 0.02521780 
0.02556701 0.01861991 0.00253349 0.00304737 0.00628930 0.00165960 0.00977685 0.00578739 0.01920787 0.00431836 0.01487432 0.00138117 0.02094641 0.04635950 0.01277602 0.02452160 
0.02544284 0.01896731 0.00247609 0.00307534 0.00632880 0.00168156 0.00966759 0.00575877 0.01906401 0.00448228 0.01475485 0.00138702 0.02099716 0.04467412 0.01234366 0.02379590 
0.02530359 0.01932668 0.00242555 0.00310267 0.00636898 0.00170285 0.00955570 0.00573239 0.01891654 0.00464776 0.01463223 0.00139198 0.02104610 0.04305859 0.01192821 0.02304351 
0.02515007 0.01969721 0.00238211 0.00312923 0.00640971 0.00172341 0.00944150 0.00570869 0.01876719 0.00481448 0.01450743 0.00139604 0.02109375 0.04152073 0.01153156 0.02226733 
0.02498312 0.02007805 0.00234599 0.00315487 0.00645085 0.00174319 0.00932529 0.00568809 0.01861773 0.00498207 0.01438143 0.00139920 0.02114062 0.04006793 0.01115546 0.02147035 
0.02480358 0.02046833 0.00231738 0.00317945 0.00649227 0.00176213 0.00920738 0.00567101 0.01846996 0.00515020 0.01425523 0.00140147 0.02118717 0.03870707 0.01080156 0.02065561 
0.02461234 0.02086713 0.00229644 0.00320286 0.00653384 0.00178018 0.00908807 0.00565785 0.01832568 0.00531853 0.01412979 0.00140286 0.02123386 0.03744454 0.01047135 0.01982622 
0.02441028 0.02127354 0.00228333 0.00322495 0.00657544 0.00179729 0.00896766 0.00564901 0.01818668 0.00548670 0.01400610 0.00140339 0.02128111 0.03628619 0.01016616 0.01898531 
0.02419830 0.02168659 0.00227814 0.00324562 0.00661696 0.00181342 0.00884644 0.00564486 0.01805474 0.00565438 0.01388511 0.00140305 0.02132929 0.03523728 0.00988720 0.01813607 
0.02397730 0.02210533 0.00228095 0.00326475 0.00665827 0.00182852 0.00872468 0.00564576 0.01793161 0.00582121 0.01376775 0.00140188 0.02137875 0.03430250 0.00963548 0.01728166 
0.02374819 0.02252877 0.00229182 0.00328224 0.00669929 0.00184255 0.00860265 0.00565203 0.01781897 0.00598687 0.01365490 0.00139989 0.02142979 0.03348591 0.00941187 0.01642528 
0.02351186 0.02295592 0.00231075 0.00329799 0.00673989 0.00185547 0.00848062 0.00566398 0.01771846 0.00615102 0.01354742 0.00139710 0.02148268 0.03279096 0.00921709 0.01557007 
0.02326922 0.02338578 0.00233775 0.00331191 0.00677997 0.00186726 0.00835885 0.00568187 0.01763164 0.00631334 0.01344613 0.00139354 0.02153763 0.03222044 0.00905166 0.01471918 
0.02302113 0.02381736 0.00237276 0.00332394 0.00681943 0.00187788 0.00823758 0.00570595 0.01755999 0.00647350 0.01335176 0.00138925 0.02159483 0.03177651 0.00891595 0.01387571 
0.02276848 0.02424966 0.00241572 0.00333399 0.00685817 0.00188730 0.00811705 0.00573643 0.01750488 0.00663121 0.01326502 0.00138423 0.02165438 0.03146066 0.00881018 0.01304270 
0.02251211 0.02468168 0.00246652 0.00334202 0.00689609 0.00189551 0.00799748 0.00577346 0.01746760 0.00678615 0.01318654 0.00137854 0.02171639 0.03127374 0.00873436 0.01222314 
0.02225286 0.02511245 0.00252502 0.00334797 0.00693309 0.00190249 0.00787910 0.00581719 0.01744931 0.00693805 0.01311687 0.00137221 0.02178087 0.03121593 0.00868838 0.01141992 
0.02199154 0.02554100 0.00259107 0.00335181 0.00696907 0.00190823 0.00776212 0.00586770 0.01745104 0.00708663 0.01305650 0.00136526 0.02184781 0.03128678 0.00867195 0.01063587 
0.02172894 0.02596637 0.00266448 0.00335353 0.00700394 0.00191273 0.00764674 0.00592504 0.01747370 0.00723162 0.01300585 0.00135774 0.02191714 0.03148520 0.00868463 0.00987372 
0.02146582 0.02638762 0.00274502 0.00335310 0.00703757 0.00191599 0.00753315 0.00598921 0.01751806 0.00737278 0.01296524 0.00134970 0.02198876 0.03180946 0.00872582 0.00913607 
0.02120292 0.02680385 0.00283245 0.00335052 0.00706989 0.00191802 0.00742154 0.00606019 0.01758475 0.00750987 0.01293492 0.00134116 0.02206251 0.03225725 0.00879478 0.00842545 
0.02094095 0.02721416 0.00292650 0.00334581 0.00710076 0.00191883 0.00731208 0.00613788 0.01767425 0.00764267 0.01291506 0.00133217 0.02213817 0.03282565 0.00889064 0.00774422 
0.02068059 0.02761770 0.00302687 0.00333899 0.00713009 0.00191844 0.00720494 0.00622216 0.01778688 0.00777098 0.01290574 0.00132279 0.02221550 0.03351117 0.00901240 0.00709464 
0.02042248 0.02801363 0.00313324 0.00333010 0.00715776 0.00191688 0.00710027 0.00631288 0.01792282 0.00789460 0.01290696 0.00131304 0.02229419 0.03430980 0.00915892 0.00647883 
0.02016725 0.02840116 0.00324526 0.00331917 0.00718365 0.00191419 0.00699823 0.00640981 0.01808209 0.00801337 0.01291861 0.00130298 0.02237391 0.03521700 0.00932895 0.00589876 
0.01991549 0.02877952 0.00336259 0.00330627 0.00720763 0.00191041 0.00689894 0.00651270 0.01826455 0.00812713 0.01294053 0.00129265 0.02245429 0.03622774 0.00952116 0.00535626 
0.01966775 0.02914799 0.00348482 0.00329146 0.00722959 0.00190557 0.00680254 0.00662126 0.01846993 0.00823573 0.01297246 0.00128210 0.02253489 0.03733657 0.00973409 0.00485300 
0.01942457 0.02950587 0.00361156 0.00327482 0.00724938 0.00189975 0.00670915 0.00673515 0.01869777 0.00833907 0.01301406 0.00127138 0.02261526 0.03853757 0.00996621 0.00439051 
0.01918644 0.02985252 0.00374240 0.00325644 0.00726687 0.00189300 0.00661889 0.00685401 0.01894749 0.00843702 0.01306491 0.00126053 0.02269493 0.03982448 0.01021591 0.00397014 
0.01895384 0.03018733 0.00387690 0.00323642 0.00728192 0.00188538 0.00653185 0.00697742 0.01921836 0.00852950 0.01312452 0.00124959 0.02277335 0.04119068 0.01048154 0.00359310 
0.01872721 0.03050972 0.00401462 0.00321485 0.00729439 0.00187697 0.00644813 0.00710495 0.01950950 0.00861643 0.01319233 0.00123862 0.02285000 0.04262925 0.01076135 0.00326043 
0.01850697 0.03081918 0.00415509 0.00319187 0.00730411 0.00186786 0.00636781 0.00723612 0.01981990 0.00869775 0.01326770 0.00122766 0.02292428 0.04413299 0.01105358 0.00297301 
0.01829351 0.03111523 0.00429787 0.00316758 0.00731093 0.00185813 0.00629096 0.00737042 0.02014844 0.00877343 0.01334995 0.00121676 0.02299561 0.04569449 0.01135643 0.00273156 
0.01808719 0.03139741 0.00444247 0.00314212 0.00731471 0.00184786 0.00621767 0.00750734 0.02049385 0.00884342 0.01343833 0.00120596 0.02306337 0.04730614 0.01166807 0.00253662 
0.01788836 0.03166534 0.00458843 0.00311562 0.00731526 0.00183717 0.00614796 0.00764632 0.02085477 0.00890771 0.01353202 0.00119530 0.02312692 0.04896019 0.01198668 0.00238860 
0.01769734 0.03191867 0.00473525 0.00308821 0.00731243 0.00182615 0.00608191 0.00778680 0.02122973 0.00896630 0.01363019 0.00118482 0.02318563 0.05064880 0.01231041 0.00228772 
0.01751443 0.03215707 0.00488247 0.00306005 0.00730606 0.00181490 0.00601954 0.00792818 0.02161717 0.00901920 0.01373195 0.00117457 0.02323883 0.05236405 0.01263744 0.00223406 
0.01733991 0.03238030 0.00502959 0.00303128 0.00729597 0.00180354 0.00596088 0.00806988 0.02201543 0.00906643 0.01383638 0.00116459 0.02328587 0.05409801 0.01296596 0.00222754 
0.01717404 0.03258812 0.00517615 0.00300205 0.00728199 0.00179218 0.00590596 0.00821128 0.02242280 0.00910801 0.01394254 0.00115490 0.02332610 0.05584278 0.01329421 0.00226794 
0.01701707 0.03278034 0.00532166 0.00297251 0.00726397 0.00178094 0.00585477 0.00835179 0.02283750 0.00914399 0.01404945 0.00114556 0.02335885 0.05759050 0.01362043 0.00235487 
0.01686921 0.03295684 0.00546567 0.00294281 0.00724174 0.00176994 0.00580732 0.00849078 0.02325769 0.00917441 0.01415614 0.00113660 0.02338348 0.05933342 0.01394295 0.00248780 
0.01673069 0.03311751 0.00560771 0.00291310 0.00721514 0.00175929 0.00576360 0.00862765 0.02368150 0.00919935 0.01426163 0.00112804 0.02339934 0.06106393 0.01426014 0.00266609 
0.01660170 0.03326229 0.00574735 0.00288354 0.00718402 0.00174912 0.00572359 0.00876180 0.02410702 0.00921885 0.01436494 0.00111992 0.02340581 0.06277458 0.01457043 0.00288891 
0.01648242 0.03339115 0.00588413 0.00285425 0.00714824 0.00173955 0.00568725 0.00889263 0.02453234 0.00923299 0.01446509 0.00111227 0.02340229 0.06445815 0.01487232 0.00315535 
0.01637303 0.03350413 0.00601764 0.00282540 0.00710765 0.00173070 0.00565455 0.00901958 0.02495552 0.00924185 0.01456114 0.00110510 0.02338817 0.06610765 0.01516440 0.00346433 
0.01627367 0.03360126 0.00614748 0.00279712 0.00706212 0.00172269 0.00562543 0.00914208 0.02537465 0.00924550 0.01465214 0.00109846 0.02336291 0.06771634 0.01544536 0.00381468 
0.01618449 0.03368266 0.00627325 0.00276954 0.00701155 0.00171563 0.00559984 0.00925959 0.02578782 0.00924404 0.01473720 0.00109236 0.02332597 0.06927782 0.01571394 0.00420509 
0.01610562 0.03374843 0.00639459 0.00274279 0.00695583 0.00170965 0.00557770 0.00937160 0.02619316 0.00923756 0.01481545 0.00108681 0.02327684 0.07078600 0.01596902 0.00463415 
0.01603718 0.03379876 0.00651113 0.00271699 0.00689488 0.00170484 0.00555894 0.00947761 0.02658883 0.00922614 0.01488607 0.00108185 0.02321507 0.07223515 0.01620955 0.00510034 
0.01597927 0.03383384 0.00662257 0.00269227 0.00682862 0.00170132 0.00554346 0.00957718 0.02697305 0.00920988 0.01494828 0.00107747 0.02314024 0.07361990 0.01643461 0.00560203 
0.01593199 0.03385391 0.00672858 0.00266871 0.00675700 0.00169918 0.00553116 0.00966988 0.02734409 0.00918888 0.01500137 0.00107370 0.02305195 0.07493531 0.01664338 0.00613751 
0.01589540 0.03385924 0.00682888 0.00264642 0.00667999 0.00169853 0.00552194 0.00975531 0.02770028 0.00916323 0.01504467 0.00107055 0.02294987 0.07617683 0.01683514 0.00670497 
0.01586957 0.03385013 0.00692322 0.00262549 0.00659759 0.00169944 0.00551568 0.00983313 0.02804004 0.00913303 0.01507759 0.00106802 0.02283372 0.07734035 0.01700930 0.00730251 
0.01585454 0.03382694 0.00701137 0.00260599 0.00650982 0.00170201 0.00551224 0.00990301 0.02836189 0.00909839 0.01509961 0.00106612 0.02270326 0.07842222 0.01716537 0.00792815 
0.01585035 0.03379003 0.00709311 0.00258799 0.00641670 0.00170629 0.00551149 0.00996470 0.02866443 0.00905940 0.01511028 0.00106485 0.02255832 0.07941924 0.01730299 0.00857984 
0.01585701 0.03373981 0.00716828 0.00257154 0.00631832 0.00171236 0.00551329 0.01001795 0.02894634 0.00901617 0.01510922 0.00106422 0.02239875 0.08032866 0.01742190 0.00925547 
0.01587450 0.03367674 0.00723671 0.00255669 0.00621477 0.00172026 0.00551747 0.01006259 0.02920646 0.00896879 0.01509615 0.00106422 0.02222451 0.08114824 0.01752197 0.00995284 
0.01590280 0.03360130 0.00729829 0.00254348 0.00610617 0.00173005 0.00552389 0.01009845 0.02944369 0.00891738 0.01507085 0.00106485 0.02203559 0.08187619 0.01760317 0.01066973 
0.01594187 0.03351400 0.00735292 0.00253192 0.00599268 0.00174175 0.00553235 0.01012545 0.02965708 0.00886204 0.01503320 0.00106611 0.02183205 0.08251119 0.01766558 0.01140383 
0.01599162 0.03341539 0.00740053 0.00252203 0.00587449 0.00175539 0.00554270 0.01014353 0.02984581 0.00880287 0.01498317 0.00106799 0.02161401 0.08305244 0.01770939 0.01215280 
0.01605196 0.03330608 0.00744110 0.00251379 0.00575183 0.00177097 0.00555474 0.01015267 0.03000917 0.00873999 0.01492082 0.00107048 0.02138166 0.08349956 0.01773492 0.01291427 
0.01612277 0.03318668 0.00747460 0.00250721 0.00562494 0.00178850 0.00556828 0.01015291 0.03014659 0.00867350 0.01484628 0.00107358 0.02113527 0.08385269 0.01774255 0.01368582 
0.01620391 0.03305787 0.00750106 0.00250224 0.00549413 0.00180796 0.00558312 0.01014432 0.03025763 0.00860351 0.01475978 0.00107726 0.02087515 0.08411240 0.01773280 0.01446501 
0.01629518 0.03292034 0.00752052 0.00249886 0.00535970 0.00182933 0.00559906 0.01012702 0.03034199 0.00853014 0.01466166 0.00108152 0.02060171 0.08427973 0.01770624 0.01524937 
0.01639639 0.03277486 0.00753306 0.00249702 0.00522203 0.00185256 0.00561590 0.01010115 0.03039949 0.00845352 0.01455231 0.00108634 0.02031541 0.08435614 0.01766357 0.01603641 
0.01650729 0.03262218 0.00753878 0.00249666 0.00508150 0.00187761 0.00563341 0.01006693 0.03043012 0.00837375 0.01443222 0.00109170 0.02001678 0.08434356 0.01760554 0.01682365 
0.01662762 0.03246315 0.00753780 0.00249770 0.00493853 0.00190442 0.00565138 0.01002457 0.03043397 0.00829098 0.01430198 0.00109759 0.01970642 0.08424428 0.01753301 0.01760859 
0.01675707 0.03229861 0.00753027 0.00250008 0.00479360 0.00193290 0.00566960 0.00997434 0.03041127 0.00820532 0.01416225 0.00110400 0.01938500 0.08406103 0.01744689 0.01838872 
0.01689530 0.03212947 0.00751637 0.00250370 0.00464720 0.00196297 0.00568784 0.00991654 0.03036241 0.00811692 0.01401375 0.00111089 0.01905326 0.08379690 0.01734816 0.01916158 
0.01704193 0.03195666 0.00749629 0.00250846 0.00449984 0.00199453 0.00570588 0.00985151 0.03028787 0.00802592 0.01385729 0.00111824 0.01871200 0.08345534 0.01723786 0.01992468 
0.01719657 0.03178116 0.00747025 0.00251426 0.00435208 0.00202746 0.00572349 0.00977959 0.03018829 0.00793246 0.01369376 0.00112605 0.01836209 0.08304014 0.01711709 0.02067559 
0.01735875 0.03160398 0.00743848 0.00252099 0.00420452 0.00206164 0.00574046 0.00970117 0.03006440 0.00783671 0.01352409 0.00113428 0.01800446 0.08255539 0.01698698 0.02141188 
0.01752801 0.03142616 0.00740125 0.00252853 0.00405776 0.00209693 0.00575656 0.00961666 0.02991706 0.00773881 0.01334929 0.00114291 0.01764009 0.08200550 0.01684872 0.02213117 
0.01770383 0.03124879 0.00735881 0.00253674 0.00391244 0.00213319 0.00577158 0.00952648 0.02974725 0.00763894 0.01317040 0.00115192 0.01727004 0.08139514 0.01670352 0.02283114 
0.01788565 0.03107296 0.00731147 0.00254552 0.00376923 0.00217027 0.00578529 0.00943106 0.02955605 0.00753726 0.01298854 0.00116129 0.01689540 0.08072920 0.01655262 0.02350949 
0.01807289 0.03089982 0.00725951 0.00255471 0.00362881 0.00220799 0.00579749 0.00933087 0.02934464 0.00743397 0.01280485 0.00117099 0.01651732 0.08001281 0.01639727 0.02416401 
0.01826493 0.03073054 0.00720325 0.00256418 0.00349187 0.00224619 0.00580797 0.00922637 0.02911428 0.00732925 0.01262051 0.00118100 0.01613702 0.07925129 0.01623875 0.02479253 
0.01846111 0.03056629 0.00714300 0.00257380 0.00335914 0.00228467 0.00581652 0.00911804 0.02886633 0.00722328 0.01243672 0.00119128 0.01575573 0.07845011 0.01607833 0.02539299 
0.01866075 0.03040827 0.00707911 0.00258342 0.00323136 0.00232326 0.00582297 0.00900635 0.02860222 0.00711627 0.01225472 0.00120183 0.01537474 0.07761490 0.01591728 0.02596336 
0.01886314 0.03025771 0.00701190 0.00259290 0.00310925 0.00236176 0.00582711 0.00889178 0.02832345 0.00700843 0.01207575 0.00121261 0.01499536 0.07675138 0.01575686 0.02650176 
0.01906753 0.03011582 0.00694171 0.00260209 0.00299357 0.00239997 0.00582877 0.00877482 0.02803159 0.00689997 0.01190106 0.00122361 0.01461897 0.07586535 0.01559832 0.02700636 
0.01927316 0.02998383 0.00686888 0.00261087 0.00288508 0.00243769 0.00582780 0.00865595 0.02772826 0.00679110 0.01173190 0.00123478 0.01424692 0.07496268 0.01544290 0.02747545 
0.01947924 0.02986298 0.00679376 0.00261909 0.00278452 0.00247471 0.00582403 0.00853565 0.02741512 0.00668205 0.01156951 0.00124612 0.01388062 0.07404927 0.01529179 0.02790745 
0.01968497 0.02975448 0.00671668 0.00262662 0.00269264 0.00251082 0.00581733 0.00841436 0.02709385 0.00657303 0.01141513 0.00125760 0.01352149 0.07313099 0.01514615 0.02830086 
0.01988951 0.02965952 0.00663798 0.00263332 0.00261018 0.00254583 0.00580757 0.00829257 0.02676620 0.00646429 0.01126995 0.00126919 0.01317096 0.07221372 0.01500712 0.02865435 
0.02009203 0.02957930 0.00655799 0.00263908 0.00253788 0.00257950 0.00579462 0.00817070 0.02643389 0.00635606 0.01113515 0.00128088 0.01283044 0.07130326 0.01487578 0.02896670 
0.02029168 0.02951496 0.00647703 0.00264377 0.00247644 0.00261166 0.00577841 0.00804919 0.02609868 0.00624856 0.01101187 0.00129263 0.01250138 0.07040535 0.01475317 0.02923683 
0.02048762 0.02946763 0.00639543 0.00264728 0.00242657 0.00264208 0.00575884 0.00792846 0.02576232 0.00614203 0.01090118 0.00130443 0.01218519 0.06952562 0.01464026 0.02946381 
0.02067898 0.02943837 0.00631347 0.00264950 0.00238894 0.00267058 0.00573584 0.00780891 0.02542655 0.00603671 0.01080415 0.00131626 0.01188327 0.06866956 0.01453798 0.02964685 
0.02086493 0.02942822 0.00623147 0.00265033 0.00236420 0.00269696 0.00570939 0.00769092 0.02509307 0.00593283 0.01072173 0.00132809 0.01159703 0.06784253 0.01444720 0.02978534 
0.02104461 0.02943813 0.00614970 0.00264969 0.00235296 0.00272104 0.00567944 0.00757485 0.02476360 0.00583062 0.01065486 0.00133990 0.01132780 0.06704969 0.01436871 0.02987880 
0.02121720 0.02946900 0.00606842 0.00264750 0.00235581 0.00274263 0.00564599 0.00746105 0.02443979 0.00573031 0.01060438 0.00135168 0.01107694 0.06629602 0.01430324 0.02992694 
0.02138189 0.02952167 0.00598789 0.00264367 0.00237330 0.00276157 0.00560906 0.00734984 0.02412324 0.00563213 0.01057106 0.00136340 0.01084572 0.06558628 0.01425144 0.02992964 
0.02153788 0.02959686 0.00590834 0.00263816 0.00240594 0.00277769 0.00556868 0.00724153 0.02381552 0.00553630 0.01055559 0.00137505 0.01063538 0.06492499 0.01421391 0.02988692 
0.02168442 0.02969523 0.00582999 0.00263091 0.00245419 0.00279086 0.00552490 0.00713638 0.02351813 0.00544303 0.01055857 0.00138660 0.01044712 0.06431640 0.01419114 0.02979901 
0.02182077 0.02981733 0.00575304 0.00262187 0.00251847 0.00280092 0.00547780 0.00703467 0.02323250 0.00535252 0.01058051 0.00139804 0.01028207 0.06376451 0.01418358 0.02966629 
0.02194623 0.02996362 0.00567765 0.00261103 0.00259916 0.00280777 0.00542749 0.00693663 0.02295999 0.00526499 0.01062184 0.00140935 0.01014131 0.06327301 0.01419156 0.02948933 
0.02206016 0.03013443 0.00560401 0.00259835 0.00269655 0.00281129 0.00537409 0.00684247 0.02270187 0.00518061 0.01068287 0.00142051 0.01002582 0.06284529 0.01421537 0.02926886 
0.02216194 0.03032998 0.00553223 0.00258384 0.00281093 0.00281138 0.00531773 0.00675240 0.02245933 0.00509957 0.01076383 0.00143152 0.00993653 0.06248442 0.01425520 0.02900581 
0.02225101 0.03055038 0.00546245 0.00256750 0.00294249 0.00280796 0.00525859 0.00666658 0.02223346 0.00502204 0.01086484 0.00144234 0.00987429 0.06219315 0.01431117 0.02870127 
0.02232687 0.03079560 0.00539476 0.00254934 0.00309139 0.00280098 0.00519687 0.00658517 0.02202525 0.00494819 0.01098592 0.00145298 0.00983985 0.06197387 0.01438330 0.02835648 
0.02238908 0.03106547 0.00532924 0.00252939 0.00325770 0.00279038 0.00513277 0.00650831 0.02183560 0.00487815 0.01112697 0.00146340 0.00983387 0.06182863 0.01447155 0.02797287 
0.02243725 0.03135969 0.00526595 0.00250769 0.00344146 0.00277613 0.00506653 0.00643611 0.02166529 0.00481207 0.01128782 0.00147361 0.00985692 0.06175911 0.01457581 0.02755203 
0.02247107 0.03167785 0.00520493 0.00248428 0.00364262 0.00275823 0.00499841 0.00636868 0.02151498 0.00475006 0.01146815 0.00148358 0.00990947 0.06176664 0.01469587 0.02709572 
0.02249029 0.03201935 0.00514620 0.00245923 0.00386109 0.00273667 0.00492869 0.00630609 0.02138522 0.00469224 0.01166757 0.00149331 0.00999188 0.06185218 0.01483147 0.02660582 
0.02249472 0.03238349 0.00508976 0.00243260 0.00409670 0.00271149 0.00485766 0.00624841 0.02127646 0.00463871 0.01188558 0.00150277 0.01010439 0.06201630 0.01498227 0.02608438 
0.02248428 0.03276940 0.00503559 0.00240448 0.00434922 0.00268272 0.00478565 0.00619569 0.02118900 0.00458954 0.01212159 0.00151197 0.01024717 0.06225920 0.01514785 0.02553357 
0.02245893 0.03317609 0.00498366 0.00237494 0.00461836 0.00265043 0.00471299 0.00614797 0.02112304 0.00454481 0.01237488 0.00152088 0.01042022 0.06258071 0.01532773 0.02495573 
0.02241872 0.03360242 0.00493393 0.00234410 0.00490376 0.00261468 0.00464005 0.00610528 0.02107864 0.00450458 0.01264468 0.00152950 0.01062347 0.06298030 0.01552138 0.02435326 
0.02236378 0.03404711 0.00488632 0.00231205 0.00520500 0.00257559 0.00456719 0.00606761 0.02105576 0.00446888 0.01293010 0.00153781 0.01085670 0.06345705 0.01572820 0.02372873 
0.02229433 0.03450877 0.00484077 0.00227890 0.00552161 0.00253326 0.00449481 0.00603498 0.02105422 0.00443774 0.01323017 0.00154581 0.01111960 0.06400967 0.01594752 0.02308477 
0.02221064 0.03498585 0.00479717 0.00224478 0.00585304 0.00248782 0.00442330 0.00600738 0.02107371 0.00441118 0.01354385 0.00155349 0.01141171 0.06463655 0.01617864 0.02242412 
0.02211308 0.03547671 0.00475544 0.00220981 0.00619869 0.00243942 0.00435309 0.00598477 0.02111384 0.00438921 0.01387003 0.00156084 0.01173247 0.06533568 0.01642079 0.02174960 
0.02200210 0.03597958 0.00471547 0.00217413 0.00655791 0.00238823 0.00428459 0.00596714 0.02117405 0.00437181 0.01420751 0.00156784 0.01208120 0.06610473 0.01667318 0.02106409 
0.02187822 0.03649258 0.00467713 0.00213787 0.00692999 0.00233443 0.00421824 0.00595445 0.02125371 0.00435896 0.01455503 0.00157450 0.01245709 0.06694106 0.01693495 0.02037054 
0.02174201 0.03701375 0.00464030 0.00210116 0.00731416 0.00227820 0.00415449 0.00594664 0.02135205 0.00435062 0.01491130 0.00158079 0.01285921 0.06784167 0.01720524 0.01967192 
0.02159415 0.03754102 0.00460486 0.00206416 0.00770962 0.00221976 0.00409378 0.00594368 0.02146821 0.00434677 0.01527495 0.00158673 0.01328654 0.06880328 0.01748312 0.01897125 
0.02143536 0.03807225 0.00457068 0.00202702 0.00811551 0.00215934 0.00403657 0.00594548 0.02160123 0.00434733 0.01564459 0.00159229 0.01373793 0.06982232 0.01776767 0.01827157 
0.02126643 0.03860525 0.00453763 0.00198987 0.00853093 0.00209715 0.00398330 0.00595200 0.02175004 0.00435226 0.01601879 0.00159747 0.01421211 0.07089493 0.01805790 0.01757590 
0.02108822 0.03913776 0.00450557 0.00195287 0.00895494 0.00203346 0.00393442 0.00596316 0.02191348 0.00436147 0.01639608 0.00160226 0.01470773 0.07201701 0.01835286 0.01688727 
0.02090162 0.03966748 0.00447439 0.00191616 0.00938658 0.00196851 0.00389038 0.00597887 0.02209032 0.00437489 0.01677498 0.00160666 0.01522333 0.07318421 0.01865154 0.01620870 
0.02070759 0.04019209 0.00444395 0.00187991 0.00982484 0.00190257 0.00385163 0.00599905 0.02227924 0.00439242 0.01715402 0.00161066 0.01575735 0.07439196 0.01895295 0.01554314 
0.02050713 0.04070925 0.00441413 0.00184424 0.01026867 0.00183591 0.00381859 0.00602362 0.02247886 0.00441399 0.01753170 0.00161426 0.01630814 0.07563549 0.01925607 0.01489352 
0.02030126 0.04121662 0.00438483 0.00180931 0.01071704 0.00176881 0.00379168 0.00605246 0.02268772 0.00443948 0.01790653 0.00161745 0.01687398 0.07690985 0.01955990 0.01426270 
0.02009105 0.04171186 0.00435595 0.00177526 0.01116885 0.00170155 0.00377132 0.00608549 0.02290433 0.00446879 0.01827704 0.00162022 0.01745304 0.07820994 0.01986344 0.01365347 
0.01987759 0.04219269 0.00432738 0.00174222 0.01162302 0.00163441 0.00375790 0.00612258 0.02312713 0.00450181 0.01864178 0.00162257 0.01804347 0.07953051 0.02016570 0.01306852 
0.01966199 0.04265684 0.00429906 0.00171033 0.01207844 0.00156769 0.00375179 0.00616361 0.02335455 0.00453844 0.01899933 0.00162450 0.01864332 0.08086621 0.02046570 0.01251045 
0.01944535 0.04310211 0.00427090 0.00167972 0.01253400 0.00150168 0.00375335 0.00620847 0.02358496 0.00457855 0.01934830 0.00162600 0.01925059 0.08221161 0.02076246 0.01198176 
0.01922879 0.04352636 0.00424285 0.00165051 0.01298859 0.00143666 0.00376291 0.00625701 0.02381675 0.00462202 0.01968734 0.00162706 0.01986325 0.08356118 0.02105505 0.01148481 
0.01901342 0.04392756 0.00421487 0.00162281 0.01344108 0.00137292 0.00378077 0.00630910 0.02404826 0.00466874 0.02001516 0.00162769 0.02047921 0.08490938 0.02134254 0.01102183 
0.01880034 0.04430374 0.00418693 0.00159674 0.01389037 0.00131076 0.00380722 0.00636459 0.02427787 0.00471859 0.02033053 0.00162787 0.02109638 0.08625065 0.02162404 0.01059493 
0.01859063 0.04465306 0.00415903 0.00157240 0.01433536 0.00125044 0.00384249 0.00642331 0.02450394 0.00477143 0.02063226 0.00162762 0.02171262 0.08757941 0.02189868 0.01020604 
0.01838534 0.04497380 0.00413115 0.00154988 0.01477496 0.00119224 0.00388681 0.00648510 0.02472487 0.00482715 0.02091927 0.00162692 0.02232581 0.08889016 0.02216563 0.00985695 
0.01818548 0.04526437 0.00410334 0.00152927 0.01520808 0.00113643 0.00394037 0.00654978 0.02493909 0.00488561 0.02119050 0.00162576 0.02293381 0.09017740 0.02242408 0.00954926 
0.01799201 0.04552331 0.00407561 0.00151064 0.01563369 0.00108328 0.00400329 0.00661717 0.02514505 0.00494670 0.02144502 0.00162416 0.02353448 0.09143573 0.02267329 0.00928442 
0.01780587 0.04574932 0.00404803 0.00149407 0.01605075 0.00103302 0.00407571 0.00668706 0.02534128 0.00501029 0.02168195 0.00162211 0.02412573 0.09265987 0.02291251 0.00906367 
0.01762792 0.04594127 0.00402067 0.00147961 0.01645826 0.00098590 0.00415767 0.00675926 0.02552636 0.00507625 0.02190051 0.00161960 0.02470548 0.09384464 0.02314108 0.00888809 
0.01745896 0.04609818 0.00399361 0.00146732 0.01685524 0.00094214 0.00424922 0.00683353 0.02569891 0.00514445 0.02210001 0.00161665 0.02527168 0.09498501 0.02335834 0.00875855 
0.01729971 0.04621926 0.00396696 0.00145724 0.01724075 0.00090196 0.00435034 0.00690966 0.02585767 0.00521476 0.02227984 0.00161323 0.02582236 0.09607611 0.02356371 0.00867571 
0.01715085 0.04630387 0.00394083 0.00144940 0.01761388 0.00086556 0.00446096 0.00698740 0.02600145 0.00528707 0.02243951 0.00160937 0.02635556 0.09711327 0.02375662 0.00864006 
0.01701294 0.04635159 0.00391535 0.00144382 0.01797378 0.00083311 0.00458099 0.00706651 0.02612915 0.00536123 0.02257861 0.00160505 0.02686943 0.09809202 0.02393657 0.00865186 
0.01688649 0.04636215 0.00389067 0.00144051 0.01831960 0.00080480 0.00471028 0.00714674 0.02623978 0.00543713 0.02269683 0.00160028 0.02736218 0.09900810 0.02410309 0.00871117 
0.01677189 0.04633548 0.00386694 0.00143948 0.01865058 0.00078076 0.00484864 0.00722781 0.02633245 0.00551462 0.02279396 0.00159506 0.02783210 0.09985751 0.02425577 0.00881787 
0.01666945 0.04627170 0.00384433 0.00144072 0.01896596 0.00076114 0.00499583 0.00730945 0.02640641 0.00559358 0.02286988 0.00158940 0.02827757 0.10063649 0.02439422 0.00897159 
0.01657940 0.04617109 0.00382303 0.00144421 0.01926505 0.00074604 0.00515156 0.00739137 0.02646100 0.00567387 0.02292459 0.00158329 0.02869709 0.10134158 0.02451813 0.00917179 
0.01650185 0.04603414 0.00380320 0.00144994 0.01954721 0.00073557 0.00531550 0.00747330 0.02649571 0.00575536 0.02295816 0.00157675 0.02908924 0.10196957 0.02462720 0.00941773 
0.01643682 0.04586150 0.00378505 0.00145786 0.01981184 0.00072980 0.00548728 0.00755493 0.02651017 0.00583791 0.02297078 0.00156978 0.02945273 0.10251757 0.02472119 0.00970844 
0.01638424 0.04565398 0.00376878 0.00146794 0.02005839 0.00072878 0.00566647 0.00763596 0.02650414 0.00592138 0.02296270 0.00156237 0.02978640 0.10298298 0.02479990 0.01004277 
0.01634391 0.04541257 0.00375457 0.00148013 0.02028636 0.00073255 0.00585262 0.00771608 0.02647750 0.00600562 0.02293428 0.00155455 0.03008920 0.10336354 0.02486317 0.01041940 
0.01631556 0.04513842 0.00374263 0.00149436 0.02049532 0.00074113 0.00604520 0.00779500 0.02643031 0.00609050 0.02288598 0.00154632 0.03036022 0.10365730 0.02491090 0.01083679 
0.01629882 0.04483282 0.00373316 0.00151058 0.02068486 0.00075451 0.00624368 0.00787240 0.02636275 0.00617584 0.02281831 0.00153768 0.03059867 0.10386264 0.02494298 0.01129324 
0.01629320 0.04449718 0.00372636 0.00152870 0.02085464 0.00077267 0.00644746 0.00794798 0.02627515 0.00626152 0.02273188 0.00152864 0.03080392 0.10397828 0.02495940 0.01178687 
0.01629815 0.04413308 0.00372242 0.00154865 0.02100438 0.00079556 0.00665591 0.00802142 0.02616800 0.00634735 0.02262737 0.00151922 0.03097547 0.10400328 0.02496014 0.01231564 
0.01631299 0.04374216 0.00372153 0.00157035 0.02113384 0.00082310 0.00686838 0.00809243 0.02604193 0.00643320 0.02250552 0.00150943 0.03111296 0.10393704 0.02494522 0.01287735 
0.01633700 0.04332621 0.00372386 0.00159369 0.02124284 0.00085522 0.00708416 0.00816070 0.02589770 0.00651889 0.02236715 0.00149928 0.03121619 0.10377930 0.02491472 0.01346965 
0.01636934 0.04288709 0.00372958 0.00161859 0.02133123 0.00089180 0.00730253 0.00822595 0.02573622 0.00660425 0.02221313 0.00148878 0.03128509 0.10353014 0.02486872 0.01409005 
0.01640912 0.04242674 0.00373885 0.00164494 0.02139895 0.00093272 0.00752274 0.00828789 0.02555854 0.00668911 0.02204438 0.00147795 0.03131974 0.10318998 0.02480735 0.01473595 
0.01645536 0.04194716 0.00375182 0.00167263 0.02144595 0.00097783 0.00774399 0.00834626 0.02536585 0.00677330 0.02186188 0.00146680 0.03132036 0.10275956 0.02473076 0.01540461 
0.01650704 0.04145040 0.00376860 0.00170156 0.02147226 0.00102696 0.00796549 0.00840079 0.02515945 0.00685665 0.02166662 0.00145535 0.03128731 0.10223997 0.02463913 0.01609319 
0.01656308 0.04093854 0.00378930 0.00173161 0.02147795 0.00107992 0.00818642 0.00845124 0.02494078 0.00693896 0.02145965 0.00144362 0.03122111 0.10163259 0.02453266 0.01679877 
0.01662234 0.04041369 0.00381403 0.00176266 0.02146312 0.00113652 0.00840593 0.00849738 0.02471138 0.00702007 0.02124207 0.00143163 0.03112237 0.10093914 0.02441157 0.01751833 
0.01668365 0.03987796 0.00384285 0.00179459 0.02142794 0.00119654 0.00862318 0.00853900 0.02447291 0.00709978 0.02101495 0.00141939 0.03099188 0.10016162 0.02427611 0.01824879 
0.01674582 0.03933346 0.00387580 0.00182729 0.02137262 0.00125974 0.00883730 0.00857591 0.02422710 0.00717793 0.02077941 0.00140693 0.03083052 0.09930234 0.02412655 0.01898703 
0.01680762 0.03878226 0.00391293 0.00186063 0.02129740 0.00132588 0.00904745 0.00860793 0.02397582 0.00725431 0.02053659 0.00139427 0.03063931 0.09836386 0.02396318 0.01972986 
0.01686782 0.03822641 0.00395423 0.00189448 0.02120259 0.00139468 0.00925275 0.00863492 0.02372097 0.00732876 0.02028761 0.00138143 0.03041937 0.09734903 0.02378629 0.02047407 
0.01692519 0.03766790 0.00399969 0.00192873 0.02108852 0.00146588 0.00945235 0.00865675 0.02346454 0.00740109 0.02003360 0.00136844 0.03017194 0.09626093 0.02359621 0.02121644 
0.01697851 0.03710868 0.00404926 0.00196326 0.02095557 0.00153920 0.00964540 0.00867332 0.02320859 0.00747112 0.01977568 0.00135533 0.02989834 0.09510290 0.02339328 0.02195375 
0.01702656 0.03655060 0.00410287 0.00199793 0.02080416 0.00161433 0.00983105 0.00868456 0.02295519 0.00753869 0.01951497 0.00134212 0.02960000 0.09387848 0.02317784 0.02268279 
0.01706818 0.03599545 0.00416044 0.00203263 0.02063473 0.00169097 0.01000849 0.00869043 0.02270648 0.00760363 0.01925255 0.00132883 0.02927842 0.09259140 0.02295027 0.02340037 
0.01710222 0.03544491 0.00422185 0.00206725 0.02044779 0.00176880 0.01017691 0.00869089 0.02246461 0.00766577 0.01898951 0.00131550 0.02893518 0.09124561 0.02271093 0.02410335 
0.01712758 0.03490058 0.00428695 0.00210166 0.02024386 0.00184752 0.01033554 0.00868597 0.02223172 0.00772497 0.01872688 0.00130216 0.02857193 0.08984519 0.02246022 0.02478865 
0.01714324 0.03436393 0.00435559 0.00213575 0.02002349 0.00192679 0.01048361 0.00867570 0.02200997 0.00778107 0.01846568 0.00128883 0.02819035 0.08839438 0.02219854 0.02545324 
0.01714823 0.03383633 0.00442756 0.00216941 0.01978729 0.00200629 0.01062042 0.00866015 0.02180150 0.00783395 0.01820689 0.00127555 0.02779219 0.08689754 0.02192631 0.02609418 
0.01714165 0.03331902 0.00450267 0.00220254 0.01953587 0.00208570 0.01074528 0.00863942 0.02160842 0.00788348 0.01795145 0.00126235 0.02737923 0.08535917 0.02164394 0.02670864 
0.01712270 0.03281311 0.00458067 0.00223502 0.01926989 0.00216468 0.01085755 0.00861362 0.02143277 0.00792955 0.01770025 0.00124926 0.02695328 0.08378381 0.02135188 0.02729386 
0.01709066 0.03231959 0.00466131 0.00226677 0.01899004 0.00224291 0.01095663 0.00858292 0.02127657 0.00797206 0.01745416 0.00123632 0.02651615 0.08217609 0.02105056 0.02784725 
0.01704492 0.03183931 0.00474433 0.00229768 0.01869700 0.00232006 0.01104195 0.00854750 0.02114174 0.00801093 0.01721398 0.00122355 0.02606968 0.08054070 0.02074046 0.02836631 
0.01698497 0.03137302 0.00482942 0.00232768 0.01839153 0.00239583 0.01111302 0.00850757 0.02103016 0.00804609 0.01698047 0.00121099 0.02561568 0.07888235 0.02042202 0.02884870 
0.01691041 0.03092128 0.00491628 0.00235667 0.01807437 0.00246989 0.01116938 0.00846336 0.02094357 0.00807749 0.01675434 0.00119868 0.02515596 0.07720574 0.02009574 0.02929225 
0.01682098 0.03048457 0.00500459 0.00238457 0.01774630 0.00254194 0.01121064 0.00841513 0.02088363 0.00810509 0.01653624 0.00118665 0.02469233 0.07551559 0.01976210 0.02969493 
0.01671652 0.03006323 0.00509402 0.00241133 0.01740812 0.00261168 0.01123645 0.00836316 0.02085189 0.00812889 0.01632677 0.00117493 0.02422653 0.07381657 0.01942160 0.03005491 
0.01659702 0.02965746 0.00518422 0.00243686 0.01706065 0.00267884 0.01124654 0.00830776 0.02084975 0.00814887 0.01612650 0.00116356 0.02376030 0.07211331 0.01907474 0.03037053 
0.01646258 0.02926736 0.00527484 0.00246111 0.01670473 0.00274313 0.01124069 0.00824925 0.02087848 0.00816508 0.01593590 0.00115257 0.02329530 0.07041038 0.01872206 0.03064032 
0.01631346 0.02889292 0.00536553 0.00248404 0.01634119 0.00280431 0.01121874 0.00818797 0.02093922 0.00817753 0.01575544 0.00114200 0.02283316 0.06871228 0.01836407 0.03086302 
0.01615005 0.02853399 0.00545591 0.00250558 0.01597092 0.00286211 0.01118060 0.00812427 0.02103295 0.00818631 0.01558550 0.00113188 0.02237544 0.06702337 0.01800133 0.03103758 
0.01597285 0.02819037 0.00554564 0.00252571 0.01559477 0.00291633 0.01112626 0.00805854 0.02116047 0.00819150 0.01542641 0.00112224 0.02192364 0.06534796 0.01763439 0.03116317 
0.01578255 0.02786173 0.00563434 0.00254438 0.01521366 0.00296674 0.01105575 0.00799114 0.02132243 0.00819318 0.01527848 0.00111312 0.02147918 0.06369018 0.01726381 0.03123916 
0.01557993 0.02754768 0.00572166 0.00256159 0.01482846 0.00301315 0.01096920 0.00792247 0.02151931 0.00819150 0.01514193 0.00110454 0.02104339 0.06205405 0.01689016 0.03126516 
0.01536593 0.02724775 0.00580726 0.00257730 0.01444009 0.00305540 0.01086678 0.00785291 0.02175139 0.00818659 0.01501698 0.00109654 0.02061755 0.06044344 0.01651405 0.03124100 
0.01514161 0.02696140 0.00589078 0.00259152 0.01404945 0.00309332 0.01074874 0.00778286 0.02201878 0.00817861 0.01490376 0.00108916 0.02020282 0.05886205 0.01613606 0.03116674 
0.01490816 0.02668807 0.00597189 0.00260423 0.01365747 0.00312680 0.01061540 0.00771273 0.02232142 0.00816775 0.01480238 0.00108241 0.01980030 0.05731341 0.01575680 0.03104268 
0.01466690 0.02642712 0.00605028 0.00261544 0.01326505 0.00315572 0.01046714 0.00764289 0.02265904 0.00815420 0.01471292 0.00107632 0.01941098 0.05580089 0.01537690 0.03086934 
0.01441926 0.02617790 0.00612564 0.00262516 0.01287312 0.00318000 0.01030442 0.00757373 0.02303121 0.00813817 0.01463539 0.00107093 0.01903574 0.05432764 0.01499699 0.03064749 
0.01416678 0.02593974 0.00619769 0.00263342 0.01248260 0.00319957 0.01012774 0.00750564 0.02343729 0.00811991 0.01456979 0.00106625 0.01867541 0.05289665 0.01461770 0.03037811 
0.01391112 0.02571196 0.00626616 0.00264023 0.01209439 0.00321441 0.00993769 0.00743898 0.02387647 0.00809964 0.01451609 0.00106231 0.01833068 0.05151072 0.01423970 0.03006240 
0.01365401 0.02549388 0.00633080 0.00264564 0.01170940 0.00322449 0.00973491 0.00737410 0.02434775 0.00807764 0.01447421 0.00105913 0.01800217 0.05017242 0.01386364 0.02970182 
0.01339728 0.02528483 0.00639139 0.00264968 0.01132853 0.00322984 0.00952009 0.00731133 0.02484999 0.00805416 0.01444406 0.00105673 0.01769039 0.04888414 0.01349019 0.02929801 
0.01314284 0.02508417 0.00644773 0.00265240 0.01095267 0.00323048 0.00929399 0.00725099 0.02538183 0.00802948 0.01442552 0.00105513 0.01739576 0.04764809 0.01312004 0.02885285 
0.01289265 0.02489130 0.00649966 0.00265386 0.01058269 0.00322649 0.00905742 0.00719338 0.02594178 0.00800390 0.01441845 0.00105434 0.01711862 0.04646625 0.01275386 0.02836840 
0.01264873 0.02470565 0.00654702 0.00265410 0.01021947 0.00321795 0.00881122 0.00713875 0.02652819 0.00797769 0.01442269 0.00105437 0.01685921 0.04534042 0.01239235 0.02784695 
0.01241315 0.02452669 0.00658969 0.00265321 0.00986385 0.00320497 0.00855632 0.00708737 0.02713925 0.00795116 0.01443805 0.00105525 0.01661767 0.04427222 0.01203621 0.02729095 
0.01218801 0.02435397 0.00662760 0.00265125 0.00951665 0.00318769 0.00829365 0.00703944 0.02777303 0.00792460 0.01446435 0.00105696 0.01639407 0.04326305 0.01168615 0.02670305 
0.01197542 0.02418709 0.00666068 0.00264830 0.00917869 0.00316627 0.00802420 0.00699515 0.02842745 0.00789830 0.01450139 0.00105953 0.01618841 0.04231416 0.01134286 0.02608606 
0.01177749 0.02402574 0.00668891 0.00264445 0.00885076 0.00314088 0.00774900 0.00695466 0.02910034 0.00787255 0.01454896 0.00106295 0.01600059 0.04142661 0.01100705 0.02544296 
0.01159634 0.02386966 0.00671228 0.00263978 0.00853362 0.00311174 0.00746910 0.00691809 0.02978940 0.00784764 0.01460683 0.00106722 0.01583047 0.04060130 0.01067944 0.02477686 
0.01143404 0.02371869 0.00673084 0.00263438 0.00822800 0.00307908 0.00718559 0.00688554 0.03049225 0.00782384 0.01467478 0.00107234 0.01567780 0.03983895 0.01036074 0.02409101 
0.01129266 0.02357275 0.00674463 0.00262835 0.00793461 0.00304312 0.00689955 0.00685705 0.03120644 0.00780143 0.01475257 0.00107831 0.01554230 0.03914017 0.01005166 0.02338878 
0.01117417 0.02343186 0.00675376 0.00262180 0.00765414 0.00300415 0.00661213 0.00683266 0.03192941 0.00778065 0.01483998 0.00108511 0.01542363 0.03850537 0.00975289 0.02267365 
0.01108053 0.02329610 0.00675833 0.00261482 0.00738721 0.00296245 0.00632444 0.00681235 0.03265861 0.00776175 0.01493677 0.00109274 0.01532139 0.03793489 0.00946514 0.02194918 
0.01101358 0.02316566 0.00675851 0.00260753 0.00713445 0.00291830 0.00603763 0.00679609 0.03339140 0.00774495 0.01504271 0.00110118 0.01523515 0.03742891 0.00918909 0.02121900 
0.01097509 0.02304081 0.00675447 0.00260002 0.00689642 0.00287203 0.00575286 0.00678378 0.03412513 0.00773046 0.01515756 0.00111041 0.01516441 0.03698750 0.00892545 0.02048682 
0.01096673 0.02292193 0.00674640 0.00259243 0.00667367 0.00282396 0.00547125 0.00677533 0.03485716 0.00771846 0.01528108 0.00112042 0.01510866 0.03661066 0.00867487 0.01975635 
0.01099003 0.02280944 0.00673454 0.00258485 0.00646668 0.00277443 0.00519394 0.00677059 0.03558481 0.00770912 0.01541304 0.00113117 0.01506736 0.03629825 0.00843802 0.01903137 
0.01104642 0.02270388 0.00671912 0.00257740 0.00627591 0.00272379 0.00492207 0.00676939 0.03630545 0.00770257 0.01555320 0.00114264 0.01503994 0.03605011 0.00821554 0.01831564 
0.01113716 0.02260585 0.00670042 0.00257019 0.00610176 0.00267239 0.00465672 0.00677152 0.03701648 0.00769893 0.01570134 0.00115480 0.01502581 0.03586597 0.00800807 0.01761291 
0.01126339 0.02251603 0.00667872 0.00256334 0.00594462 0.00262058 0.00439900 0.00677676 0.03771533 0.00769829 0.01585722 0.00116762 0.01502438 0.03574550 0.00781622 0.01692689 
0.01142607 0.02243514 0.00665432 0.00255696 0.00580478 0.00256875 0.00414996 0.00678486 0.03839948 0.00770071 0.01602061 0.00118105 0.01503505 0.03568835 0.00764059 0.01626127 
0.01162597 0.02236399 0.00662755 0.00255117 0.00568254 0.00251724 0.00391062 0.00679552 0.03906651 0.00770623 0.01619127 0.00119507 0.01505719 0.03569411 0.00748173 0.01561965 
0.01186373 0.02230341 0.00659872 0.00254607 0.00557810 0.00246644 0.00368197 0.00680846 0.03971405 0.00771485 0.01636897 0.00120963 0.01509022 0.03576234 0.00734020 0.01500555 
0.01213975 0.02225431 0.00656818 0.00254176 0.00549165 0.00241670 0.00346496 0.00682336 0.04033984 0.00772654 0.01655347 0.00122468 0.01513353 0.03589258 0.00721651 0.01442239 
0.01245427 0.02221759 0.00653628 0.00253836 0.00542332 0.00236837 0.00326050 0.00683989 0.04094172 0.00774126 0.01674453 0.00124017 0.01518655 0.03608433 0.00711115 0.01387346 
0.01280732 0.02219419 0.00650336 0.00253596 0.00537317 0.00232183 0.00306944 0.00685769 0.04151764 0.00775892 0.01694191 0.00125606 0.01524870 0.03633713 0.00702459 0.01336194 
0.01319872 0.02218508 0.00646978 0.00253467 0.00534124 0.00227740 0.00289257 0.00687643 0.04206566 0.00777942 0.01714536 0.00127229 0.01531945 0.03665045 0.00695723 0.01289081 
0.01362809 0.02219121 0.00643588 0.00253456 0.00532749 0.00223542 0.00273065 0.00689573 0.04258400 0.00780262 0.01735462 0.00128881 0.01539825 0.03702381 0.00690948 0.01246293 
0.01409484 0.02221354 0.00640202 0.00253573 0.00533185 0.00219622 0.00258435 0.00691522 0.04307100 0.00782835 0.01756944 0.00130556 0.01548463 0.03745671 0.00688168 0.01208092 
0.01459818 0.02225301 0.00636854 0.00253826 0.00535420 0.00216010 0.00245429 0.00693456 0.04352512 0.00785644 0.01778954 0.00132247 0.01557811 0.03794864 0.00687414 0.01174722 
0.01513707 0.02231052 0.00633578 0.00254222 0.00539434 0.00212735 0.00234102 0.00695337 0.04394502 0.00788666 0.01801465 0.00133949 0.01567825 0.03849913 0.00688713 0.01146407 
0.01571032 0.02238695 0.00630405 0.00254768 0.00545206 0.00209825 0.00224503 0.00697129 0.04432946 0.00791878 0.01824448 0.00135656 0.01578465 0.03910767 0.00692088 0.01123345 
0.01631649 0.02248314 0.00627368 0.00255470 0.00552707 0.00207305 0.00216672 0.00698800 0.04467738 0.00795255 0.01847873 0.00137360 0.01589696 0.03977380 0.00697556 0.01105710 
0.01695396 0.02259985 0.00624495 0.00256333 0.00561904 0.00205197 0.00210643 0.00700314 0.04498788 0.00798770 0.01871709 0.00139056 0.01601483 0.04049703 0.00705131 0.01093650 
0.01762091 0.02273779 0.00621816 0.00257361 0.00572760 0.00203523 0.00206442 0.00701641 0.04526021 0.00802393 0.01895925 0.00140737 0.01613797 0.04127687 0.00714822 0.01087286 
0.01831533 0.02289761 0.00619355 0.00258559 0.00585232 0.00202302 0.00204086 0.00702750 0.04549378 0.00806095 0.01920488 0.00142395 0.01626614 0.04211285 0.00726630 0.01086713 
0.01903503 0.02307987 0.00617138 0.00259928 0.00599273 0.00201549 0.00203587 0.00703615 0.04568815 0.00809844 0.01945363 0.00144025 0.01639911 0.04300446 0.00740555 0.01091994 
0.01977765 0.02328503 0.00615186 0.00261472 0.00614831 0.00201277 0.00204946 0.00704210 0.04584306 0.00813608 0.01970516 0.00145619 0.01653671 0.04395120 0.00756588 0.01103164 
0.02054068 0.02351348 0.00613518 0.00263190 0.00631851 0.00201497 0.00208158 0.00704512 0.04595836 0.00817353 0.01995912 0.00147171 0.01667879 0.04495254 0.00774718 0.01120229 
0.02132143 0.02376550 0.00612151 0.00265082 0.00650273 0.00202216 0.00213209 0.00704503 0.04603409 0.00821048 0.02021511 0.00148674 0.01682526 0.04600791 0.00794925 0.01143161 
0.02211711 0.02404126 0.00611100 0.00267149 0.00670033 0.00203440 0.00220079 0.00704165 0.04607041 0.00824659 0.02047278 0.00150121 0.01697603 0.04711672 0.00817185 0.01171904 
0.02292478 0.02434085 0.00610376 0.00269387 0.00691063 0.00205170 0.00228737 0.00703487 0.04606764 0.00828153 0.02073174 0.00151506 0.01713108 0.04827833 0.00841469 0.01206370 
0.02374141 0.02466423 0.00609987 0.00271794 0.00713292 0.00207405 0.00239147 0.00702458 0.04602620 0.00831499 0.02099159 0.00152823 0.01729040 0.04949205 0.00867741 0.01246439 
0.02456386 0.02501125 0.00609940 0.00274367 0.00736645 0.00210141 0.00251265 0.00701074 0.04594668 0.00834666 0.02125195 0.00154065 0.01745402 0.05075713 0.00895960 0.01291959 
0.02538892 0.02538166 0.00610238 0.00277100 0.00761046 0.00213371 0.00265038 0.00699332 0.04582976 0.00837622 0.02151242 0.00155226 0.01762198 0.05207274 0.00926078 0.01342750 
0.02621332 0.02577511 0.00610880 0.00279989 0.00786413 0.00217085 0.00280409 0.00697234 0.04567624 0.00840342 0.02177259 0.00156301 0.01779435 0.05343798 0.00958042 0.01398599 
0.02703375 0.02619112 0.00611863 0.00283026 0.00812663 0.00221269 0.00297310 0.00694787 0.04548704 0.00842797 0.02203209 0.00157284 0.01797124 0.05485186 0.00991793 0.01459265 
0.02784686 0.02662913 0.00613182 0.00286205 0.00839712 0.00225909 0.00315670 0.00692000 0.04526316 0.00844965 0.02229053 0.00158170 0.01815275 0.05631330 0.01027267 0.01524477 
0.02864930 0.02708846 0.00614829 0.00289517 0.00867471 0.00230985 0.00335411 0.00688888 0.04500570 0.00846822 0.02254752 0.00158955 0.01833901 0.05782109 0.01064395 0.01593936 
0.02943773 0.02756835 0.00616791 0.00292954 0.00895851 0.00236476 0.00356447 0.00685469 0.04471584 0.00848349 0.02280270 0.00159634 0.01853016 0.05937394 0.01103099 0.01667317 
0.03020884 0.02806795 0.00619056 0.00296505 0.00924763 0.00242359 0.00378690 0.00681764 0.04439484 0.00849531 0.02305571 0.00160202 0.01872635 0.06097042 0.01143299 0.01744270 
0.03095935 0.02858632 0.00621606 0.00300161 0.00954113 0.00248607 0.00402044 0.00677800 0.04404403 0.00850353 0.02330623 0.00160657 0.01892771 0.06260896 0.01184910 0.01824420 
0.03168607 0.02912246 0.00624422 0.00303911 0.00983809 0.00255191 0.00426410 0.00673606 0.04366477 0.00850805 0.02355392 0.00160995 0.01913439 0.06428786 0.01227839 0.01907369 
0.03238587 0.02967529 0.00627483 0.00307744 0.01013757 0.00262081 0.00451685 0.00669216 0.04325851 0.00850881 0.02379852 0.00161214 0.01934654 0.06600530 0.01271990 0.01992701 
0.03305573 0.03024369 0.00630767 0.00311646 0.01043863 0.00269244 0.00477761 0.00664665 0.04282672 0.00850577 0.02403973 0.00161312 0.01956430 0.06775927 0.01317264 0.02079980 
0.03369274 0.03082647 0.00634246 0.00315607 0.01074034 0.00276646 0.00504529 0.00659995 0.04237091 0.00849893 0.02427735 0.00161287 0.01978777 0.06954765 0.01363555 0.02168753 
0.03429412 0.03142245 0.00637895 0.00319613 0.01104175 0.00284250 0.00531876 0.00655247 0.04189263 0.00848833 0.02451116 0.00161139 0.02001708 0.07136814 0.01410754 0.02258553 
0.03485725 0.03203036 0.00641685 0.00323652 0.01134193 0.00292020 0.00559687 0.00650467 0.04139345 0.00847405 0.02474100 0.00160867 0.02025230 0.07321827 0.01458748 0.02348904 
0.03537966 0.03264898 0.00645585 0.00327710 0.01163995 0.00299915 0.00587847 0.00645704 0.04087495 0.00845620 0.02496674 0.00160470 0.02049350 0.07509545 0.01507421 0.02439318 
0.03585906 0.03327704 0.00649565 0.00331773 0.01193490 0.00307898 0.00616238 0.00641008 0.04033872 0.00843493 0.02518832 0.00159952 0.02074072 0.07699689 0.01556654 0.02529300 
0.03629336 0.03391331 0.00653591 0.00335829 0.01222587 0.00315928 0.00644744 0.00636430 0.03978639 0.00841044 0.02540568 0.00159312 0.02099396 0.07891966 0.01606324 0.02618352 
0.03668066 0.03455656 0.00657632 0.00339864 0.01251197 0.00323963 0.00673248 0.00632026 0.03921955 0.00838294 0.02561885 0.00158553 0.02125321 0.08086067 0.01656309 0.02705977 
0.03701927 0.03520560 0.00661653 0.00343865 0.01279234 0.00331963 0.00701634 0.00627849 0.03863983 0.00835269 0.02582789 0.00157678 0.02151839 0.08281666 0.01706481 0.02791675 
0.03730774 0.03585928 0.00665622 0.00347819 0.01306611 0.00339887 0.00729788 0.00623955 0.03804883 0.00831999 0.02603291 0.00156690 0.02178941 0.08478426 0.01756713 0.02874955 
0.03754484 0.03651649 0.00669504 0.00351714 0.01333247 0.00347694 0.00757597 0.00620401 0.03744816 0.00828517 0.02623409 0.00155595 0.02206614 0.08675990 0.01806876 0.02955331 
0.03772956 0.03717620 0.00673266 0.00355535 0.01359061 0.00355344 0.00784953 0.00617244 0.03683941 0.00824858 0.02643164 0.00154396 0.02234840 0.08873991 0.01856841 0.03032328 
0.03786116 0.03783743 0.00676876 0.00359272 0.01383974 0.00362797 0.00811748 0.00614539 0.03622419 0.00821061 0.02662584 0.00153099 0.02263595 0.09072048 0.01906478 0.03105484 
0.03793914 0.03849931 0.00680300 0.00362914 0.01407913 0.00370014 0.00837880 0.00612341 0.03560406 0.00817166 0.02681704 0.00151710 0.02292854 0.09269766 0.01955658 0.03174355 
0.03796323 0.03916101 0.00683508 0.00366448 0.01430806 0.00376959 0.00863250 0.00610706 0.03498061 0.00813217 0.02700562 0.00150237 0.02322585 0.09466743 0.02004252 0.03238514 
0.03793344 0.03982182 0.00686468 0.00369865 0.01452583 0.00383595 0.00887765 0.00609686 0.03435539 0.00809260 0.02719204 0.00148687 0.02352751 0.09662561 0.02052133 0.03297558 
0.03785000 0.04048113 0.00689154 0.00373154 0.01473180 0.00389888 0.00911336 0.00609331 0.03372997 0.00805342 0.02737678 0.00147068 0.02383312 0.09856798 0.02099176 0.03351106 
0.03771341 0.04113841 0.00691535 0.00376308 0.01492536 0.00395806 0.00933880 0.00609692 0.03310589 0.00801512 0.02756042 0.00145387 0.02414223 0.10049021 0.02145257 0.03398807 
0.03752442 0.04179326 0.00693588 0.00379316 0.01510592 0.00401317 0.00955320 0.00610813 0.03248468 0.00797820 0.02774356 0.00143656 0.02445433 0.10238792 0.02190256 0.03440340 
0.03728399 0.04244537 0.00695289 0.00382173 0.01527295 0.00406394 0.00975585 0.00612739 0.03186789 0.00794317 0.02792686 0.00141883 0.02476888 0.10425668 0.02234053 0.03475414 
0.03699333 0.04309453 0.00696614 0.00384870 0.01542594 0.00411011 0.00994612 0.00615508 0.03125704 0.00791053 0.02811103 0.00140079 0.02508529 0.10609203 0.02276536 0.03503776 
0.03665390 0.04374066 0.00697546 0.00387403 0.01556444 0.00415144 0.01012343 0.00619158 0.03065367 0.00788081 0.02829682 0.00138253 0.02540293 0.10788947 0.02317594 0.03525206 
0.03626733 0.04438375 0.00698066 0.00389767 0.01568803 0.00418773 0.01028729 0.00623720 0.03005928 0.00785452 0.02848501 0.00136419 0.02572113 0.10964451 0.02357120 0.03539526 
0.03583550 0.04502393 0.00698160 0.00391956 0.01579634 0.00421880 0.01043728 0.00629223 0.02947542 0.00783217 0.02867644 0.00134585 0.02603917 0.11135267 0.02395015 0.03546598 
0.03536047 0.04566138 0.00697816 0.00393969 0.01588902 0.00424449 0.01057305 0.00635688 0.02890359 0.00781425 0.02887195 0.00132766 0.02635631 0.11300951 0.02431181 0.03546323 
0.03484447 0.04629642 0.00697023 0.00395803 0.01596581 0.00426469 0.01069433 0.00643136 0.02834535 0.00780125 0.02907245 0.00130971 0.02667178 0.11461063 0.02465529 0.03538649 
0.03428992 0.04692941 0.00695775 0.00397456 0.01602644 0.00427930 0.01080093 0.00651579 0.02780220 0.00779364 0.02927883 0.00129214 0.02698477 0.11615169 0.02497974 0.03523566 
0.03369939 0.04756082 0.00694068 0.00398928 0.01607073 0.00428827 0.01089274 0.00661025 0.02727570 0.00779188 0.02949201 0.00127507 0.02729444 0.11762843 0.02528438 0.03501110 
0.03307558 0.04819115 0.00691900 0.00400219 0.01609852 0.00429157 0.01096973 0.00671477 0.02676737 0.00779639 0.02971292 0.00125863 0.02759995 0.11903670 0.02556850 0.03471363 
0.03242134 0.04882099 0.00689273 0.00401331 0.01610971 0.00428919 0.01103194 0.00682931 0.02627875 0.00780757 0.02994251 0.00124292 0.02790043 0.12037246 0.02583145 0.03434451 
0.03173960 0.04945096 0.00686191 0.00402265 0.01610423 0.00428118 0.01107949 0.00695380 0.02581140 0.00782581 0.03018169 0.00122809 0.02819500 0.12163181 0.02607265 0.03390548 
0.03103340 0.05008171 0.00682661 0.00403024 0.01608207 0.00426759 0.01111258 0.00708809 0.02536685 0.00785144 0.03043138 0.00121426 0.02848276 0.12281099 0.02629161 0.03339872 
0.03030585 0.05071391 0.00678692 0.00403612 0.01604326 0.00424852 0.01113147 0.00723197 0.02494664 0.00788478 0.03069249 0.00120153 0.02876283 0.12390643 0.02648790 0.03282689 
0.02956011 0.05134825 0.00674297 0.00404033 0.01598787 0.00422409 0.01113651 0.00738518 0.02455232 0.00792611 0.03096590 0.00119005 0.02903431 0.12491472 0.02666118 0.03219304 
0.02879939 0.05198540 0.00669491 0.00404291 0.01591603 0.00419446 0.01112810 0.00754739 0.02418541 0.00797566 0.03125244 0.00117990 0.02929631 0.12583267 0.02681117 0.03150070 
0.02802690 0.05262602 0.00664291 0.00404393 0.01582789 0.00415980 0.01110672 0.00771825 0.02384743 0.00803363 0.03155291 0.00117122 0.02954798 0.12665729 0.02693768 0.03075378 
0.02724589 0.05327074 0.00658717 0.00404342 0.01572368 0.00412031 0.01107290 0.00789729 0.02353988 0.00810018 0.03186807 0.00116411 0.02978844 0.12738582 0.02704061 0.02995662 
0.02645955 0.05392013 0.00652791 0.00404147 0.01560364 0.00407623 0.01102724 0.00808405 0.02326424 0.00817543 0.03219862 0.00115867 0.03001687 0.12801577 0.02711993 0.02911391 
0.02567107 0.05457472 0.00646538 0.00403814 0.01546807 0.00402781 0.01097037 0.00827796 0.02302197 0.00825943 0.03254519 0.00115499 0.03023246 0.12854488 0.02717569 0.02823071 
0.02488360 0.05523493 0.00639984 0.00403349 0.01531732 0.00397532 0.01090299 0.00847844 0.02281448 0.00835222 0.03290834 0.00115318 0.03043443 0.12897117 0.02720803 0.02731242 
0.02410018 0.05590115 0.00633157 0.00402760 0.01515176 0.00391906 0.01082583 0.00868484 0.02264315 0.00845377 0.03328857 0.00115330 0.03062205 0.12929294 0.02721716 0.02636472 
0.02332382 0.05657361 0.00626087 0.00402055 0.01497181 0.00385934 0.01073968 0.00889646 0.02250929 0.00856402 0.03368626 0.00115544 0.03079461 0.12950877 0.02720337 0.02539359 
0.02255741 0.05725248 0.00618805 0.00401241 0.01477795 0.00379648 0.01064533 0.00911258 0.02241417 0.00868285 0.03410174 0.00115967 0.03095146 0.12961756 0.02716704 0.02440523 
0.02180372 0.05793779 0.00611345 0.00400325 0.01457067 0.00373082 0.01054363 0.00933240 0.02235898 0.00881010 0.03453521 0.00116604 0.03109201 0.12961850 0.02710860 0.02340607 
0.02106543 0.05862942 0.00603739 0.00399316 0.01435052 0.00366272 0.01043544 0.00955512 0.02234485 0.00894556 0.03498677 0.00117460 0.03121570 0.12951110 0.02702857 0.02240269 
0.02034505 0.05932715 0.00596023 0.00398221 0.01411808 0.00359254 0.01032163 0.00977989 0.02237280 0.00908898 0.03545644 0.00118540 0.03132205 0.12929519 0.02692755 0.02140183 
0.01964498 0.06003059 0.00588233 0.00397047 0.01387396 0.00352064 0.01020309 0.01000582 0.02244375 0.00924007 0.03594408 0.00119846 0.03141062 0.12897091 0.02680618 0.02041031 
0.01896742 0.06073919 0.00580403 0.00395802 0.01361880 0.00344740 0.01008071 0.01023202 0.02255854 0.00939847 0.03644947 0.00121382 0.03148106 0.12853876 0.02666519 0.01943502 
0.01831445 0.06145227 0.00572571 0.00394493 0.01335330 0.00337318 0.00995540 0.01045756 0.02271785 0.00956380 0.03697224 0.00123146 0.03153307 0.12799952 0.02650536 0.01848285 
0.01768794 0.06216896 0.00564774 0.00393126 0.01307816 0.00329838 0.00982803 0.01068151 0.02292226 0.00973564 0.03751191 0.00125140 0.03156642 0.12735433 0.02632751 0.01756069 
0.01708961 0.06288826 0.00557046 0.00391708 0.01279414 0.00322334 0.00969948 0.01090291 0.02317220 0.00991352 0.03806787 0.00127363 0.03158096 0.12660464 0.02613255 0.01667535 
0.01652096 0.06360897 0.00549424 0.00390246 0.01250200 0.00314845 0.00957063 0.01112081 0.02346795 0.01009694 0.03863937 0.00129811 0.03157660 0.12575223 0.02592140 0.01583353 
0.01598334 0.06432976 0.00541944 0.00388745 0.01220254 0.00307406 0.00944230 0.01133425 0.02380962 0.01028535 0.03922552 0.00132482 0.03155336 0.12479919 0.02569506 0.01504180 
0.01547787 0.06504912 0.00534640 0.00387210 0.01189659 0.00300052 0.00931532 0.01154227 0.02419716 0.01047819 0.03982533 0.00135371 0.03151129 0.12374792 0.02545453 0.01430652 
0.01500550 0.06576541 0.00527545 0.00385646 0.01158500 0.00292818 0.00919046 0.01174394 0.02463033 0.01067484 0.04043764 0.00138472 0.03145055 0.12260115 0.02520087 0.01363383 
0.01456697 0.06647681 0.00520693 0.00384058 0.01126863 0.00285735 0.00906848 0.01193832 0.02510872 0.01087467 0.04106118 0.00141778 0.03137135 0.12136187 0.02493516 0.01302960 
0.01416284 0.06718138 0.00514114 0.00382450 0.01094838 0.00278835 0.00895008 0.01212449 0.02563170 0.01107702 0.04169455 0.00145282 0.03127399 0.12003337 0.02465850 0.01249939 
0.01379347 0.06787706 0.00507838 0.00380825 0.01062514 0.00272148 0.00883593 0.01230159 0.02619845 0.01128121 0.04233622 0.00148974 0.03115886 0.11861922 0.02437201 0.01204843 
0.01345902 0.06856164 0.00501893 0.00379185 0.01029985 0.00265701 0.00872665 0.01246874 0.02680795 0.01148654 0.04298454 0.00152845 0.03102639 0.11712326 0.02407684 0.01168155 
0.01315948 0.06923281 0.00496305 0.00377535 0.00997342 0.00259519 0.00862280 0.01262512 0.02745895 0.01169227 0.04363773 0.00156882 0.03087709 0.11554955 0.02377410 0.01140317 
0.01289466 0.06988817 0.00491099 0.00375874 0.00964679 0.00253627 0.00852491 0.01276996 0.02815000 0.01189767 0.04429391 0.00161076 0.03071157 0.11390243 0.02346495 0.01121728 
0.01266417 0.07052525 0.00486295 0.00374206 0.00932093 0.00248046 0.00843342 0.01290251 0.02887943 0.01210200 0.04495110 0.00165411 0.03053045 0.11218642 0.02315051 0.01112739 
0.01246748 0.07114147 0.00481914 0.00372532 0.00899677 0.00242794 0.00834875 0.01302207 0.02964534 0.01230448 0.04560722 0.00169875 0.03033446 0.11040626 0.02283191 0.01113650 
0.01230388 0.07173425 0.00477973 0.00370851 0.00867527 0.00237888 0.00827125 0.01312800 0.03044562 0.01250437 0.04626009 0.00174453 0.03012437 0.10856689 0.02251026 0.01124709 
0.01217253 0.07230093 0.00474487 0.00369164 0.00835739 0.00233342 0.00820118 0.01321972 0.03127794 0.01270090 0.04690745 0.00179130 0.02990100 0.10667339 0.02218663 0.01146112 
0.01207244 0.07283888 0.00471468 0.00367471 0.00804406 0.00229169 0.00813878 0.01329670 0.03213977 0.01289330 0.04754698 0.00183889 0.02966523 0.10473102 0.02186211 0.01177996 
0.01200247 0.07334544 0.00468925 0.00365773 0.00773624 0.00225375 0.00808421 0.01335846 0.03302836 0.01308081 0.04817631 0.00188714 0.02941797 0.10274516 0.02153770 0.01220441 
0.01196138 0.07381797 0.00466866 0.00364067 0.00743484 0.00221969 0.00803758 0.01340462 0.03394077 0.01326269 0.04879299 0.00193588 0.02916019 0.10072130 0.02121441 0.01273470 
0.01194782 0.07425390 0.00465295 0.00362353 0.00714080 0.00218953 0.00799891 0.01343482 0.03487386 0.01343818 0.04939455 0.00198494 0.02889289 0.09866504 0.02089318 0.01337044 
0.01196032 0.07465068 0.00464213 0.00360630 0.00685500 0.00216330 0.00796820 0.01344882 0.03582432 0.01360658 0.04997852 0.00203413 0.02861707 0.09658204 0.02057494 0.01411067 
0.01199735 0.07500587 0.00463619 0.00358896 0.00657833 0.00214096 0.00794536 0.01344640 0.03678865 0.01376717 0.05054239 0.00208328 0.02833381 0.09447802 0.02026054 0.01495382 
0.01205728 0.07531711 0.00463509 0.00357150 0.00631165 0.00212249 0.00793025 0.01342745 0.03776323 0.01391926 0.05108367 0.00213219 0.02804415 0.09235874 0.01995078 0.01589771 
0.01213844 0.07558218 0.00463875 0.00355390 0.00605578 0.00210782 0.00792270 0.01339191 0.03874425 0.01406220 0.05159988 0.00218070 0.02774917 0.09022997 0.01964644 0.01693959 
0.01223909 0.07579896 0.00464709 0.00353615 0.00581154 0.00209686 0.00792246 0.01333981 0.03972782 0.01419535 0.05208859 0.00222861 0.02744996 0.08809749 0.01934821 0.01807612 
0.01235747 0.07596552 0.00465998 0.00351822 0.00557968 0.00208951 0.00792923 0.01327125 0.04070993 0.01431810 0.05254741 0.00227575 0.02714760 0.08596705 0.01905672 0.01930340 
0.01249176 0.07608007 0.00467728 0.00350011 0.00536095 0.00208562 0.00794267 0.01318638 0.04168645 0.01442989 0.05297401 0.00232193 0.02684316 0.08384436 0.01877258 0.02061698 
0.01264017 0.07614104 0.00469882 0.00348179 0.00515603 0.00208506 0.00796240 0.01308547 0.04265323 0.01453018 0.05336614 0.00236698 0.02653771 0.08173508 0.01849628 0.02201189 
0.01280088 0.07614703 0.00472439 0.00346325 0.00496559 0.00208764 0.00798800 0.01296881 0.04360604 0.01461848 0.05372167 0.00241073 0.02623228 0.07964478 0.01822830 0.02348264 
0.01297208 0.07609688 0.00475379 0.00344448 0.00479022 0.00209318 0.00801899 0.01283679 0.04454063 0.01469433 0.05403856 0.00245301 0.02592790 0.07757896 0.01796903 0.02502328 
0.01315199 0.07598965 0.00478677 0.00342547 0.00463049 0.00210147 0.00805489 0.01268987 0.04545276 0.01475733 0.05431489 0.00249367 0.02562554 0.07554300 0.01771879 0.02662740 
0.01333885 0.07582464 0.00482307 0.00340620 0.00448690 0.00211229 0.00809517 0.01252857 0.04633819 0.01480711 0.05454891 0.00253254 0.02532617 0.07354216 0.01747785 0.02828818 
0.01353094 0.07560142 0.00486243 0.00338667 0.00435990 0.00212542 0.00813928 0.01235346 0.04719274 0.01484337 0.05473899 0.00256949 0.02503069 0.07158156 0.01724643 0.02999843 
0.01372661 0.07531980 0.00490454 0.00336688 0.00424990 0.00214060 0.00818664 0.01216518 0.04801230 0.01486584 0.05488371 0.00260438 0.02473997 0.06966618 0.01702467 0.03175061 
0.01392423 0.07497988 0.00494910 0.00334683 0.00415723 0.00215758 0.00823666 0.01196444 0.04879283 0.01487430 0.05498180 0.00263708 0.02445482 0.06780082 0.01681266 0.03353688 
0.01412227 0.07458201 0.00499579 0.00332651 0.00408217 0.00217610 0.00828875 0.01175200 0.04953045 0.01486862 0.05503220 0.00266748 0.02417600 0.06599011 0.01661042 0.03534914 
0.01431927 0.07412686 0.00504428 0.00330594 0.00402492 0.00219590 0.00834229 0.01152865 0.05022138 0.01484869 0.05503406 0.00269547 0.02390420 0.06423850 0.01641793 0.03717908 
0.01451384 0.07361534 0.00509422 0.00328513 0.00398563 0.00221670 0.00839666 0.01129524 0.05086202 0.01481448 0.05498676 0.00272096 0.02364007 0.06255024 0.01623512 0.03901821 
0.01470469 0.07304867 0.00514528 0.00326410 0.00396439 0.00223824 0.00845124 0.01105268 0.05144898 0.01476599 0.05488987 0.00274388 0.02338417 0.06092936 0.01606186 0.04085793 
0.01489062 0.07242835 0.00519710 0.00324285 0.00396119 0.00226024 0.00850543 0.01080188 0.05197905 0.01470333 0.05474324 0.00276414 0.02313701 0.05937970 0.01589798 0.04268954 
0.01507052 0.07175615 0.00524933 0.00322141 0.00397598 0.00228242 0.00855862 0.01054382 0.05244927 0.01462662 0.05454695 0.00278170 0.02289903 0.05790486 0.01574327 0.04450434 
0.01524340 0.07103414 0.00530161 0.00319981 0.00400862 0.00230453 0.00861022 0.01027948 0.05285693 0.01453607 0.05430132 0.00279651 0.02267057 0.05650821 0.01559748 0.04629363 
0.01540836 0.07026463 0.00535360 0.00317808 0.00405891 0.00232631 0.00865963 0.01000989 0.05319961 0.01443194 0.05400693 0.00280856 0.02245194 0.05519289 0.01546032 0.04804879 
0.01556461 0.06945022 0.00540494 0.00315625 0.00412657 0.00234749 0.00870632 0.00973606 0.05347515 0.01431457 0.05366463 0.00281782 0.02224334 0.05396180 0.01533148 0.04976129 
0.01571149 0.06859374 0.00545529 0.00313436 0.00421125 0.00236783 0.00874973 0.00945906 0.05368173 0.01418434 0.05327552 0.00282429 0.02204491 0.05281759 0.01521063 0.05142279 
0.01584842 0.06769828 0.00550433 0.00311246 0.00431253 0.00238710 0.00878936 0.00917994 0.05381785 0.01404170 0.05284097 0.00282800 0.02185672 0.05176268 0.01509739 0.05302513 
0.01597496 0.06676715 0.00555173 0.00309058 0.00442990 0.00240508 0.00882472 0.00889976 0.05388231 0.01388716 0.05236260 0.00282898 0.02167875 0.05079922 0.01499139 0.05456045 
0.01609075 0.06580389 0.00559719 0.00306877 0.00456281 0.00242156 0.00885537 0.00861957 0.05387432 0.01372129 0.05184228 0.00282725 0.02151094 0.04992912 0.01489225 0.05602112 
0.01619558 0.06481223 0.00564040 0.00304709 0.00471061 0.00243633 0.00888087 0.00834043 0.05379339 0.01354472 0.05128216 0.00282290 0.02135312 0.04915402 0.01479956 0.05739992 
0.01628932 0.06379607 0.00568109 0.00302560 0.00487261 0.00244923 0.00890085 0.00806338 0.05363943 0.01335813 0.05068459 0.00281597 0.02120507 0.04847534 0.01471292 0.05868995 
0.01637194 0.06275950 0.00571900 0.00300434 0.00504802 0.00246008 0.00891497 0.00778945 0.05341271 0.01316227 0.05005221 0.00280657 0.02106652 0.04789423 0.01463193 0.05988476 
0.01644354 0.06170675 0.00575389 0.00298337 0.00523602 0.00246875 0.00892291 0.00751963 0.05311386 0.01295792 0.04938785 0.00279478 0.02093710 0.04741157 0.01455621 0.06097835 
0.01650429 0.06064216 0.00578554 0.00296277 0.00543571 0.00247510 0.00892441 0.00725491 0.05274391 0.01274593 0.04869456 0.00278071 0.02081642 0.04702803 0.01448536 0.06196520 
0.01655448 0.05957019 0.00581374 0.00294258 0.00564613 0.00247903 0.00891925 0.00699623 0.05230425 0.01252718 0.04797562 0.00276449 0.02070399 0.04674401 0.01441901 0.06284030 
0.01659447 0.05849537 0.00583834 0.00292287 0.00586628 0.00248046 0.00890724 0.00674451 0.05179662 0.01230262 0.04723446 0.00274625 0.02059932 0.04655966 0.01435682 0.06359919 
0.01662471 0.05742231 0.00585917 0.00290370 0.00609510 0.00247931 0.00888826 0.00650062 0.05122314 0.01207321 0.04647472 0.00272612 0.02050182 0.04647492 0.01429845 0.06423799 
0.01664574 0.05635563 0.00587612 0.00288515 0.00633148 0.00247553 0.00886220 0.00626541 0.05058628 0.01183997 0.04570017 0.00270426 0.02041089 0.04648946 0.01424358 0.06475337 
0.01665816 0.05529998 0.00588908 0.00286726 0.00657427 0.00246911 0.00882902 0.00603965 0.04988886 0.01160394 0.04491474 0.00268083 0.02032588 0.04660274 0.01419195 0.06514265 
0.01666263 0.05425997 0.00589798 0.00285011 0.00682228 0.00246004 0.00878871 0.00582410 0.04913401 0.01136621 0.04412245 0.00265599 0.02024611 0.04681400 0.01414331 0.06540373 
0.01665989 0.05324021 0.00590277 0.00283376 0.00707430 0.00244833 0.00874130 0.00561944 0.04832519 0.01112788 0.04332745 0.00262992 0.02017088 0.04712223 0.01409744 0.06553517 
0.01665073 0.05224522 0.00590344 0.00281827 0.00732908 0.00243401 0.00868689 0.00542631 0.04746615 0.01089006 0.04253395 0.00260279 0.02009944 0.04752624 0.01405415 0.06553616 
0.01663596 0.05127944 0.00589999 0.00280369 0.00758536 0.00241715 0.00862557 0.00524528 0.04656092 0.01065390 0.04174620 0.00257479 0.02003105 0.04802462 0.01401332 0.06540650 
0.01661647 0.05034720 0.00589246 0.00279008 0.00784185 0.00239782 0.00855753 0.00507689 0.04561381 0.01042055 0.04096850 0.00254609 0.01996495 0.04861576 0.01397483 0.06514668 
0.01659314 0.04945269 0.00588090 0.00277750 0.00809727 0.00237611 0.00848295 0.00492158 0.04462933 0.01019116 0.04020516 0.00251690 0.01990037 0.04929784 0.01393863 0.06475778 
0.01656690 0.04859994 0.00586540 0.00276600 0.00835031 0.00235213 0.00840207 0.00477976 0.04361223 0.00996691 0.03946045 0.00248739 0.01983656 0.05006890 0.01390470 0.06424154 
0.01653868 0.04779281 0.00584607 0.00275562 0.00859968 0.00232601 0.00831517 0.00465177 0.04256744 0.00974893 0.03873862 0.00245776 0.01977274 0.05092676 0.01387306 0.06360029 
0.01650944 0.04703494 0.00582302 0.00274641 0.00884411 0.00229791 0.00822254 0.00453787 0.04150005 0.00953837 0.03804384 0.00242819 0.01970819 0.05186908 0.01384378 0.06283700 
0.01648013 0.04632975 0.00579643 0.00273841 0.00908232 0.00226797 0.00812453 0.00443829 0.04041529 0.00933637 0.03738018 0.00239886 0.01964216 0.05289339 0.01381697 0.06195519 
0.01645168 0.04568041 0.00576645 0.00273165 0.00931308 0.00223638 0.00802150 0.00435315 0.03931850 0.00914404 0.03675163 0.00236997 0.01957396 0.05399703 0.01379278 0.06095897 
0.01642502 0.04508985 0.00573328 0.00272616 0.00953517 0.00220333 0.00791384 0.00428255 0.03821510 0.00896245 0.03616199 0.00234168 0.01950292 0.05517723 0.01377141 0.05985299 
0.01640106 0.04456068 0.00569713 0.00272197 0.00974742 0.00216901 0.00780197 0.00422649 0.03711056 0.00879265 0.03561494 0.00231417 0.01942839 0.05643107 0.01375310 0.05864241 
0.01638069 0.04409522 0.00565822 0.00271910 0.00994868 0.00213363 0.00768632 0.00418494 0.03601036 0.00863567 0.03511395 0.00228759 0.01934978 0.05775552 0.01373812 0.05733289 
0.01636475 0.04369551 0.00561679 0.00271756 0.01013787 0.00209742 0.00756735 0.00415779 0.03492000 0.00849247 0.03466228 0.00226211 0.01926654 0.05914743 0.01372680 0.05593053 
0.01635404 0.04336323 0.00557308 0.00271737 0.01031396 0.00206060 0.00744553 0.00414486 0.03384492 0.00836397 0.03426297 0.00223788 0.01917816 0.06060356 0.01371948 0.05444188 
0.01634934 0.04309972 0.00552737 0.00271852 0.01047599 0.00202340 0.00732135 0.00414594 0.03279051 0.00825104 0.03391881 0.00221503 0.01908421 0.06212056 0.01371655 0.05287387 
0.01635135 0.04290599 0.00547990 0.00272101 0.01062304 0.00198608 0.00719529 0.00416075 0.03176206 0.00815449 0.03363231 0.00219368 0.01898429 0.06369502 0.01371844 0.05123378 
0.01636073 0.04278269 0.00543096 0.00272484 0.01075429 0.00194885 0.00706787 0.00418894 0.03076473 0.00807507 0.03340571 0.00217397 0.01887808 0.06532347 0.01372560 0.04952921 
0.01637806 0.04273010 0.00538083 0.00272999 0.01086898 0.00191198 0.00693959 0.00423013 0.02980357 0.00801346 0.03324093 0.00215598 0.01876533 0.06700234 0.01373851 0.04776804 
0.01640388 0.04274815 0.00532977 0.00273644 0.01096646 0.00187571 0.00681096 0.00428388 0.02888341 0.00797027 0.03313959 0.00213982 0.01864586 0.06872805 0.01375766 0.04595836 
0.01643865 0.04283640 0.00527806 0.00274417 0.01104612 0.00184027 0.00668249 0.00434971 0.02800892 0.00794602 0.03310298 0.00212557 0.01851956 0.07049697 0.01378359 0.04410850 
0.01648273 0.04299403 0.00522598 0.00275314 0.01110750 0.00180591 0.00655467 0.00442711 0.02718453 0.00794116 0.03313204 0.00211328 0.01838639 0.07230544 0.01381683 0.04222690 
0.01653646 0.04321987 0.00517380 0.00276331 0.01115018 0.00177287 0.00642802 0.00451549 0.02641443 0.00795607 0.03322736 0.00210301 0.01824639 0.07414979 0.01385794 0.04032213 
0.01660004 0.04351239 0.00512178 0.00277465 0.01117388 0.00174138 0.00630302 0.00461427 0.02570256 0.00799103 0.03338919 0.00209481 0.01809970 0.07602634 0.01390749 0.03840283 
0.01667364 0.04386971 0.00507018 0.00278711 0.01117840 0.00171166 0.00618015 0.00472281 0.02505255 0.00804622 0.03361740 0.00208868 0.01794653 0.07793143 0.01396605 0.03647765 
0.01675732 0.04428959 0.00501923 0.00280063 0.01116364 0.00168392 0.00605988 0.00484045 0.02446777 0.00812175 0.03391153 0.00208465 0.01778715 0.07986138 0.01403420 0.03455524 
0.01685106 0.04476949 0.00496917 0.00281516 0.01112964 0.00165839 0.00594265 0.00496650 0.02395125 0.00821763 0.03427072 0.00208270 0.01762195 0.08181257 0.01411251 0.03264417 
0.01695476 0.04530650 0.00492022 0.00283063 0.01107650 0.00163525 0.00582889 0.00510027 0.02350568 0.00833376 0.03469377 0.00208282 0.01745137 0.08378139 0.01420156 0.03075294 
0.01706825 0.04589746 0.00487258 0.00284698 0.01100446 0.00161469 0.00571902 0.00524102 0.02313345 0.00846997 0.03517911 0.00208498 0.01727596 0.08576430 0.01430189 0.02888988 
0.01719125 0.04653889 0.00482645 0.00286414 0.01091385 0.00159689 0.00561343 0.00538803 0.02283657 0.00862599 0.03572484 0.00208911 0.01709632 0.08775779 0.01441406 0.02706315 
0.01732343 0.04722703 0.00478198 0.00288204 0.01080511 0.00158201 0.00551248 0.00554054 0.02261671 0.00880143 0.03632869 0.00209517 0.01691316 0.08975841 0.01453861 0.02528072 
0.01746435 0.04795790 0.00473934 0.00290060 0.01067881 0.00157019 0.00541652 0.00569782 0.02247516 0.00899584 0.03698807 0.00210307 0.01672724 0.09176281 0.01467603 0.02355028 
0.01761352 0.04872727 0.00469866 0.00291974 0.01053558 0.00156156 0.00532585 0.00585910 0.02241288 0.00920866 0.03770007 0.00211273 0.01653940 0.09376767 0.01482681 0.02187925 
0.01777036 0.04953071 0.00466006 0.00293939 0.01037619 0.00155624 0.00524077 0.00602365 0.02243042 0.00943923 0.03846147 0.00212405 0.01635056 0.09576980 0.01499142 0.02027472 
0.01793423 0.05036359 0.00462363 0.00295945 0.01020149 0.00155434 0.00516154 0.00619072 0.02252799 0.00968681 0.03926876 0.00213690 0.01616169 0.09776607 0.01517026 0.01874344 
0.01810442 0.05122115 0.00458944 0.00297985 0.01001243 0.00155593 0.00508839 0.00635959 0.02270544 0.00995059 0.04011816 0.00215118 0.01597384 0.09975347 0.01536374 0.01729179 
0.01828014 0.05209849 0.00455756 0.00300051 0.00981005 0.00156108 0.00502151 0.00652954 0.02296226 0.01022964 0.04100564 0.00216675 0.01578809 0.10172908 0.01557219 0.01592574 
0.01846058 0.05299059 0.00452802 0.00302134 0.00959547 0.00156985 0.00496108 0.00669987 0.02329758 0.01052299 0.04192691 0.00218346 0.01560560 0.10369009 0.01579592 0.01465082 
0.01864484 0.05389237 0.00450084 0.00304225 0.00936991 0.00158226 0.00490724 0.00686990 0.02371018 0.01082956 0.04287752 0.00220117 0.01542755 0.10563381 0.01603518 0.01347214 
0.01883200 0.05479869 0.00447602 0.00306317 0.00913465 0.00159833 0.00486009 0.00703899 0.02419855 0.01114822 0.04385280 0.00221970 0.01525518 0.10755767 0.01629019 0.01239433 
0.01902109 0.05570440 0.00445354 0.00308401 0.00889104 0.00161806 0.00481971 0.00720650 0.02476080 0.01147777 0.04484794 0.00223891 0.01508974 0.10945921 0.01656110 0.01142152 
0.01921110 0.05660436 0.00443335 0.00310469 0.00864050 0.00164143 0.00478615 0.00737184 0.02539478 0.01181695 0.04585798 0.00225862 0.01493252 0.11133610 0.01684802 0.01055737 
0.01940099 0.05749344 0.00441541 0.00312514 0.00838450 0.00166840 0.00475942 0.00753444 0.02609802 0.01216444 0.04687787 0.00227865 0.01478483 0.11318614 0.01715099 0.00980502 
0.01958972 0.05836661 0.00439964 0.00314529 0.00812456 0.00169893 0.00473952 0.00769376 0.02686779 0.01251888 0.04790249 0.00229884 0.01464798 0.11500727 0.01747000 0.00916707 
0.01977621 0.05921892 0.00438597 0.00316504 0.00786224 0.00173293 0.00472640 0.00784932 0.02770111 0.01287886 0.04892666 0.00231899 0.01452328 0.11679753 0.01780497 0.00864562 
0.01995939 0.06004552 0.00437429 0.00318435 0.00759914 0.00177033 0.00471998 0.00800064 0.02859473 0.01324293 0.04994519 0.00233893 0.01441204 0.11855511 0.01815577 0.00824222 
0.02013819 0.06084173 0.00436450 0.00320314 0.00733686 0.00181102 0.00472019 0.00814732 0.02954521 0.01360963 0.05095289 0.00235848 0.01431555 0.12027834 0.01852220 0.00795791 
0.02031155 0.06160304 0.00435647 0.00322136 0.00707704 0.00185490 0.00472688 0.00828896 0.03054891 0.01397747 0.05194463 0.00237746 0.01423508 0.12196566 0.01890399 0.00779318 
0.02047840 0.06232512 0.00435008 0.00323894 0.00682132 0.00190182 0.00473992 0.00842523 0.03160200 0.01434493 0.05291535 0.00239570 0.01417188 0.12361566 0.01930083 0.00774798 
0.02063773 0.06300387 0.00434519 0.00325583 0.00657133 0.00195165 0.00475914 0.00855583 0.03270050 0.01471051 0.05386007 0.00241303 0.01412713 0.12522703 0.01971231 0.00782178 
0.02078853 0.06363543 0.00434166 0.00327198 0.00632869 0.00200423 0.00478434 0.00868050 0.03384031 0.01507268 0.05477398 0.00242928 0.01410199 0.12679863 0.02013799 0.00801349 
0.02092986 0.06421621 0.00433934 0.00328736 0.00609500 0.00205940 0.00481531 0.00879902 0.03501721 0.01542996 0.05565238 0.00244430 0.01409753 0.12832941 0.02057732 0.00832153 
0.02106080 0.06474288 0.00433809 0.00330192 0.00587183 0.00211697 0.00485182 0.00891122 0.03622689 0.01578085 0.05649078 0.00245793 0.01411478 0.12981844 0.02102974 0.00874384 
0.02118048 0.06521241 0.00433776 0.00331562 0.00566070 0.00217675 0.00489363 0.00901697 0.03746501 0.01612388 0.05728492 0.00247003 0.01415468 0.13126495 0.02149458 0.00927785 
0.02128811 0.06562210 0.00433820 0.00332845 0.00546310 0.00223856 0.00494048 0.00911617 0.03872716 0.01645762 0.05803074 0.00248046 0.01421810 0.13266823 0.02197114 0.00992056 
0.02138296 0.06596955 0.00433927 0.00334037 0.00528045 0.00230218 0.00499208 0.00920876 0.04000892 0.01678067 0.05872446 0.00248911 0.01430581 0.13402774 0.02245863 0.01066849 
0.02146435 0.06625272 0.00434081 0.00335136 0.00511410 0.00236739 0.00504816 0.00929473 0.04130588 0.01709169 0.05936258 0.00249586 0.01441846 0.13534301 0.02295624 0.01151778 
0.02153170 0.06646988 0.00434270 0.00336141 0.00496534 0.00243399 0.00510841 0.00937410 0.04261368 0.01738937 0.05994190 0.00250061 0.01455664 0.13661369 0.02346306 0.01246411 
0.02158451 0.06661968 0.00434481 0.00337052 0.00483537 0.00250174 0.00517253 0.00944693 0.04392798 0.01767247 0.06045954 0.00250329 0.01472078 0.13783953 0.02397815 0.01350282 
0.02162235 0.06670111 0.00434701 0.00337867 0.00472529 0.00257041 0.00524022 0.00951330 0.04524453 0.01793981 0.06091295 0.00250380 0.01491122 0.13902038 0.02450053 0.01462887 
0.02164492 0.06671352 0.00434919 0.00338587 0.00463611 0.00263978 0.00531116 0.00957333 0.04655917 0.01819028 0.06129994 0.00250210 0.01512817 0.14015619 0.02502915 0.01583689 
0.02165198 0.06665663 0.00435125 0.00339211 0.00456874 0.00270961 0.00538503 0.00962717 0.04786785 0.01842285 0.06161870 0.00249814 0.01537170 0.14124699 0.02556291 0.01712122 
0.02164339 0.06653049 0.00435309 0.00339741 0.00452398 0.00277967 0.00546152 0.00967499 0.04916665 0.01863657 0.06186775 0.00249190 0.01564174 0.14229291 0.02610069 0.01847590 
0.02161914 0.06633551 0.00435464 0.00340177 0.00450250 0.00284971 0.00554032 0.00971701 0.05045179 0.01883056 0.06204603 0.00248336 0.01593809 0.14329415 0.02664133 0.01989473 
0.02157930 0.06607245 0.00435583 0.00340521 0.00450486 0.00291950 0.00562111 0.00975343 0.05171967 0.01900405 0.06215286 0.00247251 0.01626043 0.14425100 0.02718363 0.02137129 
0.02152405 0.06574240 0.00435661 0.00340774 0.00453150 0.00298882 0.00570359 0.00978450 0.05296684 0.01915635 0.06218792 0.00245939 0.01660825 0.14516380 0.02772634 0.02289895 
0.02145368 0.06534679 0.00435693 0.00340939 0.00458272 0.00305743 0.00578744 0.00981048 0.05419005 0.01928688 0.06215132 0.00244402 0.01698092 0.14603299 0.02826823 0.02447095 
0.02136857 0.06488733 0.00435676 0.00341016 0.00465868 0.00312510 0.00587239 0.00983164 0.05538627 0.01939513 0.06204353 0.00242646 0.01737767 0.14685906 0.02880802 0.02608038 
0.02126924 0.06436607 0.00435611 0.00341010 0.00475942 0.00319161 0.00595814 0.00984826 0.05655265 0.01948072 0.06186542 0.00240675 0.01779755 0.14764257 0.02934442 0.02772022 
0.02115626 0.06378530 0.00435496 0.00340921 0.00488484 0.00325674 0.00604442 0.00986064 0.05768656 0.01954335 0.06161822 0.00238500 0.01823951 0.14838414 0.02987613 0.02938340 
0.02103036 0.06314760 0.00435334 0.00340752 0.00503470 0.00332028 0.00613095 0.00986908 0.05878563 0.01958284 0.06130354 0.00236128 0.01870231 0.14908444 0.03040185 0.03106279 
0.02089231 0.06245581 0.00435128 0.00340506 0.00520863 0.00338203 0.00621749 0.00987388 0.05984767 0.01959911 0.06092334 0.00233571 0.01918460 0.14974419 0.03092028 0.03275128 
0.02074302 0.06171296 0.00434881 0.00340186 0.00540610 0.00344179 0.00630380 0.00987534 0.06087076 0.01959216 0.06047992 0.00230840 0.01968487 0.15036416 0.03143012 0.03444175 
0.02058347 0.06092232 0.00434600 0.00339794 0.00562646 0.00349938 0.00638963 0.00987377 0.06185320 0.01956213 0.05997591 0.00227950 0.02020148 0.15094517 0.03193009 0.03612716 
0.02041473 0.06008733 0.00434292 0.00339333 0.00586894 0.00355460 0.00647479 0.00986946 0.06279354 0.01950924 0.05941425 0.00224914 0.02073268 0.15148807 0.03241892 0.03780052 
0.02023793 0.05921157 0.00433964 0.00338805 0.00613262 0.00360729 0.00655905 0.00986271 0.06369055 0.01943379 0.05879816 0.00221748 0.02127657 0.15199376 0.03289536 0.03945498 
0.02005430 0.05829880 0.00433625 0.00338213 0.00641646 0.00365729 0.00664224 0.00985380 0.06454325 0.01933622 0.05813114 0.00218469 0.02183115 0.15246316 0.03335819 0.04108380 
0.01986512 0.05735285 0.00433287 0.00337559 0.00671930 0.00370445 0.00672419 0.00984300 0.06535088 0.01921704 0.05741692 0.00215095 0.02239430 0.15289722 0.03380622 0.04268041 
0.01967172 0.05637767 0.00432958 0.00336845 0.00703987 0.00374862 0.00680472 0.00983059 0.06611289 0.01907683 0.05665947 0.00211643 0.02296382 0.15329692 0.03423831 0.04423845 
0.01947551 0.05537725 0.00432652 0.00336074 0.00737677 0.00378969 0.00688370 0.00981680 0.06682900 0.01891630 0.05586294 0.00208133 0.02353741 0.15366326 0.03465334 0.04575174 
0.01927790 0.05435564 0.00432381 0.00335247 0.00772852 0.00382753 0.00696098 0.00980188 0.06749907 0.01873622 0.05503165 0.00204584 0.02411268 0.15399725 0.03505026 0.04721436 
0.01908037 0.05331689 0.00432156 0.00334367 0.00809352 0.00386204 0.00703646 0.00978602 0.06812323 0.01853743 0.05417006 0.00201017 0.02468718 0.15429991 0.03542804 0.04862064 
0.01888440 0.05226504 0.00431992 0.00333435 0.00847012 0.00389313 0.00711002 0.00976945 0.06870177 0.01832086 0.05328275 0.00197450 0.02525841 0.15457228 0.03578575 0.04996521 
0.01869149 0.05120412 0.00431902 0.00332452 0.00885655 0.00392072 0.00718157 0.00975233 0.06923515 0.01808750 0.05237439 0.00193905 0.02582382 0.15481537 0.03612247 0.05124296 
0.01850314 0.05013808 0.00431899 0.00331420 0.00925099 0.00394474 0.00725104 0.00973483 0.06972405 0.01783840 0.05144968 0.00190402 0.02638081 0.15503021 0.03643739 0.05244915 
0.01832085 0.04907080 0.00431997 0.00330340 0.00965156 0.00396513 0.00731833 0.00971708 0.07016927 0.01757468 0.05051338 0.00186961 0.02692679 0.15521782 0.03672974 0.05357933 
0.01814610 0.04800606 0.00432208 0.00329214 0.01005633 0.00398186 0.00738341 0.00969921 0.07057178 0.01729748 0.04957022 0.00183603 0.02745915 0.15537919 0.03699881 0.05462942 
0.01798034 0.04694754 0.00432546 0.00328041 0.01046334 0.00399490 0.00744621 0.00968132 0.07093267 0.01700803 0.04862492 0.00180346 0.02797528 0.15551528 0.03724400 0.05559571 
0.01782498 0.04589877 0.00433023 0.00326824 0.01087057 0.00400423 0.00750670 0.00966348 0.07125319 0.01670756 0.04768214 0.00177210 0.02847261 0.15562705 0.03746475 0.05647485 
0.01768140 0.04486312 0.00433651 0.00325562 0.01127602 0.00400985 0.00756484 0.00964576 0.07153465 0.01639734 0.04674643 0.00174214 0.02894859 0.15571539 0.03766060 0.05726389 
0.01755090 0.04384380 0.00434442 0.00324256 0.01167766 0.00401178 0.00762059 0.00962819 0.07177852 0.01607869 0.04582226 0.00171374 0.02940073 0.15578115 0.03783116 0.05796025 
0.01743473 0.04284384 0.00435404 0.00322907 0.01207349 0.00401003 0.00767395 0.00961080 0.07198629 0.01575291 0.04491394 0.00168709 0.02982661 0.15582516 0.03797612 0.05856179 
0.01733406 0.04186606 0.00436548 0.00321516 0.01246149 0.00400464 0.00772490 0.00959357 0.07215958 0.01542133 0.04402564 0.00166232 0.03022386 0.15584816 0.03809525 0.05906674 
0.01724997 0.04091311 0.00437882 0.00320082 0.01283971 0.00399567 0.00777342 0.00957650 0.07230004 0.01508530 0.04316132 0.00163960 0.03059023 0.15585083 0.03818841 0.05947376 
0.01718346 0.03998737 0.00439412 0.00318607 0.01320621 0.00398317 0.00781950 0.00955955 0.07240938 0.01474614 0.04232476 0.00161906 0.03092357 0.15583379 0.03825554 0.05978190 
0.01713541 0.03909104 0.00441145 0.00317092 0.01355912 0.00396722 0.00786314 0.00954267 0.07248934 0.01440519 0.04151949 0.00160081 0.03122185 0.15579758 0.03829666 0.05999064 
0.01710661 0.03822608 0.00443084 0.00315536 0.01389661 0.00394790 0.00790434 0.00952580 0.07254169 0.01406376 0.04074881 0.00158497 0.03148316 0.15574263 0.03831186 0.06009986 
0.01709772 0.03739421 0.00445233 0.00313941 0.01421695 0.00392532 0.00794309 0.00950886 0.07256822 0.01372314 0.04001577 0.00157162 0.03170576 0.15566932 0.03830133 0.06010986 
0.01710931 0.03659691 0.00447592 0.00312308 0.01451848 0.00389957 0.00797939 0.00949175 0.07257071 0.01338461 0.03932312 0.00156085 0.03188803 0.15557790 0.03826533 0.06002131 
0.01714178 0.03583546 0.00450163 0.00310639 0.01479963 0.00387077 0.00801323 0.00947439 0.07255095 0.01304939 0.03867334 0.00155272 0.03202854 0.15546852 0.03820419 0.05983531 
0.01719543 0.03511085 0.00452942 0.00308933 0.01505894 0.00383906 0.00804461 0.00945666 0.07251071 0.01271870 0.03806861 0.00154726 0.03212603 0.15534125 0.03811834 0.05955332 
0.01727043 0.03442390 0.00455926 0.00307194 0.01529506 0.00380458 0.00807353 0.00943845 0.07245174 0.01239369 0.03751080 0.00154451 0.03217943 0.15519601 0.03800825 0.05917719 
0.01736680 0.03377516 0.00459111 0.00305422 0.01550676 0.00376746 0.00809997 0.00941964 0.07237576 0.01207547 0.03700147 0.00154448 0.03218786 0.15503264 0.03787448 0.05870913 
0.01748443 0.03316498 0.00462489 0.00303621 0.01569293 0.00372787 0.00812393 0.00940011 0.07228445 0.01176512 0.03654186 0.00154716 0.03215063 0.15485084 0.03771765 0.05815171 
0.01762308 0.03259351 0.00466053 0.00301792 0.01585261 0.00368596 0.00814540 0.00937973 0.07217946 0.01146364 0.03613290 0.00155253 0.03206728 0.15465021 0.03753845 0.05750785 
0.01778237 0.03206067 0.00469791 0.00299939 0.01598497 0.00364192 0.00816436 0.00935838 0.07206239 0.01117198 0.03577518 0.00156055 0.03193754 0.15443023 0.03733763 0.05678077 
0.01796177 0.03156622 0.00473693 0.00298064 0.01608932 0.00359591 0.00818080 0.00933594 0.07193477 0.01089102 0.03546900 0.00157116 0.03176136 0.15419027 0.03711599 0.05597402 
0.01816065 0.03110971 0.00477745 0.00296170 0.01616513 0.00354812 0.00819469 0.00931228 0.07179811 0.01062161 0.03521433 0.00158429 0.03153893 0.15392957 0.03687438 0.05509146 
0.01837823 0.03069054 0.00481932 0.00294263 0.01621202 0.00349874 0.00820602 0.00928730 0.07165384 0.01036448 0.03501082 0.00159985 0.03127062 0.15364727 0.03661372 0.05413719 
0.01861360 0.03030797 0.00486239 0.00292344 0.01622976 0.00344796 0.00821476 0.00926087 0.07150333 0.01012033 0.03485784 0.00161773 0.03095706 0.15334244 0.03633495 0.05311561 
0.01886576 0.02996110 0.00490647 0.00290420 0.01621830 0.00339597 0.00822089 0.00923291 0.07134788 0.00988977 0.03475446 0.00163782 0.03059907 0.15301401 0.03603908 0.05203134 
0.01913357 0.02964892 0.00495139 0.00288495 0.01617772 0.00334298 0.00822438 0.00920331 0.07118876 0.00967335 0.03469946 0.00165997 0.03019772 0.15266084 0.03572713 0.05088922 
0.01941581 0.02937031 0.00499694 0.00286573 0.01610828 0.00328919 0.00822521 0.00917199 0.07102713 0.00947153 0.03469136 0.00168405 0.02975425 0.15228174 0.03540016 0.04969430 
0.01971113 0.02912404 0.00504290 0.00284661 0.01601037 0.00323479 0.00822336 0.00913889 0.07086413 0.00928470 0.03472842 0.00170989 0.02927015 0.15187542 0.03505928 0.04845181 
0.02001814 0.02890885 0.00508907 0.00282764 0.01588456 0.00318000 0.00821879 0.00910394 0.07070081 0.00911318 0.03480867 0.00173733 0.02874710 0.15144057 0.03470561 0.04716714 
0.02033532 0.02872338 0.00513520 0.00280888 0.01573158 0.00312501 0.00821150 0.00906709 0.07053815 0.00895722 0.03492991 0.00176617 0.02818697 0.15097582 0.03434028 0.04584581 
0.02066114 0.02856624 0.00518108 0.00279038 0.01555226 0.00307003 0.00820146 0.00902830 0.07037709 0.00881698 0.03508972 0.00179624 0.02759182 0.15047980 0.03396445 0.04449347 
0.02099396 0.02843603 0.00522645 0.00277222 0.01534763 0.00301525 0.00818865 0.00898756 0.07021848 0.00869255 0.03528550 0.00182732 0.02696390 0.14995114 0.03357931 0.04311586 
0.02133213 0.02833132 0.00527107 0.00275446 0.01511882 0.00296088 0.00817307 0.00894487 0.07006314 0.00858395 0.03551450 0.00185923 0.02630563 0.14938846 0.03318603 0.04171880 
0.02167396 0.02825069 0.00531469 0.00273717 0.01486710 0.00290709 0.00815471 0.00890021 0.06991179 0.00849113 0.03577379 0.00189175 0.02561957 0.14879046 0.03278582 0.04030816 
0.02201773 0.02819275 0.00535707 0.00272041 0.01459387 0.00285409 0.00813357 0.00885363 0.06976513 0.00841396 0.03606033 0.00192466 0.02490846 0.14815585 0.03237985 0.03888983 
0.02236172 0.02815614 0.00539795 0.00270425 0.01430062 0.00280205 0.00810968 0.00880515 0.06962378 0.00835225 0.03637095 0.00195775 0.02417514 0.14748346 0.03196934 0.03746972 
0.02270421 0.02813953 0.00543709 0.00268876 0.01398898 0.00275115 0.00808303 0.00875483 0.06948830 0.00830575 0.03670242 0.00199080 0.02342260 0.14677220 0.03155548 0.03605374 
0.02304352 0.02814168 0.00547424 0.00267401 0.01366066 0.00270155 0.00805368 0.00870273 0.06935920 0.00827413 0.03705143 0.00202360 0.02265392 0.14602109 0.03113945 0.03464775 
0.02337795 0.02816139 0.00550917 0.00266007 0.01331744 0.00265343 0.00802165 0.00864894 0.06923693 0.00825701 0.03741460 0.00205593 0.02187226 0.14522932 0.03072244 0.03325756 
0.02370590 0.02819755 0.00554164 0.00264700 0.01296121 0.00260694 0.00798701 0.00859353 0.06912190 0.00825396 0.03778856 0.00208757 0.02108089 0.14439621 0.03030562 0.03188890 
0.02402577 0.02824915 0.00557142 0.00263486 0.01259388 0.00256222 0.00794981 0.00853663 0.06901445 0.00826447 0.03816991 0.00211832 0.02028311 0.14352131 0.02989013 0.03054742 
0.02433608 0.02831525 0.00559830 0.00262371 0.01221746 0.00251940 0.00791014 0.00847835 0.06891487 0.00828800 0.03855528 0.00214798 0.01948229 0.14260435 0.02947713 0.02923866 
0.02463538 0.02839503 0.00562208 0.00261362 0.01183396 0.00247862 0.00786810 0.00841882 0.06882340 0.00832397 0.03894132 0.00217636 0.01868180 0.14164528 0.02906774 0.02796800 
0.02492233 0.02848778 0.00564257 0.00260464 0.01144545 0.00243998 0.00782379 0.00835818 0.06874022 0.00837172 0.03932474 0.00220326 0.01788504 0.14064431 0.02866305 0.02674071 
0.02519569 0.02859287 0.00565957 0.00259682 0.01105399 0.00240360 0.00777735 0.00829658 0.06866546 0.00843060 0.03970231 0.00222850 0.01709541 0.13960191 0.02826414 0.02556184 
0.02545433 0.02870981 0.00567293 0.00259021 0.01066167 0.00236956 0.00772891 0.00823417 0.06859921 0.00849988 0.04007089 0.00225193 0.01631627 0.13851882 0.02787207 0.02443630 
0.02569721 0.02883820 0.00568251 0.00258485 0.01027055 0.00233795 0.00767864 0.00817114 0.06854147 0.00857882 0.04042746 0.00227339 0.01555095 0.13739609 0.02748787 0.02336877 
0.02592346 0.02897774 0.00568816 0.00258077 0.00988267 0.00230883 0.00762672 0.00810764 0.06849222 0.00866665 0.04076908 0.00229273 0.01480273 0.13623506 0.02711252 0.02236372 
0.02613230 0.02912827 0.00568978 0.00257800 0.00950007 0.00228227 0.00757335 0.00804386 0.06845137 0.00876258 0.04109299 0.00230982 0.01407482 0.13503738 0.02674701 0.02142539 
0.02632310 0.02928968 0.00568726 0.00257658 0.00912470 0.00225831 0.00751874 0.00797999 0.06841877 0.00886580 0.04139654 0.00232456 0.01337032 0.13380502 0.02639225 0.02055776 
0.02649538 0.02946200 0.00568054 0.00257652 0.00875848 0.00223697 0.00746311 0.00791621 0.06839422 0.00897548 0.04167725 0.00233683 0.01269227 0.13254028 0.02604915 0.01976454 
0.02664879 0.02964533 0.00566955 0.00257783 0.00840326 0.00221829 0.00740673 0.00785271 0.06837745 0.00909078 0.04193280 0.00234657 0.01204355 0.13124578 0.02571856 0.01904918 
0.02678314 0.02983983 0.00565427 0.00258052 0.00806082 0.00220227 0.00734985 0.00778968 0.06836814 0.00921086 0.04216106 0.00235369 0.01142695 0.12992446 0.02540132 0.01841484 
0.02689839 0.03004576 0.00563468 0.00258459 0.00773283 0.00218891 0.00729276 0.00772731 0.06836591 0.00933488 0.04236006 0.00235815 0.01084509 0.12857960 0.02509818 0.01786436 
0.02699463 0.03026343 0.00561079 0.00259002 0.00742088 0.00217819 0.00723575 0.00766580 0.06837031 0.00946199 0.04252806 0.00235992 0.01030043 0.12721477 0.02480990 0.01740029 
0.02707213 0.03049319 0.00558263 0.00259681 0.00712644 0.00217007 0.00717914 0.00760534 0.06838083 0.00959136 0.04266347 0.00235897 0.00979529 0.12583384 0.02453717 0.01702483 
0.02713126 0.03073544 0.00555025 0.00260492 0.00685088 0.00216453 0.00712325 0.00754610 0.06839691 0.00972218 0.04276495 0.00235530 0.00933179 0.12444098 0.02428061 0.01673989 
0.02717258 0.03099059 0.00551372 0.00261433 0.00659543 0.00216151 0.00706842 0.00748826 0.06841791 0.00985362 0.04283133 0.00234894 0.00891187 0.12304062 0.02404083 0.01654699 
0.02719676 0.03125908 0.00547315 0.00262500 0.00636121 0.00216095 0.00701500 0.00743202 0.06844314 0.00998490 0.04286165 0.00233992 0.00853726 0.12163744 0.02381836 0.01644734 
0.02720461 0.03154133 0.00542866 0.00263687 0.00614919 0.00216278 0.00696333 0.00737753 0.06847183 0.01011526 0.04285518 0.00232827 0.00820951 0.12023636 0.02361370 0.01644178 
0.02719706 0.03183777 0.00538037 0.00264991 0.00596019 0.00216691 0.00691379 0.00732495 0.06850316 0.01024395 0.04281138 0.00231408 0.00792993 0.11884250 0.02342726 0.01653080 
0.02717517 0.03214878 0.00532845 0.00266405 0.00579492 0.00217325 0.00686675 0.00727446 0.06853627 0.01037027 0.04272990 0.00229742 0.00769962 0.11746113 0.02325943 0.01671453 
0.02714010 0.03247471 0.00527308 0.00267922 0.00565389 0.00218171 0.00682257 0.00722618 0.06857020 0.01049353 0.04261062 0.00227839 0.00751948 0.11609769 0.02311051 0.01699271 
0.02709312 0.03281586 0.00521446 0.00269535 0.00553750 0.00219218 0.00678163 0.00718026 0.06860396 0.01061309 0.04245362 0.00225710 0.00739016 0.11475772 0.02298075 0.01736475 
0.02703556 0.03317244 0.00515280 0.00271235 0.00544597 0.00220453 0.00674430 0.00713684 0.06863651 0.01072836 0.04225914 0.00223368 0.00731208 0.11344684 0.02287033 0.01782966 
0.02696887 0.03354462 0.00508834 0.00273016 0.00537940 0.00221866 0.00671095 0.00709602 0.06866673 0.01083876 0.04202765 0.00220825 0.00728545 0.11217069 0.02277938 0.01838610 
0.02689454 0.03393246 0.00502133 0.00274866 0.00533770 0.00223442 0.00668194 0.00705791 0.06869349 0.01094379 0.04175978 0.00218098 0.00731024 0.11093494 0.02270794 0.01903235 
0.02681412 0.03433590 0.00495203 0.00276778 0.00532064 0.00225170 0.00665762 0.00702263 0.06871558 0.01104296 0.04145634 0.00215202 0.00738619 0.10974520 0.02265600 0.01976635 
0.02672920 0.03475482 0.00488072 0.00278740 0.00532785 0.00227035 0.00663835 0.00699024 0.06873178 0.01113586 0.04111832 0.00212154 0.00751282 0.10860701 0.02262347 0.02058565 
0.02664140 0.03518894 0.00480769 0.00280742 0.00535880 0.00229022 0.00662445 0.00696082 0.06874082 0.01122210 0.04074684 0.00208971 0.00768941 0.10752576 0.02261020 0.02148749 
0.02655237 0.03563786 0.00473325 0.00282774 0.00541284 0.00231119 0.00661624 0.00693445 0.06874142 0.01130137 0.04034322 0.00205674 0.00791505 0.10650673 0.02261595 0.02246871 
0.02646374 0.03610108 0.00465771 0.00284825 0.00548914 0.00233309 0.00661401 0.00691116 0.06873224 0.01137339 0.03990887 0.00202279 0.00818861 0.10555496 0.02264043 0.02352587 
0.02637714 0.03657793 0.00458137 0.00286883 0.00558679 0.00235580 0.00661803 0.00689100 0.06871197 0.01143793 0.03944537 0.00198808 0.00850872 0.10467524 0.02268326 0.02465516 
0.02629417 0.03706761 0.00450458 0.00288937 0.00570471 0.00237915 0.00662857 0.00687400 0.06867927 0.01149483 0.03895442 0.00195280 0.00887387 0.10387211 0.02274399 0.02585249 
0.02621641 0.03756920 0.00442765 0.00290976 0.00584172 0.00240301 0.00664584 0.00686017 0.06863279 0.01154398 0.03843781 0.00191716 0.00928230 0.10314975 0.02282212 0.02711345 
0.02614536 0.03808160 0.00435091 0.00292987 0.00599654 0.00242722 0.00667005 0.00684952 0.06857119 0.01158531 0.03789745 0.00188135 0.00973210 0.10251201 0.02291706 0.02843333 
0.02608249 0.03860361 0.00427471 0.00294959 0.00616777 0.00245165 0.00670137 0.00684205 0.06849317 0.01161881 0.03733535 0.00184559 0.01022120 0.10196232 0.02302814 0.02980718 
0.02602917 0.03913386 0.00419936 0.00296882 0.00635394 0.00247615 0.00673993 0.00683772 0.06839742 0.01164453 0.03675358 0.00181006 0.01074734 0.10150370 0.02315465 0.03122978 
0.02598670 0.03967088 0.00412520 0.00298742 0.00655347 0.00250059 0.00678583 0.00683652 0.06828267 0.01166255 0.03615430 0.00177498 0.01130812 0.10113869 0.02329579 0.03269567 
0.02595628 0.04021305 0.00405255 0.00300530 0.00676472 0.00252484 0.00683916 0.00683841 0.06814770 0.01167303 0.03553972 0.00174054 0.01190101 0.10086935 0.02345071 0.03419919 
0.02593899 0.04075863 0.00398173 0.00302235 0.00698600 0.00254876 0.00689993 0.00684334 0.06799132 0.01167615 0.03491209 0.00170692 0.01252336 0.10069723 0.02361849 0.03573447 
0.02593583 0.04130577 0.00391305 0.00303846 0.00721556 0.00257224 0.00696814 0.00685125 0.06781242 0.01167216 0.03427373 0.00167430 0.01317239 0.10062334 0.02379816 0.03729549 
0.02594764 0.04185254 0.00384679 0.00305352 0.00745161 0.00259515 0.00704375 0.00686207 0.06760994 0.01166132 0.03362696 0.00164287 0.01384522 0.10064813 0.02398869 0.03887607 
0.02597515 0.04239689 0.00378326 0.00306746 0.00769233 0.00261739 0.00712666 0.00687573 0.06738288 0.01164398 0.03297413 0.00161278 0.01453892 0.10077147 0.02418900 0.04046991 
0.02601896 0.04293670 0.00372272 0.00308016 0.00793589 0.00263885 0.00721676 0.00689215 0.06713034 0.01162049 0.03231760 0.00158420 0.01525045 0.10099267 0.02439795 0.04207061 
0.02607952 0.04346981 0.00366544 0.00309155 0.00818047 0.00265944 0.00731388 0.00691123 0.06685151 0.01159125 0.03165973 0.00155727 0.01597673 0.10131042 0.02461438 0.04367172 
